##NAMES=Isoferroplatinum
##RRUFFID=R080067
##IDEAL CHEMISTRY=Pt_3_Fe
##LOCALITY=Chocó Department, Colombia
##OWNER=RRUFF
##SOURCE=Michael Scott
##DESCRIPTION=Black metallic grains embedded in epoxy
##STATUS=The identification of this mineral has been confirmed only by chemical analysis
##URL=rruff.info/R080067
##MEASURED CHEMISTRY=(Pt_2.80_Ir_0.11_Pd_0.07_Os_0.02_)_Σ=3_(Fe_0.90_Cu_0.10_)_Σ=1_; trace amounts of Ru and Rh
117.5935, 0.0000000E+00
118.0756, 0.2731340
118.5577, 0.2775900
119.0398, 4.2794999E-02
119.5220, 6.0277998E-02
120.0041, 0.6395840
120.4862, 1.451952
120.9683, 1.887615
121.4504, 1.977171
121.9325, 1.950857
122.4147, 2.263823
122.8968, 2.912268
123.3789, 3.210417
123.8610, 2.469072
124.3431, 1.266054
124.8252, 0.3321800
125.3074, 3.2896001E-02
125.7895, 0.1006950
126.2716, 0.2136960
126.7537, 0.2866940
127.2358, 0.5721890
127.7179, 1.204187
128.2001, 1.896730
128.6822, 2.228373
129.1643, 1.895124
129.6464, 1.055950
130.1285, 0.7846110
130.6107, 1.566471
131.0928, 2.231697
131.5749, 2.635422
132.0570, 2.801226
132.5391, 2.758123
133.0212, 2.163389
133.5034, 1.044039
133.9855, 0.7500110
134.4676, 1.570589
134.9497, 2.251728
135.4318, 2.470392
135.9139, 2.077551
136.3960, 1.426165
136.8782, 1.341896
137.3603, 1.778497
137.8424, 2.203875
138.3245, 2.629101
138.8066, 3.051714
139.2887, 3.657883
139.7709, 4.604361
140.2530, 5.275297
140.7351, 4.572769
141.2172, 2.661323
141.6993, 1.066962
142.1814, 0.5746960
142.6636, 0.9006120
143.1457, 1.345977
143.6278, 1.928789
144.1099, 2.357768
144.5920, 2.506193
145.0741, 2.378029
145.5563, 2.033075
146.0384, 1.411720
146.5205, 0.4796520
147.0026, 5.9829999E-02
147.4847, 0.2758810
147.9668, 0.6680900
148.4490, 0.7924380
148.9311, 0.5618950
149.4132, 0.1480160
149.8953, 0.1680630
150.3774, 0.4334310
150.8595, 0.5019200
151.3417, 0.1612070
151.8238, 0.2159190
152.3059, 0.3213200
152.7880, 6.3886002E-02
153.2701, 0.3649000
153.7522, 0.5016220
154.2344, 0.2376560
154.7165, 0.6931320
155.1986, 0.4925930
155.6807, 7.8175999E-02
156.1628, 8.5754998E-02
156.6449, 0.8702100
157.1271, 2.154752
157.6092, 2.782598
158.0913, 2.254046
158.5734, 1.747427
159.0555, 1.684999
159.5376, 1.914229
160.0198, 2.011702
160.5019, 1.694283
160.9840, 1.093544
161.4661, 0.7303940
161.9482, 0.6182280
162.4303, 0.6836410
162.9125, 1.009725
163.3946, 1.591705
163.8767, 2.062210
164.3588, 2.181134
164.8409, 2.029397
165.3230, 1.708913
165.8052, 1.037426
166.2873, 0.3732640
166.7694, 0.2849000
167.2515, 0.9669100
167.7336, 1.556419
168.2157, 1.409475
168.6979, 0.9904180
169.1800, 0.8923440
169.6621, 1.530041
170.1442, 2.530819
170.6263, 2.784828
171.1084, 1.750378
171.5906, 0.7973790
172.0727, 0.2843760
172.5548, 0.1277010
173.0369, 0.2466360
173.5190, 0.6573150
174.0011, 1.294340
174.4833, 1.595287
174.9654, 1.219666
175.4475, 0.8613070
175.9296, 0.3547710
176.4117, 0.1040670
176.8938, 0.1364530
177.3760, 0.6313180
177.8581, 2.243084
178.3402, 2.952988
178.8223, 1.938107
179.3044, 0.9412230
179.7865, 0.5825610
180.2687, 0.7890260
180.7508, 1.162975
181.2329, 1.361628
181.7150, 1.358658
182.1971, 1.578150
182.6792, 2.443712
183.1614, 3.146011
183.6435, 3.010128
184.1256, 2.096163
184.6077, 1.247942
185.0898, 1.315363
185.5719, 2.370367
186.0541, 2.965854
186.5362, 2.884974
187.0183, 2.462838
187.5004, 1.749985
187.9825, 0.7087030
188.4646, 0.1162150
188.9468, 1.240521
189.4289, 3.589817
189.9110, 5.137860
190.3931, 4.935804
190.8752, 3.811880
191.3573, 3.015758
191.8395, 2.691198
192.3216, 2.549149
192.8037, 2.381739
193.2858, 2.209030
193.7679, 2.089301
194.2500, 2.053224
194.7322, 2.094302
195.2143, 2.213909
195.6964, 2.533755
196.1785, 2.727465
196.6606, 2.453292
197.1427, 1.926300
197.6249, 1.632221
198.1070, 2.061042
198.5891, 3.107813
199.0712, 3.675689
199.5533, 3.373318
200.0354, 2.972595
200.5176, 2.719051
200.9997, 2.610637
201.4818, 2.607347
201.9639, 2.709857
202.4460, 2.922849
202.9281, 3.008993
203.4103, 2.949581
203.8924, 2.763077
204.3745, 2.314072
204.8566, 1.700692
205.3387, 1.198783
205.8208, 1.007246
206.3030, 1.136130
206.7851, 1.434710
207.2672, 2.343957
207.7493, 2.980515
208.2314, 2.802275
208.7135, 1.997733
209.1957, 1.235596
209.6778, 1.026276
210.1599, 1.364827
210.6420, 1.533381
211.1241, 1.415018
211.6062, 1.249918
212.0884, 1.074008
212.5705, 0.9250200
213.0526, 1.064387
213.5347, 1.845014
214.0168, 3.394693
214.4989, 4.143647
214.9811, 3.418570
215.4632, 2.478846
215.9453, 2.156478
216.4274, 2.487012
216.9095, 2.995902
217.3916, 3.336109
217.8737, 3.480808
218.3559, 3.438550
218.8380, 2.941756
219.3201, 2.427140
219.8022, 2.252929
220.2843, 2.448414
220.7664, 2.910642
221.2486, 3.835013
221.7307, 5.006667
222.2128, 5.491806
222.6949, 4.636768
223.1770, 3.298037
223.6591, 2.394403
224.1413, 1.972940
224.6234, 1.808376
225.1055, 1.895104
225.5876, 2.124007
226.0697, 2.303867
226.5518, 2.313155
227.0340, 2.283262
227.5161, 2.492296
227.9982, 3.064721
228.4803, 3.438346
228.9624, 3.131532
229.4445, 2.460393
229.9267, 1.780774
230.4088, 1.150969
230.8909, 0.6544660
231.3730, 0.4811620
231.8551, 0.7189390
232.3372, 1.065018
232.8194, 1.441190
233.3015, 1.826843
233.7836, 2.254812
234.2657, 2.821612
234.7478, 3.298288
235.2299, 3.018525
235.7121, 1.344301
236.1942, 0.1806750
236.6763, 0.2327960
237.1584, 0.9237310
237.6405, 1.735180
238.1227, 2.487059
238.6048, 3.110982
239.0869, 3.408517
239.5690, 3.199062
240.0511, 2.957253
240.5332, 2.923479
241.0154, 2.850257
241.4975, 2.330600
241.9796, 1.174725
242.4617, 0.1462570
242.9438, 0.3379960
243.4259, 1.801243
243.9081, 3.194715
244.3902, 2.984076
244.8723, 2.196403
245.3544, 1.830858
245.8365, 2.269912
246.3186, 3.152072
246.8008, 3.647079
247.2829, 3.368050
247.7650, 3.145049
248.2471, 2.997193
248.7292, 2.926829
249.2113, 3.029737
249.6935, 3.316210
250.1756, 3.566525
250.6577, 3.328092
251.1398, 1.952593
251.6219, 1.026078
252.1040, 0.8503180
252.5862, 0.9464730
253.0683, 0.8416850
253.5504, 0.4142170
254.0325, 4.7538001E-02
254.5146, 5.3718001E-02
254.9967, 0.7822700
255.4789, 1.380106
255.9610, 1.629405
256.4431, 1.711605
256.9252, 1.708314
257.4073, 1.657001
257.8894, 1.698609
258.3716, 2.072915
258.8537, 3.081709
259.3358, 3.558762
259.8179, 3.045621
260.3000, 2.277683
260.7821, 1.915450
261.2643, 2.065291
261.7464, 2.363439
262.2285, 2.417712
262.7106, 2.161403
263.1927, 1.916021
263.6748, 1.742177
264.1570, 1.548508
264.6391, 1.254764
265.1212, 0.8565180
265.6033, 0.3702050
266.0854, 0.3287090
266.5675, 1.216930
267.0497, 1.331738
267.5318, 0.2053170
268.0139, 1.935897
268.4960, 2.636716
268.9781, 2.265066
269.4602, 1.611710
269.9424, 1.153505
270.4245, 0.9249780
270.9066, 0.9286900
271.3887, 1.432677
271.8708, 1.969783
272.3529, 2.157846
272.8351, 2.016284
273.3172, 1.820506
273.7993, 1.681361
274.2814, 1.634115
274.7635, 1.748055
275.2456, 2.281136
275.7278, 2.689103
276.2099, 2.474895
276.6920, 1.711465
277.1741, 0.9620580
277.6562, 0.3446660
278.1383, 3.9880998E-02
278.6205, 0.3601460
279.1026, 1.663269
279.5847, 2.824888
280.0668, 2.928401
280.5489, 2.147379
281.0310, 1.521094
281.5132, 1.486333
281.9953, 1.703992
282.4774, 1.613020
282.9595, 1.134291
283.4416, 0.8101760
283.9237, 1.159032
284.4059, 1.990301
284.8880, 2.459768
285.3701, 2.181266
285.8522, 1.723966
286.3343, 1.791890
286.8164, 2.353642
287.2986, 2.724207
287.7807, 2.329738
288.2628, 1.428462
288.7449, 0.8908070
289.2270, 0.9349560
289.7091, 1.191462
290.1913, 1.433858
290.6734, 1.642206
291.1555, 1.725949
291.6376, 1.506448
292.1197, 1.144632
292.6018, 1.025702
293.0840, 1.209262
293.5661, 1.549799
294.0482, 2.283665
294.5303, 3.118204
295.0124, 3.447083
295.4945, 2.698008
295.9767, 1.476757
296.4588, 0.9484460
296.9409, 1.319591
297.4230, 1.679990
297.9051, 1.336076
298.3872, 0.7503260
298.8694, 0.5968530
299.3515, 1.246998
299.8336, 2.081538
300.3157, 2.145248
300.7978, 1.270514
301.2799, 0.6760920
301.7621, 1.307850
302.2442, 2.147064
302.7263, 2.152692
303.2084, 1.020849
303.6905, 0.2308250
304.1726, 0.5035350
304.6548, 0.2461500
305.1369, 1.004464
305.6190, 1.642653
306.1011, 2.106563
306.5832, 2.353765
307.0653, 2.383182
307.5475, 2.251339
308.0296, 1.901555
308.5117, 1.364702
308.9938, 1.023898
309.4759, 1.057251
309.9580, 1.151914
310.4402, 0.9879410
310.9223, 0.6631040
311.4044, 0.5659540
311.8865, 1.146300
312.3686, 2.209659
312.8507, 2.938295
313.3329, 3.201031
313.8150, 3.163508
314.2971, 2.883950
314.7792, 2.435886
315.2613, 1.928972
315.7434, 1.312226
316.2256, 0.7310580
316.7077, 0.5642820
317.1898, 0.9805340
317.6719, 1.338878
318.1540, 1.288025
318.6361, 1.056943
319.1183, 0.8701660
319.6004, 0.7861050
320.0825, 0.8086830
320.5646, 0.9212840
321.0467, 1.072260
321.5288, 1.262726
322.0110, 1.604079
322.4931, 1.959357
322.9752, 2.231793
323.4573, 2.403956
323.9394, 2.476388
324.4215, 2.388234
324.9037, 2.188449
325.3858, 2.088853
325.8679, 2.115264
326.3500, 2.093801
326.8321, 1.864892
327.3142, 1.459107
327.7964, 1.075643
328.2785, 0.8523140
328.7606, 0.7651800
329.2427, 0.6611870
329.7248, 0.4017660
330.2069, 0.3682010
330.6891, 1.036083
331.1712, 2.071549
331.6533, 2.753469
332.1354, 2.606232
332.6175, 1.979074
333.0996, 1.535629
333.5818, 1.266268
334.0639, 1.209440
334.5460, 1.584505
335.0281, 2.116267
335.5102, 2.545972
335.9923, 2.833563
336.4745, 2.870537
336.9566, 2.343737
337.4387, 1.193522
337.9208, 0.5506760
338.4029, 1.268393
338.8850, 2.321440
339.3671, 2.660011
339.8492, 2.164375
340.3314, 1.540119
340.8135, 1.300626
341.2956, 1.378411
341.7777, 1.440969
342.2598, 1.420033
342.7419, 1.383120
343.2241, 1.400664
343.7062, 1.459968
344.1883, 1.495218
344.6704, 1.429761
345.1525, 1.325803
345.6346, 1.328004
346.1168, 1.448793
346.5989, 1.621902
347.0810, 1.940018
347.5631, 2.264937
348.0452, 2.311272
348.5273, 1.881592
349.0095, 1.255438
349.4916, 0.6186320
349.9737, 3.4449000E-02
350.4558, 0.3115780
350.9379, 0.2257620
351.4200, 1.112306
351.9022, 1.587045
352.3843, 1.533842
352.8664, 1.291709
353.3485, 1.024101
353.8306, 0.7384090
354.3127, 0.4190820
354.7949, 4.7685001E-02
355.2770, 0.3641070
355.7591, 1.3132000E-02
356.2412, 1.071818
356.7233, 1.843981
357.2054, 1.800936
357.6876, 1.314781
358.1697, 0.9683000
358.6518, 0.8483610
359.1339, 0.7699680
359.6160, 0.5478830
360.0981, 0.2199880
360.5803, 6.7600003E-04
361.0624, 2.9382000E-02
361.5445, 7.6330001E-03
362.0266, 1.1722000E-02
362.5087, 2.7040999E-02
362.9908, 9.0132996E-02
363.4730, 0.2169900
363.9551, 0.4307360
364.4372, 0.8078850
364.9193, 1.563377
365.4014, 2.117810
365.8835, 2.180215
366.3657, 1.877478
366.8478, 1.371228
367.3299, 0.6541840
367.8120, 1.0911000E-02
368.2941, 1.9587001E-02
368.7762, 0.9231390
369.2584, 1.374539
369.7405, 0.5113780
370.2226, 0.5132640
370.7047, 0.3162760
371.1868, 1.189655
371.6689, 2.631670
372.1511, 2.694379
372.6332, 1.295774
373.1153, 0.5208470
373.5974, 0.6650010
374.0795, 1.063769
374.5616, 1.635843
375.0438, 2.216929
375.5259, 2.438094
376.0080, 2.069045
376.4901, 1.263407
376.9722, 0.5568120
377.4543, 0.3245120
377.9365, 0.7605900
378.4186, 0.3741370
378.9007, 0.3480900
379.3828, 0.8835390
379.8649, 1.087916
380.3470, 1.141539
380.8292, 1.288981
381.3113, 1.595830
381.7934, 1.816012
382.2755, 2.020227
382.7576, 2.093245
383.2397, 1.801979
383.7219, 1.282522
384.2040, 0.9747630
384.6861, 1.262466
385.1682, 2.094040
385.6503, 2.638127
386.1324, 2.633045
386.6146, 2.613991
387.0967, 2.828166
387.5788, 3.023637
388.0609, 2.782967
388.5430, 1.933277
389.0251, 0.8388190
389.5073, 0.2510300
389.9894, 0.4319980
390.4715, 0.5901970
390.9536, 0.7780990
391.4357, 0.8605620
391.9178, 0.6468610
392.4000, 0.1877870
392.8821, 0.2123430
393.3642, 0.2186610
393.8463, 0.1845340
394.3284, 0.4540250
394.8105, 0.4788580
395.2927, 0.4923810
395.7748, 0.6442640
396.2569, 0.8270720
396.7390, 0.8217620
397.2211, 0.4606980
397.7032, 2.4219999E-02
398.1854, 6.5977000E-02
398.6675, 0.4987990
399.1496, 1.011748
399.6317, 1.300088
400.1138, 1.460820
400.5959, 1.578505
401.0781, 1.665199
401.5602, 1.612036
402.0423, 1.135341
402.5244, 0.3084120
403.0065, 7.0900000E-03
403.4886, 0.5451360
403.9708, 1.265011
404.4529, 1.792147
404.9350, 2.101963
405.4171, 2.096581
405.8992, 1.442997
406.3813, 0.5973790
406.8635, 0.3768920
407.3456, 0.8589110
407.8277, 1.236942
408.3098, 0.9679210
408.7919, 0.4405070
409.2740, 0.2776770
409.7562, 0.6640290
410.2383, 1.019239
410.7204, 0.8704080
411.2025, 0.4046100
411.6846, 0.1545700
412.1667, 0.2485680
412.6489, 0.6039970
413.1310, 1.361940
413.6131, 2.521903
414.0952, 3.121533
414.5773, 2.580220
415.0594, 1.796281
415.5416, 1.677998
416.0237, 2.201909
416.5058, 2.676793
416.9879, 2.612536
417.4700, 2.137569
417.9521, 1.961505
418.4343, 2.528017
418.9164, 2.810000
419.3985, 2.295073
419.8806, 1.397467
420.3627, 0.6868530
420.8448, 0.3457660
421.3270, 0.3004350
421.8091, 0.4819030
422.2912, 1.051672
422.7733, 1.374352
423.2554, 1.233307
423.7375, 1.036187
424.2197, 1.190676
424.7018, 1.583316
425.1839, 1.743750
425.6660, 1.279628
426.1481, 0.3421700
426.6302, 4.2381998E-02
427.1124, 0.7666960
427.5945, 1.367399
428.0766, 1.477942
428.5587, 1.356384
429.0408, 1.165793
429.5229, 0.9540530
430.0051, 0.8275860
430.4872, 1.000290
430.9693, 1.598315
431.4514, 1.963634
431.9335, 1.864627
432.4156, 1.715114
432.8978, 1.586791
433.3799, 1.543714
433.8620, 1.731045
434.3441, 2.376104
434.8262, 3.184507
435.3083, 3.140765
435.7905, 1.902325
436.2726, 0.7906830
436.7547, 0.2485080
437.2368, 1.9005001E-02
437.7189, 3.1929001E-02
438.2010, 7.9342999E-02
438.6832, 0.2471220
439.1653, 0.3896040
439.6474, 0.5129470
440.1295, 0.6821630
440.6116, 0.9058990
441.0938, 1.081464
441.5759, 1.162323
442.0580, 1.150381
442.5401, 1.016992
443.0222, 0.5490670
443.5043, 9.7878002E-02
443.9865, 8.1409998E-02
444.4686, 0.4560640
444.9507, 0.8252680
445.4328, 1.020205
445.9149, 1.078974
446.3970, 1.060517
446.8792, 0.8961270
447.3613, 0.8555740
447.8434, 1.221881
448.3255, 1.655551
448.8076, 1.623904
449.2897, 1.069201
449.7719, 0.5497330
450.2540, 0.6203850
450.7361, 1.304142
451.2182, 1.813060
451.7003, 2.336155
452.1824, 2.532791
452.6646, 2.018591
453.1467, 1.155271
453.6288, 0.5249450
454.1109, 0.3817050
454.5930, 0.5819540
455.0751, 0.8739880
455.5573, 1.461442
456.0394, 1.709819
456.5215, 1.220633
457.0036, 0.7981350
457.4857, 1.031209
457.9678, 1.802693
458.4500, 2.593835
458.9321, 3.059026
459.4142, 3.190442
459.8963, 2.887975
460.3784, 1.766206
460.8605, 0.8982220
461.3427, 0.5576010
461.8248, 0.5787380
462.3069, 0.9344740
462.7890, 1.615522
463.2711, 2.217425
463.7532, 2.160522
464.2354, 1.512941
464.7175, 1.311275
465.1996, 1.976189
465.6817, 2.613877
466.1638, 2.386808
466.6459, 1.635882
467.1281, 1.241095
467.6102, 1.777508
468.0923, 2.537938
468.5744, 2.831325
469.0565, 2.671150
469.5386, 2.061668
470.0208, 0.7138300
470.5029, 0.7085100
470.9850, 0.8518270
471.4671, 0.4956490
471.9492, 1.578076
472.4313, 1.781901
472.9135, 1.606934
473.3956, 1.579185
473.8777, 1.742670
474.3598, 1.871755
474.8419, 1.782468
475.3240, 1.502674
475.8062, 1.311340
476.2883, 1.396875
476.7704, 1.339740
477.2525, 0.8381050
477.7346, 0.2517400
478.2167, 8.7086000E-02
478.6989, 0.4433900
479.1810, 0.8833330
479.6631, 0.7872280
480.1452, 3.4821998E-02
480.6273, 0.4095830
481.1094, 3.7622999E-02
481.5916, 0.5550930
482.0737, 0.9670720
482.5558, 1.269504
483.0379, 1.500526
483.5200, 1.682641
484.0021, 1.785894
484.4843, 1.690764
484.9664, 1.336437
485.4485, 1.163089
485.9306, 1.371754
486.4127, 1.698956
486.8948, 2.124701
487.3770, 2.569767
487.8591, 2.679184
488.3412, 1.989129
488.8233, 0.9089690
489.3054, 0.2409810
489.7875, 2.1770000E-02
490.2697, 6.1815001E-02
490.7518, 0.1866520
491.2339, 0.2466590
491.7160, 1.1447000E-02
492.1981, 0.6755030
492.6802, 1.195844
493.1624, 1.134422
493.6445, 0.7998230
494.1266, 0.6622010
494.6087, 0.7980660
495.0908, 1.003126
495.5729, 1.134158
496.0551, 1.193443
496.5372, 1.023421
497.0193, 0.2311410
497.5014, 0.3013440
497.9835, 0.1847060
498.4656, 0.3120010
498.9478, 0.9020100
499.4299, 1.464915
499.9120, 1.840611
500.3941, 1.708128
500.8762, 0.7932580
501.3583, 0.4644010
501.8405, 1.231213
502.3226, 2.072149
502.8047, 2.828301
503.2868, 3.361276
503.7689, 3.390089
504.2510, 2.706015
504.7331, 1.769267
505.2152, 1.520483
505.6974, 2.114847
506.1795, 2.415896
506.6616, 1.911681
507.1437, 1.309723
507.6258, 1.212881
508.1079, 1.530296
508.5901, 1.713271
509.0722, 1.282119
509.5543, 0.6690900
510.0364, 0.5792230
510.5185, 1.007689
511.0006, 1.380677
511.4828, 1.388915
511.9649, 1.217470
512.4470, 1.277189
512.9291, 1.641893
513.4113, 1.941206
513.8934, 2.160958
514.3755, 2.220117
514.8576, 1.897501
515.3397, 1.251652
515.8218, 0.7197700
516.3040, 0.6264950
516.7861, 0.9287200
517.2682, 1.313406
517.7503, 2.136702
518.2324, 2.586174
518.7145, 2.349417
519.1967, 1.851888
519.6788, 1.414963
520.1609, 1.153729
520.6430, 1.090600
521.1251, 1.345742
521.6072, 1.906897
522.0894, 1.969902
522.5715, 1.120554
523.0536, 0.4296590
523.5357, 0.2324110
524.0178, 0.3820940
524.4999, 0.8254630
524.9821, 1.589430
525.4642, 2.217957
525.9463, 2.157768
526.4284, 1.572662
526.9105, 1.221021
527.3926, 1.258451
527.8748, 1.381034
528.3569, 1.310848
528.8390, 1.124586
529.3211, 1.039641
529.8032, 1.062496
530.2853, 1.020535
530.7675, 0.8611460
531.2496, 0.6454060
531.7317, 0.5226150
532.2138, 0.5220550
532.6959, 0.5073260
533.1780, 0.3064210
533.6602, 0.1994830
534.1423, 0.1169820
534.6244, 1.397426
535.1065, 2.489793
535.5886, 2.071009
536.0707, 0.8999040
536.5529, 0.1599490
537.0350, 0.3312360
537.5171, 0.9256690
537.9992, 1.101196
538.4813, 0.6798200
538.9634, 0.7207860
539.4456, 1.844737
539.9277, 2.735567
540.4098, 2.598475
540.8919, 1.820971
541.3740, 1.194029
541.8561, 1.043958
542.3383, 1.127995
542.8204, 1.157882
543.3025, 1.149084
543.7846, 1.276367
544.2667, 1.646778
544.7488, 2.038761
545.2310, 2.211422
545.7131, 2.184330
546.1952, 2.065536
546.6773, 1.680286
547.1594, 1.384425
547.6415, 1.480349
548.1237, 1.845641
548.6058, 2.229575
549.0879, 2.545862
549.5700, 2.693618
550.0521, 2.407878
550.5342, 1.389916
551.0164, 0.8540950
551.4985, 1.067370
551.9806, 1.413288
552.4627, 1.742886
552.9448, 1.984604
553.4269, 2.040416
553.9091, 1.854645
554.3912, 1.558102
554.8733, 1.386270
555.3554, 1.341537
555.8375, 1.254567
556.3196, 0.9511020
556.8018, 0.7789230
557.2839, 1.109962
557.7660, 1.751850
558.2481, 2.160912
558.7302, 2.104496
559.2123, 1.781998
559.6945, 1.203314
560.1766, 0.4798710
560.6587, 0.1569110
561.1408, 0.4491520
561.6229, 1.037981
562.1050, 1.598420
562.5872, 2.146474
563.0693, 2.434536
563.5514, 2.432201
564.0335, 2.194996
564.5156, 1.423071
564.9977, 0.5051600
565.4799, 0.2136170
565.9620, 0.8484160
566.4441, 1.839155
566.9262, 2.293808
567.4083, 2.097203
567.8904, 1.814252
568.3726, 1.319474
568.8547, 0.8730130
569.3368, 0.4988180
569.8189, 0.2489700
570.3010, 0.2334850
570.7831, 0.5224460
571.2653, 0.8964470
571.7474, 1.112909
572.2295, 1.183768
572.7116, 1.205807
573.1937, 1.174767
573.6758, 1.133122
574.1580, 1.103693
574.6401, 1.090392
575.1222, 1.111390
575.6043, 1.350035
576.0864, 1.417212
576.5685, 0.9215370
577.0507, 0.1846980
577.5328, 0.2654390
578.0149, 0.2977190
578.4970, 7.6445997E-02
578.9791, 0.2634400
579.4612, 0.7353110
579.9434, 0.9896890
580.4255, 0.8373110
580.9076, 0.6835250
581.3897, 0.5447770
581.8718, 0.4710010
582.3539, 0.5441080
582.8361, 0.7674500
583.3182, 1.004182
583.8003, 1.088671
584.2824, 1.051583
584.7645, 1.193387
585.2466, 1.685570
585.7288, 1.853413
586.2108, 0.9483670
586.6929, 0.2867150
587.1750, 0.6764040
587.6572, 7.9039998E-02
588.1393, 0.7166120
588.6214, 0.4010130
589.1035, 0.2303850
589.5856, 0.3108360
590.0677, 0.2082670
590.5499, 0.9395230
591.0320, 1.716928
591.5141, 2.383860
591.9962, 2.412762
592.4783, 0.9849810
592.9604, 6.3941002E-02
593.4426, 0.1661560
593.9247, 2.8197000E-02
594.4068, 0.4436240
594.8889, 1.095939
595.3710, 1.608421
595.8531, 1.772467
596.3353, 1.666164
596.8174, 1.420884
597.2995, 0.9966670
597.7816, 0.6604950
598.2637, 0.4016530
598.7458, 0.3373220
599.2280, 0.6648870
599.7101, 1.297762
600.1922, 1.766630
600.6743, 1.844696
601.1564, 1.788647
601.6385, 1.858697
602.1207, 2.016117
602.6028, 2.022250
603.0849, 1.788322
603.5670, 1.494133
604.0491, 1.370901
604.5313, 1.444039
605.0134, 1.534950
605.4955, 1.816142
605.9776, 1.916354
606.4597, 1.513360
606.9418, 0.9501950
607.4240, 0.6897480
607.9061, 0.8543260
608.3882, 1.176515
608.8703, 1.370317
609.3524, 1.445612
609.8345, 1.542532
610.3167, 1.677019
610.7988, 1.800199
611.2809, 2.026909
611.7630, 2.159382
612.2451, 1.822982
612.7272, 0.8422580
613.2094, 8.1439003E-02
613.6915, 5.8290999E-02
614.1736, 0.4012030
614.6557, 0.6913190
615.1378, 0.9031880
615.6199, 1.057923
616.1021, 1.185015
616.5842, 1.323180
617.0663, 1.598895
617.5484, 2.354898
618.0305, 2.652213
618.5126, 2.169886
618.9948, 1.571568
619.4769, 1.165650
619.9590, 0.9562160
620.4411, 0.8956600
620.9232, 0.9954340
621.4053, 1.095422
621.8875, 0.8884190
622.3696, 0.3821130
622.8517, 1.8077999E-02
623.3338, 0.1162150
623.8159, 0.1202190
624.2980, 8.0017999E-02
624.7802, 2.4442000E-02
625.2623, 0.2805840
625.7444, 0.8948440
626.2265, 1.409482
626.7086, 1.519238
627.1907, 1.443140
627.6729, 1.579834
628.1550, 1.956778
628.6371, 2.123509
629.1192, 1.618133
629.6013, 0.5695570
630.0834, 7.4856997E-02
630.5656, 0.5110740
631.0477, 0.8840130
631.5298, 1.055647
632.0119, 1.115229
632.4940, 1.054602
632.9761, 0.9239460
633.4583, 0.9019660
633.9404, 1.115553
634.4225, 1.481144
634.9046, 1.960854
635.3867, 2.495829
635.8688, 2.822302
636.3510, 2.863396
636.8331, 2.704133
637.3152, 2.414361
637.7973, 1.975000
638.2794, 1.585586
638.7615, 1.160141
639.2437, 0.8809460
639.7258, 0.7597200
640.2079, 0.8555710
640.6900, 1.426660
641.1721, 2.450599
641.6542, 3.305373
642.1364, 3.234585
642.6185, 2.328048
643.1006, 1.817058
643.5827, 1.741045
644.0648, 1.750667
644.5469, 1.797482
645.0291, 1.897416
645.5112, 2.261094
645.9933, 2.845212
646.4754, 3.110668
646.9575, 2.446418
647.4396, 1.592224
647.9218, 1.392010
648.4039, 1.734419
648.8860, 2.198403
649.3681, 2.648582
649.8502, 2.878483
650.3323, 2.506385
650.8145, 1.298192
651.2966, 0.5540530
651.7787, 0.5611820
652.2608, 0.7263670
652.7429, 1.063523
653.2250, 1.371756
653.7072, 1.331080
654.1893, 0.8814900
654.6714, 0.4202240
655.1535, 0.3633610
655.6356, 0.5933250
656.1177, 0.7461730
656.5999, 0.8209670
657.0820, 0.6903110
657.5641, 0.1020230
658.0462, 0.5479830
658.5283, 0.3943750
659.0104, 0.7383440
659.4926, 1.591718
659.9747, 1.941324
660.4568, 2.008282
660.9389, 1.814569
661.4210, 1.465662
661.9031, 1.109647
662.3853, 0.8081740
662.8674, 0.5979670
663.3495, 0.5390930
663.8316, 0.6381960
664.3137, 0.8085880
664.7958, 1.153577
665.2780, 1.380665
665.7601, 1.239853
666.2422, 0.9720850
666.7243, 0.8373590
667.2064, 0.8736880
667.6885, 1.016228
668.1707, 1.371608
668.6528, 1.727021
669.1349, 1.798609
669.6170, 1.629661
670.0991, 1.487242
670.5812, 1.505568
671.0634, 1.519086
671.5455, 1.186929
672.0276, 0.3015890
672.5097, 0.1221730
672.9918, 0.2595020
673.4739, 0.7500950
673.9561, 1.295310
674.4382, 1.743063
674.9203, 1.835527
675.4024, 1.510034
675.8845, 1.169734
676.3666, 1.269027
676.8488, 1.550906
677.3309, 1.312903
677.8130, 0.5401760
678.2951, 0.1264530
678.7772, 0.5632280
679.2593, 1.356697
679.7415, 1.551991
680.2236, 0.8703470
680.7057, 0.4280590
681.1878, 0.2810240
681.6699, 0.3012810
682.1520, 0.4932780
682.6342, 0.7946750
683.1163, 1.156337
683.5984, 1.551647
684.0805, 1.862412
684.5626, 1.944337
685.0447, 1.827943
685.5269, 1.639250
686.0090, 1.341268
686.4911, 1.187939
686.9732, 1.358188
687.4553, 1.671394
687.9374, 1.847094
688.4196, 1.888848
688.9017, 1.856683
689.3838, 1.747427
689.8659, 1.578745
690.3480, 1.352230
690.8301, 1.076931
691.3123, 0.6917980
691.7944, 0.2045990
692.2765, 0.1383610
692.7586, 6.9030002E-03
693.2407, 0.5621030
693.7228, 1.063037
694.2050, 1.552879
694.6871, 1.819816
695.1692, 1.555822
695.6513, 1.271903
696.1334, 1.487493
696.6155, 2.200595
697.0977, 2.514089
697.5798, 1.689742
698.0619, 0.8088440
698.5440, 0.9054240
699.0261, 1.494139
699.5082, 1.400923
699.9904, 0.3449100
700.4725, 0.7126870
700.9546, 0.6616700
701.4367, 0.4019820
701.9188, 0.9854300
702.4009, 0.7800120
702.8831, 0.7063390
703.3652, 1.244607
703.8473, 1.809310
704.3294, 1.903291
704.8115, 1.580125
705.2936, 1.317680
705.7758, 1.336415
706.2579, 1.456058
706.7400, 1.659073
707.2221, 1.828065
707.7042, 1.607563
708.1863, 0.9406910
708.6685, 0.2610760
709.1506, 7.2508998E-02
709.6327, 5.2005000E-02
710.1148, 0.4604650
710.5969, 2.025802
711.0790, 3.043304
711.5612, 3.073923
712.0433, 2.731486
712.5254, 2.217880
713.0075, 1.647771
713.4896, 1.256615
713.9717, 1.141899
714.4539, 1.221950
714.9360, 1.523075
715.4181, 1.944253
715.9002, 2.276324
716.3823, 2.528042
716.8644, 2.547283
717.3466, 2.110445
717.8287, 1.409423
718.3108, 1.181682
718.7929, 1.869789
719.2750, 2.186206
719.7571, 1.800514
720.2393, 1.352305
720.7214, 1.193771
721.2035, 1.196268
721.6856, 1.054242
722.1677, 0.6368890
722.6498, 0.2357180
723.1320, 1.8600000E-04
723.6141, 1.6981000E-02
724.0962, 0.4768170
724.5783, 1.438968
725.0604, 2.068529
725.5425, 1.880857
726.0247, 1.276206
726.5068, 1.111876
726.9889, 1.602309
727.4710, 1.880018
727.9531, 1.840064
728.4352, 1.711469
728.9174, 1.612551
729.3995, 1.447012
729.8816, 1.003903
730.3637, 0.2704100
730.8458, 8.2919002E-02
731.3279, 0.8434510
731.8101, 2.184368
732.2922, 2.358515
732.7743, 1.527378
733.2564, 0.9764900
733.7385, 1.211170
734.2206, 1.610659
734.7028, 1.315511
735.1849, 0.2397240
735.6670, 0.2248770
736.1491, 0.6010860
736.6312, 1.176033
737.1133, 1.045014
737.5955, 0.7164790
738.0776, 0.5417270
738.5597, 0.5892890
739.0418, 0.9190030
739.5239, 1.853840
740.0060, 2.727078
740.4882, 2.558309
740.9703, 1.692605
741.4524, 1.257917
741.9345, 1.487073
742.4166, 1.729998
742.8987, 1.418838
743.3809, 0.6967920
743.8630, 0.2704960
744.3451, 0.1397570
744.8272, 0.3187770
745.3093, 1.334247
745.7914, 2.124503
746.2736, 1.857231
746.7557, 0.9914700
747.2378, 0.5314470
747.7199, 0.8638130
748.2020, 1.333508
748.6841, 1.484341
749.1663, 1.422764
749.6484, 1.215051
750.1305, 0.9132410
750.6126, 0.9848660
751.0947, 1.724545
751.5768, 2.512487
752.0590, 2.110194
752.5411, 6.6895001E-02
753.0232, 1.017717
753.5053, 0.4925390
753.9874, 0.1421380
754.4695, 0.5165840
754.9517, 0.7142320
755.4338, 0.7771940
755.9159, 0.7215970
756.3980, 0.7024490
756.8801, 0.9152430
757.3622, 1.093350
757.8444, 0.8509360
758.3265, 0.3344070
758.8086, 0.1372800
759.2907, 0.4248870
759.7728, 0.7336410
760.2549, 0.6236170
760.7371, 0.2087660
761.2192, 0.2695830
761.7013, 1.128493
762.1834, 1.578743
762.6655, 0.9720550
763.1476, 0.3592820
763.6298, 0.5907700
764.1119, 1.365318
764.5940, 1.826409
765.0761, 1.697953
765.5582, 1.444735
766.0403, 1.219658
766.5225, 1.036667
767.0046, 0.8288720
767.4867, 0.6631160
767.9688, 0.8116870
768.4509, 1.406743
768.9330, 2.106180
769.4152, 2.290211
769.8973, 1.945776
770.3794, 1.600713
770.8615, 1.231700
771.3436, 0.9582940
771.8257, 0.9064950
772.3079, 0.9274560
772.7900, 0.7685210
773.2721, 0.4069750
773.7542, 0.1729750
774.2363, 0.2389160
774.7184, 0.3095350
775.2006, 0.1647560
775.6827, 2.8161000E-02
776.1648, 4.5500000E-04
776.6469, 0.2585950
777.1290, 0.5005680
777.6111, 0.5136200
778.0933, 0.4077140
778.5754, 0.4165300
779.0575, 0.5385630
779.5396, 0.7748080
780.0217, 1.182675
780.5038, 1.500204
780.9860, 1.520732
781.4681, 1.285553
781.9502, 0.9520690
782.4323, 0.1882750
782.9144, 0.1339960
783.3965, 0.4225710
783.8787, 1.033745
784.3608, 1.356983
784.8429, 1.362777
785.3250, 0.9277460
785.8071, 8.4910002E-03
786.2892, 0.7037290
786.7714, 0.4344020
787.2535, 0.3585290
787.7356, 0.8801200
788.2177, 1.116403
788.6998, 1.165395
789.1819, 1.071673
789.6641, 0.9412890
790.1462, 0.9137920
790.6283, 0.9888290
791.1104, 1.079773
791.5925, 1.157582
792.0746, 1.300949
792.5568, 1.756232
793.0389, 2.079637
793.5210, 1.734100
794.0031, 0.9890270
794.4852, 0.6716690
794.9673, 1.280822
795.4495, 1.872749
795.9316, 1.702059
796.4137, 1.263786
796.8958, 1.251328
797.3779, 1.629304
797.8600, 1.970513
798.3422, 2.059225
798.8243, 1.895299
799.3064, 1.285464
799.7885, 0.1867270
800.2706, 7.7599997E-04
800.7527, 1.060794
801.2349, 2.030223
801.7170, 2.447651
802.1991, 2.447376
802.6812, 2.087161
803.1633, 1.372183
803.6454, 0.8198580
804.1276, 0.4476070
804.6097, 0.2970830
805.0918, 0.6252680
805.5739, 1.024240
806.0560, 0.9626810
806.5381, 0.5244340
807.0203, 0.2818840
807.5024, 0.6030370
807.9845, 1.162539
808.4666, 1.657098
808.9487, 2.014696
809.4308, 1.803520
809.9130, 0.9632310
810.3951, 0.3145530
810.8772, 0.2933940
811.3593, 0.7135240
811.8414, 1.011147
812.3235, 1.135751
812.8057, 1.186040
813.2878, 1.020170
813.7699, 0.9590480
814.2520, 1.330974
814.7341, 1.687788
815.2162, 1.399799
815.6984, 0.5163380
816.1805, 1.4748000E-02
816.6626, 0.5327370
817.1447, 1.213739
817.6268, 1.382222
818.1089, 1.202983
818.5911, 0.7897900
819.0732, 0.2614880
819.5553, 9.5299998E-04
820.0374, 0.2799120
820.5195, 0.8558820
821.0016, 1.279664
821.4838, 1.552981
821.9659, 1.594028
822.4480, 1.360816
822.9301, 0.9936810
823.4122, 0.4369680
823.8943, 0.1027870
824.3765, 0.1974050
824.8586, 0.2887220
825.3407, 0.5012570
825.8228, 5.0565001E-02
826.3049, 0.2390040
826.7870, 3.8840000E-03
827.2692, 0.4768060
827.7513, 1.024524
828.2334, 1.536101
828.7155, 1.789303
829.1976, 1.611148
829.6797, 1.227332
830.1619, 0.7700640
830.6440, 0.3282790
831.1261, 0.1166420
831.6082, 0.1559770
832.0903, 0.4014940
832.5724, 0.8533810
833.0546, 1.354863
833.5367, 1.596607
834.0188, 1.556827
834.5009, 1.407509
834.9830, 1.048815
835.4651, 0.7792970
835.9473, 0.6745020
836.4294, 0.7406020
836.9115, 1.072201
837.3936, 1.644595
837.8757, 1.988610
838.3578, 1.950400
838.8400, 1.774774
839.3221, 1.352732
839.8042, 0.9821630
840.2863, 1.014988
840.7684, 1.375074
841.2505, 1.785949
841.7327, 2.131021
842.2148, 2.295489
842.6969, 1.999639
843.1790, 1.437889
843.6611, 1.205098
844.1432, 1.278092
844.6254, 1.314849
845.1075, 1.149578
845.5896, 0.8874350
846.0717, 0.6530710
846.5538, 0.4454720
847.0359, 0.6246860
847.5181, 1.616916
848.0002, 2.149815
848.4823, 1.534750
848.9644, 0.8177810
849.4465, 0.7730660
849.9286, 1.200451
850.4108, 1.421118
850.8929, 1.228294
851.3750, 1.044624
851.8571, 0.9456750
852.3392, 0.9790750
852.8214, 1.322134
853.3035, 1.792080
853.7856, 2.047923
854.2677, 1.980503
854.7498, 1.705339
855.2319, 1.186524
855.7141, 0.6128580
856.1962, 0.4949100
856.6783, 0.7620930
857.1604, 0.8730400
857.6425, 0.6828010
858.1246, 0.5405530
858.6068, 0.7892180
859.0889, 1.250729
859.5710, 1.189346
860.0531, 0.2064130
860.5352, 0.2325330
861.0173, 0.2567900
861.4995, 0.8598810
861.9816, 1.246407
862.4637, 1.519828
862.9458, 1.867872
863.4279, 2.320508
863.9100, 2.510610
864.3922, 2.111228
864.8743, 1.711607
865.3564, 1.652419
865.8385, 1.746126
866.3206, 1.770833
866.8027, 1.687068
867.2849, 1.534853
867.7670, 1.293591
868.2491, 1.086478
868.7312, 1.095825
869.2133, 1.265611
869.6954, 1.468587
870.1776, 1.684974
870.6597, 1.847975
871.1418, 1.934184
871.6239, 1.887339
872.1060, 1.561372
872.5881, 0.9647820
873.0703, 0.9036310
873.5524, 1.680613
874.0345, 2.227845
874.5166, 2.267506
874.9987, 2.063149
875.4808, 1.716272
875.9630, 1.293743
876.4451, 0.9758100
876.9272, 0.6456070
877.4093, 0.6953620
877.8914, 1.565787
878.3735, 2.465092
878.8557, 3.103092
879.3378, 3.364936
879.8199, 2.953438
880.3020, 1.900638
880.7841, 1.052792
881.2662, 1.072062
881.7484, 1.443618
882.2305, 1.608352
882.7126, 1.593493
883.1947, 1.377343
883.6768, 0.9952190
884.1589, 0.6597210
884.6411, 0.5217840
885.1232, 0.5278720
885.6053, 0.6280140
886.0874, 0.8286810
886.5695, 0.8419750
887.0516, 0.5941040
887.5338, 0.4387700
888.0159, 0.5090870
888.4980, 0.7383140
888.9801, 1.112683
889.4622, 1.631316
889.9443, 1.882246
890.4265, 1.543911
890.9086, 1.403913
891.3907, 1.911374
891.8728, 2.277827
892.3549, 1.758377
892.8370, 0.7912080
893.3192, 0.3920640
893.8013, 0.8695150
894.2834, 1.316280
894.7655, 1.173975
895.2476, 0.9289470
895.7297, 1.004862
896.2119, 1.260446
896.6940, 1.458941
897.1761, 1.540868
897.6582, 1.499347
898.1403, 1.275903
898.6224, 1.092232
899.1046, 1.483068
899.5867, 2.258293
900.0688, 2.513564
900.5509, 2.177037
901.0330, 1.845887
901.5151, 1.809570
901.9973, 1.862754
902.4794, 1.679741
902.9615, 1.259967
903.4436, 1.096107
903.9257, 1.382004
904.4078, 1.397470
904.8900, 0.7948550
905.3721, 0.1343180
905.8542, 0.2669990
906.3363, 0.3773780
906.8184, 4.0571999E-02
907.3005, 1.105769
907.7827, 1.812594
908.2648, 1.617175
908.7469, 1.305632
909.2290, 1.288815
909.7111, 1.355763
910.1932, 1.040084
910.6754, 0.4138100
911.1575, 0.3390250
911.6396, 1.782200
912.1217, 3.106714
912.6038, 2.592029
913.0859, 1.364584
913.5681, 1.075537
914.0502, 1.647741
914.5323, 2.141476
915.0144, 2.142476
915.4965, 1.885136
915.9786, 1.562908
916.4607, 1.226404
916.9428, 1.099013
917.4249, 1.161398
917.9070, 1.094904
918.3892, 0.7908010
918.8713, 0.7029490
919.3534, 1.278484
919.8355, 2.152211
920.3176, 2.120754
920.7997, 0.8380040
921.2819, 5.6984000E-02
921.7640, 0.4389710
922.2461, 0.6402680
922.7282, 0.8386740
923.2103, 0.8785100
923.6924, 0.4219710
924.1746, 0.4907230
924.6567, 1.041272
925.1388, 0.8915910
925.6209, 0.8063850
926.1030, 0.9378880
926.5851, 1.159780
927.0673, 1.540250
927.5494, 1.894897
928.0315, 1.868915
928.5136, 1.367800
928.9957, 0.8385360
929.4778, 0.3499380
929.9600, 8.8643998E-02
930.4421, 0.3901670
930.9242, 0.9272710
931.4063, 1.121632
931.8884, 0.9937080
932.3705, 1.092981
932.8527, 1.774593
933.3348, 2.470268
933.8169, 2.325604
934.2990, 1.641100
934.7811, 1.146036
935.2632, 0.8936890
935.7454, 1.110074
936.2275, 1.873625
936.7096, 2.378467
937.1917, 1.735055
937.6738, 0.3367990
938.1559, 0.1503360
938.6381, 0.3880540
939.1202, 0.9722390
939.6023, 1.581980
940.0844, 1.964866
940.5665, 1.945994
941.0486, 1.685812
941.5308, 1.410290
942.0129, 1.108280
942.4950, 0.9034780
942.9771, 0.8180280
943.4592, 0.7967730
943.9413, 0.8928890
944.4235, 0.9889150
944.9056, 0.8920500
945.3877, 0.7686230
945.8698, 1.076014
946.3519, 2.058056
946.8340, 2.605679
947.3162, 2.176770
947.7983, 1.543492
948.2804, 0.9754120
948.7625, 0.5101230
949.2446, 1.9145001E-02
949.7267, 0.3743830
950.2089, 0.1338040
950.6910, 1.221418
951.1731, 2.452594
951.6552, 2.453756
952.1373, 1.881228
952.6194, 1.369622
953.1016, 1.017405
953.5837, 0.9911490
954.0658, 1.283643
954.5479, 1.447802
955.0300, 0.9023990
955.5121, 0.2260910
955.9943, 0.6901160
956.4764, 1.911822
956.9585, 2.268767
957.4406, 1.598712
957.9227, 0.8821160
958.4048, 0.5453060
958.8870, 0.5819520
959.3691, 1.090715
959.8512, 1.958542
960.3333, 2.202355
960.8154, 1.725492
961.2975, 1.317383
961.7797, 1.097041
962.2618, 1.055786
962.7439, 1.287827
963.2260, 1.579004
963.7081, 1.360081
964.1902, 0.4114060
964.6724, 0.1594080
965.1545, 1.117429
965.6366, 1.871909
966.1187, 1.917408
966.6008, 1.823343
967.0829, 2.089669
967.5651, 2.603994
968.0472, 2.852052
968.5293, 2.881879
969.0114, 2.590390
969.4935, 1.357528
969.9756, 0.5127910
970.4578, 1.107741
970.9399, 2.068056
971.4220, 2.111734
971.9041, 1.328383
972.3862, 0.7851350
972.8683, 0.9220880
973.3505, 1.181691
973.8326, 1.262902
974.3147, 1.357112
974.7968, 1.819085
975.2789, 2.348475
975.7610, 2.298745
976.2432, 1.620726
976.7253, 0.9831630
977.2074, 0.7173580
977.6895, 0.8654450
978.1716, 1.838090
978.6537, 3.070847
979.1359, 3.563916
979.6180, 3.355807
980.1001, 2.958728
980.5822, 2.582557
981.0643, 2.352250
981.5464, 2.502940
982.0286, 2.821960
982.5107, 2.764604
982.9928, 2.382661
983.4749, 1.851672
983.9570, 1.218058
984.4391, 0.7377110
984.9213, 0.5541150
985.4034, 0.5109380
985.8855, 0.3548230
986.3676, 0.1070120
986.8497, 0.1491490
987.3318, 0.5002720
987.8140, 0.9458880
988.2961, 1.483233
988.7782, 1.977912
989.2603, 2.390054
989.7424, 2.615778
990.2245, 2.366891
990.7067, 1.520722
991.1888, 1.255842
991.6709, 1.901482
992.1530, 2.325588
992.6351, 2.273669
993.1172, 1.898544
993.5994, 1.065625
994.0815, 6.6757001E-02
994.5636, 0.1260660
995.0457, 0.9919200
995.5278, 1.489074
996.0099, 0.6939050
996.4921, 0.1563740
996.9742, 0.4923840
997.4563, 1.007526
997.9384, 1.123712
998.4205, 0.9231360
998.9026, 0.7272080
999.3848, 0.4294140
999.8669, 0.4759290
1000.349, 1.517576
1000.831, 2.261171
1001.313, 1.791834
1001.795, 0.9075590
1002.277, 0.3992980
1002.760, 0.3403310
1003.242, 0.5728620
1003.724, 1.183840
1004.206, 1.733790
1004.688, 1.951063
1005.170, 2.101289
1005.652, 2.555715
1006.134, 2.995896
1006.617, 2.771421
1007.099, 1.938476
1007.581, 1.371436
1008.063, 1.684083
1008.545, 2.099623
1009.027, 1.928636
1009.509, 1.536645
1009.991, 1.423928
1010.473, 1.425386
1010.956, 0.9275550
1011.438, 6.8989001E-02
1011.920, 0.5393420
1012.402, 0.4704140
1012.884, 1.684848
1013.366, 1.243942
1013.848, 2.0090999E-02
1014.330, 0.3672630
1014.813, 3.2582000E-02
1015.295, 0.6695770
1015.777, 1.318434
1016.259, 1.685094
1016.741, 1.396552
1017.223, 0.9454830
1017.705, 1.497340
1018.187, 2.648768
1018.669, 2.921176
1019.152, 2.278967
1019.634, 1.393582
1020.116, 0.5266750
1020.598, 8.2089998E-02
1021.080, 0.1500280
1021.562, 0.1725630
1022.044, 0.5157630
1022.526, 0.8666760
1023.008, 1.190568
1023.491, 1.481539
1023.973, 1.260597
1024.455, 0.2416110
1024.937, 0.5069690
1025.419, 0.3650500
1025.901, 2.391634
1026.383, 3.121619
1026.865, 2.462145
1027.348, 1.897288
1027.830, 1.566174
1028.312, 1.360744
1028.794, 1.241361
1029.276, 1.200442
1029.758, 1.243343
1030.240, 1.353621
1030.722, 1.353318
1031.204, 1.138711
1031.687, 1.342538
1032.169, 2.223736
1032.651, 2.948164
1033.133, 3.126770
1033.615, 2.945194
1034.097, 2.580361
1034.579, 2.055301
1035.061, 1.732557
1035.544, 1.613087
1036.026, 1.738996
1036.508, 2.418612
1036.990, 2.749873
1037.472, 2.007358
1037.954, 1.021937
1038.436, 0.9817040
1038.918, 1.841165
1039.401, 2.235848
1039.883, 1.822749
1040.365, 1.587907
1040.847, 1.869217
1041.329, 1.960797
1041.811, 1.327231
1042.293, 0.4858430
1042.775, 1.2370000E-03
1043.257, 0.1210320
1043.740, 0.2861270
1044.222, 2.136753
1044.704, 3.102318
1045.186, 2.352015
1045.668, 1.528506
1046.150, 1.316959
1046.632, 1.440415
1047.114, 1.634431
1047.596, 1.872828
1048.079, 1.978063
1048.561, 1.892885
1049.043, 1.737916
1049.525, 1.275727
1050.007, 1.034750
1050.489, 1.514085
1050.971, 2.229124
1051.453, 2.507021
1051.936, 2.368032
1052.418, 2.043605
1052.900, 1.449668
1053.382, 0.9357670
1053.864, 0.5739080
1054.346, 0.2990490
1054.828, 7.1861997E-02
1055.310, 8.3555996E-02
1055.792, 0.1801860
1056.275, 0.1877610
1056.757, 8.7081000E-02
1057.239, 1.017242
1057.721, 1.541808
1058.203, 0.8886750
1058.685, 0.3065030
1059.167, 0.4946970
1059.649, 1.124841
1060.131, 2.017148
1060.614, 2.978922
1061.096, 3.376868
1061.578, 2.812549
1062.060, 2.289027
1062.542, 2.141640
1063.024, 2.135867
1063.506, 2.285373
1063.988, 2.400456
1064.471, 2.162413
1064.953, 1.708540
1065.435, 1.532469
1065.917, 1.885529
1066.399, 2.202788
1066.881, 2.178743
1067.363, 2.150484
1067.845, 2.576083
1068.328, 2.907054
1068.810, 2.241377
1069.292, 0.9374260
1069.774, 0.3049280
1070.256, 0.8979040
1070.738, 1.486297
1071.220, 1.530458
1071.702, 1.452426
1072.184, 1.401623
1072.667, 1.436864
1073.149, 1.541219
1073.631, 1.706485
1074.113, 1.951540
1074.595, 2.297818
1075.077, 2.510312
1075.559, 2.516505
1076.041, 2.316290
1076.523, 1.593425
1077.006, 0.9301870
1077.488, 1.011144
1077.970, 1.576569
1078.452, 2.025028
1078.934, 2.217219
1079.416, 2.092434
1079.898, 1.351160
1080.380, 0.5948630
1080.862, 6.7008004E-02
1081.345, 0.2784610
1081.827, 0.6776580
1082.309, 0.8529380
1082.791, 5.9308000E-02
1083.273, 1.808187
1083.755, 3.105058
1084.237, 2.848474
1084.719, 2.315883
1085.202, 1.928329
1085.684, 1.685928
1086.166, 1.639799
1086.648, 1.712289
1087.130, 1.805527
1087.612, 1.898877
1088.094, 2.014861
1088.576, 2.356405
1089.058, 2.334167
1089.541, 1.113663
1090.023, 5.2349001E-02
1090.505, 0.2221420
1090.987, 1.060303
1091.469, 2.021359
1091.951, 2.880532
1092.433, 3.160664
1092.915, 2.549190
1093.397, 1.834815
1093.880, 1.167221
1094.362, 0.6695930
1094.844, 0.3214560
1095.326, 0.2595810
1095.808, 0.9101830
1096.290, 1.955196
1096.772, 2.380613
1097.254, 1.817430
1097.737, 1.347717
1098.219, 1.414459
1098.701, 1.480339
1099.183, 1.171861
1099.665, 0.8870240
1100.147, 1.155885
1100.629, 1.683519
1101.111, 1.701756
1101.594, 1.047530
1102.076, 0.6717660
1102.558, 1.109166
1103.040, 1.471967
1103.522, 1.383317
1104.004, 1.210567
1104.486, 1.258100
1104.968, 1.376707
1105.450, 1.232793
1105.932, 0.8124240
1106.415, 0.6440220
1106.897, 1.302655
1107.379, 1.510191
1107.861, 0.2693630
1108.343, 0.6187910
1108.825, 0.1756620
1109.307, 1.566907
1109.789, 2.243842
1110.272, 2.225094
1110.754, 2.220971
1111.236, 2.510044
1111.718, 2.395160
1112.200, 1.340915
1112.682, 0.4789410
1113.164, 0.1668340
1113.646, 0.2243550
1114.129, 0.6369080
1114.611, 1.293963
1115.093, 1.811675
1115.575, 2.279792
1116.057, 2.296368
1116.539, 1.313537
1117.021, 0.7118610
1117.503, 0.9518440
1117.985, 1.421094
1118.468, 1.826826
1118.950, 2.138472
1119.432, 2.295519
1119.914, 2.293836
1120.396, 2.195190
1120.878, 2.082605
1121.360, 1.643429
1121.842, 0.4561170
1122.324, 0.3180040
1122.807, 0.1243940
1123.289, 0.9565560
1123.771, 1.025186
1124.253, 0.4719230
1124.735, 0.4390750
1125.217, 1.194522
1125.699, 1.470561
1126.181, 0.9941550
1126.664, 0.7494700
1127.146, 1.189708
1127.628, 1.680582
1128.110, 1.622932
1128.592, 1.248716
1129.074, 1.197459
1129.556, 1.506113
1130.038, 1.803815
1130.521, 2.143535
1131.003, 1.979452
1131.485, 1.086859
1131.967, 0.3667050
1132.449, 0.4303020
1132.931, 0.8567100
1133.413, 0.9501810
1133.895, 0.7731860
1134.377, 0.7723520
1134.859, 0.9426240
1135.342, 1.177804
1135.824, 1.459145
1136.306, 1.468695
1136.788, 1.056165
1137.270, 0.7354300
1137.752, 1.125343
1138.234, 1.841169
1138.716, 1.890474
1139.199, 1.408120
1139.681, 0.9671420
1140.163, 0.6398100
1140.645, 0.5719570
1141.127, 0.7247720
1141.609, 0.9906940
1142.091, 1.325091
1142.573, 1.546505
1143.056, 1.235803
1143.538, 0.7220040
1144.020, 0.6932720
1144.502, 1.018461
1144.984, 1.487309
1145.466, 1.932775
1145.948, 1.831818
1146.430, 0.9766000
1146.912, 0.1557240
1147.395, 0.1262350
1147.877, 0.4110670
1148.359, 0.4634990
1148.841, 0.4963350
1149.323, 0.9651360
1149.805, 1.626224
1150.287, 1.787917
1150.769, 1.385623
1151.251, 1.172074
1151.734, 1.666459
1152.216, 2.123377
1152.698, 2.111007
1153.180, 1.808866
1153.662, 1.106678
1154.144, 0.3339350
1154.626, 0.2349000
1155.108, 0.5005470
1155.591, 0.2145270
1156.073, 0.8264780
1156.555, 1.517150
1157.037, 1.236331
1157.519, 0.8395580
1158.001, 0.3942550
1158.483, 0.2435880
1158.965, 0.9212810
1159.448, 1.932097
1159.930, 2.442535
1160.412, 2.387305
1160.894, 2.175016
1161.376, 1.631893
1161.858, 1.277697
1162.340, 1.319074
1162.822, 1.349548
1163.304, 1.199924
1163.786, 1.005910
1164.269, 0.8486620
1164.751, 0.7735010
1165.233, 0.8955140
1165.715, 1.316803
1166.197, 1.487216
1166.679, 1.398513
1167.161, 1.319300
1167.643, 1.269278
1168.126, 1.369619
1168.608, 1.753971
1169.090, 2.189151
1169.572, 2.325695
1170.054, 2.194764
1170.536, 2.010046
1171.018, 1.704133
1171.500, 1.776969
1171.983, 2.346202
1172.465, 2.659851
1172.947, 2.452374
1173.429, 1.992090
1173.911, 1.445872
1174.393, 1.050047
1174.875, 1.485302
1175.357, 2.420688
1175.839, 2.572087
1176.322, 2.065424
1176.804, 1.369690
1177.286, 0.6592680
1177.768, 0.3600240
1178.250, 0.6530300
1178.732, 1.097713
1179.214, 1.401777
1179.696, 1.453235
1180.178, 0.6567810
1180.661, 0.1856020
1181.143, 0.4784970
1181.625, 1.963283
1182.107, 2.542927
1182.589, 1.971053
1183.071, 1.155370
1183.553, 0.4422120
1184.035, 4.4287000E-02
1184.518, 0.3995900
1185.000, 0.2670460
1185.482, 1.199085
1185.964, 2.788103
1186.446, 3.138454
1186.928, 2.572327
1187.410, 2.011324
1187.892, 1.613190
1188.375, 1.331264
1188.857, 1.063267
1189.339, 1.046546
1189.821, 1.457857
1190.303, 1.979468
1190.785, 2.772789
1191.267, 3.347745
1191.749, 2.993692
1192.231, 2.006070
1192.714, 1.551500
1193.196, 1.803896
1193.678, 1.932214
1194.160, 1.972821
1194.642, 1.733808
1195.124, 1.002304
1195.606, 0.5389530
1196.088, 0.8839170
1196.570, 1.435992
1197.053, 1.302596
1197.535, 0.6840550
1198.017, 0.5948080
1198.499, 1.025101
1198.981, 1.601551
1199.463, 2.280689
1199.945, 2.622568
1200.427, 2.514724
1200.910, 2.359921
1201.392, 2.455559
1201.874, 2.476095
1202.356, 1.710557
1202.838, 0.6746360
1203.320, 0.4796380
1203.802, 0.8995590
1204.284, 1.685036
1204.766, 2.547595
1205.249, 2.694841
1205.731, 1.970561
1206.213, 1.253606
1206.695, 0.9829040
1207.177, 1.138961
1207.659, 2.088206
1208.141, 3.067326
1208.623, 3.663907
1209.105, 3.696982
1209.588, 2.478899
1210.070, 0.6119600
1210.552, 0.1243250
1211.034, 0.7466860
1211.516, 1.673746
1211.998, 2.582741
1212.480, 3.075979
1212.962, 2.791193
1213.445, 2.415805
1213.927, 2.347850
1214.409, 2.266140
1214.891, 1.717684
1215.373, 0.8766320
1215.855, 0.5628740
1216.337, 0.9597120
1216.819, 1.052930
1217.302, 0.6964480
1217.784, 0.6943280
1218.266, 1.364294
1218.748, 1.651930
1219.230, 0.8549090
1219.712, 8.1372000E-02
1220.194, 0.9673620
1220.676, 2.713216
1221.158, 2.420009
1221.641, 0.5895230
1222.123, 0.1126670
1222.605, 0.3131810
1223.087, 1.076892
1223.569, 1.887794
1224.051, 2.336079
1224.533, 2.182564
1225.015, 1.815925
1225.497, 1.513563
1225.980, 1.323303
1226.462, 1.576128
1226.944, 1.763538
1227.426, 0.7688470
1227.908, 0.6469040
1228.390, 0.6611440
1228.872, 0.8033080
1229.354, 1.797170
1229.837, 1.447683
1230.319, 1.127692
1230.801, 1.810592
1231.283, 2.181304
1231.765, 1.174755
1232.247, 0.1733690
1232.729, 0.4791090
1233.211, 1.432452
1233.693, 1.799450
1234.176, 1.600176
1234.658, 1.415060
1235.140, 1.197821
1235.622, 1.128560
1236.104, 1.208774
1236.586, 1.542034
1237.068, 2.280417
1237.550, 2.655935
1238.032, 2.029732
1238.515, 1.081472
1238.997, 1.049244
1239.479, 1.600085
1239.961, 1.228086
1240.443, 0.2012970
1240.925, 0.2617860
1241.407, 0.1263090
1241.889, 0.1647970
1242.372, 0.4715490
1242.854, 0.8903380
1243.336, 1.508359
1243.818, 1.965765
1244.300, 1.733935
1244.782, 1.266519
1245.264, 0.8474190
1245.746, 0.5788560
1246.229, 0.6077700
1246.711, 0.8570180
1247.193, 1.180861
1247.675, 1.542172
1248.157, 1.970400
1248.639, 2.666804
1249.121, 2.974400
1249.603, 2.444757
1250.085, 2.105976
1250.568, 2.651858
1251.050, 3.014313
1251.532, 2.220049
1252.014, 0.8526920
1252.496, 0.8734380
1252.978, 1.889424
1253.460, 2.026966
1253.942, 1.154745
1254.424, 0.8252530
1254.907, 1.151729
1255.389, 1.361236
1255.871, 1.245935
1256.353, 1.341349
1256.835, 2.018193
1257.317, 2.665360
1257.799, 2.337664
1258.281, 1.525344
1258.764, 1.523458
1259.246, 1.904238
1259.728, 1.664976
1260.210, 1.038265
1260.692, 0.7488990
1261.174, 0.8890600
1261.656, 1.074551
1262.138, 1.168548
1262.620, 1.172601
1263.103, 1.009422
1263.585, 0.8566780
1264.067, 0.7778170
1264.549, 0.7658360
1265.031, 0.9061720
1265.513, 1.055500
1265.995, 0.9283530
1266.477, 0.6249690
1266.959, 0.7254550
1267.442, 1.447036
1267.924, 1.628977
1268.406, 1.086208
1268.888, 0.9622050
1269.370, 1.568671
1269.852, 1.752917
1270.334, 0.8849430
1270.816, 4.1576002E-02
1271.299, 7.7128001E-02
1271.781, 0.7270270
1272.263, 0.9210280
1272.745, 0.8020000
1273.227, 0.3689690
1273.709, 6.6340002E-03
1274.191, 0.3521060
1274.673, 0.6150550
1275.156, 0.0000000E+00
##END=



