##NAMES=Isoferroplatinum
##RRUFFID=R080067
##IDEAL CHEMISTRY=Pt_3_Fe
##LOCALITY=Chocó Department, Colombia
##OWNER=RRUFF
##SOURCE=Michael Scott
##DESCRIPTION=Black metallic grains embedded in epoxy
##STATUS=The identification of this mineral has been confirmed only by chemical analysis
##URL=rruff.info/R080067
##MEASURED CHEMISTRY=(Pt_2.80_Ir_0.11_Pd_0.07_Os_0.02_)_Σ=3_(Fe_0.90_Cu_0.10_)_Σ=1_; trace amounts of Ru and Rh
115.0130, 0.0000000E+00
115.4951, 0.7499710
115.9772, 1.505190
116.4594, 2.035393
116.9415, 2.634094
117.4236, 3.773285
117.9057, 4.861671
118.3878, 5.288467
118.8699, 4.051430
119.3521, 2.628769
119.8342, 1.702919
120.3163, 1.295662
120.7984, 1.591797
121.2805, 3.154783
121.7626, 5.391006
122.2448, 7.635422
122.7269, 10.84728
123.2090, 13.26378
123.6911, 12.48908
124.1732, 7.577002
124.6553, 2.373058
125.1375, 0.7987880
125.6196, 1.984440
126.1017, 3.181292
126.5838, 1.910681
127.0659, 0.3088110
127.5480, 0.4206790
128.0302, 2.616020
128.5123, 6.603735
128.9944, 8.438843
129.4765, 8.294918
129.9586, 7.794655
130.4407, 8.313890
130.9229, 9.516815
131.4050, 9.945202
131.8871, 9.046207
132.3692, 7.429983
132.8513, 6.548349
133.3334, 6.407833
133.8156, 6.203186
134.2977, 5.171261
134.7798, 3.456688
135.2619, 2.254822
135.7440, 1.768820
136.2261, 1.982771
136.7083, 3.048561
137.1904, 5.273836
137.6725, 7.974560
138.1546, 9.560968
138.6367, 10.48700
139.1188, 10.70535
139.6010, 10.01687
140.0831, 8.424719
140.5652, 7.228811
141.0473, 6.552572
141.5294, 6.077671
142.0115, 5.486755
142.4937, 4.659714
142.9758, 3.980822
143.4579, 3.597237
143.9400, 3.624723
144.4221, 3.593660
144.9042, 3.027609
145.3864, 2.417662
145.8685, 2.406858
146.3506, 3.369446
146.8327, 4.640577
147.3148, 5.868065
147.7969, 7.182503
148.2791, 7.412523
148.7612, 5.614391
149.2433, 2.830692
149.7254, 1.456013
150.2075, 2.825468
150.6896, 4.438000
151.1718, 5.381992
151.6539, 5.206339
152.1360, 5.040880
152.6181, 4.953720
153.1002, 5.091784
153.5823, 5.025785
154.0645, 5.190592
154.5466, 5.335533
155.0287, 5.351141
155.5108, 5.406754
155.9929, 5.116301
156.4750, 4.157793
156.9572, 2.711954
157.4393, 1.602709
157.9214, 1.365555
158.4035, 1.384850
158.8856, 1.044834
159.3677, 0.5011120
159.8499, 1.496048
160.3320, 1.107414
160.8141, 0.4494230
161.2962, 1.805382
161.7783, 2.137413
162.2604, 2.173275
162.7426, 2.485451
163.2247, 3.983625
163.7068, 5.147827
164.1889, 5.146301
164.6710, 4.047487
165.1531, 2.802931
165.6353, 1.449455
166.1174, 0.3459420
166.5995, 0.1220150
167.0816, 0.8127290
167.5637, 1.961332
168.0458, 2.410578
168.5280, 2.090599
169.0101, 2.086233
169.4922, 3.506910
169.9743, 5.574337
170.4564, 7.194115
170.9385, 8.388130
171.4207, 8.671635
171.9028, 7.003063
172.3849, 3.248903
172.8670, 0.1303830
173.3491, 0.9184210
173.8312, 4.0899001E-02
174.3134, 1.015469
174.7955, 1.265837
175.2776, 1.227064
175.7597, 1.531744
176.2418, 2.280987
176.7239, 2.809805
177.2061, 2.238214
177.6882, 0.8421860
178.1703, 0.3889060
178.6524, 1.072819
179.1345, 1.212074
179.6166, 0.6002730
180.0988, 0.9086490
180.5809, 2.473120
181.0630, 3.038679
181.5451, 2.802801
182.0272, 2.533451
182.5093, 2.649542
182.9915, 3.022694
183.4736, 3.329960
183.9557, 3.533876
184.4378, 3.734793
184.9199, 4.035061
185.4020, 4.435184
185.8842, 4.976355
186.3663, 6.079502
186.8484, 7.412725
187.3305, 7.601257
187.8126, 6.362591
188.2947, 4.440170
188.7769, 2.855629
189.2590, 1.614265
189.7411, 0.6343400
190.2232, 0.4180090
190.7053, 1.369148
191.1874, 0.8225880
191.6696, 1.832197
192.1517, 5.085142
192.6338, 5.799721
193.1159, 3.884804
193.5980, 1.925720
194.0801, 1.690981
194.5623, 3.033901
195.0444, 3.873163
195.5265, 3.983927
196.0086, 3.555931
196.4907, 2.801266
196.9728, 1.653053
197.4550, 0.7342150
197.9371, 0.5631310
198.4192, 1.154385
198.9013, 1.544899
199.3834, 1.649008
199.8655, 1.511425
200.3477, 1.129635
200.8298, 0.4157490
201.3119, 0.1351600
201.7940, 0.1445480
202.2761, 0.4444770
202.7582, 0.8603710
203.2404, 0.8642520
203.7225, 0.7791600
204.2046, 1.873672
204.6867, 4.679960
205.1688, 6.845848
205.6509, 6.381378
206.1331, 2.687763
206.6152, 0.3621600
207.0973, 8.3260000E-02
207.5794, 1.258570
208.0615, 2.257994
208.5436, 3.086552
209.0258, 3.729824
209.5079, 4.236906
209.9900, 4.689690
210.4721, 4.533503
210.9542, 3.391235
211.4363, 1.722507
211.9185, 1.265259
212.4006, 2.588793
212.8827, 3.893806
213.3648, 3.806267
213.8469, 1.650944
214.3290, 0.6792850
214.8112, 1.601753
215.2933, 3.778927
215.7754, 4.881052
216.2575, 4.487791
216.7396, 3.811829
217.2217, 3.596972
217.7038, 4.106874
218.1860, 4.224573
218.6681, 3.814322
219.1502, 2.947556
219.6323, 2.043907
220.1144, 0.8160190
220.5965, 5.6389000E-02
221.0787, 0.4381310
221.5608, 2.716938
222.0429, 4.032907
222.5250, 3.899412
223.0071, 2.714468
223.4892, 1.938341
223.9714, 1.693230
224.4535, 1.638071
224.9356, 1.640656
225.4177, 1.719400
225.8998, 1.761946
226.3819, 1.746338
226.8641, 1.654984
227.3462, 1.729794
227.8283, 2.075211
228.3104, 2.426678
228.7925, 2.698048
229.2746, 3.084496
229.7568, 2.878593
230.2389, 1.635574
230.7210, 0.1675130
231.2031, 0.8680480
231.6852, 0.3511790
232.1673, 1.676426
232.6495, 2.215059
233.1316, 1.598309
233.6137, 0.9585460
234.0958, 1.4788000E-02
234.5779, 0.9218120
235.0600, 0.4237210
235.5422, 2.723181
236.0243, 5.442997
236.5064, 6.197119
236.9885, 3.637379
237.4706, 2.333099
237.9527, 3.005289
238.4349, 4.724245
238.9170, 5.231403
239.3991, 3.658918
239.8812, 2.098860
240.3633, 1.423594
240.8454, 1.919271
241.3276, 2.654753
241.8097, 3.990217
242.2918, 5.421585
242.7739, 5.724957
243.2560, 4.136080
243.7381, 2.603487
244.2203, 1.961180
244.7024, 2.736361
245.1845, 2.848188
245.6666, 1.775032
246.1487, 0.2888870
246.6308, 4.3182001E-02
247.1130, 1.542856
247.5951, 3.031242
248.0772, 3.542805
248.5593, 2.660858
249.0414, 2.461626
249.5235, 3.478764
250.0057, 4.835117
250.4878, 5.160460
250.9699, 3.924149
251.4520, 2.586258
251.9341, 1.520327
252.4162, 0.6515980
252.8984, 0.4707260
253.3805, 1.439213
253.8626, 2.743418
254.3447, 3.062664
254.8268, 1.778341
255.3089, 0.7906040
255.7911, 0.7639920
256.2732, 1.864428
256.7553, 2.559757
257.2374, 2.690516
257.7195, 2.573635
258.2017, 2.637691
258.6838, 3.061802
259.1659, 3.188303
259.6480, 2.729919
260.1301, 1.677288
260.6122, 1.288410
261.0944, 1.841845
261.5765, 2.696077
262.0586, 3.239307
262.5407, 3.524300
263.0228, 3.292988
263.5049, 2.148151
263.9871, 0.1633760
264.4692, 0.3390850
264.9513, 1.349264
265.4334, 3.416330
265.9155, 3.995850
266.3976, 2.537907
266.8798, 1.424423
267.3619, 1.139421
267.8440, 1.583660
268.3261, 1.980564
268.8082, 2.301559
269.2903, 2.633410
269.7725, 3.105461
270.2546, 3.801085
270.7367, 4.245327
271.2188, 4.409523
271.7009, 4.264606
272.1830, 3.447996
272.6652, 1.602167
273.1473, 0.1110000
273.6294, 0.2042200
274.1115, 2.253244
274.5936, 3.542929
275.0757, 3.577789
275.5579, 2.854654
276.0400, 2.974731
276.5221, 4.222075
277.0042, 5.162540
277.4863, 4.588787
277.9684, 2.318733
278.4506, 1.107920
278.9327, 1.404589
279.4148, 2.592995
279.8969, 3.446026
280.3790, 3.932020
280.8611, 4.307087
281.3433, 4.983259
281.8254, 5.949108
282.3075, 5.412012
282.7896, 2.838484
283.2717, 0.1813160
283.7538, 0.7841280
284.2360, 1.127289
284.7181, 2.915037
285.2002, 3.197840
285.6823, 2.182484
286.1644, 1.769476
286.6465, 2.033060
287.1287, 2.639702
287.6108, 3.300987
288.0929, 4.002655
288.5750, 4.437933
289.0571, 4.368834
289.5392, 4.052816
290.0214, 4.146214
290.5035, 4.715311
290.9856, 5.099434
291.4677, 4.210871
291.9498, 2.295872
292.4319, 1.041086
292.9141, 1.327795
293.3962, 2.552868
293.8783, 3.416645
294.3604, 3.916182
294.8425, 3.875765
295.3246, 2.506481
295.8068, 0.3514600
296.2889, 0.6069410
296.7710, 0.6337850
297.2531, 2.658857
297.7352, 2.876669
298.2173, 1.452564
298.6995, 2.0296000E-02
299.1816, 5.2221000E-02
299.6637, 0.7958530
300.1458, 1.708071
300.6279, 2.621717
301.1100, 3.365528
301.5922, 3.687752
302.0743, 3.635027
302.5564, 3.398335
303.0385, 2.979008
303.5206, 2.480745
304.0027, 1.957308
304.4849, 1.335253
304.9670, 1.018900
305.4491, 1.614197
305.9312, 2.812374
306.4133, 3.872938
306.8954, 4.718596
307.3776, 5.092680
307.8597, 4.355993
308.3418, 2.338676
308.8239, 0.7301450
309.3060, 1.376255
309.7881, 3.160654
310.2703, 4.300667
310.7524, 3.317833
311.2345, 1.998619
311.7166, 1.707399
312.1987, 2.434601
312.6808, 3.195362
313.1630, 3.534790
313.6451, 3.583244
314.1272, 3.483331
314.6093, 3.316490
315.0914, 2.980712
315.5735, 2.231947
316.0557, 1.207021
316.5378, 0.4774370
317.0199, 0.6010120
317.5020, 1.047760
317.9841, 1.476637
318.4662, 2.085622
318.9484, 2.399871
319.4305, 1.861863
319.9126, 0.7771840
320.3947, 7.2012000E-02
320.8768, 0.2152290
321.3589, 0.8367490
321.8411, 1.950830
322.3232, 4.101398
322.8053, 5.347216
323.2874, 4.392933
323.7695, 2.453534
324.2516, 1.452965
324.7338, 2.630936
325.2159, 3.919297
325.6980, 4.677420
326.1801, 4.764045
326.6622, 4.821812
327.1443, 4.934496
327.6265, 5.023432
328.1086, 5.009080
328.5907, 4.878369
329.0728, 4.657398
329.5549, 4.281820
330.0370, 3.747269
330.5192, 3.404938
331.0013, 3.536616
331.4834, 3.619814
331.9655, 3.213603
332.4476, 1.491200
332.9297, 0.7360270
333.4119, 1.539259
333.8940, 3.500578
334.3761, 4.912727
334.8582, 5.797041
335.3403, 6.061392
335.8224, 5.478930
336.3046, 3.534414
336.7867, 2.304127
337.2688, 1.992188
337.7509, 2.279947
338.2330, 2.548162
338.7151, 2.791375
339.1973, 3.026948
339.6794, 3.266363
340.1615, 3.508902
340.6436, 3.765451
341.1257, 4.080507
341.6078, 4.269020
342.0899, 4.097155
342.5721, 3.484840
343.0542, 3.061643
343.5363, 3.123869
344.0184, 3.517357
344.5005, 3.474269
344.9826, 2.931383
345.4648, 2.418778
345.9469, 2.670095
346.4290, 3.533746
346.9111, 3.711426
347.3932, 2.705334
347.8753, 1.230900
348.3575, 0.6280360
348.8396, 0.8589310
349.3217, 1.495934
349.8038, 2.615683
350.2859, 3.911194
350.7680, 4.597073
351.2502, 4.524010
351.7323, 4.054626
352.2144, 3.507084
352.6965, 2.885478
353.1786, 2.219011
353.6607, 1.390513
354.1429, 0.5676010
354.6250, 0.1105890
355.1071, 0.6689350
355.5892, 0.7091200
356.0713, 0.6382140
356.5534, 2.583441
357.0356, 3.956028
357.5177, 4.028509
357.9998, 3.637255
358.4819, 3.251291
358.9640, 2.876331
359.4461, 2.555977
359.9283, 2.243156
360.4104, 2.031803
360.8925, 1.998584
361.3746, 2.162580
361.8567, 2.503769
362.3388, 3.244238
362.8210, 4.154782
363.3031, 4.745090
363.7852, 4.411196
364.2673, 4.081553
364.7494, 4.385345
365.2315, 5.779753
365.7137, 6.355698
366.1958, 4.659723
366.6779, 2.323900
367.1600, 1.251707
367.6421, 3.139520
368.1242, 4.772108
368.6064, 5.320093
369.0885, 4.707205
369.5706, 4.507664
370.0527, 5.349646
370.5348, 6.118788
371.0169, 6.074760
371.4991, 4.769643
371.9812, 3.374357
372.4633, 1.639121
372.9454, 0.1269080
373.4275, 0.6493950
373.9096, 0.9051570
374.3918, 2.240080
374.8739, 2.119567
375.3560, 7.2238997E-02
375.8381, 1.339284
376.3202, 2.118646
376.8023, 2.244079
377.2845, 1.364038
377.7666, 0.8003080
378.2487, 2.379484
378.7308, 2.491707
379.2129, 1.417788
379.6950, 1.069130
380.1772, 1.523059
380.6593, 2.289361
381.1414, 3.179491
381.6235, 4.110099
382.1056, 4.283033
382.5877, 3.270201
383.0699, 1.773737
383.5520, 1.119511
384.0341, 1.247454
384.5162, 1.605273
384.9983, 1.982931
385.4804, 2.319487
385.9626, 2.452021
386.4447, 2.336110
386.9268, 2.182123
387.4089, 2.167507
387.8910, 2.254905
388.3731, 2.339488
388.8553, 2.262006
389.3374, 2.229939
389.8195, 2.647117
390.3016, 3.461060
390.7837, 3.900095
391.2658, 2.807926
391.7480, 1.370629
392.2301, 0.9004780
392.7122, 2.665762
393.1943, 4.205270
393.6764, 4.034562
394.1585, 2.690887
394.6407, 1.731739
395.1228, 1.434324
395.6049, 1.545744
396.0870, 2.204024
396.5691, 3.782704
397.0512, 4.694705
397.5334, 4.203176
398.0155, 3.021091
398.4976, 2.049650
398.9797, 1.046231
399.4618, 0.6111670
399.9439, 1.175459
400.4261, 2.730700
400.9082, 3.578206
401.3903, 3.088783
401.8724, 2.488724
402.3545, 2.658865
402.8366, 4.339849
403.3188, 5.103737
403.8009, 4.388634
404.2830, 2.864134
404.7651, 2.331683
405.2472, 3.158731
405.7293, 3.941502
406.2115, 4.035459
406.6936, 3.415421
407.1757, 3.028834
407.6578, 2.918032
408.1399, 2.954685
408.6220, 2.937957
409.1042, 2.851038
409.5863, 2.827435
410.0684, 2.879242
410.5505, 3.055597
411.0326, 3.567561
411.5147, 4.401206
411.9969, 5.035016
412.4790, 4.948101
412.9611, 4.366234
413.4432, 3.908672
413.9253, 3.704842
414.4074, 3.622313
414.8896, 3.661345
415.3717, 3.755702
415.8538, 3.748176
416.3359, 3.443880
416.8180, 3.080780
417.3001, 2.963482
417.7823, 3.080511
418.2644, 3.015912
418.7465, 2.116947
419.2286, 1.107266
419.7107, 0.7050310
420.1928, 1.342518
420.6750, 2.274018
421.1571, 3.588902
421.6392, 5.018038
422.1213, 5.826258
422.6034, 5.516042
423.0855, 4.808048
423.5677, 3.870152
424.0498, 2.582648
424.5319, 1.708460
425.0140, 1.274998
425.4961, 1.348300
425.9782, 2.040198
426.4604, 4.518962
426.9425, 5.868406
427.4246, 5.203067
427.9067, 2.891204
428.3888, 1.569950
428.8709, 1.525914
429.3531, 1.963470
429.8352, 2.567072
430.3173, 3.433695
430.7994, 3.905003
431.2815, 3.922631
431.7636, 3.661260
432.2458, 3.011263
432.7279, 1.924413
433.2100, 1.299753
433.6921, 1.624714
434.1742, 2.581030
434.6563, 2.834926
435.1385, 2.438084
435.6206, 1.978486
436.1027, 1.891462
436.5848, 2.014004
437.0669, 1.817634
437.5490, 1.056455
438.0312, 0.3257770
438.5133, 0.3988600
438.9954, 1.062696
439.4775, 1.725854
439.9596, 1.809345
440.4417, 1.930309
440.9239, 2.974427
441.4060, 4.993071
441.8881, 6.396919
442.3702, 5.972011
442.8523, 4.620697
443.3344, 3.181020
443.8166, 1.149698
444.2987, 8.4585004E-02
444.7808, 0.5511080
445.2629, 2.393732
445.7450, 3.508269
446.2271, 2.560748
446.7093, 1.612978
447.1914, 1.543490
447.6735, 2.782104
448.1556, 3.567812
448.6377, 3.556111
449.1198, 3.316417
449.6020, 3.548534
450.0841, 5.009653
450.5662, 5.246655
451.0483, 3.269998
451.5304, 0.1938790
452.0125, 1.733435
452.4947, 0.9417160
452.9768, 0.4742600
453.4589, 1.752378
453.9410, 2.904840
454.4231, 3.656724
454.9052, 4.004275
455.3874, 3.986901
455.8695, 3.476398
456.3516, 2.544821
456.8337, 1.831306
457.3158, 1.629799
457.7979, 1.725585
458.2801, 1.675114
458.7622, 1.517938
459.2443, 1.540206
459.7264, 2.260390
460.2085, 3.152999
460.6906, 3.474713
461.1728, 3.046074
461.6549, 2.397150
462.1370, 1.666843
462.6191, 1.014562
463.1012, 0.6938370
463.5833, 1.332844
464.0655, 1.824220
464.5476, 1.493001
465.0297, 0.4471010
465.5118, 0.3510050
465.9939, 0.6333220
466.4760, 0.5933580
466.9582, 0.2969730
467.4403, 0.5591150
467.9224, 1.104877
468.4045, 0.8379280
468.8866, 0.4551760
469.3687, 1.101944
469.8509, 3.830414
470.3330, 5.627523
470.8151, 5.561203
471.2972, 3.835690
471.7793, 2.525909
472.2614, 1.606429
472.7436, 1.139606
473.2257, 1.293521
473.7078, 2.001640
474.1899, 2.923209
474.6720, 4.197412
475.1541, 5.241819
475.6363, 4.830633
476.1184, 3.217278
476.6005, 2.035933
477.0826, 2.169613
477.5647, 2.989600
478.0468, 3.637177
478.5290, 4.089759
479.0111, 4.164215
479.4932, 3.553927
479.9753, 2.569572
480.4574, 1.428874
480.9395, 4.1940000E-02
481.4217, 0.9513020
481.9038, 0.3053890
482.3859, 1.161245
482.8680, 2.366227
483.3501, 2.762035
483.8322, 3.023298
484.3144, 3.587457
484.7965, 4.389092
485.2786, 4.499996
485.7607, 2.873498
486.2428, 1.237737
486.7249, 0.5035440
487.2071, 1.306757
487.6892, 1.630693
488.1713, 1.136101
488.6534, 0.4016210
489.1355, 0.3268130
489.6176, 1.182932
490.0998, 1.901617
490.5819, 2.199529
491.0640, 2.163644
491.5461, 2.316383
492.0282, 2.718164
492.5103, 2.878874
492.9925, 2.149426
493.4746, 0.7822850
493.9567, 0.2296920
494.4388, 0.6784370
494.9209, 1.447103
495.4030, 1.936568
495.8852, 2.140281
496.3673, 2.037207
496.8494, 1.273006
497.3315, 0.5291690
497.8136, 0.6326070
498.2957, 1.384967
498.7779, 1.966768
499.2600, 1.652093
499.7421, 1.223461
500.2242, 1.280243
500.7063, 2.015188
501.1884, 2.693572
501.6706, 3.289201
502.1527, 3.619907
502.6348, 3.524035
503.1169, 2.237446
503.5990, 1.391772
504.0811, 1.400215
504.5633, 2.002773
505.0454, 2.211860
505.5275, 1.788043
506.0096, 1.375703
506.4917, 1.232862
506.9738, 1.375011
507.4560, 1.530596
507.9381, 1.643149
508.4202, 1.921431
508.9023, 2.831797
509.3844, 4.271406
509.8665, 4.977501
510.3487, 4.799545
510.8308, 4.093719
511.3129, 3.184587
511.7950, 2.125344
512.2772, 1.171085
512.7593, 0.2936230
513.2414, 0.3165700
513.7235, 0.3416510
514.2056, 0.2119720
514.6877, 1.002899
515.1699, 1.846897
515.6520, 2.457645
516.1341, 2.642487
516.6162, 2.140944
517.0983, 1.607442
517.5804, 1.182695
518.0626, 0.8751640
518.5447, 0.6987260
519.0268, 0.7481520
519.5089, 0.8294910
519.9910, 0.8189950
520.4731, 0.7410910
520.9553, 1.064769
521.4374, 2.164775
521.9195, 3.104115
522.4016, 3.244889
522.8837, 2.358649
523.3658, 1.904725
523.8480, 2.053872
524.3301, 2.380006
524.8122, 2.098933
525.2943, 1.210231
525.7764, 0.6549700
526.2585, 0.7437280
526.7407, 1.237018
527.2228, 1.875790
527.7049, 2.604269
528.1870, 3.089114
528.6691, 3.171948
529.1512, 2.884585
529.6334, 1.982768
530.1155, 0.4088570
530.5976, 0.6118350
531.0797, 0.1809660
531.5618, 1.649982
532.0439, 2.595015
532.5261, 2.189764
533.0082, 1.992146
533.4903, 2.742994
533.9724, 3.938006
534.4545, 4.505703
534.9366, 3.466480
535.4188, 2.824986
535.9009, 3.383480
536.3830, 5.087503
536.8651, 5.329685
537.3472, 3.356649
537.8293, 1.407338
538.3115, 1.252433
538.7936, 3.074387
539.2757, 3.850196
539.7578, 3.365019
540.2399, 2.377299
540.7220, 1.732888
541.2042, 1.428724
541.6863, 1.459149
542.1684, 2.085454
542.6505, 2.728997
543.1326, 2.345962
543.6147, 1.193083
544.0969, 0.2398550
544.5790, 0.1530340
545.0611, 0.4561770
545.5432, 0.8891760
546.0253, 1.444584
546.5074, 1.725629
546.9896, 1.028589
547.4717, 0.2901190
547.9538, 0.2816880
548.4359, 2.043183
548.9180, 3.295527
549.4001, 3.737803
549.8823, 3.617933
550.3644, 3.287323
550.8465, 2.471119
551.3286, 1.973603
551.8107, 2.108690
552.2928, 2.764838
552.7750, 2.976665
553.2571, 2.611338
553.7392, 2.456606
554.2213, 3.408880
554.7034, 5.151060
555.1855, 5.710755
555.6677, 4.881584
556.1498, 3.722543
556.6319, 3.353239
557.1140, 3.487834
557.5961, 3.519529
558.0782, 3.137362
558.5604, 2.833150
559.0425, 3.216084
559.5246, 3.978312
560.0067, 4.429358
560.4888, 3.872474
560.9709, 3.313656
561.4531, 3.449133
561.9352, 4.292048
562.4173, 4.421935
562.8994, 2.586052
563.3815, 0.8534650
563.8636, 0.3767830
564.3458, 1.970088
564.8279, 2.546837
565.3100, 1.656260
565.7921, 0.3257340
566.2742, 0.1010350
566.7563, 0.4493410
567.2385, 1.202455
567.7206, 2.138022
568.2027, 3.000299
568.6848, 3.002104
569.1669, 2.265630
569.6490, 1.702937
570.1312, 2.365577
570.6133, 3.235168
571.0954, 2.384833
571.5775, 7.9287998E-02
572.0596, 1.968976
572.5417, 1.193880
573.0239, 0.4537950
573.5060, 1.368941
573.9881, 0.9832160
574.4702, 0.6703990
574.9523, 0.8717870
575.4344, 1.358815
575.9166, 1.845370
576.3987, 2.623425
576.8808, 2.975953
577.3629, 2.649330
577.8450, 1.862255
578.3271, 1.273437
578.8093, 0.8136000
579.2914, 0.7907300
579.7735, 1.701836
580.2556, 3.284260
580.7377, 3.234916
581.2198, 1.404202
581.7020, 0.4429860
582.1841, 0.6854880
582.6662, 0.1499910
583.1483, 0.8035760
583.6304, 1.068921
584.1125, 1.325225
584.5947, 2.182483
585.0768, 3.172258
585.5589, 3.597342
586.0410, 2.600008
586.5231, 1.690713
587.0052, 1.802389
587.4873, 2.503823
587.9694, 2.636100
588.4515, 0.9574940
588.9337, 0.2535620
589.4158, 0.2372280
589.8979, 1.012220
590.3800, 2.191625
590.8621, 3.474441
591.3442, 4.383761
591.8264, 4.479089
592.3085, 3.698277
592.7906, 3.204810
593.2727, 3.045007
593.7548, 2.845979
594.2369, 2.221360
594.7191, 1.375853
595.2012, 1.210274
595.6833, 2.307013
596.1654, 3.432764
596.6475, 2.879989
597.1296, 1.299881
597.6118, 0.1888160
598.0939, 0.2794790
598.5760, 0.9739110
599.0581, 2.399142
599.5402, 4.361133
600.0223, 5.513180
600.5045, 4.718535
600.9866, 3.767450
601.4687, 3.525582
601.9508, 4.230185
602.4329, 4.617904
602.9150, 4.655954
603.3972, 4.419793
603.8793, 3.840661
604.3614, 2.843769
604.8435, 2.355242
605.3256, 2.636136
605.8077, 3.106198
606.2899, 2.626076
606.7720, 1.438571
607.2541, 0.7262470
607.7362, 1.126240
608.2183, 2.003540
608.7004, 2.795772
609.1826, 3.470849
609.6647, 3.888946
610.1468, 3.675962
610.6289, 3.438675
611.1110, 3.739248
611.5931, 4.640482
612.0753, 4.941822
612.5574, 3.493003
613.0395, 2.096054
613.5216, 1.911773
614.0037, 3.938817
614.4858, 4.583041
614.9680, 3.086051
615.4501, 1.077323
615.9322, 0.5678410
616.4143, 1.647908
616.8964, 2.522931
617.3785, 2.891386
617.8607, 2.839365
618.3428, 2.285836
618.8249, 1.372751
619.3070, 0.6936480
619.7891, 0.4485460
620.2712, 0.6240840
620.7534, 1.571159
621.2355, 3.065378
621.7176, 4.022118
622.1997, 3.353752
622.6818, 2.459921
623.1639, 2.197123
623.6461, 2.757977
624.1282, 3.071834
624.6103, 2.817736
625.0924, 2.496782
625.5745, 2.466873
626.0566, 2.954744
626.5388, 3.075024
627.0209, 2.764088
627.5030, 2.159281
627.9851, 1.140505
628.4672, 0.2257960
628.9493, 0.6108840
629.4315, 0.6150640
629.9136, 2.253302
630.3957, 2.753549
630.8778, 2.445595
631.3599, 2.133427
631.8420, 2.385171
632.3242, 2.681952
632.8063, 2.635420
633.2884, 2.281151
633.7705, 1.847650
634.2526, 1.106275
634.7347, 0.5701070
635.2169, 0.6135650
635.6990, 1.410252
636.1811, 1.746679
636.6632, 1.363022
637.1453, 0.8463000
637.6274, 0.5985270
638.1096, 0.6397820
638.5917, 0.8104750
639.0738, 1.119076
639.5559, 1.478199
640.0380, 1.925667
640.5201, 2.472823
641.0023, 2.855355
641.4844, 3.038419
641.9665, 2.994533
642.4486, 2.308539
642.9307, 1.391109
643.4128, 1.140793
643.8950, 3.214975
644.3771, 4.797661
644.8592, 3.939147
645.3413, 1.200437
645.8234, 0.3601690
646.3055, 0.7580370
646.7877, 2.097541
647.2698, 3.013165
647.7519, 3.557024
648.2340, 3.841249
648.7161, 3.812939
649.1982, 3.295717
649.6804, 1.637560
650.1625, 0.9000120
650.6446, 1.509330
651.1267, 0.1404450
651.6088, 2.187817
652.0909, 2.667197
652.5731, 2.195237
653.0552, 1.863294
653.5373, 1.986560
654.0194, 2.170375
654.5015, 2.159530
654.9836, 2.056973
655.4658, 2.009507
655.9479, 2.237003
656.4300, 2.327811
656.9121, 1.999480
657.3942, 1.480667
657.8763, 1.463406
658.3585, 2.273614
658.8406, 2.810904
659.3227, 2.647123
659.8048, 1.931398
660.2869, 1.265193
660.7690, 0.6293200
661.2512, 0.5789500
661.7333, 2.077051
662.2154, 4.224335
662.6975, 5.281540
663.1796, 5.207132
663.6617, 4.618658
664.1439, 3.411676
664.6260, 2.229726
665.1081, 1.743170
665.5902, 2.322298
666.0723, 2.699168
666.5544, 2.201264
667.0366, 1.583074
667.5187, 1.565929
668.0008, 2.589298
668.4829, 3.334343
668.9650, 3.790784
669.4471, 3.861439
669.9293, 3.212162
670.4114, 1.832541
670.8935, 0.6095950
671.3756, 0.3858800
671.8577, 0.8487820
672.3398, 0.2437930
672.8220, 2.405445
673.3041, 3.956555
673.7862, 3.609221
674.2683, 2.734201
674.7504, 2.193851
675.2325, 1.958360
675.7147, 1.798557
676.1968, 1.417327
676.6789, 1.309669
677.1610, 1.934520
677.6431, 3.361895
678.1252, 3.820927
678.6074, 2.823546
679.0895, 1.759003
679.5716, 1.588843
680.0537, 2.311880
680.5358, 2.751582
681.0179, 2.842408
681.5001, 2.971191
681.9822, 3.954988
682.4643, 5.178444
682.9464, 5.154975
683.4285, 3.310766
683.9106, 1.515174
684.3928, 1.214830
684.8749, 1.664735
685.3570, 1.950490
685.8391, 1.678843
686.3212, 1.399311
686.8033, 1.249853
687.2855, 1.214758
687.7676, 1.068104
688.2497, 0.6938800
688.7318, 0.4927450
689.2139, 0.5405980
689.6960, 0.8139490
690.1782, 1.371719
690.6603, 2.190412
691.1424, 2.804430
691.6245, 3.046246
692.1066, 2.931652
692.5887, 2.080097
693.0709, 0.7600520
693.5530, 0.1514170
694.0351, 1.943201
694.5172, 3.808286
694.9993, 4.022022
695.4814, 2.430560
695.9636, 1.519482
696.4457, 2.427577
696.9278, 3.348650
697.4099, 3.437704
697.8920, 2.423537
698.3741, 1.644273
698.8563, 1.135396
699.3384, 0.8839680
699.8205, 0.8840090
700.3026, 1.181694
700.7847, 1.882240
701.2668, 3.176991
701.7490, 4.202829
702.2311, 3.797363
702.7132, 2.728814
703.1953, 2.134322
703.6774, 2.682317
704.1595, 2.888233
704.6417, 1.544571
705.1238, 0.3189450
705.6059, 1.219642
706.0880, 0.4416610
706.5701, 0.2037710
707.0522, 0.4863620
707.5344, 0.5956450
708.0165, 0.8835740
708.4986, 1.398924
708.9807, 1.960523
709.4628, 2.443785
709.9449, 2.734232
710.4271, 2.415223
710.9092, 1.671681
711.3913, 1.178817
711.8734, 1.720509
712.3555, 2.275389
712.8376, 1.917648
713.3198, 0.8572380
713.8019, 0.1899810
714.2840, 0.5256720
714.7661, 0.9983060
715.2482, 1.275512
715.7303, 1.366788
716.2125, 1.621898
716.6946, 2.111349
717.1767, 2.577366
717.6588, 2.988743
718.1409, 3.292658
718.6230, 2.898336
719.1052, 1.783000
719.5873, 0.6968100
720.0694, 6.5343998E-02
720.5515, 9.6473001E-02
721.0336, 0.3712380
721.5157, 1.549356
721.9979, 2.534679
722.4800, 2.803076
722.9621, 2.765722
723.4442, 2.725281
723.9263, 2.606239
724.4084, 2.755463
724.8906, 3.392206
725.3727, 4.041286
725.8548, 4.256548
726.3369, 4.032877
726.8190, 3.337437
727.3011, 2.032749
727.7833, 0.7661000
728.2654, 0.4917960
728.7475, 0.9212330
729.2296, 1.374490
729.7117, 1.776758
730.1938, 2.034295
730.6760, 1.616424
731.1581, 0.9964330
731.6402, 0.8974500
732.1223, 2.239781
732.6044, 3.185553
733.0865, 3.461301
733.5687, 3.195931
734.0508, 2.503369
734.5329, 1.152371
735.0150, 0.3857230
735.4971, 0.7051830
735.9792, 1.595463
736.4614, 1.831861
736.9435, 1.547790
737.4256, 1.429976
737.9077, 2.128404
738.3898, 2.908360
738.8719, 2.988577
739.3541, 2.552435
739.8362, 2.248888
740.3183, 2.679476
740.8004, 2.915019
741.2825, 2.386917
741.7646, 1.229097
742.2468, 0.5813150
742.7289, 0.5558420
743.2110, 0.7692890
743.6931, 1.164975
744.1752, 1.666810
744.6573, 1.776394
745.1395, 1.502533
745.6216, 1.188699
746.1037, 1.139318
746.5858, 1.152335
747.0679, 0.9138910
747.5500, 0.2914870
748.0322, 5.7994999E-02
748.5143, 0.9653970
748.9964, 2.081494
749.4785, 2.936157
749.9606, 3.550280
750.4427, 3.535599
750.9249, 2.500460
751.4070, 1.498587
751.8891, 1.456491
752.3712, 2.348909
752.8533, 2.543265
753.3354, 1.954584
753.8176, 1.082880
754.2997, 0.1848090
754.7818, 1.215895
755.2639, 0.5870000
755.7460, 2.299287
756.2281, 4.290210
756.7103, 2.419749
757.1924, 0.3237510
757.6745, 1.249154
758.1566, 1.561487
758.6387, 2.957589
759.1208, 2.279772
759.6030, 1.000195
760.0851, 0.7679120
760.5672, 1.632041
761.0493, 1.809662
761.5314, 0.9607070
762.0135, 8.4880004E-03
762.4957, 0.1198430
762.9778, 0.8812840
763.4599, 1.606749
763.9420, 2.371853
764.4241, 2.800411
764.9063, 2.286400
765.3884, 1.439547
765.8705, 1.013243
766.3526, 1.566032
766.8347, 1.867325
767.3168, 1.687250
767.7990, 1.400074
768.2811, 1.752787
768.7632, 2.806253
769.2453, 3.140501
769.7274, 2.277033
770.2095, 1.072588
770.6917, 0.6932850
771.1738, 0.9071860
771.6559, 1.224380
772.1380, 1.665763
772.6201, 1.885877
773.1022, 1.423221
773.5844, 0.6712880
774.0665, 0.3420940
774.5486, 0.9504160
775.0307, 1.367267
775.5128, 1.459976
775.9949, 1.279052
776.4771, 0.8337770
776.9592, 0.1043350
777.4413, 0.4354500
777.9234, 0.7386740
778.4055, 0.6553300
778.8876, 0.4863160
779.3698, 2.235312
779.8519, 3.459752
780.3340, 3.128778
780.8161, 2.680340
781.2982, 2.957035
781.7803, 3.627055
782.2625, 3.746953
782.7446, 2.836088
783.2267, 2.073960
783.7088, 1.670049
784.1909, 1.579587
784.6730, 1.788313
785.1552, 2.292587
785.6373, 2.569752
786.1194, 2.299985
786.6015, 1.817760
787.0836, 1.561158
787.5657, 1.494280
788.0479, 1.522179
788.5300, 1.727391
789.0121, 1.889140
789.4942, 1.904503
789.9763, 1.792399
790.4584, 1.613123
790.9406, 1.174692
791.4227, 1.080506
791.9048, 1.653049
792.3869, 2.600268
792.8690, 2.931103
793.3511, 2.682978
793.8333, 2.395201
794.3154, 2.465899
794.7975, 2.509338
795.2796, 1.832853
795.7617, 0.6950690
796.2438, 4.6255998E-02
796.7260, 0.1437380
797.2081, 0.5877440
797.6902, 1.228704
798.1723, 1.941586
798.6544, 2.248290
799.1365, 2.041485
799.6187, 1.666842
800.1008, 1.056439
800.5829, 0.4705270
801.0650, 0.8424870
801.5471, 2.046657
802.0292, 3.293489
802.5114, 4.903921
802.9935, 5.766982
803.4756, 3.969604
803.9577, 0.4214470
804.4398, 1.816102
804.9219, 0.7187370
805.4041, 0.5927020
805.8862, 1.129820
806.3683, 1.140311
806.8504, 1.794176
807.3325, 3.315000
807.8146, 4.383575
808.2968, 4.437816
808.7789, 3.789875
809.2610, 2.874512
809.7431, 1.810089
810.2252, 1.078950
810.7073, 1.060764
811.1895, 1.340223
811.6716, 1.800981
812.1537, 2.352206
812.6358, 2.678156
813.1179, 2.867438
813.6000, 2.835518
814.0822, 2.280758
814.5643, 1.529208
815.0464, 2.065552
815.5285, 3.887493
816.0106, 5.133877
816.4927, 4.611670
816.9749, 3.309588
817.4570, 2.433855
817.9391, 2.006391
818.4212, 2.065006
818.9033, 3.472275
819.3854, 4.489342
819.8676, 4.058663
820.3497, 2.628654
820.8318, 1.751139
821.3139, 1.533630
821.7960, 1.682613
822.2781, 2.309280
822.7603, 3.085773
823.2424, 3.126564
823.7245, 2.540499
824.2066, 2.039904
824.6887, 2.006161
825.1708, 2.057390
825.6530, 1.762323
826.1351, 1.286845
826.6172, 1.008231
827.0993, 0.7809480
827.5814, 1.120070
828.0635, 2.704421
828.5457, 4.637896
829.0278, 4.799727
829.5099, 2.838330
829.9920, 1.492334
830.4741, 1.559675
830.9562, 2.297854
831.4384, 2.714746
831.9205, 2.840173
832.4026, 2.732697
832.8847, 2.121722
833.3668, 1.702724
833.8489, 2.007312
834.3311, 2.690588
834.8132, 3.160158
835.2953, 3.273649
835.7774, 3.322775
836.2595, 3.312270
836.7416, 3.347365
837.2238, 3.611128
837.7059, 4.065081
838.1880, 4.340832
838.6701, 4.369149
839.1522, 4.162447
839.6343, 3.562716
840.1165, 2.793691
840.5986, 2.186072
841.0807, 1.916190
841.5628, 1.667704
842.0449, 1.324833
842.5270, 1.015814
843.0092, 0.8592900
843.4913, 0.8282650
843.9734, 1.048092
844.4555, 1.565183
844.9376, 2.199124
845.4197, 2.866659
845.9019, 3.464308
846.3840, 3.711732
846.8661, 3.460821
847.3482, 3.324013
847.8303, 4.076239
848.3124, 4.845952
848.7946, 4.697660
849.2767, 2.793894
849.7588, 2.165030
850.2409, 3.305022
850.7230, 4.785295
851.2051, 5.518841
851.6873, 5.514378
852.1694, 4.537117
852.6515, 2.513637
853.1336, 0.8971560
853.6157, 1.150926
854.0978, 2.204575
854.5800, 3.221703
855.0621, 4.226631
855.5442, 4.545901
856.0263, 3.268008
856.5084, 1.939206
856.9905, 1.292260
857.4727, 1.327286
857.9548, 1.690442
858.4369, 2.418623
858.9190, 3.088896
859.4011, 3.375909
859.8832, 3.437172
860.3654, 3.493935
860.8475, 3.553938
861.3296, 3.601656
861.8117, 3.623105
862.2938, 3.551553
862.7759, 3.560316
863.2581, 3.603995
863.7402, 3.615240
864.2223, 3.665719
864.7044, 3.390156
865.1865, 2.389660
865.6686, 1.152006
866.1508, 1.290951
866.6329, 2.535387
867.1150, 3.663013
867.5971, 4.080539
868.0792, 4.107988
868.5613, 3.816928
869.0435, 3.258830
869.5256, 2.533602
870.0077, 1.119825
870.4898, 0.5892760
870.9719, 1.617599
871.4540, 3.302465
871.9362, 3.380981
872.4183, 2.099748
872.9004, 1.466898
873.3825, 2.347137
873.8646, 3.573217
874.3467, 4.173774
874.8289, 4.329281
875.3110, 4.301420
875.7931, 4.082880
876.2752, 3.800903
876.7573, 3.268563
877.2394, 2.805455
877.7216, 2.990810
878.2037, 3.895220
878.6858, 4.074349
879.1679, 3.259811
879.6500, 2.206099
880.1321, 1.472555
880.6143, 1.124797
881.0964, 1.445384
881.5785, 2.734956
882.0606, 3.500433
882.5427, 2.332791
883.0248, 1.169572
883.5070, 1.545725
883.9891, 3.930608
884.4712, 4.836012
884.9533, 4.023603
885.4354, 2.891125
885.9175, 2.648977
886.3997, 2.837957
886.8818, 2.383695
887.3639, 1.310446
887.8460, 0.4979090
888.3281, 0.4997640
888.8102, 0.8357640
889.2924, 1.339993
889.7745, 1.983681
890.2566, 2.565529
890.7387, 3.141225
891.2208, 3.468340
891.7029, 3.404991
892.1851, 3.054597
892.6672, 2.501728
893.1493, 1.851249
893.6314, 1.594602
894.1135, 2.227358
894.5956, 2.955620
895.0778, 3.556033
895.5599, 3.882452
896.0420, 3.478539
896.5241, 1.666751
897.0062, 0.5835500
897.4883, 0.7769620
897.9705, 1.570119
898.4526, 1.796947
898.9347, 1.537978
899.4168, 1.051459
899.8989, 0.2108110
900.3810, 0.1602560
900.8632, 1.227827
901.3453, 3.158942
901.8274, 4.218412
902.3095, 3.765344
902.7916, 2.941401
903.2737, 1.355478
903.7559, 1.9414000E-02
904.2380, 4.0192001E-02
904.7201, 1.118340
905.2022, 1.592316
905.6843, 1.256572
906.1664, 0.7673220
906.6486, 0.2559010
907.1307, 0.1150620
907.6128, 1.091681
908.0949, 3.346819
908.5770, 4.402388
909.0591, 2.953250
909.5413, 1.669149
910.0234, 1.888824
910.5055, 3.224675
910.9876, 3.078198
911.4697, 1.524964
911.9518, 1.0999000E-02
912.4340, 1.063696
912.9161, 1.460433
913.3982, 0.4338890
913.8803, 1.431099
914.3624, 2.501511
914.8445, 1.352711
915.3267, 0.6362600
915.8088, 1.070358
916.2909, 1.987576
916.7730, 1.854122
917.2551, 0.7065130
917.7372, 0.2224110
918.2194, 0.8994870
918.7015, 1.963687
919.1836, 2.840041
919.6657, 3.470441
920.1478, 3.794621
920.6299, 3.895599
921.1121, 3.417836
921.5942, 1.838734
922.0763, 0.2099420
922.5584, 0.5908780
923.0405, 0.5355640
923.5226, 0.5694600
924.0048, 0.7334550
924.4869, 0.6886750
924.9690, 0.1838220
925.4511, 1.203268
925.9332, 1.478850
926.4153, 0.9989610
926.8975, 0.6718860
927.3796, 1.013389
927.8617, 1.236574
928.3438, 0.9479840
928.8259, 0.3406990
929.3080, 0.5162350
929.7902, 1.409916
930.2723, 2.213449
930.7544, 2.726145
931.2365, 2.894137
931.7186, 2.409318
932.2007, 1.525634
932.6829, 0.7669670
933.1650, 9.5366001E-02
933.6471, 0.1753850
934.1292, 1.9432001E-02
934.6113, 0.5334810
935.0934, 1.802817
935.5756, 3.778526
936.0577, 4.169701
936.5398, 2.440187
937.0219, 0.5890970
937.5040, 0.7684000
937.9861, 1.850970
938.4683, 2.583181
938.9504, 2.731726
939.4325, 2.689681
939.9146, 2.509727
940.3967, 2.172397
940.8788, 1.554559
941.3610, 0.7091540
941.8431, 0.3414300
942.3252, 0.4363960
942.8073, 0.6504840
943.2894, 0.6740840
943.7715, 0.7857740
944.2537, 1.365726
944.7358, 2.275686
945.2179, 2.998581
945.7000, 3.265806
946.1821, 3.577991
946.6642, 4.173949
947.1464, 4.721769
947.6285, 4.264039
948.1106, 2.981249
948.5927, 2.394779
949.0748, 3.160351
949.5569, 3.810653
950.0391, 2.517385
950.5212, 0.6423460
951.0033, 0.2370620
951.4854, 0.4841560
951.9675, 1.620046
952.4496, 3.728151
952.9318, 5.225477
953.4139, 4.290526
953.8960, 1.507287
954.3781, 0.4965560
954.8602, 1.237735
955.3423, 2.101859
955.8245, 2.172014
956.3066, 1.831687
956.7887, 0.9494650
957.2708, 0.2598670
957.7529, 0.2449690
958.2350, 1.878262
958.7172, 3.153506
959.1993, 2.536849
959.6814, 0.9228920
960.1635, 6.9733001E-02
960.6456, 0.1472100
961.1277, 7.3368996E-02
961.6099, 0.3138750
962.0920, 0.6849450
962.5741, 0.7141100
963.0562, 0.7085340
963.5383, 1.055229
964.0204, 1.998956
964.5026, 2.591161
964.9847, 2.771238
965.4668, 2.779247
965.9489, 2.860367
966.4310, 2.918909
966.9131, 2.706444
967.3953, 2.229908
967.8774, 1.758125
968.3595, 1.205576
968.8416, 0.9228980
969.3237, 1.182443
969.8058, 1.855849
970.2880, 2.456477
970.7701, 3.086985
971.2522, 3.208576
971.7343, 2.289364
972.2164, 1.186810
972.6985, 1.249760
973.1807, 2.052135
973.6628, 2.765788
974.1449, 3.071486
974.6270, 3.411060
975.1091, 4.303691
975.5912, 4.873540
976.0734, 3.964874
976.5555, 1.528557
977.0376, 0.4454360
977.5197, 0.9153430
978.0018, 1.758330
978.4839, 2.195348
978.9661, 2.394924
979.4482, 2.505594
979.9303, 2.541092
980.4124, 2.461812
980.8945, 2.077935
981.3766, 2.018209
981.8588, 2.587231
982.3409, 3.511061
982.8230, 4.110886
983.3051, 4.346697
983.7872, 4.256971
984.2693, 3.818293
984.7515, 3.130350
985.2336, 2.059663
985.7157, 0.8698930
986.1978, 0.1160520
986.6799, 1.094667
987.1620, 1.254171
987.6442, 0.4584740
988.1263, 0.5497980
988.6084, 0.8798050
989.0905, 0.9211270
989.5726, 2.025120
990.0547, 4.077817
990.5369, 5.156794
991.0190, 2.860250
991.5011, 0.7606000
991.9832, 1.081733
992.4653, 3.003850
992.9474, 3.466506
993.4296, 2.262666
993.9117, 1.583399
994.3938, 2.284197
994.8759, 3.325651
995.3580, 3.104033
995.8401, 2.338490
996.3223, 2.235001
996.8044, 3.669398
997.2865, 4.521347
997.7686, 4.304649
998.2507, 3.668969
998.7328, 2.900978
999.2150, 2.038326
999.6971, 2.074769
1000.179, 2.978074
1000.661, 3.555370
1001.143, 2.496097
1001.626, 1.205255
1002.108, 0.7704800
1002.590, 1.088355
1003.072, 1.432789
1003.554, 1.878159
1004.036, 1.989924
1004.518, 1.558926
1005.000, 0.9757240
1005.482, 0.8796870
1005.965, 1.175349
1006.447, 1.614980
1006.929, 2.133467
1007.411, 2.819453
1007.893, 4.486569
1008.375, 5.683664
1008.857, 5.115480
1009.339, 2.642334
1009.822, 1.321913
1010.304, 1.232344
1010.786, 1.545850
1011.268, 2.040257
1011.750, 2.468981
1012.232, 2.430507
1012.714, 2.059388
1013.196, 1.745165
1013.678, 1.451028
1014.161, 1.497416
1014.643, 2.202300
1015.125, 2.896813
1015.607, 2.306010
1016.089, 0.7942000
1016.571, 0.6579830
1017.053, 2.373792
1017.535, 3.898750
1018.018, 3.291802
1018.500, 2.137846
1018.982, 1.809755
1019.464, 2.426772
1019.946, 2.350806
1020.428, 1.289599
1020.910, 0.6051940
1021.392, 0.9821300
1021.874, 1.982316
1022.357, 3.255525
1022.839, 4.430651
1023.321, 4.578789
1023.803, 1.887267
1024.285, 0.2831190
1024.767, 1.757895
1025.249, 3.836198
1025.731, 3.970571
1026.214, 2.135079
1026.696, 1.280785
1027.178, 1.555946
1027.660, 2.250964
1028.142, 3.170197
1028.624, 4.035786
1029.106, 4.406650
1029.588, 4.387933
1030.070, 4.480233
1030.553, 4.836621
1031.035, 5.049335
1031.517, 5.069903
1031.999, 4.814024
1032.481, 3.799280
1032.963, 2.416111
1033.445, 1.785995
1033.927, 2.473896
1034.410, 2.814933
1034.892, 1.314555
1035.374, 0.1380870
1035.856, 0.1204020
1036.338, 1.408054
1036.820, 2.425890
1037.302, 2.916202
1037.784, 2.994675
1038.266, 2.414293
1038.749, 1.710214
1039.231, 1.186894
1039.713, 0.9842820
1040.195, 1.517756
1040.677, 4.114189
1041.159, 5.048402
1041.641, 3.484296
1042.123, 1.231407
1042.605, 0.6201770
1043.088, 1.092115
1043.570, 0.8545160
1044.052, 0.2881490
1044.534, 0.8084410
1045.016, 1.155010
1045.498, 3.097907
1045.980, 3.517113
1046.462, 2.750629
1046.945, 2.449827
1047.427, 2.620498
1047.909, 3.082450
1048.391, 3.912826
1048.873, 4.679409
1049.355, 5.170347
1049.837, 5.205046
1050.319, 4.454783
1050.802, 2.199294
1051.284, 0.7337190
1051.766, 0.2805150
1052.248, 0.2057350
1052.730, 4.4482000E-02
1053.212, 0.2454250
1053.694, 0.6782860
1054.176, 2.418080
1054.658, 3.583670
1055.141, 2.825491
1055.623, 1.989358
1056.105, 1.823665
1056.587, 1.985661
1057.069, 1.968076
1057.551, 1.762280
1058.033, 1.732918
1058.515, 1.954235
1058.997, 2.089741
1059.480, 1.383556
1059.962, 0.8111390
1060.444, 1.591823
1060.926, 3.806646
1061.408, 4.599935
1061.890, 3.350849
1062.372, 2.122104
1062.854, 1.552275
1063.337, 1.487890
1063.819, 1.859840
1064.301, 2.484145
1064.783, 3.000685
1065.265, 3.463360
1065.747, 3.412299
1066.229, 2.213955
1066.711, 0.9198860
1067.193, 7.7514999E-02
1067.676, 0.2997720
1068.158, 0.1657000
1068.640, 1.413063
1069.122, 2.501624
1069.604, 2.874987
1070.086, 2.888968
1070.568, 2.423635
1071.050, 1.866094
1071.532, 2.154279
1072.015, 3.800994
1072.497, 4.412303
1072.979, 3.580557
1073.461, 2.476598
1073.943, 2.389835
1074.425, 2.768111
1074.907, 3.074819
1075.389, 3.242498
1075.872, 3.103263
1076.354, 2.234953
1076.836, 1.596309
1077.318, 1.449994
1077.800, 1.691849
1078.282, 2.352585
1078.764, 3.223089
1079.246, 3.471883
1079.729, 2.721047
1080.211, 1.927963
1080.693, 1.446826
1081.175, 1.273046
1081.657, 1.503804
1082.139, 2.137431
1082.621, 2.235536
1083.103, 1.787038
1083.585, 1.511097
1084.068, 2.248793
1084.550, 2.852005
1085.032, 1.594425
1085.514, 0.4197190
1085.996, 1.076498
1086.478, 0.6331220
1086.960, 1.861811
1087.442, 2.458670
1087.924, 2.766020
1088.406, 2.991869
1088.889, 3.198849
1089.371, 3.694870
1089.853, 4.373119
1090.335, 4.506739
1090.817, 3.215098
1091.299, 2.113763
1091.781, 1.554939
1092.263, 1.407914
1092.746, 1.504308
1093.228, 1.810365
1093.710, 2.264844
1094.192, 2.896530
1094.674, 3.291823
1095.156, 2.749466
1095.638, 2.378094
1096.120, 3.034518
1096.603, 4.488100
1097.085, 4.945214
1097.567, 4.368952
1098.049, 3.704591
1098.531, 3.188141
1099.013, 2.949292
1099.495, 3.616665
1099.977, 4.400947
1100.459, 4.154380
1100.942, 2.086570
1101.424, 1.058658
1101.906, 1.166715
1102.388, 1.598048
1102.870, 1.908471
1103.352, 2.189320
1103.834, 2.924460
1104.316, 3.854651
1104.798, 4.229941
1105.281, 3.313268
1105.763, 2.480464
1106.245, 1.938858
1106.727, 1.513530
1107.209, 0.8329390
1107.691, 9.4590999E-02
1108.173, 0.4442180
1108.655, 1.850202
1109.138, 2.924973
1109.620, 2.667710
1110.102, 2.135732
1110.584, 1.827885
1111.066, 1.585321
1111.548, 0.7745260
1112.030, 0.5837170
1112.512, 0.4688640
1112.995, 1.725014
1113.477, 3.761277
1113.959, 3.174163
1114.441, 1.977949
1114.923, 2.219015
1115.405, 3.891399
1115.887, 3.867205
1116.369, 1.776057
1116.851, 3.6277998E-02
1117.333, 0.5150800
1117.816, 0.1711370
1118.298, 1.082757
1118.780, 2.690882
1119.262, 3.774532
1119.744, 4.177588
1120.226, 3.724851
1120.708, 1.892405
1121.190, 0.5629450
1121.673, 1.271587
1122.155, 3.012873
1122.637, 3.320489
1123.119, 2.633827
1123.601, 2.166113
1124.083, 2.424819
1124.565, 2.941614
1125.047, 3.972726
1125.530, 4.770461
1126.012, 4.522133
1126.494, 3.418551
1126.976, 2.471639
1127.458, 1.726554
1127.940, 1.226374
1128.422, 0.9964880
1128.904, 1.031453
1129.386, 1.723749
1129.869, 2.446853
1130.351, 1.922112
1130.833, 0.1873230
1131.315, 0.3970650
1131.797, 0.4951420
1132.279, 1.577617
1132.761, 2.075011
1133.243, 2.163141
1133.725, 1.699041
1134.208, 0.9146260
1134.690, 0.7278760
1135.172, 1.252229
1135.654, 1.813272
1136.136, 2.346419
1136.618, 2.528137
1137.100, 1.441446
1137.582, 0.1611530
1138.065, 6.7038998E-02
1138.547, 1.570197
1139.029, 2.113099
1139.511, 1.337149
1139.993, 0.7527780
1140.475, 1.029881
1140.957, 1.699627
1141.439, 2.340688
1141.922, 2.741218
1142.404, 2.411770
1142.886, 0.5785260
1143.368, 9.2586003E-02
1143.850, 1.058288
1144.332, 2.348412
1144.814, 2.442301
1145.296, 1.898984
1145.778, 2.370803
1146.260, 3.457095
1146.743, 3.999664
1147.225, 3.084737
1147.707, 2.166491
1148.189, 1.252889
1148.671, 0.6865220
1149.153, 0.9439980
1149.635, 1.829017
1150.117, 2.546071
1150.600, 3.032842
1151.082, 3.031211
1151.564, 2.091695
1152.046, 1.007362
1152.528, 0.4718090
1153.010, 1.518269
1153.492, 0.6095750
1153.974, 2.027078
1154.457, 3.969433
1154.939, 4.981212
1155.421, 5.226930
1155.903, 3.963491
1156.385, 2.809395
1156.867, 3.314634
1157.349, 4.481424
1157.831, 3.624273
1158.313, 0.6895500
1158.796, 0.5683940
1159.278, 0.6242190
1159.760, 2.241986
1160.242, 2.652267
1160.724, 2.709565
1161.206, 3.330783
1161.688, 4.321953
1162.170, 4.078432
1162.652, 2.452669
1163.135, 1.165356
1163.617, 0.6284610
1164.099, 0.8175880
1164.581, 2.589568
1165.063, 4.504679
1165.545, 4.689004
1166.027, 2.737352
1166.509, 2.249362
1166.992, 3.528918
1167.474, 4.536949
1167.956, 4.324039
1168.438, 3.668408
1168.920, 3.312623
1169.402, 3.290033
1169.884, 3.763038
1170.366, 5.356787
1170.849, 5.439903
1171.331, 3.481658
1171.813, 1.732439
1172.295, 1.659955
1172.777, 2.358870
1173.259, 2.675321
1173.741, 2.565647
1174.223, 1.906548
1174.705, 0.4451050
1175.188, 1.218136
1175.670, 0.2581620
1176.152, 1.822618
1176.634, 1.338910
1177.116, 4.2638000E-02
1177.598, 0.7581210
1178.080, 2.797525
1178.562, 4.024581
1179.044, 2.928955
1179.527, 2.213407
1180.009, 2.158675
1180.491, 2.375031
1180.973, 2.587876
1181.455, 2.750778
1181.937, 2.706229
1182.419, 2.491547
1182.901, 2.306965
1183.384, 2.504550
1183.866, 2.268646
1184.348, 1.203300
1184.830, 0.1357830
1185.312, 0.2391960
1185.794, 1.136497
1186.276, 1.908492
1186.758, 2.485421
1187.240, 2.917696
1187.723, 3.533112
1188.205, 3.499507
1188.687, 2.226088
1189.169, 0.6552850
1189.651, 0.9396990
1190.133, 2.339351
1190.615, 2.355882
1191.097, 0.6599450
1191.579, 0.3008180
1192.062, 1.389106
1192.544, 3.007129
1193.026, 3.728871
1193.508, 3.765940
1193.990, 3.344645
1194.472, 2.629456
1194.954, 2.216714
1195.436, 2.227188
1195.919, 2.381460
1196.401, 2.701937
1196.883, 2.881506
1197.365, 2.735428
1197.847, 2.399565
1198.329, 2.221627
1198.811, 2.198598
1199.293, 2.360168
1199.776, 2.780993
1200.258, 3.068123
1200.740, 2.899168
1201.222, 2.664560
1201.704, 2.504843
1202.186, 2.492029
1202.668, 3.297923
1203.150, 4.618517
1203.632, 5.179973
1204.115, 4.340504
1204.597, 3.390456
1205.079, 2.674745
1205.561, 2.314161
1206.043, 2.614479
1206.525, 3.310368
1207.007, 2.688594
1207.489, 1.114677
1207.971, 0.2686070
1208.454, 1.289550
1208.936, 2.171557
1209.418, 1.411340
1209.900, 0.8786960
1210.382, 2.216388
1210.864, 4.882653
1211.346, 4.794394
1211.828, 2.584506
1212.311, 1.374784
1212.793, 3.685498
1213.275, 5.535046
1213.757, 5.001814
1214.239, 3.896327
1214.721, 3.608445
1215.203, 3.963810
1215.685, 3.293938
1216.167, 1.869282
1216.650, 1.070361
1217.132, 2.958608
1217.614, 3.944875
1218.096, 1.952740
1218.578, 0.2964260
1219.060, 7.9673000E-02
1219.542, 2.125183
1220.024, 2.997665
1220.506, 2.669374
1220.989, 2.240251
1221.471, 1.985611
1221.953, 2.068153
1222.435, 2.759566
1222.917, 3.520876
1223.399, 3.625551
1223.881, 3.297405
1224.363, 3.999860
1224.846, 5.510550
1225.328, 6.189451
1225.810, 4.282181
1226.292, 2.716593
1226.774, 2.195457
1227.256, 2.251592
1227.738, 1.797267
1228.220, 1.071154
1228.703, 0.9837650
1229.185, 1.495665
1229.667, 1.987666
1230.149, 2.338045
1230.631, 2.361012
1231.113, 1.809804
1231.595, 1.259000
1232.077, 1.612790
1232.559, 2.532861
1233.042, 3.014200
1233.524, 3.050364
1234.006, 3.200214
1234.488, 4.152650
1234.970, 4.504498
1235.452, 3.931303
1235.934, 2.955523
1236.416, 2.088358
1236.898, 1.467172
1237.381, 1.634024
1237.863, 2.517262
1238.345, 3.042447
1238.827, 2.362269
1239.309, 2.128877
1239.791, 2.856663
1240.273, 3.596914
1240.755, 2.690179
1241.238, 1.055698
1241.720, 0.4875320
1242.202, 1.056843
1242.684, 1.528326
1243.166, 1.630116
1243.648, 1.708292
1244.130, 1.893354
1244.612, 1.885149
1245.094, 0.8466930
1245.577, 0.4106830
1246.059, 0.5249460
1246.541, 0.5379400
1247.023, 1.446101
1247.505, 2.107014
1247.987, 2.513737
1248.469, 2.626351
1248.951, 2.519096
1249.433, 1.869258
1249.916, 1.196239
1250.398, 1.294356
1250.880, 2.155198
1251.362, 2.534471
1251.844, 2.359985
1252.326, 1.736205
1252.808, 0.5106040
1253.290, 0.3941860
1253.773, 0.2575930
1254.255, 1.541013
1254.737, 2.797753
1255.219, 3.868528
1255.701, 4.140997
1256.183, 3.535305
1256.665, 2.689400
1257.147, 1.622018
1257.630, 1.070491
1258.112, 2.395033
1258.594, 3.975067
1259.076, 4.372405
1259.558, 3.789241
1260.040, 2.992893
1260.522, 1.998059
1261.004, 1.642907
1261.486, 2.191290
1261.969, 2.767541
1262.451, 3.031163
1262.933, 3.072312
1263.415, 2.474122
1263.897, 1.620572
1264.379, 2.107028
1264.861, 3.671618
1265.343, 4.206704
1265.825, 3.010745
1266.308, 2.023413
1266.790, 2.261583
1267.272, 2.805324
1267.754, 3.407654
1268.236, 3.807068
1268.718, 2.921023
1269.200, 1.219561
1269.682, 0.5062650
1270.165, 1.210114
1270.647, 2.027022
1271.129, 2.504354
1271.611, 2.890258
1272.093, 3.380582
1272.575, 3.689086
1273.057, 3.000545
1273.539, 1.740999
1274.021, 0.6701970
1274.504, 0.1596210
1274.986, 0.3328120
1275.468, 3.477949
1275.950, 5.332355
1276.432, 3.686750
1276.914, 1.255577
1277.396, 0.1695040
1277.878, 0.0000000E+00
##END=



