##NAMES=Jordanite
##RRUFFID=R070723
##IDEAL CHEMISTRY=Pb^2+^_14_(As^3+^,Sb^3+^)_6_S^2-^_23_
##LOCALITY=Lengenbach quarry, Binntal, Wallis (Valais), Switzerland
##OWNER=RRUFF
##SOURCE=Michael Scott
##DESCRIPTION=Lead-gray metallic pseudohexagonal crystal in dolomite vug
##STATUS=The identification of this mineral has been confirmed by single-crystal X-ray diffraction.
##URL=rruff.info/R070723
160.1430, 0.0000000E+00
160.6251, 11.73834
161.1072, 44.02167
161.5893, 67.51370
162.0714, 39.41690
162.5536, 5.539001
163.0357, 12.77029
163.5178, 66.45209
163.9999, 111.1681
164.4820, 99.99496
164.9641, 42.07880
165.4463, 4.592041
165.9284, 2.656311
166.4105, 22.94897
166.8926, 44.86398
167.3747, 47.95474
167.8568, 47.91147
168.3390, 56.77652
168.8211, 75.58844
169.3032, 92.60916
169.7853, 99.24213
170.2674, 99.32471
170.7495, 99.60803
171.2317, 105.5522
171.7138, 112.0494
172.1959, 115.4234
172.6780, 107.1236
173.1601, 99.88037
173.6422, 107.7962
174.1244, 125.2043
174.6065, 134.8423
175.0886, 123.0282
175.5707, 98.00311
176.0528, 69.19861
176.5349, 31.51358
177.0171, 1.268768
177.4992, 5.179382
177.9813, 39.57233
178.4634, 73.21085
178.9455, 72.47827
179.4276, 52.56189
179.9098, 49.19260
180.3919, 85.72943
180.8740, 139.0577
181.3561, 177.4643
181.8382, 198.6439
182.3203, 197.4496
182.8025, 140.2353
183.2846, 45.61026
183.7667, 13.18622
184.2488, 32.69272
184.7309, 139.6361
185.2130, 174.4819
185.6951, 125.0141
186.1773, 46.13397
186.6594, 4.529663
187.1415, 1.397400
187.6236, 7.300598
188.1057, 24.64029
188.5878, 48.74326
189.0700, 70.64066
189.5521, 87.68140
190.0342, 104.5204
190.5163, 132.5948
190.9984, 172.0883
191.4805, 210.2533
191.9627, 242.7888
192.4448, 268.6628
192.9269, 272.8050
193.4090, 245.7479
193.8911, 199.3167
194.3732, 166.1966
194.8554, 146.0106
195.3375, 139.4534
195.8196, 158.5301
196.3017, 204.3307
196.7838, 225.4781
197.2659, 199.5131
197.7481, 135.4113
198.2302, 93.59918
198.7123, 77.24872
199.1944, 73.92972
199.6765, 72.42334
200.1586, 73.82275
200.6408, 68.07800
201.1229, 42.36127
201.6050, 3.906372
202.0871, 11.65332
202.5692, 29.94577
203.0513, 93.34689
203.5335, 134.3477
204.0156, 150.6802
204.4977, 154.1817
204.9798, 143.4156
205.4619, 113.8380
205.9440, 107.4099
206.4262, 136.4136
206.9083, 181.2394
207.3904, 187.5716
207.8725, 142.9539
208.3546, 94.01993
208.8367, 67.04800
209.3189, 64.84210
209.8010, 73.85168
210.2831, 96.22705
210.7652, 128.5549
211.2473, 157.8139
211.7294, 187.8788
212.2116, 207.3543
212.6937, 203.1364
213.1758, 167.8553
213.6579, 149.0833
214.1400, 159.8853
214.6221, 202.4774
215.1043, 214.6012
215.5864, 183.9156
216.0685, 142.0350
216.5506, 116.3019
217.0327, 110.7651
217.5148, 114.9409
217.9970, 130.0178
218.4791, 156.7123
218.9612, 175.7760
219.4433, 187.1174
219.9254, 190.7454
220.4075, 184.9903
220.8897, 165.0468
221.3718, 145.3717
221.8539, 128.7010
222.3360, 112.8779
222.8181, 111.7029
223.3002, 136.9374
223.7824, 169.2564
224.2645, 167.5831
224.7466, 105.0386
225.2287, 53.92023
225.7108, 47.80234
226.1929, 113.9540
226.6750, 147.5815
227.1572, 134.2883
227.6393, 92.54427
228.1214, 68.57050
228.6035, 64.11758
229.0856, 75.13345
229.5677, 104.5425
230.0499, 171.0646
230.5320, 211.5770
231.0141, 216.1495
231.4962, 192.2917
231.9783, 169.1254
232.4604, 143.0646
232.9426, 122.6255
233.4247, 113.6467
233.9068, 122.2208
234.3889, 130.3675
234.8710, 138.0414
235.3531, 144.6981
235.8353, 144.1075
236.3174, 133.8132
236.7995, 119.0739
237.2816, 102.2905
237.7637, 76.67282
238.2458, 62.70573
238.7280, 68.72894
239.2101, 94.23624
239.6922, 104.2769
240.1743, 90.03339
240.6564, 69.08092
241.1385, 56.43497
241.6207, 48.59825
242.1028, 55.57028
242.5849, 86.22083
243.0670, 144.5771
243.5491, 173.9859
244.0313, 161.2597
244.5134, 130.6337
244.9955, 109.4381
245.4776, 100.4163
245.9597, 96.40709
246.4418, 97.26050
246.9240, 104.6880
247.4061, 107.1108
247.8882, 104.1566
248.3703, 96.49016
248.8524, 82.31152
249.3345, 48.79749
249.8167, 32.20061
250.2988, 48.89615
250.7809, 112.4402
251.2630, 148.7036
251.7451, 146.3381
252.2272, 123.2405
252.7094, 110.6728
253.1915, 110.8853
253.6736, 117.9519
254.1557, 132.6170
254.6378, 162.4548
255.1199, 176.1043
255.6021, 170.1319
256.0842, 149.5970
256.5663, 122.7064
257.0484, 80.39932
257.5305, 47.61852
258.0126, 38.10332
258.4948, 57.68542
258.9769, 75.59766
259.4590, 94.92262
259.9411, 111.0952
260.4232, 112.1068
260.9053, 88.67432
261.3875, 64.83191
261.8696, 52.78041
262.3517, 55.20203
262.8338, 62.82980
263.3159, 82.40041
263.7980, 105.2603
264.2802, 97.28575
264.7623, 44.03186
265.2444, 11.67734
265.7265, 46.68964
266.2086, 59.13928
266.6907, 53.56021
267.1729, 22.67613
267.6550, 24.49593
268.1371, 51.61891
268.6192, 50.65749
269.1013, 47.04208
269.5834, 64.76575
270.0656, 114.5288
270.5477, 131.1984
271.0298, 90.65678
271.5119, 13.38686
271.9940, 7.642670
272.4761, 43.13934
272.9583, 110.8944
273.4404, 157.5444
273.9225, 180.8391
274.4046, 195.4375
274.8867, 204.3098
275.3688, 205.3890
275.8510, 181.1521
276.3331, 123.3147
276.8152, 65.50183
277.2973, 34.99895
277.7794, 33.15485
278.2615, 47.95276
278.7437, 87.07339
279.2258, 139.9166
279.7079, 151.8443
280.1900, 114.4297
280.6721, 68.77542
281.1542, 53.47020
281.6364, 69.78429
282.1185, 86.04155
282.6006, 95.89963
283.0827, 100.4357
283.5648, 101.6237
284.0469, 98.04752
284.5291, 98.45932
285.0112, 117.8340
285.4933, 155.2081
285.9754, 178.3435
286.4575, 175.5526
286.9396, 155.4649
287.4217, 132.4531
287.9038, 101.8596
288.3860, 83.98662
288.8681, 108.6934
289.3502, 170.0865
289.8323, 216.7955
290.3144, 232.0634
290.7965, 222.7474
291.2787, 203.0798
291.7608, 172.0828
292.2429, 140.6866
292.7250, 115.5456
293.2071, 97.52264
293.6892, 91.23407
294.1714, 101.0277
294.6535, 122.2922
295.1356, 150.0381
295.6177, 184.9778
296.0998, 213.0111
296.5819, 223.2410
297.0641, 216.4082
297.5462, 193.1235
298.0283, 129.5043
298.5104, 62.35388
298.9925, 70.81155
299.4746, 155.6568
299.9568, 235.1848
300.4389, 221.8026
300.9210, 147.9901
301.4031, 88.31284
301.8852, 74.98360
302.3673, 87.23026
302.8495, 104.0544
303.3316, 125.1185
303.8137, 141.6180
304.2958, 149.0550
304.7779, 146.5328
305.2600, 132.1413
305.7422, 93.18294
306.2243, 49.72905
306.7064, 17.30701
307.1885, 4.096497
307.6706, 8.644028
308.1527, 23.38892
308.6349, 71.29626
309.1170, 106.4410
309.5991, 109.0073
310.0812, 100.2793
310.5633, 90.96877
311.0454, 81.50525
311.5276, 79.87273
312.0097, 105.0204
312.4918, 135.7409
312.9739, 148.5888
313.4560, 123.2515
313.9381, 87.49353
314.4203, 48.39662
314.9024, 7.138016
315.3845, 16.31879
315.8666, 8.567261
316.3487, 46.61470
316.8308, 64.57895
317.3130, 29.25848
317.7951, 6.393585
318.2772, 22.38196
318.7593, 19.63419
319.2414, 9.457321
319.7235, 16.19383
320.2057, 41.77287
320.6878, 54.95718
321.1699, 31.19899
321.6520, 16.90067
322.1341, 30.93803
322.6162, 70.03252
323.0984, 98.47333
323.5805, 107.2186
324.0626, 104.5409
324.5447, 96.19540
325.0268, 67.33769
325.5089, 53.04558
325.9911, 68.89029
326.4732, 109.9670
326.9553, 126.3276
327.4374, 68.91635
327.9195, 16.83772
328.4016, 15.98592
328.8838, 146.8297
329.3659, 227.8788
329.8480, 231.4409
330.3301, 170.7119
330.8122, 114.2153
331.2943, 38.80937
331.7765, 10.05424
332.2586, 1.097092
332.7407, 120.2114
333.2228, 200.0495
333.7049, 217.6568
334.1870, 186.9800
334.6692, 166.5591
335.1513, 163.1404
335.6334, 158.8083
336.1155, 138.9013
336.5976, 89.13956
337.0797, 70.91774
337.5619, 98.45366
338.0440, 154.9624
338.5261, 193.8467
339.0082, 215.1810
339.4903, 218.7891
339.9724, 193.1521
340.4546, 130.7432
340.9367, 110.2214
341.4188, 152.5766
341.9009, 218.0422
342.3830, 215.9768
342.8651, 139.9988
343.3473, 58.06819
343.8294, 0.7053680
344.3115, 36.50770
344.7936, 39.29086
345.2757, 1.442200
345.7578, 52.10532
346.2400, 83.46577
346.7221, 93.25609
347.2042, 98.96455
347.6863, 110.5581
348.1684, 125.1388
348.6505, 133.7838
349.1327, 136.2177
349.6148, 132.4920
350.0969, 111.9260
350.5790, 81.83559
351.0611, 70.51331
351.5432, 117.8036
352.0254, 183.6707
352.5075, 197.1888
352.9896, 151.3226
353.4717, 98.26746
353.9538, 87.13690
354.4359, 103.5944
354.9181, 119.9698
355.4002, 134.6527
355.8823, 137.6830
356.3644, 107.7835
356.8465, 44.52361
357.3286, 3.179031
357.8108, 14.52016
358.2929, 61.53387
358.7750, 90.89824
359.2571, 60.19942
359.7392, 28.36688
360.2213, 32.40292
360.7035, 70.18756
361.1856, 105.6207
361.6677, 130.7405
362.1498, 142.6281
362.6319, 140.0406
363.1140, 94.61652
363.5962, 59.91777
364.0783, 72.47224
364.5604, 122.8731
365.0425, 144.6303
365.5246, 82.32892
366.0067, 14.25586
366.4889, 13.19028
366.9710, 46.03712
367.4531, 98.28587
367.9352, 145.0817
368.4173, 181.7474
368.8994, 186.6523
369.3815, 124.4991
369.8636, 61.28386
370.3458, 27.33392
370.8279, 40.64072
371.3100, 49.51672
371.7921, 54.91478
372.2742, 58.31995
372.7563, 61.90033
373.2385, 61.94707
373.7206, 68.07951
374.2027, 86.96390
374.6848, 128.5545
375.1669, 136.5985
375.6490, 94.58472
376.1312, 34.37430
376.6133, 12.45670
377.0954, 37.93047
377.5775, 67.92711
378.0596, 87.12543
378.5417, 95.33667
379.0239, 97.75374
379.5060, 92.96454
379.9881, 86.51225
380.4702, 85.09828
380.9523, 88.57030
381.4344, 93.31267
381.9166, 98.24269
382.3987, 103.5185
382.8808, 116.5344
383.3629, 134.3960
383.8450, 142.0929
384.3271, 112.7323
384.8093, 61.43520
385.2914, 37.06895
385.7735, 65.54474
386.2556, 117.0839
386.7377, 159.9143
387.2198, 192.6494
387.7020, 205.5365
388.1841, 178.4643
388.6662, 131.1915
389.1483, 87.57195
389.6304, 46.03629
390.1125, 21.68140
390.5947, 36.30223
391.0768, 78.48447
391.5589, 112.5415
392.0410, 115.5967
392.5231, 106.7894
393.0052, 100.2076
393.4874, 100.4237
393.9695, 97.57837
394.4516, 85.38383
394.9337, 67.74536
395.4158, 51.81575
395.8979, 35.25218
396.3801, 24.39638
396.8622, 23.61794
397.3443, 36.65855
397.8264, 47.36653
398.3085, 55.73500
398.7906, 59.92143
399.2728, 57.44292
399.7549, 38.62268
400.2370, 23.88680
400.7191, 15.27699
401.2012, 12.40555
401.6833, 22.52327
402.1655, 52.76160
402.6476, 86.67946
403.1297, 113.0217
403.6118, 133.8283
404.0939, 131.3923
404.5760, 87.97115
405.0582, 17.90694
405.5403, 10.61086
406.0224, 87.29593
406.5045, 165.1842
406.9866, 177.3627
407.4688, 118.9501
407.9509, 85.27155
408.4330, 89.75195
408.9151, 114.3215
409.3972, 120.6408
409.8793, 108.6195
410.3615, 89.69298
410.8436, 55.79462
411.3257, 18.42363
411.8078, 25.81012
412.2899, 88.91048
412.7720, 160.6655
413.2542, 183.6660
413.7363, 168.7208
414.2184, 147.9932
414.7005, 131.3392
415.1826, 119.4019
415.6647, 117.5960
416.1469, 126.1452
416.6290, 128.9672
417.1111, 103.9592
417.5932, 69.02386
418.0753, 48.31184
418.5574, 74.89790
419.0396, 95.09988
419.5217, 59.89833
420.0038, 17.70764
420.4859, 53.31100
420.9680, 40.37151
421.4501, 155.0676
421.9323, 213.3290
422.4144, 155.2836
422.8965, 105.7867
423.3786, 87.44728
423.8607, 93.29916
424.3428, 102.1754
424.8250, 126.0630
425.3071, 142.4651
425.7892, 144.3333
426.2713, 131.0380
426.7534, 104.3628
427.2355, 44.77405
427.7177, 18.62804
428.1998, 41.27914
428.6819, 6.367035
429.1640, 34.98177
429.6461, 66.53442
430.1282, 85.57594
430.6104, 99.38138
431.0925, 106.5180
431.5746, 111.9995
432.0567, 124.5272
432.5388, 144.6496
433.0209, 149.0174
433.5031, 125.2367
433.9852, 88.78893
434.4673, 80.56438
434.9494, 99.97391
435.4315, 122.7130
435.9136, 136.3628
436.3958, 139.8600
436.8779, 126.6302
437.3600, 90.39853
437.8421, 53.16200
438.3242, 46.74715
438.8063, 60.36531
439.2885, 63.75525
439.7706, 10.22958
440.2527, 42.22417
440.7348, 27.32733
441.2169, 67.23146
441.6990, 151.8854
442.1812, 174.2695
442.6633, 159.5566
443.1454, 138.1910
443.6275, 110.7097
444.1096, 86.74344
444.5917, 70.89455
445.0739, 62.65435
445.5560, 54.89067
446.0381, 44.10055
446.5202, 38.52834
447.0023, 35.40927
447.4844, 39.10917
447.9666, 47.44897
448.4487, 62.81377
448.9308, 82.63523
449.4129, 101.0386
449.8950, 121.6834
450.3771, 134.3719
450.8592, 134.3135
451.3413, 120.0560
451.8235, 98.18106
452.3056, 60.33128
452.7877, 28.07893
453.2698, 39.68260
453.7519, 100.2455
454.2340, 144.8534
454.7162, 150.8175
455.1983, 127.2945
455.6804, 102.5266
456.1625, 76.03121
456.6446, 55.97204
457.1267, 45.48268
457.6089, 46.54144
458.0910, 69.76190
458.5731, 131.7868
459.0552, 189.8065
459.5373, 181.1495
460.0194, 122.3553
460.5016, 67.80357
460.9837, 51.16655
461.4658, 51.45528
461.9479, 49.46548
462.4300, 41.46254
462.9121, 39.97874
463.3943, 67.27647
463.8764, 100.4418
464.3585, 109.4085
464.8406, 38.52985
465.3227, 12.22186
465.8048, 5.805458
466.2870, 92.95497
466.7691, 149.8852
467.2512, 143.8595
467.7333, 119.6731
468.2154, 103.8943
468.6975, 93.06116
469.1797, 97.42357
469.6618, 126.7282
470.1439, 168.9912
470.6260, 194.2519
471.1081, 203.7901
471.5902, 192.7531
472.0724, 145.7203
472.5545, 57.35162
473.0366, 25.22987
473.5187, 62.00862
474.0008, 120.2459
474.4829, 145.0144
474.9651, 138.0847
475.4472, 117.7246
475.9293, 74.76385
476.4114, 31.99487
476.8935, 53.66965
477.3756, 133.7329
477.8578, 197.7170
478.3399, 171.1936
478.8220, 104.0704
479.3041, 57.62738
479.7862, 44.79655
480.2683, 53.05750
480.7505, 94.09576
481.2326, 148.9524
481.7147, 178.0289
482.1968, 146.7518
482.6789, 100.8378
483.1610, 53.47952
483.6432, 2.021469
484.1253, 14.58449
484.6074, 68.91318
485.0895, 163.3333
485.5716, 190.7984
486.0537, 44.19020
486.5359, 46.34042
487.0180, 41.28592
487.5001, 36.55771
487.9822, 82.50340
488.4643, 83.65134
488.9464, 73.39722
489.4286, 65.53632
489.9107, 59.23618
490.3928, 61.03948
490.8749, 73.16104
491.3570, 89.52714
491.8391, 103.5094
492.3213, 114.9964
492.8034, 119.3690
493.2855, 111.6117
493.7676, 96.90489
494.2497, 85.65808
494.7318, 78.04855
495.2140, 78.55969
495.6961, 105.6515
496.1782, 140.4934
496.6603, 145.6635
497.1424, 100.7781
497.6245, 53.06792
498.1067, 35.04031
498.5888, 43.33595
499.0709, 62.00662
499.5530, 97.77367
500.0351, 127.5467
500.5172, 136.0080
500.9994, 118.8153
501.4815, 103.2622
501.9636, 108.0636
502.4457, 110.8354
502.9278, 91.04804
503.4099, 17.24313
503.8921, 65.26474
504.3742, 9.041725
504.8563, 120.5019
505.3384, 193.5132
505.8205, 194.9210
506.3026, 169.4897
506.7848, 137.8169
507.2669, 97.75732
507.7490, 62.85162
508.2311, 29.72462
508.7132, 9.503670
509.1953, 28.46925
509.6775, 82.02107
510.1596, 119.7002
510.6417, 118.6982
511.1238, 90.70514
511.6059, 57.95405
512.0880, 22.77821
512.5701, 6.057297
513.0522, 41.23236
513.5344, 95.91518
514.0165, 126.7233
514.4986, 118.8365
514.9807, 107.7909
515.4628, 120.5649
515.9449, 144.3818
516.4271, 157.3734
516.9092, 131.0727
517.3913, 112.7540
517.8734, 131.8271
518.3555, 191.4993
518.8376, 220.5750
519.3198, 185.9019
519.8019, 136.1285
520.2840, 100.0137
520.7661, 86.01765
521.2482, 68.79886
521.7303, 42.00240
522.2125, 14.31208
522.6946, 6.300133
523.1767, 19.38004
523.6588, 42.72136
524.1409, 80.53856
524.6230, 126.5688
525.1052, 128.9918
525.5873, 82.57190
526.0694, 34.01776
526.5515, 36.90889
527.0336, 75.07088
527.5157, 101.8282
527.9979, 102.5061
528.4800, 93.13326
528.9621, 92.71200
529.4442, 95.84210
529.9263, 90.45405
530.4084, 53.60871
530.8906, 17.67492
531.3727, 5.760666
531.8548, 21.28953
532.3369, 47.54532
532.8190, 101.1162
533.3011, 152.1027
533.7833, 172.4911
534.2654, 118.8322
534.7475, 82.71196
535.2296, 77.17194
535.7117, 95.43855
536.1938, 115.6046
536.6760, 145.1210
537.1581, 163.0744
537.6402, 159.1087
538.1223, 131.7829
538.6044, 96.65866
539.0865, 48.16891
539.5687, 7.158760
540.0508, 7.063499
540.5329, 41.49194
541.0150, 61.92235
541.4971, 47.97911
541.9792, 23.09442
542.4614, 30.96141
542.9435, 64.70928
543.4256, 97.87309
543.9077, 119.0198
544.3898, 126.3639
544.8719, 116.7470
545.3541, 87.34827
545.8362, 76.69186
546.3183, 129.9451
546.8004, 202.0763
547.2825, 244.4115
547.7646, 227.0561
548.2468, 199.1297
548.7289, 158.6336
549.2110, 112.0369
549.6931, 87.31073
550.1752, 96.91649
550.6573, 111.4584
551.1395, 119.5639
551.6216, 120.1472
552.1037, 120.6632
552.5858, 121.6500
553.0679, 121.4370
553.5500, 118.0370
554.0322, 111.5348
554.5143, 103.3439
554.9964, 94.66671
555.4785, 86.96967
555.9606, 69.07568
556.4427, 39.99312
556.9249, 20.98215
557.4070, 29.16087
557.8891, 49.74220
558.3712, 67.80231
558.8533, 82.01620
559.3354, 93.81714
559.8176, 95.70851
560.2997, 94.95410
560.7818, 99.43512
561.2639, 136.6220
561.7460, 146.0157
562.2281, 91.72710
562.7103, 1.977669
563.1924, 31.00321
563.6745, 61.41743
564.1566, 143.8184
564.6387, 164.6902
565.1208, 116.4047
565.6030, 85.44451
566.0851, 78.42719
566.5672, 74.12899
567.0493, 39.30426
567.5314, 22.66811
568.0135, 44.80959
568.4957, 6.313667
568.9778, 63.06126
569.4599, 126.5028
569.9420, 181.7844
570.4241, 216.6912
570.9063, 224.4582
571.3884, 209.4069
571.8705, 162.4502
572.3526, 84.29965
572.8347, 26.77452
573.3168, 37.83022
573.7990, 70.61494
574.2811, 85.04639
574.7632, 52.58592
575.2453, 30.67833
575.7274, 36.34485
576.2095, 56.87994
576.6917, 66.99902
577.1738, 60.75136
577.6559, 53.67245
578.1380, 48.78558
578.6201, 46.24960
579.1022, 50.61289
579.5844, 64.28961
580.0665, 75.90417
580.5486, 73.67710
581.0307, 60.10037
581.5128, 52.63880
581.9949, 53.69166
582.4771, 59.59092
582.9592, 65.23853
583.4413, 72.15179
583.9234, 84.08888
584.4055, 124.2914
584.8876, 152.8639
585.3698, 121.7271
585.8519, 44.28457
586.3340, 7.153877
586.8161, 26.68877
587.2982, 73.94683
587.7803, 92.48462
588.2625, 62.44427
588.7446, 44.46352
589.2267, 51.09869
589.7088, 64.29352
590.1909, 62.04160
590.6730, 33.01102
591.1552, 21.11980
591.6373, 40.01440
592.1194, 76.80619
592.6015, 92.36721
593.0836, 85.66891
593.5657, 74.78376
594.0479, 68.80546
594.5300, 66.05198
595.0121, 61.48880
595.4942, 54.88281
595.9763, 49.74461
596.4584, 51.51432
596.9406, 55.64052
597.4227, 54.62436
597.9048, 37.51959
598.3869, 31.05929
598.8690, 60.94852
599.3511, 109.6249
599.8333, 139.6133
600.3154, 138.3965
600.7975, 124.9215
601.2796, 93.94957
601.7617, 46.60684
602.2438, 37.35347
602.7260, 89.22961
603.2081, 139.2840
603.6902, 141.4477
604.1723, 90.91592
604.6544, 57.40456
605.1365, 46.75203
605.6187, 46.09296
606.1008, 37.67326
606.5829, 24.29855
607.0650, 17.28530
607.5471, 17.61945
608.0292, 28.96947
608.5114, 68.98870
608.9935, 126.9072
609.4756, 165.2605
609.9577, 151.0370
610.4398, 120.5860
610.9219, 96.41703
611.4041, 82.23991
611.8862, 60.24586
612.3683, 1.407257
612.8504, 53.82092
613.3325, 57.90466
613.8146, 22.55786
614.2968, 81.66156
614.7789, 116.0499
615.2610, 125.6248
615.7431, 96.74364
616.2252, 24.45911
616.7073, 21.84415
617.1895, 6.491714
617.6716, 49.14839
618.1537, 85.37518
618.6358, 103.5763
619.1179, 114.4687
619.6000, 125.2109
620.0822, 133.3304
620.5643, 136.2341
621.0464, 132.4984
621.5285, 123.3638
622.0106, 97.21397
622.4927, 66.37927
622.9749, 44.15820
623.4570, 26.86649
623.9391, 26.60152
624.4212, 58.06482
624.9033, 106.3198
625.3854, 131.6401
625.8676, 128.3671
626.3497, 118.1988
626.8318, 102.9902
627.3139, 82.98973
627.7960, 63.35922
628.2781, 43.05745
628.7603, 31.66295
629.2424, 49.17802
629.7245, 81.09958
630.2066, 84.57825
630.6887, 48.16048
631.1708, 11.56463
631.6530, 12.25392
632.1351, 35.30484
632.6172, 58.22198
633.0993, 84.35443
633.5814, 96.74059
634.0635, 72.63045
634.5457, 26.19550
635.0278, 12.38995
635.5099, 78.79762
635.9920, 130.6322
636.4741, 131.1030
636.9562, 75.66396
637.4384, 53.44947
637.9205, 74.14052
638.4026, 100.4328
638.8847, 96.76486
639.3668, 66.52379
639.8489, 54.59612
640.3311, 69.35928
640.8132, 92.07767
641.2953, 104.0010
641.7774, 106.9500
642.2595, 105.1373
642.7416, 98.52863
643.2238, 89.32857
643.7059, 77.41775
644.1880, 63.25266
644.6701, 51.00124
645.1522, 39.49255
645.6343, 31.20224
646.1165, 26.33179
646.5986, 24.16919
647.0807, 31.60897
647.5628, 54.31511
648.0449, 78.49451
648.5270, 94.17246
649.0092, 100.9236
649.4913, 104.0213
649.9734, 102.9494
650.4555, 101.0319
650.9376, 106.1000
651.4197, 114.8490
651.9019, 115.8488
652.3840, 98.64397
652.8661, 76.50800
653.3482, 56.90992
653.8303, 41.64670
654.3124, 36.20580
654.7946, 62.22699
655.2767, 81.56564
655.7588, 62.86545
656.2408, 2.313347
656.7230, 18.97023
657.2051, 56.96999
657.6872, 137.5022
658.1693, 167.8527
658.6514, 135.1273
659.1335, 109.1649
659.6157, 91.10511
660.0978, 80.71638
660.5799, 78.63791
661.0620, 84.26890
661.5441, 96.16422
662.0262, 119.8034
662.5084, 140.0157
662.9905, 132.6429
663.4726, 106.3687
663.9547, 84.67454
664.4368, 85.62663
664.9189, 88.32897
665.4011, 81.26252
665.8832, 64.32472
666.3653, 48.35973
666.8474, 23.71625
667.3295, 9.137619
667.8116, 17.90372
668.2938, 60.86126
668.7759, 76.98232
669.2580, 59.19591
669.7401, 30.59545
670.2222, 12.34379
670.7043, 1.294640
671.1865, 2.581650
671.6686, 26.40564
672.1507, 48.26596
672.6328, 32.95753
673.1149, 4.697845
673.5970, 29.12525
674.0792, 22.63783
674.5613, 2.646019
675.0434, 35.63992
675.5255, 86.07204
676.0076, 118.9112
676.4897, 117.0086
676.9719, 106.7134
677.4540, 98.17568
677.9361, 92.10511
678.4182, 75.40718
678.9003, 40.40870
679.3824, 11.12462
679.8646, 12.02176
680.3467, 40.12441
680.8288, 60.12589
681.3109, 67.99435
681.7930, 70.81557
682.2751, 78.41060
682.7573, 86.90683
683.2394, 87.86472
683.7215, 69.50394
684.2036, 55.05850
684.6857, 67.84923
685.1678, 94.10117
685.6500, 102.2879
686.1321, 53.91747
686.6142, 20.10043
687.0963, 27.04750
687.5784, 69.14017
688.0605, 93.23544
688.5427, 95.97083
689.0248, 89.82919
689.5069, 74.77567
689.9890, 51.73438
690.4711, 45.11189
690.9532, 56.73160
691.4354, 75.65716
691.9175, 103.0544
692.3996, 127.7624
692.8817, 127.2721
693.3638, 87.32527
693.8459, 53.53412
694.3281, 64.96941
694.8102, 92.51618
695.2923, 96.33783
695.7744, 29.34064
696.2565, 12.72942
696.7386, 6.327316
697.2208, 29.82989
697.7029, 44.59714
698.1850, 30.69801
698.6671, 24.97155
699.1492, 43.13428
699.6313, 78.06748
700.1135, 104.5868
700.5956, 122.4192
701.0777, 126.8206
701.5598, 98.74136
702.0419, 63.43761
702.5240, 55.75142
703.0062, 79.68910
703.4883, 103.0627
703.9704, 110.5503
704.4525, 111.0102
704.9346, 111.0081
705.4167, 110.2209
705.8989, 111.7714
706.3810, 121.5662
706.8631, 128.5943
707.3452, 117.4290
707.8273, 85.13438
708.3094, 51.40562
708.7916, 14.39890
709.2737, 13.83541
709.7558, 0.7970280
710.2379, 43.32608
710.7200, 78.22911
711.2021, 71.74658
711.6843, 58.64448
712.1664, 77.82610
712.6485, 119.5451
713.1306, 141.7078
713.6127, 107.3691
714.0948, 68.59835
714.5770, 48.71194
715.0591, 51.36569
715.5412, 56.11897
716.0233, 66.59579
716.5054, 72.65711
716.9875, 61.12428
717.4697, 32.33498
717.9518, 31.94212
718.4339, 66.39250
718.9160, 101.0038
719.3981, 91.69894
719.8802, 57.14062
720.3624, 32.52563
720.8445, 26.58957
721.3266, 32.50382
721.8087, 69.09856
722.2908, 111.1427
722.7729, 120.9408
723.2551, 42.36693
723.7372, 7.105461
724.2193, 0.2218630
724.7014, 44.05580
725.1835, 67.39921
725.6656, 64.12257
726.1478, 64.05089
726.6299, 82.92607
727.1120, 110.4959
727.5941, 109.7958
728.0762, 84.04114
728.5583, 64.39954
729.0405, 72.98769
729.5226, 96.36903
730.0047, 130.3359
730.4868, 174.2271
730.9689, 195.8725
731.4510, 163.7464
731.9332, 119.1389
732.4153, 88.72261
732.8974, 77.56880
733.3795, 61.06106
733.8616, 34.71757
734.3438, 10.16313
734.8259, 0.7459410
735.3080, 1.803726
735.7901, 9.915192
736.2722, 22.60307
736.7543, 40.38356
737.2365, 70.65728
737.7186, 105.6432
738.2007, 129.0042
738.6828, 130.6381
739.1649, 124.9450
739.6470, 117.0670
740.1292, 107.3904
740.6113, 96.63571
741.0934, 70.23289
741.5755, 62.69643
742.0576, 93.37028
742.5397, 147.1283
743.0219, 158.5789
743.5040, 121.0849
743.9861, 82.20791
744.4682, 70.36046
744.9503, 73.87946
745.4324, 55.41069
745.9146, 17.56032
746.3967, 12.51222
746.8788, 20.84602
747.3609, 10.16358
747.8430, 27.92520
748.3251, 101.0195
748.8073, 145.9232
749.2894, 133.6976
749.7715, 99.47166
750.2536, 59.50046
750.7357, 2.698914
751.2178, 11.76421
751.7000, 50.61567
752.1821, 123.2028
752.6642, 127.2717
753.1463, 76.02258
753.6284, 36.64481
754.1105, 22.52707
754.5927, 17.56062
755.0748, 3.320236
755.5569, 12.23871
756.0390, 16.20310
756.5211, 7.025238
757.0032, 29.92302
757.4854, 43.31452
757.9675, 51.24612
758.4496, 65.16618
758.9317, 95.49519
759.4138, 107.8148
759.8959, 87.20821
760.3781, 47.18430
760.8602, 30.80991
761.3423, 36.83098
761.8244, 45.52392
762.3065, 46.27422
762.7886, 43.87798
763.2708, 44.41140
763.7529, 47.50318
764.2350, 50.39024
764.7171, 42.35285
765.1992, 41.83003
765.6813, 66.88541
766.1635, 124.0058
766.6456, 147.8871
767.1277, 121.7338
767.6098, 88.90827
768.0919, 73.87005
768.5740, 76.26391
769.0562, 81.40240
769.5383, 89.19167
770.0204, 98.54726
770.5025, 117.0550
770.9846, 133.6535
771.4667, 123.5985
771.9489, 73.75694
772.4310, 39.98090
772.9131, 72.05787
773.3952, 123.4570
773.8773, 146.7107
774.3594, 113.5556
774.8416, 88.44676
775.3237, 74.66002
775.8058, 66.94357
776.2879, 59.59172
776.7700, 52.64967
777.2521, 37.38155
777.7343, 6.818573
778.2164, 19.67629
778.6985, 1.721664
779.1806, 41.11440
779.6627, 62.97617
780.1448, 13.57915
780.6270, 28.86286
781.1091, 26.03053
781.5912, 10.21423
782.0733, 48.47613
782.5554, 95.13741
783.0375, 129.1047
783.5197, 145.8225
784.0018, 146.1104
784.4839, 126.5365
784.9660, 86.22074
785.4481, 53.65199
785.9302, 44.89176
786.4124, 51.72594
786.8945, 66.04674
787.3766, 85.69328
787.8587, 98.99036
788.3408, 86.44473
788.8229, 77.08403
789.3051, 95.63957
789.7872, 146.5616
790.2693, 164.8541
790.7514, 134.5598
791.2335, 94.79649
791.7156, 62.24434
792.1978, 36.76288
792.6799, 25.32364
793.1620, 28.25995
793.6441, 44.85732
794.1262, 88.31434
794.6083, 133.9999
795.0905, 132.6317
795.5726, 72.67005
796.0547, 29.60388
796.5368, 65.97021
797.0189, 117.6860
797.5010, 131.5272
797.9832, 86.03976
798.4653, 47.61598
798.9474, 11.39771
799.4295, 10.02345
799.9116, 5.582031
800.3937, 54.66826
800.8759, 85.70283
801.3580, 91.27498
801.8401, 82.42319
802.3222, 58.80191
802.8043, 32.22225
803.2864, 21.52793
803.7686, 40.79044
804.2507, 58.81633
804.7328, 69.20010
805.2149, 72.88310
805.6970, 68.54073
806.1791, 46.22652
806.6613, 40.55833
807.1434, 62.73567
807.6255, 93.91675
808.1076, 88.52269
808.5897, 54.78636
809.0718, 37.10542
809.5540, 63.14404
810.0361, 90.83455
810.5182, 67.99963
811.0003, 19.27066
811.4824, 7.348228
811.9645, 23.79930
812.4467, 56.04895
812.9288, 83.78574
813.4109, 100.7887
813.8930, 87.15042
814.3751, 32.43260
814.8572, 3.251297
815.3394, 4.665237
815.8215, 35.99274
816.3036, 42.62418
816.7857, 30.48357
817.2678, 26.87923
817.7499, 60.05463
818.2321, 93.75200
818.7142, 97.45271
819.1963, 78.24077
819.6784, 69.75070
820.1605, 103.2305
820.6426, 117.7751
821.1247, 82.64732
821.6068, 13.30055
822.0889, 18.58516
822.5710, 106.4839
823.0532, 174.6441
823.5353, 143.3244
824.0174, 65.80341
824.4995, 39.80225
824.9816, 59.26968
825.4637, 84.43443
825.9459, 106.5379
826.4280, 117.3493
826.9101, 105.1217
827.3922, 68.63643
827.8743, 51.94792
828.3564, 67.12059
828.8386, 80.36095
829.3207, 68.80125
829.8028, 39.00925
830.2849, 50.71877
830.7670, 103.0952
831.2491, 146.5576
831.7313, 133.9563
832.2134, 99.61418
832.6955, 83.79858
833.1776, 88.92090
833.6597, 84.75409
834.1418, 46.53192
834.6240, 9.176163
835.1061, 10.91101
835.5882, 13.39310
836.0703, 0.4909210
836.5524, 35.55855
837.0345, 67.86215
837.5167, 68.76962
837.9988, 51.45917
838.4809, 58.71419
838.9630, 94.42650
839.4451, 125.1958
839.9272, 117.1240
840.4094, 98.10982
840.8915, 91.14890
841.3736, 102.8926
841.8557, 108.0323
842.3378, 102.9445
842.8199, 93.86186
843.3021, 82.20572
843.7842, 67.60010
844.2663, 63.80850
844.7484, 71.33620
845.2305, 85.30974
845.7126, 110.9645
846.1948, 136.1543
846.6769, 139.0715
847.1590, 113.4881
847.6411, 96.64178
848.1232, 121.3427
848.6053, 146.4082
849.0875, 141.7136
849.5696, 99.01245
850.0517, 54.38203
850.5338, 0.1885530
851.0159, 34.94220
851.4980, 6.535416
851.9802, 62.88805
852.4623, 97.23874
852.9444, 86.51653
853.4265, 63.20238
853.9086, 44.09476
854.3907, 34.53534
854.8729, 43.03647
855.3550, 82.39986
855.8371, 102.8899
856.3192, 91.90907
856.8013, 74.29970
857.2834, 69.82552
857.7656, 80.26172
858.2477, 81.62552
858.7298, 71.97659
859.2119, 60.92117
859.6940, 55.59950
860.1761, 55.29626
860.6583, 61.59618
861.1404, 77.11374
861.6225, 85.39899
862.1046, 71.28860
862.5867, 54.19614
863.0688, 51.19809
863.5510, 71.79437
864.0331, 63.64799
864.5152, 16.10327
864.9973, 24.96156
865.4794, 1.341721
865.9615, 61.04475
866.4437, 86.31578
866.9258, 63.70872
867.4079, 40.70282
867.8900, 55.08313
868.3721, 79.74088
868.8542, 89.89325
869.3364, 67.05997
869.8185, 58.69695
870.3006, 72.56902
870.7827, 97.38744
871.2648, 135.6625
871.7469, 182.9766
872.2291, 181.4532
872.7112, 124.7699
873.1933, 67.50680
873.6754, 55.78098
874.1575, 68.94243
874.6396, 90.86462
875.1218, 123.8513
875.6039, 138.0669
876.0860, 105.7317
876.5681, 71.00400
877.0502, 59.69348
877.5323, 75.10713
878.0145, 83.43660
878.4966, 84.08673
878.9787, 81.72559
879.4608, 80.69740
879.9429, 79.14314
880.4250, 73.66814
880.9072, 63.91626
881.3893, 52.61422
881.8714, 37.65131
882.3535, 24.47914
882.8356, 14.69559
883.3177, 6.827629
883.7999, 17.11725
884.2820, 52.43968
884.7641, 84.91073
885.2462, 89.28983
885.7283, 76.31268
886.2104, 82.87074
886.6926, 108.5359
887.1747, 127.8891
887.6568, 120.9471
888.1389, 104.4244
888.6210, 83.69611
889.1031, 58.20810
889.5853, 60.30112
890.0674, 106.1506
890.5495, 145.9766
891.0316, 155.2209
891.5137, 136.9967
891.9958, 102.7934
892.4780, 54.02553
892.9601, 17.34776
893.4422, 16.91193
893.9243, 33.44876
894.4064, 54.00581
894.8885, 76.61671
895.3707, 91.87710
895.8528, 84.65685
896.3349, 86.62384
896.8170, 115.4496
897.2991, 162.2219
897.7813, 172.3341
898.2634, 145.6652
898.7455, 115.6528
899.2276, 103.4270
899.7097, 96.18913
900.1918, 73.38256
900.6740, 40.96517
901.1561, 21.22675
901.6382, 29.45296
902.1203, 43.96761
902.6024, 61.00720
903.0845, 78.77417
903.5667, 90.81515
904.0488, 97.18567
904.5309, 96.90979
905.0130, 87.23759
905.4951, 73.77309
905.9772, 64.41389
906.4594, 58.39579
906.9415, 53.60416
907.4236, 51.15515
907.9057, 47.46709
908.3878, 43.26695
908.8699, 34.38297
909.3521, 15.65691
909.8342, 23.80204
910.3163, 34.69813
910.7984, 0.8410420
911.2805, 54.71393
911.7626, 82.41544
912.2448, 90.75809
912.7269, 96.73335
913.2090, 112.9379
913.6911, 115.9942
914.1732, 73.96418
914.6553, 20.88647
915.1375, 7.255814
915.6196, 55.21840
916.1017, 83.03580
916.5838, 79.51099
917.0659, 65.48340
917.5480, 67.61188
918.0302, 81.72430
918.5123, 97.60546
918.9944, 115.3617
919.4765, 124.6980
919.9586, 111.5430
920.4407, 91.06571
920.9229, 77.18775
921.4050, 69.22392
921.8871, 75.33990
922.3692, 104.3028
922.8513, 127.0226
923.3334, 114.0274
923.8156, 74.29190
924.2977, 48.85260
924.7798, 41.22098
925.2619, 30.35098
925.7440, 19.85965
926.2261, 64.05487
926.7083, 57.95142
927.1904, 15.09557
927.6725, 57.32288
928.1546, 60.37015
928.6367, 48.13666
929.1188, 26.30162
929.6010, 0.2597960
930.0831, 0.7068480
930.5652, 26.38286
931.0473, 46.70287
931.5294, 29.88913
932.0115, 10.81357
932.4937, 22.37561
932.9758, 60.87193
933.4579, 73.85138
933.9400, 38.56432
934.4221, 15.81956
934.9042, 30.62276
935.3864, 67.46272
935.8685, 73.95059
936.3506, 55.43539
936.8327, 44.86041
937.3148, 72.71684
937.7969, 99.76221
938.2791, 88.24429
938.7612, 55.39606
939.2433, 42.63377
939.7254, 70.59512
940.2075, 91.54219
940.6896, 96.38947
941.1718, 94.67822
941.6539, 108.1902
942.1360, 132.4928
942.6181, 142.5958
943.1002, 125.0415
943.5823, 105.4652
944.0645, 111.7522
944.5466, 125.8376
945.0287, 125.2776
945.5108, 98.12639
945.9929, 66.84628
946.4750, 22.83292
946.9572, 10.34692
947.4393, 7.187592
947.9214, 63.68658
948.4035, 90.32591
948.8856, 79.91106
949.3677, 68.11592
949.8499, 98.11472
950.3320, 132.0425
950.8141, 132.7037
951.2962, 85.54169
951.7783, 64.33334
952.2604, 81.23032
952.7426, 101.7840
953.2247, 105.2049
953.7068, 95.49477
954.1889, 91.77890
954.6710, 93.15102
955.1531, 91.53935
955.6353, 72.55843
956.1174, 57.16042
956.5995, 68.12398
957.0816, 99.33296
957.5637, 105.2194
958.0458, 73.26305
958.5280, 42.12149
959.0101, 20.58040
959.4922, 9.177826
959.9743, 10.53300
960.4564, 23.45549
960.9385, 44.55869
961.4207, 83.57477
961.9028, 115.5072
962.3849, 130.1055
962.8670, 127.5228
963.3491, 105.4138
963.8312, 46.82922
964.3134, 14.84619
964.7955, 18.88554
965.2776, 42.59061
965.7597, 71.17511
966.2418, 101.5908
966.7239, 127.8047
967.2061, 149.2497
967.6882, 160.6078
968.1703, 161.3965
968.6524, 154.4977
969.1345, 134.9144
969.6166, 97.62170
970.0988, 74.85635
970.5809, 67.30785
971.0630, 71.67557
971.5451, 93.51306
972.0272, 118.8353
972.5093, 123.8458
972.9915, 110.7684
973.4736, 104.1193
973.9557, 133.5290
974.4378, 152.9578
974.9199, 136.8283
975.4020, 93.25287
975.8842, 55.87012
976.3663, 23.88335
976.8484, 6.869507
977.3305, 13.00322
977.8126, 30.48598
978.2947, 38.75882
978.7769, 45.36523
979.2590, 66.65123
979.7411, 146.7045
980.2232, 191.1338
980.7053, 163.9741
981.1874, 108.5545
981.6696, 86.01453
982.1517, 97.35725
982.6338, 91.27716
983.1159, 56.70586
983.5980, 25.35283
984.0801, 39.11594
984.5623, 71.33377
985.0444, 89.75429
985.5264, 77.64134
986.0085, 76.08247
986.4907, 104.6095
986.9728, 123.1978
987.4549, 93.92477
987.9370, 25.72862
988.4191, 21.54079
988.9012, 77.28116
989.3834, 127.6966
989.8655, 126.9774
990.3476, 106.7229
990.8297, 83.76358
991.3118, 60.69212
991.7939, 46.32712
992.2761, 39.71944
992.7582, 45.51027
993.2403, 70.49605
993.7224, 101.6131
994.2045, 107.6736
994.6866, 94.96664
995.1688, 83.23915
995.6509, 78.13814
996.1330, 77.79738
996.6151, 81.49634
997.0972, 89.61569
997.5793, 106.2174
998.0615, 144.5219
998.5436, 139.2265
999.0257, 78.41255
999.5078, 11.23718
999.9899, 15.21062
1000.472, 11.85614
1000.954, 11.42258
1001.436, 53.71292
1001.918, 82.65733
1002.401, 77.55194
1002.883, 57.33928
1003.365, 22.71660
1003.847, 21.00048
1004.329, 4.916611
1004.811, 72.19513
1005.293, 121.0711
1005.775, 57.39272
1006.257, 21.93580
1006.740, 10.03719
1007.222, 107.9624
1007.704, 161.3762
1008.186, 95.67180
1008.668, 42.89249
1009.150, 17.07698
1009.632, 10.33888
1010.114, 12.46169
1010.596, 23.28691
1011.079, 46.15251
1011.561, 85.62335
1012.043, 114.7226
1012.525, 101.2377
1013.007, 74.89001
1013.489, 64.60831
1013.971, 78.07848
1014.453, 74.23959
1014.936, 44.93854
1015.418, 24.63919
1015.900, 51.63295
1016.382, 99.19136
1016.864, 96.19911
1017.346, 52.63701
1017.828, 22.28632
1018.310, 45.63994
1018.792, 70.38106
1019.275, 79.36407
1019.757, 75.38446
1020.239, 59.00574
1020.721, 26.10077
1021.203, 12.51688
1021.685, 29.75626
1022.167, 59.84331
1022.649, 95.46857
1023.132, 125.7715
1023.614, 133.4574
1024.096, 100.4551
1024.578, 77.92786
1025.060, 70.45749
1025.542, 72.08667
1026.024, 86.19029
1026.506, 107.6649
1026.989, 98.77461
1027.471, 60.75546
1027.953, 21.75607
1028.435, 15.31158
1028.917, 33.69997
1029.399, 5.296234
1029.881, 56.58362
1030.363, 72.53105
1030.845, 24.79634
1031.328, 1.854248
1031.810, 39.41063
1032.292, 92.75098
1032.774, 80.98427
1033.256, 32.49570
1033.738, 5.285614
1034.220, 32.89059
1034.702, 52.49298
1035.184, 39.47319
1035.667, 22.25328
1036.149, 23.91330
1036.631, 44.59119
1037.113, 70.80930
1037.595, 102.6557
1038.077, 126.4862
1038.559, 134.2067
1039.041, 127.4543
1039.524, 96.68138
1040.006, 45.94930
1040.488, 24.12912
1040.970, 41.80034
1041.452, 69.05359
1041.934, 102.4097
1042.416, 132.0080
1042.898, 132.0649
1043.380, 112.3459
1043.863, 100.7544
1044.345, 119.6545
1044.827, 127.1236
1045.309, 86.09367
1045.791, 41.07791
1046.273, 37.72278
1046.755, 85.90062
1047.237, 104.9868
1047.719, 89.80638
1048.202, 67.61273
1048.684, 55.16158
1049.166, 48.59850
1049.648, 43.88492
1050.130, 44.47679
1050.612, 44.45866
1051.094, 57.13004
1051.576, 71.34985
1052.059, 87.87140
1052.541, 101.6376
1053.023, 97.60126
1053.505, 80.62253
1053.987, 65.91785
1054.469, 57.81464
1054.951, 54.21881
1055.433, 58.54401
1055.916, 64.04588
1056.398, 63.49126
1056.880, 55.18346
1057.362, 53.53677
1057.844, 59.02025
1058.326, 58.08780
1058.808, 23.04539
1059.290, 13.67656
1059.772, 11.62508
1060.255, 27.09914
1060.737, 65.19402
1061.219, 103.4313
1061.701, 128.4842
1062.183, 141.3533
1062.665, 139.0733
1063.147, 104.1308
1063.629, 48.69260
1064.111, 10.93329
1064.594, 6.444702
1065.076, 17.55075
1065.558, 55.34296
1066.040, 90.91840
1066.522, 95.98553
1067.004, 63.47243
1067.486, 53.74767
1067.968, 68.05521
1068.450, 86.94124
1068.933, 102.8413
1069.415, 111.1371
1069.897, 100.1733
1070.379, 75.44942
1070.861, 62.53758
1071.343, 70.96091
1071.825, 81.20897
1072.307, 91.62602
1072.790, 99.21896
1073.272, 97.30482
1073.754, 88.35297
1074.236, 76.91382
1074.718, 60.78268
1075.200, 55.65851
1075.682, 96.02556
1076.164, 124.5698
1076.646, 92.14459
1077.129, 1.040070
1077.611, 19.04962
1078.093, 38.11145
1078.575, 94.29066
1079.057, 100.2081
1079.539, 86.62238
1080.021, 71.31541
1080.503, 57.75780
1080.985, 55.47102
1081.468, 69.90849
1081.950, 84.62592
1082.432, 100.5675
1082.914, 109.0609
1083.396, 92.94075
1083.878, 63.32317
1084.360, 38.94681
1084.842, 21.85210
1085.325, 19.65312
1085.807, 56.71075
1086.289, 84.95909
1086.771, 79.08421
1087.253, 51.45201
1087.735, 47.29871
1088.217, 64.34430
1088.699, 88.68721
1089.182, 128.4523
1089.664, 152.9199
1090.146, 121.8212
1090.628, 71.15643
1091.110, 55.19774
1091.592, 90.41672
1092.074, 102.6304
1092.556, 87.56853
1093.038, 62.65355
1093.521, 39.58069
1094.003, 21.69397
1094.485, 10.44592
1094.967, 6.802979
1095.449, 23.52951
1095.931, 89.85527
1096.413, 133.1716
1096.895, 132.6774
1097.377, 102.7590
1097.860, 58.93564
1098.342, 11.54510
1098.824, 0.2190860
1099.306, 49.98772
1099.788, 89.50429
1100.270, 79.97478
1100.752, 50.20772
1101.234, 15.62279
1101.717, 24.75082
1102.199, 21.70314
1102.681, 23.93390
1103.163, 53.96812
1103.645, 8.9279003E-02
1104.127, 57.40656
1104.609, 37.50871
1105.091, 29.66263
1105.573, 59.99719
1106.056, 31.52571
1106.538, 22.94009
1107.020, 48.21817
1107.502, 78.95015
1107.984, 74.95187
1108.466, 56.56154
1108.948, 59.93369
1109.430, 90.90703
1109.912, 105.1514
1110.395, 77.02380
1110.877, 53.17667
1111.359, 50.89154
1111.841, 63.96899
1112.323, 80.14600
1112.805, 95.92386
1113.287, 97.48918
1113.769, 70.24086
1114.252, 45.66429
1114.734, 32.47469
1115.216, 32.54935
1115.698, 54.39212
1116.180, 102.0351
1116.662, 107.8130
1117.144, 69.57768
1117.626, 32.66191
1118.109, 29.73000
1118.591, 40.14796
1119.073, 56.52309
1119.555, 73.44556
1120.037, 73.22365
1120.519, 49.19490
1121.001, 31.73100
1121.483, 26.25858
1121.965, 27.88910
1122.448, 34.72620
1122.930, 42.83481
1123.412, 45.00294
1123.894, 38.81413
1124.376, 39.54292
1124.858, 56.27750
1125.340, 65.07222
1125.822, 46.91481
1126.304, 20.07240
1126.787, 47.91000
1127.269, 110.9782
1127.751, 151.0804
1128.233, 135.2055
1128.715, 108.9133
1129.197, 73.09189
1129.679, 43.38799
1130.161, 36.59666
1130.644, 51.40657
1131.126, 61.29102
1131.608, 65.64067
1132.090, 73.65834
1132.572, 105.0921
1133.054, 128.5017
1133.536, 118.0708
1134.018, 85.08942
1134.500, 57.90840
1134.983, 35.06239
1135.465, 28.53133
1135.947, 45.90218
1136.429, 67.50409
1136.911, 79.60620
1137.393, 82.72470
1137.875, 73.43462
1138.357, 49.26852
1138.839, 32.48813
1139.322, 22.68707
1139.804, 23.05991
1140.286, 39.11143
1140.768, 60.95532
1141.250, 73.50418
1141.732, 78.82474
1142.214, 80.98633
1142.696, 81.59576
1143.179, 77.61618
1143.661, 68.05232
1144.143, 55.87840
1144.625, 41.77126
1145.107, 27.10733
1145.589, 12.35217
1146.071, 0.3311160
1146.553, 0.9155120
1147.036, 36.56480
1147.518, 69.37677
1148.000, 96.07919
1148.482, 107.8812
1148.964, 75.10895
1149.446, 8.676300
1149.928, 14.98987
1150.410, 18.40375
1150.892, 49.47655
1151.375, 23.15263
1151.857, 3.163284
1152.339, 14.42331
1152.821, 64.76099
1153.303, 85.10803
1153.785, 75.89545
1154.267, 77.75290
1154.749, 113.8706
1155.231, 144.0833
1155.714, 116.7940
1156.196, 71.27457
1156.678, 56.47655
1157.160, 83.47620
1157.642, 85.82706
1158.124, 60.43884
1158.606, 33.51991
1159.088, 22.11096
1159.571, 16.19565
1160.053, 4.990860
1160.535, 4.954971
1161.017, 1.358688
1161.499, 22.44470
1161.981, 46.20078
1162.463, 76.97147
1162.945, 103.0662
1163.427, 102.3355
1163.910, 88.10376
1164.392, 75.69925
1164.874, 67.59613
1165.356, 76.47067
1165.838, 131.9143
1166.320, 159.0757
1166.802, 134.8958
1167.284, 85.89163
1167.766, 46.25426
1168.249, 20.08412
1168.731, 23.30103
1169.213, 67.24879
1169.695, 90.55852
1170.177, 47.80157
1170.659, 10.56358
1171.141, 10.98338
1171.623, 39.62311
1172.106, 73.64862
1172.588, 107.9793
1173.070, 123.0268
1173.552, 98.24042
1174.034, 75.29425
1174.516, 74.33812
1174.998, 78.95709
1175.480, 78.87251
1175.963, 74.03322
1176.445, 53.78261
1176.927, 21.82837
1177.409, 6.509140
1177.891, 52.71555
1178.373, 89.99316
1178.855, 66.88792
1179.337, 20.32997
1179.819, 6.894547
1180.302, 27.54596
1180.784, 38.59119
1181.266, 34.93883
1181.748, 39.92336
1182.230, 93.80066
1182.712, 143.4382
1183.194, 139.9967
1183.676, 97.42424
1184.158, 73.71536
1184.641, 69.81520
1185.123, 72.17310
1185.605, 79.05844
1186.087, 85.05550
1186.569, 91.33293
1187.051, 89.81082
1187.533, 63.94325
1188.015, 10.91625
1188.498, 4.684494
1188.980, 21.76007
1189.462, 52.66852
1189.944, 77.69136
1190.426, 90.50842
1190.908, 76.74614
1191.390, 48.77309
1191.872, 24.39240
1192.354, 4.174210
1192.837, 10.21617
1193.319, 21.58296
1193.801, 21.21889
1194.283, 7.816101
1194.765, 43.41301
1195.247, 50.71654
1195.729, 69.55145
1196.211, 82.75746
1196.693, 77.55086
1197.176, 91.55838
1197.658, 76.64732
1198.140, 60.26334
1198.622, 74.31735
1199.104, 100.0954
1199.586, 113.5575
1200.068, 113.0443
1200.550, 98.12428
1201.033, 55.63455
1201.515, 27.51117
1201.997, 23.15121
1202.479, 30.60654
1202.961, 38.58020
1203.443, 44.22641
1203.925, 40.34128
1204.407, 25.21243
1204.890, 17.50343
1205.372, 24.52992
1205.854, 29.50761
1206.336, 24.20853
1206.818, 17.75537
1207.300, 33.51720
1207.782, 60.58250
1208.264, 76.49284
1208.746, 73.47368
1209.229, 68.20171
1209.711, 61.89827
1210.193, 56.95404
1210.675, 57.88672
1211.157, 58.73761
1211.639, 31.83231
1212.121, 6.887558
1212.603, 16.72264
1213.085, 50.07387
1213.568, 86.05615
1214.050, 57.42889
1214.532, 35.54967
1215.014, 85.69006
1215.496, 173.3440
1215.978, 183.4665
1216.460, 132.8938
1216.942, 94.45421
1217.425, 121.9688
1217.907, 128.3918
1218.389, 89.64130
1218.871, 43.31187
1219.353, 34.61900
1219.835, 53.07111
1220.317, 71.02203
1220.799, 86.86589
1221.281, 104.8053
1221.764, 133.0704
1222.246, 156.1779
1222.728, 176.7904
1223.210, 181.1221
1223.692, 126.7778
1224.174, 46.66350
1224.656, 12.47034
1225.138, 36.14774
1225.620, 71.05739
1226.103, 124.3621
1226.585, 153.4395
1227.067, 139.8608
1227.549, 100.6112
1228.031, 58.82104
1228.513, 23.99159
1228.995, 30.57060
1229.477, 99.14270
1229.960, 143.5341
1230.442, 121.8276
1230.924, 93.80424
1231.406, 88.43765
1231.888, 93.39880
1232.370, 56.39537
1232.852, 1.634750
1233.334, 0.4814220
1233.816, 0.0000000E+00
##END=



