##NAMES=Jordanite
##RRUFFID=R070723
##IDEAL CHEMISTRY=Pb^2+^_14_(As^3+^,Sb^3+^)_6_S^2-^_23_
##LOCALITY=Lengenbach quarry, Binntal, Wallis (Valais), Switzerland
##OWNER=RRUFF
##SOURCE=Michael Scott
##DESCRIPTION=Lead-gray metallic pseudohexagonal crystal in dolomite vug
##STATUS=The identification of this mineral has been confirmed by single-crystal X-ray diffraction.
##URL=rruff.info/R070723
141.2187, 0.0000000E+00
141.7008, 16.82227
142.1829, 25.28516
142.6650, 13.18555
143.1472, 0.4951170
143.6293, 6.909668
144.1114, 33.83496
144.5935, 51.74365
145.0756, 47.54785
145.5577, 29.81055
146.0399, 13.68311
146.5220, 1.577637
147.0041, 10.59326
147.4862, 9.866699
147.9683, 0.3081050
148.4504, 15.57080
148.9326, 31.94775
149.4147, 49.11328
149.8968, 71.06641
150.3789, 106.0605
150.8610, 141.4824
151.3431, 170.7451
151.8252, 192.3203
152.3074, 208.5576
152.7895, 221.3936
153.2716, 225.6777
153.7537, 238.2769
154.2358, 273.4980
154.7179, 310.5073
155.2001, 329.5957
155.6822, 322.2559
156.1643, 297.2144
156.6464, 280.9497
157.1285, 264.1304
157.6106, 269.6021
158.0928, 316.7891
158.5749, 384.0361
159.0570, 443.3374
159.5391, 478.0083
160.0212, 489.7339
160.5033, 494.5317
160.9855, 498.3306
161.4676, 490.7637
161.9497, 456.6650
162.4318, 405.7788
162.9139, 366.5664
163.3960, 365.1724
163.8782, 402.7422
164.3603, 406.1162
164.8424, 336.3164
165.3245, 265.6665
165.8066, 246.6021
166.2887, 281.3379
166.7709, 330.6338
167.2530, 360.7388
167.7351, 371.4785
168.2172, 379.1968
168.6993, 392.0391
169.1814, 400.0991
169.6636, 384.4443
170.1457, 336.1606
170.6278, 288.9258
171.1099, 283.6392
171.5920, 312.4849
172.0741, 343.1328
172.5563, 365.1802
173.0384, 379.7612
173.5205, 388.7134
174.0026, 387.9150
174.4847, 387.9092
174.9668, 402.0449
175.4490, 428.8452
175.9311, 448.8018
176.4132, 440.3745
176.8953, 404.6538
177.3774, 385.7852
177.8595, 407.6606
178.3417, 436.1821
178.8238, 450.1060
179.3059, 447.4741
179.7880, 438.6001
180.2701, 433.9893
180.7522, 433.9858
181.2344, 436.5127
181.7165, 438.7222
182.1986, 444.8008
182.6807, 459.0400
183.1628, 482.3813
183.6449, 510.2446
184.1271, 534.2393
184.6092, 549.0229
185.0913, 571.0845
185.5734, 613.3447
186.0555, 656.5889
186.5376, 681.4355
187.0198, 680.1685
187.5019, 664.3901
187.9840, 664.7583
188.4661, 702.9824
188.9482, 730.7856
189.4303, 732.3555
189.9125, 725.4077
190.3946, 733.2646
190.8767, 768.6650
191.3588, 823.3252
191.8409, 858.6333
192.3230, 849.6489
192.8052, 848.9268
193.2873, 872.4849
193.7694, 910.1196
194.2515, 942.2173
194.7336, 955.8467
195.2157, 954.1147
195.6979, 969.0337
196.1800, 1016.512
196.6621, 1060.228
197.1442, 1088.756
197.6263, 1102.995
198.1084, 1106.402
198.5906, 1098.742
199.0727, 1079.577
199.5548, 1072.943
200.0369, 1077.089
200.5190, 1093.701
201.0011, 1133.588
201.4833, 1193.438
201.9654, 1245.853
202.4475, 1270.998
202.9296, 1268.495
203.4117, 1258.867
203.8938, 1232.575
204.3760, 1205.488
204.8581, 1193.196
205.3402, 1197.352
205.8223, 1205.869
206.3044, 1211.269
206.7865, 1213.247
207.2687, 1210.274
207.7508, 1197.060
208.2329, 1180.817
208.7150, 1170.695
209.1971, 1167.503
209.6792, 1169.677
210.1614, 1185.538
210.6435, 1207.957
211.1256, 1217.837
211.6077, 1192.958
212.0898, 1152.215
212.5719, 1142.350
213.0541, 1181.268
213.5362, 1217.842
214.0183, 1216.454
214.5004, 1186.463
214.9825, 1148.203
215.4646, 1104.513
215.9468, 1059.686
216.4289, 1035.661
216.9110, 1046.392
217.3931, 1056.410
217.8752, 1045.952
218.3573, 1019.801
218.8395, 990.5044
219.3216, 960.3149
219.8037, 929.0127
220.2858, 912.0005
220.7679, 934.4648
221.2500, 947.1709
221.7322, 924.9580
222.2143, 873.3071
222.6964, 811.9702
223.1785, 748.8013
223.6606, 682.6382
224.1427, 646.2578
224.6249, 675.1255
225.1070, 701.5806
225.5891, 695.9355
226.0712, 662.5513
226.5533, 625.5312
227.0354, 608.2402
227.5176, 614.9062
227.9997, 617.1426
228.4818, 607.3164
228.9639, 596.0527
229.4460, 594.9121
229.9281, 599.2705
230.4103, 590.6714
230.8924, 542.2104
231.3745, 436.1270
231.8566, 371.0747
232.3387, 380.4382
232.8208, 399.2139
233.3030, 394.8301
233.7851, 368.0845
234.2672, 342.5718
234.7493, 348.0662
235.2314, 402.1167
235.7135, 421.1179
236.1957, 377.7837
236.6778, 328.4111
237.1599, 303.2913
237.6420, 304.0149
238.1241, 313.4407
238.6062, 311.7371
239.0884, 293.5725
239.5705, 281.8911
240.0526, 279.5588
240.5347, 280.2383
241.0168, 279.6362
241.4989, 277.6875
241.9811, 278.2815
242.4632, 287.1011
242.9453, 311.0522
243.4274, 319.7942
243.9095, 309.7573
244.3916, 289.9924
244.8738, 258.6338
245.3559, 219.0347
245.8380, 185.7375
246.3201, 177.0508
246.8022, 203.9893
247.2843, 222.0330
247.7665, 225.7573
248.2486, 225.3918
248.7307, 231.9937
249.2128, 245.3674
249.6949, 251.2932
250.1770, 229.7578
250.6592, 163.7588
251.1413, 134.2383
251.6234, 168.2798
252.1055, 217.8833
252.5876, 255.1284
253.0697, 273.7979
253.5519, 272.0579
254.0340, 244.7788
254.5161, 182.7446
254.9982, 129.9985
255.4803, 73.72754
255.9624, 34.89600
256.4445, 44.51343
256.9267, 102.4661
257.4088, 159.8213
257.8909, 161.3459
258.3730, 89.24609
258.8551, 49.47754
259.3372, 71.81714
259.8194, 107.4041
260.3015, 114.6665
260.7836, 89.53491
261.2657, 57.92163
261.7478, 45.86182
262.2299, 57.42700
262.7121, 59.26270
263.1942, 40.18921
263.6763, 18.35938
264.1584, 10.67261
264.6405, 18.21777
265.1227, 26.96582
265.6048, 23.05078
266.0869, 5.294189
266.5690, 4.939697
267.0511, 9.5210001E-03
267.5332, 7.714111
268.0154, 7.121582
268.4975, 2.292480
268.9796, 12.67871
269.4617, 18.21362
269.9438, 18.52344
270.4259, 15.86426
270.9081, 8.317627
271.3902, 0.7895510
271.8723, 12.51514
272.3544, 26.11963
272.8365, 30.76465
273.3186, 13.73413
273.8008, 22.39722
274.2829, 44.29443
274.7650, 39.70532
275.2471, 29.51758
275.7292, 32.45923
276.2113, 47.50000
276.6935, 55.78223
277.1756, 41.26685
277.6577, 7.503174
278.1398, 15.50415
278.6219, 25.26929
279.1040, 26.43457
279.5862, 19.73340
280.0683, 5.961670
280.5504, 10.20435
281.0325, 29.12695
281.5146, 47.06030
281.9967, 52.42993
282.4789, 38.04126
282.9610, 18.08838
283.4431, 5.059570
283.9252, 29.07446
284.4073, 38.47778
284.8894, 18.32495
285.3716, 19.05127
285.8537, 35.60083
286.3358, 26.40869
286.8179, 3.906006
287.3000, 33.61108
287.7821, 81.53516
288.2643, 121.5220
288.7464, 147.5261
289.2285, 157.6423
289.7106, 149.1943
290.1927, 112.3896
290.6748, 76.62769
291.1570, 48.71606
291.6391, 31.62695
292.1212, 39.16504
292.6033, 85.58057
293.0854, 147.5608
293.5675, 175.5732
294.0497, 159.5898
294.5318, 144.2178
295.0139, 149.6426
295.4960, 168.7405
295.9781, 185.8047
296.4602, 196.1824
296.9424, 201.6731
297.4245, 205.1831
297.9066, 207.4836
298.3887, 206.1716
298.8708, 191.6404
299.3529, 174.5986
299.8351, 176.2622
300.3172, 204.6899
300.7993, 243.9238
301.2814, 274.0857
301.7635, 296.0728
302.2456, 309.0039
302.7278, 309.1204
303.2099, 301.1047
303.6920, 289.0261
304.1741, 272.9919
304.6562, 258.6221
305.1383, 249.8813
305.6205, 246.1641
306.1026, 258.5117
306.5847, 320.9346
307.0668, 382.7173
307.5489, 376.1985
308.0310, 293.2183
308.5132, 209.1467
308.9953, 196.7720
309.4774, 260.6531
309.9595, 313.4988
310.4416, 352.0703
310.9237, 378.5596
311.4059, 392.0828
311.8880, 393.4548
312.3701, 389.6101
312.8522, 386.2954
313.3343, 382.2502
313.8164, 367.2625
314.2986, 318.3657
314.7807, 279.8813
315.2628, 286.7073
315.7449, 329.7317
316.2270, 369.7969
316.7091, 383.5950
317.1913, 374.5432
317.6734, 363.8403
318.1555, 339.7656
318.6376, 326.0454
319.1197, 336.6467
319.6018, 364.6206
320.0840, 396.8367
320.5661, 429.4578
321.0482, 456.8787
321.5303, 457.6072
322.0124, 410.1350
322.4945, 370.2419
322.9767, 342.3967
323.4588, 330.6733
323.9409, 348.6616
324.4230, 403.6108
324.9051, 472.4368
325.3872, 506.0376
325.8694, 475.3552
326.3515, 459.1721
326.8336, 479.3396
327.3157, 508.8201
327.7978, 514.9766
328.2799, 490.5835
328.7621, 461.1079
329.2442, 462.5671
329.7263, 513.7637
330.2084, 549.6675
330.6905, 551.3291
331.1726, 551.3025
331.6548, 579.7534
332.1369, 636.1277
332.6190, 689.2300
333.1011, 703.8433
333.5832, 669.8665
334.0653, 646.7900
334.5475, 639.6177
335.0296, 638.4907
335.5117, 643.6250
335.9938, 650.8149
336.4759, 651.9421
336.9580, 640.1260
337.4402, 615.6064
337.9223, 601.6609
338.4044, 600.7786
338.8865, 605.7993
339.3686, 624.4280
339.8507, 647.5896
340.3329, 660.0906
340.8150, 652.5151
341.2971, 629.5146
341.7792, 608.8660
342.2613, 580.8557
342.7434, 567.2002
343.2256, 584.6528
343.7077, 610.1489
344.1898, 619.0364
344.6719, 603.3782
345.1540, 572.5769
345.6361, 541.7493
346.1183, 492.4910
346.6004, 476.1211
347.0825, 530.7534
347.5646, 590.5662
348.0467, 599.2837
348.5288, 549.8779
349.0110, 487.5464
349.4931, 476.1558
349.9752, 536.8708
350.4573, 566.9062
350.9394, 530.1904
351.4215, 490.4683
351.9037, 474.8357
352.3858, 484.1782
352.8679, 505.6931
353.3500, 531.7329
353.8321, 560.3621
354.3142, 574.6482
354.7964, 568.3091
355.2785, 555.1707
355.7606, 540.0242
356.2427, 522.9160
356.7248, 502.6013
357.2069, 473.2615
357.6891, 441.7273
358.1712, 428.2334
358.6533, 439.8499
359.1354, 454.0894
359.6175, 464.7458
360.0996, 471.7722
360.5818, 475.5068
361.0639, 476.7759
361.5460, 472.8813
362.0281, 456.2646
362.5102, 424.5796
362.9923, 401.4395
363.4745, 406.5208
363.9566, 415.4988
364.4387, 401.5247
364.9208, 358.9844
365.4029, 315.8250
365.8850, 289.0413
366.3672, 278.3064
366.8493, 285.1479
367.3314, 320.9163
367.8135, 358.4377
368.2956, 366.6672
368.7777, 348.0281
369.2599, 331.1309
369.7420, 328.2629
370.2241, 335.8730
370.7062, 346.1604
371.1883, 353.6997
371.6704, 362.6230
372.1526, 382.3384
372.6347, 409.7771
373.1168, 426.1025
373.5989, 417.6431
374.0810, 405.6387
374.5631, 410.0908
375.0453, 429.4541
375.5274, 446.0593
376.0095, 448.3337
376.4916, 439.7874
376.9737, 436.8828
377.4558, 451.1653
377.9380, 457.4795
378.4201, 440.3845
378.9022, 409.5005
379.3843, 382.2192
379.8664, 364.9653
380.3485, 357.1270
380.8307, 360.1448
381.3128, 399.0659
381.7949, 401.9348
382.2770, 324.3242
382.7591, 229.7593
383.2412, 181.9600
383.7234, 191.4172
384.2055, 223.9504
384.6876, 240.5205
385.1697, 237.1550
385.6518, 234.7788
386.1339, 245.4622
386.6161, 246.0752
387.0982, 210.5459
387.5803, 153.0676
388.0624, 115.7656
388.5445, 133.7217
389.0266, 199.0164
389.5088, 224.6089
389.9909, 167.5076
390.4730, 117.2556
390.9551, 90.03125
391.4372, 77.79395
391.9193, 68.54102
392.4015, 56.91284
392.8836, 48.48511
393.3657, 56.93115
393.8478, 92.78247
394.3299, 119.2212
394.8120, 134.4111
395.2942, 137.1692
395.7763, 119.7170
396.2584, 83.37256
396.7405, 47.37964
397.2226, 32.63794
397.7047, 39.36816
398.1869, 43.38257
398.6690, 39.22217
399.1511, 37.08960
399.6332, 50.15186
400.1153, 70.86816
400.5974, 77.37671
401.0796, 47.74731
401.5617, 1.009766
402.0438, 33.56323
402.5259, 50.36719
403.0080, 48.80029
403.4901, 5.585449
403.9723, 51.23657
404.4544, 76.34375
404.9365, 48.85425
405.4186, 10.24634
405.9007, 9.437256
406.3828, 11.63989
406.8650, 0.3662110
407.3471, 31.04175
407.8292, 64.59985
408.3113, 68.24194
408.7934, 37.66992
409.2755, 6.859375
409.7577, 20.99023
410.2398, 40.19775
410.7219, 38.46777
411.2040, 13.67627
411.6861, 16.75244
412.1682, 37.40112
412.6504, 47.27417
413.1325, 45.95190
413.6146, 12.68823
414.0967, 12.53247
414.5788, 2.496582
415.0609, 46.18750
415.5431, 80.51318
416.0252, 80.69629
416.5073, 55.70093
416.9894, 47.83765
417.4715, 81.22705
417.9536, 103.0012
418.4358, 102.2456
418.9179, 90.41064
419.4000, 77.82544
419.8821, 68.49390
420.3642, 61.32056
420.8463, 54.07788
421.3285, 44.62280
421.8106, 41.32422
422.2927, 49.28101
422.7748, 58.54907
423.2569, 65.00586
423.7390, 68.44434
424.2212, 70.19141
424.7033, 70.33228
425.1854, 69.35278
425.6675, 74.54663
426.1496, 100.7454
426.6317, 106.3997
427.1139, 50.73853
427.5960, 23.38770
428.0781, 58.69556
428.5602, 28.55371
429.0423, 27.61841
429.5244, 64.68579
430.0066, 82.46265
430.4887, 91.59912
430.9708, 95.17163
431.4529, 90.27783
431.9350, 70.35986
432.4171, 34.06982
432.8993, 7.564697
433.3814, 10.88794
433.8635, 30.45728
434.3456, 40.88184
434.8277, 37.96606
435.3098, 32.62915
435.7920, 33.35620
436.2741, 40.25122
436.7562, 49.30225
437.2383, 72.91357
437.7204, 87.13940
438.2025, 66.34741
438.6847, 23.21899
439.1668, 3.604004
439.6489, 6.708008
440.1310, 39.83789
440.6131, 57.19824
441.0952, 34.10059
441.5774, 28.83740
442.0595, 65.14502
442.5416, 108.6055
443.0237, 125.2791
443.5058, 110.9185
443.9879, 86.80615
444.4701, 77.28809
444.9522, 85.74243
445.4343, 84.49854
445.9164, 63.79370
446.3985, 43.12817
446.8806, 21.47437
447.3628, 5.510986
447.8449, 8.971436
448.3270, 44.30249
448.8091, 92.90649
449.2912, 103.9302
449.7733, 59.85815
450.2555, 26.86646
450.7376, 33.47144
451.2197, 50.70093
451.7018, 56.07227
452.1839, 46.56445
452.6660, 38.35889
453.1482, 47.91699
453.6303, 70.22388
454.1124, 82.56641
454.5945, 77.93579
455.0766, 72.70947
455.5587, 89.56909
456.0409, 118.7534
456.5230, 128.3330
457.0051, 93.43164
457.4872, 49.71411
457.9693, 27.89355
458.4514, 25.68018
458.9336, 29.05664
459.4156, 31.77905
459.8978, 33.62207
460.3799, 39.94897
460.8620, 60.04541
461.3441, 72.14282
461.8262, 61.47778
462.3083, 42.78198
462.7905, 30.11157
463.2726, 26.56348
463.7547, 29.20532
464.2368, 35.33276
464.7189, 44.95947
465.2010, 63.38477
465.6832, 110.9448
466.1653, 144.8198
466.6474, 140.0779
467.1295, 114.3152
467.6116, 96.69214
468.0938, 102.7727
468.5759, 122.7417
469.0580, 134.3767
469.5401, 136.5435
470.0222, 129.7905
470.5043, 102.4805
470.9865, 74.78442
471.4686, 60.51025
471.9507, 59.59375
472.4328, 62.10474
472.9149, 56.15869
473.3970, 46.12183
473.8792, 53.18652
474.3613, 87.48828
474.8434, 110.6101
475.3255, 77.98511
475.8076, 19.07886
476.2897, 3.581543
476.7719, 42.14209
477.2540, 93.50317
477.7361, 102.4617
478.2182, 82.08472
478.7003, 74.48999
479.1824, 96.85742
479.6646, 127.0430
480.1467, 128.9028
480.6288, 91.29175
481.1109, 60.13037
481.5930, 26.61035
482.0751, 8.838623
482.5573, 37.04297
483.0394, 98.06421
483.5215, 138.4170
484.0036, 115.4705
484.4857, 42.31030
484.9678, 6.726318
485.4500, 48.18262
485.9321, 71.95386
486.4142, 55.20166
486.8963, 28.65283
487.3784, 21.26953
487.8605, 37.76294
488.3427, 61.62646
488.8248, 75.84790
489.3069, 80.34033
489.7890, 77.86743
490.2711, 65.35156
490.7532, 51.44116
491.2354, 31.97583
491.7175, 11.48096
492.1996, 5.763428
492.6817, 28.36865
493.1638, 61.20093
493.6459, 86.31372
494.1281, 103.6724
494.6102, 110.0171
495.0923, 100.7156
495.5744, 83.72144
496.0565, 74.40063
496.5386, 75.92188
497.0208, 69.05469
497.5029, 32.12671
497.9850, 4.080322
498.4671, 2.626953
498.9492, 35.76099
499.4313, 81.14380
499.9135, 112.1750
500.3956, 128.2690
500.8777, 123.9390
501.3598, 67.72144
501.8419, 28.94092
502.3240, 34.56299
502.8062, 56.20557
503.2883, 58.63306
503.7704, 32.51294
504.2525, 0.9497070
504.7346, 3.001221
505.2167, 26.08154
505.6989, 43.62695
506.1810, 36.40942
506.6631, 31.61816
507.1452, 52.28979
507.6273, 84.57300
508.1094, 95.96460
508.5916, 63.41235
509.0737, 15.55957
509.5558, 10.64844
510.0379, 15.60327
510.5200, 10.59448
511.0021, 4.509033
511.4843, 23.34009
511.9664, 35.88745
512.4485, 41.94604
512.9306, 48.90161
513.4127, 59.09351
513.8948, 68.96606
514.3770, 74.93628
514.8591, 77.04639
515.3412, 77.72974
515.8233, 78.75879
516.3054, 76.51001
516.7875, 77.80029
517.2697, 69.75415
517.7518, 62.50391
518.2339, 56.76245
518.7160, 52.08569
519.1981, 46.05957
519.6802, 39.12256
520.1624, 37.01343
520.6445, 49.51660
521.1266, 77.32764
521.6087, 92.56812
522.0908, 87.74707
522.5729, 81.00830
523.0551, 84.12524
523.5372, 89.77930
524.0193, 84.50000
524.5014, 59.14941
524.9835, 33.78613
525.4656, 31.52832
525.9478, 48.03979
526.4299, 60.90063
526.9120, 64.57959
527.3941, 62.60742
527.8762, 57.88672
528.3583, 50.31299
528.8405, 43.07495
529.3226, 35.69800
529.8047, 29.39624
530.2868, 24.72339
530.7689, 21.74927
531.2510, 21.76880
531.7332, 25.93604
532.2153, 30.30811
532.6974, 24.01367
533.1795, 5.967773
533.6616, 22.69849
534.1437, 19.40552
534.6259, 9.364990
535.1080, 1.956299
535.5901, 3.701904
536.0722, 15.11865
536.5543, 42.14966
537.0364, 76.28955
537.5186, 88.48779
538.0007, 73.61060
538.4828, 56.25391
538.9649, 41.34131
539.4470, 31.27954
539.9291, 30.37988
540.4113, 40.44971
540.8934, 50.15112
541.3755, 53.80127
541.8576, 53.64819
542.3397, 55.08545
542.8218, 58.26758
543.3040, 53.47876
543.7861, 29.37354
544.2682, 9.805908
544.7503, 26.94116
545.2324, 7.224609
545.7145, 12.84180
546.1967, 34.08936
546.6788, 48.03101
547.1609, 39.27100
547.6430, 7.834229
548.1251, 23.50513
548.6072, 28.07227
549.0894, 4.896729
549.5715, 14.35498
550.0536, 32.42578
550.5357, 42.45044
551.0178, 32.85474
551.4999, 17.90088
551.9821, 19.87891
552.4642, 49.14282
552.9463, 79.95532
553.4284, 85.35791
553.9105, 71.62842
554.3926, 65.40405
554.8748, 73.99878
555.3569, 81.61768
555.8390, 70.68237
556.3211, 41.94849
556.8032, 23.20483
557.2853, 20.50757
557.7675, 21.28027
558.2496, 17.80981
558.7317, 14.23340
559.2138, 20.03613
559.6959, 38.25220
560.1780, 59.77026
560.6602, 70.06982
561.1423, 65.80322
561.6244, 63.71313
562.1065, 65.93872
562.5886, 68.06445
563.0707, 70.46631
563.5529, 71.72925
564.0350, 68.69531
564.5171, 57.98511
564.9992, 48.56055
565.4813, 57.47656
565.9634, 82.96997
566.4456, 94.57031
566.9277, 80.29810
567.4098, 58.58154
567.8919, 53.84814
568.3740, 64.22046
568.8561, 62.84644
569.3383, 29.04663
569.8204, 3.528076
570.3025, 12.69214
570.7846, 3.353027
571.2667, 14.18945
571.7488, 35.81519
572.2310, 55.21729
572.7131, 61.56177
573.1952, 48.58472
573.6773, 41.94312
574.1594, 44.32104
574.6415, 49.96606
575.1237, 58.67383
575.6058, 68.57568
576.0879, 76.33667
576.5700, 79.95044
577.0521, 81.72485
577.5342, 86.47412
578.0164, 94.28809
578.4985, 97.46655
578.9806, 89.99951
579.4627, 79.89868
579.9448, 77.03027
580.4269, 80.51538
580.9091, 83.45532
581.3912, 84.58179
581.8733, 85.15381
582.3554, 83.53906
582.8375, 81.38354
583.3196, 82.77026
583.8018, 89.56787
584.2839, 97.63770
584.7660, 99.65771
585.2481, 93.63232
585.7302, 87.10352
586.2123, 79.85205
586.6945, 72.32715
587.1766, 64.43115
587.6587, 56.37256
588.1408, 48.30298
588.6229, 40.01465
589.1050, 32.68286
589.5872, 27.34448
590.0693, 24.05786
590.5514, 25.40503
591.0335, 33.03125
591.5156, 41.36719
591.9977, 46.27466
592.4799, 48.75000
592.9620, 52.89062
593.4441, 62.59985
593.9262, 70.24731
594.4083, 68.66309
594.8904, 62.22803
595.3726, 61.68188
595.8547, 70.65771
596.3368, 79.78735
596.8189, 73.07129
597.3010, 43.62622
597.7831, 31.24097
598.2653, 51.81885
598.7474, 73.63184
599.2295, 89.97583
599.7116, 100.2122
600.1937, 101.8577
600.6758, 91.89404
601.1580, 84.26367
601.6401, 102.6157
602.1222, 137.9353
602.6043, 147.2959
603.0864, 122.3665
603.5685, 87.23193
604.0507, 58.05200
604.5328, 35.52417
605.0149, 20.49463
605.4970, 9.732422
605.9791, 8.270752
606.4612, 32.76685
606.9434, 65.53589
607.4255, 77.56421
607.9076, 62.70923
608.3897, 41.41064
608.8718, 33.82495
609.3539, 39.72778
609.8361, 53.34766
610.3182, 86.76318
610.8003, 107.5913
611.2824, 95.59106
611.7645, 72.48340
612.2466, 59.70459
612.7288, 62.39087
613.2109, 66.96460
613.6930, 63.35181
614.1751, 55.99268
614.6572, 51.87085
615.1393, 51.75171
615.6215, 57.45874
616.1036, 71.71802
616.5857, 91.44043
617.0678, 105.7168
617.5499, 113.3101
618.0320, 117.0479
618.5142, 119.0454
618.9963, 115.6719
619.4784, 97.70483
619.9605, 70.52002
620.4426, 53.29712
620.9247, 62.35376
621.4069, 86.02441
621.8890, 92.91016
622.3711, 80.71118
622.8532, 64.53882
623.3353, 42.54590
623.8174, 23.93945
624.2996, 19.51392
624.7817, 28.32153
625.2638, 36.47437
625.7459, 40.29785
626.2280, 42.11304
626.7101, 46.46655
627.1923, 50.27368
627.6744, 42.35083
628.1565, 18.12061
628.6386, 9.026123
629.1207, 19.79248
629.6028, 12.45508
630.0850, 2.465820
630.5671, 34.72339
631.0492, 64.63721
631.5313, 92.78491
632.0134, 112.3867
632.4955, 110.1941
632.9777, 78.95923
633.4598, 43.67993
633.9419, 31.54883
634.4240, 35.34888
634.9061, 27.82080
635.3882, 3.261719
635.8704, 15.74707
636.3525, 10.22192
636.8346, 15.47510
637.3167, 33.24976
637.7988, 46.23999
638.2809, 48.39551
638.7631, 20.07422
639.2452, 7.218018
639.7273, 4.901611
640.2094, 52.30493
640.6915, 93.92651
641.1736, 96.24341
641.6558, 69.95312
642.1379, 51.55298
642.6200, 42.47485
643.1021, 36.86450
643.5842, 29.58569
644.0663, 24.84741
644.5485, 29.29614
645.0306, 44.90820
645.5127, 58.82153
645.9948, 67.63428
646.4769, 73.23438
646.9590, 74.80005
647.4412, 74.35693
647.9233, 77.07373
648.4054, 84.94653
648.8875, 95.06055
649.3696, 103.5107
649.8517, 110.6648
650.3339, 114.3579
650.8160, 119.5439
651.2981, 114.7224
651.7802, 87.50586
652.2623, 51.59839
652.7444, 25.62549
653.2266, 14.49561
653.7087, 11.85376
654.1908, 15.90186
654.6729, 24.11938
655.1550, 28.89258
655.6371, 29.59180
656.1193, 38.62573
656.6014, 67.66357
657.0835, 108.3313
657.5656, 128.3684
658.0477, 106.9558
658.5298, 92.80518
659.0120, 90.97949
659.4941, 92.46216
659.9762, 91.70190
660.4583, 88.65918
660.9404, 85.67017
661.4225, 84.25488
661.9047, 83.11865
662.3868, 82.41724
662.8689, 81.81787
663.3510, 68.10547
663.8331, 31.49683
664.3152, 2.580566
664.7974, 7.846436
665.2795, 14.89697
665.7616, 35.78784
666.2437, 60.29492
666.7258, 75.74683
667.2079, 75.56738
667.6901, 64.59424
668.1722, 41.77393
668.6543, 11.06055
669.1364, 8.352295
669.6185, 4.901855
670.1006, 44.96265
670.5828, 78.69385
671.0649, 109.7498
671.5470, 121.8027
672.0291, 94.05420
672.5112, 56.49512
672.9933, 44.53564
673.4755, 59.29370
673.9576, 73.61060
674.4397, 83.26953
674.9218, 86.54321
675.4039, 77.82227
675.8860, 61.98462
676.3682, 49.55005
676.8503, 44.67627
677.3324, 45.65332
677.8145, 51.83716
678.2966, 65.00537
678.7787, 69.29492
679.2609, 52.65845
679.7430, 41.67041
680.2251, 54.36133
680.7072, 75.46216
681.1893, 85.93115
681.6714, 82.26660
682.1536, 71.26562
682.6357, 45.39233
683.1178, 20.53101
683.5999, 25.40137
684.0820, 55.87329
684.5641, 77.68311
685.0463, 71.45166
685.5284, 49.00513
686.0105, 36.96387
686.4926, 34.68066
686.9747, 42.37451
687.4568, 85.90015
687.9390, 116.3860
688.4211, 91.25391
688.9032, 40.80713
689.3853, 28.26172
689.8674, 82.04028
690.3495, 144.3613
690.8317, 173.2573
691.3138, 173.4172
691.7959, 145.8389
692.2780, 92.41675
692.7601, 45.63525
693.2422, 28.63037
693.7244, 34.95679
694.2065, 45.03809
694.6886, 65.46680
695.1707, 78.80273
695.6528, 79.43726
696.1349, 78.02759
696.6171, 83.67041
697.0992, 92.27197
697.5813, 93.58667
698.0634, 80.79053
698.5455, 61.73560
699.0276, 45.46558
699.5098, 30.63940
699.9919, 7.693848
700.4740, 26.72681
700.9561, 48.86670
701.4382, 35.58008
701.9203, 8.451904
702.4025, 37.82910
702.8846, 47.39111
703.3667, 50.41235
703.8488, 43.92676
704.3309, 34.25757
704.8130, 23.08276
705.2952, 12.69678
705.7773, 7.892334
706.2594, 10.92554
706.7415, 21.64966
707.2236, 47.15820
707.7057, 83.02979
708.1879, 99.71997
708.6700, 88.41431
709.1521, 68.73120
709.6342, 57.15698
710.1163, 53.59790
710.5984, 57.12549
711.0806, 71.74146
711.5627, 87.71899
712.0448, 114.0681
712.5269, 133.7629
713.0090, 128.1799
713.4911, 100.0876
713.9733, 69.14087
714.4554, 44.59033
714.9375, 28.14868
715.4196, 24.83374
715.9017, 33.42407
716.3839, 45.15942
716.8660, 58.52271
717.3481, 72.97363
717.8302, 90.65796
718.3123, 112.6992
718.7944, 115.6838
719.2766, 83.95605
719.7587, 55.08887
720.2408, 33.59790
720.7229, 19.02612
721.2050, 10.23242
721.6871, 7.456787
722.1693, 12.72876
722.6514, 33.06396
723.1335, 57.71021
723.6156, 63.42749
724.0977, 53.12646
724.5798, 48.92505
725.0620, 57.07617
725.5441, 71.02295
726.0262, 86.78662
726.5083, 104.3088
726.9904, 105.1221
727.4725, 73.86450
727.9547, 48.82959
728.4368, 38.57251
728.9189, 35.24023
729.4010, 33.40918
729.8831, 31.80737
730.3652, 29.82886
730.8474, 26.39404
731.3295, 23.13623
731.8116, 18.42700
732.2937, 14.83252
732.7758, 30.94263
733.2579, 74.57275
733.7401, 114.2324
734.2222, 117.5527
734.7043, 85.98828
735.1864, 55.16284
735.6685, 13.94165
736.1506, 10.98755
736.6328, 5.152100
737.1149, 9.258545
737.5970, 13.19263
738.0791, 8.124512
738.5612, 9.876953
739.0433, 31.89673
739.5255, 57.98413
740.0076, 70.00220
740.4897, 70.79419
740.9718, 66.99512
741.4539, 60.09302
741.9360, 57.71704
742.4182, 68.46191
742.9003, 89.78638
743.3824, 99.54785
743.8645, 98.02319
744.3466, 83.93506
744.8287, 36.44580
745.3109, 5.112305
745.7930, 6.533203
746.2751, 22.55054
746.7572, 41.28149
747.2393, 25.65112
747.7214, 7.443359
748.2036, 14.23462
748.6857, 36.75171
749.1678, 60.37354
749.6499, 81.45386
750.1320, 94.17896
750.6141, 92.83691
751.0963, 81.90112
751.5784, 81.56372
752.0605, 102.0693
752.5426, 104.0957
753.0247, 59.69873
753.5068, 17.97729
753.9890, 14.91870
754.4711, 37.84229
754.9532, 51.12622
755.4353, 41.57910
755.9174, 32.09277
756.3995, 36.48438
756.8817, 46.08008
757.3638, 52.83765
757.8459, 54.54932
758.3280, 43.85840
758.8101, 15.64941
759.2922, 12.43018
759.7744, 2.384766
760.2565, 64.41968
760.7386, 96.57275
761.2207, 76.17065
761.7028, 56.24170
762.1849, 78.78784
762.6671, 124.0200
763.1492, 140.5742
763.6313, 115.8440
764.1134, 89.37793
764.5955, 65.99365
765.0776, 47.69385
765.5598, 34.72949
766.0419, 28.22974
766.5240, 34.16577
767.0061, 55.63110
767.4882, 74.30005
767.9703, 56.82788
768.4525, 13.05029
768.9346, 4.416016
769.4167, 39.38208
769.8988, 65.43555
770.3809, 53.14844
770.8630, 20.56934
771.3452, 2.719971
771.8273, 5.306885
772.3094, 6.526611
772.7915, 9.095703
773.2736, 7.375000
773.7557, 9.839355
774.2379, 28.61743
774.7200, 27.99243
775.2021, 3.838379
775.6842, 23.14648
776.1663, 40.74634
776.6484, 49.83032
777.1306, 47.43433
777.6127, 36.45532
778.0948, 30.56323
778.5769, 34.48657
779.0590, 47.44604
779.5411, 72.08594
780.0233, 109.2417
780.5054, 119.7615
780.9875, 80.41699
781.4696, 52.62354
781.9517, 57.18066
782.4338, 74.08301
782.9160, 92.14722
783.3981, 109.3442
783.8802, 118.1223
784.3623, 112.1609
784.8444, 101.0220
785.3265, 86.01489
785.8087, 71.87280
786.2908, 68.43872
786.7729, 75.51685
787.2550, 80.85376
787.7371, 74.39453
788.2192, 60.17505
788.7014, 48.96509
789.1835, 40.67944
789.6656, 36.86841
790.1477, 40.10278
790.6298, 42.78394
791.1119, 37.19019
791.5941, 25.98901
792.0762, 21.52539
792.5583, 25.73169
793.0404, 33.31836
793.5225, 55.26172
794.0046, 71.37280
794.4868, 58.55957
794.9689, 28.14282
795.4510, 8.658203
795.9331, 12.13721
796.4152, 31.22900
796.8973, 70.60303
797.3795, 117.2971
797.8616, 136.3186
798.3437, 126.1987
798.8258, 103.4424
799.3079, 73.04346
799.7900, 46.78125
800.2722, 49.28125
800.7543, 91.18213
801.2364, 111.8018
801.7185, 92.04883
802.2006, 76.80103
802.6827, 88.09277
803.1649, 105.6074
803.6470, 105.7358
804.1291, 86.95288
804.6112, 73.40210
805.0933, 80.53760
805.5754, 90.19458
806.0576, 86.51538
806.5397, 76.62646
807.0218, 77.05127
807.5039, 89.48608
807.9860, 95.99268
808.4681, 78.45044
808.9503, 44.90649
809.4324, 15.38770
809.9145, 11.41309
810.3966, 4.818115
810.8787, 57.11963
811.3608, 113.2625
811.8430, 102.8433
812.3251, 37.71436
812.8072, 5.774658
813.2893, 29.14038
813.7714, 52.46899
814.2535, 84.62500
814.7357, 103.3530
815.2178, 78.36450
815.6999, 30.44165
816.1820, 10.29614
816.6641, 41.46167
817.1462, 78.17090
817.6284, 84.70435
818.1105, 74.51636
818.5926, 71.02490
819.0747, 74.29321
819.5568, 70.56787
820.0389, 52.68286
820.5211, 37.27539
821.0032, 57.42749
821.4853, 117.2112
821.9674, 138.7341
822.4495, 102.7249
822.9316, 78.60962
823.4138, 106.1362
823.8959, 146.4766
824.3780, 146.0657
824.8601, 104.2744
825.3422, 70.72534
825.8243, 47.47876
826.3065, 37.34790
826.7886, 49.81763
827.2707, 70.52637
827.7528, 89.99170
828.2349, 103.2434
828.7170, 98.81445
829.1992, 60.13550
829.6813, 17.42383
830.1633, 16.32837
830.6454, 45.06958
831.1276, 68.92700
831.6097, 81.32178
832.0918, 76.34595
832.5739, 48.21265
833.0560, 11.19458
833.5381, 1.180908
834.0203, 27.23877
834.5024, 48.35571
834.9845, 61.61230
835.4666, 72.17578
835.9487, 84.33276
836.4308, 94.62500
836.9130, 98.08276
837.3951, 94.32495
837.8772, 84.34985
838.3593, 55.31543
838.8414, 33.61206
839.3235, 42.50659
839.8057, 65.96631
840.2878, 79.92822
840.7699, 79.03369
841.2520, 73.78125
841.7341, 72.14429
842.2162, 71.88037
842.6984, 68.82910
843.1805, 63.73975
843.6626, 61.11011
844.1447, 62.08521
844.6268, 62.47827
845.1089, 58.26416
845.5911, 50.99268
846.0732, 47.58081
846.5553, 48.23389
847.0374, 52.77588
847.5195, 70.02124
848.0016, 80.36401
848.4838, 66.81592
848.9659, 40.20776
849.4480, 22.13477
849.9301, 18.26025
850.4122, 10.21191
850.8943, 19.29199
851.3765, 42.71826
851.8586, 35.29590
852.3407, 10.41675
852.8228, 8.965576
853.3049, 16.19312
853.7870, 18.11646
854.2692, 18.24976
854.7513, 18.25586
855.2334, 23.46680
855.7155, 31.97412
856.1976, 32.65894
856.6797, 22.40161
857.1619, 12.40161
857.6440, 13.25024
858.1261, 22.90210
858.6082, 30.19995
859.0903, 33.96631
859.5724, 39.61890
860.0546, 51.26294
860.5367, 60.24341
861.0188, 59.21265
861.5009, 51.53589
861.9830, 44.61060
862.4651, 36.75781
862.9473, 37.09546
863.4294, 52.81616
863.9115, 65.76587
864.3936, 65.89673
864.8757, 59.60376
865.3578, 57.99097
865.8400, 63.49097
866.3221, 66.51538
866.8042, 54.92725
867.2863, 40.27588
867.7684, 38.89404
868.2505, 48.32690
868.7327, 55.69214
869.2148, 58.14697
869.6969, 68.24341
870.1790, 101.6814
870.6611, 143.6331
871.1432, 133.2405
871.6254, 60.47559
872.1075, 17.73999
872.5896, 24.37939
873.0717, 43.76538
873.5538, 57.06641
874.0359, 63.73047
874.5181, 61.03198
875.0002, 38.57495
875.4823, 30.06567
875.9644, 50.29541
876.4465, 68.20312
876.9286, 69.68799
877.4108, 61.69092
877.8929, 51.54541
878.3750, 40.79224
878.8571, 32.45947
879.3392, 27.18823
879.8214, 25.60059
880.3035, 28.11133
880.7856, 34.64526
881.2677, 49.05420
881.7498, 68.94312
882.2319, 79.89355
882.7141, 69.97998
883.1962, 52.72827
883.6783, 55.78638
884.1604, 75.00464
884.6425, 82.21826
885.1246, 73.80493
885.6068, 62.73364
886.0889, 54.81030
886.5710, 51.34888
887.0531, 55.32910
887.5352, 67.99927
888.0173, 81.97510
888.4995, 105.0542
888.9816, 116.1631
889.4637, 102.5735
889.9458, 78.66797
890.4279, 51.31445
890.9100, 22.79614
891.3922, 16.45679
891.8743, 63.25415
892.3564, 96.95166
892.8385, 87.74170
893.3206, 64.32007
893.8027, 45.48535
894.2849, 35.27271
894.7670, 37.08862
895.2491, 54.02979
895.7312, 73.59326
896.2133, 91.38037
896.6954, 101.0037
897.1776, 86.03271
897.6597, 52.84985
898.1418, 23.13940
898.6239, 4.947266
899.1060, 0.4448240
899.5881, 12.21655
900.0703, 37.32446
900.5524, 46.09424
901.0345, 37.30981
901.5166, 40.43945
901.9987, 64.90796
902.4808, 92.42456
902.9630, 109.7385
903.4451, 117.2998
903.9272, 117.0320
904.4093, 110.1802
904.8914, 93.06152
905.3735, 40.48340
905.8557, 5.605713
906.3378, 29.95850
906.8199, 75.63281
907.3020, 83.37915
907.7841, 43.38013
908.2662, 20.99219
908.7484, 52.19238
909.2305, 78.10620
909.7126, 65.43237
910.1947, 38.84863
910.6768, 22.33984
911.1589, 19.27490
911.6411, 24.91846
912.1232, 38.37695
912.6053, 55.85059
913.0874, 76.54517
913.5695, 98.63892
914.0516, 117.6328
914.5338, 131.9619
915.0159, 129.7488
915.4980, 105.3262
915.9801, 71.94312
916.4622, 44.86353
916.9443, 24.53174
917.4265, 16.21729
917.9086, 20.50073
918.3907, 24.11743
918.8728, 24.23047
919.3549, 17.18311
919.8370, 4.288330
920.3192, 35.29541
920.8013, 41.16089
921.2834, 9.405029
921.7655, 17.66675
922.2476, 37.45581
922.7297, 50.91797
923.2119, 59.02515
923.6940, 60.97021
924.1761, 51.85620
924.6582, 25.99097
925.1403, 14.45532
925.6224, 31.77734
926.1046, 52.65234
926.5867, 74.25366
927.0688, 88.58032
927.5509, 84.82886
928.0330, 64.65698
928.5151, 41.50732
928.9973, 12.42529
929.4794, 2.771240
929.9615, 24.87573
930.4436, 65.42017
930.9257, 81.75488
931.4078, 74.57837
931.8900, 58.42578
932.3721, 40.13770
932.8542, 23.07446
933.3363, 7.058350
933.8184, 3.346924
934.3005, 11.27417
934.7827, 45.13989
935.2648, 56.56006
935.7469, 34.02588
936.2290, 11.14624
936.7111, 19.48608
937.1932, 48.58643
937.6754, 60.22168
938.1575, 51.77222
938.6396, 47.93628
939.1217, 53.02075
939.6038, 57.93774
940.0859, 58.64038
940.5681, 57.04980
941.0502, 56.47656
941.5323, 56.89893
942.0144, 58.74683
942.4965, 68.30103
942.9786, 70.29004
943.4608, 52.56055
943.9429, 33.60449
944.4250, 29.47632
944.9071, 37.59644
945.3892, 44.40576
945.8713, 45.00488
946.3535, 49.25366
946.8356, 74.27393
947.3177, 89.52954
947.7998, 52.63086
948.2819, 0.5273440
948.7640, 3.896240
949.2462, 80.77759
949.7283, 135.6177
950.2104, 81.83081
950.6925, 12.46143
951.1746, 22.67456
951.6567, 68.46582
952.1389, 68.38892
952.6210, 22.45947
953.1031, 1.767822
953.5852, 39.99268
954.0673, 94.17114
954.5494, 76.00806
955.0316, 16.40771
955.5137, 9.246094
955.9958, 52.41113
956.4779, 93.44116
956.9600, 112.8845
957.4421, 113.8787
957.9243, 95.20679
958.4064, 63.58911
958.8885, 51.60400
959.3706, 60.30737
959.8527, 72.29785
960.3348, 88.05444
960.8170, 88.47217
961.2991, 55.16040
961.7812, 7.212891
962.2633, 8.488281
962.7454, 18.08936
963.2275, 30.46948
963.7097, 19.01294
964.1918, 12.09375
964.6739, 22.63599
965.1560, 37.42896
965.6381, 42.72681
966.1202, 39.23926
966.6024, 36.80811
967.0845, 35.98877
967.5666, 35.53271
968.0487, 32.79053
968.5308, 32.71289
969.0129, 46.55737
969.4951, 61.36719
969.9772, 49.16577
970.4593, 2.444580
970.9414, 21.15674
971.4235, 14.40234
971.9056, 57.61963
972.3878, 96.98730
972.8699, 119.2656
973.3520, 98.61743
973.8341, 47.18555
974.3162, 11.76270
974.7983, 14.92017
975.2805, 27.24438
975.7626, 29.35034
976.2447, 26.02686
976.7268, 21.37378
977.2089, 16.35767
977.6910, 10.07593
978.1732, 1.646973
978.6553, 0.5729980
979.1374, 15.01733
979.6195, 35.55298
980.1016, 42.86182
980.5837, 39.13696
981.0659, 26.07715
981.5480, 6.579834
982.0301, 3.317871
982.5122, 4.730713
982.9943, 21.81836
983.4764, 37.28491
983.9586, 50.53662
984.4407, 58.79736
984.9228, 62.08521
985.4049, 53.43896
985.8870, 29.06836
986.3691, 14.21021
986.8513, 33.14697
987.3334, 70.17651
987.8155, 76.41260
988.2976, 46.27246
988.7797, 20.26343
989.2618, 1.761475
989.7440, 14.05713
990.2261, 14.01514
990.7082, 3.125244
991.1903, 21.33228
991.6724, 58.22266
992.1545, 69.53394
992.6367, 33.64966
993.1188, 16.04932
993.6009, 38.67993
994.0830, 62.81104
994.5651, 67.52783
995.0472, 57.59058
995.5294, 39.31763
996.0115, 6.635986
996.4936, 7.764160
996.9757, 10.07349
997.4578, 29.92285
997.9399, 49.07739
998.4221, 62.58398
998.9042, 61.82471
999.3863, 51.70679
999.8684, 51.61719
1000.351, 75.76489
1000.833, 84.28247
1001.315, 43.75684
1001.797, 8.514160
1002.279, 22.80078
1002.761, 55.69824
1003.243, 60.60742
1003.725, 34.68530
1004.207, 14.76025
1004.690, 16.37866
1005.172, 28.73804
1005.654, 51.74194
1006.136, 77.31836
1006.618, 104.2920
1007.100, 125.5488
1007.582, 122.6726
1008.064, 91.12939
1008.547, 65.72974
1009.029, 84.51172
1009.511, 110.1616
1009.993, 105.2651
1010.475, 79.88525
1010.957, 40.77734
1011.439, 2.218994
1011.921, 22.34668
1012.403, 4.661377
1012.886, 23.81714
1013.368, 33.73486
1013.850, 33.98706
1014.332, 40.45508
1014.814, 51.78125
1015.296, 63.36230
1015.778, 73.29883
1016.260, 77.45996
1016.742, 72.39502
1017.225, 63.09839
1017.707, 54.08813
1018.189, 48.31226
1018.671, 61.14404
1019.153, 88.91064
1019.635, 91.23804
1020.117, 52.58252
1020.599, 11.58203
1021.082, 7.673340
1021.564, 29.38232
1022.046, 38.77417
1022.528, 36.81226
1023.010, 40.50171
1023.492, 52.42969
1023.974, 51.91211
1024.456, 25.29248
1024.938, 1.172363
1025.421, 16.24487
1025.903, 72.38403
1026.385, 101.7925
1026.867, 102.4546
1027.349, 92.68823
1027.831, 72.64282
1028.313, 59.28076
1028.795, 64.96362
1029.278, 82.29663
1029.760, 87.87988
1030.242, 80.03662
1030.724, 74.00586
1031.206, 68.38892
1031.688, 70.27051
1032.170, 85.10742
1032.652, 102.4441
1033.135, 116.5579
1033.617, 124.8950
1034.099, 112.5090
1034.581, 64.63110
1035.063, 39.97314
1035.545, 47.51929
1036.027, 61.60864
1036.509, 78.49609
1036.991, 91.09253
1037.474, 87.57910
1037.956, 70.71997
1038.438, 70.37671
1038.920, 104.0920
1039.402, 119.9807
1039.884, 102.9614
1040.366, 85.04443
1040.848, 81.93921
1041.330, 84.29150
1041.813, 78.93848
1042.295, 65.41846
1042.777, 54.22534
1043.259, 33.14941
1043.741, 32.42773
1044.223, 84.30811
1044.705, 126.2412
1045.187, 110.0596
1045.670, 66.93506
1046.152, 54.68335
1046.634, 77.92871
1047.116, 97.61475
1047.598, 116.7021
1048.080, 120.9009
1048.562, 95.26343
1049.044, 65.56299
1049.526, 45.65332
1050.009, 36.62573
1050.491, 41.94727
1050.973, 68.37842
1051.455, 80.07129
1051.937, 55.27686
1052.419, 35.27856
1052.901, 33.82349
1053.383, 43.96484
1053.865, 70.92358
1054.348, 102.8267
1054.830, 103.6726
1055.312, 48.37793
1055.794, 19.58423
1056.276, 65.51904
1056.758, 109.0659
1057.240, 107.9966
1057.722, 90.39136
1058.205, 86.18530
1058.687, 94.94165
1059.169, 101.0784
1059.651, 98.64697
1060.133, 98.44019
1060.615, 106.6443
1061.097, 114.9739
1061.579, 125.3450
1062.062, 128.7551
1062.544, 106.8335
1063.026, 64.53735
1063.508, 38.25220
1063.990, 48.13916
1064.472, 59.25049
1064.954, 55.25610
1065.436, 51.33472
1065.918, 64.82544
1066.401, 80.86475
1066.883, 68.55615
1067.365, 29.61328
1067.847, 14.40210
1068.329, 64.17236
1068.811, 105.7551
1069.293, 96.82129
1069.775, 76.28174
1070.257, 76.90308
1070.740, 89.35669
1071.222, 96.14502
1071.704, 94.36450
1072.186, 91.62549
1072.668, 101.0469
1073.150, 96.68506
1073.632, 44.38916
1074.114, 6.898682
1074.597, 12.67212
1075.079, 13.04639
1075.561, 44.68286
1076.043, 75.73364
1076.525, 93.70117
1077.007, 84.87451
1077.489, 72.11646
1077.971, 67.99097
1078.453, 64.05029
1078.936, 43.87500
1079.418, 20.58228
1079.900, 28.31860
1080.382, 74.64282
1080.864, 102.5598
1081.346, 62.36768
1081.828, 27.24170
1082.310, 48.41602
1082.792, 81.81030
1083.275, 87.13525
1083.757, 70.12817
1084.239, 50.21680
1084.721, 31.93481
1085.203, 17.16992
1085.685, 3.794678
1086.167, 2.218750
1086.649, 4.071777
1087.131, 17.71167
1087.614, 45.05762
1088.096, 73.28027
1088.578, 69.68872
1089.060, 23.49536
1089.542, 11.11621
1090.024, 9.094482
1090.506, 6.198242
1090.988, 35.23242
1091.471, 61.42432
1091.953, 68.61938
1092.435, 60.25732
1092.917, 44.76929
1093.399, 22.53442
1093.881, 9.023682
1094.363, 17.03027
1094.845, 26.31299
1095.328, 26.10034
1095.810, 23.57178
1096.292, 22.75903
1096.774, 25.92212
1097.256, 39.45508
1097.738, 67.50537
1098.220, 85.07178
1098.702, 73.15625
1099.184, 63.01685
1099.667, 78.97314
1100.149, 93.21143
1100.631, 68.30444
1101.113, 23.94165
1101.595, 17.86157
1102.077, 72.49097
1102.559, 93.64087
1103.041, 21.47827
1103.523, 40.76147
1104.006, 57.94287
1104.488, 47.23999
1104.970, 6.360107
1105.452, 46.56323
1105.934, 69.27588
1106.416, 49.22632
1106.898, 37.17212
1107.380, 45.41577
1107.863, 58.06519
1108.345, 77.83618
1108.827, 93.27417
1109.309, 90.94849
1109.791, 78.65112
1110.273, 76.14404
1110.755, 87.98242
1111.237, 94.63306
1111.719, 96.67236
1112.202, 90.21484
1112.684, 67.11621
1113.166, 42.29468
1113.648, 19.68018
1114.130, 4.398438
1114.612, 11.18848
1115.094, 48.01489
1115.576, 70.54980
1116.058, 71.53467
1116.541, 69.39404
1117.023, 66.12573
1117.505, 61.78784
1117.987, 57.39526
1118.469, 51.36108
1118.951, 38.87109
1119.433, 17.50146
1119.915, 8.119629
1120.398, 18.28687
1120.880, 24.62573
1121.362, 22.60205
1121.844, 16.70190
1122.326, 5.406006
1122.808, 3.733398
1123.290, 4.043945
1123.772, 29.67065
1124.255, 52.99487
1124.737, 77.87744
1125.219, 86.06396
1125.701, 68.40674
1126.183, 51.08325
1126.665, 47.84790
1127.147, 54.84277
1127.629, 70.08643
1128.111, 91.69873
1128.594, 77.91138
1129.076, 18.13770
1129.558, 3.152588
1130.040, 31.67651
1130.522, 69.02710
1131.004, 84.14355
1131.486, 81.08887
1131.968, 61.04297
1132.450, 29.09888
1132.933, 15.32104
1133.415, 18.72632
1133.897, 27.01514
1134.379, 38.93677
1134.861, 47.03613
1135.343, 47.78491
1135.825, 48.15601
1136.307, 56.51465
1136.790, 60.28198
1137.272, 75.47144
1137.754, 76.50293
1138.236, 84.05591
1138.718, 96.83789
1139.200, 94.14819
1139.682, 69.44067
1140.164, 42.78296
1140.646, 32.21021
1141.129, 30.71265
1141.611, 23.21777
1142.093, 15.07349
1142.575, 24.38672
1143.057, 46.01562
1143.539, 56.97021
1144.021, 52.03320
1144.503, 44.71338
1144.985, 41.86206
1145.468, 47.59888
1145.950, 80.05054
1146.432, 115.0322
1146.914, 106.9719
1147.396, 73.82324
1147.878, 62.90454
1148.360, 78.69800
1148.842, 88.19531
1149.325, 73.44434
1149.807, 54.25928
1150.289, 38.69360
1150.771, 33.32373
1151.253, 60.44971
1151.735, 91.96167
1152.217, 75.87183
1152.699, 24.78027
1153.182, 6.667969
1153.664, 52.15210
1154.146, 87.46021
1154.628, 61.99390
1155.110, 35.10205
1155.592, 47.75439
1156.074, 69.11938
1156.556, 68.46021
1157.038, 50.01709
1157.521, 27.37085
1158.003, 0.8044430
1158.485, 7.420898
1158.967, 41.44116
1159.449, 73.63989
1159.931, 52.01294
1160.413, 23.64307
1160.895, 20.14819
1161.377, 29.34326
1161.860, 34.24707
1162.342, 36.23828
1162.824, 35.36523
1163.306, 21.64575
1163.788, 17.52466
1164.270, 34.31860
1164.752, 45.81470
1165.234, 36.24463
1165.717, 19.03931
1166.199, 9.437256
1166.681, 8.644775
1167.163, 23.09766
1167.645, 60.14941
1168.127, 81.70752
1168.609, 84.19019
1169.091, 78.30151
1169.573, 66.33447
1170.056, 55.00537
1170.538, 51.40137
1171.020, 52.36719
1171.502, 48.67749
1171.984, 40.55103
1172.466, 27.17969
1172.948, 9.733398
1173.430, 19.01172
1173.912, 61.77563
1174.395, 93.23584
1174.877, 80.28638
1175.359, 107.0083
1175.841, 66.63281
1176.323, 99.80225
1176.805, 84.13550
1177.287, 38.05396
1177.769, 22.65479
1178.252, 43.65308
1178.734, 73.99390
1179.216, 101.6077
1179.698, 113.2190
1180.180, 79.53857
1180.662, 39.91138
1181.144, 44.68872
1181.626, 68.27856
1182.109, 73.48315
1182.591, 64.56470
1183.073, 66.24487
1183.555, 83.89648
1184.037, 90.16650
1184.519, 51.69409
1185.001, 23.69727
1185.483, 50.26172
1185.965, 82.02808
1186.448, 76.53076
1186.930, 53.70630
1187.412, 46.71777
1187.894, 57.07593
1188.376, 63.56152
1188.858, 60.41553
1189.340, 56.66479
1189.822, 51.46094
1190.304, 48.38501
1190.787, 53.31323
1191.269, 56.67529
1191.751, 45.89600
1192.233, 27.50952
1192.715, 26.07422
1193.197, 46.67554
1193.679, 58.43750
1194.161, 56.57861
1194.644, 62.63062
1195.126, 86.77295
1195.608, 100.8750
1196.090, 85.18018
1196.572, 54.46826
1197.054, 31.96021
1197.536, 17.27075
1198.018, 4.491699
1198.500, 5.599121
1198.983, 9.381104
1199.465, 50.46899
1199.947, 81.67236
1200.429, 88.34546
1200.911, 82.59326
1201.393, 74.86621
1201.875, 65.71558
1202.357, 50.88208
1202.839, 37.82812
1203.322, 50.77002
1203.804, 79.18457
1204.286, 88.91553
1204.768, 75.07031
1205.250, 60.27002
1205.732, 57.01685
1206.214, 56.13525
1206.696, 41.25513
1207.179, 34.90991
1207.661, 77.47607
1208.143, 126.1292
1208.625, 119.5671
1209.107, 70.31982
1209.589, 29.39771
1210.071, 8.333008
1210.553, 1.631348
1211.036, 1.769775
1211.518, 9.094727
1212.000, 19.77612
1212.482, 30.57812
1212.964, 43.00220
1213.446, 53.53271
1213.928, 55.82861
1214.410, 50.56616
1214.892, 54.16650
1215.375, 77.01465
1215.857, 78.00781
1216.339, 43.96802
1216.821, 23.01489
1217.303, 36.81348
1217.785, 52.20825
1218.267, 35.66382
1218.749, 5.349121
1219.231, 5.932373
1219.714, 34.82104
1220.196, 70.69482
1220.678, 111.4211
1221.160, 134.0205
1221.642, 134.4993
1222.124, 127.3184
1222.606, 113.2754
1223.088, 96.04688
1223.571, 44.55127
1224.053, 1.295654
1224.535, 55.51807
1225.017, 80.58105
1225.499, 0.0000000E+00
##END=



