##NAMES=Joseite-A
##RRUFFID=R060963
##IDEAL CHEMISTRY=Bi_4_TeS_2_
##LOCALITY=Tanza mine, Potosi deptmartment, Bolivia
##OWNER=RRUFF
##SOURCE=Michael Scott
##DESCRIPTION=Hexagonal, metallic gray single crystal
##STATUS=The identification of this mineral is not yet confirmed.
##URL=rruff.info/R060963
112.8449, 0.0000000E+00
113.3271, 12.33698
113.8092, 16.13675
114.2913, 3.115234
114.7734, 2.433411
115.2555, 9.944168
115.7376, 27.39835
116.2198, 40.03943
116.7019, 40.42372
117.1840, 39.34163
117.6661, 40.34917
118.1482, 43.51308
118.6303, 48.97372
119.1124, 58.28406
119.5946, 69.53384
120.0767, 80.08331
120.5588, 86.91965
121.0409, 93.67371
121.5230, 102.8701
122.0051, 114.6018
122.4873, 129.2397
122.9694, 151.9911
123.4515, 178.6855
123.9336, 198.1465
124.4157, 198.8693
124.8979, 189.8999
125.3800, 183.7916
125.8621, 183.5932
126.3442, 185.6506
126.8263, 184.5707
127.3084, 180.9397
127.7905, 179.4242
128.2727, 187.8595
128.7548, 201.7611
129.2369, 207.8588
129.7190, 197.9786
130.2011, 180.6719
130.6832, 176.9364
131.1654, 187.9747
131.6475, 200.2854
132.1296, 199.3362
132.6117, 186.1108
133.0938, 170.8089
133.5759, 156.0307
134.0581, 141.8497
134.5402, 129.4279
135.0223, 118.8255
135.5044, 109.5827
135.9865, 100.3025
136.4686, 90.55295
136.9508, 84.25864
137.4329, 83.95547
137.9150, 90.16211
138.3971, 97.78799
138.8792, 108.3983
139.3613, 119.1431
139.8434, 122.3679
140.3256, 116.0153
140.8077, 107.2339
141.2898, 99.92004
141.7719, 94.74054
142.2540, 88.94388
142.7361, 81.36450
143.2183, 72.72382
143.7004, 68.37283
144.1825, 70.35266
144.6646, 74.15997
145.1467, 76.20065
145.6288, 73.81741
146.1110, 74.23941
146.5931, 80.17279
147.0752, 92.26495
147.5573, 99.13660
148.0394, 100.2669
148.5215, 96.48227
149.0037, 88.30258
149.4858, 67.51010
149.9679, 51.21286
150.4500, 43.81049
150.9321, 48.58316
151.4142, 51.35947
151.8964, 50.91150
152.3785, 48.71848
152.8606, 46.83157
153.3427, 44.67798
153.8248, 43.45535
154.3069, 43.73529
154.7890, 46.44055
155.2712, 48.79562
155.7533, 50.59485
156.2354, 51.81073
156.7175, 52.39658
157.1996, 54.68243
157.6817, 54.70123
158.1639, 49.94049
158.6460, 33.85306
159.1281, 21.41101
159.6102, 18.90106
160.0923, 23.99390
160.5744, 27.79657
161.0566, 24.60208
161.5387, 20.32574
162.0208, 19.28143
162.5029, 28.24951
162.9850, 35.47531
163.4671, 33.95123
163.9493, 24.74826
164.4314, 17.80661
164.9135, 20.78534
165.3956, 27.37378
165.8777, 31.08664
166.3598, 27.77405
166.8420, 22.32062
167.3241, 16.44690
167.8062, 10.15524
168.2883, 6.551147
168.7704, 10.83286
169.2525, 18.52438
169.7346, 22.88870
170.2168, 16.77100
170.6989, 7.815735
171.1810, 4.421234
171.6631, 7.651184
172.1452, 12.18759
172.6273, 14.68152
173.1095, 15.47815
173.5916, 14.72736
174.0737, 9.942841
174.5558, 4.623108
175.0379, 4.126343
175.5201, 10.21301
176.0022, 16.86508
176.4843, 16.05118
176.9664, 9.903778
177.4485, 5.851837
177.9306, 10.55774
178.4128, 19.98453
178.8949, 27.40247
179.3770, 32.09662
179.8591, 33.75815
180.3412, 29.92914
180.8233, 21.41452
181.3055, 14.32080
181.7876, 14.89331
182.2697, 20.31418
182.7518, 22.73349
183.2339, 19.28186
183.7160, 13.43115
184.1982, 11.34952
184.6803, 12.97476
185.1624, 15.90927
185.6445, 18.85541
186.1266, 21.65213
186.6087, 23.47437
187.0908, 22.95529
187.5730, 21.89352
188.0551, 25.90714
188.5372, 35.51105
189.0193, 45.39484
189.5014, 50.16766
189.9835, 50.32620
190.4657, 50.21848
190.9478, 51.30023
191.4299, 53.13910
191.9120, 53.70645
192.3941, 52.76752
192.8762, 51.68918
193.3584, 52.11542
193.8405, 54.02899
194.3226, 56.21036
194.8047, 58.12350
195.2868, 59.86743
195.7689, 63.04193
196.2511, 68.60052
196.7332, 73.15488
197.2153, 70.00183
197.6974, 58.28738
198.1795, 49.43640
198.6616, 49.05969
199.1438, 57.28455
199.6259, 65.71780
200.1080, 75.09311
200.5901, 83.13010
201.0722, 84.38782
201.5543, 77.30685
202.0364, 71.70898
202.5186, 74.10938
203.0007, 85.92166
203.4828, 91.57925
203.9649, 88.68301
204.4470, 81.49728
204.9291, 80.56848
205.4113, 88.36130
205.8934, 95.09225
206.3755, 95.24692
206.8576, 87.53888
207.3397, 80.67734
207.8218, 74.59720
208.3040, 69.83475
208.7861, 68.50195
209.2682, 71.62924
209.7503, 74.91455
210.2324, 75.85410
210.7145, 73.56168
211.1967, 73.88437
211.6788, 78.25217
212.1609, 84.92709
212.6430, 89.42551
213.1251, 91.23578
213.6072, 91.89941
214.0894, 92.42841
214.5715, 93.16788
215.0536, 92.31708
215.5357, 88.34848
216.0178, 82.67068
216.4999, 82.44775
216.9820, 90.24371
217.4642, 99.08658
217.9463, 104.1924
218.4284, 103.4843
218.9105, 104.8506
219.3926, 110.4178
219.8747, 119.0589
220.3569, 123.2353
220.8390, 120.1756
221.3211, 117.4566
221.8032, 121.1834
222.2853, 134.9193
222.7674, 143.8557
223.2496, 145.9031
223.7317, 141.8528
224.2138, 137.9523
224.6959, 132.5315
225.1780, 129.3016
225.6601, 131.8409
226.1423, 143.5347
226.6244, 154.0475
227.1065, 162.3917
227.5886, 168.5564
228.0707, 170.5488
228.5528, 166.4386
229.0350, 160.1855
229.5171, 155.3833
229.9992, 152.3472
230.4813, 150.1812
230.9634, 149.1147
231.4455, 149.1632
231.9276, 148.7872
232.4098, 150.0101
232.8919, 148.5909
233.3740, 139.2678
233.8561, 114.2435
234.3382, 96.31407
234.8203, 92.01929
235.3025, 102.0315
235.7846, 106.6408
236.2667, 104.3040
236.7488, 97.96370
237.2309, 90.17702
237.7130, 79.56941
238.1952, 70.18607
238.6773, 62.71278
239.1594, 57.20728
239.6415, 53.19540
240.1236, 51.41945
240.6057, 50.42624
241.0879, 48.54642
241.5700, 44.79237
242.0521, 42.07959
242.5342, 41.77167
243.0163, 44.36024
243.4984, 43.80725
243.9806, 37.97423
244.4627, 30.45064
244.9448, 25.12982
245.4269, 22.04469
245.9090, 21.38176
246.3911, 24.24338
246.8732, 31.14861
247.3554, 34.27092
247.8375, 32.12938
248.3196, 27.58054
248.8017, 23.64214
249.2838, 20.49799
249.7659, 17.65718
250.2481, 14.60950
250.7302, 11.13734
251.2123, 10.49701
251.6944, 15.02318
252.1765, 20.18655
252.6586, 20.40962
253.1408, 12.37495
253.6229, 6.140869
254.1050, 5.045685
254.5871, 9.698730
255.0692, 9.823273
255.5513, 3.141403
256.0334, 5.700775
256.5156, 11.78758
256.9977, 14.60666
257.4798, 15.64679
257.9619, 15.23674
258.4440, 13.33139
258.9261, 9.990631
259.4083, 3.524078
259.8904, 2.474152
260.3725, 2.873596
260.8546, 6.343536
261.3367, 11.69016
261.8188, 8.562454
262.3010, 3.458862
262.7831, 10.96304
263.2652, 12.59282
263.7473, 11.39304
264.2294, 10.72029
264.7115, 11.36728
265.1937, 10.13684
265.6758, 4.965927
266.1579, 3.941986
266.6400, 7.169510
267.1221, 2.377808
267.6042, 4.454712
268.0864, 6.061325
268.5685, 3.7369002E-02
269.0506, 2.683228
269.5327, 1.862885
270.0148, 13.05350
270.4969, 19.37155
270.9791, 19.72920
271.4612, 17.40385
271.9433, 15.74722
272.4254, 15.19087
272.9075, 13.48276
273.3896, 8.841827
273.8718, 2.105423
274.3539, 0.8013150
274.8360, 6.546127
275.3181, 13.68028
275.8002, 16.95848
276.2823, 16.08344
276.7645, 13.31187
277.2466, 8.578323
277.7287, 2.241913
278.2108, 4.324448
278.6929, 12.10078
279.1750, 17.02692
279.6572, 12.99599
280.1393, 0.8405150
280.6214, 9.855911
281.1035, 9.513336
281.5856, 2.507782
282.0677, 0.5872190
282.5499, 0.5876770
283.0320, 3.760223
283.5141, 8.378830
283.9962, 14.39038
284.4783, 16.58992
284.9604, 12.52385
285.4425, 4.833359
285.9247, 1.949371
286.4068, 4.203323
286.8889, 7.613159
287.3710, 9.497086
287.8531, 9.897980
288.3352, 8.966537
288.8174, 6.176727
289.2995, 2.662979
289.7816, 0.8173680
290.2637, 0.6790310
290.7458, 1.789536
291.2279, 5.176041
291.7101, 9.975754
292.1922, 11.74153
292.6743, 8.933899
293.1564, 4.115784
293.6385, 1.449631
294.1206, 0.8792570
294.6028, 1.339737
295.0849, 1.880722
295.5670, 2.877899
296.0491, 6.005859
296.5312, 12.39990
297.0133, 18.87932
297.4955, 20.34090
297.9776, 17.44655
298.4597, 14.03358
298.9418, 12.76865
299.4239, 12.58888
299.9060, 10.99358
300.3882, 7.125885
300.8703, 3.725769
301.3524, 5.107254
301.8345, 9.983047
302.3166, 13.93060
302.7987, 13.25243
303.2809, 10.65175
303.7630, 9.739517
304.2451, 10.98152
304.7272, 13.80966
305.2093, 19.04028
305.6914, 25.39857
306.1736, 29.32462
306.6557, 26.80751
307.1378, 22.27707
307.6199, 20.27849
308.1020, 21.26073
308.5841, 23.31038
309.0663, 26.41393
309.5484, 29.47968
310.0305, 30.58853
310.5126, 27.25998
310.9947, 22.87399
311.4768, 19.83328
311.9590, 18.27499
312.4411, 17.27472
312.9232, 16.81097
313.4053, 16.46559
313.8874, 15.53532
314.3695, 11.54620
314.8517, 8.772415
315.3337, 11.29628
315.8159, 18.89821
316.2980, 23.63846
316.7801, 19.23407
317.2622, 11.88229
317.7443, 7.095947
318.2264, 9.297668
318.7086, 11.53746
319.1907, 10.19760
319.6728, 7.030243
320.1549, 6.771378
320.6370, 13.99837
321.1191, 22.01291
321.6013, 26.33080
322.0834, 22.08777
322.5655, 18.44333
323.0476, 17.66240
323.5297, 18.99408
324.0118, 19.15631
324.4940, 14.79643
324.9761, 11.74510
325.4582, 12.85301
325.9403, 24.18889
326.4224, 30.91443
326.9045, 29.25092
327.3867, 22.35559
327.8688, 17.72942
328.3509, 18.28815
328.8330, 18.70906
329.3151, 16.72639
329.7972, 9.060120
330.2794, 6.038475
330.7615, 10.58149
331.2436, 18.83712
331.7257, 23.91399
332.2078, 24.17943
332.6899, 23.66786
333.1721, 23.57910
333.6542, 24.33099
334.1363, 23.35370
334.6184, 19.45088
335.1005, 14.87479
335.5826, 12.50856
336.0648, 12.82618
336.5469, 13.08395
337.0290, 13.06799
337.5111, 13.34353
337.9932, 13.20382
338.4753, 11.20387
338.9575, 9.323631
339.4396, 9.923706
339.9217, 13.50428
340.4038, 16.59670
340.8859, 18.50969
341.3680, 19.34119
341.8502, 20.09747
342.3323, 21.15049
342.8144, 21.32715
343.2965, 19.27567
343.7786, 15.05830
344.2607, 15.30782
344.7429, 22.80374
345.2250, 33.25827
345.7071, 36.78291
346.1892, 33.24147
346.6713, 27.42533
347.1534, 20.37376
347.6355, 13.14396
348.1176, 10.73691
348.5998, 14.94674
349.0819, 21.07224
349.5640, 20.99281
350.0461, 15.87808
350.5282, 12.55579
351.0103, 17.33747
351.4925, 25.51193
351.9746, 28.28146
352.4567, 24.49678
352.9388, 19.31402
353.4209, 17.20225
353.9030, 17.60158
354.3852, 19.08251
354.8673, 23.19762
355.3494, 26.67342
355.8315, 24.70158
356.3136, 17.36499
356.7957, 11.77947
357.2779, 16.12064
357.7600, 24.22426
358.2421, 28.04046
358.7242, 19.72232
359.2063, 11.11901
359.6884, 10.70421
360.1706, 16.83670
360.6527, 20.33714
361.1348, 12.65700
361.6169, 3.052864
362.0990, 1.000282
362.5811, 5.558228
363.0633, 12.76042
363.5454, 18.92299
364.0275, 23.57468
364.5096, 25.41160
364.9917, 20.61020
365.4738, 15.52605
365.9560, 13.44427
366.4381, 15.87541
366.9202, 18.86697
367.4023, 24.22192
367.8844, 29.48582
368.3665, 30.67085
368.8487, 22.14476
369.3308, 14.89096
369.8129, 11.89807
370.2950, 13.98428
370.7771, 15.62340
371.2592, 16.56570
371.7414, 17.23082
372.2235, 18.13819
372.7056, 20.09504
373.1877, 20.96758
373.6698, 20.69955
374.1519, 19.12782
374.6341, 13.46976
375.1162, 0.3293150
375.5983, 10.67211
376.0804, 10.09543
376.5625, 5.312424
377.0446, 15.36991
377.5267, 16.24308
378.0089, 11.24820
378.4910, 9.687531
378.9731, 11.88982
379.4552, 14.47447
379.9373, 15.47459
380.4194, 15.01082
380.9016, 14.49864
381.3837, 14.00957
381.8658, 13.50870
382.3479, 13.00558
382.8300, 12.45955
383.3121, 11.70763
383.7943, 9.748703
384.2764, 7.642380
384.7585, 8.384644
385.2406, 12.11373
385.7227, 16.40772
386.2048, 20.09913
386.6870, 22.53407
387.1691, 22.00856
387.6512, 14.60537
388.1333, 6.924881
388.6154, 7.131241
389.0975, 14.15543
389.5797, 21.30516
390.0618, 25.56665
390.5439, 27.16535
391.0260, 25.79881
391.5081, 19.76251
391.9902, 13.94068
392.4724, 10.82674
392.9545, 9.926758
393.4366, 10.02171
393.9187, 12.20725
394.4008, 14.09394
394.8829, 13.72945
395.3651, 9.741043
395.8472, 8.244408
396.3293, 13.85113
396.8114, 21.77103
397.2935, 26.27347
397.7756, 25.71176
398.2578, 22.37605
398.7399, 14.25174
399.2220, 0.6995620
399.7041, 5.507141
400.1862, 2.514572
400.6683, 12.76513
401.1505, 16.91827
401.6326, 10.71074
402.1147, 5.562729
402.5968, 1.520256
403.0789, 0.8119890
403.5610, 1.417084
404.0432, 10.65040
404.5253, 19.60133
405.0074, 24.74946
405.4895, 25.60942
405.9716, 24.82745
406.4537, 21.83516
406.9359, 18.22173
407.4180, 17.11858
407.9001, 18.80374
408.3822, 18.88022
408.8643, 13.86352
409.3464, 5.697861
409.8285, 5.685760
410.3106, 14.81768
410.7928, 23.47573
411.2749, 19.80824
411.7570, 7.292397
412.2391, 0.4537050
412.7212, 0.9481890
413.2033, 7.251991
413.6855, 14.24537
414.1676, 21.34675
414.6497, 25.66411
415.1318, 24.02287
415.6139, 18.95630
416.0960, 13.16438
416.5782, 5.463066
417.0603, 0.3105160
417.5424, 3.598061
418.0245, 11.78207
418.5066, 18.14175
418.9887, 19.49097
419.4709, 19.02455
419.9530, 18.55556
420.4351, 18.53994
420.9172, 16.83922
421.3993, 9.531662
421.8814, 1.861618
422.3636, 1.828987
422.8457, 3.321007
423.3278, 7.983467
423.8099, 10.52035
424.2920, 11.27305
424.7741, 11.77200
425.2563, 12.89568
425.7384, 13.03642
426.2205, 10.88309
426.7026, 3.290527
427.1847, 1.709145
427.6668, 10.04932
428.1490, 21.82239
428.6311, 26.65025
429.1132, 21.85108
429.5953, 16.92018
430.0774, 14.49700
430.5595, 14.39050
431.0417, 14.25976
431.5238, 14.07849
432.0059, 13.95667
432.4880, 14.08961
432.9701, 14.37387
433.4522, 13.75324
433.9344, 12.89310
434.4165, 12.43076
434.8986, 10.43604
435.3807, 7.233513
435.8628, 6.676025
436.3449, 15.13066
436.8271, 27.14888
437.3092, 30.31211
437.7913, 22.78648
438.2734, 13.25703
438.7555, 8.779457
439.2376, 8.130157
439.7197, 9.042633
440.2018, 10.32590
440.6840, 13.03247
441.1661, 20.31369
441.6482, 31.06321
442.1303, 37.49269
442.6124, 31.97365
443.0945, 22.79231
443.5767, 16.55818
444.0588, 16.56126
444.5409, 16.02483
445.0230, 11.23849
445.5051, 4.779877
445.9872, 2.039696
446.4694, 8.355270
446.9515, 14.23598
447.4336, 16.68134
447.9157, 15.08585
448.3978, 13.25612
448.8799, 10.26894
449.3621, 7.823524
449.8442, 7.433380
450.3263, 9.205597
450.8084, 13.14223
451.2905, 21.16754
451.7726, 30.99622
452.2548, 32.82483
452.7369, 24.57867
453.2190, 15.69564
453.7011, 11.13403
454.1832, 10.87471
454.6653, 13.33362
455.1475, 19.17255
455.6296, 25.41500
456.1117, 28.09116
456.5938, 27.58743
457.0759, 26.10789
457.5580, 23.41183
458.0402, 21.13459
458.5223, 21.48293
459.0044, 24.13062
459.4865, 25.53036
459.9686, 21.28852
460.4507, 14.91350
460.9329, 10.93134
461.4150, 11.05386
461.8971, 12.44471
462.3792, 15.00333
462.8613, 17.41853
463.3434, 17.15189
463.8256, 8.940964
464.3077, 1.438995
464.7898, 0.3988190
465.2719, 4.472206
465.7540, 7.822594
466.2361, 5.290642
466.7183, 2.057961
467.2004, 2.338783
467.6825, 12.53786
468.1646, 18.34779
468.6467, 16.49587
469.1288, 9.556793
469.6110, 6.343765
470.0930, 7.223221
470.5752, 11.14850
471.0573, 20.20660
471.5394, 36.60307
472.0215, 39.08710
472.5036, 23.44490
472.9857, 2.605980
473.4679, 7.306366
473.9500, 6.172615
474.4321, 4.590820
474.9142, 5.961075
475.3963, 7.960083
475.8784, 3.840424
476.3606, 5.910774
476.8427, 14.50374
477.3248, 15.93775
477.8069, 13.32024
478.2890, 12.06310
478.7711, 12.95296
479.2533, 14.49680
479.7354, 16.48516
480.2175, 17.95329
480.6996, 17.70804
481.1817, 12.43336
481.6638, 7.339279
482.1460, 6.143692
482.6281, 8.402687
483.1102, 9.570869
483.5923, 4.915756
484.0744, 0.8029250
484.5565, 1.666031
485.0387, 13.71593
485.5208, 21.18886
486.0029, 18.91531
486.4850, 12.56585
486.9671, 10.60970
487.4492, 16.87122
487.9314, 20.47715
488.4135, 17.53274
488.8956, 8.380257
489.3777, 7.009033
489.8598, 16.70786
490.3419, 26.70193
490.8241, 27.63996
491.3062, 18.94032
491.7883, 12.85645
492.2704, 10.96130
492.7525, 11.54731
493.2346, 12.09118
493.7168, 12.58305
494.1989, 13.15850
494.6810, 13.14602
495.1631, 13.01346
495.6452, 13.33073
496.1273, 14.11243
496.6095, 15.90238
497.0916, 20.35646
497.5737, 25.55658
498.0558, 29.21410
498.5379, 30.56951
499.0201, 30.55856
499.5022, 28.95917
499.9843, 26.40166
500.4664, 24.19451
500.9485, 23.75492
501.4306, 22.87997
501.9127, 20.30817
502.3948, 15.69553
502.8770, 12.14491
503.3591, 10.62432
503.8412, 9.758949
504.3233, 8.540298
504.8054, 5.873016
505.2875, 4.974373
505.7697, 6.341393
506.2518, 9.409943
506.7339, 13.64706
507.2160, 20.12591
507.6981, 23.32761
508.1802, 19.01088
508.6624, 8.628174
509.1445, 4.632217
509.6266, 7.584625
510.1087, 12.60497
510.5908, 15.87976
511.0729, 17.54240
511.5551, 17.99349
512.0372, 17.28333
512.5193, 15.45742
513.0014, 11.28825
513.4835, 5.919243
513.9656, 2.393372
514.4478, 3.825409
514.9299, 6.502373
515.4120, 7.296494
515.8941, 6.045563
516.3762, 6.149200
516.8583, 11.45009
517.3405, 17.22001
517.8226, 19.78710
518.3047, 14.03919
518.7868, 10.97971
519.2689, 13.95580
519.7510, 20.04174
520.2332, 23.41014
520.7153, 23.01178
521.1974, 21.40818
521.6795, 18.76814
522.1616, 15.09137
522.6437, 13.52405
523.1259, 14.91068
523.6080, 16.34553
524.0901, 14.78746
524.5722, 10.30773
525.0543, 7.983215
525.5364, 8.853256
526.0186, 10.82265
526.5007, 10.27820
526.9828, 7.863403
527.4649, 6.366074
527.9470, 7.269646
528.4291, 9.702194
528.9113, 13.42570
529.3934, 18.18504
529.8755, 21.82059
530.3576, 23.68668
530.8397, 23.41695
531.3218, 19.63362
531.8040, 10.60131
532.2861, 3.576889
532.7682, 2.377678
533.2503, 4.096931
533.7324, 5.137993
534.2145, 2.065582
534.6967, 0.5459370
535.1788, 2.444916
535.6609, 7.301735
536.1430, 10.27489
536.6251, 10.29916
537.1072, 10.11932
537.5894, 11.23995
538.0715, 13.77581
538.5536, 17.21703
539.0357, 22.28352
539.5178, 26.40841
539.9999, 24.99680
540.4821, 18.74688
540.9642, 14.10295
541.4463, 14.01907
541.9284, 15.40401
542.4105, 12.71406
542.8926, 6.672691
543.3748, 0.7418290
543.8569, 4.849442
544.3390, 8.084396
544.8211, 6.042282
545.3032, 2.149292
545.7853, 10.21602
546.2675, 16.26424
546.7495, 20.07576
547.2316, 21.43685
547.7137, 18.82605
548.1959, 15.47975
548.6780, 10.95535
549.1601, 6.000137
549.6422, 2.782600
550.1243, 2.387749
550.6064, 2.068558
551.0886, 0.1351620
551.5707, 3.589706
552.0528, 1.327377
552.5349, 9.231613
553.0170, 19.31550
553.4991, 20.09873
553.9813, 12.22526
554.4634, 5.796974
554.9455, 2.087959
555.4276, 0.4104160
555.9097, 0.1441270
556.3918, 0.5146710
556.8740, 2.701591
557.3561, 9.349586
557.8382, 15.72069
558.3203, 16.33050
558.8024, 11.97916
559.2845, 7.900803
559.7667, 6.857117
560.2488, 7.317299
560.7309, 7.511246
561.2130, 6.034325
561.6951, 6.828117
562.1772, 14.96425
562.6594, 24.04846
563.1415, 26.05768
563.6236, 13.32870
564.1057, 5.962029
564.5878, 8.826370
565.0699, 18.45571
565.5521, 22.15506
566.0342, 18.60171
566.5163, 13.89088
566.9984, 9.920456
567.4805, 6.966446
567.9626, 8.136742
568.4448, 13.83774
568.9269, 19.55476
569.4090, 20.84267
569.8911, 19.03922
570.3732, 16.82867
570.8553, 14.18513
571.3375, 12.80899
571.8196, 16.08348
572.3017, 21.59032
572.7838, 24.62331
573.2659, 21.97581
573.7480, 17.72043
574.2302, 11.85605
574.7123, 4.911163
575.1944, 2.413658
575.6765, 11.15881
576.1586, 19.60164
576.6407, 21.99346
577.1229, 15.47671
577.6050, 11.89286
578.0871, 12.66061
578.5692, 14.55176
579.0513, 13.36452
579.5334, 8.644585
580.0156, 4.981209
580.4977, 3.337479
580.9798, 3.103844
581.4619, 3.426605
581.9440, 4.199379
582.4261, 4.659050
582.9083, 3.430237
583.3904, 2.097847
583.8725, 3.668495
584.3546, 7.981262
584.8367, 11.13570
585.3188, 9.873764
585.8010, 6.848923
586.2831, 4.147041
586.7652, 1.464020
587.2473, 0.7227780
587.7294, 3.647675
588.2115, 8.389496
588.6937, 12.52684
589.1758, 18.53492
589.6579, 19.91618
590.1400, 12.86766
590.6221, 0.4550480
591.1042, 2.959793
591.5864, 5.431282
592.0685, 12.93204
592.5506, 11.28170
593.0327, 2.102242
593.5148, 1.034477
593.9969, 8.794312
594.4791, 17.30705
594.9612, 18.94360
595.4433, 15.95836
595.9254, 12.28819
596.4075, 7.939972
596.8896, 5.306137
597.3718, 8.289795
597.8539, 13.96486
598.3360, 17.47812
598.8181, 15.79413
599.3002, 12.94186
599.7823, 9.409798
600.2645, 5.695374
600.7466, 5.000633
601.2287, 11.32404
601.7108, 16.16426
602.1929, 15.51835
602.6750, 8.328972
603.1572, 7.017662
603.6393, 13.45631
604.1214, 20.44598
604.6035, 19.70668
605.0856, 11.65250
605.5677, 8.623100
606.0499, 13.74584
606.5320, 20.75321
607.0141, 19.80183
607.4962, 13.32419
607.9783, 8.255974
608.4604, 8.916306
608.9425, 11.26012
609.4246, 11.23714
609.9067, 9.954369
610.3889, 10.60648
610.8710, 18.44244
611.3531, 25.25575
611.8352, 26.23213
612.3173, 19.61324
612.7994, 13.62241
613.2816, 8.232269
613.7637, 3.883247
614.2458, 0.8502430
614.7279, 1.365585
615.2100, 0.4874110
615.6921, 5.431999
616.1743, 12.10244
616.6564, 10.84251
617.1385, 2.141769
617.6206, 4.943077
618.1027, 7.462326
618.5848, 6.676422
619.0670, 3.827019
619.5491, 0.6857990
620.0312, 5.020340
620.5133, 9.266861
620.9954, 12.13072
621.4775, 11.52751
621.9597, 7.099525
622.4418, 4.425468
622.9239, 7.615738
623.4060, 11.80093
623.8881, 13.54386
624.3702, 10.75391
624.8524, 8.539185
625.3345, 6.491287
625.8166, 5.334915
626.2987, 6.389488
626.7808, 10.14326
627.2629, 13.66757
627.7451, 16.23661
628.2272, 18.30867
628.7093, 22.43616
629.1914, 28.06347
629.6735, 29.77613
630.1556, 19.88332
630.6378, 6.753242
631.1199, 2.442757
631.6020, 6.538139
632.0841, 11.90583
632.5662, 16.05075
633.0483, 18.64303
633.5305, 19.08330
634.0126, 16.41739
634.4947, 14.27960
634.9768, 13.14944
635.4589, 12.97421
635.9410, 13.83020
636.4232, 16.68441
636.9053, 18.49976
637.3874, 18.81115
637.8695, 18.07746
638.3516, 16.73241
638.8337, 14.64516
639.3159, 14.21473
639.7980, 17.21513
640.2801, 21.85296
640.7622, 24.68680
641.2443, 25.68488
641.7264, 24.45886
642.2086, 18.30769
642.6907, 11.34092
643.1728, 7.683479
643.6549, 7.761162
644.1370, 8.864471
644.6191, 10.79714
645.1013, 12.73959
645.5834, 14.09411
646.0655, 14.64246
646.5476, 14.78675
647.0297, 14.35637
647.5118, 13.64440
647.9940, 12.62165
648.4761, 10.70353
648.9582, 11.35957
649.4403, 17.18385
649.9224, 24.49901
650.4045, 24.78202
650.8867, 18.86466
651.3688, 13.35825
651.8509, 11.18068
652.3330, 11.49794
652.8151, 14.63624
653.2972, 20.19711
653.7794, 25.07069
654.2615, 26.09486
654.7436, 23.99261
655.2257, 17.79547
655.7078, 5.444435
656.1899, 1.633690
656.6721, 0.7098620
657.1542, 6.287102
657.6363, 10.96303
658.1184, 15.04183
658.6005, 17.22003
659.0826, 16.96386
659.5648, 15.49815
660.0469, 15.09332
660.5290, 15.56464
661.0111, 13.77325
661.4932, 7.313896
661.9753, 0.5169070
662.4575, 0.8702470
662.9396, 6.356148
663.4217, 10.77850
663.9038, 9.474968
664.3859, 7.379677
664.8680, 8.142082
665.3502, 11.49443
665.8323, 13.63377
666.3144, 12.05811
666.7965, 10.44538
667.2786, 10.44629
667.7607, 12.26904
668.2429, 14.60138
668.7250, 17.51931
669.2071, 20.82284
669.6892, 26.29237
670.1713, 33.65060
670.6534, 31.27020
671.1355, 15.68305
671.6176, 0.8823470
672.0997, 1.367325
672.5818, 8.670158
673.0640, 17.41603
673.5461, 21.53947
674.0282, 22.45612
674.5103, 18.59029
674.9924, 12.80594
675.4745, 9.767509
675.9567, 15.70498
676.4388, 19.81675
676.9209, 17.46523
677.4030, 10.12164
677.8851, 5.527069
678.3672, 3.995926
678.8494, 4.639877
679.3315, 7.844543
679.8136, 13.28355
680.2957, 17.06300
680.7778, 19.04079
681.2599, 20.34097
681.7421, 22.24062
682.2242, 23.99323
682.7063, 24.01789
683.1884, 21.99663
683.6705, 19.20414
684.1526, 16.16101
684.6348, 12.99004
685.1169, 9.597946
685.5990, 2.778931
686.0811, 0.5142060
686.5632, 8.827530
687.0453, 20.47610
687.5275, 25.46574
688.0096, 20.93925
688.4917, 16.93401
688.9738, 15.51154
689.4559, 15.46115
689.9380, 12.40630
690.4202, 6.665916
690.9023, 4.299789
691.3844, 11.85688
691.8665, 22.38161
692.3486, 24.52750
692.8307, 19.63605
693.3129, 14.83205
693.7950, 15.37675
694.2771, 16.38640
694.7592, 13.72971
695.2413, 6.464226
695.7234, 2.443581
696.2056, 5.236877
696.6877, 9.549828
697.1698, 12.97871
697.6519, 15.96888
698.1340, 15.75291
698.6161, 11.15411
699.0983, 6.327461
699.5804, 6.801727
700.0625, 11.45009
700.5446, 13.94733
701.0267, 12.73621
701.5089, 10.70547
701.9910, 10.39112
702.4731, 11.50149
702.9552, 13.56026
703.4373, 17.95069
703.9194, 21.49608
704.4016, 23.37084
704.8837, 23.54156
705.3658, 21.66044
705.8479, 13.65558
706.3300, 9.757240
706.8121, 14.15470
707.2943, 24.33991
707.7764, 27.30899
708.2585, 22.11393
708.7406, 17.18414
709.2227, 20.05605
709.7048, 25.97002
710.1870, 17.91162
710.6691, 2.783669
711.1512, 17.20156
711.6333, 4.307907
712.1154, 15.03351
712.5975, 19.66145
713.0797, 5.202972
713.5618, 3.565491
714.0439, 7.012505
714.5260, 21.42535
715.0081, 28.63108
715.4902, 25.62788
715.9724, 22.32257
716.4545, 17.91845
716.9366, 14.62769
717.4187, 16.22901
717.9008, 22.34557
718.3829, 25.87139
718.8651, 25.31528
719.3472, 23.46882
719.8293, 24.46803
720.3114, 26.59513
720.7935, 26.32506
721.2756, 19.99702
721.7578, 13.75631
722.2399, 10.39567
722.7220, 9.082420
723.2041, 9.303520
723.6862, 12.64697
724.1683, 15.20048
724.6505, 15.50496
725.1326, 14.50502
725.6147, 16.23662
726.0968, 20.98727
726.5789, 26.84707
727.0610, 34.98904
727.5432, 42.90366
728.0253, 42.55373
728.5074, 34.81915
728.9895, 26.46063
729.4716, 20.78368
729.9537, 17.18473
730.4359, 16.69807
730.9180, 19.34420
731.4001, 18.64521
731.8822, 5.927658
732.3643, 4.946854
732.8464, 5.199776
733.3285, 9.027382
733.8106, 18.27480
734.2927, 22.08135
734.7748, 21.90768
735.2570, 15.85511
735.7391, 5.622307
736.2212, 5.947510
736.7033, 20.34543
737.1854, 34.37802
737.6675, 30.91370
738.1497, 18.15616
738.6318, 8.151749
739.1139, 4.489967
739.5960, 3.213844
740.0781, 3.589157
740.5602, 5.188141
741.0424, 7.568253
741.5245, 12.59445
742.0066, 14.84415
742.4887, 12.41854
742.9708, 7.987167
743.4529, 7.290573
743.9351, 10.36832
744.4172, 13.35069
744.8993, 15.37246
745.3814, 16.07764
745.8635, 13.61397
746.3456, 9.092430
746.8278, 6.498123
747.3099, 7.843414
747.7920, 11.60300
748.2741, 19.62984
748.7562, 30.44958
749.2383, 35.21463
749.7205, 29.42405
750.2026, 21.68999
750.6847, 13.47372
751.1668, 5.103073
751.6489, 1.457474
752.1310, 2.974243
752.6132, 5.926842
753.0953, 9.085564
753.5774, 11.74454
754.0595, 11.00674
754.5416, 7.094742
755.0237, 4.368774
755.5059, 6.840279
755.9880, 10.91918
756.4701, 13.86780
756.9522, 15.22562
757.4343, 16.09676
757.9164, 15.06490
758.3986, 15.08373
758.8807, 19.16521
759.3628, 29.56330
759.8449, 31.08500
760.3270, 21.21418
760.8091, 10.82053
761.2913, 13.72576
761.7734, 25.26137
762.2555, 29.56734
762.7376, 23.29868
763.2197, 15.71618
763.7018, 14.19887
764.1840, 15.77013
764.6661, 17.14374
765.1482, 18.68533
765.6303, 17.96191
766.1124, 12.19514
766.5945, 5.288971
767.0767, 1.574921
767.5588, 1.309891
768.0409, 3.765244
768.5230, 9.583206
769.0051, 15.35201
769.4872, 18.90193
769.9694, 19.95947
770.4515, 18.61839
770.9336, 13.33529
771.4157, 8.303085
771.8978, 9.207687
772.3799, 13.32253
772.8621, 15.91467
773.3442, 15.76720
773.8263, 13.61684
774.3084, 7.215691
774.7905, 0.5998000
775.2726, 2.080086
775.7548, 5.088531
776.2369, 10.30395
776.7190, 9.799896
777.2011, 5.912476
777.6832, 4.594139
778.1653, 5.309578
778.6475, 5.327141
779.1296, 0.3295590
779.6117, 3.646149
780.0938, 0.9115680
780.5759, 11.59216
781.0580, 18.56915
781.5402, 15.59586
782.0223, 11.83427
782.5044, 10.05783
782.9865, 10.10462
783.4686, 10.60975
783.9507, 11.65013
784.4329, 12.86983
784.9150, 13.81628
785.3971, 15.30064
785.8792, 19.54539
786.3613, 25.43607
786.8434, 28.76450
787.3256, 25.53590
787.8077, 19.55711
788.2898, 12.19768
788.7719, 3.828247
789.2540, 0.1302110
789.7361, 4.724266
790.2183, 11.24572
790.7004, 17.75480
791.1825, 24.86443
791.6646, 27.30285
792.1467, 24.15657
792.6288, 20.54968
793.1110, 20.76498
793.5930, 23.25647
794.0751, 24.22655
794.5573, 23.48101
795.0394, 20.72107
795.5215, 11.94402
796.0036, 3.734436
796.4857, 2.158714
796.9678, 9.535919
797.4500, 15.48164
797.9321, 19.12933
798.4142, 20.81494
798.8963, 20.04354
799.3784, 16.10434
799.8605, 15.44961
800.3427, 18.66989
800.8248, 21.69146
801.3069, 20.67416
801.7890, 16.74651
802.2711, 11.03437
802.7532, 3.156677
803.2354, 1.320969
803.7175, 4.581398
804.1996, 12.90612
804.6817, 16.65657
805.1638, 11.57952
805.6459, 9.918678
806.1281, 13.14194
806.6102, 17.94788
807.0923, 22.20965
807.5744, 25.92432
808.0565, 25.45419
808.5386, 19.93784
809.0208, 14.39631
809.5029, 14.40868
809.9850, 17.77274
810.4671, 21.57420
810.9492, 25.92098
811.4313, 27.98675
811.9135, 25.70530
812.3956, 21.08967
812.8777, 15.75654
813.3598, 8.046700
813.8419, 3.947701
814.3240, 4.855476
814.8062, 6.837311
815.2883, 4.612885
815.7704, 0.8374790
816.2525, 4.123268
816.7346, 4.524391
817.2167, 2.295570
817.6989, 5.068329
818.1810, 13.77473
818.6631, 18.80479
819.1452, 16.95988
819.6273, 15.87256
820.1094, 19.25395
820.5916, 22.69234
821.0737, 21.56674
821.5558, 14.25597
822.0379, 10.10109
822.5200, 10.55720
823.0021, 12.25617
823.4843, 10.67803
823.9664, 7.046295
824.4485, 4.590057
824.9306, 4.267998
825.4127, 4.217415
825.8948, 2.615288
826.3770, 0.8744200
826.8591, 0.5108950
827.3412, 1.878387
827.8233, 4.773880
828.3054, 10.04868
828.7875, 15.84674
829.2697, 20.88499
829.7518, 25.20097
830.2339, 23.69097
830.7160, 14.47769
831.1981, 4.832832
831.6802, 3.972252
832.1624, 7.788353
832.6445, 9.664009
833.1266, 6.537842
833.6087, 4.956444
834.0908, 8.760490
834.5729, 14.14045
835.0551, 17.08836
835.5372, 16.62106
836.0193, 16.56200
836.5014, 17.56198
836.9835, 17.87299
837.4656, 14.14915
837.9478, 8.005882
838.4299, 3.367599
838.9120, 0.9403310
839.3941, 2.9372999E-02
839.8762, 0.1259310
840.3583, 1.397285
840.8405, 4.525139
841.3226, 13.88521
841.8047, 16.13741
842.2868, 5.660629
842.7689, 6.801643
843.2510, 9.885277
843.7332, 2.993507
844.2153, 2.458290
844.6974, 5.539558
845.1795, 7.784157
845.6616, 11.77648
846.1437, 16.18388
846.6259, 18.47099
847.1080, 17.39092
847.5901, 16.58060
848.0722, 16.93324
848.5543, 18.58114
849.0364, 22.14802
849.5186, 30.22578
850.0007, 32.00083
850.4828, 25.81596
850.9649, 17.63357
851.4470, 12.95645
851.9291, 11.19562
852.4113, 10.09225
852.8934, 9.368973
853.3755, 9.808075
853.8576, 13.39194
854.3397, 17.54079
854.8218, 20.20850
855.3040, 21.33110
855.7860, 19.77652
856.2681, 13.78410
856.7502, 7.496254
857.2324, 3.074554
857.7145, 0.5302430
858.1966, 3.094238
858.6787, 11.38115
859.1608, 18.12296
859.6429, 13.72184
860.1251, 5.853310
860.6072, 5.658356
861.0893, 14.67893
861.5714, 20.99385
862.0535, 17.04785
862.5356, 11.71833
863.0178, 10.53650
863.4999, 14.17506
863.9820, 13.40969
864.4641, 7.042709
864.9462, 1.705544
865.4283, 3.317688
865.9105, 9.111298
866.3926, 13.41542
866.8747, 15.92742
867.3568, 15.86501
867.8389, 8.554565
868.3210, 2.094009
868.8032, 2.780815
869.2853, 11.22089
869.7674, 15.46033
870.2495, 13.67284
870.7316, 11.26321
871.2137, 10.10516
871.6959, 10.34717
872.1780, 14.47173
872.6601, 21.77786
873.1422, 25.61816
873.6243, 18.03252
874.1064, 8.222206
874.5886, 4.980194
875.0707, 7.146851
875.5528, 8.822418
876.0349, 6.672058
876.5170, 6.210793
876.9991, 10.31501
877.4813, 16.76951
877.9634, 15.34369
878.4455, 5.920258
878.9276, 0.2747730
879.4097, 2.674034
879.8918, 9.937569
880.3740, 18.36320
880.8561, 26.08102
881.3382, 29.03541
881.8203, 21.89266
882.3024, 14.47018
882.7845, 7.775764
883.2667, 3.182236
883.7488, 4.053947
884.2309, 11.37052
884.7130, 19.41470
885.1951, 28.22708
885.6772, 34.48624
886.1594, 30.92399
886.6415, 21.00944
887.1236, 12.59196
887.6057, 8.287071
888.0878, 5.892242
888.5699, 5.635414
889.0521, 6.525795
889.5342, 6.447426
890.0163, 3.357201
890.4984, 3.783386
890.9805, 9.541039
891.4626, 16.13808
891.9448, 17.65546
892.4269, 15.22887
892.9090, 11.74957
893.3911, 7.044014
893.8732, 4.987465
894.3553, 12.30265
894.8375, 21.17295
895.3196, 23.52293
895.8017, 13.98664
896.2838, 9.894249
896.7659, 13.33459
897.2480, 18.42436
897.7302, 19.86523
898.2123, 18.75110
898.6944, 22.11122
899.1765, 29.77516
899.6586, 34.46417
900.1407, 27.84695
900.6229, 16.91174
901.1050, 7.445541
901.5871, 0.4543080
902.0692, 2.924171
902.5513, 1.057800
903.0334, 1.258759
903.5156, 1.193268
903.9977, 0.4369430
904.4798, 4.144402
904.9619, 14.61598
905.4440, 22.88348
905.9261, 21.61411
906.4083, 17.55676
906.8904, 18.12063
907.3725, 22.03701
907.8546, 23.28600
908.3367, 16.60522
908.8188, 11.24994
909.3010, 9.200493
909.7831, 10.13215
910.2652, 14.41363
910.7473, 22.02799
911.2294, 26.98136
911.7115, 26.66885
912.1937, 23.86376
912.6758, 20.65628
913.1579, 17.88286
913.6400, 16.50470
914.1221, 20.00385
914.6042, 21.22128
915.0864, 17.46922
915.5685, 11.95338
916.0506, 8.726662
916.5327, 7.907158
917.0148, 8.344872
917.4969, 10.28217
917.9790, 11.65749
918.4611, 8.412407
918.9432, 3.732819
919.4254, 3.129929
919.9075, 9.412544
920.3896, 13.28745
920.8717, 8.985558
921.3538, 3.448364
921.8359, 1.219925
922.3181, 2.613235
922.8002, 5.157509
923.2823, 9.055367
923.7644, 12.60313
924.2465, 15.13018
924.7286, 15.99023
925.2108, 12.36848
925.6929, 4.716927
926.1750, 0.6937480
926.6571, 8.531853
927.1392, 15.34684
927.6213, 13.79430
928.1035, 5.741364
928.5856, 5.816231
929.0677, 15.25208
929.5498, 22.61843
930.0319, 22.54707
930.5140, 17.86481
930.9962, 10.65494
931.4783, 2.425377
931.9604, 2.433594
932.4425, 0.6565930
932.9246, 3.864784
933.4067, 4.358185
933.8889, 3.776779
934.3710, 4.672577
934.8531, 7.060860
935.3352, 11.75934
935.8173, 20.26111
936.2994, 26.53628
936.7816, 19.06062
937.2637, 4.825165
937.7458, 4.183044
938.2279, 4.327477
938.7100, 1.162285
939.1921, 8.454529
939.6743, 16.58411
940.1564, 15.95637
940.6385, 4.072556
941.1206, 3.041222
941.6027, 14.46441
942.0848, 25.89987
942.5670, 25.89977
943.0491, 19.67359
943.5312, 13.42136
944.0133, 7.758980
944.4954, 4.339928
944.9775, 7.043617
945.4597, 8.629860
945.9418, 4.838646
946.4239, 2.944321
946.9060, 4.944016
947.3881, 0.9685360
947.8702, 4.944206
948.3524, 11.39282
948.8345, 18.38499
949.3166, 29.50713
949.7987, 41.06001
950.2808, 44.04053
950.7629, 23.59903
951.2451, 9.089577
951.7272, 8.552681
952.2093, 15.00496
952.6914, 18.57449
953.1735, 19.18819
953.6556, 19.19144
954.1378, 19.22106
954.6199, 17.46966
955.1020, 8.014542
955.5841, 2.467621
956.0662, 4.254951
956.5483, 7.780968
957.0305, 15.75922
957.5126, 14.61825
957.9947, 10.85915
958.4768, 7.101326
958.9589, 3.443703
959.4410, 6.495453
959.9232, 16.06544
960.4053, 24.75001
960.8874, 28.12136
961.3695, 27.29676
961.8516, 19.93225
962.3337, 8.136597
962.8159, 3.666466
963.2980, 14.47298
963.7801, 24.30925
964.2622, 30.03967
964.7443, 31.93715
965.2264, 28.95256
965.7086, 22.04675
966.1907, 17.77586
966.6728, 19.78989
967.1549, 21.94147
967.6370, 17.63662
968.1191, 11.03327
968.6013, 7.961670
969.0834, 13.86213
969.5655, 14.30556
970.0476, 5.816078
970.5297, 1.405815
971.0118, 7.242851
971.4940, 26.03781
971.9761, 30.96248
972.4582, 20.05262
972.9403, 10.09495
973.4224, 15.03410
973.9045, 22.50552
974.3867, 23.38443
974.8688, 17.14725
975.3509, 12.92854
975.8330, 11.11617
976.3151, 9.993355
976.7972, 8.561592
977.2794, 7.587906
977.7615, 9.195168
978.2436, 12.71200
978.7257, 16.06188
979.2078, 18.72385
979.6899, 20.57389
980.1720, 21.19720
980.6541, 21.13271
981.1362, 21.68228
981.6183, 23.52225
982.1005, 20.68530
982.5826, 11.15034
983.0647, 2.973274
983.5468, 9.159523
984.0289, 21.22023
984.5110, 25.43127
984.9932, 18.61543
985.4753, 13.12069
985.9574, 13.71696
986.4395, 15.55116
986.9216, 16.37766
987.4037, 16.34859
987.8859, 17.95205
988.3680, 21.12704
988.8501, 23.65945
989.3322, 24.67450
989.8143, 23.89802
990.2964, 19.60499
990.7786, 13.65315
991.2607, 11.75636
991.7428, 20.75433
992.2249, 24.51293
992.7070, 18.64411
993.1891, 9.814133
993.6713, 10.87833
994.1534, 19.12079
994.6355, 21.91090
995.1176, 16.06908
995.5997, 7.794731
996.0818, 2.753120
996.5640, 9.872559
997.0461, 7.238487
997.5282, 7.201187
998.0103, 20.01505
998.4924, 32.61653
998.9745, 38.95314
999.4567, 30.02483
999.9388, 13.77626
1000.421, 9.906639
1000.903, 15.93115
1001.385, 21.46999
1001.867, 20.50912
1002.349, 19.32704
1002.831, 21.12754
1003.314, 23.90754
1003.796, 22.91694
1004.278, 17.36540
1004.760, 14.82648
1005.242, 17.70483
1005.724, 21.90767
1006.206, 24.36195
1006.688, 24.48673
1007.171, 20.27715
1007.653, 8.277962
1008.135, 3.900146
1008.617, 13.50832
1009.099, 23.92757
1009.581, 27.61571
1010.063, 25.21214
1010.545, 19.39347
1011.027, 10.88790
1011.510, 6.024734
1011.992, 14.18508
1012.474, 22.09052
1012.956, 18.77289
1013.438, 7.800461
1013.920, 2.138710
1014.402, 4.216080
1014.884, 7.292717
1015.367, 10.62211
1015.849, 13.86526
1016.331, 17.07209
1016.813, 19.71957
1017.295, 20.27647
1017.777, 17.86549
1018.259, 16.27382
1018.741, 18.00842
1019.223, 20.15459
1019.706, 20.93719
1020.188, 20.34907
1020.670, 20.74564
1021.152, 22.21108
1021.634, 21.47212
1022.116, 12.36865
1022.598, 3.388596
1023.080, 6.547829
1023.563, 17.16888
1024.045, 21.33067
1024.527, 10.06335
1025.009, 2.045715
1025.491, 0.3449860
1025.973, 1.066284
1026.455, 5.165077
1026.937, 10.93719
1027.419, 14.47203
1027.901, 14.90540
1028.384, 14.56995
1028.866, 17.11520
1029.348, 18.06348
1029.830, 12.79871
1030.312, 1.466499
1030.794, 5.405762
1031.276, 7.701408
1031.758, 6.183640
1032.241, 0.8302540
1032.723, 9.476006
1033.205, 15.02962
1033.687, 17.67652
1034.169, 17.98441
1034.651, 11.50157
1035.133, 9.504211
1035.615, 16.54977
1036.098, 24.73590
1036.580, 22.09583
1037.062, 10.78086
1037.544, 6.781319
1038.026, 12.00397
1038.508, 17.56293
1038.990, 14.98315
1039.472, 11.80447
1039.954, 15.48922
1040.437, 25.69880
1040.919, 28.30563
1041.401, 21.01730
1041.883, 15.67319
1042.365, 17.38684
1042.847, 22.34363
1043.329, 24.52856
1043.811, 24.85537
1044.293, 25.37032
1044.776, 29.48653
1045.258, 28.81752
1045.740, 16.84576
1046.222, 5.018578
1046.704, 4.210167
1047.186, 13.90022
1047.668, 23.50523
1048.150, 32.54140
1048.633, 37.10647
1049.115, 30.69769
1049.597, 21.87642
1050.079, 16.06282
1050.561, 13.47461
1051.043, 12.62788
1051.525, 13.79365
1052.007, 15.92661
1052.490, 19.17805
1052.972, 22.39709
1053.454, 23.97027
1053.936, 23.98885
1054.418, 22.64291
1054.900, 20.46498
1055.382, 18.38227
1055.864, 13.22044
1056.346, 11.00660
1056.828, 17.89574
1057.311, 32.24164
1057.793, 32.68095
1058.275, 20.46368
1058.757, 10.05959
1059.239, 13.23232
1059.721, 18.67329
1060.203, 19.27789
1060.685, 16.50266
1061.168, 13.85570
1061.650, 10.98788
1062.132, 9.689110
1062.614, 9.914810
1063.096, 12.67242
1063.578, 23.52510
1064.060, 35.69634
1064.542, 36.94605
1065.025, 25.50122
1065.507, 16.49973
1065.989, 16.14882
1066.471, 17.23846
1066.953, 18.19298
1067.435, 18.48993
1067.917, 14.70226
1068.399, 7.987343
1068.881, 5.252296
1069.364, 11.57220
1069.846, 17.65047
1070.328, 17.08150
1070.810, 13.46968
1071.292, 10.86127
1071.774, 9.372795
1072.256, 8.628479
1072.738, 8.556221
1073.220, 9.764336
1073.703, 14.79249
1074.185, 19.98309
1074.667, 18.44539
1075.149, 12.19031
1075.631, 11.26257
1076.113, 25.52838
1076.595, 32.99953
1077.077, 28.07957
1077.559, 18.32520
1078.042, 17.53652
1078.524, 22.47111
1079.006, 22.23849
1079.488, 14.13963
1079.970, 6.109596
1080.452, 0.4168780
1080.934, 1.994446
1081.416, 0.3515550
1081.899, 4.934433
1082.381, 10.05160
1082.863, 14.97373
1083.345, 18.92012
1083.827, 22.30080
1084.309, 23.49936
1084.791, 18.90047
1085.273, 11.88257
1085.755, 7.952370
1086.238, 8.067375
1086.720, 11.06094
1087.202, 18.05415
1087.684, 24.22244
1088.166, 25.27977
1088.648, 22.35376
1089.130, 16.52073
1089.612, 8.820656
1090.094, 4.677406
1090.577, 7.815872
1091.059, 12.34497
1091.541, 18.64468
1092.023, 23.66812
1092.505, 19.16468
1092.987, 7.480232
1093.469, 0.6883620
1093.951, 1.445366
1094.434, 5.365456
1094.916, 13.84903
1095.398, 20.80766
1095.880, 20.12061
1096.362, 12.32240
1096.844, 10.75051
1097.326, 15.83162
1097.808, 19.31290
1098.291, 15.82294
1098.773, 11.22855
1099.255, 12.75659
1099.737, 17.57217
1100.219, 21.28210
1100.701, 24.54953
1101.183, 22.96005
1101.665, 14.35030
1102.147, 6.761505
1102.630, 10.23248
1103.112, 18.65622
1103.594, 17.89360
1104.076, 9.306183
1104.558, 3.078888
1105.040, 4.130318
1105.522, 7.563660
1106.004, 13.88368
1106.486, 20.01023
1106.969, 19.01205
1107.451, 12.47928
1107.933, 9.236687
1108.415, 11.04839
1108.897, 12.81137
1109.379, 10.29623
1109.861, 7.332077
1110.343, 6.560806
1110.826, 7.715218
1111.308, 8.662788
1111.790, 9.379700
1112.272, 10.71158
1112.754, 13.78864
1113.236, 16.01725
1113.718, 14.69958
1114.200, 10.90845
1114.682, 5.404961
1115.165, 4.370918
1115.647, 6.961563
1116.129, 0.6527710
1116.611, 7.532715
1117.093, 12.07352
1117.575, 13.42231
1118.057, 10.53845
1118.539, 5.232933
1119.021, 3.265846
1119.504, 11.14950
1119.986, 15.78757
1120.468, 14.41425
1120.950, 11.16864
1121.432, 12.40813
1121.914, 16.10741
1122.396, 14.10458
1122.878, 5.891350
1123.361, 0.2719120
1123.843, 5.151108
1124.325, 9.963486
1124.807, 9.508629
1125.289, 6.063248
1125.771, 6.524734
1126.253, 10.45548
1126.735, 12.73310
1127.218, 11.52658
1127.700, 10.66429
1128.182, 15.31937
1128.664, 19.99319
1129.146, 18.78503
1129.628, 11.60019
1130.110, 8.230652
1130.592, 9.036331
1131.074, 9.175896
1131.557, 4.222778
1132.039, 0.2213360
1132.521, 8.808571
1133.003, 21.52603
1133.485, 23.75365
1133.967, 4.506920
1134.449, 6.082642
1134.931, 7.382416
1135.413, 2.419304
1135.896, 11.63157
1136.378, 27.03467
1136.860, 28.52039
1137.342, 19.42995
1137.824, 12.43260
1138.306, 13.20703
1138.788, 15.93995
1139.270, 21.76599
1139.752, 26.40653
1140.235, 21.15575
1140.717, 10.63614
1141.199, 9.160149
1141.681, 18.09280
1142.163, 23.24190
1142.645, 13.00586
1143.127, 3.592186
1143.609, 1.212212
1144.092, 3.586578
1144.574, 5.832474
1145.056, 7.701187
1145.538, 6.997826
1146.020, 2.116966
1146.502, 0.6300740
1146.984, 5.098854
1147.466, 12.41518
1147.948, 17.03882
1148.431, 19.14257
1148.913, 16.90382
1149.395, 10.34837
1149.877, 7.563766
1150.359, 15.28023
1150.841, 23.29466
1151.323, 23.91053
1151.805, 20.02074
1152.287, 15.18858
1152.770, 9.011650
1153.252, 4.283607
1153.734, 1.300522
1154.216, 1.387283
1154.698, 9.113953
1155.180, 17.52543
1155.662, 17.17937
1156.144, 11.56137
1156.627, 11.03662
1157.109, 19.70143
1157.591, 24.05019
1158.073, 22.60353
1158.555, 18.26814
1159.037, 12.03761
1159.519, 6.122612
1160.001, 3.613541
1160.484, 4.520477
1160.966, 7.283234
1161.448, 13.56492
1161.930, 17.51450
1162.412, 17.36582
1162.894, 15.71694
1163.376, 16.46706
1163.858, 18.67110
1164.340, 20.40293
1164.823, 21.30967
1165.305, 22.80460
1165.787, 27.56164
1166.269, 29.21626
1166.751, 23.93657
1167.233, 15.64886
1167.715, 15.49936
1168.197, 20.51426
1168.679, 21.71231
1169.162, 14.82777
1169.644, 9.189941
1170.126, 8.927269
1170.608, 9.863548
1171.090, 9.389839
1171.572, 8.274887
1172.054, 13.23155
1172.536, 22.04146
1173.019, 23.74973
1173.501, 4.791145
1173.983, 9.021683
1174.465, 3.433868
1174.947, 7.922752
1175.429, 13.81018
1175.911, 14.40613
1176.393, 17.58517
1176.875, 22.91789
1177.358, 25.06837
1177.840, 15.69916
1178.322, 7.851257
1178.804, 11.85322
1179.286, 19.89156
1179.768, 19.22794
1180.250, 9.718697
1180.732, 6.295715
1181.214, 10.33002
1181.697, 14.29533
1182.179, 10.14699
1182.661, 6.474869
1183.143, 11.42309
1183.625, 21.27544
1184.107, 25.21853
1184.589, 22.90774
1185.071, 19.85595
1185.554, 16.72646
1186.036, 15.03474
1186.518, 17.39954
1187.000, 20.86625
1187.482, 23.05048
1187.964, 23.91882
1188.446, 24.68606
1188.928, 25.69511
1189.411, 22.36665
1189.893, 11.44257
1190.375, 2.119667
1190.857, 8.756592
1191.339, 19.20241
1191.821, 18.78401
1192.303, 5.056480
1192.785, 0.4868550
1193.267, 3.889595
1193.750, 6.653229
1194.232, 0.4275670
1194.714, 5.265610
1195.196, 4.706360
1195.678, 20.14452
1196.160, 26.19057
1196.642, 18.00141
1197.124, 13.34008
1197.606, 12.58573
1198.089, 13.08036
1198.571, 14.35107
1199.053, 14.94484
1199.535, 11.57738
1200.017, 6.599205
1200.499, 4.568275
1200.981, 7.562775
1201.463, 10.00531
1201.945, 11.69758
1202.428, 13.37498
1202.910, 16.08672
1203.392, 18.74677
1203.874, 21.25161
1204.356, 22.48434
1204.838, 18.89738
1205.320, 5.888191
1205.802, 1.689339
1206.285, 2.254410
1206.767, 0.6189040
1207.249, 5.587502
1207.731, 10.51475
1208.213, 11.65971
1208.695, 9.755928
1209.177, 10.29583
1209.659, 17.20542
1210.141, 16.96647
1210.624, 5.532082
1211.106, 6.410248
1211.588, 5.849007
1212.070, 1.454445
1212.552, 9.155678
1213.034, 16.31370
1213.516, 20.81297
1213.998, 23.18401
1214.480, 20.62784
1214.963, 10.58817
1215.445, 0.7239150
1215.927, 3.977837
1216.409, 12.74309
1216.891, 15.29366
1217.373, 9.565788
1217.855, 8.931038
1218.337, 16.49271
1218.820, 22.70676
1219.302, 24.64928
1219.784, 23.69563
1220.266, 18.82211
1220.748, 13.85441
1221.230, 16.11366
1221.712, 29.24023
1222.194, 33.08431
1222.677, 23.70747
1223.159, 15.50803
1223.641, 15.33244
1224.123, 18.26136
1224.605, 16.19355
1225.087, 11.48933
1225.569, 7.178368
1226.051, 3.330574
1226.533, 2.111397
1227.016, 3.746490
1227.498, 7.472183
1227.980, 14.43568
1228.462, 21.40299
1228.944, 23.84473
1229.426, 22.76428
1229.908, 19.38048
1230.390, 10.85641
1230.872, 8.818977
1231.355, 14.69850
1231.837, 20.28394
1232.319, 19.88586
1232.801, 18.78562
1233.283, 27.49174
1233.765, 39.59862
1234.247, 41.03454
1234.729, 23.00465
1235.212, 12.62453
1235.694, 10.90125
1236.176, 12.97052
1236.658, 18.72445
1237.140, 23.16248
1237.622, 17.32721
1238.104, 6.035446
1238.586, 1.876282
1239.068, 7.858101
1239.551, 12.94490
1240.033, 16.54738
1240.515, 19.50839
1240.997, 23.63010
1241.479, 26.59444
1241.961, 24.59557
1242.443, 19.71388
1242.925, 18.24908
1243.407, 21.52475
1243.890, 21.36312
1244.372, 16.07577
1244.854, 11.90870
1245.336, 14.60400
1245.818, 18.62514
1246.300, 19.34152
1246.782, 17.27238
1247.264, 14.27570
1247.747, 9.577072
1248.229, 12.73734
1248.711, 25.97059
1249.193, 36.62437
1249.675, 30.14503
1250.157, 20.35385
1250.639, 19.23349
1251.121, 23.49258
1251.604, 23.29681
1252.086, 18.47647
1252.568, 15.05141
1253.050, 17.27133
1253.532, 18.82145
1254.014, 11.53711
1254.496, 6.084770
1254.978, 13.85880
1255.460, 28.27484
1255.943, 29.36447
1256.425, 18.33269
1256.907, 11.78342
1257.389, 13.27832
1257.871, 15.12196
1258.353, 9.810722
1258.835, 5.994484
1259.317, 9.443588
1259.799, 17.27525
1260.281, 20.17646
1260.764, 19.41943
1261.246, 21.11097
1261.728, 27.38770
1262.210, 31.03302
1262.692, 25.60423
1263.174, 19.78277
1263.656, 17.71494
1264.138, 17.84901
1264.621, 15.79107
1265.103, 12.22026
1265.585, 8.655151
1266.067, 4.661507
1266.549, 4.953918
1267.031, 17.74573
1267.513, 25.52426
1267.995, 19.14723
1268.478, 5.881447
1268.960, 3.169548
1269.442, 7.275291
1269.924, 9.518097
1270.406, 7.229767
1270.888, 5.813438
1271.370, 6.149414
1271.852, 7.338280
1272.334, 9.836426
1272.817, 11.75231
1273.299, 6.943649
1273.781, 1.5747000E-02
1274.263, 0.4723430
1274.745, 10.07303
1275.227, 17.36193
1275.709, 20.78615
1276.191, 21.38454
1276.673, 18.28533
1277.156, 14.80090
1277.638, 16.66103
1278.120, 20.62450
1278.602, 21.70184
1279.084, 18.57475
1279.566, 17.15096
1280.048, 17.88619
1280.530, 15.96964
1281.013, 5.366295
1281.495, 2.761948
1281.977, 7.335274
1282.459, 23.45691
1282.941, 30.34597
1283.423, 27.11922
1283.905, 23.23050
1284.387, 19.93413
1284.870, 16.57193
1285.352, 12.03343
1285.834, 9.340363
1286.316, 12.25222
1286.798, 16.65897
1287.280, 18.98346
1287.762, 16.79071
1288.244, 13.56935
1288.726, 7.756905
1289.208, 3.103188
1289.691, 1.667389
1290.173, 0.9774630
1290.655, 1.1830000E-03
1291.137, 4.1049998E-03
1291.619, 2.297318
1292.101, 5.549820
1292.583, 4.037766
1293.065, 0.0000000E+00
##END=



