##NAMES=Kanemite
##RRUFFID=R070544
##IDEAL CHEMISTRY=HNaSi_2_O_5_&#183;3H_2_O
##LOCALITY=Alluaiv Mountain, Lovozero Massif, Kola Peninsula, Murmanskaya Oblast'; Northern Region, Russia
##OWNER=RRUFF
##SOURCE=Michael Scott
##DESCRIPTION=Small aggregate of white acicular crystals
##STATUS=The identification of this mineral is not yet confirmed.
##URL=rruff.info/R070544
182.6288, 0.0000000E+00
183.1109, 1.384033
183.5930, 0.1242680
184.0751, 6.987305
184.5573, 26.21753
185.0394, 46.23730
185.5215, 45.80737
186.0036, 23.49561
186.4857, 7.931152
186.9678, 13.10840
187.4500, 29.43457
187.9321, 40.17896
188.4142, 41.15430
188.8963, 37.42041
189.3784, 36.16113
189.8605, 24.48291
190.3427, 16.22021
190.8248, 14.04492
191.3069, 16.33228
191.7890, 20.95093
192.2711, 27.94629
192.7532, 35.48242
193.2354, 43.73511
193.7175, 53.39331
194.1996, 54.24902
194.6817, 31.86914
195.1638, 0.8361820
195.6459, 9.723877
196.1281, 9.728027
196.6102, 36.62256
197.0923, 41.52588
197.5744, 26.40723
198.0565, 14.38257
198.5386, 14.91699
199.0208, 21.48291
199.5029, 24.93774
199.9850, 23.51221
200.4671, 21.57837
200.9492, 25.03125
201.4313, 33.15430
201.9135, 39.03271
202.3956, 38.72656
202.8777, 35.76807
203.3598, 36.46875
203.8419, 40.94849
204.3240, 45.20874
204.8061, 43.80054
205.2883, 37.80176
205.7704, 32.35010
206.2525, 29.55396
206.7346, 27.70605
207.2167, 23.31714
207.6988, 15.44067
208.1810, 9.498535
208.6631, 14.20972
209.1452, 27.15601
209.6273, 34.69409
210.1094, 25.68018
210.5915, 12.25659
211.0737, 9.183105
211.5558, 18.52930
212.0379, 28.16357
212.5200, 27.44214
213.0021, 18.67188
213.4842, 11.57910
213.9664, 6.528320
214.4485, 5.161133
214.9306, 12.35986
215.4127, 28.83618
215.8948, 41.80908
216.3769, 36.82373
216.8591, 18.78223
217.3412, 6.964355
217.8233, 6.398926
218.3054, 10.75122
218.7875, 16.03320
219.2696, 22.17114
219.7518, 27.57349
220.2339, 29.82153
220.7160, 29.87720
221.1981, 30.63232
221.6802, 35.78052
222.1623, 39.50977
222.6445, 32.19360
223.1266, 15.29614
223.6087, 3.606689
224.0908, 6.729004
224.5729, 22.55054
225.0550, 32.72510
225.5372, 39.87134
226.0193, 43.59033
226.5014, 40.41870
226.9835, 32.40845
227.4656, 28.42236
227.9477, 33.53589
228.4298, 44.17529
228.9120, 51.63184
229.3941, 56.50146
229.8762, 57.92896
230.3583, 53.69385
230.8404, 45.37207
231.3225, 36.59131
231.8047, 27.97681
232.2868, 20.74023
232.7689, 18.32446
233.2510, 22.48828
233.7331, 25.11353
234.2152, 22.77441
234.6974, 18.59375
235.1795, 13.19580
235.6616, 4.781982
236.1437, 0.6264650
236.6258, 7.960938
237.1079, 35.63818
237.5901, 54.90161
238.0722, 55.82935
238.5543, 47.12988
239.0364, 39.23486
239.5185, 34.25342
240.0006, 30.95166
240.4828, 28.50952
240.9649, 26.87427
241.4470, 23.72168
241.9291, 15.74878
242.4112, 8.065186
242.8933, 6.450195
243.3755, 11.49023
243.8576, 18.16626
244.3397, 21.68457
244.8218, 21.59009
245.3039, 22.10571
245.7860, 22.16284
246.2682, 22.11890
246.7503, 24.53174
247.2324, 29.04736
247.7145, 30.52734
248.1966, 23.71924
248.6787, 8.279297
249.1609, 0.8425290
249.6430, 5.211182
250.1251, 12.44360
250.6072, 20.65845
251.0893, 28.61230
251.5714, 33.60059
252.0535, 33.45044
252.5357, 28.94336
253.0178, 26.82837
253.4999, 26.99658
253.9820, 29.57959
254.4641, 37.92041
254.9462, 47.30981
255.4284, 48.18433
255.9105, 35.83276
256.3926, 15.99219
256.8747, 7.011230
257.3568, 22.72876
257.8390, 33.29297
258.3211, 34.81885
258.8032, 31.07031
259.2853, 25.46338
259.7674, 19.35645
260.2495, 13.16577
260.7317, 7.588623
261.2138, 1.182861
261.6959, 2.016724
262.1780, 0.3558350
262.6601, 3.136108
263.1422, 8.088013
263.6244, 13.29980
264.1065, 16.44775
264.5886, 15.55090
265.0707, 10.14661
265.5528, 5.440552
266.0349, 5.900391
266.5170, 10.52942
266.9991, 5.448730
267.4813, 37.19946
267.9634, 64.65344
268.4455, 66.32471
268.9276, 39.55200
269.4097, 27.48193
269.8918, 49.96814
270.3740, 69.08691
270.8561, 72.36060
271.3382, 63.65723
271.8203, 52.35278
272.3024, 43.76099
272.7845, 38.08350
273.2667, 36.47681
273.7488, 42.22815
274.2309, 47.21741
274.7130, 50.92126
275.1951, 52.01392
275.6772, 47.86536
276.1594, 36.20154
276.6415, 21.98242
277.1236, 15.86816
277.6057, 20.13501
278.0878, 26.26221
278.5699, 33.50598
279.0521, 40.69202
279.5342, 47.46716
280.0163, 53.90210
280.4984, 58.00000
280.9805, 56.90601
281.4626, 50.27356
281.9448, 42.13977
282.4269, 28.85449
282.9090, 18.36230
283.3911, 18.52332
283.8732, 29.39709
284.3553, 39.83813
284.8375, 42.87646
285.3196, 39.07141
285.8017, 29.37537
286.2838, 8.470581
286.7659, 9.026123
287.2480, 8.574097
287.7302, 5.870850
288.2123, 18.62305
288.6944, 21.29663
289.1765, 19.16089
289.6586, 21.66907
290.1407, 30.08289
290.6229, 38.20093
291.1050, 40.25549
291.5871, 38.60583
292.0692, 40.10132
292.5513, 53.24268
293.0334, 63.99976
293.5156, 57.16748
293.9977, 35.12415
294.4798, 16.06226
294.9619, 8.537231
295.4440, 10.56885
295.9261, 15.84338
296.4083, 25.48645
296.8904, 36.11646
297.3725, 50.88330
297.8546, 65.18127
298.3367, 67.96472
298.8188, 54.11182
299.3010, 33.00745
299.7831, 22.17407
300.2652, 26.83997
300.7473, 27.96057
301.2294, 21.34290
301.7115, 11.78308
302.1937, 1.345947
302.6758, 8.752686
303.1579, 12.94873
303.6400, 3.377197
304.1221, 24.89392
304.6042, 40.43726
305.0864, 34.54260
305.5685, 25.75659
306.0506, 22.75159
306.5327, 25.03357
307.0148, 28.73047
307.4969, 31.40833
307.9791, 33.17371
308.4612, 34.14014
308.9433, 35.06677
309.4254, 34.17224
309.9075, 30.98145
310.3896, 25.81836
310.8718, 17.88293
311.3539, 6.708130
311.8360, 4.407104
312.3181, 7.693115
312.8002, 0.5786130
313.2823, 9.534424
313.7644, 22.74011
314.2466, 32.93835
314.7287, 32.49365
315.2108, 21.30737
315.6929, 8.226440
316.1750, 2.574341
316.6571, 4.668213
317.1393, 11.54468
317.6214, 31.59375
318.1035, 47.62988
318.5856, 50.71252
319.0677, 42.24731
319.5498, 28.27820
320.0320, 7.581421
320.5141, 15.05090
320.9962, 23.21423
321.4783, 12.76160
321.9604, 1.779297
322.4425, 15.64343
322.9247, 27.84216
323.4068, 36.75391
323.8889, 41.16626
324.3710, 42.39917
324.8531, 41.81458
325.3352, 38.93115
325.8174, 36.32544
326.2995, 35.03259
326.7816, 34.66064
327.2637, 34.39270
327.7458, 34.17480
328.2279, 34.41956
328.7101, 34.13940
329.1922, 34.67053
329.6743, 40.73083
330.1564, 54.60278
330.6385, 66.42383
331.1206, 61.96997
331.6028, 38.02429
332.0849, 24.65088
332.5670, 33.58850
333.0491, 46.47986
333.5312, 48.01392
334.0133, 39.17944
334.4955, 31.75110
334.9776, 35.10767
335.4597, 48.20959
335.9418, 53.20642
336.4239, 42.42017
336.9060, 33.95422
337.3882, 32.98682
337.8703, 37.04602
338.3524, 42.78271
338.8345, 48.76538
339.3166, 54.68323
339.7987, 60.34961
340.2809, 70.25293
340.7630, 71.07251
341.2451, 53.82056
341.7272, 35.03235
342.2093, 25.06421
342.6914, 25.50696
343.1736, 33.32458
343.6557, 49.13818
344.1378, 74.04749
344.6199, 82.67017
345.1020, 61.80676
345.5841, 41.48267
346.0663, 31.27808
346.5484, 28.80994
347.0305, 29.65503
347.5126, 33.06213
347.9947, 36.71729
348.4768, 33.67395
348.9590, 20.70105
349.4411, 14.24573
349.9232, 30.34192
350.4053, 51.07715
350.8874, 56.26025
351.3695, 40.02576
351.8517, 23.95996
352.3338, 27.65686
352.8159, 45.83630
353.2980, 55.93567
353.7801, 50.56030
354.2622, 41.36182
354.7444, 44.17920
355.2265, 57.55151
355.7086, 64.10852
356.1907, 53.18262
356.6728, 37.80969
357.1549, 32.03857
357.6371, 35.85986
358.1192, 39.46375
358.6013, 35.52954
359.0834, 25.51746
359.5655, 20.65283
360.0476, 21.22144
360.5298, 24.78369
361.0119, 36.47595
361.4940, 50.60278
361.9761, 56.86450
362.4582, 50.97778
362.9403, 37.43665
363.4224, 23.28589
363.9045, 3.920044
364.3867, 5.856567
364.8688, 0.2620850
365.3509, 9.510254
365.8330, 14.59070
366.3151, 15.20667
366.7972, 15.00671
367.2794, 17.30347
367.7615, 21.78870
368.2436, 23.44507
368.7257, 17.47119
369.2078, 15.52429
369.6899, 26.08777
370.1721, 40.19006
370.6542, 45.43372
371.1363, 35.00635
371.6184, 19.76514
372.1005, 16.99316
372.5826, 28.02026
373.0648, 34.99854
373.5469, 30.58496
374.0290, 23.25903
374.5111, 21.23291
374.9932, 24.58984
375.4753, 27.92334
375.9575, 26.05933
376.4396, 23.03137
376.9217, 28.93152
377.4038, 45.98242
377.8859, 59.92773
378.3680, 57.13928
378.8502, 40.39917
379.3323, 29.80701
379.8144, 29.38550
380.2965, 31.19019
380.7786, 33.17456
381.2607, 34.59973
381.7429, 33.84998
382.2250, 30.19324
382.7071, 24.38550
383.1892, 17.65234
383.6713, 6.347046
384.1534, 0.9945070
384.6356, 5.302734
385.1177, 12.74500
385.5998, 19.78491
386.0819, 25.47363
386.5640, 29.59338
387.0461, 32.16589
387.5283, 33.11548
388.0104, 29.92371
388.4925, 12.83899
388.9746, 4.106079
389.4567, 14.77332
389.9388, 34.24951
390.4210, 50.60474
390.9031, 59.89880
391.3852, 60.65100
391.8673, 44.15918
392.3494, 6.908569
392.8315, 10.24500
393.3137, 18.12671
393.7958, 51.87659
394.2779, 57.03967
394.7600, 36.32568
395.2421, 16.06409
395.7242, 7.134644
396.2064, 7.431763
396.6885, 16.25671
397.1706, 34.08386
397.6527, 50.74207
398.1348, 61.29773
398.6169, 65.04675
399.0991, 61.64795
399.5812, 45.57458
400.0633, 29.92041
400.5454, 19.34155
401.0275, 12.61938
401.5096, 7.575684
401.9918, 3.548584
402.4739, 1.621216
402.9560, 3.673706
403.4381, 11.69800
403.9202, 17.05005
404.4023, 18.01721
404.8845, 18.26892
405.3666, 19.28699
405.8487, 21.11450
406.3308, 23.67871
406.8129, 27.22546
407.2950, 30.79102
407.7772, 30.56567
408.2593, 23.81787
408.7414, 18.77625
409.2235, 16.67725
409.7056, 17.01233
410.1877, 20.68237
410.6699, 27.56128
411.1520, 33.56299
411.6341, 34.62292
412.1162, 31.59143
412.5983, 28.89636
413.0804, 27.02368
413.5625, 25.20837
414.0446, 21.90967
414.5268, 18.21509
415.0089, 17.07507
415.4910, 21.46155
415.9731, 26.17725
416.4552, 26.95837
416.9373, 24.78406
417.4195, 22.46606
417.9016, 20.72339
418.3837, 20.51111
418.8658, 24.19299
419.3479, 35.58142
419.8300, 41.09253
420.3122, 32.63684
420.7943, 24.12170
421.2764, 27.97986
421.7585, 42.09131
422.2406, 55.16382
422.7227, 59.59534
423.2049, 55.73401
423.6870, 45.78223
424.1691, 19.60950
424.6512, 2.631348
425.1333, 5.800415
425.6154, 15.22693
426.0976, 16.19177
426.5797, 5.695923
427.0618, 4.099487
427.5439, 2.714111
428.0260, 24.53198
428.5081, 37.27454
428.9903, 35.11475
429.4724, 30.71118
429.9545, 33.39795
430.4366, 40.28308
430.9187, 44.87061
431.4008, 46.05420
431.8830, 43.74036
432.3651, 33.98010
432.8472, 19.56934
433.3293, 13.32849
433.8114, 21.31006
434.2935, 35.49988
434.7757, 43.14282
435.2578, 43.93701
435.7399, 38.51074
436.2220, 19.13232
436.7041, 0.2736820
437.1862, 9.925781
437.6684, 10.23181
438.1505, 6.509399
438.6326, 2.324219
439.1147, 2.855103
439.5968, 12.47607
440.0789, 35.61694
440.5611, 48.01501
441.0432, 36.63501
441.5253, 20.84399
442.0074, 17.81006
442.4895, 29.81885
442.9716, 44.65991
443.4538, 52.21875
443.9359, 53.12244
444.4180, 50.64209
444.9001, 43.45154
445.3822, 36.21509
445.8643, 31.18921
446.3465, 28.15515
446.8286, 27.00488
447.3107, 27.80444
447.7928, 30.38879
448.2749, 38.38721
448.7570, 47.89880
449.2392, 47.25891
449.7213, 32.24036
450.2034, 15.08728
450.6855, 10.19775
451.1676, 20.89294
451.6497, 32.53088
452.1319, 52.18628
452.6140, 65.83752
453.0961, 62.45496
453.5782, 49.26660
454.0603, 37.21497
454.5424, 32.81860
455.0246, 34.96985
455.5067, 42.80627
455.9888, 61.01038
456.4709, 71.38562
456.9530, 66.75647
457.4352, 57.73596
457.9173, 46.41663
458.3994, 35.14050
458.8815, 29.51440
459.3636, 36.49219
459.8457, 49.24890
460.3279, 54.94141
460.8100, 53.03357
461.2921, 49.17761
461.7742, 44.26648
462.2563, 40.44653
462.7384, 42.50842
463.2205, 53.05261
463.7026, 61.12830
464.1848, 60.99561
464.6669, 57.21069
465.1490, 55.99988
465.6311, 57.95471
466.1132, 59.17041
466.5953, 56.05469
467.0775, 49.78101
467.5596, 48.94983
468.0417, 61.70312
468.5238, 69.10693
469.0059, 62.02100
469.4880, 52.82788
469.9702, 54.74707
470.4523, 69.69885
470.9344, 87.13696
471.4165, 98.94568
471.8986, 104.7948
472.3807, 99.37427
472.8629, 76.30298
473.3450, 55.46716
473.8271, 52.29968
474.3092, 57.99939
474.7913, 59.70654
475.2734, 52.41113
475.7556, 44.89917
476.2377, 43.13611
476.7198, 46.36548
477.2019, 53.39587
477.6840, 64.14941
478.1661, 73.47144
478.6483, 75.17920
479.1304, 68.13367
479.6125, 66.54822
480.0946, 74.57825
480.5767, 82.55994
481.0588, 90.42749
481.5410, 95.15710
482.0231, 90.89209
482.5052, 75.86182
482.9873, 58.39636
483.4694, 50.32654
483.9515, 52.72925
484.4337, 57.24573
484.9158, 66.47681
485.3979, 74.02490
485.8800, 76.03198
486.3621, 74.01501
486.8442, 71.94849
487.3264, 71.70325
487.8085, 71.09045
488.2906, 66.79004
488.7727, 60.02600
489.2548, 55.84216
489.7369, 55.85474
490.2191, 58.62256
490.7012, 62.69788
491.1833, 68.61926
491.6654, 71.35730
492.1475, 71.05103
492.6296, 67.52795
493.1118, 56.98535
493.5939, 43.94128
494.0760, 38.57153
494.5581, 45.96179
495.0402, 57.18347
495.5223, 54.81946
496.0045, 33.55176
496.4866, 21.24658
496.9687, 26.70557
497.4508, 34.30359
497.9329, 36.77563
498.4150, 35.44897
498.8972, 34.39783
499.3793, 36.58252
499.8614, 37.95532
500.3435, 31.85327
500.8256, 19.82458
501.3077, 11.12939
501.7899, 8.347900
502.2720, 10.34595
502.7541, 17.61731
503.2362, 32.25732
503.7183, 38.03589
504.2004, 23.42578
504.6826, 10.66699
505.1647, 16.93164
505.6468, 33.22815
506.1289, 39.75720
506.6110, 27.71570
507.0931, 7.649170
507.5753, 1.398315
508.0574, 2.914307
508.5395, 9.368042
509.0216, 25.33032
509.5037, 35.00964
509.9858, 23.84399
510.4680, 0.9974370
510.9501, 11.63037
511.4322, 0.9943850
511.9143, 16.03748
512.3964, 20.89453
512.8785, 15.98315
513.3607, 13.51172
513.8428, 17.61731
514.3249, 21.96997
514.8070, 18.52454
515.2891, 5.475098
515.7712, 3.421387
516.2534, 6.672607
516.7355, 7.526855
517.2176, 7.132446
517.6997, 5.400879
518.1818, 1.037964
518.6639, 6.294922
519.1461, 13.25049
519.6282, 14.50281
520.1103, 9.205688
520.5924, 3.632324
521.0745, 5.590698
521.5566, 10.09875
522.0388, 1.403931
522.5209, 13.46411
523.0030, 20.87451
523.4851, 14.61938
523.9672, 5.505737
524.4493, 4.4434000E-02
524.9315, 1.757202
525.4136, 2.707886
525.8957, 14.29785
526.3778, 25.80798
526.8599, 30.54138
527.3420, 28.38025
527.8242, 24.27234
528.3063, 14.01965
528.7884, 7.172241
529.2705, 7.799072
529.7526, 12.14124
530.2347, 17.63452
530.7169, 22.87500
531.1990, 24.13562
531.6811, 13.66748
532.1632, 6.614258
532.6453, 14.06592
533.1274, 4.520142
533.6096, 7.955933
534.0917, 20.57922
534.5738, 30.36194
535.0559, 31.70715
535.5380, 21.37646
536.0201, 12.05872
536.5022, 10.19946
536.9843, 12.36804
537.4664, 14.39062
537.9485, 15.78333
538.4307, 17.63074
538.9128, 20.89758
539.3949, 25.40100
539.8770, 28.37683
540.3591, 28.91797
540.8412, 30.19983
541.3234, 36.78467
541.8055, 40.78040
542.2876, 32.72778
542.7697, 15.58887
543.2518, 3.250488
543.7339, 7.321289
544.2161, 20.30188
544.6982, 28.26807
545.1803, 31.20703
545.6624, 29.84888
546.1445, 22.82031
546.6266, 13.79663
547.1088, 6.942871
547.5909, 1.540039
548.0730, 2.618042
548.5551, 21.70264
549.0372, 37.22253
549.5193, 30.90259
550.0015, 11.30127
550.4836, 2.842896
550.9657, 3.475464
551.4478, 4.846558
551.9299, 17.51208
552.4120, 37.42847
552.8942, 44.41602
553.3763, 27.45422
553.8584, 10.72949
554.3405, 6.324219
554.8226, 10.20691
555.3047, 15.88208
555.7869, 22.71716
556.2690, 27.05750
556.7511, 23.80066
557.2332, 17.24194
557.7153, 16.08643
558.1974, 21.81836
558.6796, 30.56750
559.1617, 40.29797
559.6438, 50.28101
560.1259, 52.56689
560.6080, 37.33521
561.0901, 26.71069
561.5723, 27.69080
562.0544, 30.85315
562.5365, 27.00317
563.0186, 16.13245
563.5007, 5.732910
563.9828, 1.046265
564.4650, 1.141968
564.9471, 3.626099
565.4292, 8.056396
565.9113, 17.59583
566.3934, 38.79504
566.8755, 59.87537
567.3577, 59.70715
567.8398, 11.55444
568.3219, 42.47363
568.8040, 59.28601
569.2861, 63.90613
569.7682, 17.78406
570.2504, 37.32495
570.7325, 30.55005
571.2146, 22.73657
571.6967, 51.55627
572.1788, 12.84375
572.6609, 41.06689
573.1431, 42.59680
573.6252, 56.01526
574.1073, 42.71362
574.5894, 37.52856
575.0715, 58.84851
575.5536, 65.60242
576.0358, 49.57507
576.5179, 64.04858
577.0000, 24.38098
577.4821, 32.21643
577.9642, 60.53296
578.4464, 46.00366
578.9285, 60.43225
579.4106, 63.35168
579.8927, 15.82446
580.3748, 57.20947
580.8569, 60.24487
581.3391, 23.90491
581.8212, 62.24365
582.3033, 31.14417
582.7854, 24.64868
583.2675, 36.99500
583.7496, 30.00220
584.2318, 53.57996
584.7139, 47.70239
585.1960, 39.19031
585.6781, 42.16003
586.1602, 12.58398
586.6423, 43.38049
587.1245, 32.93274
587.6066, 42.98352
588.0887, 57.67786
588.5708, 36.79077
589.0529, 53.56848
589.5350, 11.93054
590.0172, 45.74988
590.4993, 51.69373
590.9814, 47.11084
591.4635, 31.43201
591.9456, 14.95886
592.4277, 6.502563
592.9099, 5.220947
593.3920, 9.690186
593.8741, 21.17590
594.3562, 30.24365
594.8383, 33.75598
595.3204, 32.23779
595.8026, 23.67651
596.2847, 5.636963
596.7668, 2.868408
597.2489, 8.358765
597.7310, 22.91431
598.2131, 33.86169
598.6953, 39.52197
599.1774, 35.25635
599.6595, 19.52063
600.1416, 3.842041
600.6237, 7.934692
601.1058, 32.92883
601.5880, 48.42505
602.0701, 51.35706
602.5522, 49.09656
603.0343, 42.59180
603.5164, 34.30334
603.9985, 28.06067
604.4807, 24.93896
604.9628, 21.27917
605.4449, 13.90796
605.9270, 6.563721
606.4091, 2.470581
606.8912, 1.749268
607.3734, 4.890259
607.8555, 12.62903
608.3376, 20.94824
608.8197, 20.89612
609.3018, 8.547607
609.7839, 4.225342
610.2661, 17.96228
610.7482, 29.41833
611.2303, 25.94482
611.7124, 13.04834
612.1945, 1.789063
612.6766, 6.058350
613.1588, 8.974976
613.6409, 4.024048
614.1230, 5.733765
614.6051, 17.80811
615.0872, 30.78687
615.5693, 37.76416
616.0515, 32.91382
616.5336, 19.83447
617.0157, 12.33020
617.4978, 12.35657
617.9799, 14.30359
618.4620, 19.85144
618.9442, 24.37927
619.4263, 25.24158
619.9084, 23.19263
620.3905, 20.90869
620.8726, 20.12280
621.3547, 18.08167
621.8369, 8.804810
622.3190, 2.916138
622.8011, 4.309082
623.2832, 6.872314
623.7653, 20.37891
624.2474, 28.17908
624.7296, 30.32935
625.2117, 26.85999
625.6938, 8.639771
626.1759, 0.2239990
626.6580, 12.07971
627.1401, 25.87219
627.6223, 25.52185
628.1044, 13.47607
628.5865, 3.649170
629.0686, 3.750610
629.5507, 7.455200
630.0328, 5.790039
630.5150, 1.679932
630.9971, 7.055664
631.4792, 25.19324
631.9613, 41.56140
632.4434, 41.19971
632.9255, 25.21570
633.4077, 14.17212
633.8898, 9.529663
634.3719, 8.147217
634.8539, 9.644165
635.3361, 14.16248
635.8182, 23.94617
636.3003, 37.45129
636.7824, 48.40149
637.2645, 53.82642
637.7466, 54.42188
638.2288, 47.29810
638.7109, 35.51672
639.1930, 33.19299
639.6751, 44.79272
640.1572, 56.23840
640.6393, 52.40894
641.1215, 34.07288
641.6036, 22.09351
642.0857, 22.16162
642.5678, 21.66016
643.0499, 17.03992
643.5320, 12.75378
644.0142, 13.27844
644.4963, 18.11230
644.9784, 22.27576
645.4605, 22.01587
645.9426, 20.79980
646.4247, 24.74011
646.9069, 31.72302
647.3890, 32.94324
647.8711, 25.97266
648.3532, 16.49609
648.8353, 9.785889
649.3174, 5.824097
649.7996, 4.765503
650.2817, 8.911987
650.7638, 12.74805
651.2459, 14.92883
651.7280, 17.07617
652.2101, 21.90601
652.6923, 28.37463
653.1744, 31.05310
653.6565, 24.42725
654.1386, 15.81067
654.6207, 14.16479
655.1028, 17.65857
655.5850, 17.86694
656.0671, 12.81506
656.5492, 7.522949
657.0313, 7.036743
657.5134, 10.70215
657.9955, 10.82495
658.4777, 3.007690
658.9598, 0.5537110
659.4419, 6.580200
659.9240, 14.11804
660.4061, 13.64465
660.8882, 6.666138
661.3704, 1.364624
661.8525, 1.796509
662.3346, 4.181152
662.8167, 5.827148
663.2988, 7.343872
663.7809, 9.055176
664.2631, 10.53613
664.7452, 10.55408
665.2273, 7.819946
665.7094, 3.408081
666.1915, 3.409546
666.6736, 11.19116
667.1558, 15.45203
667.6379, 10.83398
668.1200, 5.760864
668.6021, 5.391724
669.0842, 8.597046
669.5663, 11.38574
670.0485, 11.68030
670.5306, 12.34973
671.0127, 17.05054
671.4948, 23.43872
671.9769, 26.74646
672.4590, 26.67480
672.9412, 28.38208
673.4233, 36.40356
673.9054, 45.63818
674.3875, 39.49500
674.8696, 12.53650
675.3517, 3.775391
675.8339, 3.182251
676.3160, 2.288696
676.7981, 9.303833
677.2802, 16.11292
677.7623, 17.48804
678.2444, 8.920288
678.7266, 3.216309
679.2087, 8.584106
679.6908, 16.32739
680.1729, 16.10583
680.6550, 10.19702
681.1371, 9.137573
681.6193, 18.21863
682.1014, 30.21680
682.5835, 31.42737
683.0656, 21.96680
683.5477, 21.56274
684.0298, 35.70642
684.5120, 45.23364
684.9941, 35.69006
685.4762, 15.88464
685.9583, 6.878906
686.4404, 12.08545
686.9225, 16.50366
687.4047, 20.07178
687.8868, 20.68262
688.3689, 14.34741
688.8510, 5.021484
689.3331, 0.7954100
689.8152, 0.9619140
690.2974, 2.232788
690.7795, 7.675537
691.2616, 14.48035
691.7437, 19.88330
692.2258, 23.84180
692.7079, 27.63110
693.1901, 32.31030
693.6722, 35.87781
694.1543, 35.07178
694.6364, 29.04980
695.1185, 23.07202
695.6006, 15.31860
696.0828, 9.849365
696.5649, 10.02832
697.0470, 11.56262
697.5291, 8.417236
698.0112, 0.6286620
698.4933, 3.605835
698.9755, 5.262573
699.4576, 16.72009
699.9397, 15.78479
700.4218, 6.811646
700.9039, 4.223022
701.3860, 11.77844
701.8682, 20.55896
702.3503, 21.37891
702.8324, 15.54004
703.3145, 15.04858
703.7966, 22.87317
704.2787, 29.21729
704.7609, 32.98560
705.2430, 33.99329
705.7251, 29.74829
706.2072, 22.33472
706.6893, 19.73315
707.1714, 28.56641
707.6536, 35.43689
708.1357, 31.06140
708.6178, 22.90479
709.0999, 20.22644
709.5820, 22.80603
710.0641, 24.77283
710.5463, 22.55798
711.0284, 17.71936
711.5105, 11.15295
711.9926, 2.983276
712.4747, 4.346436
712.9568, 19.70752
713.4390, 32.98584
713.9211, 32.86841
714.4032, 25.08533
714.8853, 25.07324
715.3674, 38.70508
715.8495, 45.53064
716.3317, 37.17407
716.8138, 29.24304
717.2959, 32.41980
717.7780, 40.49890
718.2601, 43.56348
718.7422, 38.76453
719.2244, 29.40649
719.7065, 14.01306
720.1886, 2.213013
720.6707, 10.57263
721.1528, 11.09497
721.6349, 4.062134
722.1171, 10.95630
722.5992, 27.37134
723.0813, 37.29077
723.5634, 40.66968
724.0455, 38.92603
724.5276, 26.00745
725.0098, 18.86023
725.4919, 30.12708
725.9740, 41.76086
726.4561, 36.24890
726.9382, 17.10498
727.4203, 6.812378
727.9025, 20.28210
728.3846, 33.78320
728.8667, 33.66455
729.3488, 27.38208
729.8309, 24.56726
730.3130, 25.54309
730.7952, 24.65625
731.2773, 18.18079
731.7594, 8.568115
732.2415, 1.834351
732.7236, 12.59448
733.2057, 13.99194
733.6878, 2.618896
734.1699, 9.365356
734.6520, 14.22876
735.1342, 14.60706
735.6163, 17.34290
736.0984, 24.59180
736.5805, 29.19043
737.0626, 28.81445
737.5447, 28.47766
738.0269, 30.69983
738.5090, 34.05371
738.9911, 36.91406
739.4732, 38.88452
739.9553, 39.01270
740.4374, 36.26428
740.9196, 31.68750
741.4017, 25.98132
741.8838, 19.55737
742.3659, 12.40295
742.8480, 4.785156
743.3301, 0.4520260
743.8123, 4.283936
744.2944, 14.15564
744.7765, 16.07642
745.2586, 6.846802
745.7407, 3.012085
746.2228, 10.82007
746.7050, 20.70972
747.1871, 25.34875
747.6692, 25.46240
748.1513, 24.46094
748.6334, 22.12402
749.1155, 19.05200
749.5977, 14.57996
750.0798, 10.06873
750.5619, 5.069336
751.0440, 1.400879
751.5261, 4.941284
752.0082, 20.42554
752.4904, 33.82715
752.9725, 26.64636
753.4546, 9.056396
753.9367, 3.782959
754.4188, 10.44507
754.9009, 15.90686
755.3831, 14.46582
755.8652, 11.93738
756.3473, 17.26440
756.8294, 31.33057
757.3115, 37.56360
757.7936, 32.49353
758.2758, 26.62549
758.7579, 21.80054
759.2400, 18.19373
759.7221, 15.82129
760.2042, 14.70166
760.6863, 15.01404
761.1685, 18.34302
761.6506, 21.12451
762.1327, 19.99194
762.6148, 19.24512
763.0969, 24.74402
763.5790, 34.67480
764.0612, 42.57019
764.5433, 45.41052
765.0254, 43.61072
765.5075, 34.75391
765.9896, 22.01379
766.4717, 15.54944
766.9539, 15.32666
767.4360, 15.80969
767.9181, 14.80884
768.4002, 13.08154
768.8823, 11.71899
769.3644, 10.55945
769.8466, 11.55725
770.3287, 17.74561
770.8108, 20.21912
771.2929, 11.13647
771.7750, 2.768188
772.2571, 10.27527
772.7393, 32.14282
773.2214, 46.38721
773.7035, 46.61450
774.1856, 41.14050
774.6677, 28.47070
775.1498, 15.03162
775.6320, 7.484131
776.1141, 5.536621
776.5962, 4.908691
777.0783, 3.193970
777.5604, 2.673462
778.0425, 7.764038
778.5247, 15.46057
779.0068, 18.01355
779.4889, 15.66479
779.9710, 15.20020
780.4531, 20.04260
780.9352, 26.50305
781.4174, 28.26526
781.8995, 24.86780
782.3816, 21.65710
782.8637, 16.71631
783.3458, 16.28857
783.8279, 25.49792
784.3101, 37.37476
784.7922, 45.14050
785.2743, 48.92224
785.7564, 50.00500
786.2385, 45.73682
786.7206, 42.35913
787.2028, 43.06372
787.6849, 44.39392
788.1670, 42.79907
788.6491, 39.01501
789.1312, 36.36804
789.6133, 36.74390
790.0955, 36.64099
790.5776, 30.48303
791.0597, 22.44714
791.5418, 21.16736
792.0239, 25.30554
792.5060, 27.99695
792.9882, 26.38123
793.4703, 22.14551
793.9524, 16.30383
794.4345, 9.343384
794.9166, 10.27002
795.3987, 21.12756
795.8809, 31.25647
796.3630, 37.86328
796.8451, 42.73914
797.3272, 48.62402
797.8093, 54.90894
798.2914, 54.70984
798.7736, 41.38879
799.2557, 31.63184
799.7378, 29.98181
800.2199, 29.47290
800.7020, 22.99817
801.1841, 15.00427
801.6663, 16.58972
802.1484, 32.50720
802.6305, 45.42102
803.1126, 41.96936
803.5947, 32.82507
804.0768, 28.70447
804.5590, 28.16589
805.0411, 26.35974
805.5232, 21.99915
806.0053, 17.69775
806.4874, 16.88831
806.9695, 16.92261
807.4517, 6.211182
807.9338, 13.84717
808.4159, 16.33569
808.8980, 6.227539
809.3801, 30.55664
809.8622, 40.05200
810.3444, 37.67859
810.8265, 31.93005
811.3086, 18.90344
811.7907, 12.68994
812.2728, 18.06958
812.7549, 24.09973
813.2371, 27.24585
813.7192, 27.98730
814.2013, 25.88062
814.6834, 20.62585
815.1655, 17.70532
815.6476, 20.50806
816.1298, 23.19763
816.6119, 22.69165
817.0940, 21.02063
817.5761, 21.18079
818.0582, 22.62402
818.5403, 21.63135
819.0225, 15.38574
819.5046, 8.518311
819.9867, 4.796753
820.4688, 4.191162
820.9509, 8.755493
821.4330, 16.97021
821.9152, 21.60791
822.3973, 19.34656
822.8794, 12.85229
823.3615, 3.476318
823.8436, 7.541504
824.3257, 5.829346
824.8079, 10.56714
825.2900, 24.75964
825.7721, 33.43530
826.2542, 33.99219
826.7363, 20.30786
827.2184, 4.208130
827.7006, 13.44507
828.1827, 2.791260
828.6648, 16.63062
829.1469, 29.90405
829.6290, 37.32568
830.1111, 30.46436
830.5933, 17.57104
831.0754, 11.90369
831.5575, 15.80969
832.0396, 22.33655
832.5217, 34.14832
833.0038, 42.79932
833.4859, 39.07129
833.9680, 31.37000
834.4501, 32.08752
834.9323, 41.79114
835.4144, 50.18127
835.8965, 51.74756
836.3786, 48.93176
836.8607, 41.56702
837.3428, 32.72949
837.8250, 29.45337
838.3071, 31.66125
838.7892, 34.76270
839.2713, 36.54321
839.7534, 36.72363
840.2355, 34.96521
840.7177, 31.24658
841.1998, 24.12012
841.6819, 12.92285
842.1640, 6.874512
842.6461, 10.03809
843.1282, 15.91174
843.6104, 18.59619
844.0925, 18.24268
844.5746, 15.67419
845.0567, 6.683594
845.5388, 4.217163
846.0209, 14.57861
846.5031, 25.36304
846.9852, 30.18860
847.4673, 31.53796
847.9494, 33.82007
848.4315, 37.97766
848.9136, 38.95715
849.3958, 31.68640
849.8779, 25.85889
850.3600, 28.73218
850.8421, 33.41333
851.3242, 30.39160
851.8063, 20.95667
852.2885, 15.71277
852.7706, 21.20703
853.2527, 28.63782
853.7348, 31.30627
854.2169, 31.30408
854.6990, 32.25183
855.1812, 33.21155
855.6633, 28.34424
856.1454, 15.86182
856.6275, 6.308228
857.1096, 14.73279
857.5917, 33.87903
858.0739, 42.54321
858.5560, 41.94250
859.0381, 42.92773
859.5202, 48.11084
860.0023, 50.92664
860.4844, 45.73474
860.9666, 33.85852
861.4487, 23.91052
861.9308, 15.28137
862.4129, 13.11401
862.8950, 20.44556
863.3771, 26.33313
863.8593, 25.06458
864.3414, 21.18945
864.8235, 23.00110
865.3056, 31.18042
865.7877, 35.09851
866.2698, 33.75403
866.7520, 32.21692
867.2341, 27.47192
867.7162, 24.02209
868.1983, 28.47803
868.6804, 36.07690
869.1625, 33.48242
869.6447, 13.31946
870.1268, 0.9019780
870.6089, 11.37000
871.0910, 24.28821
871.5731, 25.05408
872.0552, 20.67029
872.5374, 27.76172
873.0195, 46.09900
873.5016, 56.32422
873.9837, 41.89050
874.4658, 24.13623
874.9479, 24.23865
875.4301, 32.98486
875.9122, 36.85205
876.3943, 35.53601
876.8764, 36.17041
877.3585, 39.96948
877.8406, 41.41833
878.3228, 30.52600
878.8049, 13.41528
879.2870, 7.283203
879.7691, 11.18481
880.2512, 21.15222
880.7333, 36.14014
881.2155, 47.24084
881.6976, 46.59875
882.1797, 38.69458
882.6618, 34.60266
883.1439, 34.39233
883.6260, 30.90198
884.1082, 21.86304
884.5903, 19.12805
885.0724, 31.37109
885.5545, 43.74609
886.0366, 35.88416
886.5187, 7.011963
887.0009, 4.073486
887.4830, 15.60522
887.9651, 27.67456
888.4472, 21.97375
888.9293, 13.09460
889.4114, 9.536133
889.8936, 9.428467
890.3757, 9.277466
890.8578, 9.470093
891.3399, 7.875488
891.8220, 0.1455080
892.3041, 4.368042
892.7863, 1.564819
893.2684, 5.721558
893.7505, 18.38269
894.2326, 33.48755
894.7147, 39.20898
895.1968, 26.22302
895.6790, 15.71118
896.1611, 18.57166
896.6432, 24.84375
897.1253, 27.52527
897.6074, 26.12854
898.0895, 19.06445
898.5717, 6.950806
899.0538, 0.8781740
899.5359, 3.887085
900.0180, 14.06482
900.5001, 24.86707
900.9822, 34.42993
901.4644, 39.71228
901.9465, 40.30212
902.4286, 35.48267
902.9107, 24.63379
903.3928, 14.42041
903.8749, 14.44678
904.3571, 20.88660
904.8392, 24.22900
905.3213, 24.55090
905.8034, 22.88525
906.2855, 19.59253
906.7676, 16.39246
907.2498, 13.83130
907.7319, 12.29175
908.2140, 12.66870
908.6961, 14.86023
909.1782, 14.60706
909.6603, 11.38550
910.1425, 8.402466
910.6246, 6.717651
911.1067, 6.861572
911.5888, 9.948730
912.0709, 15.50244
912.5530, 18.37073
913.0352, 17.08643
913.5173, 18.75854
913.9994, 25.65027
914.4815, 32.85950
914.9636, 38.97437
915.4457, 42.34375
915.9279, 39.44067
916.4100, 29.36621
916.8921, 17.84973
917.3742, 4.159302
917.8563, 13.62793
918.3384, 6.057739
918.8206, 28.97473
919.3027, 37.96729
919.7848, 35.30396
920.2669, 26.68420
920.7490, 5.843018
921.2311, 4.212891
921.7133, 9.194580
922.1954, 21.99609
922.6775, 24.28625
923.1596, 20.77405
923.6417, 14.36609
924.1238, 6.836060
924.6060, 4.405029
925.0881, 12.70288
925.5702, 19.71375
926.0523, 19.04688
926.5344, 17.57654
927.0165, 22.84302
927.4987, 28.78992
927.9808, 21.97986
928.4629, 1.551514
928.9450, 10.78418
929.4271, 5.730591
929.9092, 23.77856
930.3914, 21.89917
930.8734, 11.96594
931.3555, 6.429199
931.8376, 6.109741
932.3198, 9.889648
932.8019, 17.28088
933.2840, 20.38843
933.7661, 4.359497
934.2482, 12.74731
934.7303, 3.828613
935.2125, 19.25696
935.6946, 33.31921
936.1767, 35.31458
936.6588, 31.75037
937.1409, 25.69263
937.6230, 20.63525
938.1052, 22.02942
938.5873, 27.17664
939.0694, 31.71387
939.5515, 34.52112
940.0336, 30.07996
940.5157, 18.30139
940.9979, 12.68530
941.4800, 24.91370
941.9621, 43.67139
942.4442, 47.20837
942.9263, 38.12488
943.4084, 26.77747
943.8906, 14.48511
944.3727, 8.636475
944.8548, 11.62671
945.3369, 18.48889
945.8190, 24.20618
946.3011, 27.70129
946.7833, 22.43872
947.2654, 8.728638
947.7475, 8.471802
948.2296, 25.24341
948.7117, 36.23767
949.1938, 30.10522
949.6760, 18.53809
950.1581, 17.09717
950.6402, 24.70203
951.1223, 28.37122
951.6044, 28.15222
952.0865, 20.62866
952.5687, 1.586548
953.0508, 9.797363
953.5329, 9.8389000E-02
954.0150, 18.18250
954.4971, 22.28149
954.9792, 11.06018
955.4614, 10.81531
955.9435, 25.60498
956.4256, 39.67627
956.9077, 52.70972
957.3898, 58.51978
957.8719, 49.58240
958.3541, 32.61963
958.8362, 22.99146
959.3183, 21.45264
959.8004, 23.82556
960.2825, 33.28198
960.7646, 40.60291
961.2468, 44.59814
961.7289, 44.50012
962.2110, 38.60559
962.6931, 28.28455
963.1752, 17.59717
963.6573, 2.920288
964.1395, 2.772095
964.6216, 6.673584
965.1037, 16.61487
965.5858, 23.13074
966.0679, 28.27820
966.5500, 35.01428
967.0322, 42.13293
967.5143, 43.90613
967.9964, 36.94885
968.4785, 31.01526
968.9606, 25.53479
969.4427, 22.36450
969.9249, 24.40381
970.4070, 27.46960
970.8891, 27.40308
971.3712, 24.33728
971.8533, 20.45288
972.3354, 14.60852
972.8176, 10.00940
973.2997, 7.591187
973.7818, 5.899536
974.2639, 2.418701
974.7460, 0.4190670
975.2281, 5.288452
975.7103, 16.07605
976.1924, 23.96838
976.6745, 25.74634
977.1566, 23.85181
977.6387, 13.99023
978.1208, 5.760376
978.6030, 6.774780
979.0851, 11.60718
979.5672, 14.01868
980.0493, 12.87903
980.5314, 10.37415
981.0135, 1.693237
981.4957, 0.7500000
981.9778, 16.93347
982.4599, 32.74829
982.9420, 25.24683
983.4241, 6.060059
983.9063, 5.048218
984.3884, 5.128296
984.8705, 0.3908690
985.3526, 12.06128
985.8347, 21.39136
986.3168, 17.47192
986.7990, 13.55457
987.2811, 26.15833
987.7632, 45.86072
988.2453, 56.59656
988.7274, 55.47839
989.2095, 49.95239
989.6917, 39.50183
990.1738, 29.61096
990.6559, 20.66809
991.1380, 15.22852
991.6201, 18.23853
992.1022, 24.52185
992.5844, 27.12976
993.0665, 24.11365
993.5486, 20.68372
994.0307, 20.05969
994.5128, 18.47388
994.9949, 12.42566
995.4771, 5.998169
995.9592, 0.8233640
996.4413, 1.137451
996.9234, 5.006104
997.4055, 20.49036
997.8876, 32.56665
998.3698, 35.28186
998.8519, 33.52856
999.3340, 26.67834
999.8161, 19.27002
1000.298, 14.55566
1000.780, 12.99023
1001.262, 16.30872
1001.745, 25.07727
1002.227, 28.80066
1002.709, 16.19836
1003.191, 5.312988
1003.673, 9.382568
1004.155, 17.00317
1004.637, 14.19873
1005.119, 6.666016
1005.602, 12.20361
1006.084, 35.51086
1006.566, 48.63135
1007.048, 28.98865
1007.530, 8.425171
1008.012, 4.314209
1008.494, 6.983032
1008.976, 9.383789
1009.458, 10.29065
1009.941, 8.144409
1010.423, 2.390381
1010.905, 0.3526610
1011.387, 10.22241
1011.869, 21.02625
1012.351, 30.17310
1012.833, 35.34509
1013.315, 31.26404
1013.797, 22.65308
1014.280, 19.85132
1014.762, 25.23035
1015.244, 29.26343
1015.726, 28.21545
1016.208, 25.07483
1016.690, 20.02258
1017.172, 14.51965
1017.654, 8.005981
1018.137, 2.634277
1018.619, 2.797729
1019.101, 9.383301
1019.583, 16.18799
1020.065, 22.62378
1020.547, 26.85461
1021.029, 28.97070
1021.511, 27.84058
1021.993, 19.07739
1022.476, 8.091797
1022.958, 3.085205
1023.440, 5.355591
1023.922, 10.30505
1024.404, 21.91064
1024.886, 28.73840
1025.368, 23.48291
1025.850, 16.03601
1026.333, 12.35010
1026.815, 11.52551
1027.297, 12.42908
1027.779, 14.81470
1028.261, 14.00574
1028.743, 4.155640
1029.225, 1.950073
1029.707, 1.162842
1030.189, 6.128784
1030.672, 8.964111
1031.154, 10.70544
1031.636, 12.81262
1032.118, 15.41602
1032.600, 19.18542
1033.082, 25.92102
1033.564, 31.37708
1034.046, 37.35254
1034.528, 39.19617
1035.011, 30.56934
1035.493, 19.14087
1035.975, 14.76343
1036.457, 17.30225
1036.939, 19.49707
1037.421, 22.82910
1037.903, 23.04309
1038.385, 19.79138
1038.868, 13.50439
1039.350, 1.694702
1039.832, 14.87146
1040.314, 10.95874
1040.796, 6.581909
1041.278, 13.32312
1041.760, 0.2622070
1042.242, 6.026978
1042.724, 1.089722
1043.207, 7.936646
1043.689, 22.87708
1044.171, 35.80237
1044.653, 38.21631
1045.135, 32.66150
1045.617, 29.08691
1046.099, 26.62158
1046.581, 29.98267
1047.063, 44.09668
1047.546, 50.76135
1048.028, 41.63220
1048.510, 30.58313
1048.992, 29.09216
1049.474, 32.92090
1049.956, 31.47266
1050.438, 23.87463
1050.920, 17.46533
1051.403, 10.35205
1051.885, 12.19653
1052.367, 28.06421
1052.849, 41.50476
1053.331, 40.50952
1053.813, 31.70032
1054.295, 27.10986
1054.777, 26.75891
1055.260, 29.38794
1055.742, 35.42456
1056.224, 33.10083
1056.706, 19.21851
1057.188, 11.24243
1057.670, 19.41577
1058.152, 34.37610
1058.634, 43.71167
1059.116, 48.09753
1059.599, 49.33459
1060.081, 48.04871
1060.563, 49.98608
1061.045, 55.55164
1061.527, 60.29150
1062.009, 62.28162
1062.491, 62.62476
1062.973, 62.16809
1063.455, 61.40662
1063.938, 63.77649
1064.420, 66.32629
1064.902, 56.18115
1065.384, 36.51538
1065.866, 25.97192
1066.348, 29.74170
1066.830, 35.78247
1067.312, 34.64062
1067.795, 31.23059
1068.277, 31.70117
1068.759, 34.72717
1069.241, 40.04565
1069.723, 45.44043
1070.205, 44.51038
1070.687, 37.60730
1071.169, 34.41931
1071.651, 41.61292
1072.134, 47.74939
1072.616, 39.01233
1073.098, 28.20117
1073.580, 31.44238
1074.062, 39.99072
1074.544, 37.66553
1075.026, 26.77917
1075.508, 22.98474
1075.990, 32.41370
1076.473, 43.31091
1076.955, 52.90112
1077.437, 57.93237
1077.919, 52.10559
1078.401, 44.37512
1078.883, 43.58679
1079.365, 47.86548
1079.847, 52.95325
1080.329, 58.73608
1080.812, 58.21179
1081.294, 40.87415
1081.776, 28.98755
1082.258, 34.37476
1082.740, 40.89160
1083.222, 35.09802
1083.704, 25.71375
1084.186, 28.22510
1084.669, 42.85754
1085.151, 51.18176
1085.633, 46.44861
1086.115, 46.39526
1086.597, 55.60510
1087.079, 62.18628
1087.561, 61.92847
1088.043, 57.14136
1088.526, 49.12122
1089.008, 38.80115
1089.490, 29.25403
1089.972, 19.34204
1090.454, 16.94617
1090.936, 25.03845
1091.418, 30.51086
1091.900, 29.49121
1092.382, 28.49561
1092.865, 33.67249
1093.347, 40.44604
1093.829, 39.26941
1094.311, 30.85291
1094.793, 24.21594
1095.275, 19.42957
1095.757, 20.34705
1096.239, 27.48315
1096.721, 35.42322
1097.204, 41.70728
1097.686, 41.30542
1098.168, 27.67822
1098.650, 8.819580
1099.132, 2.714233
1099.614, 6.281494
1100.096, 11.06519
1100.578, 16.31970
1101.061, 20.93835
1101.543, 24.64111
1102.025, 27.71558
1102.507, 30.32202
1102.989, 32.52795
1103.471, 36.18689
1103.953, 38.05847
1104.435, 32.98889
1104.917, 23.45044
1105.400, 10.60254
1105.882, 2.168823
1106.364, 3.362427
1106.846, 13.73572
1107.328, 25.36853
1107.810, 10.43420
1108.292, 4.599365
1108.774, 0.1579590
1109.256, 9.201050
1109.739, 6.547363
1110.221, 1.476318
1110.703, 3.532959
1111.185, 24.65784
1111.667, 36.22009
1112.149, 27.01733
1112.631, 16.93628
1113.113, 4.874023
1113.596, 1.841797
1114.078, 3.566895
1114.560, 13.74792
1115.042, 22.15552
1115.524, 28.47510
1116.006, 30.58337
1116.488, 26.12415
1116.970, 24.60278
1117.453, 27.51282
1117.935, 28.56372
1118.417, 24.68713
1118.899, 23.39709
1119.381, 31.59888
1119.863, 42.24048
1120.345, 39.81335
1120.827, 26.20203
1121.309, 25.79016
1121.792, 37.80188
1122.274, 41.79358
1122.756, 34.95911
1123.238, 28.28662
1123.720, 26.63403
1124.202, 27.06519
1124.684, 26.57263
1125.166, 26.32715
1125.648, 30.87622
1126.131, 36.26489
1126.613, 30.92139
1127.095, 18.95117
1127.577, 13.24072
1128.059, 16.16602
1128.541, 23.03186
1129.023, 32.51550
1129.505, 39.07178
1129.988, 39.08191
1130.470, 33.57214
1130.952, 16.48010
1131.434, 0.3889770
1131.916, 8.5450001E-03
1132.398, 11.74969
1132.880, 16.53430
1133.362, 10.29431
1133.844, 8.535461
1134.327, 23.04382
1134.809, 31.69427
1135.291, 23.86194
1135.773, 14.47113
1136.255, 12.62671
1136.737, 12.79352
1137.219, 5.784241
1137.701, 5.631104
1138.183, 5.227905
1138.666, 14.95123
1139.148, 21.52380
1139.630, 9.345581
1140.112, 0.7023320
1140.594, 4.058044
1141.076, 1.628418
1141.558, 7.661987
1142.040, 16.77228
1142.523, 11.95490
1143.005, 3.087341
1143.487, 5.382751
1143.969, 3.386841
1144.451, 9.845459
1144.933, 12.48254
1145.415, 12.89575
1145.897, 11.66309
1146.380, 8.077209
1146.862, 0.3992920
1147.344, 6.028748
1147.826, 0.6940310
1148.308, 7.840576
1148.790, 3.295166
1149.272, 5.954895
1149.754, 0.3112790
1150.236, 17.23822
1150.719, 25.50635
1151.201, 16.41187
1151.683, 8.670654
1152.165, 13.15594
1152.647, 19.10876
1153.129, 23.89716
1153.611, 25.61096
1154.093, 20.97937
1154.575, 13.55975
1155.058, 7.132935
1155.540, 2.344604
1156.022, 3.298096
1156.504, 13.29913
1156.986, 22.26617
1157.468, 31.58118
1157.950, 36.83734
1158.432, 36.03571
1158.915, 32.13409
1159.397, 26.18988
1159.879, 20.83221
1160.361, 22.10693
1160.843, 28.57111
1161.325, 24.60571
1161.807, 11.26672
1162.289, 8.541260
1162.771, 17.55798
1163.254, 23.59534
1163.736, 21.41583
1164.218, 17.86353
1164.700, 18.26660
1165.182, 21.88110
1165.664, 33.39893
1166.146, 43.23444
1166.628, 33.58539
1167.110, 14.72192
1167.593, 3.887451
1168.075, 2.481079
1168.557, 5.959839
1169.039, 12.94946
1169.521, 18.33936
1170.003, 17.78552
1170.485, 18.04211
1170.967, 24.72278
1171.450, 29.74335
1171.932, 25.98071
1172.414, 20.04236
1172.896, 19.45233
1173.378, 23.98511
1173.860, 27.55237
1174.342, 30.85608
1174.824, 30.24225
1175.307, 23.57196
1175.789, 20.36420
1176.271, 23.78906
1176.753, 25.57349
1177.235, 20.53253
1177.717, 14.16315
1178.199, 14.64746
1178.681, 18.63434
1179.163, 12.31891
1179.646, 2.5757000E-02
1180.128, 1.981750
1180.610, 15.66052
1181.092, 24.01086
1181.574, 23.47821
1182.056, 21.08667
1182.538, 20.33356
1183.020, 21.35504
1183.502, 24.42493
1183.984, 29.18060
1184.467, 40.66895
1184.949, 49.05310
1185.431, 39.39050
1185.913, 20.56738
1186.395, 9.906006
1186.877, 9.446228
1187.359, 11.82605
1187.841, 20.07672
1188.324, 23.12012
1188.806, 14.22858
1189.288, 9.991150
1189.770, 18.80890
1190.252, 26.61768
1190.734, 22.08032
1191.216, 12.58997
1191.698, 11.91028
1192.181, 18.80865
1192.663, 23.20587
1193.145, 25.05981
1193.627, 22.48108
1194.109, 15.98340
1194.591, 12.76605
1195.073, 14.93079
1195.555, 19.78314
1196.037, 26.96844
1196.520, 32.13678
1197.002, 26.86896
1197.484, 18.65607
1197.966, 15.97388
1198.448, 16.37030
1198.930, 17.25348
1199.412, 18.34442
1199.894, 18.97003
1200.376, 19.40637
1200.859, 23.92828
1201.341, 41.94556
1201.823, 50.57233
1202.305, 34.72009
1202.787, 22.62970
1203.269, 27.78302
1203.751, 34.39301
1204.233, 29.46350
1204.716, 20.12640
1205.198, 22.24286
1205.680, 33.80414
1206.162, 36.06311
1206.644, 28.64337
1207.126, 26.32141
1207.608, 30.04938
1208.090, 30.42761
1208.573, 24.85040
1209.055, 19.35901
1209.537, 18.22046
1210.019, 19.54492
1210.501, 24.53210
1210.983, 27.61444
1211.465, 15.87598
1211.947, 2.126099
1212.429, 7.404297
1212.911, 24.04620
1213.394, 33.78577
1213.876, 33.34558
1214.358, 27.77185
1214.840, 12.79297
1215.322, 4.513977
1215.804, 8.870117
1216.286, 16.21613
1216.768, 27.93573
1217.251, 35.65515
1217.733, 32.27570
1218.215, 24.59015
1218.697, 23.32776
1219.179, 27.13916
1219.661, 27.85657
1220.143, 25.66290
1220.625, 21.84247
1221.108, 17.19147
1221.590, 22.93152
1222.072, 39.24323
1222.554, 49.47089
1223.036, 44.52509
1223.518, 32.53296
1224.000, 12.70172
1224.482, 0.9082030
1224.964, 12.86273
1225.447, 32.57452
1225.929, 33.85052
1226.411, 26.85846
1226.893, 32.56854
1227.375, 48.83612
1227.857, 52.44873
1228.339, 36.20673
1228.821, 19.41388
1229.303, 4.160706
1229.786, 12.76404
1230.268, 2.632568
1230.750, 17.75293
1231.232, 20.77722
1231.714, 20.29114
1232.196, 25.78125
1232.678, 33.15247
1233.160, 29.51343
1233.643, 19.88361
1234.125, 25.57123
1234.607, 40.69977
1235.089, 45.87305
1235.571, 40.61707
1236.053, 34.63678
1236.535, 31.42749
1237.017, 31.20123
1237.500, 38.31964
1237.982, 40.91290
1238.464, 28.05127
1238.946, 14.66644
1239.428, 8.328186
1239.910, 6.790833
1240.392, 10.27277
1240.874, 15.64282
1241.356, 17.30750
1241.839, 15.38013
1242.321, 12.27307
1242.803, 7.107239
1243.285, 9.078674
1243.767, 20.39941
1244.249, 21.95148
1244.731, 9.169983
1245.213, 0.1483760
1245.695, 3.557007
1246.178, 8.755920
1246.660, 6.835449
1247.142, 4.728638
1247.624, 22.76947
1248.106, 42.73004
1248.588, 37.17792
1249.070, 19.81714
1249.552, 15.70032
1250.035, 24.83569
1250.517, 31.76581
1250.999, 31.79266
1251.481, 37.05365
1251.963, 60.98987
1252.445, 64.02631
1252.927, 30.75067
1253.409, 5.404053
1253.891, 6.088928
1254.374, 15.34479
1254.856, 11.58179
1255.338, 3.361816
1255.820, 8.812622
1256.302, 22.97797
1256.784, 32.31384
1257.266, 35.75787
1257.748, 26.07001
1258.230, 9.023926
1258.713, 0.5588380
1259.195, 0.9912110
1259.677, 6.248413
1260.159, 14.13214
1260.641, 12.60394
1261.123, 7.044373
1261.605, 0.0000000E+00
##END=



