##NAMES=Kapustinite
##RRUFFID=R060896
##IDEAL CHEMISTRY=Na_6_Zr^4+^Si_6_O_16_(OH)_2_
##LOCALITY=Palitra pegmatite, Kedykverpakhk Mountain, Lovozero Massif, Russia
##OWNER=RRUFF
##SOURCE=Michael Scott
##DESCRIPTION=Reddish brown vitreous massive fragment
##STATUS=The identification of this mineral has been confirmed only by single crystal X-ray diffraction.
##URL=rruff.info/R060896
142.7406, 0.0000000E+00
143.2227, 5.870850
143.7048, 39.41675
144.1869, 134.6621
144.6690, 231.0352
145.1511, 306.5459
145.6333, 391.5938
146.1154, 492.3496
146.5975, 602.0112
147.0796, 715.6924
147.5617, 832.3110
148.0438, 945.0825
148.5260, 1019.792
149.0081, 1041.204
149.4902, 1051.472
149.9723, 1060.827
150.4544, 1067.210
150.9365, 1067.089
151.4187, 1060.102
151.9008, 1043.122
152.3829, 1000.134
152.8650, 911.6904
153.3471, 822.5952
153.8292, 754.8057
154.3114, 702.0405
154.7935, 642.0449
155.2756, 557.3477
155.7577, 456.0781
156.2398, 380.7266
156.7219, 340.8379
157.2041, 315.0181
157.6862, 294.9639
158.1683, 280.1479
158.6504, 268.7749
159.1325, 257.7949
159.6146, 250.2437
160.0968, 256.0889
160.5789, 279.2144
161.0610, 311.6792
161.5431, 349.4409
162.0252, 392.2681
162.5073, 439.9111
162.9895, 494.7524
163.4716, 554.4790
163.9537, 608.0664
164.4358, 652.9722
164.9179, 693.6396
165.4000, 731.4937
165.8822, 766.3320
166.3643, 803.2769
166.8464, 850.1582
167.3285, 901.6313
167.8106, 941.8242
168.2927, 965.2925
168.7749, 979.1206
169.2570, 989.9053
169.7391, 997.8340
170.2212, 1000.496
170.7033, 994.2417
171.1854, 981.4731
171.6676, 968.2319
172.1497, 957.4048
172.6318, 945.3887
173.1139, 929.5718
173.5960, 910.4492
174.0781, 884.2417
174.5603, 841.8760
175.0424, 790.9614
175.5245, 747.5400
176.0066, 717.6567
176.4887, 695.4668
176.9708, 675.4683
177.4530, 658.3389
177.9351, 639.4312
178.4172, 615.3398
178.8993, 587.2798
179.3814, 556.6016
179.8635, 516.4526
180.3457, 477.5439
180.8278, 454.5156
181.3099, 448.6704
181.7920, 452.4521
182.2741, 470.4048
182.7562, 493.8120
183.2384, 508.6929
183.7205, 510.3506
184.2026, 501.7231
184.6847, 483.4639
185.1668, 451.6606
185.6489, 426.4302
186.1311, 430.9541
186.6132, 451.4033
187.0953, 460.3750
187.5774, 438.7847
188.0595, 409.2173
188.5416, 406.0654
189.0238, 438.4043
189.5059, 469.8867
189.9880, 482.5908
190.4701, 480.8960
190.9522, 466.5796
191.4343, 431.0376
191.9165, 390.0054
192.3986, 370.8130
192.8807, 379.6943
193.3628, 386.0762
193.8449, 364.4360
194.3270, 333.5347
194.8092, 313.4180
195.2913, 315.4287
195.7734, 332.9590
196.2555, 351.8008
196.7376, 380.3408
197.2197, 398.8467
197.7019, 388.1104
198.1840, 364.4121
198.6661, 344.9277
199.1482, 331.7671
199.6303, 320.5337
200.1124, 303.3164
200.5946, 270.4053
201.0767, 246.0693
201.5588, 252.3154
202.0409, 267.1719
202.5230, 264.4902
203.0051, 228.8765
203.4873, 185.2817
203.9694, 168.3228
204.4515, 182.4526
204.9336, 197.8159
205.4157, 208.3286
205.8978, 209.8755
206.3800, 193.6182
206.8621, 150.6411
207.3442, 102.3896
207.8263, 75.68457
208.3084, 72.65186
208.7905, 72.85254
209.2727, 65.93994
209.7548, 57.74316
210.2369, 54.63135
210.7190, 58.84619
211.2011, 66.00586
211.6832, 73.17041
212.1654, 80.40527
212.6475, 80.16064
213.1296, 62.29102
213.6117, 39.57275
214.0938, 25.25391
214.5760, 21.97852
215.0581, 24.74609
215.5402, 32.01270
216.0223, 43.51270
216.5044, 48.61426
216.9865, 38.32910
217.4687, 24.79004
217.9508, 21.63770
218.4329, 31.69922
218.9150, 44.13379
219.3971, 51.47559
219.8792, 53.77930
220.3614, 50.12305
220.8435, 33.37402
221.3256, 17.07910
221.8077, 15.67871
222.2898, 30.69434
222.7719, 50.72656
223.2541, 75.66797
223.7362, 102.0430
224.2183, 107.8145
224.7004, 78.17188
225.1825, 36.92773
225.6646, 9.155273
226.1468, 5.208984
226.6289, 13.71484
227.1110, 18.13281
227.5931, 20.09375
228.0752, 25.05273
228.5573, 34.56836
229.0395, 46.88184
229.5216, 63.64258
230.0037, 84.34375
230.4858, 96.62500
230.9679, 89.54883
231.4500, 69.70703
231.9322, 53.67676
232.4143, 47.76465
232.8964, 44.02148
233.3785, 33.54395
233.8606, 17.28027
234.3427, 1.798828
234.8249, 11.83301
235.3070, 23.39258
235.7891, 30.44531
236.2712, 31.38184
236.7533, 34.91895
237.2354, 53.64453
237.7176, 83.42578
238.1997, 103.8379
238.6818, 95.58398
239.1639, 82.28809
239.6460, 96.86719
240.1281, 143.0811
240.6103, 183.7188
241.0924, 187.0469
241.5745, 159.3330
242.0566, 138.2549
242.5387, 130.6895
243.0208, 129.0156
243.5030, 130.9736
243.9851, 135.0264
244.4672, 132.4453
244.9493, 113.0518
245.4314, 83.33301
245.9135, 73.45215
246.3957, 111.4189
246.8778, 144.0068
247.3599, 130.6582
247.8420, 83.44824
248.3241, 49.38867
248.8062, 56.40918
249.2884, 90.60840
249.7705, 102.1230
250.2526, 71.55371
250.7347, 46.86230
251.2168, 50.04688
251.6989, 70.78809
252.1811, 88.98535
252.6632, 96.57031
253.1453, 95.56543
253.6274, 89.38477
254.1095, 68.20605
254.5916, 59.11328
255.0738, 77.41406
255.5559, 107.2920
256.0380, 128.3711
256.5201, 134.1768
257.0022, 129.5107
257.4843, 120.7568
257.9665, 97.78418
258.4486, 92.82812
258.9307, 123.3350
259.4128, 163.0010
259.8949, 190.6611
260.3770, 201.5488
260.8592, 198.7676
261.3413, 183.6523
261.8234, 146.8457
262.3055, 131.1797
262.7876, 150.3096
263.2697, 177.2793
263.7519, 203.3340
264.2340, 223.3994
264.7161, 226.4639
265.1982, 198.0361
265.6803, 131.6875
266.1624, 96.66602
266.6446, 120.4062
267.1267, 143.6807
267.6088, 139.7617
268.0909, 116.9609
268.5730, 98.88281
269.0551, 103.0762
269.5373, 126.7812
270.0194, 140.4102
270.5015, 138.1748
270.9836, 130.9043
271.4657, 112.9209
271.9478, 92.68848
272.4300, 81.74609
272.9121, 86.25000
273.3942, 102.3809
273.8763, 121.0332
274.3584, 153.1689
274.8405, 168.1299
275.3227, 146.8574
275.8048, 116.0400
276.2869, 100.1641
276.7690, 107.5215
277.2511, 128.1611
277.7332, 148.6152
278.2154, 171.9365
278.6975, 184.8730
279.1796, 175.8350
279.6617, 163.1436
280.1438, 156.5977
280.6259, 158.0586
281.1081, 165.2852
281.5902, 183.3193
282.0723, 214.2207
282.5544, 219.0879
283.0365, 165.9219
283.5186, 114.5449
284.0008, 93.47266
284.4829, 101.8555
284.9650, 129.8340
285.4471, 180.0127
285.9292, 246.5039
286.4113, 312.1387
286.8935, 401.6836
287.3756, 440.2441
287.8577, 345.5293
288.3398, 174.0684
288.8219, 38.74707
289.3040, 2.191406
289.7862, 8.040039
290.2683, 8.118164
290.7504, 2.806641
291.2325, 18.92383
291.7146, 39.55371
292.1967, 62.81250
292.6789, 85.90137
293.1610, 109.1660
293.6431, 131.3291
294.1252, 151.3672
294.6073, 169.3896
295.0894, 187.9746
295.5716, 213.5391
296.0537, 234.1230
296.5358, 225.6162
297.0179, 178.9229
297.5000, 135.2900
297.9821, 115.1885
298.4643, 109.1367
298.9464, 98.05273
299.4285, 76.04883
299.9106, 54.29395
300.3927, 50.85645
300.8748, 72.42578
301.3570, 80.03809
301.8391, 62.96582
302.3212, 34.66992
302.8033, 0.7490230
303.2854, 35.71484
303.7675, 61.84082
304.2497, 65.33789
304.7318, 42.96582
305.2139, 27.88770
305.6960, 16.76465
306.1781, 13.41309
306.6602, 24.28223
307.1424, 46.84961
307.6245, 75.73535
308.1066, 109.1709
308.5887, 142.4404
309.0708, 150.2637
309.5529, 100.5889
310.0351, 62.39453
310.5172, 44.34375
310.9993, 40.98438
311.4814, 48.41016
311.9635, 64.36914
312.4456, 83.86523
312.9278, 99.04785
313.4099, 112.5527
313.8920, 114.9141
314.3741, 92.62109
314.8562, 70.06738
315.3383, 65.89746
315.8205, 80.53418
316.3026, 99.06836
316.7847, 105.1250
317.2668, 96.49316
317.7489, 94.07910
318.2310, 94.08789
318.7132, 105.7432
319.1953, 141.3750
319.6774, 191.9736
320.1595, 236.0068
320.6416, 258.1973
321.1237, 265.0674
321.6059, 273.5234
322.0880, 281.8887
322.5701, 296.2832
323.0522, 324.5762
323.5343, 358.9033
324.0164, 386.9229
324.4986, 399.5830
324.9807, 419.2070
325.4628, 482.3838
325.9449, 585.4268
326.4270, 660.8418
326.9091, 675.5010
327.3913, 660.6562
327.8734, 661.3584
328.3555, 678.1973
328.8376, 705.1006
329.3197, 752.3945
329.8018, 804.8730
330.2840, 831.2764
330.7661, 822.5293
331.2482, 806.5312
331.7303, 814.8672
332.2124, 850.2881
332.6945, 878.1396
333.1767, 900.6016
333.6588, 911.4980
334.1409, 894.1543
334.6230, 856.2998
335.1051, 834.9932
335.5872, 859.6611
336.0694, 924.4619
336.5515, 963.8389
337.0336, 957.7617
337.5157, 953.6289
337.9979, 961.9053
338.4800, 979.5869
338.9621, 1004.206
339.4442, 1034.764
339.9263, 1065.460
340.4084, 1082.534
340.8906, 1072.019
341.3727, 1073.139
341.8548, 1094.305
342.3369, 1120.093
342.8190, 1136.203
343.3011, 1142.968
343.7833, 1154.296
344.2654, 1184.843
344.7475, 1235.478
345.2296, 1292.415
345.7117, 1375.688
346.1938, 1441.550
346.6760, 1463.714
347.1581, 1455.547
347.6402, 1446.759
348.1223, 1449.721
348.6044, 1460.872
349.0865, 1473.626
349.5687, 1487.404
350.0508, 1504.205
350.5329, 1530.025
351.0150, 1557.060
351.4971, 1576.880
351.9792, 1587.645
352.4614, 1593.598
352.9435, 1595.476
353.4256, 1594.118
353.9077, 1598.024
354.3898, 1616.251
354.8719, 1632.459
355.3541, 1617.335
355.8362, 1571.685
356.3183, 1529.576
356.8004, 1494.047
357.2825, 1469.781
357.7646, 1466.230
358.2468, 1481.150
358.7289, 1494.173
359.2110, 1490.080
359.6931, 1472.564
360.1752, 1474.499
360.6573, 1520.765
361.1395, 1555.103
361.6216, 1545.301
362.1037, 1514.697
362.5858, 1506.162
363.0679, 1537.967
363.5500, 1585.354
364.0322, 1594.378
364.5143, 1516.737
364.9964, 1485.807
365.4785, 1539.167
365.9606, 1604.752
366.4427, 1630.985
366.9249, 1617.427
367.4070, 1600.506
367.8891, 1617.598
368.3712, 1667.964
368.8533, 1697.487
369.3354, 1687.619
369.8176, 1680.849
370.2997, 1692.816
370.7818, 1717.552
371.2639, 1745.726
371.7460, 1774.217
372.2281, 1802.752
372.7103, 1831.632
373.1924, 1860.773
373.6745, 1889.763
374.1566, 1924.026
374.6387, 1952.916
375.1208, 1962.479
375.6030, 1949.776
376.0851, 1939.167
376.5672, 1950.163
377.0493, 1970.232
377.5314, 1972.767
378.0135, 1952.086
378.4957, 1927.611
378.9778, 1919.909
379.4599, 1928.544
379.9420, 1917.896
380.4241, 1860.142
380.9063, 1808.462
381.3884, 1800.842
381.8705, 1824.241
382.3526, 1842.100
382.8347, 1835.221
383.3168, 1813.851
383.7990, 1806.803
384.2811, 1845.860
384.7632, 1856.595
385.2453, 1821.990
385.7274, 1769.994
386.2095, 1715.750
386.6917, 1665.885
387.1738, 1628.992
387.6559, 1614.774
388.1380, 1623.884
388.6201, 1645.232
389.1022, 1693.175
389.5844, 1737.156
390.0665, 1770.624
390.5486, 1792.618
391.0307, 1800.458
391.5128, 1790.058
391.9949, 1770.826
392.4771, 1759.462
392.9592, 1757.413
393.4413, 1748.823
393.9234, 1714.833
394.4055, 1683.832
394.8876, 1692.232
395.3698, 1744.901
395.8519, 1789.715
396.3340, 1789.894
396.8161, 1767.701
397.2982, 1767.885
397.7803, 1798.110
398.2625, 1822.147
398.7446, 1807.315
399.2267, 1754.348
399.7088, 1711.347
400.1909, 1678.219
400.6730, 1654.345
401.1552, 1653.075
401.6373, 1659.074
402.1194, 1637.454
402.6015, 1572.399
403.0836, 1489.902
403.5657, 1445.141
404.0479, 1473.108
404.5300, 1475.728
405.0121, 1434.846
405.4942, 1387.249
405.9763, 1355.349
406.4584, 1339.346
406.9406, 1327.472
407.4227, 1307.981
407.9048, 1284.229
408.3869, 1281.873
408.8690, 1318.487
409.3511, 1344.466
409.8333, 1335.582
410.3154, 1310.285
410.7975, 1290.621
411.2796, 1284.204
411.7617, 1275.069
412.2438, 1236.383
412.7260, 1176.084
413.2081, 1146.663
413.6902, 1166.008
414.1723, 1205.562
414.6544, 1239.545
415.1365, 1268.357
415.6187, 1289.185
416.1008, 1302.815
416.5829, 1307.085
417.0650, 1293.963
417.5471, 1267.693
418.0292, 1247.373
418.5114, 1244.729
418.9935, 1254.162
419.4756, 1256.518
419.9577, 1252.883
420.4398, 1240.987
420.9219, 1210.356
421.4041, 1177.085
421.8862, 1158.036
422.3683, 1153.949
422.8504, 1150.282
423.3325, 1130.487
423.8146, 1094.082
424.2968, 1064.361
424.7789, 1039.006
425.2610, 1024.393
425.7431, 1039.345
426.2252, 1061.180
426.7073, 1052.009
427.1895, 991.3496
427.6716, 916.8193
428.1537, 872.5332
428.6358, 858.1621
429.1179, 860.6006
429.6000, 887.2061
430.0822, 913.3262
430.5643, 906.3945
431.0464, 868.5850
431.5285, 837.9580
432.0106, 832.3730
432.4927, 833.3086
432.9749, 819.9053
433.4570, 794.2734
433.9391, 774.7012
434.4212, 772.7783
434.9033, 784.3340
435.3854, 793.2090
435.8676, 802.8809
436.3497, 805.2793
436.8318, 795.2559
437.3139, 780.9395
437.7960, 767.7793
438.2781, 757.4180
438.7603, 751.7939
439.2424, 753.5469
439.7245, 763.0049
440.2066, 774.4160
440.6887, 795.7012
441.1708, 807.3193
441.6530, 795.7188
442.1351, 773.1172
442.6172, 757.0283
443.0993, 752.6484
443.5814, 755.1914
444.0635, 763.9277
444.5457, 776.4688
445.0278, 776.1992
445.5099, 755.4355
445.9920, 729.8027
446.4741, 719.5117
446.9562, 722.1709
447.4384, 720.8701
447.9205, 713.0020
448.4026, 699.1270
448.8847, 676.0088
449.3668, 647.3965
449.8489, 624.7402
450.3311, 614.2061
450.8132, 612.6348
451.2953, 611.9160
451.7774, 619.9355
452.2595, 616.2646
452.7416, 585.7373
453.2238, 554.7256
453.7059, 549.4160
454.1880, 565.3311
454.6701, 568.2549
455.1522, 521.5225
455.6343, 441.4414
456.1165, 411.7188
456.5986, 454.5850
457.0807, 494.2451
457.5628, 495.8906
458.0449, 482.3711
458.5270, 475.3447
459.0092, 478.5938
459.4913, 481.9414
459.9734, 477.7568
460.4555, 469.7207
460.9376, 467.8574
461.4197, 474.5400
461.9019, 475.8896
462.3840, 457.3223
462.8661, 420.7109
463.3482, 398.1680
463.8303, 402.9199
464.3124, 405.7314
464.7946, 396.5723
465.2767, 379.8447
465.7588, 360.0029
466.2409, 338.7256
466.7230, 320.2959
467.2051, 314.0605
467.6873, 325.7500
468.1694, 323.4502
468.6515, 279.7637
469.1336, 250.8496
469.6157, 268.4873
470.0978, 313.2168
470.5800, 350.7266
471.0621, 369.8740
471.5442, 367.0830
472.0263, 326.7598
472.5084, 251.6230
472.9905, 193.9150
473.4727, 171.8301
473.9548, 164.5225
474.4369, 148.2393
474.9190, 123.4688
475.4011, 101.3623
475.8832, 91.09961
476.3654, 78.15820
476.8475, 38.69824
477.3296, 14.65039
477.8117, 38.80078
478.2938, 9.517578
478.7759, 49.65430
479.2581, 81.70508
479.7402, 74.15430
480.2223, 60.57031
480.7044, 33.57422
481.1865, 8.526367
481.6686, 3.006836
482.1508, 3.616211
482.6329, 5.220703
483.1150, 18.62207
483.5971, 35.84375
484.0792, 32.09863
484.5613, 1.546875
485.0435, 16.47559
485.5256, 2.533203
486.0077, 32.59082
486.4898, 39.59473
486.9719, 21.06836
487.4540, 1.538086
487.9362, 11.42773
488.4183, 19.49316
488.9004, 19.67578
489.3825, 14.26367
489.8646, 19.62891
490.3467, 49.37988
490.8289, 94.14648
491.3110, 115.0371
491.7931, 86.95117
492.2752, 66.87988
492.7573, 66.64062
493.2394, 68.08594
493.7216, 54.48145
494.2037, 26.32715
494.6858, 2.124023
495.1679, 19.90039
495.6500, 28.40234
496.1321, 32.33496
496.6143, 28.60352
497.0964, 29.63574
497.5785, 45.21582
498.0606, 65.57031
498.5427, 77.27344
499.0248, 77.08008
499.5070, 81.13086
499.9891, 106.4307
500.4712, 136.2148
500.9533, 144.7793
501.4355, 130.5371
501.9176, 108.5449
502.3997, 86.98438
502.8818, 67.88184
503.3639, 63.37402
503.8460, 97.87598
504.3282, 115.8477
504.8103, 102.8125
505.2924, 77.91309
505.7745, 53.94043
506.2566, 34.52930
506.7387, 21.24316
507.2209, 16.78906
507.7030, 19.58203
508.1851, 22.41895
508.6672, 26.20898
509.1493, 27.55859
509.6314, 30.10742
510.1136, 26.34668
510.5957, 1.827148
511.0778, 51.08301
511.5599, 92.65332
512.0420, 98.30566
512.5241, 85.25488
513.0062, 73.62988
513.4883, 66.09375
513.9705, 61.49316
514.4526, 59.01953
514.9347, 58.81836
515.4168, 62.18457
515.8989, 67.32617
516.3810, 79.20898
516.8632, 109.3945
517.3453, 137.8838
517.8274, 144.7627
518.3095, 131.4502
518.7916, 118.2080
519.2737, 122.3643
519.7559, 138.4932
520.2380, 148.2627
520.7201, 150.1670
521.2022, 153.2598
521.6843, 165.4668
522.1664, 177.6211
522.6486, 171.7822
523.1307, 141.1484
523.6128, 127.9180
524.0949, 158.8486
524.5770, 204.6816
525.0591, 239.5439
525.5413, 261.4854
526.0234, 277.0557
526.5055, 291.1338
526.9876, 299.6035
527.4697, 285.8721
527.9518, 219.7500
528.4340, 188.8623
528.9161, 217.0869
529.3982, 262.2305
529.8803, 308.4316
530.3624, 348.9824
530.8445, 370.2969
531.3267, 350.1592
531.8088, 319.1182
532.2909, 340.5029
532.7730, 413.4248
533.2551, 470.5107
533.7372, 484.0605
534.2194, 479.6777
534.7015, 494.0732
535.1836, 529.6113
535.6657, 560.5215
536.1478, 584.4463
536.6299, 603.7021
537.1121, 617.5908
537.5942, 627.9980
538.0763, 637.0039
538.5584, 645.4043
539.0405, 656.9277
539.5226, 680.6318
540.0048, 720.9160
540.4869, 754.8213
540.9690, 782.8262
541.4511, 801.3867
541.9332, 805.7051
542.4153, 801.3594
542.8975, 799.2139
543.3796, 804.9717
543.8617, 809.8018
544.3438, 799.2891
544.8259, 783.4463
545.3080, 791.0967
545.7902, 829.7734
546.2723, 878.4219
546.7544, 918.4414
547.2365, 950.2246
547.7186, 967.3164
548.2007, 966.1436
548.6829, 956.2842
549.1650, 931.4385
549.6471, 903.3633
550.1292, 886.8516
550.6113, 884.2500
551.0934, 882.6904
551.5756, 868.6211
552.0577, 844.0234
552.5398, 817.7988
553.0219, 786.6084
553.5040, 764.0303
553.9861, 761.1299
554.4683, 769.8184
554.9504, 772.3770
555.4325, 766.1230
555.9146, 758.3408
556.3967, 758.1650
556.8788, 754.8389
557.3610, 733.9326
557.8431, 696.4639
558.3252, 654.5557
558.8073, 616.3604
559.2894, 584.8408
559.7715, 567.9131
560.2537, 576.8389
560.7358, 572.2148
561.2179, 525.8643
561.7000, 481.2783
562.1821, 473.3984
562.6642, 494.0742
563.1464, 502.0830
563.6285, 470.8359
564.1106, 430.6533
564.5927, 417.6094
565.0748, 423.8584
565.5569, 420.2793
566.0391, 397.9189
566.5212, 365.9268
567.0033, 333.4316
567.4854, 298.8174
567.9675, 276.3936
568.4496, 286.5928
568.9318, 287.0332
569.4139, 252.6172
569.8960, 204.3369
570.3781, 165.8477
570.8602, 144.7217
571.3423, 140.1680
571.8245, 164.9971
572.3066, 209.0576
572.7887, 213.8477
573.2708, 166.4277
573.7529, 132.0762
574.2350, 157.0977
574.7172, 211.7031
575.1993, 225.2021
575.6814, 178.7588
576.1635, 143.7051
576.6456, 141.6055
577.1277, 153.1016
577.6099, 163.7148
578.0920, 172.5654
578.5741, 185.8125
579.0562, 208.2256
579.5383, 232.6318
580.0204, 240.6719
580.5026, 228.6240
580.9847, 214.5176
581.4668, 197.1953
581.9489, 183.3076
582.4310, 175.1416
582.9132, 172.6074
583.3953, 176.9551
583.8774, 193.3906
584.3596, 210.7656
584.8417, 226.8721
585.3238, 236.7959
585.8059, 224.7822
586.2880, 189.4883
586.7701, 160.4551
587.2523, 167.3350
587.7344, 204.2012
588.2165, 229.6162
588.6986, 250.7812
589.1807, 249.6279
589.6628, 197.3574
590.1450, 140.6309
590.6271, 125.6309
591.1092, 153.8027
591.5913, 181.0459
592.0734, 175.9873
592.5555, 155.2314
593.0377, 146.2773
593.5198, 148.4160
594.0019, 150.1934
594.4840, 143.2988
594.9661, 132.6787
595.4482, 126.9746
595.9304, 121.6562
596.4125, 140.9121
596.8946, 224.4961
597.3767, 286.8066
597.8588, 282.8428
598.3409, 241.1621
598.8231, 202.4912
599.3052, 179.9629
599.7873, 170.1758
600.2694, 173.2686
600.7515, 186.4971
601.2336, 199.3945
601.7158, 211.3086
602.1979, 225.3496
602.6800, 247.5469
603.1621, 270.0039
603.6442, 270.4551
604.1263, 239.6592
604.6085, 209.6416
605.0906, 175.0469
605.5727, 150.0850
606.0548, 151.3574
606.5369, 169.4131
607.0190, 181.6240
607.5012, 175.5264
607.9833, 163.3896
608.4654, 168.4199
608.9475, 190.3027
609.4296, 201.1230
609.9117, 195.5010
610.3939, 182.6367
610.8760, 162.3184
611.3581, 138.4951
611.8402, 128.4043
612.3223, 151.8242
612.8044, 160.8721
613.2866, 122.6611
613.7687, 76.15820
614.2508, 65.85449
614.7329, 89.86328
615.2150, 114.0850
615.6971, 114.5420
616.1793, 98.87402
616.6614, 87.31836
617.1435, 80.57812
617.6256, 74.99609
618.1077, 74.20020
618.5898, 68.96094
619.0720, 42.06152
619.5541, 1.049805
620.0362, 18.50293
620.5183, 1.964844
621.0004, 30.74805
621.4825, 57.21484
621.9647, 80.52441
622.4468, 100.9082
622.9289, 117.5625
623.4110, 126.2939
623.8931, 122.1982
624.3752, 107.6094
624.8574, 92.90723
625.3395, 74.56348
625.8216, 67.94727
626.3037, 89.18262
626.7858, 112.5283
627.2679, 112.5908
627.7501, 91.72363
628.2322, 73.07520
628.7143, 63.52344
629.1964, 57.18945
629.6785, 45.59766
630.1606, 35.91504
630.6428, 47.66602
631.1249, 83.07910
631.6070, 113.1719
632.0891, 104.2529
632.5712, 60.66309
633.0533, 34.84863
633.5355, 33.11230
634.0176, 34.00293
634.4997, 28.93848
634.9818, 25.75195
635.4639, 35.39844
635.9460, 57.31152
636.4282, 69.97852
636.9103, 59.82324
637.3924, 43.90723
637.8745, 33.57617
638.3566, 27.50000
638.8387, 21.36230
639.3209, 13.96191
639.8030, 8.907227
640.2851, 11.83691
640.7672, 22.26855
641.2493, 23.79297
641.7314, 9.292969
642.2136, 1.124023
642.6957, 18.80762
643.1778, 38.14453
643.6599, 27.57812
644.1420, 14.46094
644.6241, 35.58203
645.1063, 6.820313
645.5884, 53.93457
646.0705, 52.03809
646.5526, 20.96680
647.0347, 10.16211
647.5168, 34.71094
647.9990, 63.09668
648.4811, 53.59863
648.9632, 7.672852
649.4453, 10.89062
649.9274, 15.04688
650.4095, 28.38770
650.8917, 7.675781
651.3738, 54.61719
651.8559, 70.20996
652.3380, 52.48242
652.8201, 26.83594
653.3022, 16.65723
653.7844, 49.28711
654.2665, 36.51660
654.7486, 0.1425780
655.2307, 14.55469
655.7128, 5.858398
656.1949, 38.34863
656.6771, 57.24902
657.1592, 63.40918
657.6413, 72.16113
658.1234, 88.44336
658.6055, 91.55664
659.0876, 60.53125
659.5698, 23.71777
660.0519, 20.42285
660.5340, 52.14844
661.0161, 74.60449
661.4982, 80.27246
661.9803, 72.76270
662.4625, 40.64551
662.9446, 1.507813
663.4267, 14.67871
663.9088, 1.269531
664.3909, 22.64844
664.8730, 40.76660
665.3552, 52.23730
665.8373, 50.28809
666.3194, 32.53418
666.8015, 13.49902
667.2836, 6.643555
667.7657, 20.47852
668.2479, 15.48730
668.7300, 8.668945
669.2121, 29.99805
669.6942, 51.58887
670.1763, 64.46289
670.6584, 58.66992
671.1406, 45.00879
671.6227, 36.66504
672.1048, 36.19141
672.5869, 37.01172
673.0690, 32.09961
673.5511, 24.70898
674.0333, 25.21289
674.5154, 33.70898
674.9975, 40.23633
675.4796, 41.31445
675.9617, 41.15527
676.4438, 45.14062
676.9260, 53.39648
677.4081, 54.43555
677.8902, 32.05762
678.3723, 25.71777
678.8544, 63.32129
679.3365, 105.7568
679.8187, 110.2559
680.3008, 79.52637
680.7829, 54.10742
681.2650, 64.22070
681.7471, 87.25977
682.2292, 87.37207
682.7114, 69.93848
683.1935, 63.51172
683.6756, 75.73535
684.1577, 86.22559
684.6398, 74.75879
685.1219, 44.52637
685.6041, 25.20410
686.0862, 19.75098
686.5683, 21.00781
687.0504, 30.38574
687.5325, 43.99609
688.0146, 64.03711
688.4968, 86.61230
688.9789, 100.8721
689.4610, 102.7734
689.9431, 94.61133
690.4252, 66.34961
690.9073, 33.07422
691.3895, 26.97852
691.8716, 49.72461
692.3537, 76.78906
692.8358, 91.73438
693.3179, 98.31836
693.8000, 109.1914
694.2822, 130.0244
694.7643, 132.5459
695.2464, 94.10059
695.7285, 62.98828
696.2106, 77.06934
696.6927, 115.0459
697.1749, 134.6934
697.6570, 122.9775
698.1391, 113.3701
698.6212, 128.9131
699.1033, 144.5859
699.5854, 127.7773
700.0676, 90.12891
700.5497, 70.19336
701.0318, 85.69824
701.5139, 114.8525
701.9960, 123.0215
702.4781, 112.0840
702.9603, 122.2334
703.4424, 160.6582
703.9245, 184.0410
704.4066, 165.5918
704.8887, 126.3330
705.3708, 103.9121
705.8530, 102.6113
706.3351, 101.4961
706.8172, 100.4092
707.2993, 97.81738
707.7814, 91.54102
708.2635, 85.43750
708.7457, 84.99707
709.2278, 89.03125
709.7099, 95.06152
710.1920, 105.9492
710.6741, 117.0156
711.1563, 116.3721
711.6384, 104.7725
712.1205, 92.67676
712.6026, 82.23828
713.0847, 81.61914
713.5668, 104.4521
714.0490, 149.3340
714.5311, 180.4932
715.0132, 195.5156
715.4953, 199.7500
715.9774, 187.8066
716.4595, 170.9521
716.9417, 153.2373
717.4238, 136.8945
717.9059, 130.0215
718.3880, 143.2256
718.8701, 156.1797
719.3522, 156.7432
719.8344, 148.8389
720.3165, 134.1592
720.7986, 115.5928
721.2807, 103.6328
721.7628, 107.5430
722.2449, 117.8174
722.7271, 109.4775
723.2092, 80.70996
723.6913, 73.50293
724.1734, 102.6631
724.6555, 124.7510
725.1376, 106.2334
725.6198, 62.55957
726.1019, 38.46484
726.5840, 36.27734
727.0661, 46.22266
727.5482, 79.58203
728.0303, 112.9316
728.5125, 138.8125
728.9946, 153.4346
729.4767, 148.0381
729.9588, 120.2197
730.4409, 94.05371
730.9230, 93.80469
731.4052, 106.9082
731.8873, 108.1074
732.3694, 99.74902
732.8515, 101.9834
733.3336, 122.7598
733.8157, 148.3213
734.2979, 161.8096
734.7800, 162.9756
735.2621, 162.6904
735.7442, 160.9727
736.2263, 156.8574
736.7084, 142.5420
737.1906, 131.8789
737.6727, 141.8027
738.1548, 168.2090
738.6369, 183.5664
739.1190, 177.9600
739.6011, 164.7383
740.0833, 143.0430
740.5654, 121.2148
741.0475, 108.7617
741.5296, 105.9629
742.0117, 108.1172
742.4938, 112.9932
742.9760, 119.7822
743.4581, 133.3242
743.9402, 150.7627
744.4223, 143.5205
744.9044, 105.0176
745.3865, 74.35840
745.8687, 74.47363
746.3508, 96.89453
746.8329, 123.8486
747.3150, 159.4463
747.7971, 187.7725
748.2792, 211.9287
748.7614, 225.0264
749.2435, 221.2979
749.7256, 207.0840
750.2077, 185.7471
750.6898, 158.0996
751.1719, 141.0615
751.6541, 153.3672
752.1362, 169.6748
752.6183, 162.5088
753.1004, 144.2930
753.5825, 144.2881
754.0646, 167.2168
754.5468, 188.0645
755.0289, 185.4453
755.5110, 164.3105
755.9931, 135.6406
756.4752, 98.70996
756.9573, 71.35449
757.4395, 57.45508
757.9216, 53.41992
758.4037, 60.29492
758.8858, 75.18555
759.3679, 82.50293
759.8500, 67.10742
760.3322, 64.51562
760.8143, 92.39062
761.2964, 117.1279
761.7785, 119.3291
762.2606, 105.9961
762.7427, 89.55762
763.2249, 73.22754
763.7070, 66.29395
764.1891, 74.29688
764.6712, 92.45508
765.1533, 127.8223
765.6354, 169.7236
766.1176, 183.9668
766.5997, 159.9443
767.0818, 124.0264
767.5639, 104.9004
768.0460, 100.2715
768.5281, 95.64551
769.0103, 89.26953
769.4924, 90.12305
769.9745, 104.9268
770.4566, 121.9414
770.9387, 126.8350
771.4208, 120.3174
771.9030, 131.9131
772.3851, 196.0195
772.8672, 233.1982
773.3493, 219.4492
773.8314, 188.9619
774.3135, 160.5371
774.7957, 137.8662
775.2778, 124.6074
775.7599, 123.9443
776.2420, 122.0859
776.7241, 110.3174
777.2062, 92.72754
777.6884, 66.10547
778.1705, 37.91992
778.6526, 32.10254
779.1347, 56.77441
779.6168, 87.31348
780.0989, 92.46777
780.5811, 77.66895
781.0632, 76.35840
781.5453, 91.05371
782.0274, 96.75684
782.5095, 82.58887
782.9916, 64.16309
783.4738, 54.49414
783.9559, 53.64453
784.4380, 66.45996
784.9201, 116.0986
785.4022, 145.1797
785.8843, 132.3408
786.3665, 114.7256
786.8486, 117.6016
787.3307, 132.5205
787.8128, 136.2705
788.2949, 118.9219
788.7770, 106.6914
789.2592, 120.6084
789.7413, 139.3740
790.2234, 145.6182
790.7055, 139.2861
791.1876, 119.8066
791.6697, 88.49316
792.1519, 59.33203
792.6340, 45.67285
793.1161, 45.62695
793.5982, 59.17480
794.0803, 85.31055
794.5624, 100.4707
795.0446, 98.09863
795.5267, 84.93164
796.0088, 63.41504
796.4909, 37.80078
796.9730, 35.20996
797.4551, 68.46094
797.9373, 96.48438
798.4194, 124.7383
798.9015, 136.2158
799.3836, 114.0381
799.8657, 71.79199
800.3478, 31.48926
800.8300, 8.863281
801.3121, 30.46582
801.7942, 14.47852
802.2763, 8.025391
802.7584, 19.06445
803.2405, 22.94531
803.7227, 27.69922
804.2048, 35.08203
804.6869, 42.23633
805.1690, 48.14062
805.6511, 51.63770
806.1332, 44.81348
806.6154, 34.60059
807.0975, 48.34961
807.5796, 88.31738
808.0617, 118.6484
808.5438, 112.5840
809.0259, 83.59277
809.5081, 65.37500
809.9902, 59.53125
810.4723, 46.50391
810.9544, 18.73242
811.4365, 2.738281
811.9186, 15.81152
812.4008, 44.44141
812.8829, 68.54199
813.3650, 90.04395
813.8471, 96.21777
814.3292, 79.43359
814.8113, 57.58105
815.2935, 27.37793
815.7756, 8.3984002E-02
816.2577, 15.25684
816.7398, 18.22363
817.2219, 11.85742
817.7040, 7.828125
818.1862, 28.34766
818.6683, 52.07715
819.1504, 65.94629
819.6325, 45.93457
820.1146, 1.882813
820.5967, 36.90723
821.0789, 57.13379
821.5610, 60.39551
822.0431, 39.45410
822.5252, 4.458984
823.0073, 13.15723
823.4894, 14.20215
823.9716, 14.44629
824.4537, 19.15918
824.9358, 21.47168
825.4179, 12.36328
825.9000, 5.097656
826.3821, 5.336914
826.8643, 21.09473
827.3464, 30.33594
827.8285, 3.174805
828.3106, 21.16309
828.7927, 8.147461
829.2748, 25.44824
829.7570, 29.13770
830.2391, 19.06543
830.7212, 38.39160
831.2033, 7.035156
831.6854, 48.40137
832.1675, 46.50000
832.6497, 28.67285
833.1318, 34.19336
833.6139, 65.42480
834.0960, 84.19629
834.5781, 57.08984
835.0602, 27.83887
835.5424, 35.36719
836.0245, 55.79492
836.5066, 53.30859
836.9887, 29.15332
837.4708, 8.665039
837.9529, 5.709961
838.4351, 8.596680
838.9172, 0.1484380
839.3993, 15.40137
839.8814, 21.60059
840.3635, 18.17383
840.8456, 6.716797
841.3278, 13.04395
841.8099, 32.38770
842.2920, 39.98340
842.7741, 37.78418
843.2562, 45.86523
843.7383, 70.51758
844.2205, 78.17090
844.7026, 54.50684
845.1847, 27.05176
845.6668, 9.527344
846.1489, 5.020508
846.6310, 25.95508
847.1132, 99.17188
847.5953, 142.5107
848.0774, 140.9238
848.5595, 126.8721
849.0416, 98.05371
849.5237, 72.22656
850.0059, 76.65723
850.4880, 111.6504
850.9701, 134.7666
851.4522, 121.8223
851.9343, 104.7480
852.4164, 96.30957
852.8986, 95.57031
853.3807, 103.0049
853.8628, 117.1211
854.3449, 136.0293
854.8270, 160.1836
855.3091, 179.9277
855.7913, 183.3838
856.2734, 176.6201
856.7555, 165.3125
857.2376, 153.0039
857.7197, 154.3828
858.2018, 172.9863
858.6840, 184.2432
859.1661, 159.4219
859.6482, 117.2266
860.1303, 118.2900
860.6124, 161.2178
861.0945, 180.7236
861.5767, 161.7900
862.0588, 151.3789
862.5409, 184.6309
863.0230, 236.4355
863.5051, 247.6367
863.9872, 204.7666
864.4694, 184.7412
864.9515, 199.6572
865.4336, 216.2998
865.9157, 229.4736
866.3978, 234.4297
866.8799, 220.0430
867.3621, 189.7080
867.8442, 174.8916
868.3263, 184.1807
868.8084, 195.2305
869.2905, 203.8398
869.7726, 216.1445
870.2548, 242.7188
870.7369, 272.6553
871.2190, 283.7598
871.7011, 269.5400
872.1832, 257.8369
872.6653, 265.0908
873.1475, 275.3359
873.6296, 272.6514
874.1117, 266.6689
874.5938, 277.4014
875.0759, 302.9482
875.5580, 319.4814
876.0402, 310.7002
876.5223, 290.7686
877.0044, 266.4160
877.4865, 246.4424
877.9686, 252.1973
878.4507, 277.5166
878.9329, 299.5547
879.4150, 309.8525
879.8971, 314.2705
880.3792, 316.3369
880.8613, 317.2900
881.3434, 327.9883
881.8256, 347.2871
882.3077, 359.4365
882.7898, 360.9160
883.2719, 359.4502
883.7540, 358.9629
884.2361, 361.9854
884.7183, 376.5146
885.2004, 406.3086
885.6825, 417.6748
886.1646, 402.5967
886.6467, 391.4316
887.1288, 395.8643
887.6110, 404.9990
888.0931, 406.8809
888.5752, 402.6182
889.0573, 403.6904
889.5394, 414.7490
890.0215, 417.9258
890.5037, 404.6748
890.9858, 390.7842
891.4679, 388.2080
891.9500, 389.1787
892.4321, 378.4639
892.9142, 352.4512
893.3964, 330.9824
893.8785, 309.7256
894.3606, 304.0645
894.8427, 331.0850
895.3248, 368.5293
895.8069, 405.3301
896.2891, 433.0713
896.7712, 430.5479
897.2533, 381.0215
897.7354, 327.6885
898.2175, 289.7334
898.6996, 267.5986
899.1818, 271.2930
899.6639, 286.9355
900.1460, 288.8389
900.6281, 272.1396
901.1102, 254.0020
901.5923, 246.5459
902.0745, 244.6982
902.5566, 242.4287
903.0387, 240.5371
903.5208, 242.0791
904.0029, 246.0693
904.4850, 247.4512
904.9672, 243.8301
905.4493, 237.9072
905.9314, 233.7598
906.4135, 229.8770
906.8956, 217.5312
907.3777, 198.7441
907.8599, 194.2529
908.3420, 209.1016
908.8241, 220.0010
909.3062, 207.5488
909.7883, 183.3447
910.2704, 176.8379
910.7526, 188.8564
911.2347, 208.6982
911.7168, 242.5234
912.1990, 246.3633
912.6811, 193.7422
913.1632, 128.5283
913.6453, 100.5449
914.1274, 105.9551
914.6096, 103.0898
915.0917, 84.44043
915.5738, 80.03125
916.0559, 107.4434
916.5380, 124.6973
917.0201, 101.4990
917.5023, 59.44531
917.9844, 35.84766
918.4665, 32.69141
918.9486, 36.69043
919.4307, 56.82031
919.9128, 71.87598
920.3950, 71.91504
920.8771, 71.64746
921.3592, 90.75684
921.8413, 116.5137
922.3234, 110.4102
922.8055, 52.74121
923.2877, 10.45508
923.7698, 10.13672
924.2519, 12.05176
924.7340, 12.13867
925.2161, 36.96289
925.6982, 28.29785
926.1804, 10.21484
926.6625, 42.43359
927.1446, 54.49023
927.6267, 61.56250
928.1088, 67.75195
928.5909, 74.58691
929.0731, 86.39551
929.5552, 98.49414
930.0373, 102.5840
930.5194, 97.57910
931.0015, 90.60938
931.4836, 89.77539
931.9658, 87.29785
932.4479, 61.95898
932.9300, 39.21680
933.4121, 68.40918
933.8942, 133.0068
934.3763, 171.7490
934.8585, 162.2432
935.3406, 134.4648
935.8227, 115.0732
936.3048, 99.48730
936.7869, 78.45117
937.2690, 54.38086
937.7512, 29.35547
938.2333, 6.075195
938.7154, 4.677734
939.1975, 4.194336
939.6796, 20.37500
940.1617, 26.63281
940.6439, 27.27051
941.1260, 33.50195
941.6081, 45.08203
942.0902, 64.17871
942.5723, 89.68945
943.0544, 95.54785
943.5366, 56.70703
944.0187, 0.3134770
944.5008, 10.08691
944.9829, 17.57324
945.4650, 26.75684
945.9471, 14.30957
946.4293, 0.9921880
946.9114, 13.23926
947.3935, 9.435547
947.8756, 30.12695
948.3577, 89.95996
948.8398, 100.7510
949.3220, 60.43652
949.8041, 34.31836
950.2862, 30.34570
950.7683, 34.41016
951.2504, 39.72461
951.7325, 49.82715
952.2147, 73.08984
952.6968, 107.5254
953.1789, 115.0459
953.6610, 87.48145
954.1431, 74.27051
954.6252, 87.68555
955.1074, 103.0508
955.5895, 105.7559
956.0716, 100.7314
956.5537, 97.57129
957.0358, 96.99609
957.5179, 91.32422
958.0001, 77.59277
958.4822, 67.35059
958.9643, 62.26270
959.4464, 62.88574
959.9285, 70.07617
960.4106, 82.82520
960.8928, 102.4209
961.3749, 141.8516
961.8570, 141.4824
962.3391, 61.77734
962.8212, 9.478516
963.3033, 33.51172
963.7855, 73.46289
964.2676, 77.25098
964.7497, 53.09180
965.2318, 36.16504
965.7139, 24.31543
966.1960, 22.94922
966.6782, 31.59375
967.1603, 51.74512
967.6424, 113.5732
968.1245, 164.6709
968.6066, 136.2549
969.0887, 42.90137
969.5709, 9.948242
970.0530, 6.755859
970.5351, 24.01953
971.0172, 40.92285
971.4993, 53.81738
971.9814, 62.59668
972.4636, 65.46484
972.9457, 55.02148
973.4278, 33.25586
973.9099, 26.59277
974.3920, 55.98633
974.8741, 74.91895
975.3563, 67.43555
975.8384, 56.17676
976.3205, 57.13770
976.8026, 60.13281
977.2847, 43.27734
977.7668, 6.083984
978.2490, 6.166016
978.7311, 47.16211
979.2132, 82.55469
979.6953, 52.46484
980.1774, 22.05469
980.6595, 48.56543
981.1417, 99.20703
981.6238, 112.9736
982.1059, 80.68457
982.5880, 52.05176
983.0701, 39.58008
983.5522, 35.49316
984.0344, 43.42871
984.5165, 52.55469
984.9986, 56.42578
985.4807, 54.46191
985.9628, 47.90039
986.4449, 37.50684
986.9271, 18.06543
987.4092, 34.86133
987.8913, 69.16211
988.3734, 40.96484
988.8555, 1.244141
989.3376, 1.780273
989.8198, 26.22070
990.3019, 22.77344
990.7840, 24.52246
991.2661, 46.05762
991.7482, 24.02441
992.2303, 80.03418
992.7125, 51.57031
993.1946, 3.513672
993.6767, 34.61426
994.1588, 42.74707
994.6409, 42.30664
995.1230, 35.18750
995.6052, 34.85645
996.0873, 52.37891
996.5694, 72.45117
997.0515, 86.65039
997.5336, 98.94336
998.0157, 117.6123
998.4979, 137.9355
998.9800, 143.2090
999.4621, 125.2393
999.9442, 116.2773
1000.426, 144.2520
1000.908, 169.7451
1001.391, 166.1934
1001.873, 149.6631
1002.355, 132.1699
1002.837, 119.2559
1003.319, 121.1211
1003.801, 144.8125
1004.283, 157.8018
1004.765, 127.1699
1005.247, 102.2051
1005.730, 122.5732
1006.212, 158.1533
1006.694, 178.0098
1007.176, 181.6953
1007.658, 179.7021
1008.140, 173.5078
1008.622, 171.1348
1009.104, 184.2031
1009.587, 193.1211
1010.069, 178.8076
1010.551, 159.6846
1011.033, 154.5000
1011.515, 162.8760
1011.997, 178.4375
1012.479, 201.0000
1012.961, 221.4531
1013.443, 234.3750
1013.926, 245.3271
1014.408, 267.0117
1014.890, 280.9580
1015.372, 259.8740
1015.854, 214.0146
1016.336, 174.6455
1016.818, 144.9902
1017.300, 146.8701
1017.783, 229.6016
1018.265, 296.8936
1018.747, 277.5381
1019.229, 234.3350
1019.711, 231.8340
1020.193, 261.5762
1020.675, 284.9775
1021.157, 295.1299
1021.639, 289.3203
1022.122, 238.3408
1022.604, 205.5010
1023.086, 240.3145
1023.568, 290.4316
1024.050, 307.6348
1024.532, 298.0059
1025.014, 290.7295
1025.496, 293.7031
1025.979, 284.7559
1026.461, 230.0752
1026.943, 198.5430
1027.425, 240.6934
1027.907, 295.6943
1028.389, 310.6006
1028.871, 297.7500
1029.353, 296.1191
1029.835, 313.4023
1030.318, 324.9658
1030.800, 330.7773
1031.282, 326.0977
1031.764, 299.9160
1032.246, 273.2432
1032.728, 258.6094
1033.210, 256.0576
1033.692, 270.9160
1034.174, 312.0986
1034.657, 330.8438
1035.139, 295.9131
1035.621, 275.9277
1036.103, 306.2266
1036.585, 335.2900
1037.067, 319.9258
1037.549, 282.2383
1038.031, 267.5762
1038.514, 282.2471
1038.996, 291.7676
1039.478, 294.7402
1039.960, 293.2549
1040.442, 285.0654
1040.924, 274.5605
1041.406, 254.9023
1041.888, 240.0029
1042.370, 260.6943
1042.853, 321.2412
1043.335, 337.9414
1043.817, 275.0029
1044.299, 244.2969
1044.781, 280.2188
1045.263, 317.2354
1045.745, 310.4766
1046.227, 287.7764
1046.709, 296.5010
1047.192, 337.2510
1047.674, 353.7812
1048.156, 335.5342
1048.638, 322.1123
1049.120, 313.0889
1049.602, 318.4834
1050.084, 353.5020
1050.566, 381.3350
1051.049, 345.8057
1051.531, 265.5020
1052.013, 257.6104
1052.495, 335.2764
1052.977, 368.2100
1053.459, 342.1260
1053.941, 331.0537
1054.423, 358.1621
1054.906, 385.2598
1055.388, 376.8701
1055.870, 349.2969
1056.352, 347.9316
1056.834, 367.6719
1057.316, 393.9434
1057.798, 427.4883
1058.280, 437.2246
1058.762, 412.6777
1059.245, 393.3887
1059.727, 415.2051
1060.209, 444.4336
1060.691, 395.4844
1061.173, 291.9336
1061.655, 262.6504
1062.137, 301.0664
1062.619, 347.0918
1063.101, 384.6797
1063.584, 396.2422
1064.066, 369.6152
1064.548, 332.7930
1065.030, 324.9258
1065.512, 336.2051
1065.994, 352.7852
1066.476, 367.0430
1066.958, 345.9941
1067.441, 294.8789
1067.923, 266.5957
1068.405, 286.3125
1068.887, 313.8770
1069.369, 310.8105
1069.851, 290.2168
1070.333, 253.5703
1070.815, 220.9414
1071.297, 234.5449
1071.780, 283.7051
1072.262, 330.0508
1072.744, 359.9941
1073.226, 368.7051
1073.708, 337.6895
1074.190, 303.0527
1074.672, 295.0879
1075.154, 298.6016
1075.636, 303.4336
1076.119, 305.0254
1076.601, 301.6719
1077.083, 291.6426
1077.565, 265.4141
1078.047, 198.0879
1078.529, 152.9863
1079.011, 173.8105
1079.494, 210.0879
1079.976, 244.4336
1080.458, 262.8770
1080.940, 242.0742
1081.422, 188.3340
1081.904, 140.2227
1082.386, 98.07812
1082.868, 80.60156
1083.350, 121.5430
1083.833, 148.6855
1084.315, 111.2812
1084.797, 70.58203
1085.279, 101.1504
1085.761, 170.6328
1086.243, 170.8633
1086.725, 71.44922
1087.207, 24.91016
1087.689, 65.39844
1088.172, 98.65234
1088.654, 115.5312
1089.136, 105.6465
1089.618, 45.73633
1090.100, 25.88086
1090.582, 40.68750
1091.064, 0.2968750
1091.546, 32.66797
1092.029, 56.29688
1092.511, 68.18750
1092.993, 64.06055
1093.475, 63.76562
1093.957, 73.84961
1094.439, 104.9805
1094.921, 179.4141
1095.403, 269.5859
1095.885, 265.2656
1096.368, 175.3809
1096.850, 104.6348
1097.332, 59.82812
1097.814, 36.00391
1098.296, 31.55859
1098.778, 41.35742
1099.260, 63.34570
1099.742, 87.31445
1100.224, 97.29883
1100.707, 95.98633
1101.189, 95.71094
1101.671, 87.25000
1102.153, 22.61328
1102.635, 84.96289
1103.117, 136.4297
1103.599, 83.11133
1104.081, 17.41211
1104.564, 29.09180
1105.046, 64.03906
1105.528, 72.16016
1106.010, 64.30859
1106.492, 50.28516
1106.974, 34.98242
1107.456, 23.53516
1107.938, 17.49805
1108.421, 17.73828
1108.903, 39.76562
1109.385, 47.47461
1109.867, 2.478516
1110.349, 44.47656
1110.831, 2.277344
1111.313, 56.94141
1111.795, 18.48242
1112.277, 102.3066
1112.760, 149.8379
1113.242, 36.52539
1113.724, 2.833984
1114.206, 136.4961
1114.688, 241.8418
1115.170, 237.3574
1115.652, 197.3438
1116.134, 165.0293
1116.616, 144.2441
1117.099, 148.0352
1117.581, 181.0781
1118.063, 190.7539
1118.545, 166.1641
1119.027, 160.3555
1119.509, 185.7969
1119.991, 218.7852
1120.473, 251.5918
1120.956, 272.8867
1121.438, 261.8184
1121.920, 234.9316
1122.402, 268.8887
1122.884, 354.9258
1123.366, 395.2051
1123.848, 386.0215
1124.330, 366.2539
1124.813, 348.9473
1125.295, 351.6211
1125.777, 390.2461
1126.259, 439.7207
1126.741, 467.9551
1127.223, 480.5898
1127.705, 475.1328
1128.187, 466.8750
1128.669, 502.0859
1129.151, 567.8145
1129.634, 595.0059
1130.116, 555.8984
1130.598, 511.5234
1131.080, 500.8965
1131.562, 500.9961
1132.044, 487.6172
1132.526, 486.4609
1133.008, 539.3750
1133.491, 612.8535
1133.973, 650.9102
1134.455, 648.7441
1134.937, 637.3105
1135.419, 606.8125
1135.901, 598.5195
1136.383, 648.1973
1136.865, 683.7969
1137.348, 639.5234
1137.830, 607.0195
1138.312, 685.8965
1138.794, 818.7930
1139.276, 847.3535
1139.758, 748.1621
1140.240, 737.3184
1140.722, 849.1113
1141.204, 900.7363
1141.687, 847.6992
1142.169, 800.6191
1142.651, 815.2520
1143.133, 863.6660
1143.615, 918.5039
1144.097, 972.2148
1144.579, 1009.453
1145.061, 1027.711
1145.543, 1000.969
1146.026, 940.7812
1146.508, 920.4688
1146.990, 952.6758
1147.472, 974.3750
1147.954, 943.2578
1148.436, 901.3008
1148.918, 890.6719
1149.400, 900.0312
1149.883, 918.8398
1150.365, 946.2344
1150.847, 996.1211
1151.329, 1052.266
1151.811, 1066.098
1152.293, 1028.730
1152.775, 1009.605
1153.257, 1057.129
1153.740, 1083.684
1154.222, 1027.738
1154.704, 977.1016
1155.186, 988.8281
1155.668, 1030.008
1156.150, 1069.246
1156.632, 1102.523
1157.114, 1118.199
1157.596, 1107.457
1158.078, 1113.227
1158.561, 1126.875
1159.043, 1153.773
1159.525, 1210.910
1160.007, 1252.945
1160.489, 1218.121
1160.971, 1157.836
1161.453, 1135.016
1161.935, 1142.266
1162.418, 1169.480
1162.900, 1219.141
1163.382, 1201.566
1163.864, 1132.215
1164.346, 1079.141
1164.828, 1057.422
1165.310, 1055.348
1165.792, 1055.828
1166.275, 1053.312
1166.757, 1047.516
1167.239, 1031.445
1167.721, 986.9297
1168.203, 937.2930
1168.685, 906.6289
1169.167, 902.3555
1169.649, 940.4453
1170.131, 1019.324
1170.614, 1064.887
1171.096, 1031.336
1171.578, 987.5430
1172.060, 945.2539
1172.542, 908.7188
1173.024, 879.2812
1173.506, 854.8281
1173.988, 824.9688
1174.470, 802.1992
1174.953, 830.0273
1175.435, 924.7266
1175.917, 953.1875
1176.399, 897.4141
1176.881, 856.6992
1177.363, 851.1758
1177.845, 856.5469
1178.327, 869.6953
1178.810, 852.6094
1179.292, 752.1875
1179.774, 620.8320
1180.256, 591.3320
1180.738, 630.2188
1181.220, 641.5898
1181.702, 629.7109
1182.184, 625.5195
1182.667, 634.6211
1183.149, 648.4453
1183.631, 663.6094
1184.113, 653.4023
1184.595, 567.2969
1185.077, 487.6953
1185.559, 468.7383
1186.041, 488.8242
1186.523, 556.3789
1187.005, 631.9531
1187.488, 650.3438
1187.970, 613.3672
1188.452, 597.2891
1188.934, 622.6680
1189.416, 644.1484
1189.898, 671.1328
1190.380, 670.3008
1190.862, 616.4258
1191.345, 570.9336
1191.827, 576.5273
1192.309, 604.6562
1192.791, 607.5117
1193.273, 594.9023
1193.755, 633.1797
1194.237, 709.0078
1194.719, 687.5352
1195.202, 574.8711
1195.684, 473.6250
1196.166, 416.5352
1196.648, 422.5742
1197.130, 512.3047
1197.612, 590.1445
1198.094, 535.8633
1198.576, 445.9531
1199.058, 402.0703
1199.541, 395.1367
1200.023, 424.5391
1200.505, 473.1992
1200.987, 520.8125
1201.469, 560.6992
1201.951, 564.9727
1202.433, 503.5430
1202.915, 452.6562
1203.397, 431.1719
1203.880, 407.6250
1204.362, 373.0312
1204.844, 339.1797
1205.326, 320.7930
1205.808, 297.5781
1206.290, 225.1367
1206.772, 117.7773
1207.254, 94.14062
1207.737, 148.7539
1208.219, 184.0820
1208.701, 189.8867
1209.183, 133.0234
1209.665, 16.09766
1210.147, 45.27734
1210.629, 28.75391
1211.111, 132.5742
1211.594, 154.6484
1212.076, 154.9805
1212.558, 169.6328
1213.040, 84.28906
1213.522, 75.85938
1214.004, 33.83594
1214.486, 10.56641
1214.968, 0.0000000E+00
##END=



