##NAMES=Kingite
##RRUFFID=R060997
##IDEAL CHEMISTRY=Al_3_(PO_4_)_2_F_2_(OH)&#183;7H_2_O
##LOCALITY=Clinton, South Australia
##OWNER=RRUFF
##SOURCE=Bob Jenkins
##DESCRIPTION=White consolidated micron-sized laths
##STATUS=The identification of this mineral is not yet confirmed.
##URL=rruff.info/R060997
149.4858, 0.0000000E+00
149.9679, 52.28906
150.4500, 135.1094
150.9321, 365.6953
151.4142, 632.5938
151.8964, 446.4062
152.3785, 239.6641
152.8606, 19.07812
153.3427, 3.000000
153.8248, 33.50000
154.3069, 35.28906
154.7890, 76.87500
155.2712, 117.1250
155.7533, 29.67188
156.2354, 168.3047
156.7175, 372.4844
157.1996, 512.2656
157.6817, 681.4531
158.1639, 946.4922
158.6460, 1420.727
159.1281, 1889.641
159.6102, 2282.055
160.0923, 2591.703
160.5744, 2877.438
161.0566, 3121.422
161.5387, 3351.844
162.0208, 3597.836
162.5029, 3912.875
162.9850, 4199.812
163.4671, 4399.578
163.9493, 4493.797
164.4314, 4573.055
164.9135, 4708.719
165.3956, 4852.750
165.8777, 4933.680
166.3598, 4906.422
166.8420, 4821.531
167.3241, 4710.023
167.8062, 4575.805
168.2883, 4438.523
168.7704, 4316.430
169.2525, 4207.305
169.7346, 4102.617
170.2168, 3990.469
170.6989, 3887.125
171.1810, 3808.562
171.6631, 3761.977
172.1452, 3736.148
172.6273, 3732.180
173.1095, 3743.867
173.5916, 3757.500
174.0737, 3739.789
174.5558, 3724.078
175.0379, 3757.500
175.5201, 3862.797
176.0022, 4004.195
176.4843, 4133.258
176.9664, 4251.695
177.4485, 4390.375
177.9306, 4597.227
178.4128, 4836.656
178.8949, 5044.969
179.3770, 5200.039
179.8591, 5317.406
180.3412, 5406.883
180.8233, 5471.883
181.3055, 5548.609
181.7876, 5698.930
182.2697, 5893.805
182.7518, 6052.055
183.2339, 6106.898
183.7160, 6113.938
184.1982, 6189.414
184.6803, 6334.727
185.1624, 6521.172
185.6445, 6779.688
186.1266, 7079.453
186.6087, 7277.469
187.0908, 7252.391
187.5730, 7068.859
188.0551, 6961.234
188.5372, 6941.281
189.0193, 6951.734
189.5014, 6942.969
189.9835, 6915.188
190.4657, 6837.406
190.9478, 6657.016
191.4299, 6397.922
191.9120, 6232.219
192.3941, 6187.312
192.8762, 6180.125
193.3584, 6069.406
193.8405, 5853.062
194.3226, 5636.469
194.8047, 5475.094
195.2868, 5368.172
195.7689, 5278.625
196.2511, 5219.469
196.7332, 5162.422
197.2153, 5024.344
197.6974, 4792.531
198.1795, 4597.500
198.6616, 4533.641
199.1438, 4610.125
199.6259, 4668.672
200.1080, 4700.406
200.5901, 4706.297
201.0722, 4671.469
201.5543, 4583.828
202.0364, 4504.938
202.5186, 4467.703
203.0007, 4469.172
203.4828, 4509.109
203.9649, 4586.703
204.4470, 4696.078
204.9291, 4827.812
205.4113, 4993.562
205.8934, 5135.859
206.3755, 5211.594
206.8576, 5212.797
207.3397, 5149.672
207.8218, 5023.812
208.3040, 4853.906
208.7861, 4755.328
209.2682, 4767.719
209.7503, 4774.469
210.2324, 4664.938
210.7145, 4397.828
211.1967, 4181.875
211.6788, 4065.953
212.1609, 4041.719
212.6430, 4020.984
213.1251, 4012.672
213.6072, 4007.453
214.0894, 3979.938
214.5715, 3900.828
215.0536, 3886.531
215.5357, 3973.781
216.0178, 4157.516
216.4999, 4296.781
216.9820, 4377.578
217.4642, 4413.594
217.9463, 4411.625
218.4284, 4340.625
218.9105, 4286.234
219.3926, 4276.328
219.8747, 4310.453
220.3569, 4296.875
220.8390, 4231.438
221.3211, 4124.453
221.8032, 3986.000
222.2853, 3801.672
222.7674, 3628.188
223.2496, 3489.297
223.7317, 3395.406
224.2138, 3266.062
224.6959, 3058.875
225.1780, 2864.328
225.6601, 2809.844
226.1423, 2985.859
226.6244, 3123.562
227.1065, 3128.438
227.5886, 2967.703
228.0707, 2902.062
228.5528, 2989.453
229.0350, 3122.828
229.5171, 3146.359
229.9992, 2994.062
230.4813, 2848.734
230.9634, 2759.562
231.4455, 2735.688
231.9276, 2728.281
232.4098, 2767.125
232.8919, 2803.516
233.3740, 2749.359
233.8561, 2541.516
234.3382, 2357.141
234.8203, 2259.328
235.3025, 2278.969
235.7846, 2256.641
236.2667, 2166.812
236.7488, 2054.594
237.2309, 1992.328
237.7130, 2003.281
238.1952, 2027.250
238.6773, 2049.266
239.1594, 2071.375
239.6415, 2083.938
240.1236, 2095.203
240.6057, 2104.297
241.0879, 2098.938
241.5700, 2041.469
242.0521, 2013.500
242.5342, 2045.703
243.0163, 2154.781
243.4984, 2256.766
243.9806, 2351.062
244.4627, 2436.859
244.9448, 2508.891
245.4269, 2547.766
245.9090, 2590.828
246.3911, 2661.109
246.8732, 2786.688
247.3554, 2811.750
247.8375, 2671.828
248.3196, 2458.766
248.8017, 2354.922
249.2838, 2452.453
249.7659, 2502.797
250.2481, 2410.125
250.7302, 2123.047
251.2123, 1901.641
251.6944, 1790.250
252.1765, 1731.844
252.6586, 1618.344
253.1408, 1419.422
253.6229, 1238.844
254.1050, 1112.984
254.5871, 1047.188
255.0692, 1043.266
255.5513, 1148.766
256.0334, 1289.312
256.5156, 1329.375
256.9977, 1212.375
257.4798, 1099.266
257.9619, 1037.422
258.4440, 1023.828
258.9261, 1065.188
259.4083, 1189.891
259.8904, 1340.172
260.3725, 1392.391
260.8546, 1268.266
261.3367, 1215.547
261.8188, 1353.594
262.3010, 1750.406
262.7831, 1966.828
263.2652, 1940.172
263.7473, 1784.688
264.2294, 1696.859
264.7115, 1701.531
265.1937, 1708.812
265.6758, 1691.828
266.1579, 1652.125
266.6400, 1565.391
267.1221, 1413.750
267.6042, 1239.797
268.0864, 1110.688
268.5685, 1039.250
269.0506, 986.7656
269.5327, 954.8125
270.0148, 952.7344
270.4969, 894.5938
270.9791, 767.1406
271.4612, 610.2969
271.9433, 469.6406
272.4254, 338.2500
272.9075, 261.2500
273.3896, 266.2188
273.8718, 354.8906
274.3539, 447.4062
274.8360, 548.5312
275.3181, 648.9844
275.8002, 732.3281
276.2823, 792.4219
276.7645, 859.2969
277.2466, 953.3281
277.7287, 1070.531
278.2108, 1133.281
278.6929, 1124.484
279.1750, 1098.547
279.6572, 1129.469
280.1393, 1221.125
280.6214, 1301.156
281.1035, 1336.422
281.5856, 1333.219
282.0677, 1363.672
282.5499, 1435.875
283.0320, 1509.219
283.5141, 1546.109
283.9962, 1547.641
284.4783, 1504.750
284.9604, 1409.047
285.4425, 1269.406
285.9247, 1113.766
286.4068, 939.6719
286.8889, 776.0625
287.3710, 647.6094
287.8531, 555.1719
288.3352, 496.6875
288.8174, 466.5781
289.2995, 473.2031
289.7816, 574.2656
290.2637, 773.9688
290.7458, 950.2031
291.2279, 972.0312
291.7101, 857.4688
292.1922, 708.2344
292.6743, 536.9062
293.1564, 356.3906
293.6385, 186.9688
294.1206, 29.67188
294.6028, 96.65625
295.0849, 165.3750
295.5670, 184.3125
296.0491, 174.2812
296.5312, 105.0781
297.0133, 40.00000
297.4955, 122.8281
297.9776, 336.7656
298.4597, 525.4219
298.9418, 568.1562
299.4239, 498.5781
299.9060, 387.2812
300.3882, 247.7812
300.8703, 84.46875
301.3524, 88.34375
301.8345, 268.6562
302.3166, 465.1250
302.7987, 680.8594
303.2809, 900.5469
303.7630, 1115.500
304.2451, 1319.969
304.7272, 1499.625
305.2093, 1649.047
305.6914, 1759.234
306.1736, 1794.703
306.6557, 1692.016
307.1378, 1528.109
307.6199, 1399.188
308.1020, 1337.812
308.5841, 1305.688
309.0663, 1286.844
309.5484, 1271.656
310.0305, 1230.422
310.5126, 1152.484
310.9947, 1046.562
311.4768, 905.7031
311.9590, 729.5312
312.4411, 565.6094
312.9232, 447.5156
313.4053, 366.6406
313.8874, 301.8281
314.3695, 238.8906
314.8517, 191.4688
315.3337, 179.2812
315.8159, 212.1719
316.2980, 230.5938
316.7801, 221.5312
317.2622, 182.5000
317.7443, 111.7500
318.2264, 37.78125
318.7086, 173.0000
319.1907, 254.3906
319.6728, 277.5938
320.1549, 271.8594
320.6370, 251.3750
321.1191, 199.8594
321.6013, 102.5938
322.0834, 128.3438
322.5655, 310.5156
323.0476, 345.9844
323.5297, 242.8594
324.0118, 236.7500
324.4940, 453.2031
324.9761, 726.4375
325.4582, 940.2969
325.9403, 1047.250
326.4224, 1122.828
326.9045, 1165.438
327.3867, 1181.859
327.8688, 1206.266
328.3509, 1283.328
328.8330, 1333.359
329.3151, 1317.531
329.7972, 1133.828
330.2794, 1033.500
330.7615, 1063.328
331.2436, 1184.047
331.7257, 1264.953
332.2078, 1311.656
332.6899, 1318.781
333.1721, 1279.516
333.6542, 1169.203
334.1363, 1079.359
334.6184, 1023.719
335.1005, 985.9375
335.5826, 931.4531
336.0648, 847.4375
336.5469, 776.0625
337.0290, 727.7656
337.5111, 698.9219
337.9932, 708.0625
338.4753, 758.0156
338.9575, 829.6719
339.4396, 914.6875
339.9217, 1025.016
340.4038, 1076.297
340.8859, 1034.047
341.3680, 902.1250
341.8502, 753.8125
342.3323, 586.0312
342.8144, 425.1875
343.2965, 302.2969
343.7786, 220.9062
344.2607, 161.4062
344.7429, 134.5781
345.2250, 129.8281
345.7071, 91.07812
346.1892, 18.95312
346.6713, 19.35938
347.1534, 66.32812
347.6355, 244.5625
348.1176, 360.6250
348.5998, 345.4375
349.0819, 305.5156
349.5640, 462.0156
350.0461, 790.4688
350.5282, 1082.750
351.0103, 1134.422
351.4925, 1059.234
351.9746, 1105.875
352.4567, 1343.031
352.9388, 1583.531
353.4209, 1610.812
353.9030, 1475.875
354.3852, 1325.328
354.8673, 1277.938
355.3494, 1238.250
355.8315, 1068.781
356.3136, 743.6875
356.7957, 467.8594
357.2779, 479.5312
357.7600, 637.5625
358.2421, 706.6406
358.7242, 484.1094
359.2063, 227.3750
359.6884, 92.89062
360.1706, 84.12500
360.6527, 118.5625
361.1348, 180.1406
361.6169, 253.4062
362.0990, 320.4844
362.5811, 388.1719
363.0633, 432.5469
363.5454, 467.4531
364.0275, 478.9375
364.5096, 398.2344
364.9917, 66.15625
365.4738, 270.2031
365.9560, 464.5781
366.4381, 391.7031
366.9202, 310.1250
367.4023, 243.4844
367.8844, 181.4531
368.3665, 100.1250
368.8487, 95.93750
369.3308, 234.0781
369.8129, 235.0469
370.2950, 7.140625
370.7771, 113.5938
371.2592, 91.84375
371.7414, 12.28125
372.2235, 125.2969
372.7056, 267.5000
373.1877, 379.6719
373.6698, 428.2188
374.1519, 403.0469
374.6341, 415.9531
375.1162, 484.0781
375.5983, 549.5625
376.0804, 531.0469
376.5625, 388.5156
377.0446, 325.6719
377.5267, 422.4844
378.0089, 628.8906
378.4910, 689.2500
378.9731, 586.0156
379.4552, 448.6250
379.9373, 396.6562
380.4194, 421.7969
380.9016, 354.0781
381.3837, 142.3438
381.8658, 109.0625
382.3479, 206.8750
382.8300, 156.0781
383.3121, 45.79688
383.7943, 106.6094
384.2764, 276.3281
384.7585, 386.3281
385.2406, 413.1875
385.7227, 445.3125
386.2048, 577.0312
386.6870, 778.2656
387.1691, 985.5625
387.6512, 1164.062
388.1333, 1321.016
388.6154, 1484.172
389.0975, 1645.297
389.5797, 1745.219
390.0618, 1690.031
390.5439, 1565.609
391.0260, 1474.656
391.5081, 1494.406
391.9902, 1513.391
392.4724, 1495.562
392.9545, 1435.938
393.4366, 1318.391
393.9187, 1064.469
394.4008, 812.9375
394.8829, 655.3750
395.3651, 649.6250
395.8472, 659.1406
396.3293, 668.7969
396.8114, 668.3906
397.2935, 641.1719
397.7756, 505.4219
398.2578, 409.3438
398.7399, 405.8906
399.2220, 516.9375
399.7041, 607.7188
400.1862, 679.4688
400.6683, 723.3906
401.1505, 728.0781
401.6326, 654.0312
402.1147, 608.3125
402.5968, 630.0156
403.0789, 707.9219
403.5610, 711.1875
404.0432, 592.2188
404.5253, 479.6562
405.0074, 481.5156
405.4895, 639.2344
405.9716, 727.7344
406.4537, 690.7969
406.9359, 602.5625
407.4180, 629.0469
407.9001, 783.3125
408.3822, 953.3438
408.8643, 1104.625
409.3464, 1232.500
409.8285, 1304.922
410.3106, 1316.719
410.7928, 1290.797
411.2749, 1228.828
411.7570, 1145.859
412.2391, 1102.344
412.7212, 1113.797
413.2033, 1181.812
413.6855, 1342.031
414.1676, 1580.797
414.6497, 1789.562
415.1318, 1851.172
415.6139, 1838.547
416.0960, 1850.438
416.5782, 1915.875
417.0603, 1987.828
417.5424, 2046.125
418.0245, 2080.531
418.5066, 2062.562
418.9887, 1893.250
419.4709, 1730.016
419.9530, 1697.406
420.4351, 1835.938
420.9172, 1930.344
421.3993, 1884.906
421.8814, 1769.562
422.3636, 1659.562
422.8457, 1580.859
423.3278, 1481.422
423.8099, 1369.000
424.2920, 1260.859
424.7741, 1134.859
425.2563, 969.0469
425.7384, 804.7031
426.2205, 665.5156
426.7026, 573.5312
427.1847, 470.0938
427.6668, 306.8906
428.1490, 130.7188
428.6311, 81.12500
429.1132, 215.6875
429.5953, 370.2500
430.0774, 474.1094
430.5595, 521.5312
431.0417, 598.8594
431.5238, 724.0938
432.0059, 819.8281
432.4880, 756.7031
432.9701, 537.0938
433.4522, 411.2500
433.9344, 490.7188
434.4165, 669.7969
434.8986, 669.6406
435.3807, 501.5938
435.8628, 348.2188
436.3449, 402.4531
436.8271, 565.0312
437.3092, 588.1875
437.7913, 399.0625
438.2734, 204.2656
438.7555, 250.1094
439.2376, 444.2031
439.7197, 578.4844
440.2018, 524.7656
440.6840, 412.7969
441.1661, 309.1562
441.6482, 217.0938
442.1303, 203.5938
442.6124, 370.7188
443.0945, 591.2969
443.5767, 747.8906
444.0588, 766.8281
444.5409, 769.3750
445.0230, 815.8281
445.5051, 879.7500
445.9872, 865.8906
446.4694, 672.0469
446.9515, 478.9531
447.4336, 368.5781
447.9157, 396.4531
448.3978, 365.1250
448.8799, 209.9688
449.3621, 38.87500
449.8442, 6.656250
450.3263, 128.2500
450.8084, 264.7188
451.2905, 378.3594
451.7726, 460.8594
452.2548, 462.4219
452.7369, 353.9219
453.2190, 247.2969
453.7011, 239.0625
454.1832, 326.7500
454.6653, 370.0000
455.1475, 343.6719
455.6296, 294.4688
456.1117, 313.0156
456.5938, 390.0156
457.0759, 455.5781
457.5580, 461.8594
458.0402, 437.4375
458.5223, 449.9844
459.0044, 503.5156
459.4865, 521.7344
459.9686, 385.8906
460.4507, 194.6875
460.9329, 102.2656
461.4150, 233.5312
461.8971, 356.2812
462.3792, 267.8125
462.8613, 45.89062
463.3434, 92.35938
463.8256, 29.59375
464.3077, 118.2344
464.7898, 322.7188
465.2719, 618.0000
465.7540, 807.4531
466.2361, 711.8906
466.7183, 551.1094
467.2004, 560.1406
467.6825, 962.0469
468.1646, 1279.125
468.6467, 1410.328
469.1288, 1387.281
469.6110, 1467.828
470.0930, 1733.062
470.5752, 1963.594
471.0573, 2015.406
471.5394, 1821.312
472.0215, 1739.391
472.5036, 1807.672
472.9857, 1931.438
473.4679, 1967.578
473.9500, 1913.438
474.4321, 1834.562
474.9142, 1742.469
475.3963, 1651.609
475.8784, 1625.625
476.3606, 1668.281
476.8427, 1696.141
477.3248, 1596.625
477.8069, 1434.516
478.2890, 1352.625
478.7711, 1416.000
479.2533, 1498.922
479.7354, 1450.234
480.2175, 1344.156
480.6996, 1331.781
481.1817, 1502.062
481.6638, 1738.438
482.1460, 1983.250
482.6281, 2227.781
483.1102, 2453.703
483.5923, 2600.172
484.0744, 2740.797
484.5565, 2928.641
485.0387, 3243.578
485.5208, 3493.547
486.0029, 3669.141
486.4850, 3763.672
486.9671, 3757.625
487.4492, 3612.406
487.9314, 3420.000
488.4135, 3208.125
488.8956, 2981.703
489.3777, 2767.297
489.8598, 2593.250
490.3419, 2401.922
490.8241, 2104.734
491.3062, 1693.312
491.7883, 1397.703
492.2704, 1275.578
492.7525, 1270.453
493.2346, 1290.594
493.7168, 1328.344
494.1989, 1340.484
494.6810, 1303.094
495.1631, 1214.859
495.6452, 1059.516
496.1273, 827.8906
496.6095, 593.7344
497.0916, 403.4688
497.5737, 250.8125
498.0558, 131.4062
498.5379, 48.95312
499.0201, 2.250000
499.5022, 6.125000
499.9843, 25.96875
500.4664, 51.40625
500.9485, 30.09375
501.4306, 25.96875
501.9127, 88.40625
502.3948, 237.6250
502.8770, 315.7344
503.3591, 218.7344
503.8412, 107.5156
504.3233, 131.7500
504.8054, 392.0625
505.2875, 587.3438
505.7697, 664.7188
506.2518, 650.0781
506.7339, 644.0000
507.2160, 655.0312
507.6981, 625.2656
508.1802, 484.5469
508.6624, 244.0156
509.1445, 178.8906
509.6266, 321.8594
510.1087, 488.7188
510.5908, 443.9375
511.0729, 249.2344
511.5551, 125.2500
512.0372, 165.7969
512.5193, 269.1875
513.0014, 310.4844
513.4835, 308.0781
513.9656, 318.6562
514.4478, 359.8438
514.9299, 433.1094
515.4120, 556.8906
515.8941, 738.7500
516.3762, 879.4219
516.8583, 861.4688
517.3405, 809.7344
517.8226, 839.6875
518.3047, 1064.703
518.7868, 1258.875
519.2689, 1398.953
519.7510, 1485.766
520.2332, 1515.672
520.7153, 1429.344
521.1974, 1362.469
521.6795, 1401.734
522.1616, 1570.953
522.6437, 1587.031
523.1259, 1398.047
523.6080, 1177.516
524.0901, 1117.969
524.5722, 1221.812
525.0543, 1268.250
525.5364, 1196.906
526.0186, 1091.719
526.5007, 1142.969
526.9828, 1313.203
527.4649, 1414.844
527.9470, 1275.375
528.4291, 1040.047
528.9113, 903.9844
529.3934, 872.3438
529.8755, 841.8125
530.3576, 725.0000
530.8397, 584.4688
531.3218, 486.5625
531.8040, 481.4531
532.2861, 469.0625
532.7682, 463.5469
533.2503, 428.0625
533.7324, 281.9531
534.2145, 197.8125
534.6967, 556.4219
535.1788, 643.1094
535.6609, 447.5312
536.1430, 300.4688
536.6251, 196.8750
537.1072, 149.7344
537.5894, 203.0312
538.0715, 387.5469
538.5536, 448.5625
539.0357, 345.0781
539.5178, 162.0938
539.9999, 44.48438
540.4821, 12.32812
540.9642, 131.9062
541.4463, 422.1406
541.9284, 759.5781
542.4105, 872.6094
542.8926, 788.7812
543.3748, 752.1875
543.8569, 1042.812
544.3390, 1403.391
544.8211, 1540.125
545.3032, 1362.266
545.7853, 1172.234
546.2675, 1121.812
546.7495, 1146.234
547.2316, 1167.266
547.7137, 1132.125
548.1959, 1135.391
548.6780, 1269.484
549.1601, 1487.797
549.6422, 1542.953
550.1243, 1343.125
550.6064, 1107.125
551.0886, 900.7656
551.5707, 713.3281
552.0528, 667.9062
552.5349, 806.0469
553.0170, 985.9844
553.4991, 1075.359
553.9813, 1074.547
554.4634, 991.0000
554.9455, 802.1562
555.4276, 573.8125
555.9097, 400.7969
556.3918, 280.1562
556.8740, 198.4844
557.3561, 215.1250
557.8382, 236.7969
558.3203, 120.7188
558.8024, 124.1250
559.2845, 291.2969
559.7667, 213.7188
560.2488, 42.17188
560.7309, 106.6875
561.2130, 202.7656
561.6951, 287.5156
562.1772, 348.8594
562.6594, 411.4375
563.1415, 511.5469
563.6236, 679.5000
564.1057, 823.1250
564.5878, 922.9062
565.0699, 978.1094
565.5521, 995.1562
566.0342, 946.1719
566.5163, 943.3438
566.9984, 1107.719
567.4805, 1415.422
567.9626, 1560.578
568.4448, 1524.688
568.9269, 1417.609
569.4090, 1354.656
569.8911, 1315.125
570.3732, 1238.922
570.8553, 1082.531
571.3375, 930.0312
571.8196, 845.2969
572.3017, 823.8594
572.7838, 853.4688
573.2659, 1046.531
573.7480, 1185.734
574.2302, 1122.391
574.7123, 843.5000
575.1944, 635.6562
575.6765, 617.2344
576.1586, 635.6875
576.6407, 610.9844
577.1229, 543.5469
577.6050, 441.6406
578.0871, 283.0938
578.5692, 123.2188
579.0513, 53.92188
579.5334, 91.48438
580.0156, 107.2031
580.4977, 33.68750
580.9798, 51.48438
581.4619, 112.2812
581.9440, 492.7812
582.4261, 792.5312
582.9083, 697.6562
583.3904, 452.7812
583.8725, 436.7188
584.3546, 671.7812
584.8367, 912.0000
585.3188, 998.1875
585.8010, 1007.219
586.2831, 1012.406
586.7652, 1000.094
587.2473, 1031.188
587.7294, 1182.875
588.2115, 1377.938
588.6937, 1471.406
589.1758, 1366.906
589.6579, 1295.406
590.1400, 1329.844
590.6221, 1448.406
591.1042, 1460.938
591.5864, 1329.156
592.0685, 1199.844
592.5506, 1175.469
593.0327, 1262.250
593.5148, 1348.781
593.9969, 1429.344
594.4791, 1519.125
594.9612, 1674.469
595.4433, 1842.344
595.9254, 1890.031
596.4075, 1729.594
596.8896, 1583.469
597.3718, 1656.094
597.8539, 1871.750
598.3360, 2078.906
598.8181, 2222.875
599.3002, 2341.781
599.7823, 2462.594
600.2645, 2583.531
600.7466, 2633.500
601.2287, 2470.719
601.7108, 2369.562
602.1929, 2474.188
602.6750, 2844.719
603.1572, 3169.062
603.6393, 3453.438
604.1214, 3686.469
604.6035, 3845.062
605.0856, 3931.156
605.5677, 4012.094
606.0499, 4092.406
606.5320, 4192.219
607.0141, 4379.688
607.4962, 4620.875
607.9783, 4808.875
608.4604, 4808.469
608.9425, 4785.094
609.4246, 4901.969
609.9067, 5142.094
610.3889, 5352.688
610.8710, 5472.062
611.3531, 5536.594
611.8352, 5553.812
612.3173, 5492.375
612.7994, 5493.156
613.2816, 5630.875
613.7637, 5787.906
614.2458, 5848.438
614.7279, 5773.125
615.2100, 5759.281
615.6921, 5869.000
616.1743, 6011.000
616.6564, 5932.344
617.1385, 5639.750
617.6206, 5453.625
618.1027, 5552.500
618.5848, 5799.062
619.0670, 5954.875
619.5491, 6033.875
620.0312, 6134.062
620.5133, 6354.000
620.9954, 6598.969
621.4775, 6793.812
621.9597, 6892.625
622.4418, 6972.938
622.9239, 7076.812
623.4060, 7191.219
623.8881, 7302.031
624.3702, 7535.000
624.8524, 7561.969
625.3345, 7270.562
625.8166, 6834.500
626.2987, 6565.312
626.7808, 6500.500
627.2629, 6431.031
627.7451, 6293.000
628.2272, 6120.406
628.7093, 6048.531
629.1914, 6069.000
629.6735, 6016.844
630.1556, 5691.406
630.6378, 5280.156
631.1199, 5082.094
631.6020, 5109.344
632.0841, 5121.219
632.5662, 4909.125
633.0483, 4653.812
633.5305, 4528.188
634.0126, 4665.562
634.4947, 4711.969
634.9768, 4522.812
635.4589, 4241.938
635.9410, 4041.000
636.4232, 3954.750
636.9053, 3869.188
637.3874, 3762.062
637.8695, 3642.219
638.3516, 3532.031
638.8337, 3425.969
639.3159, 3349.500
639.7980, 3334.656
640.2801, 3348.312
640.7622, 3298.719
641.2443, 3193.938
641.7264, 3093.906
642.2086, 3057.406
642.6907, 3045.938
643.1728, 3027.188
643.6549, 3004.312
644.1370, 2960.094
644.6191, 2864.406
645.1013, 2769.375
645.5834, 2718.750
646.0655, 2693.344
646.5476, 2752.062
647.0297, 2941.344
647.5118, 3177.844
647.9940, 3279.688
648.4761, 3169.000
648.9582, 3245.344
649.4403, 3682.875
649.9224, 4294.438
650.4045, 4606.656
650.8867, 4634.188
651.3688, 4583.219
651.8509, 4554.094
652.3330, 4533.531
652.8151, 4512.812
653.2972, 4482.312
653.7794, 4392.844
654.2615, 4184.906
654.7436, 3967.062
655.2257, 3807.406
655.7078, 3711.312
656.1899, 3680.156
656.6721, 3775.375
657.1542, 3876.438
657.6363, 3895.438
658.1184, 3851.125
658.6005, 3688.250
659.0826, 3333.000
659.5648, 2936.125
660.0469, 2824.781
660.5290, 2980.406
661.0111, 3071.500
661.4932, 2982.812
661.9753, 2775.656
662.4575, 2475.000
662.9396, 2125.469
663.4217, 1881.469
663.9038, 1909.094
664.3859, 2021.875
664.8680, 2117.969
665.3502, 2194.188
665.8323, 2221.500
666.3144, 2101.750
666.7965, 2000.875
667.2786, 1988.875
667.7607, 2042.094
668.2429, 2256.375
668.7250, 2726.469
669.2071, 3166.375
669.6892, 3229.594
670.1713, 2915.531
670.6534, 2662.469
671.1355, 2541.469
671.6176, 2455.688
672.0997, 2281.469
672.5818, 2044.000
673.0640, 1802.719
673.5461, 1592.812
674.0282, 1398.094
674.5103, 1265.344
674.9924, 1160.812
675.4745, 970.3438
675.9567, 484.9062
676.4388, 113.8750
676.9209, 112.8438
677.4030, 445.0938
677.8851, 468.2188
678.3672, 3.406250
678.8494, 414.7812
679.3315, 451.6562
679.8136, 129.0938
680.2957, 202.9375
680.7778, 529.5938
681.2599, 823.8750
681.7421, 1042.938
682.2242, 1197.969
682.7063, 1301.062
683.1884, 1340.312
683.6705, 1373.719
684.1526, 1495.625
684.6348, 1613.844
685.1169, 1623.781
685.5990, 1312.312
686.0811, 1121.281
686.5632, 1249.062
687.0453, 1519.625
687.5275, 1634.156
688.0096, 1558.125
688.4917, 1418.500
688.9738, 1195.781
689.4559, 964.6562
689.9380, 1006.969
690.4202, 1312.531
690.9023, 1605.406
691.3844, 1701.188
691.8665, 1691.281
692.3486, 1735.594
692.8307, 1820.844
693.3129, 1849.094
693.7950, 1642.656
694.2771, 1436.562
694.7592, 1437.312
695.2413, 1728.656
695.7234, 1877.625
696.2056, 1706.812
696.6877, 1461.719
697.1698, 1310.906
697.6519, 1318.375
698.1340, 1218.969
698.6161, 993.5938
699.0983, 714.1875
699.5804, 437.5312
700.0625, 181.5625
700.5446, 30.31250
701.0267, 27.90625
701.5089, 79.56250
701.9910, 70.87500
702.4731, 36.93750
702.9552, 44.87500
703.4373, 205.8750
703.9194, 321.8125
704.4016, 279.4688
704.8837, 118.0625
705.3658, 17.12500
705.8479, 118.0312
706.3300, 199.4688
706.8121, 268.1250
707.2943, 323.8438
707.7764, 346.4688
708.2585, 327.2500
708.7406, 321.6875
709.2227, 392.8125
709.7048, 495.8125
710.1870, 471.3125
710.6691, 316.7500
711.1512, 218.3438
711.6333, 368.9688
712.1154, 599.4375
712.5975, 767.0000
713.0797, 862.8125
713.5618, 838.6562
714.0439, 590.0625
714.5260, 276.0312
715.0081, 27.71875
715.4902, 111.6250
715.9724, 255.9375
716.4545, 416.0938
716.9366, 555.0000
717.4187, 623.0938
717.9008, 620.8125
718.3829, 529.9062
718.8651, 296.4688
719.3472, 89.84375
719.8293, 181.1250
720.3114, 466.9688
720.7935, 723.9375
721.2756, 896.2188
721.7578, 977.6562
722.2399, 899.9062
722.7220, 721.1250
723.2041, 617.8438
723.6862, 701.6250
724.1683, 751.0000
724.6505, 675.5625
725.1326, 511.4062
725.6147, 527.3125
726.0968, 765.3438
726.5789, 939.2500
727.0610, 810.4062
727.5432, 508.6250
728.0253, 462.6562
728.5074, 653.9062
728.9895, 836.2500
729.4716, 795.3438
729.9537, 692.5625
730.4359, 701.7812
730.9180, 863.3125
731.4001, 947.5938
731.8822, 842.0625
732.3643, 678.0625
732.8464, 530.1562
733.3285, 361.9375
733.8106, 320.5625
734.2927, 436.5000
734.7748, 609.5938
735.2570, 770.6250
735.7391, 907.5625
736.2212, 911.6562
736.7033, 714.8438
737.1854, 511.1562
737.6675, 556.6562
738.1497, 727.9062
738.6318, 830.0312
739.1139, 790.1875
739.5960, 711.4375
740.0781, 621.0938
740.5602, 532.5312
741.0424, 459.6250
741.5245, 334.6250
742.0066, 359.5312
742.4887, 609.0938
742.9708, 994.0312
743.4529, 1296.125
743.9351, 1505.250
744.4172, 1709.406
744.8993, 1929.594
745.3814, 2151.688
745.8635, 2305.625
746.3456, 2424.719
746.8278, 2657.250
747.3099, 3325.062
747.7920, 3898.469
748.2741, 4041.812
748.7562, 3772.031
749.2383, 3413.125
749.7205, 2921.375
750.2026, 2487.375
750.6847, 2209.156
751.1668, 2093.625
751.6489, 1968.844
752.1310, 1843.625
752.6132, 1732.688
753.0953, 1618.312
753.5774, 1531.750
754.0595, 1578.562
754.5416, 1757.562
755.0237, 1909.156
755.5059, 1849.656
755.9880, 1742.750
756.4701, 1726.938
756.9522, 1824.000
757.4343, 1955.438
757.9164, 2276.906
758.3986, 2470.938
758.8807, 2260.125
759.3628, 1484.094
759.8449, 1034.469
760.3270, 1018.156
760.8091, 1138.656
761.2913, 1055.594
761.7734, 838.0000
762.2555, 710.5000
762.7376, 744.3438
763.2197, 809.9375
763.7018, 775.8750
764.1840, 721.5312
764.6661, 746.5625
765.1482, 911.4062
765.6303, 1106.500
766.1124, 1322.188
766.5945, 1541.438
767.0767, 1710.438
767.5588, 1759.844
768.0409, 1960.094
768.5230, 2398.656
769.0051, 2927.812
769.4872, 3316.625
769.9694, 3560.156
770.4515, 3656.625
770.9336, 3522.281
771.4157, 3358.906
771.8978, 3400.219
772.3799, 3568.438
772.8621, 3664.438
773.3442, 3580.469
773.8263, 3458.406
774.3084, 3316.062
774.7905, 3178.906
775.2726, 3133.062
775.7548, 3232.375
776.2369, 3276.531
776.7190, 3178.750
777.2011, 2999.344
777.6832, 2887.781
778.1653, 2842.156
778.6475, 2838.938
779.1296, 2859.438
779.6117, 2914.312
780.0938, 3009.688
780.5759, 3139.031
781.0580, 3303.188
781.5402, 3540.719
782.0223, 3760.344
782.5044, 3921.344
782.9865, 4020.094
783.4686, 4125.812
783.9507, 4258.156
784.4329, 4321.406
784.9150, 4197.469
785.3971, 3964.688
785.8792, 3953.688
786.3613, 4154.438
786.8434, 4370.531
787.3256, 4460.281
787.8077, 4512.875
788.2898, 4618.969
788.7719, 4790.594
789.2540, 4922.156
789.7361, 4885.562
790.2183, 4890.344
790.7004, 5044.656
791.1825, 5368.562
791.6646, 5664.469
792.1467, 5930.250
792.6288, 6137.781
793.1110, 6200.969
793.5930, 6185.375
794.0751, 6349.781
794.5573, 6714.000
795.0394, 6981.781
795.5215, 6833.094
796.0036, 6548.562
796.4857, 6370.062
796.9678, 6368.031
797.4500, 6371.656
797.9321, 6340.125
798.4142, 6345.562
798.8963, 6473.469
799.3784, 6772.656
799.8605, 6900.781
800.3427, 6838.031
800.8248, 6686.812
801.3069, 6455.844
801.7890, 6230.375
802.2711, 6223.719
802.7532, 6501.406
803.2354, 6789.938
803.7175, 6953.312
804.1996, 7034.000
804.6817, 7066.594
805.1638, 6986.188
805.6459, 6994.750
806.1281, 7154.750
806.6102, 7329.156
807.0923, 7342.750
807.5744, 7197.969
808.0565, 7190.812
808.5386, 7373.000
809.0208, 7595.625
809.5029, 7721.500
809.9850, 7762.594
810.4671, 7713.969
810.9492, 7522.406
811.4313, 7422.750
811.9135, 7550.656
812.3956, 7776.469
812.8777, 7969.875
813.3598, 8109.625
813.8419, 8198.188
814.3240, 8201.656
814.8062, 8168.656
815.2883, 8126.156
815.7704, 8094.594
816.2525, 8215.156
816.7346, 8547.625
817.2167, 8878.094
817.6989, 9040.938
818.1810, 9055.375
818.6631, 8942.500
819.1452, 8554.656
819.6273, 8298.750
820.1094, 8360.656
820.5916, 8558.906
821.0737, 8718.781
821.5558, 8842.281
822.0379, 8909.125
822.5200, 8893.750
823.0021, 8879.594
823.4843, 8995.750
823.9664, 9204.250
824.4485, 9417.875
824.9306, 9635.812
825.4127, 9783.531
825.8948, 9703.250
826.3770, 9557.062
826.8591, 9545.719
827.3412, 9738.406
827.8233, 10038.50
828.3054, 10583.53
828.7875, 11079.12
829.2697, 11037.56
829.7518, 10452.69
830.2339, 10005.53
830.7160, 9814.375
831.1981, 9774.875
831.6802, 9883.094
832.1624, 10029.56
832.6445, 10006.59
833.1266, 9650.469
833.6087, 9336.375
834.0908, 9276.031
834.5729, 9296.969
835.0551, 9171.438
835.5372, 8796.281
836.0193, 8560.031
836.5014, 8514.281
836.9835, 8567.531
837.4656, 8659.781
837.9478, 8749.156
838.4299, 8653.906
838.9120, 8285.938
839.3941, 7900.031
839.8762, 7716.500
840.3583, 7633.344
840.8405, 7524.938
841.3226, 7294.750
841.8047, 7160.188
842.2868, 7226.531
842.7689, 7300.000
843.2510, 7121.719
843.7332, 6666.781
844.2153, 6298.625
844.6974, 6063.469
845.1795, 5887.562
845.6616, 5717.688
846.1437, 5535.469
846.6259, 5310.469
847.1080, 5026.938
847.5901, 4715.969
848.0722, 4382.938
848.5543, 4031.000
849.0364, 3673.781
849.5186, 3356.062
850.0007, 2890.906
850.4828, 2198.156
850.9649, 1556.031
851.4470, 1355.812
851.9291, 1486.281
852.4113, 1504.906
852.8934, 1350.875
853.3755, 1148.969
853.8576, 919.1250
854.3397, 727.7812
854.8218, 686.6250
855.3040, 925.2812
855.7860, 1032.781
856.2681, 898.3438
856.7502, 720.6562
857.2324, 645.8750
857.7145, 671.1562
858.1966, 758.7812
858.6787, 901.9375
859.1608, 1122.938
859.6429, 1610.344
860.1251, 2094.281
860.6072, 2143.375
861.0893, 1638.344
861.5714, 1308.531
862.0535, 1623.406
862.5356, 2002.406
863.0178, 2084.344
863.4999, 1815.250
863.9820, 1617.750
864.4641, 1517.062
864.9462, 1397.000
865.4283, 1100.781
865.9105, 733.8125
866.3926, 620.5000
866.8747, 761.6250
867.3568, 806.5938
867.8389, 396.3750
868.3210, 65.37500
868.8032, 270.3438
869.2853, 150.4688
869.7674, 230.8750
870.2495, 658.0312
870.7316, 990.3750
871.2137, 944.5000
871.6959, 597.7500
872.1780, 392.0625
872.6601, 322.5625
873.1422, 340.7812
873.6243, 543.0000
874.1064, 728.3125
874.5886, 694.6250
875.0707, 464.0312
875.5528, 245.8750
876.0349, 133.8125
876.5170, 1.625000
876.9991, 195.0938
877.4813, 433.3750
877.9634, 614.9688
878.4455, 739.5938
878.9276, 818.7812
879.4097, 860.9375
879.8918, 862.2812
880.3740, 790.3438
880.8561, 674.5625
881.3382, 592.4688
881.8203, 573.7500
882.3024, 604.5938
882.7845, 738.9688
883.2667, 909.1562
883.7488, 903.5625
884.2309, 641.7188
884.7130, 640.5000
885.1951, 1139.062
885.6772, 1792.188
886.1594, 2019.656
886.6415, 1928.531
887.1236, 1799.500
887.6057, 1685.250
888.0878, 1634.688
888.5699, 1721.875
889.0521, 1874.844
889.5342, 1970.969
890.0163, 1974.531
890.4984, 2029.312
890.9805, 2142.469
891.4626, 2306.719
891.9448, 2532.844
892.4269, 2799.031
892.9090, 3046.031
893.3911, 3250.938
893.8732, 3457.156
894.3553, 3721.562
894.8375, 3958.656
895.3196, 4073.875
895.8017, 3954.781
896.2838, 3924.719
896.7659, 4062.969
897.2480, 4179.031
897.7302, 4039.594
898.2123, 3686.719
898.6944, 3344.000
899.1765, 3035.531
899.6586, 2765.875
900.1407, 2617.094
900.6229, 2479.281
901.1050, 2226.750
901.5871, 1826.562
902.0692, 1543.562
902.5513, 1453.625
903.0334, 1418.062
903.5156, 1379.125
903.9977, 1332.719
904.4798, 1233.312
904.9619, 1076.625
905.4440, 962.4062
905.9261, 977.9688
906.4083, 1044.750
906.8904, 1081.562
907.3725, 1091.594
907.8546, 1126.281
908.3367, 1270.031
908.8188, 1362.188
909.3010, 1386.844
909.7831, 1329.438
910.2652, 1015.375
910.7473, 436.4375
911.2294, 107.4375
911.7115, 369.9375
912.1937, 801.6875
912.6758, 805.5312
913.1579, 548.3438
913.6400, 395.2500
914.1221, 589.1250
914.6042, 750.3750
915.0864, 818.5938
915.5685, 797.6875
916.0506, 651.6562
916.5327, 364.0625
917.0148, 205.3438
917.4969, 253.3125
917.9790, 347.5625
918.4611, 227.9688
918.9432, 49.25000
919.4254, 67.28125
919.9075, 400.8750
920.3896, 784.2812
920.8717, 1197.750
921.3538, 1573.500
921.8359, 1825.344
922.3181, 1906.438
922.8002, 2126.031
923.2823, 2503.312
923.7644, 2839.344
924.2465, 2839.062
924.7286, 2709.219
925.2108, 2796.000
925.6929, 3117.719
926.1750, 3391.031
926.6571, 3509.094
927.1392, 3557.188
927.6213, 3556.312
928.1035, 3487.281
928.5856, 3363.281
929.0677, 3207.500
929.5498, 3100.938
930.0319, 3140.750
930.5140, 3191.969
930.9962, 2968.875
931.4783, 2550.688
931.9604, 2229.656
932.4425, 2319.812
932.9246, 2350.938
933.4067, 2032.188
933.8889, 1577.969
934.3710, 1473.031
934.8531, 1783.469
935.3352, 1955.562
935.8173, 1828.188
936.2994, 1603.375
936.7816, 1521.781
937.2637, 1553.438
937.7458, 1661.906
938.2279, 1912.156
938.7100, 2062.719
939.1921, 1923.688
939.6743, 1718.219
940.1564, 1661.219
940.6385, 1806.094
941.1206, 1818.219
941.6027, 1691.031
942.0848, 1430.125
942.5670, 854.4688
943.0491, 238.0625
943.5312, 38.65625
944.0133, 297.0000
944.4954, 541.9375
944.9775, 638.2812
945.4597, 628.8438
945.9418, 518.5312
946.4239, 318.7188
946.9060, 129.4062
947.3881, 50.90625
947.8702, 171.6562
948.3524, 185.6250
948.8345, 138.6562
949.3166, 61.34375
949.7987, 25.71875
950.2808, 58.21875
950.7629, 83.96875
951.2451, 170.1250
951.7272, 140.1250
952.2093, 38.75000
952.6914, 89.62500
953.1735, 247.0000
953.6556, 233.4375
954.1378, 52.62500
954.6199, 313.7812
955.1020, 126.5938
955.5841, 258.1562
956.0662, 491.4062
956.5483, 437.4688
957.0305, 409.4688
957.5126, 493.7188
957.9947, 598.0000
958.4768, 678.8438
958.9589, 741.0312
959.4410, 686.3125
959.9232, 511.5000
960.4053, 352.4375
960.8874, 282.4688
961.3695, 294.0625
961.8516, 419.5625
962.3337, 637.7500
962.8159, 780.9688
963.2980, 733.4375
963.7801, 730.1562
964.2622, 896.4688
964.7443, 1121.250
965.2264, 988.0000
965.7086, 546.2188
966.1907, 145.1250
966.6728, 92.15625
967.1549, 227.8125
967.6370, 322.5625
968.1191, 340.1562
968.6013, 223.2500
969.0834, 208.0312
969.5655, 499.4688
970.0476, 633.1562
970.5297, 621.5000
971.0118, 358.6875
971.4940, 47.09375
971.9761, 85.31250
972.4582, 319.9062
972.9403, 686.2500
973.4224, 618.8438
973.9045, 453.1875
974.3867, 403.6875
974.8688, 485.2188
975.3509, 779.9062
975.8330, 1401.875
976.3151, 1849.781
976.7972, 1757.844
977.2794, 1381.531
977.7615, 1338.594
978.2436, 1537.812
978.7257, 1686.406
979.2078, 1542.281
979.6899, 1420.625
980.1720, 1498.844
980.6541, 1656.562
981.1362, 1675.219
981.6183, 1525.062
982.1005, 1417.875
982.5826, 1400.500
983.0647, 1394.125
983.5468, 1295.281
984.0289, 1148.031
984.5110, 1023.250
984.9932, 944.4375
985.4753, 858.1562
985.9574, 687.2812
986.4395, 574.2188
986.9216, 643.0000
987.4037, 888.7812
987.8859, 859.5625
988.3680, 552.8125
988.8501, 297.0938
989.3322, 297.3438
989.8143, 451.4062
990.2964, 774.5312
990.7786, 1179.281
991.2607, 1372.656
991.7428, 1101.500
992.2249, 905.1875
992.7070, 883.2188
993.1891, 965.7188
993.6713, 1011.281
994.1534, 1038.438
994.6355, 1140.625
995.1176, 1356.281
995.5997, 1594.188
996.0818, 1842.781
996.5640, 2046.375
997.0461, 2118.750
997.5282, 1984.562
998.0103, 2004.438
998.4924, 2208.750
998.9745, 2465.906
999.4567, 2688.969
999.9388, 2890.656
1000.421, 3084.875
1000.903, 3275.844
1001.385, 3489.094
1001.867, 3876.531
1002.349, 4129.125
1002.831, 3996.156
1003.314, 3660.500
1003.796, 3564.750
1004.278, 3727.938
1004.760, 3938.031
1005.242, 4180.719
1005.724, 4352.844
1006.206, 4298.656
1006.688, 4133.750
1007.171, 4030.062
1007.653, 4076.094
1008.135, 4035.625
1008.617, 3789.656
1009.099, 3576.500
1009.581, 3603.344
1010.063, 3849.812
1010.545, 3978.312
1011.027, 3996.312
1011.510, 3983.562
1011.992, 3915.688
1012.474, 3867.375
1012.956, 3995.719
1013.438, 4232.969
1013.920, 4293.469
1014.402, 4103.781
1014.884, 3911.688
1015.367, 3769.469
1015.849, 3643.156
1016.331, 3469.969
1016.813, 3274.625
1017.295, 3090.188
1017.777, 2889.875
1018.259, 2842.500
1018.741, 3243.031
1019.223, 3637.500
1019.706, 3721.500
1020.188, 3481.875
1020.670, 3132.031
1021.152, 2659.062
1021.634, 2356.000
1022.116, 2571.844
1022.598, 2959.719
1023.080, 3082.312
1023.563, 3009.000
1024.045, 3054.625
1024.527, 3440.188
1025.009, 3673.344
1025.491, 3638.625
1025.973, 3438.719
1026.455, 3171.031
1026.937, 2889.125
1027.419, 2854.438
1027.901, 3185.594
1028.384, 3402.500
1028.866, 3073.156
1029.348, 2599.781
1029.830, 2297.688
1030.312, 2193.688
1030.794, 2225.188
1031.276, 2451.906
1031.758, 2523.625
1032.241, 2070.000
1032.723, 1465.844
1033.205, 1323.844
1033.687, 1510.031
1034.169, 1636.844
1034.651, 1431.688
1035.133, 1326.562
1035.615, 1365.969
1036.098, 1536.719
1036.580, 1886.844
1037.062, 2367.562
1037.544, 2672.938
1038.026, 2741.406
1038.508, 2750.719
1038.990, 2871.438
1039.472, 2957.594
1039.954, 2849.250
1040.437, 2531.344
1040.919, 2354.375
1041.401, 2358.000
1041.883, 2403.219
1042.365, 2509.219
1042.847, 2562.219
1043.329, 2258.594
1043.811, 1746.656
1044.293, 1353.875
1044.776, 1277.219
1045.258, 1249.938
1045.740, 1292.344
1046.222, 1299.094
1046.704, 1093.406
1047.186, 690.0938
1047.668, 565.1250
1048.150, 741.1875
1048.633, 982.6250
1049.115, 1162.312
1049.597, 1281.188
1050.079, 1290.281
1050.561, 1212.969
1051.043, 1285.125
1051.525, 1559.312
1052.007, 1820.375
1052.490, 1996.156
1052.972, 2144.781
1053.454, 2373.906
1053.936, 2639.000
1054.418, 2844.219
1054.900, 2904.906
1055.382, 3019.562
1055.864, 3334.625
1056.346, 3599.531
1056.828, 3643.094
1057.311, 3466.531
1057.793, 3138.094
1058.275, 2673.875
1058.757, 2378.781
1059.239, 2659.094
1059.721, 2985.000
1060.203, 3047.312
1060.685, 2864.781
1061.168, 2497.969
1061.650, 1879.719
1062.132, 1383.969
1062.614, 1089.281
1063.096, 889.6250
1063.578, 597.2812
1064.060, 313.8438
1064.542, 278.5000
1065.025, 573.5000
1065.507, 760.1250
1065.989, 636.5625
1066.471, 442.9062
1066.953, 256.7812
1067.435, 83.28125
1067.917, 72.12500
1068.399, 198.7500
1068.881, 234.0938
1069.364, 144.8438
1069.846, 31.18750
1070.328, 290.3438
1070.810, 607.2188
1071.292, 963.4062
1071.774, 1425.062
1072.256, 1575.500
1072.738, 1336.781
1073.220, 1118.656
1073.703, 1421.125
1074.185, 1856.469
1074.667, 1893.438
1075.149, 1559.062
1075.631, 1206.281
1076.113, 924.3750
1076.595, 634.0312
1077.077, 293.4375
1077.559, 0.8125000
1078.042, 31.12500
1078.524, 273.0625
1079.006, 289.0625
1079.488, 64.25000
1079.970, 379.8750
1080.452, 389.5938
1080.934, 320.7812
1081.416, 359.2812
1081.899, 499.3125
1082.381, 456.6875
1082.863, 235.0000
1083.345, 16.46875
1083.827, 174.0625
1084.309, 353.5000
1084.791, 722.7812
1085.273, 1172.188
1085.755, 1502.844
1086.238, 1668.656
1086.720, 1739.250
1087.202, 1700.406
1087.684, 1611.938
1088.166, 1488.562
1088.648, 1384.625
1089.130, 1488.250
1089.612, 1794.438
1090.094, 1956.594
1090.577, 1544.094
1091.059, 1287.438
1091.541, 1526.156
1092.023, 2025.781
1092.505, 2171.125
1092.987, 2034.344
1093.469, 2072.500
1093.951, 2438.656
1094.434, 2782.594
1094.916, 2799.031
1095.398, 2728.844
1095.880, 2782.531
1096.362, 2964.344
1096.844, 3058.438
1097.326, 3055.469
1097.808, 3061.844
1098.291, 3168.562
1098.773, 3278.406
1099.255, 3226.625
1099.737, 3107.656
1100.219, 3101.781
1100.701, 3460.344
1101.183, 3530.344
1101.665, 3206.719
1102.147, 2825.969
1102.630, 2706.000
1103.112, 2771.688
1103.594, 2902.594
1104.076, 3072.500
1104.558, 3184.656
1105.040, 3174.594
1105.522, 3096.625
1106.004, 2906.156
1106.486, 2703.188
1106.969, 2793.812
1107.451, 3100.312
1107.933, 3123.500
1108.415, 2708.219
1108.897, 2293.469
1109.379, 2279.500
1109.861, 2332.406
1110.343, 2150.125
1110.826, 1750.250
1111.308, 1454.250
1111.790, 1285.156
1112.272, 1164.438
1112.754, 997.5312
1113.236, 856.3750
1113.718, 812.9688
1114.200, 849.2812
1114.682, 945.1562
1115.165, 1135.844
1115.647, 1272.906
1116.129, 1355.656
1116.611, 1346.281
1117.093, 1132.250
1117.575, 837.5625
1118.057, 722.0312
1118.539, 742.9375
1119.021, 700.7188
1119.504, 483.6250
1119.986, 257.4688
1120.468, 16.90625
1120.950, 157.9062
1121.432, 74.15625
1121.914, 182.5625
1122.396, 263.6250
1122.878, 126.8125
1123.361, 49.78125
1123.843, 222.9688
1124.325, 467.2188
1124.807, 723.9062
1125.289, 969.3750
1125.771, 1063.781
1126.253, 1022.812
1126.735, 1177.188
1127.218, 1691.000
1127.700, 2218.719
1128.182, 2376.969
1128.664, 2455.156
1129.146, 2790.125
1129.628, 3411.406
1130.110, 3790.562
1130.592, 3900.156
1131.074, 3910.438
1131.557, 3892.375
1132.039, 3843.719
1132.521, 3727.469
1133.003, 3593.281
1133.485, 3547.906
1133.967, 3808.875
1134.449, 3758.969
1134.931, 3329.094
1135.413, 2827.281
1135.896, 2530.812
1136.378, 2382.250
1136.860, 2325.375
1137.342, 2330.625
1137.824, 2246.656
1138.306, 1908.031
1138.788, 1681.938
1139.270, 1622.094
1139.752, 1663.625
1140.235, 1743.812
1140.717, 1858.000
1141.199, 2010.156
1141.681, 2182.219
1142.163, 2260.344
1142.645, 2144.156
1143.127, 1947.938
1143.609, 1710.125
1144.092, 1447.594
1144.574, 1257.688
1145.056, 1121.188
1145.538, 842.1562
1146.020, 328.5000
1146.502, 175.8750
1146.984, 636.3750
1147.466, 874.1250
1147.948, 695.3750
1148.431, 97.56250
1148.913, 255.4688
1149.395, 369.9688
1149.877, 500.9375
1150.359, 836.5312
1150.841, 1145.875
1151.323, 1155.906
1151.805, 1043.312
1152.287, 1100.719
1152.770, 1373.000
1153.252, 1593.719
1153.734, 1742.781
1154.216, 1895.062
1154.698, 2136.750
1155.180, 2391.219
1155.662, 2603.906
1156.144, 2767.344
1156.627, 2850.125
1157.109, 2878.625
1157.591, 2786.531
1158.073, 2535.500
1158.555, 2299.906
1159.037, 2379.438
1159.519, 2546.562
1160.001, 2386.344
1160.484, 1884.844
1160.966, 1616.469
1161.448, 1807.031
1161.930, 1981.344
1162.412, 2035.469
1162.894, 1986.375
1163.376, 1902.625
1163.858, 1735.312
1164.340, 1307.062
1164.823, 501.9688
1165.305, 0.9375000
1165.787, 252.1875
1166.269, 458.6250
1166.751, 224.9062
1167.233, 224.2500
1167.715, 144.9062
1168.197, 288.4688
1168.679, 449.7500
1169.162, 102.2188
1169.644, 441.0312
1170.126, 140.7812
1170.608, 355.4688
1171.090, 818.1562
1171.572, 1226.469
1172.054, 1483.875
1172.536, 1606.688
1173.019, 1757.094
1173.501, 2061.844
1173.983, 2344.312
1174.465, 2558.344
1174.947, 2688.219
1175.429, 2686.312
1175.911, 2559.125
1176.393, 2552.281
1176.875, 2671.281
1177.358, 2785.062
1177.840, 2803.531
1178.322, 2800.062
1178.804, 2826.625
1179.286, 2872.812
1179.768, 2879.312
1180.250, 2832.875
1180.732, 2816.281
1181.214, 2836.969
1181.697, 2864.156
1182.179, 2802.719
1182.661, 2780.000
1183.143, 2918.125
1183.625, 3171.125
1184.107, 3415.719
1184.589, 3662.969
1185.071, 3611.031
1185.554, 3132.250
1186.036, 2647.656
1186.518, 2682.750
1187.000, 2826.844
1187.482, 2606.000
1187.964, 2031.844
1188.446, 1868.406
1188.928, 2195.625
1189.411, 2306.375
1189.893, 1883.312
1190.375, 1355.156
1190.857, 1231.781
1191.339, 1270.250
1191.821, 1154.500
1192.303, 806.5000
1192.785, 659.7188
1193.267, 736.7188
1193.750, 857.6250
1194.232, 939.5938
1194.714, 1002.781
1195.196, 1121.312
1195.678, 1219.750
1196.160, 1153.531
1196.642, 762.9062
1197.124, 640.4688
1197.606, 843.5625
1198.089, 1015.906
1198.571, 847.1875
1199.053, 556.2188
1199.535, 386.4375
1200.017, 327.0938
1200.499, 359.6250
1200.981, 588.0938
1201.463, 649.1250
1201.945, 489.1562
1202.428, 314.7188
1202.910, 293.6250
1203.392, 374.8438
1203.874, 529.6875
1204.356, 717.5938
1204.838, 818.1562
1205.320, 772.3750
1205.802, 851.9062
1206.285, 1158.000
1206.767, 1451.531
1207.249, 1306.500
1207.731, 1024.062
1208.213, 1105.906
1208.695, 1542.312
1209.177, 1845.094
1209.659, 1899.125
1210.141, 1950.719
1210.624, 2042.906
1211.106, 2157.375
1211.588, 2289.750
1212.070, 2406.719
1212.552, 2472.094
1213.034, 2475.781
1213.516, 2384.969
1213.998, 2111.000
1214.480, 1990.906
1214.963, 2183.250
1215.445, 2429.125
1215.927, 2342.344
1216.409, 2043.406
1216.891, 1674.062
1217.373, 1238.125
1217.855, 998.1562
1218.337, 1055.062
1218.820, 1088.656
1219.302, 957.9375
1219.784, 783.3125
1220.266, 816.6250
1220.748, 926.9062
1221.230, 867.5312
1221.712, 487.8125
1222.194, 304.4688
1222.677, 364.5312
1223.159, 513.0312
1223.641, 699.4375
1224.123, 901.5625
1224.605, 1086.000
1225.087, 1245.500
1225.569, 1423.500
1226.051, 1680.656
1226.533, 1809.906
1227.016, 1761.781
1227.498, 1675.719
1227.980, 1675.812
1228.462, 1736.062
1228.944, 1881.406
1229.426, 2040.469
1229.908, 2057.688
1230.390, 1729.781
1230.872, 1607.938
1231.355, 1722.688
1231.837, 1959.812
1232.319, 2378.781
1232.801, 2766.281
1233.283, 2693.000
1233.765, 2350.750
1234.247, 2271.031
1234.729, 2682.094
1235.212, 2944.344
1235.694, 2993.312
1236.176, 3014.312
1236.658, 3110.188
1237.140, 3248.719
1237.622, 3476.844
1238.104, 3709.219
1238.586, 3669.562
1239.068, 3255.656
1239.551, 2872.719
1240.033, 2545.125
1240.515, 2375.281
1240.997, 2606.000
1241.479, 2950.938
1241.961, 3135.062
1242.443, 3169.250
1242.925, 3141.281
1243.407, 3024.688
1243.890, 3028.312
1244.372, 3189.094
1244.854, 3368.750
1245.336, 3322.531
1245.818, 3287.156
1246.300, 3513.656
1246.782, 3933.719
1247.264, 4172.156
1247.747, 4195.062
1248.229, 4182.344
1248.711, 4180.031
1249.193, 4077.031
1249.675, 3626.625
1250.157, 3165.406
1250.639, 3102.500
1251.121, 3312.719
1251.604, 3111.531
1252.086, 2493.562
1252.568, 1990.125
1253.050, 1731.438
1253.532, 1589.781
1254.014, 1457.000
1254.496, 1407.938
1254.978, 1491.750
1255.460, 1691.188
1255.943, 2075.969
1256.425, 2614.031
1256.907, 2774.281
1257.389, 2311.281
1257.871, 2002.625
1258.353, 2774.906
1258.835, 3530.094
1259.317, 3539.875
1259.799, 2945.250
1260.281, 2238.062
1260.764, 1482.969
1261.246, 1127.188
1261.728, 1440.906
1262.210, 1645.625
1262.692, 1310.156
1263.174, 790.7500
1263.656, 222.0000
1264.138, 315.6875
1264.621, 503.8750
1265.103, 411.1875
1265.585, 314.2188
1266.067, 303.4062
1266.549, 255.4062
1267.031, 263.9688
1267.513, 36.06250
1267.995, 691.0625
1268.478, 1656.500
1268.960, 2035.562
1269.442, 2050.562
1269.924, 2312.562
1270.406, 3066.031
1270.888, 3852.250
1271.370, 4738.812
1271.852, 5274.500
1272.334, 5007.531
1272.817, 4394.625
1273.299, 4478.594
1273.781, 4972.469
1274.263, 5307.469
1274.745, 5285.406
1275.227, 5259.500
1275.709, 5285.156
1276.191, 5258.531
1276.673, 5164.031
1277.156, 4964.344
1277.638, 4478.812
1278.120, 3908.375
1278.602, 3513.281
1279.084, 3201.031
1279.566, 2774.250
1280.048, 2243.188
1280.530, 1740.625
1281.013, 1468.719
1281.495, 1307.656
1281.977, 1348.312
1282.459, 1513.125
1282.941, 1704.688
1283.423, 1929.406
1283.905, 1982.438
1284.387, 1855.469
1284.870, 1740.344
1285.352, 1781.719
1285.834, 1814.031
1286.316, 1755.562
1286.798, 1660.719
1287.280, 1515.500
1287.762, 1283.844
1288.244, 1419.062
1288.726, 1853.000
1289.208, 2027.594
1289.691, 1349.812
1290.173, 737.6250
1290.655, 695.1250
1291.137, 775.1562
1291.619, 542.1562
1292.101, 60.00000
1292.583, 11.31250
1293.065, 0.0000000E+00
##END=



