##NAMES=Kinoite
##RRUFFID=R050168
##IDEAL CHEMISTRY=Ca_2_Cu^2+^_2_Si_3_O_10_&#183;2H_2_O
##LOCALITY=Christmas mine, Christmas, Gila County, Arizona, USA
##OWNER=RRUFF
##SOURCE=Marcus Origlieri
##DESCRIPTION=Blue tabular crystals associated with hydroxyapophyllite, R050169
##STATUS=The identification of this mineral is confirmed by single-crystal X-ray diffraction and chemical analysis.
##URL=rruff.info/R050168
##MEASURED CHEMISTRY=Ca_2.00_Cu_2.00_Si_3.00_O_10_Â·2.94H_2_O; trace amounts of Fe and Mn; H_2_O estimated by difference
169.1591, 0.0000000E+00
169.6412, 8.7935999E-02
170.1233, 0.1595990
170.6055, 0.1662650
171.0876, 0.1272130
171.5697, 0.1208040
172.0518, 0.2425370
172.5339, 0.5002540
173.0160, 0.5329060
173.4982, 0.5186790
173.9803, 0.4569820
174.4624, 0.3117730
174.9445, 9.3422003E-02
175.4266, 2.0344000E-02
175.9087, 8.9779999E-03
176.3909, 0.1118720
176.8730, 0.2648770
177.3551, 0.4692060
177.8372, 0.6336120
178.3193, 0.6467930
178.8014, 0.6192630
179.2836, 0.5685290
179.7657, 0.6135220
180.2478, 0.6963750
180.7299, 0.7445830
181.2120, 0.6713430
181.6941, 0.5867650
182.1763, 0.6048680
182.6584, 0.6651400
183.1405, 0.6911490
183.6226, 0.6046090
184.1047, 0.4330350
184.5868, 0.3647790
185.0690, 0.4888020
185.5511, 0.5838740
186.0332, 0.5379620
186.5153, 0.3932190
186.9974, 0.2266140
187.4795, 6.9366001E-02
187.9616, 7.3977001E-02
188.4438, 0.1324940
188.9259, 2.1415999E-02
189.4080, 9.4475001E-02
189.8901, 0.1902640
190.3722, 0.2512950
190.8543, 0.2525250
191.3365, 0.1565230
191.8186, 4.9736001E-02
192.3007, 0.1631110
192.7828, 9.3203999E-02
193.2649, 1.6651001E-02
193.7470, 2.4029999E-03
194.2292, 2.6733000E-02
194.7113, 5.6101002E-02
195.1934, 3.7342001E-02
195.6755, 4.5173999E-02
196.1576, 7.4428998E-02
196.6397, 1.2110000E-03
197.1219, 6.9306999E-02
197.6040, 9.9684000E-02
198.0861, 8.2084998E-02
198.5682, 1.1036000E-02
199.0503, 0.1305640
199.5324, 0.3651920
200.0146, 0.5196760
200.4967, 0.5439620
200.9788, 0.5331730
201.4609, 0.5329650
201.9430, 0.5532170
202.4251, 0.6086240
202.9073, 0.7204420
203.3894, 0.8966120
203.8715, 1.070501
204.3536, 1.256802
204.8357, 1.430737
205.3178, 1.567785
205.8000, 1.664997
206.2821, 1.735123
206.7642, 1.756912
207.2463, 1.746754
207.7284, 1.821323
208.2105, 2.100554
208.6927, 2.442686
209.1748, 2.631750
209.6569, 2.616835
210.1390, 2.568655
210.6211, 2.649853
211.1032, 2.814480
211.5854, 2.952904
212.0675, 3.028580
212.5496, 3.050457
213.0317, 3.020550
213.5138, 2.894871
213.9959, 2.811970
214.4781, 2.876015
214.9602, 3.041630
215.4423, 3.223486
215.9244, 3.396305
216.4065, 3.552332
216.8886, 3.653809
217.3708, 3.671104
217.8529, 3.675192
218.3350, 3.687078
218.8171, 3.711679
219.2992, 3.762190
219.7813, 3.868036
220.2635, 4.011284
220.7456, 4.061647
221.2277, 3.934757
221.7098, 3.810432
222.1919, 3.763674
222.6740, 3.760231
223.1562, 3.731825
223.6383, 3.620779
224.1204, 3.439140
224.6025, 3.337776
225.0846, 3.462475
225.5667, 3.519001
226.0489, 3.422810
226.5310, 3.210806
227.0131, 2.939947
227.4952, 2.637405
227.9773, 2.314129
228.4594, 2.130001
228.9416, 2.218588
229.4237, 2.315111
229.9058, 2.383303
230.3879, 2.414562
230.8700, 2.396866
231.3521, 2.313391
231.8343, 2.173227
232.3164, 2.129757
232.7985, 2.326138
233.2806, 2.451345
233.7627, 2.383144
234.2448, 2.191193
234.7270, 2.009604
235.2091, 1.921843
235.6912, 1.922523
236.1733, 1.967939
236.6554, 2.112843
237.1375, 2.234875
237.6197, 2.314495
238.1018, 2.343063
238.5839, 2.286919
239.0660, 2.103951
239.5481, 1.838676
240.0302, 1.742189
240.5124, 1.948042
240.9945, 2.141079
241.4766, 2.194988
241.9587, 2.149225
242.4408, 2.104809
242.9229, 2.114508
243.4051, 2.161541
243.8872, 2.187531
244.3693, 2.180567
244.8514, 2.173161
245.3335, 2.195066
245.8156, 2.226566
246.2978, 2.214680
246.7799, 2.128227
247.2620, 2.005001
247.7441, 1.944342
248.2262, 1.987680
248.7083, 1.996038
249.1904, 1.855507
249.6726, 1.609703
250.1547, 1.417006
250.6368, 1.342859
251.1189, 1.361818
251.6010, 1.440155
252.0831, 1.599304
252.5653, 1.713779
253.0474, 1.690578
253.5295, 1.556980
254.0116, 1.434067
254.4937, 1.363478
254.9758, 1.304794
255.4580, 1.193562
255.9401, 1.026733
256.4222, 0.9091490
256.9043, 0.9502600
257.3864, 1.112591
257.8686, 1.196787
258.3507, 1.128296
258.8328, 1.015240
259.3149, 0.9558470
259.7970, 0.9449500
260.2791, 0.9389590
260.7613, 0.8968260
261.2434, 0.8301850
261.7255, 0.8125630
262.2076, 0.8969970
262.6897, 0.9715860
263.1718, 0.9520210
263.6540, 0.8592450
264.1361, 0.7681220
264.6182, 0.7256450
265.1003, 0.7261430
265.5824, 0.7339740
266.0645, 0.7459320
266.5467, 0.7708800
267.0288, 0.8092880
267.5109, 0.8619210
267.9930, 0.9311540
268.4751, 1.025896
268.9572, 1.138668
269.4394, 1.238716
269.9215, 1.340811
270.4036, 1.403435
270.8857, 1.378490
271.3678, 1.315624
271.8499, 1.290640
272.3321, 1.345306
272.8142, 1.465689
273.2963, 1.610752
273.7784, 1.813034
274.2605, 1.982111
274.7426, 2.046822
275.2248, 2.084167
275.7069, 2.203152
276.1890, 2.467947
276.6711, 2.796766
277.1532, 2.955814
277.6353, 2.794235
278.1175, 2.745832
278.5995, 2.960758
279.0817, 3.275261
279.5638, 3.551058
280.0459, 3.738075
280.5280, 3.842400
281.0101, 3.847551
281.4922, 3.626333
281.9744, 3.585484
282.4565, 3.865255
282.9386, 4.250687
283.4207, 4.598200
283.9028, 4.864586
284.3849, 5.074120
284.8671, 5.261150
285.3492, 5.425659
285.8313, 5.564739
286.3134, 5.668226
286.7955, 5.757978
287.2776, 5.840834
287.7598, 5.920706
288.2419, 6.004562
288.7240, 6.099209
289.2061, 6.201050
289.6882, 6.326305
290.1703, 6.525709
290.6525, 6.701939
291.1346, 6.772118
291.6167, 6.763580
292.0988, 6.791876
292.5809, 6.992958
293.0630, 7.403006
293.5452, 7.590059
294.0273, 7.298218
294.5094, 7.039642
294.9915, 7.025570
295.4736, 7.184561
295.9557, 7.323633
296.4379, 7.295403
296.9200, 7.114643
297.4021, 7.023760
297.8842, 7.184137
298.3663, 7.265902
298.8484, 7.163197
299.3306, 6.947504
299.8127, 6.726627
300.2948, 6.562883
300.7769, 6.454174
301.2590, 6.382679
301.7411, 6.438429
302.2233, 6.424103
302.7054, 6.268459
303.1875, 6.046227
303.6696, 5.841318
304.1517, 5.693506
304.6339, 5.587940
305.1160, 5.473257
305.5981, 5.299549
306.0802, 5.160418
306.5623, 5.105415
307.0444, 5.065683
307.5266, 4.970867
308.0087, 4.811792
308.4908, 4.640179
308.9729, 4.524939
309.4550, 4.493534
309.9371, 4.405764
310.4193, 4.229397
310.9014, 4.045116
311.3835, 3.890053
311.8656, 3.770798
312.3477, 3.684687
312.8298, 3.629658
313.3120, 3.601383
313.7941, 3.580170
314.2762, 3.539822
314.7583, 3.541162
315.2404, 3.660088
315.7225, 3.845081
316.2047, 3.972033
316.6868, 3.943192
317.1689, 3.769245
317.6510, 3.618160
318.1331, 3.490767
318.6152, 3.383833
319.0974, 3.294144
319.5795, 3.225895
320.0616, 3.192904
320.5437, 3.203783
321.0258, 3.239655
321.5079, 3.236280
321.9901, 3.101450
322.4722, 3.046373
322.9543, 3.164526
323.4364, 3.327282
323.9185, 3.397757
324.4006, 3.332712
324.8828, 3.203396
325.3649, 3.137238
325.8470, 3.194426
326.3291, 3.200062
326.8112, 3.137642
327.2933, 2.850037
327.7755, 3.038864
328.2576, 3.124075
328.7397, 3.111208
329.2218, 2.706495
329.7039, 2.807758
330.1860, 2.706387
330.6682, 2.596550
331.1503, 2.769033
331.6324, 2.421314
332.1145, 2.589878
332.5966, 2.552059
333.0787, 2.608810
333.5609, 2.462599
334.0430, 2.377922
334.5251, 2.505104
335.0072, 2.512028
335.4893, 2.341463
335.9714, 2.403999
336.4536, 2.050140
336.9357, 2.063795
337.4178, 2.233231
337.8999, 2.072374
338.3820, 2.139301
338.8641, 2.119102
339.3463, 1.716927
339.8284, 1.994606
340.3105, 1.969461
340.7926, 1.642939
341.2747, 1.889832
341.7568, 1.596533
342.2390, 1.533281
342.7211, 1.458742
343.2032, 1.367365
343.6853, 1.306435
344.1674, 1.293770
344.6495, 1.333857
345.1317, 1.372137
345.6138, 1.354532
346.0959, 1.287497
346.5780, 1.187721
347.0601, 0.9760480
347.5422, 0.8176290
348.0244, 0.8050980
348.5065, 0.8791520
348.9886, 0.9092980
349.4707, 0.8265990
349.9528, 0.6563010
350.4349, 0.4988170
350.9171, 0.3099750
351.3992, 0.2090340
351.8813, 0.2893520
352.3634, 0.4225520
352.8455, 0.4750210
353.3276, 0.4009380
353.8098, 0.2648810
354.2919, 0.1779940
354.7740, 0.1654510
355.2561, 0.1251600
355.7382, 1.4410000E-02
356.2203, 0.1390860
356.7025, 0.1633360
357.1846, 9.1665000E-02
357.6667, 6.8419999E-03
358.1488, 1.0719000E-02
358.6309, 4.1253999E-02
359.1130, 9.6152999E-02
359.5952, 0.1871620
360.0773, 0.2404190
360.5594, 0.1847570
361.0415, 7.1856000E-02
361.5236, 1.3586000E-02
362.0057, 0.1026420
362.4879, 0.2723410
362.9700, 0.3031960
363.4521, 0.1186640
363.9342, 3.6773998E-02
364.4163, 8.5000999E-02
364.8984, 6.0472000E-02
365.3806, 2.7419999E-02
365.8627, 0.1883240
366.3448, 0.3386750
366.8269, 0.3443010
367.3090, 0.1839900
367.7911, 7.8690000E-02
368.2733, 0.1187760
368.7554, 0.2003770
369.2375, 0.2679230
369.7196, 0.3141710
370.2017, 0.3146550
370.6838, 0.2198680
371.1660, 5.4988999E-02
371.6481, 5.4825000E-02
372.1302, 8.0320001E-02
372.6123, 8.5266002E-02
373.0944, 0.1055680
373.5765, 0.1387310
374.0587, 0.1822010
374.5408, 0.2567270
375.0229, 0.3266580
375.5050, 0.3269180
375.9871, 0.2489320
376.4692, 0.1737270
376.9514, 0.1245650
377.4335, 0.1115930
377.9156, 0.1580520
378.3977, 0.2922630
378.8798, 0.4157810
379.3619, 0.4487340
379.8441, 0.4079320
380.3262, 0.3599530
380.8083, 0.3089220
381.2904, 0.2803840
381.7725, 0.3287910
382.2546, 0.4515550
382.7368, 0.5315420
383.2189, 0.4838430
383.7010, 0.3913570
384.1831, 0.3803880
384.6652, 0.4679510
385.1473, 0.5685980
385.6295, 0.6256310
386.1116, 0.6367340
386.5937, 0.6174850
387.0758, 0.5183330
387.5579, 0.2423840
388.0400, 0.4415910
388.5222, 0.5388240
389.0043, 0.5396400
389.4864, 0.1502990
389.9685, 0.2685850
390.4506, 0.1857870
390.9327, 9.6314996E-02
391.4149, 0.2908150
391.8970, 3.3220001E-02
392.3791, 0.1600690
392.8612, 0.1491550
393.3433, 0.2341290
393.8254, 0.1167490
394.3076, 6.4029999E-02
394.7897, 0.2170620
395.2718, 0.2587470
395.7539, 0.1245170
396.2360, 0.2254470
396.7181, 8.9148000E-02
397.2003, 3.6083002E-02
397.6824, 0.1765380
398.1645, 6.0732000E-02
398.6466, 0.1735460
399.1287, 0.2015690
399.6108, 0.1615830
400.0930, 0.1600130
400.5751, 0.1877990
401.0572, 8.6122997E-02
401.5393, 0.2169740
402.0214, 1.1889000E-02
402.5035, 4.8659999E-02
402.9856, 5.9500001E-02
403.4677, 1.9884000E-02
403.9499, 0.2174950
404.4320, 0.1898120
404.9141, 0.1435170
405.3962, 0.1873870
405.8783, 1.7843001E-02
406.3604, 0.2437590
406.8426, 0.1892550
407.3247, 0.3175260
407.8068, 0.3703140
408.2889, 0.3450930
408.7710, 0.3272780
409.2531, 0.3333440
409.7353, 0.3567890
410.2174, 0.4029540
410.6995, 0.4737780
411.1816, 0.5295520
411.6637, 0.4860210
412.1458, 0.3085580
412.6280, 0.2221550
413.1101, 0.3409710
413.5922, 0.4895610
414.0743, 0.5730460
414.5564, 0.5994280
415.0385, 0.6147670
415.5207, 0.6422650
416.0028, 0.6763800
416.4849, 0.7152270
416.9670, 0.7743400
417.4491, 0.7951260
417.9312, 0.7272610
418.4134, 0.6205650
418.8955, 0.5278820
419.3776, 0.4545040
419.8597, 0.3922160
420.3418, 0.3405510
420.8239, 0.3066200
421.3061, 0.2851220
421.7882, 0.2564240
422.2703, 0.2455120
422.7524, 0.3128740
423.2345, 0.4522900
423.7166, 0.5354390
424.1988, 0.4795090
424.6809, 0.1800040
425.1630, 0.4247680
425.6451, 0.5723650
426.1272, 0.6192210
426.6093, 0.2689880
427.0915, 0.4203850
427.5736, 0.3659860
428.0557, 0.3031310
428.5378, 0.5284480
429.0199, 0.2438050
429.5020, 0.4811000
429.9842, 0.5132850
430.4663, 0.6397300
430.9484, 0.5624580
431.4305, 0.5482960
431.9126, 0.7383800
432.3947, 0.8155080
432.8769, 0.7150340
433.3590, 0.8480320
433.8411, 0.5638260
434.3232, 0.6455150
434.8053, 0.8849390
435.2874, 0.7941190
435.7696, 0.9305060
436.2517, 0.9807220
436.7338, 0.6380670
437.2159, 0.9786090
437.6980, 1.023664
438.1801, 0.7653240
438.6623, 1.082411
439.1444, 0.8658600
439.6265, 0.8397790
440.1086, 0.9570120
440.5907, 0.9247990
441.0728, 1.128172
441.5550, 1.104565
442.0371, 1.060678
442.5192, 1.105272
443.0013, 0.8990990
443.4834, 1.158127
443.9655, 1.099367
444.4477, 1.198565
444.9298, 1.333567
445.4119, 1.194275
445.8940, 1.345339
446.3761, 1.046309
446.8582, 1.123878
447.3404, 1.160345
447.8225, 1.438087
448.3046, 1.140961
448.7867, 1.206757
449.2688, 1.429089
449.7509, 1.426825
450.2331, 1.522451
450.7152, 1.349594
451.1973, 1.429251
451.6794, 1.438553
452.1615, 1.686619
452.6436, 1.747248
453.1258, 1.579422
453.6079, 1.411739
454.0900, 1.679258
454.5721, 1.524015
455.0542, 1.594297
455.5363, 1.442461
456.0185, 1.656708
456.5006, 1.571049
456.9827, 1.532755
457.4648, 1.595942
457.9469, 1.719320
458.4290, 1.828743
458.9112, 1.900448
459.3933, 1.930916
459.8754, 1.863367
460.3575, 1.707607
460.8396, 1.709614
461.3217, 2.005720
461.8039, 2.262497
462.2860, 2.360367
462.7681, 2.372869
463.2502, 2.398424
463.7323, 2.466452
464.2144, 2.564636
464.6966, 2.653353
465.1787, 2.739986
465.6608, 2.794325
466.1429, 2.748295
466.6250, 2.736479
467.1071, 2.852697
467.5893, 3.052052
468.0714, 3.219168
468.5535, 3.273479
469.0356, 3.264814
469.5177, 3.353973
469.9998, 3.600025
470.4820, 3.786268
470.9641, 3.783321
471.4462, 3.748848
471.9283, 3.809063
472.4104, 3.975853
472.8925, 4.152311
473.3747, 4.273317
473.8568, 4.345375
474.3389, 4.386738
474.8210, 4.392948
475.3031, 4.385372
475.7852, 4.365206
476.2674, 4.343134
476.7495, 4.346048
477.2316, 4.410776
477.7137, 4.451235
478.1958, 4.368719
478.6779, 4.212105
479.1601, 4.136175
479.6422, 4.202534
480.1243, 4.301729
480.6064, 4.284351
481.0885, 4.127974
481.5706, 4.000301
482.0528, 3.950239
482.5349, 3.896776
483.0170, 3.772930
483.4991, 3.598177
483.9812, 3.441082
484.4633, 3.340969
484.9455, 3.276194
485.4276, 3.181164
485.9097, 3.026751
486.3918, 2.883694
486.8739, 2.744476
487.3560, 2.622532
487.8382, 2.542709
488.3203, 2.494698
488.8024, 2.431797
489.2845, 2.306339
489.7666, 2.127668
490.2487, 1.998621
490.7309, 1.990860
491.2130, 1.912956
491.6951, 1.619370
492.1772, 1.288807
492.6593, 1.128935
493.1414, 1.192152
493.6236, 1.300135
494.1057, 1.267418
494.5878, 1.111298
495.0699, 0.9824070
495.5520, 0.9083400
496.0341, 0.8400340
496.5163, 0.7194100
496.9984, 0.5770630
497.4805, 0.4899940
497.9626, 0.5148980
498.4447, 0.5562710
498.9268, 0.5235000
499.4090, 0.4387150
499.8911, 0.3899690
500.3732, 0.4169730
500.8553, 0.4597840
501.3374, 0.4251840
501.8195, 0.2924610
502.3017, 0.1878780
502.7838, 0.1253570
503.2659, 8.8101998E-02
503.7480, 6.4119004E-02
504.2301, 5.5525001E-02
504.7122, 8.2909003E-02
505.1944, 0.1627540
505.6765, 0.2646450
506.1586, 0.3006920
506.6407, 0.1988330
507.1228, 0.1295380
507.6049, 0.1248630
508.0871, 0.1405220
508.5692, 0.1388740
509.0513, 0.1231100
509.5334, 0.1265350
510.0155, 0.1860520
510.4977, 0.2808480
510.9798, 0.3025380
511.4619, 0.1961840
511.9440, 0.1457120
512.4261, 0.2868840
512.9082, 0.4643590
513.3903, 0.5268290
513.8724, 0.4496570
514.3546, 0.3626670
514.8367, 0.3591790
515.3188, 0.4188840
515.8009, 0.4914800
516.2830, 0.5775180
516.7651, 0.6549430
517.2473, 0.7076910
517.7294, 0.7390020
518.2115, 0.7607920
518.6936, 0.7424390
519.1757, 0.7596740
519.6578, 0.8810060
520.1400, 1.050028
520.6221, 1.185472
521.1042, 1.267241
521.5863, 1.288363
522.0684, 1.226938
522.5505, 1.064459
523.0327, 1.006618
523.5148, 1.101740
523.9969, 1.231894
524.4790, 1.397772
524.9611, 1.556408
525.4432, 1.666080
525.9254, 1.710745
526.4075, 1.696751
526.8896, 1.607424
527.3717, 1.404165
527.8538, 1.320030
528.3359, 1.492519
528.8181, 1.640223
529.3002, 1.617182
529.7823, 1.479700
530.2644, 1.353786
530.7465, 1.287500
531.2286, 1.263662
531.7108, 1.281397
532.1929, 1.336157
532.6750, 1.350115
533.1571, 1.289379
533.6392, 1.202314
534.1213, 1.127380
534.6035, 1.066795
535.0856, 1.045849
535.5677, 1.130306
536.0498, 1.203619
536.5319, 1.174927
537.0140, 1.062119
537.4962, 0.9078390
537.9783, 0.7227570
538.4604, 0.5534020
538.9425, 0.4889090
539.4246, 0.5841920
539.9067, 0.6474690
540.3889, 0.6761250
540.8710, 0.6770550
541.3531, 0.6369800
541.8352, 0.5734690
542.3173, 0.5286120
542.7994, 0.5287300
543.2816, 0.5382180
543.7637, 0.4593370
544.2458, 0.2420160
544.7279, 0.1008320
545.2100, 0.1210210
545.6921, 0.1787410
546.1743, 0.2302610
546.6564, 0.2654290
547.1385, 0.2638090
547.6206, 0.1990780
548.1027, 0.1058960
548.5848, 2.7914001E-02
549.0670, 3.4520999E-02
549.5491, 6.4873002E-02
550.0312, 5.1337998E-02
550.5133, 1.0462000E-02
550.9954, 4.4096000E-02
551.4775, 0.1150670
551.9597, 0.1562920
552.4418, 0.1280840
552.9239, 9.2502996E-02
553.4060, 0.1042210
553.8881, 0.1519890
554.3702, 0.1946680
554.8524, 0.2125090
555.3345, 0.2060700
555.8166, 0.1740060
556.2987, 8.9005001E-02
556.7808, 3.2143001E-02
557.2629, 1.5383000E-02
557.7451, 1.0981000E-02
558.2272, 3.2250001E-03
558.7093, 5.3349999E-03
559.1914, 1.9860000E-03
559.6735, 2.3314999E-02
560.1556, 5.6031998E-02
560.6378, 7.0362002E-02
561.1199, 6.8190001E-02
561.6020, 3.1957999E-02
562.0841, 7.4763998E-02
562.5662, 0.1821710
563.0483, 0.2498150
563.5305, 0.2740140
564.0126, 0.2390310
564.4947, 8.3838001E-02
564.9768, 9.2446998E-02
565.4589, 0.1986450
565.9410, 0.2382470
566.4232, 0.2133750
566.9053, 0.1083560
567.3874, 2.2829999E-03
567.8695, 9.0140002E-03
568.3516, 0.2065940
568.8337, 0.3065800
569.3159, 0.2345290
569.7980, 0.1382010
570.2801, 8.1479996E-02
570.7622, 6.1335001E-02
571.2443, 5.5778999E-02
571.7264, 5.4731000E-02
572.2086, 6.8556003E-02
572.6907, 0.1286910
573.1728, 0.2620720
573.6549, 0.3329220
574.1370, 0.2860240
574.6191, 0.2252810
575.1013, 0.1828290
575.5834, 0.1630040
576.0655, 0.1762870
576.5476, 0.2400490
577.0297, 0.3063260
577.5118, 0.3286440
577.9940, 0.3087980
578.4761, 0.2436830
578.9582, 0.1168140
579.4403, 3.6330000E-03
579.9224, 4.4964001E-02
580.4045, 9.9179996E-03
580.8867, 1.2621000E-02
581.3688, 9.2829997E-03
581.8509, 1.1030000E-02
582.3330, 7.9180002E-02
582.8151, 0.1918960
583.2972, 0.2088470
583.7794, 0.1029640
584.2615, 3.7769001E-02
584.7436, 0.1108300
585.2257, 0.1127010
585.7078, 0.1127280
586.1899, 0.1462650
586.6721, 0.1302890
587.1542, 1.3447000E-02
587.6363, 0.1851330
588.1184, 0.2697330
588.6005, 0.2421650
589.0826, 0.1758650
589.5648, 0.1115890
590.0469, 6.0699001E-02
590.5290, 7.7359997E-02
591.0111, 0.1780450
591.4932, 0.2794720
591.9753, 0.3349840
592.4575, 0.3587700
592.9396, 0.3932480
593.4217, 0.4586010
593.9038, 0.4830610
594.3859, 0.4047950
594.8680, 0.2994250
595.3502, 0.2499960
595.8323, 0.2571090
596.3144, 0.2704510
596.7965, 0.2544480
597.2786, 0.2221810
597.7607, 0.2223740
598.2429, 0.2729430
598.7250, 0.3247740
599.2071, 0.3998640
599.6892, 0.4536230
600.1713, 0.4369560
600.6534, 0.3715550
601.1356, 0.3291870
601.6177, 0.3573720
602.0998, 0.4226260
602.5819, 0.4746340
603.0640, 0.5138850
603.5461, 0.5236550
604.0283, 0.4790730
604.5104, 0.4353870
604.9925, 0.4719280
605.4746, 0.5771240
605.9567, 0.6484240
606.4388, 0.6757070
606.9210, 0.6616020
607.4031, 0.5672870
607.8852, 0.4429130
608.3673, 0.3744110
608.8494, 0.3883000
609.3315, 0.4694000
609.8137, 0.6128310
610.2958, 0.8322680
610.7779, 0.9667910
611.2600, 0.9179420
611.7421, 0.9001200
612.2242, 1.033028
612.7064, 1.190300
613.1885, 1.202408
613.6706, 1.038382
614.1527, 0.8695340
614.6348, 0.8503110
615.1169, 0.9411790
615.5991, 1.041891
616.0812, 1.155598
616.5633, 1.238419
617.0454, 1.243916
617.5275, 1.221889
618.0096, 1.297594
618.4918, 1.517731
618.9739, 1.669153
619.4560, 1.662880
619.9381, 1.605330
620.4202, 1.561152
620.9023, 1.546211
621.3845, 1.583567
621.8666, 1.691847
622.3487, 1.830210
622.8308, 1.869665
623.3129, 1.740719
623.7950, 1.712496
624.2772, 1.884937
624.7593, 2.072641
625.2414, 2.194675
625.7235, 2.271801
626.2056, 2.351347
626.6877, 2.453974
627.1699, 2.544947
627.6520, 2.582817
628.1341, 2.581079
628.6162, 2.586086
629.0983, 2.607428
629.5804, 2.611975
630.0626, 2.559429
630.5447, 2.456377
631.0268, 2.464935
631.5089, 2.716330
631.9910, 2.895580
632.4731, 2.878115
632.9553, 2.802992
633.4374, 2.775955
633.9195, 2.803413
634.4016, 2.889717
634.8837, 3.023552
635.3658, 3.167841
635.8480, 3.161676
636.3301, 2.967617
636.8122, 2.808346
637.2943, 2.713953
637.7764, 2.677944
638.2585, 2.746208
638.7407, 2.876925
639.2228, 2.914143
639.7049, 2.707533
640.1870, 2.467567
640.6691, 2.377384
641.1512, 2.377184
641.6334, 2.350048
642.1155, 2.271351
642.5976, 2.157595
643.0797, 2.062828
643.5618, 1.996351
644.0439, 1.916107
644.5261, 1.828554
645.0082, 1.764124
645.4903, 1.741850
645.9724, 1.719616
646.4545, 1.640120
646.9366, 1.511700
647.4188, 1.383881
647.9009, 1.277302
648.3830, 1.210896
648.8651, 1.214710
649.3472, 1.301203
649.8293, 1.331606
650.3115, 1.246300
650.7936, 1.117304
651.2757, 1.023937
651.7578, 0.9737470
652.2399, 0.9506630
652.7220, 1.019312
653.2042, 1.045635
653.6863, 0.9070220
654.1684, 0.7086980
654.6505, 0.6415250
655.1326, 0.7509080
655.6147, 0.9028930
656.0969, 0.9500770
656.5790, 0.8979030
657.0611, 0.8404730
657.5432, 0.7634260
658.0253, 0.7111680
658.5074, 0.7282680
658.9896, 0.7590810
659.4717, 0.7587010
659.9538, 0.7241360
660.4359, 0.6722030
660.9180, 0.5818250
661.4001, 0.4937670
661.8823, 0.4655860
662.3644, 0.4838030
662.8465, 0.4817960
663.3286, 0.4322610
663.8107, 0.3812470
664.2928, 0.3952220
664.7750, 0.4849240
665.2571, 0.5545920
665.7392, 0.6341950
666.2213, 0.6565900
666.7034, 0.5650900
667.1855, 0.4313340
667.6677, 0.3139930
668.1498, 0.2304690
668.6319, 0.2082480
669.1140, 0.3278790
669.5961, 0.5086780
670.0782, 0.5538410
670.5604, 0.4618300
671.0425, 0.3404710
671.5246, 0.2102930
672.0067, 0.1141930
672.4888, 0.1362800
672.9709, 0.3153360
673.4531, 0.4091070
673.9352, 0.3540950
674.4173, 0.2770810
674.8994, 0.2126750
675.3815, 0.1701950
675.8636, 0.1607090
676.3458, 0.1854340
676.8279, 0.2282770
677.3100, 0.2833180
677.7921, 0.3436010
678.2742, 0.3595640
678.7563, 0.3226300
679.2385, 0.2725680
679.7206, 0.2140790
680.2027, 0.1575780
680.6848, 0.1131230
681.1669, 8.0219001E-02
681.6490, 6.4967997E-02
682.1312, 7.6305002E-02
682.6133, 9.8736003E-02
683.0954, 0.1311360
683.5775, 0.1648670
684.0596, 0.1855350
684.5417, 0.1883530
685.0239, 0.1754210
685.5060, 0.1453300
685.9881, 9.9154003E-02
686.4702, 6.9633000E-02
686.9523, 6.0509000E-02
687.4344, 5.2384999E-02
687.9166, 8.5215002E-02
688.3987, 0.1589370
688.8808, 0.1722580
689.3629, 5.6828000E-02
689.8450, 2.7817000E-02
690.3271, 1.2827000E-02
690.8093, 5.8311000E-02
691.2914, 7.1377002E-02
691.7735, 0.1208690
692.2556, 6.6390000E-03
692.7377, 6.9430000E-03
693.2198, 6.5922000E-02
693.7020, 1.1370000E-03
694.1841, 2.8835000E-02
694.6662, 7.0212997E-02
695.1483, 9.9629998E-02
695.6304, 1.9413000E-02
696.1125, 8.4220998E-02
696.5947, 0.1090470
697.0768, 7.5231999E-02
697.5589, 5.6774002E-02
698.0410, 1.5360000E-02
698.5231, 5.3452000E-02
699.0052, 6.9072999E-02
699.4874, 0.1583020
699.9695, 3.7866998E-02
700.4516, 5.1405001E-02
700.9337, 0.1225850
701.4158, 6.0253002E-02
701.8979, 8.7054998E-02
702.3801, 0.1159880
702.8622, 5.5819001E-02
703.3443, 8.7879002E-02
703.8264, 2.6323000E-02
704.3085, 2.9800000E-04
704.7906, 3.7943002E-02
705.2728, 2.0994000E-02
705.7549, 0.1590310
706.2370, 8.5640000E-03
706.7191, 5.4598000E-02
707.2012, 2.4389999E-03
707.6833, 7.2278999E-02
708.1655, 2.2472000E-02
708.6476, 6.2944002E-02
709.1297, 0.1301000
709.6118, 8.9518003E-02
710.0939, 7.3729999E-02
710.5760, 9.1536999E-02
711.0581, 9.8768003E-02
711.5402, 6.3265003E-02
712.0223, 6.8602003E-02
712.5045, 6.6526003E-02
712.9866, 0.1209950
713.4687, 9.5840003E-03
713.9508, 5.4768000E-02
714.4329, 9.9349998E-02
714.9150, 0.1156010
715.3972, 0.1351830
715.8793, 0.2179890
716.3614, 0.3392470
716.8435, 0.3204710
717.3256, 0.1153580
717.8077, 7.8319997E-02
718.2899, 0.1478140
718.7720, 0.1166150
719.2541, 2.8605999E-02
719.7362, 0.1844500
720.2183, 0.2818660
720.7004, 0.1259800
721.1826, 3.6667001E-02
721.6647, 5.6786001E-02
722.1468, 2.1934999E-02
722.6289, 0.1137810
723.1110, 0.1855680
723.5931, 0.2219100
724.0753, 0.1678680
724.5574, 5.4239001E-02
725.0395, 6.5482996E-02
725.5216, 0.2258430
726.0037, 0.3657610
726.4858, 0.4084570
726.9680, 0.3986000
727.4501, 0.4085640
727.9322, 0.4511260
728.4143, 0.4321540
728.8964, 0.2667450
729.3785, 0.1271500
729.8607, 0.1055530
730.3428, 0.1495800
730.8249, 0.1839310
731.3070, 0.1902390
731.7891, 0.2055210
732.2712, 0.2722640
732.7534, 0.3660700
733.2355, 0.3999310
733.7176, 0.3692300
734.1997, 0.4046020
734.6818, 0.5808320
735.1639, 0.7528610
735.6461, 0.7471850
736.1282, 0.5713900
736.6103, 0.4889560
737.0924, 0.5954570
737.5745, 0.6701740
738.0566, 0.6180650
738.5388, 0.5375060
739.0209, 0.5118770
739.5030, 0.5487730
739.9851, 0.6270500
740.4672, 0.7443560
740.9493, 0.8634970
741.4315, 0.9101220
741.9136, 0.8913000
742.3957, 0.9040410
742.8778, 0.9763050
743.3599, 1.015013
743.8420, 0.9282250
744.3242, 0.7700000
744.8063, 0.7307170
745.2884, 0.8647120
745.7705, 0.9882180
746.2526, 1.110662
746.7347, 1.181345
747.2169, 1.116264
747.6990, 0.9943010
748.1811, 0.9348960
748.6632, 0.9814070
749.1453, 1.052530
749.6274, 1.022566
750.1096, 0.9403570
750.5917, 0.9020230
751.0738, 0.9143300
751.5559, 0.9356900
752.0380, 0.9553360
752.5201, 0.9797950
753.0023, 1.008146
753.4844, 1.041641
753.9665, 1.053726
754.4486, 1.018396
754.9307, 0.9818940
755.4128, 0.9437350
755.8950, 0.9134460
756.3771, 0.9186440
756.8592, 0.9562820
757.3413, 0.9987550
757.8234, 1.069870
758.3055, 1.137520
758.7877, 1.158957
759.2698, 1.156309
759.7519, 1.131693
760.2340, 1.092905
760.7161, 1.051525
761.1982, 1.004389
761.6804, 0.9629990
762.1625, 0.9404660
762.6446, 0.9717040
763.1267, 0.9644700
763.6088, 0.8703230
764.0909, 0.7848630
764.5731, 0.7256160
765.0552, 0.7037180
765.5373, 0.7457430
766.0194, 0.8747860
766.5015, 0.9455870
766.9836, 0.7437250
767.4658, 0.4548660
767.9479, 0.4012470
768.4300, 0.5661410
768.9121, 0.7111280
769.3942, 0.7443900
769.8763, 0.7006170
770.3585, 0.6155260
770.8406, 0.4788090
771.3227, 0.4095520
771.8048, 0.4576850
772.2869, 0.4945090
772.7690, 0.4749510
773.2512, 0.4383450
773.7333, 0.4220390
774.2154, 0.4242250
774.6975, 0.4124340
775.1796, 0.3480150
775.6617, 0.2916510
776.1439, 0.3018700
776.6260, 0.3477270
777.1081, 0.3816300
777.5902, 0.3893430
778.0723, 0.3677810
778.5544, 0.3126340
779.0366, 0.2347160
779.5187, 0.1545070
780.0008, 6.2523000E-02
780.4829, 4.0876001E-02
780.9650, 0.1261100
781.4471, 0.2318500
781.9293, 0.3392600
782.4114, 0.4210280
782.8935, 0.4026870
783.3756, 0.2316990
783.8577, 0.1516630
784.3398, 0.3208120
784.8220, 0.5025200
785.3041, 0.5502450
785.7862, 0.4920330
786.2683, 0.3675610
786.7504, 0.2010170
787.2325, 6.8888001E-02
787.7147, 6.5413997E-02
788.1968, 0.1462690
788.6789, 0.1583880
789.1610, 9.9962004E-02
789.6431, 8.0716997E-02
790.1252, 0.1379760
790.6074, 0.2245900
791.0895, 0.3091700
791.5716, 0.3871380
792.0537, 0.3994350
792.5358, 0.2625520
793.0179, 0.1819210
793.5001, 0.2305510
793.9822, 0.2910100
794.4643, 0.2601800
794.9464, 0.1812000
795.4285, 0.1706980
795.9106, 0.2789920
796.3928, 0.4117680
796.8749, 0.4991780
797.3570, 0.5487000
797.8391, 0.5664020
798.3212, 0.5566540
798.8033, 0.5419140
799.2855, 0.5316260
799.7676, 0.5194090
800.2497, 0.4889980
800.7318, 0.4361250
801.2139, 0.4553890
801.6960, 0.5988180
802.1782, 0.7206290
802.6603, 0.7875670
803.1424, 0.8145940
803.6245, 0.7809510
804.1066, 0.7076800
804.5887, 0.6956390
805.0709, 0.8480420
805.5530, 0.9594960
806.0351, 0.8322890
806.5172, 0.6629580
806.9993, 0.7355420
807.4814, 1.004684
807.9636, 1.192202
808.4457, 1.143969
808.9278, 0.9928280
809.4099, 0.9448700
809.8920, 0.9930130
810.3741, 1.043119
810.8563, 1.091702
811.3384, 1.145243
811.8205, 1.223091
812.3026, 1.282021
812.7847, 1.220747
813.2668, 0.9948310
813.7490, 0.9863200
814.2311, 1.442427
814.7132, 1.796091
815.1953, 1.830139
815.6774, 1.741560
816.1595, 1.433275
816.6417, 1.748669
817.1238, 1.960484
817.6059, 2.074375
818.0880, 1.796556
818.5701, 2.024843
819.0522, 2.050484
819.5344, 2.067940
820.0165, 2.367788
820.4986, 2.147554
820.9807, 2.443163
821.4628, 2.533049
821.9449, 2.717262
822.4271, 2.697584
822.9092, 2.741007
823.3913, 2.988642
823.8734, 3.123375
824.3555, 3.080622
824.8376, 3.052378
825.3198, 3.196310
825.8019, 3.417517
826.2840, 3.637838
826.7661, 3.894556
827.2482, 4.082649
827.7303, 4.108414
828.2125, 4.076477
828.6946, 4.092157
829.1767, 4.161209
829.6588, 4.242626
830.1409, 4.314013
830.6230, 4.392174
831.1052, 4.515934
831.5873, 4.667294
832.0694, 4.766266
832.5515, 4.806915
833.0336, 4.841541
833.5157, 4.892744
833.9979, 4.953815
834.4800, 5.021696
834.9621, 5.102165
835.4442, 5.121922
835.9263, 5.029600
836.4084, 4.951672
836.8906, 4.884865
837.3727, 4.862223
837.8548, 4.942427
838.3369, 5.092625
838.8190, 5.197643
839.3011, 5.243347
839.7833, 5.202539
840.2654, 4.966715
840.7475, 4.703146
841.2296, 4.620518
841.7117, 4.682581
842.1938, 4.738884
842.6760, 4.725744
843.1581, 4.651703
843.6402, 4.487642
844.1223, 4.266939
844.6044, 4.187078
845.0865, 4.258793
845.5687, 4.304258
846.0508, 4.274130
846.5329, 4.181787
847.0150, 4.015022
847.4971, 3.788870
847.9792, 3.686670
848.4614, 3.826204
848.9435, 3.902205
849.4256, 3.850790
849.9077, 3.758251
850.3898, 3.672289
850.8719, 3.599821
851.3541, 3.534061
851.8362, 3.469244
852.3183, 3.396305
852.8004, 3.283989
853.2825, 3.194078
853.7646, 3.205978
854.2468, 3.270790
854.7289, 3.295465
855.2110, 3.257685
855.6931, 3.182289
856.1752, 3.078949
856.6573, 2.968464
857.1395, 2.887756
857.6216, 2.836952
858.1037, 2.864527
858.5858, 3.006498
859.0679, 3.075315
859.5500, 2.917789
860.0322, 2.645409
860.5143, 2.521336
860.9964, 2.598734
861.4785, 2.652876
861.9606, 2.715185
862.4427, 2.723246
862.9249, 2.573786
863.4070, 2.414049
863.8891, 2.442917
864.3712, 2.633488
864.8533, 2.702503
865.3354, 2.434277
865.8176, 2.173574
866.2997, 2.183657
866.7818, 2.298254
867.2639, 2.296715
867.7460, 2.191326
868.2281, 2.127184
868.7103, 2.174507
869.1924, 2.239325
869.6745, 2.171810
870.1566, 2.006725
870.6387, 1.936033
871.1208, 1.964907
871.6030, 1.966038
872.0851, 1.890070
872.5672, 1.801569
873.0493, 1.771452
873.5314, 1.792521
874.0135, 1.797289
874.4957, 1.793795
874.9778, 1.758835
875.4599, 1.651541
875.9420, 1.552589
876.4241, 1.507406
876.9063, 1.493793
877.3884, 1.471764
877.8705, 1.433762
878.3526, 1.403976
878.8347, 1.416990
879.3168, 1.413713
879.7990, 1.321127
880.2811, 1.204277
880.7632, 1.175535
881.2453, 1.233881
881.7274, 1.269072
882.2095, 1.200708
882.6917, 1.095362
883.1738, 1.049835
883.6559, 1.048454
884.1380, 1.036785
884.6201, 1.010620
885.1022, 1.007896
885.5844, 1.054024
886.0665, 1.085901
886.5486, 0.9937460
887.0307, 0.7735310
887.5128, 0.6225070
887.9949, 0.5486160
888.4771, 0.5236660
888.9592, 0.5691910
889.4413, 0.6264310
889.9234, 0.6376480
890.4055, 0.6181560
890.8876, 0.6308310
891.3698, 0.7061270
891.8519, 0.7565480
892.3340, 0.7820190
892.8161, 0.7662530
893.2982, 0.6674770
893.7803, 0.5366590
894.2625, 0.4424420
894.7446, 0.3989280
895.2267, 0.3886260
895.7088, 0.4272940
896.1909, 0.4685590
896.6730, 0.4866310
897.1552, 0.4671990
897.6373, 0.3515910
898.1194, 0.1595380
898.6015, 9.2810001E-03
899.0836, 3.1374000E-02
899.5657, 3.4940001E-03
900.0479, 4.2339001E-02
900.5300, 0.1017950
901.0121, 0.1387940
901.4942, 0.1515830
901.9763, 0.1491180
902.4584, 0.1270260
902.9406, 0.1212120
903.4227, 0.1890220
903.9048, 0.3103390
904.3869, 0.2930530
904.8690, 3.9191999E-02
905.3511, 0.1601470
905.8333, 0.3089890
906.3154, 0.3683130
906.7975, 0.2432710
907.2796, 5.1263999E-02
907.7617, 1.8654000E-02
908.2438, 6.1539002E-02
908.7260, 0.1251200
909.2081, 0.1003460
909.6902, 8.4270000E-02
910.1723, 0.1562230
910.6544, 0.2428820
911.1365, 0.2540970
911.6187, 0.1949920
912.1008, 0.1337240
912.5829, 0.1049000
913.0650, 7.0610002E-02
913.5471, 4.0578999E-02
914.0292, 0.1636350
914.5114, 0.1734620
914.9935, 9.3298003E-02
915.4756, 2.6337000E-02
915.9577, 4.7869999E-03
916.4398, 3.0330000E-03
916.9219, 3.1404000E-02
917.4041, 6.6207998E-02
917.8862, 5.1213998E-02
918.3683, 1.4444000E-02
918.8504, 3.6766000E-02
919.3325, 1.0313000E-02
919.8146, 2.4656000E-02
920.2968, 6.9052003E-02
920.7789, 0.2025570
921.2610, 0.2472230
921.7431, 0.1909690
922.2252, 0.1176800
922.7073, 1.3235000E-02
923.1895, 9.5519997E-02
923.6716, 9.7131997E-02
924.1537, 4.8197001E-02
924.6358, 5.7285000E-02
925.1179, 0.1965620
925.6000, 0.2968100
926.0822, 0.3392490
926.5643, 0.3678230
927.0464, 0.3703120
927.5285, 0.3863660
928.0106, 0.4624440
928.4927, 0.5562360
928.9749, 0.5964780
929.4570, 0.5805990
929.9391, 0.5806480
930.4212, 0.6400260
930.9033, 0.7266790
931.3854, 0.8168410
931.8676, 0.9118820
932.3497, 1.024940
932.8318, 1.146774
933.3139, 1.237333
933.7960, 1.279903
934.2781, 1.305445
934.7603, 1.345846
935.2424, 1.400192
935.7245, 1.463097
936.2066, 1.535612
936.6887, 1.647655
937.1708, 1.809935
937.6530, 1.922161
938.1351, 1.897160
938.6172, 1.620335
939.0993, 2.024155
939.5814, 2.298117
940.0635, 2.447809
940.5457, 2.179491
941.0278, 2.390942
941.5099, 2.373423
941.9920, 2.321409
942.4741, 2.525501
942.9562, 2.183207
943.4384, 2.330423
943.9205, 2.245607
944.4026, 2.220003
944.8847, 2.213156
945.3668, 2.204714
945.8489, 2.165012
946.3311, 2.149212
946.8132, 2.288273
947.2953, 2.581726
947.7774, 2.714224
948.2595, 2.443277
948.7416, 2.148224
949.2238, 2.025894
949.7059, 1.972826
950.1880, 1.901541
950.6701, 1.801388
951.1522, 1.675432
951.6343, 1.524187
952.1165, 1.380344
952.5986, 1.282413
953.0807, 1.197124
953.5628, 1.050850
954.0449, 0.8861270
954.5270, 0.8219050
955.0092, 0.8645380
955.4913, 0.9128570
955.9734, 0.9039520
956.4555, 0.8545090
956.9376, 0.7795300
957.4197, 0.6881200
957.9018, 0.6107940
958.3839, 0.5481000
958.8660, 0.5045050
959.3481, 0.4840770
959.8303, 0.4522510
960.3124, 0.3699670
960.7945, 0.2579440
961.2766, 0.1938190
961.7587, 0.1745910
962.2408, 0.2320900
962.7230, 0.4166390
963.2051, 0.5370900
963.6872, 0.4962770
964.1693, 0.3843330
964.6514, 0.3280960
965.1335, 0.3308730
965.6157, 0.3088700
966.0978, 0.2320500
966.5799, 0.1567840
967.0620, 6.4242996E-02
967.5441, 8.5279997E-03
968.0262, 4.4558000E-02
968.5084, 0.1153350
968.9905, 0.1308120
969.4726, 8.3185002E-02
969.9547, 5.4885998E-02
970.4368, 8.5956998E-02
970.9189, 0.1068270
971.4011, 8.2589999E-02
971.8832, 4.7215000E-02
972.3653, 1.5011000E-02
972.8474, 3.2269999E-03
973.3295, 5.5029001E-02
973.8116, 0.1931060
974.2938, 0.2959480
974.7759, 0.2202320
975.2580, 0.1493470
975.7401, 0.3279040
976.2222, 0.5789570
976.7043, 0.5901130
977.1865, 0.3693900
977.6686, 0.1599220
978.1507, 8.9158997E-02
978.6328, 9.4596997E-02
979.1149, 0.1081600
979.5970, 0.1539500
980.0792, 0.3159200
980.5613, 0.5443630
981.0434, 0.6743450
981.5255, 0.6792050
982.0076, 0.6810400
982.4897, 0.7811030
982.9719, 0.8961050
983.4540, 0.8164920
983.9361, 0.5960460
984.4182, 0.5724740
984.9003, 0.7601990
985.3824, 0.9633180
985.8646, 1.116072
986.3467, 1.225798
986.8288, 1.298059
987.3109, 1.336405
987.7930, 1.346954
988.2751, 1.321587
988.7573, 1.339674
989.2394, 1.423052
989.7215, 1.486599
990.2036, 1.483616
990.6857, 1.462658
991.1678, 1.494011
991.6500, 1.571739
992.1321, 1.578131
992.6142, 1.464029
993.0963, 1.390501
993.5784, 1.376907
994.0605, 1.400122
994.5427, 1.491125
995.0248, 1.586376
995.5069, 1.575394
995.9890, 1.449471
996.4711, 1.352877
996.9532, 1.306728
997.4354, 1.263556
997.9175, 1.207947
998.3996, 1.162346
998.8817, 1.149233
999.3638, 1.151609
999.8459, 1.148504
1000.328, 1.139505
1000.810, 1.085434
1001.292, 0.9362410
1001.774, 0.7919620
1002.257, 0.6852090
1002.739, 0.6056630
1003.221, 0.5424500
1003.703, 0.4991890
1004.185, 0.5030170
1004.667, 0.5647640
1005.149, 0.5818230
1005.631, 0.4423370
1006.113, 0.3078610
1006.596, 0.3096870
1007.078, 0.3690680
1007.560, 0.4073890
1008.042, 0.4072970
1008.524, 0.3479460
1009.006, 0.2172220
1009.488, 0.1107140
1009.970, 0.1194570
1010.453, 0.1772840
1010.935, 0.2462810
1011.417, 0.2941610
1011.899, 0.2429200
1012.381, 0.1042420
1012.863, 4.2590001E-03
1013.345, 4.2860000E-03
1013.827, 4.7164999E-02
1014.309, 9.0878002E-02
1014.792, 0.1222040
1015.274, 9.9615000E-02
1015.756, 4.6036001E-02
1016.238, 3.3197001E-02
1016.720, 7.1220003E-02
1017.202, 0.1260130
1017.684, 0.1789800
1018.166, 0.2146970
1018.648, 0.1936890
1019.131, 0.1373830
1019.613, 0.1387840
1020.095, 0.1882020
1020.577, 0.1940730
1021.059, 5.2949999E-02
1021.541, 0.2024250
1022.023, 0.3539710
1022.505, 0.4076540
1022.988, 6.9688998E-02
1023.470, 0.2372760
1023.952, 0.2030390
1024.434, 0.1594430
1024.916, 0.3963150
1025.398, 0.1107430
1025.880, 0.3431150
1026.362, 0.3718740
1026.844, 0.4948710
1027.327, 0.4134600
1027.809, 0.3950370
1028.291, 0.5811770
1028.773, 0.6581120
1029.255, 0.5561070
1029.737, 0.6849040
1030.219, 0.3963170
1030.701, 0.4779110
1031.184, 0.7233720
1031.666, 0.6380410
1032.148, 0.7716540
1032.630, 0.6275270
1033.112, 0.5373760
1033.594, 0.5007930
1034.076, 0.6004810
1034.558, 0.7045960
1035.041, 0.7049690
1035.523, 0.6256010
1036.005, 0.5280130
1036.487, 0.3647840
1036.969, 0.3738160
1037.451, 0.6893180
1037.933, 0.9066940
1038.415, 0.8498380
1038.897, 0.7030090
1039.380, 0.5746000
1039.862, 0.4827540
1040.344, 0.4522530
1040.826, 0.5127940
1041.308, 0.5804810
1041.790, 0.6952300
1042.272, 0.7527660
1042.754, 0.6174110
1043.236, 0.4828150
1043.719, 0.5192030
1044.201, 0.6680180
1044.683, 0.7600390
1045.165, 0.7895620
1045.647, 0.7668760
1046.129, 0.6346940
1046.611, 0.5277740
1047.093, 0.4822420
1047.576, 0.4760440
1048.058, 0.5310860
1048.540, 0.6136120
1049.022, 0.6244110
1049.504, 0.5317280
1049.986, 0.4739630
1050.468, 0.5043560
1050.950, 0.3040010
1051.432, 0.5347940
1051.915, 0.6585280
1052.397, 0.6845100
1052.879, 0.3187970
1053.361, 0.4582820
1053.843, 0.3945680
1054.325, 0.3225140
1054.807, 0.5327410
1055.289, 0.2229590
1055.771, 0.4296070
1056.254, 0.4322450
1056.736, 0.5275960
1057.218, 0.4183930
1057.700, 0.3721690
1058.182, 0.5300620
1058.664, 0.5746770
1059.146, 0.4411650
1059.628, 0.5410640
1060.111, 0.2244690
1060.593, 0.2750860
1061.075, 0.4832080
1061.557, 0.3606980
1062.039, 0.4646750
1062.521, 0.4817980
1063.003, 0.1059810
1063.485, 0.4134160
1063.968, 0.4254090
1064.450, 0.1340680
1064.932, 0.4182120
1065.414, 0.1688900
1065.896, 0.1101370
1066.378, 0.1947630
1066.860, 0.1299390
1067.342, 0.3006260
1067.824, 0.2442560
1068.307, 0.1675420
1068.789, 0.1794290
1069.271, 5.9471998E-02
1069.753, 0.1667080
1070.235, 7.4905999E-02
1070.717, 0.1406020
1071.199, 0.2420930
1071.681, 6.9518000E-02
1072.163, 9.8535001E-02
1072.646, 0.1344800
1073.128, 0.1604710
1073.610, 0.1795680
1074.092, 0.1909150
1074.574, 0.1989610
1075.056, 0.2129510
1075.538, 0.2315410
1076.020, 0.2377840
1076.503, 0.1962100
1076.985, 9.0442002E-02
1077.467, 0.1992830
1077.949, 0.2573390
1078.431, 0.2655640
1078.913, 7.6762997E-02
1079.395, 0.1424350
1079.877, 0.1059630
1080.359, 6.6486001E-02
1080.842, 0.1670200
1081.324, 7.4149999E-03
1081.806, 0.1056290
1082.288, 0.1008740
1082.770, 0.1432770
1083.252, 8.3586998E-02
1083.734, 5.5374000E-02
1084.216, 0.1291890
1084.698, 0.1464500
1085.181, 7.5240001E-02
1085.663, 0.1205090
1086.145, 4.2950999E-02
1086.627, 2.3437001E-02
1087.109, 7.5001001E-02
1087.591, 8.3539998E-03
1088.073, 6.8800002E-02
1088.555, 0.1404380
1089.037, 0.1207020
1089.520, 3.2561999E-02
1090.002, 0.1469670
1090.484, 9.2275999E-02
1090.966, 5.4226998E-02
1091.448, 0.1773030
1091.930, 0.3178250
1092.412, 0.3511190
1092.894, 0.2941600
1093.377, 0.1835670
1093.859, 2.7350999E-02
1094.341, 6.7166999E-02
1094.823, 1.1117000E-02
1095.305, 0.1503780
1095.787, 0.1111980
1096.269, 0.2588350
1096.751, 0.2987770
1097.234, 9.2009999E-02
1097.716, 7.4038997E-02
1098.198, 1.6432000E-02
1098.680, 5.0937001E-02
1099.162, 0.1921550
1099.644, 0.1370110
1100.126, 0.1010170
1100.608, 0.1126490
1101.090, 0.2280080
1101.573, 0.1187310
1102.055, 7.8713998E-02
1102.537, 0.2631440
1103.019, 0.3233080
1103.501, 0.1880040
1103.983, 0.3095310
1104.465, 2.7905000E-02
1104.947, 3.7315000E-02
1105.429, 0.2764620
1105.912, 0.1522230
1106.394, 0.2776150
1106.876, 0.3078910
1107.358, 9.4019003E-02
1107.840, 0.2555060
1108.322, 0.2799810
1108.804, 2.9212000E-02
1109.286, 0.1155700
1109.769, 7.0579998E-02
1110.251, 4.9079999E-02
1110.733, 0.1898040
1111.215, 0.3953570
1111.697, 0.4591450
1112.179, 0.3525970
1112.661, 0.2396680
1113.143, 8.1364997E-02
1113.625, 8.5619995E-03
1114.108, 3.5103001E-02
1114.590, 9.5739000E-02
1115.072, 0.1011310
1115.554, 9.3020000E-02
1116.036, 0.1521190
1116.518, 0.2738730
1117.000, 0.2939220
1117.482, 0.1105480
1117.964, 8.9189997E-03
1118.447, 2.7722999E-02
1118.929, 8.6048998E-02
1119.411, 0.1866990
1119.893, 0.2784390
1120.375, 0.3050400
1120.857, 0.2796660
1121.339, 0.2611320
1121.821, 0.2549400
1122.304, 0.2363540
1122.786, 0.1966040
1123.268, 0.1661620
1123.750, 0.1530000
1124.232, 0.1527860
1124.714, 0.1662000
1125.196, 0.1845520
1125.678, 0.1849830
1126.161, 0.1649050
1126.643, 0.1637870
1127.125, 0.1773580
1127.607, 0.2223340
1128.089, 0.3139440
1128.571, 0.3629400
1129.053, 0.3120560
1129.535, 0.2155560
1130.017, 0.1431220
1130.500, 0.1006380
1130.982, 0.1122490
1131.464, 0.1882230
1131.946, 0.1992060
1132.428, 0.1259850
1132.910, 9.5018998E-02
1133.392, 1.0420000E-03
1133.874, 0.2427500
1134.356, 0.3827710
1134.839, 0.4241370
1135.321, 7.3730998E-02
1135.803, 0.2292650
1136.285, 0.1819780
1136.767, 0.1257200
1137.249, 0.3520060
1137.731, 5.8917999E-02
1138.213, 0.2874300
1138.696, 0.3081760
1139.178, 0.4180000
1139.660, 0.3237450
1140.142, 0.2924380
1140.624, 0.4653620
1141.106, 0.5249820
1141.588, 0.4067910
1142.070, 0.5224350
1142.552, 0.2209510
1143.035, 0.2857780
1143.517, 0.5085050
1143.999, 0.3971040
1144.481, 0.5138330
1144.963, 0.5463780
1145.445, 0.1863010
1145.927, 0.2922320
1146.409, 0.2664590
1146.891, 0.3157040
1147.374, 0.4381250
1147.856, 0.4784560
1148.338, 0.3361590
1148.820, 0.1804950
1149.302, 0.1760030
1149.784, 0.2217090
1150.266, 0.2200160
1150.748, 0.1866810
1151.231, 0.1207780
1151.713, 5.0593000E-02
1152.195, 5.5666000E-02
1152.677, 0.1715160
1153.159, 0.2494860
1153.641, 0.2228220
1154.123, 0.1680830
1154.605, 8.4352002E-02
1155.088, 3.2474998E-02
1155.570, 0.1297360
1156.052, 0.2827650
1156.534, 0.3522290
1157.016, 0.3354620
1157.498, 0.2933860
1157.980, 0.2425210
1158.462, 0.2130060
1158.944, 0.2503390
1159.427, 0.2841870
1159.909, 0.2623660
1160.391, 0.2419290
1160.873, 0.3041990
1161.355, 0.4066180
1161.837, 0.4077210
1162.319, 0.2512990
1162.801, 0.1977070
1163.283, 0.3305680
1163.766, 0.4279260
1164.248, 0.4597740
1164.730, 0.4500500
1165.212, 0.3932260
1165.694, 0.3196430
1166.176, 0.2254220
1166.658, 0.1176030
1167.140, 0.1168060
1167.623, 0.2519560
1168.105, 0.3644910
1168.587, 0.4622910
1169.069, 0.4656200
1169.551, 0.3204390
1170.033, 0.1938080
1170.515, 0.2260160
1170.997, 0.3430940
1171.479, 0.3872860
1171.962, 0.3639380
1172.444, 0.3887100
1172.926, 0.4578980
1173.408, 0.4952600
1173.890, 0.4884600
1174.372, 0.4669690
1174.854, 0.4434530
1175.336, 0.4334750
1175.818, 0.4662490
1176.301, 0.5071960
1176.783, 0.4921000
1177.265, 0.4351540
1177.747, 0.3486780
1178.229, 0.2564450
1178.711, 0.2381080
1179.193, 0.2993160
1179.675, 0.3685750
1180.158, 0.4083080
1180.640, 0.4155330
1181.122, 0.3502620
1181.604, 0.2853510
1182.086, 0.3135520
1182.568, 0.3846050
1183.050, 0.4405600
1183.532, 0.4708430
1184.015, 0.4782650
1184.497, 0.4626580
1184.979, 0.4088440
1185.461, 0.2611750
1185.943, 0.1536880
1186.425, 0.2061660
1186.907, 0.2529510
1187.389, 0.1061210
1187.871, 5.0510999E-02
1188.354, 7.6043002E-02
1188.836, 0.3934910
1189.318, 0.5000310
1189.800, 0.2716600
1190.282, 0.1116090
1190.764, 9.4521999E-02
1191.246, 9.7138003E-02
1191.728, 9.6800998E-02
1192.210, 0.1181360
1192.693, 0.1973370
1193.175, 0.2857990
1193.657, 0.3277390
1194.139, 0.3199820
1194.621, 0.2278590
1195.103, 5.8360002E-03
1195.585, 9.8477997E-02
1196.067, 6.2035002E-02
1196.550, 5.2611001E-02
1197.032, 0.2461280
1197.514, 0.4154580
1197.996, 0.4863010
1198.478, 0.4803760
1198.960, 0.4247220
1199.442, 0.3279560
1199.924, 0.2021720
1200.406, 6.8691999E-02
1200.889, 0.1147630
1201.371, 0.3209170
1201.853, 0.3762040
1202.335, 0.1828620
1202.817, 5.8320002E-03
1203.299, 6.0920000E-02
1203.781, 0.2106610
1204.263, 0.3113830
1204.745, 0.3565600
1205.228, 0.3167940
1205.710, 0.2231400
1206.192, 9.9411003E-02
1206.674, 1.9633999E-02
1207.156, 4.5766000E-02
1207.638, 5.0838001E-02
1208.120, 0.1686600
1208.602, 0.2834900
1209.085, 0.3588710
1209.567, 0.3662420
1210.049, 0.3372280
1210.531, 0.2554560
1211.013, 0.1792470
1211.495, 0.2073830
1211.977, 0.3184610
1212.459, 0.3766440
1212.942, 0.3597540
1213.424, 0.3066440
1213.906, 0.1899970
1214.388, 7.9544999E-02
1214.870, 5.6246001E-02
1215.352, 0.1122160
1215.834, 3.6249999E-03
1216.316, 0.1831150
1216.798, 0.2754340
1217.281, 0.2904870
1217.763, 0.3062560
1218.245, 0.3299440
1218.727, 0.2690470
1219.209, 0.1060120
1219.691, 5.8054000E-02
1220.173, 0.1912590
1220.655, 0.2915970
1221.137, 0.2110240
1221.620, 8.7338999E-02
1222.102, 0.1378700
1222.584, 0.2828850
1223.066, 0.3035310
1223.548, 0.2455430
1224.030, 0.2387230
1224.512, 0.2722850
1224.994, 0.2541890
1225.477, 0.1711290
1225.959, 0.1083600
1226.441, 0.1193290
1226.923, 0.1472600
1227.405, 0.1522460
1227.887, 0.1466700
1228.369, 0.1257530
1228.851, 3.8423002E-02
1229.333, 0.2004290
1229.816, 0.3356320
1230.298, 0.3727310
1230.780, 1.7965000E-02
1231.262, 0.1691610
1231.744, 0.1175810
1232.226, 5.7668999E-02
1232.708, 0.2800470
1233.190, 1.7801000E-02
1233.672, 0.2000630
1234.155, 0.2120550
1234.637, 0.3182490
1235.119, 0.2204040
1235.601, 0.1855710
1236.083, 0.3548260
1236.565, 0.4105760
1237.047, 0.2886060
1237.529, 0.3949840
1238.012, 8.9841999E-02
1238.494, 0.1502180
1238.976, 0.3678350
1239.458, 0.2554450
1239.940, 0.3710590
1240.422, 0.1724620
1240.904, 0.1994280
1241.386, 0.2012680
1241.869, 0.1327450
1242.351, 4.4379000E-02
1242.833, 0.1430040
1243.315, 0.3677340
1243.797, 0.4372460
1244.279, 0.2890180
1244.761, 0.1345010
1245.243, 8.3448000E-02
1245.725, 9.0856001E-02
1246.208, 0.1587450
1246.690, 0.2332740
1247.172, 0.3228050
1247.654, 0.3735120
1248.136, 0.2655500
1248.618, 7.9030000E-02
1249.100, 9.0079997E-03
1249.582, 8.1239000E-02
1250.064, 0.1233490
1250.547, 9.3965001E-02
1251.029, 7.4403003E-02
1251.511, 0.1174960
1251.993, 0.1642020
1252.475, 0.1943070
1252.957, 0.2386600
1253.439, 0.3344520
1253.921, 0.4308550
1254.404, 0.4104750
1254.886, 0.3033150
1255.368, 0.3251710
1255.850, 0.4542280
1256.332, 0.4717900
1256.814, 0.3794810
1257.296, 0.3600390
1257.778, 0.4500060
1258.260, 0.5220790
1258.743, 0.4756860
1259.225, 0.3834180
1259.707, 0.3016420
1260.189, 0.2263090
1260.671, 0.1450970
1261.153, 8.6971000E-02
1261.635, 0.1058440
1262.117, 0.1765060
1262.599, 0.2566410
1263.082, 0.3340490
1263.564, 0.1097190
1264.046, 0.3348380
1264.528, 0.4546220
1265.010, 0.4777100
1265.492, 0.1092340
1265.974, 0.2452610
1266.456, 0.1787540
1266.939, 0.1050810
1267.421, 0.3137420
1267.903, 1.3610000E-03
1268.385, 0.2008910
1268.867, 0.1971090
1269.349, 0.2892940
1269.831, 0.1778360
1270.313, 0.1293710
1270.796, 0.2849450
1271.278, 0.3274620
1271.760, 0.1923560
1272.242, 0.2908470
1272.724, 2.7771000E-02
1273.206, 1.9733001E-02
1273.688, 0.2253640
1274.170, 9.9321999E-02
1274.652, 0.2017830
1275.135, 0.2172810
1275.617, 0.1114330
1276.099, 0.1141940
1276.581, 9.2734002E-02
1277.063, 9.0721004E-02
1277.545, 0.1185060
1278.027, 0.1386220
1278.509, 9.6377999E-02
1278.991, 9.6610002E-02
1279.474, 0.2398100
1279.956, 0.3067460
1280.438, 0.2076410
1280.920, 8.3742000E-02
1281.402, 6.5770000E-02
1281.884, 0.1131730
1282.366, 0.1520700
1282.848, 0.1719130
1283.331, 0.1252450
1283.813, 2.2200000E-04
1284.295, 2.0220000E-03
1284.777, 0.1458020
1285.259, 0.2141610
1285.741, 0.1206010
1286.223, 0.0000000E+00
##END=



