##NAMES=Klyuchevskite
##RRUFFID=R070659
##IDEAL CHEMISTRY=K_3_Cu^2+^_3_Fe^3+^O_2_(S^6+^O_4_)_4_
##LOCALITY=Yadevitaya fumarole, Tolbachik volcano, Kamchatka Oblast', Far-Eastern Region, Russia
##OWNER=RRUFF
##SOURCE=Michael Scott
##DESCRIPTION=Clusters of dark green radiating prismatic crystals associated with langbeinite, co-type sample
##STATUS=The identification of this mineral has been confirmed by single-crystal X-ray diffraction.
##URL=rruff.info/R070659
95.20758, 0.0000000E+00
95.68970, 11.54285
96.17181, 4.950195
96.65393, 2.463013
97.13605, 12.84302
97.61816, 38.69702
98.10028, 73.99524
98.58240, 93.11353
99.06451, 88.10791
99.54663, 41.36853
100.0287, 1.777466
100.5109, 3.029785
100.9930, 29.71021
101.4751, 62.21313
101.9572, 70.64880
102.4393, 56.17249
102.9215, 47.89893
103.4036, 55.33667
103.8857, 63.63306
104.3678, 67.28918
104.8499, 65.51404
105.3320, 60.52783
105.8142, 52.83008
106.2963, 40.64014
106.7784, 34.21545
107.2605, 42.90320
107.7426, 57.95435
108.2247, 70.49365
108.7069, 76.15063
109.1890, 76.10962
109.6711, 74.55603
110.1532, 64.95117
110.6353, 59.07629
111.1174, 61.13074
111.5996, 69.83875
112.0817, 82.51636
112.5638, 99.05554
113.0459, 121.6604
113.5280, 128.5566
114.0101, 102.6063
114.4923, 71.38660
114.9744, 63.37720
115.4565, 88.59863
115.9386, 109.8229
116.4207, 93.78479
116.9028, 43.09570
117.3850, 16.64038
117.8671, 53.27747
118.3492, 125.2250
118.8313, 166.3099
119.3134, 150.6169
119.7955, 110.7162
120.2777, 88.58972
120.7598, 86.57324
121.2419, 90.05103
121.7240, 85.64636
122.2061, 72.16418
122.6882, 59.68066
123.1704, 50.29456
123.6525, 43.76685
124.1346, 42.11621
124.6167, 47.79688
125.0988, 55.72778
125.5809, 54.49011
126.0631, 39.29248
126.5452, 26.45386
127.0273, 17.26172
127.5094, 11.39709
127.9915, 10.53540
128.4736, 12.65845
128.9558, 18.51697
129.4379, 29.50366
129.9200, 63.11243
130.4021, 84.60925
130.8842, 78.14709
131.3663, 51.33545
131.8485, 23.10925
132.3306, 12.39429
132.8127, 25.34119
133.2948, 30.46045
133.7769, 25.96497
134.2590, 16.99939
134.7412, 1.071533
135.2233, 8.152466
135.7054, 12.27795
136.1875, 0.9936520
136.6696, 62.45496
137.1517, 103.8248
137.6339, 107.7407
138.1160, 93.43152
138.5981, 87.10339
139.0802, 99.32166
139.5623, 118.3995
140.0444, 116.3982
140.5266, 84.03491
141.0087, 56.38281
141.4908, 51.28259
141.9729, 64.37964
142.4550, 76.99695
142.9371, 79.91125
143.4193, 77.62366
143.9014, 79.81689
144.3835, 90.81409
144.8656, 101.5103
145.3477, 102.4611
145.8298, 92.53906
146.3120, 79.39648
146.7941, 53.87012
147.2762, 30.44434
147.7583, 30.82910
148.2404, 77.89697
148.7225, 147.6140
149.2047, 176.9520
149.6868, 137.8717
150.1689, 96.17896
150.6510, 77.43896
151.1331, 76.08459
151.6152, 82.26123
152.0974, 93.80298
152.5795, 110.5365
153.0616, 113.8085
153.5437, 74.69556
154.0258, 41.20764
154.5080, 32.44019
154.9901, 45.51416
155.4722, 64.78308
155.9543, 74.42249
156.4364, 72.42017
156.9185, 66.65564
157.4007, 46.18604
157.8828, 29.85535
158.3649, 35.43347
158.8470, 64.26758
159.3291, 97.58899
159.8112, 104.8378
160.2934, 50.01624
160.7755, 25.57300
161.2576, 58.25720
161.7397, 107.5176
162.2218, 132.0582
162.7039, 115.7211
163.1861, 74.79211
163.6682, 50.62695
164.1503, 51.96155
164.6324, 56.86462
165.1145, 66.76208
165.5966, 77.82104
166.0788, 81.49048
166.5609, 71.69482
167.0430, 53.35022
167.5251, 45.91956
168.0072, 54.21460
168.4893, 66.30164
168.9715, 80.43542
169.4536, 95.30676
169.9357, 103.6796
170.4178, 99.06860
170.8999, 83.85352
171.3820, 69.52368
171.8642, 52.94104
172.3463, 39.54028
172.8284, 40.60669
173.3105, 59.36365
173.7926, 68.71240
174.2747, 30.51465
174.7569, 30.81592
175.2390, 69.77332
175.7211, 60.85730
176.2032, 22.01965
176.6853, 13.93872
177.1674, 49.11902
177.6496, 76.04822
178.1317, 89.13892
178.6138, 91.59290
179.0959, 90.15369
179.5780, 88.19104
180.0602, 85.38623
180.5423, 79.02637
181.0244, 61.57532
181.5065, 49.61035
181.9886, 57.21179
182.4707, 79.24475
182.9529, 97.34485
183.4350, 88.27966
183.9171, 46.54944
184.3992, 29.45947
184.8813, 72.77148
185.3634, 116.3634
185.8456, 134.1727
186.3277, 125.3820
186.8098, 106.3951
187.2919, 96.62292
187.7740, 100.7148
188.2561, 101.0317
188.7383, 92.42236
189.2204, 83.40723
189.7025, 79.57019
190.1846, 82.07507
190.6667, 87.99976
191.1488, 92.14612
191.6310, 94.67468
192.1131, 94.18896
192.5952, 89.69812
193.0773, 82.15173
193.5594, 71.04626
194.0415, 58.88000
194.5237, 50.24219
195.0058, 51.92834
195.4879, 82.69690
195.9700, 100.6339
196.4521, 96.17188
196.9342, 81.30615
197.4164, 71.00354
197.8985, 73.34753
198.3806, 83.00525
198.8627, 80.79797
199.3448, 44.84216
199.8270, 23.35095
200.3091, 39.84509
200.7912, 75.61523
201.2733, 95.30334
201.7554, 77.52881
202.2375, 32.37219
202.7197, 9.341797
203.2018, 10.89453
203.6839, 26.17188
204.1660, 64.15662
204.6481, 115.7837
205.1302, 152.8871
205.6124, 157.9294
206.0945, 134.5485
206.5766, 110.3512
207.0587, 73.63843
207.5408, 45.93237
208.0229, 45.67969
208.5051, 69.93835
208.9872, 94.02991
209.4693, 99.90613
209.9514, 92.03711
210.4335, 93.03760
210.9156, 114.3210
211.3978, 137.7393
211.8799, 149.1315
212.3620, 148.2697
212.8441, 136.7883
213.3262, 104.1283
213.8083, 61.03418
214.2905, 38.04382
214.7726, 56.23035
215.2547, 90.23560
215.7368, 108.6021
216.2189, 109.3890
216.7010, 102.9281
217.1832, 91.99829
217.6653, 78.83350
218.1474, 67.89502
218.6295, 59.32410
219.1116, 54.68115
219.5937, 58.22644
220.0759, 75.32019
220.5580, 87.33972
221.0401, 72.03467
221.5222, 42.45105
222.0043, 26.56067
222.4864, 47.11755
222.9686, 92.12610
223.4507, 124.8159
223.9328, 143.1459
224.4149, 150.7098
224.8970, 145.8197
225.3791, 132.9882
225.8613, 122.7792
226.3434, 126.2841
226.8255, 139.6676
227.3076, 138.6029
227.7897, 108.0560
228.2718, 82.29602
228.7540, 82.46411
229.2361, 101.2267
229.7182, 119.0073
230.2003, 120.8275
230.6824, 107.7620
231.1645, 97.26709
231.6467, 94.38599
232.1288, 88.10889
232.6109, 65.05286
233.0930, 31.23694
233.5751, 5.653076
234.0572, 6.544434
234.5394, 34.41919
235.0215, 56.19275
235.5036, 61.44104
235.9857, 68.79248
236.4678, 90.16858
236.9500, 121.4211
237.4321, 148.0054
237.9142, 155.4277
238.3963, 141.3763
238.8784, 130.1553
239.3605, 124.8317
239.8427, 119.9080
240.3248, 111.4834
240.8069, 100.9283
241.2890, 93.48926
241.7711, 95.43225
242.2532, 109.0504
242.7354, 117.9178
243.2175, 127.5422
243.6996, 127.4458
244.1817, 105.6772
244.6638, 66.92834
245.1459, 28.39062
245.6281, 6.376099
246.1102, 1.714233
246.5923, 10.62781
247.0744, 50.74585
247.5565, 88.38672
248.0386, 108.8820
248.5208, 111.8228
249.0029, 105.1804
249.4850, 97.16724
249.9671, 90.25171
250.4492, 71.25830
250.9313, 23.03223
251.4135, 21.02930
251.8956, 44.16528
252.3777, 46.41345
252.8598, 38.92639
253.3419, 33.18591
253.8240, 31.67139
254.3062, 24.50720
254.7883, 4.899902
255.2704, 13.75208
255.7525, 22.35938
256.2346, 22.10132
256.7167, 22.49878
257.1989, 35.05249
257.6810, 66.27612
258.1631, 81.24316
258.6452, 64.29529
259.1273, 47.48938
259.6094, 51.71655
260.0916, 74.89941
260.5737, 97.32666
261.0558, 98.54370
261.5379, 71.10083
262.0200, 57.16699
262.5021, 66.64038
262.9843, 77.96570
263.4664, 79.61499
263.9485, 71.57593
264.4306, 60.44824
264.9127, 52.42981
265.3948, 47.50281
265.8770, 46.37939
266.3591, 53.17761
266.8412, 59.46899
267.3233, 61.80103
267.8054, 59.63086
268.2875, 52.29126
268.7697, 36.81763
269.2518, 8.386230
269.7339, 4.260864
270.2160, 47.77112
270.6981, 89.69153
271.1802, 105.9835
271.6624, 97.26917
272.1445, 76.08325
272.6266, 50.93542
273.1087, 18.95679
273.5908, 9.199463
274.0729, 34.45520
274.5551, 64.73792
275.0372, 89.91235
275.5193, 108.1106
276.0014, 118.8845
276.4835, 120.5164
276.9656, 111.8092
277.4478, 111.4325
277.9299, 125.2063
278.4120, 139.7112
278.8941, 153.9137
279.3762, 164.8511
279.8583, 164.0232
280.3405, 141.9476
280.8226, 97.72546
281.3047, 82.08215
281.7868, 125.3168
282.2689, 161.0259
282.7510, 155.3973
283.2332, 120.7600
283.7153, 92.14209
284.1974, 95.48230
284.6795, 128.5365
285.1616, 143.1688
285.6437, 121.0573
286.1259, 102.5208
286.6080, 102.8347
287.0901, 116.1688
287.5722, 129.1759
288.0543, 133.6482
288.5364, 130.4534
289.0186, 126.8574
289.5007, 117.6179
289.9828, 113.7306
290.4649, 123.1492
290.9470, 139.2725
291.4291, 150.3965
291.9113, 149.8575
292.3934, 140.0634
292.8755, 132.7944
293.3576, 128.5275
293.8397, 126.2452
294.3218, 131.4923
294.8040, 137.3702
295.2861, 130.8702
295.7682, 104.7812
296.2503, 68.92371
296.7325, 55.18005
297.2146, 92.27710
297.6967, 118.8463
298.1788, 129.0858
298.6609, 127.0156
299.1430, 114.5648
299.6252, 92.47961
300.1073, 66.68774
300.5894, 50.89319
301.0715, 58.46814
301.5536, 59.39758
302.0357, 46.00671
302.5179, 29.35229
303.0000, 21.37744
303.4821, 25.55627
303.9642, 35.05554
304.4463, 37.48462
304.9284, 27.60266
305.4106, 18.46118
305.8927, 2.208740
306.3748, 8.637451
306.8569, 0.5885010
307.3390, 31.17932
307.8211, 67.41492
308.3033, 87.50659
308.7854, 88.88806
309.2675, 77.06738
309.7496, 33.36853
310.2317, 6.719482
310.7138, 20.22437
311.1960, 5.396240
311.6781, 24.68701
312.1602, 58.08948
312.6423, 98.19556
313.1244, 128.8511
313.6065, 158.2885
314.0887, 172.2346
314.5708, 151.7449
315.0529, 105.5439
315.5350, 63.40723
316.0171, 55.44946
316.4992, 86.02185
316.9814, 101.0524
317.4635, 80.16382
317.9456, 63.54858
318.4277, 68.01733
318.9098, 87.84167
319.3919, 107.9156
319.8741, 117.3168
320.3562, 116.6611
320.8383, 114.8198
321.3204, 111.8749
321.8025, 107.4589
322.2846, 99.90845
322.7668, 91.09607
323.2489, 83.65613
323.7310, 78.99854
324.2131, 77.10425
324.6952, 78.57043
325.1773, 88.52173
325.6595, 93.95557
326.1416, 84.43481
326.6237, 72.16467
327.1058, 74.54370
327.5879, 100.8794
328.0700, 135.1274
328.5522, 137.4500
329.0343, 81.20288
329.5164, 52.17639
329.9985, 93.83325
330.4806, 151.4979
330.9627, 177.8158
331.4449, 158.6736
331.9270, 120.0754
332.4091, 95.88037
332.8912, 87.05664
333.3733, 88.58850
333.8554, 119.6990
334.3376, 147.8314
334.8197, 143.7996
335.3018, 105.9657
335.7839, 71.11816
336.2660, 84.89233
336.7481, 149.4951
337.2303, 190.9873
337.7124, 184.1221
338.1945, 167.4264
338.6766, 167.0054
339.1587, 180.5348
339.6408, 189.9191
340.1230, 175.2635
340.6051, 140.4899
341.0872, 115.4736
341.5693, 106.5986
342.0514, 104.9501
342.5335, 105.2476
343.0157, 107.4623
343.4978, 111.7107
343.9799, 120.2917
344.4620, 130.5203
344.9441, 136.2871
345.4262, 136.5312
345.9084, 135.6736
346.3905, 135.7080
346.8726, 136.5776
347.3547, 138.3636
347.8368, 140.4937
348.3189, 144.0758
348.8011, 155.5999
349.2832, 175.5682
349.7653, 180.6923
350.2474, 147.5775
350.7295, 97.27039
351.2116, 70.47229
351.6938, 76.53638
352.1759, 93.59485
352.6580, 116.5381
353.1401, 141.2572
353.6222, 146.0280
354.1043, 114.2605
354.5865, 69.97192
355.0686, 58.68604
355.5507, 88.44299
356.0328, 116.6525
356.5149, 130.5778
356.9970, 132.5568
357.4792, 123.2544
357.9613, 100.9260
358.4434, 77.35022
358.9255, 70.14844
359.4076, 83.48718
359.8897, 89.44336
360.3719, 70.34619
360.8540, 51.10535
361.3361, 63.34436
361.8182, 108.3912
362.3003, 151.4456
362.7824, 158.5674
363.2646, 124.7207
363.7467, 103.2148
364.2288, 98.05347
364.7109, 100.0876
365.1930, 110.3486
365.6751, 124.4403
366.1573, 130.2318
366.6394, 118.0387
367.1215, 90.79883
367.6036, 75.40613
368.0857, 78.67297
368.5678, 85.17139
369.0500, 95.89282
369.5321, 105.6227
370.0142, 107.7850
370.4963, 98.72266
370.9784, 84.85535
371.4605, 83.06079
371.9427, 104.2457
372.4248, 122.0007
372.9069, 141.6028
373.3890, 153.7941
373.8711, 143.6990
374.3532, 110.7228
374.8354, 76.09106
375.3175, 72.56604
375.7996, 116.6868
376.2817, 140.6340
376.7638, 125.9918
377.2459, 107.5421
377.7281, 104.2200
378.2102, 113.6692
378.6923, 120.1349
379.1744, 106.8810
379.6566, 75.36121
380.1387, 58.40588
380.6208, 64.28088
381.1029, 75.21411
381.5850, 88.40637
382.0671, 100.9349
382.5493, 108.0864
383.0314, 107.0021
383.5135, 99.72083
383.9956, 87.72546
384.4777, 66.09814
384.9598, 54.99072
385.4420, 75.60938
385.9241, 105.0828
386.4062, 121.1260
386.8883, 117.3702
387.3704, 104.9159
387.8525, 89.62598
388.3347, 72.27490
388.8168, 68.02856
389.2989, 93.80872
389.7810, 120.1234
390.2631, 108.5536
390.7452, 56.47363
391.2274, 9.796875
391.7095, 11.59644
392.1916, 12.55530
392.6737, 2.649780
393.1558, 37.23926
393.6379, 70.05896
394.1201, 78.60889
394.6022, 64.43799
395.0843, 49.12610
395.5664, 36.97522
396.0485, 23.41846
396.5306, 2.701172
397.0128, 37.86475
397.4949, 57.75757
397.9770, 43.44141
398.4591, 0.3830570
398.9412, 32.23059
399.4233, 54.72131
399.9055, 68.52771
400.3876, 69.57703
400.8697, 63.11743
401.3518, 57.89478
401.8339, 57.02649
402.3160, 57.92590
402.7982, 55.32544
403.2803, 38.19836
403.7624, 36.02368
404.2445, 68.74792
404.7266, 102.6674
405.2087, 105.8311
405.6909, 77.04333
406.1730, 43.32886
406.6551, 36.68823
407.1372, 63.45129
407.6193, 76.94043
408.1014, 68.32947
408.5836, 54.96021
409.0657, 38.92322
409.5478, 22.96887
410.0299, 10.70374
410.5120, 5.348389
410.9941, 5.560547
411.4763, 6.063110
411.9584, 4.943237
412.4405, 8.004883
412.9226, 21.33679
413.4047, 37.04333
413.8868, 47.50525
414.3690, 50.50439
414.8511, 47.52539
415.3332, 36.04614
415.8153, 15.13782
416.2974, 5.938965
416.7795, 20.10559
417.2617, 41.86096
417.7438, 59.38000
418.2259, 72.48450
418.7080, 79.05530
419.1901, 77.05774
419.6722, 68.10303
420.1544, 49.87988
420.6365, 17.57751
421.1186, 1.059326
421.6007, 33.04431
422.0828, 103.5063
422.5649, 136.9677
423.0471, 95.95044
423.5292, 40.84863
424.0113, 10.69092
424.4934, 1.745483
424.9755, 4.234375
425.4576, 15.03687
425.9398, 25.69678
426.4219, 19.68384
426.9040, 20.20215
427.3861, 47.50146
427.8682, 43.85120
428.3503, 28.38354
428.8325, 19.76196
429.3146, 23.50793
429.7967, 41.56848
430.2788, 78.51196
430.7609, 147.0719
431.2430, 179.0482
431.7252, 156.1603
432.2073, 122.0753
432.6894, 85.00916
433.1715, 53.83545
433.6536, 44.88269
434.1357, 73.72339
434.6179, 130.5259
435.1000, 162.5769
435.5821, 154.1896
436.0642, 143.5656
436.5463, 138.6199
437.0284, 136.1865
437.5106, 132.4684
437.9927, 126.1917
438.4748, 120.3792
438.9569, 120.8169
439.4390, 128.2795
439.9211, 129.3114
440.4033, 113.4393
440.8854, 99.11829
441.3675, 101.5703
441.8496, 119.0182
442.3317, 136.8416
442.8138, 150.9395
443.2960, 159.8212
443.7781, 158.6508
444.2602, 144.8307
444.7423, 129.5518
445.2244, 120.4698
445.7065, 117.8085
446.1887, 120.8746
446.6708, 139.3569
447.1529, 152.9647
447.6350, 140.9347
448.1171, 115.1987
448.5992, 109.8188
449.0814, 141.1882
449.5635, 183.9152
450.0456, 191.9602
450.5277, 145.8029
451.0098, 106.2795
451.4919, 70.97131
451.9741, 46.22803
452.4562, 43.14758
452.9383, 58.52905
453.4204, 73.89941
453.9025, 71.97693
454.3846, 52.61816
454.8668, 42.71069
455.3489, 59.41553
455.8310, 69.93848
456.3131, 65.53699
456.7952, 50.87256
457.2773, 33.81824
457.7595, 17.35510
458.2416, 3.163330
458.7237, 4.380737
459.2058, 4.502686
459.6879, 0.1157230
460.1700, 13.51392
460.6522, 28.24475
461.1343, 39.60083
461.6164, 47.60425
462.0985, 55.61584
462.5807, 66.60303
463.0628, 79.54065
463.5449, 94.04639
464.0270, 111.2894
464.5091, 116.6542
464.9912, 93.76904
465.4734, 53.74292
465.9555, 23.97095
466.4376, 6.452026
466.9197, 1.007813
467.4018, 16.51440
467.8839, 44.75500
468.3661, 60.99512
468.8482, 54.94910
469.3303, 39.50269
469.8124, 37.24902
470.2945, 58.02380
470.7766, 66.28455
471.2588, 50.57373
471.7409, 29.27966
472.2230, 12.91931
472.7051, 3.666504
473.1872, 3.087891
473.6693, 14.24329
474.1515, 35.24768
474.6336, 43.43762
475.1157, 20.40796
475.5978, 6.629150
476.0799, 13.22595
476.5620, 30.55359
477.0442, 50.05627
477.5263, 68.71277
478.0084, 82.56555
478.4905, 86.08923
478.9726, 78.69336
479.4547, 65.18408
479.9369, 39.29932
480.4190, 14.53174
480.9011, 5.510986
481.3832, 18.51672
481.8653, 16.71851
482.3474, 19.45508
482.8296, 65.40833
483.3117, 78.58252
483.7938, 57.80786
484.2759, 39.97058
484.7580, 48.49927
485.2401, 69.34241
485.7223, 69.28125
486.2044, 37.12097
486.6865, 8.373169
487.1686, 13.22583
487.6507, 21.56384
488.1328, 2.969116
488.6150, 62.34631
489.0971, 119.4796
489.5792, 131.9257
490.0613, 91.75793
490.5434, 62.22290
491.0255, 47.40906
491.5077, 37.14856
491.9898, 26.34753
492.4719, 17.75281
492.9540, 17.62622
493.4361, 29.57288
493.9182, 47.75293
494.4004, 59.70813
494.8825, 64.43298
495.3646, 65.84900
495.8467, 61.88831
496.3288, 56.72461
496.8109, 52.29321
497.2931, 48.88977
497.7752, 46.49847
498.2573, 46.99628
498.7394, 48.60474
499.2215, 45.51459
499.7036, 36.38110
500.1858, 24.58588
500.6679, 6.368591
501.1500, 11.45801
501.6321, 13.18109
502.1142, 11.60126
502.5963, 36.13416
503.0785, 47.86603
503.5606, 50.83453
504.0427, 49.71362
504.5248, 42.54047
505.0069, 36.47510
505.4890, 38.97833
505.9712, 52.31354
506.4533, 63.83368
506.9354, 80.46924
507.4175, 88.71149
507.8996, 74.05103
508.3817, 47.22632
508.8639, 30.78912
509.3460, 37.33063
509.8281, 56.35437
510.3102, 61.14374
510.7923, 44.09338
511.2744, 32.59760
511.7566, 34.35626
512.2387, 39.55444
512.7208, 44.96674
513.2029, 49.09125
513.6851, 47.53290
514.1672, 30.67310
514.6493, 6.586670
515.1314, 2.928650
515.6135, 3.933472
516.0956, 18.01154
516.5778, 39.70111
517.0599, 63.54767
517.5420, 76.83508
518.0241, 76.40790
518.5062, 70.54224
518.9883, 62.18561
519.4705, 51.12506
519.9526, 31.99316
520.4347, 4.176514
520.9168, 15.82477
521.3989, 8.255676
521.8810, 31.73651
522.3632, 60.45520
522.8453, 78.89624
523.3274, 87.54297
523.8095, 78.75128
524.2916, 61.81860
524.7737, 50.92999
525.2559, 52.89709
525.7380, 60.16107
526.2201, 59.81787
526.7022, 50.08362
527.1843, 40.85095
527.6664, 25.71637
528.1486, 19.20917
528.6307, 36.16614
529.1128, 70.38928
529.5949, 98.45636
530.0770, 111.8287
530.5591, 110.6949
531.0413, 88.31543
531.5234, 46.10522
532.0055, 13.22791
532.4876, 1.474548
532.9697, 7.381348
533.4518, 29.25970
533.9340, 80.17700
534.4161, 107.6553
534.8982, 81.00977
535.3803, 40.26440
535.8624, 23.76373
536.3445, 32.70374
536.8267, 44.12048
537.3088, 38.80444
537.7909, 20.54333
538.2730, 22.60974
538.7551, 76.42206
539.2372, 104.6646
539.7194, 77.83411
540.2015, 35.32629
540.6836, 9.243774
541.1657, 7.288513
541.6478, 18.30377
542.1299, 40.79675
542.6121, 70.87323
543.0942, 75.86957
543.5763, 43.21869
544.0584, 12.03131
544.5405, 9.662903
545.0226, 24.95416
545.5048, 39.55103
545.9869, 53.45892
546.4690, 66.00903
546.9511, 80.70416
547.4332, 93.52667
547.9153, 92.18713
548.3975, 73.02155
548.8796, 53.42712
549.3617, 54.99414
549.8438, 82.66827
550.3259, 101.1938
550.8080, 110.9048
551.2902, 112.8240
551.7723, 104.0444
552.2544, 88.68951
552.7365, 70.49982
553.2186, 51.06335
553.7007, 35.65582
554.1829, 37.66400
554.6650, 61.70752
555.1471, 68.03400
555.6292, 35.86029
556.1113, 3.739929
556.5934, 2.545715
557.0756, 11.64313
557.5577, 27.97284
558.0398, 40.82556
558.5219, 51.89056
559.0040, 68.78046
559.4861, 88.00916
559.9683, 85.21503
560.4504, 44.44159
560.9325, 7.543152
561.4146, 26.15277
561.8967, 2.399536
562.3788, 28.64716
562.8610, 57.62939
563.3431, 79.39941
563.8252, 81.74426
564.3073, 71.78278
564.7894, 71.25641
565.2715, 96.94702
565.7537, 135.7767
566.2358, 156.3306
566.7179, 158.0471
567.2000, 142.4515
567.6821, 79.77747
568.1642, 24.01477
568.6464, 15.64685
569.1285, 48.53424
569.6106, 79.97272
570.0927, 86.39319
570.5748, 79.48456
571.0569, 73.16479
571.5391, 67.72589
572.0212, 68.08691
572.5033, 79.55701
572.9854, 92.57886
573.4675, 86.79059
573.9496, 50.30377
574.4318, 27.10095
574.9139, 33.71570
575.3960, 44.96954
575.8781, 39.61700
576.3602, 21.25513
576.8423, 7.927063
577.3245, 11.96155
577.8066, 27.80975
578.2887, 38.09418
578.7708, 42.85968
579.2529, 40.61407
579.7350, 19.29541
580.2172, 0.6304320
580.6993, 3.665527
581.1814, 9.514099
581.6635, 25.59741
582.1456, 39.12659
582.6277, 51.26270
583.1099, 65.04517
583.5920, 78.94672
584.0741, 83.08405
584.5562, 70.98126
585.0383, 49.58215
585.5204, 33.44769
586.0026, 22.72430
586.4847, 16.51978
586.9668, 14.07129
587.4489, 16.66492
587.9310, 30.68231
588.4131, 51.15338
588.8953, 62.60956
589.3774, 53.57318
589.8595, 33.23633
590.3416, 31.86938
590.8237, 60.26495
591.3058, 78.04663
591.7880, 63.97925
592.2701, 47.13495
592.7522, 49.46277
593.2343, 69.06812
593.7164, 85.65149
594.1985, 86.95795
594.6807, 81.87830
595.1628, 82.18732
595.6449, 87.05750
596.1270, 90.72357
596.6091, 91.78680
597.0912, 87.52008
597.5734, 70.85638
598.0555, 26.52197
598.5376, 5.991516
599.0197, 32.09204
599.5018, 61.44513
599.9839, 63.80518
600.4661, 48.18872
600.9482, 42.16040
601.4303, 62.09241
601.9124, 93.03540
602.3945, 103.7152
602.8766, 90.55719
603.3588, 80.46436
603.8409, 79.61011
604.3230, 81.05328
604.8051, 79.80261
605.2872, 76.17517
605.7693, 71.58411
606.2515, 61.82007
606.7336, 55.28534
607.2157, 66.63037
607.6978, 87.06586
608.1799, 87.39496
608.6620, 56.07623
609.1442, 18.13831
609.6263, 10.79688
610.1084, 44.25714
610.5905, 65.92767
611.0726, 66.96759
611.5547, 66.82397
612.0369, 73.32440
612.5190, 82.77008
613.0011, 89.24835
613.4832, 90.64557
613.9653, 87.55096
614.4474, 80.79718
614.9296, 71.03986
615.4117, 55.17108
615.8938, 27.58307
616.3759, 8.458496
616.8580, 19.13330
617.3401, 51.96490
617.8223, 73.19519
618.3044, 75.03003
618.7865, 71.82489
619.2686, 73.44867
619.7507, 73.57196
620.2328, 51.10529
620.7150, 5.960999
621.1971, 32.96332
621.6792, 35.26172
622.1613, 3.675903
622.6434, 15.33130
623.1255, 11.23413
623.6077, 12.08789
624.0898, 25.77350
624.5719, 46.87231
625.0540, 76.09479
625.5361, 113.0240
626.0182, 137.0975
626.5004, 125.0189
626.9825, 96.24579
627.4646, 85.70056
627.9467, 94.03027
628.4288, 98.85284
628.9109, 87.00476
629.3931, 65.29352
629.8752, 51.24512
630.3573, 49.92841
630.8394, 48.27765
631.3215, 48.97528
631.8036, 46.98987
632.2858, 35.39178
632.7679, 18.25885
633.2500, 6.395264
633.7321, 6.180115
634.2142, 13.77838
634.6964, 23.52698
635.1785, 35.92297
635.6606, 45.03833
636.1427, 50.09009
636.6248, 50.65466
637.1069, 44.47516
637.5891, 32.79089
638.0712, 21.16333
638.5533, 10.65991
639.0354, 0.9349370
639.5175, 13.56519
639.9996, 26.70898
640.4818, 25.75647
640.9639, 7.806091
641.4460, 15.83667
641.9281, 32.47620
642.4102, 41.98676
642.8923, 47.86987
643.3745, 51.39709
643.8566, 49.01965
644.3387, 30.32288
644.8208, 10.49933
645.3029, 10.13141
645.7850, 34.22888
646.2672, 55.75122
646.7493, 54.95288
647.2314, 41.47784
647.7135, 27.28595
648.1956, 14.31134
648.6777, 13.06207
649.1599, 32.50739
649.6420, 62.95624
650.1241, 76.96436
650.6062, 59.70642
651.0883, 49.24335
651.5704, 52.50110
652.0526, 58.08838
652.5347, 56.10663
653.0168, 50.82513
653.4989, 56.29248
653.9810, 84.00452
654.4631, 114.4616
654.9453, 111.6979
655.4274, 79.25433
655.9095, 63.35046
656.3916, 76.96613
656.8737, 99.16827
657.3558, 114.9325
657.8380, 123.0263
658.3201, 115.6581
658.8022, 73.13049
659.2843, 39.07599
659.7664, 30.16626
660.2485, 35.58087
660.7307, 45.28162
661.2128, 55.45044
661.6949, 62.00598
662.1770, 60.44409
662.6591, 51.96582
663.1412, 42.75964
663.6234, 30.77039
664.1055, 24.73889
664.5876, 33.69440
665.0697, 45.62616
665.5518, 41.98584
666.0339, 20.75281
666.5161, 14.67334
666.9982, 53.44934
667.4803, 93.99127
667.9625, 96.83569
668.4446, 72.28326
668.9267, 51.20599
669.4088, 46.84100
669.8909, 52.73712
670.3730, 59.34857
670.8552, 66.91797
671.3373, 73.75885
671.8194, 78.83350
672.3015, 84.49652
672.7836, 94.23218
673.2657, 104.2012
673.7479, 109.5270
674.2300, 109.7775
674.7121, 102.1991
675.1942, 77.57257
675.6763, 46.87677
676.1584, 26.40265
676.6406, 17.85016
677.1227, 19.39685
677.6048, 31.26538
678.0869, 49.50208
678.5690, 61.24664
679.0511, 62.77588
679.5333, 60.74323
680.0154, 49.76459
680.4975, 43.15375
680.9796, 54.14642
681.4617, 75.81647
681.9438, 89.06354
682.4260, 82.29889
682.9081, 70.69104
683.3902, 75.39496
683.8723, 89.10327
684.3544, 83.26605
684.8365, 50.63409
685.3187, 17.97021
685.8008, 8.785156
686.2829, 21.25928
686.7650, 33.21155
687.2471, 49.33789
687.7292, 58.62671
688.2114, 55.31537
688.6935, 48.11359
689.1756, 42.46387
689.6577, 39.72699
690.1398, 41.12500
690.6219, 50.04535
691.1041, 60.22583
691.5862, 60.51056
692.0683, 52.33154
692.5504, 44.03381
693.0325, 37.42920
693.5146, 33.08069
693.9968, 32.19232
694.4789, 35.46143
694.9610, 37.03180
695.4431, 34.15704
695.9252, 32.32788
696.4073, 33.54822
696.8895, 36.17780
697.3716, 36.90546
697.8537, 35.64685
698.3358, 36.65027
698.8179, 46.55786
699.3000, 60.65997
699.7822, 65.67505
700.2643, 61.16919
700.7464, 56.38852
701.2285, 54.00037
701.7106, 54.16745
702.1927, 59.27411
702.6749, 72.62238
703.1570, 72.65933
703.6391, 41.84644
704.1212, 16.68573
704.6033, 15.99939
705.0854, 29.55521
705.5676, 46.50586
706.0497, 62.16873
706.5318, 67.11768
707.0139, 39.88492
707.4960, 7.935120
707.9781, 20.49347
708.4603, 7.962677
708.9424, 33.20343
709.4245, 34.34442
709.9066, 23.22351
710.3887, 20.51523
710.8708, 28.03970
711.3530, 36.26538
711.8351, 52.83096
712.3172, 61.68225
712.7993, 43.04260
713.2814, 14.14294
713.7635, 8.253815
714.2457, 36.13794
714.7278, 66.67700
715.2099, 58.49887
715.6920, 20.02405
716.1741, 4.095825
716.6563, 12.55762
717.1384, 2.347809
717.6205, 39.10626
718.1026, 90.95129
718.5847, 107.4856
719.0668, 75.66104
719.5490, 52.71133
720.0311, 50.85306
720.5132, 51.49469
720.9953, 42.54593
721.4774, 28.79099
721.9595, 21.22958
722.4417, 24.04266
722.9238, 27.78024
723.4059, 16.80618
723.8880, 4.192169
724.3701, 8.093506
724.8522, 8.723511
725.3344, 27.98154
725.8165, 42.67862
726.2986, 51.70386
726.7807, 50.67435
727.2628, 31.82681
727.7449, 26.17368
728.2271, 43.54538
728.7092, 64.86325
729.1913, 86.01303
729.6734, 101.4773
730.1555, 99.54065
730.6376, 75.59131
731.1198, 49.99536
731.6019, 48.61118
732.0840, 64.55017
732.5661, 71.43274
733.0482, 67.12433
733.5303, 59.08832
734.0125, 48.94540
734.4946, 40.35327
734.9767, 42.27472
735.4588, 63.97769
735.9409, 74.62918
736.4230, 65.45560
736.9052, 54.56488
737.3873, 52.85736
737.8694, 54.55847
738.3515, 46.62683
738.8336, 24.39993
739.3157, 5.589417
739.7979, 13.89194
740.2800, 37.14124
740.7621, 41.91449
741.2442, 26.82678
741.7263, 11.81259
742.2084, 5.461090
742.6906, 7.793701
743.1727, 20.41995
743.6548, 51.47894
744.1369, 69.48444
744.6190, 68.01166
745.1011, 61.46375
745.5833, 54.95972
746.0654, 47.01920
746.5475, 33.05576
747.0296, 11.64752
747.5117, 6.160858
747.9938, 13.77356
748.4760, 11.93518
748.9581, 4.771606
749.4402, 31.93021
749.9223, 48.21835
750.4044, 45.00400
750.8865, 30.40329
751.3687, 15.19751
751.8508, 3.727325
752.3329, 5.158600
752.8150, 28.84555
753.2971, 56.93680
753.7792, 64.84351
754.2614, 61.41757
754.7435, 53.31766
755.2256, 41.31097
755.7077, 37.28781
756.1898, 56.15558
756.6719, 78.20404
757.1541, 86.91254
757.6362, 83.24710
758.1183, 69.09338
758.6004, 45.54904
759.0825, 23.02292
759.5646, 15.22720
760.0468, 20.11996
760.5289, 27.28564
761.0110, 38.65543
761.4931, 48.04263
761.9752, 53.26593
762.4573, 55.64175
762.9395, 56.83582
763.4216, 56.86539
763.9037, 54.62616
764.3858, 50.15012
764.8679, 43.04684
765.3500, 27.37360
765.8322, 10.36899
766.3143, 7.107361
766.7964, 18.08823
767.2785, 32.06998
767.7606, 40.09503
768.2427, 42.66705
768.7249, 38.37421
769.2070, 24.68481
769.6891, 25.02393
770.1712, 51.32123
770.6533, 83.28796
771.1354, 101.7784
771.6176, 103.2718
772.0997, 96.94913
772.5818, 74.54449
773.0639, 56.62457
773.5460, 51.10062
774.0281, 49.50656
774.5103, 41.82687
774.9924, 30.84683
775.4745, 28.27924
775.9566, 46.02054
776.4387, 66.33038
776.9208, 56.26822
777.4030, 27.37750
777.8851, 30.59155
778.3672, 76.12985
778.8493, 114.4571
779.3314, 104.7522
779.8135, 58.88156
780.2957, 31.08020
780.7778, 30.94794
781.2599, 30.55322
781.7420, 22.77457
782.2241, 19.36899
782.7062, 37.02930
783.1884, 62.33344
783.6705, 63.50256
784.1526, 22.38376
784.6347, 14.20868
785.1168, 15.59875
785.5989, 2.990479
786.0811, 29.42233
786.5632, 57.94913
787.0453, 75.04214
787.5274, 73.47604
788.0095, 61.04114
788.4916, 48.68216
788.9738, 35.73651
789.4559, 35.24335
789.9380, 52.40085
790.4201, 69.67203
790.9022, 78.55426
791.3843, 82.62415
791.8665, 90.34656
792.3486, 105.3253
792.8307, 106.6909
793.3128, 78.67435
793.7949, 49.63535
794.2770, 33.48318
794.7592, 26.81662
795.2413, 23.45044
795.7234, 21.80054
796.2055, 24.41354
796.6876, 39.12253
797.1697, 57.55673
797.6519, 58.97348
798.1340, 44.82111
798.6161, 29.46252
799.0982, 16.06070
799.5803, 9.501099
800.0624, 17.96390
800.5446, 41.12280
801.0267, 47.74591
801.5088, 17.43369
801.9909, 1.940857
802.4730, 18.49554
802.9551, 43.33655
803.4373, 63.85501
803.9194, 77.59586
804.4015, 80.50162
804.8836, 68.03537
805.3657, 48.72675
805.8478, 17.32062
806.3300, 11.25085
806.8121, 11.34583
807.2942, 14.58585
807.7763, 42.79709
808.2584, 58.86264
808.7405, 65.28778
809.2227, 65.82434
809.7048, 60.06509
810.1869, 52.83170
810.6690, 42.81961
811.1511, 39.22455
811.6332, 54.47610
812.1154, 77.07413
812.5975, 72.81152
813.0796, 23.17728
813.5617, 2.219086
814.0438, 22.17548
814.5259, 47.93338
815.0081, 53.63248
815.4902, 44.76483
815.9723, 26.84576
816.4544, 2.276245
816.9365, 12.37573
817.4186, 4.436646
817.9008, 33.38245
818.3829, 45.64297
818.8650, 43.99078
819.3471, 41.44403
819.8292, 42.12515
820.3113, 44.37552
820.7935, 47.02722
821.2756, 49.85147
821.7577, 48.42484
822.2398, 39.21677
822.7219, 35.94006
823.2040, 44.58716
823.6862, 56.71155
824.1683, 71.23251
824.6504, 84.85181
825.1325, 80.64359
825.6146, 30.42105
826.0967, 2.440613
826.5789, 22.15344
827.0610, 54.39230
827.5431, 39.86774
828.0252, 6.995148
828.5073, 31.03609
828.9894, 3.776794
829.4716, 39.11606
829.9537, 60.20428
830.4358, 62.99097
830.9180, 53.41129
831.4001, 32.92596
831.8822, 15.46732
832.3643, 7.606171
832.8464, 7.000336
833.3286, 10.51541
833.8107, 19.71658
834.2928, 21.81549
834.7749, 0.5989690
835.2570, 1.577515
835.7391, 57.30695
836.2213, 123.9539
836.7034, 141.3879
837.1855, 108.9237
837.6676, 83.79520
838.1497, 89.50217
838.6318, 94.46783
839.1140, 78.64978
839.5961, 55.68103
840.0782, 40.70401
840.5603, 36.68182
841.0424, 42.26306
841.5245, 59.09442
842.0067, 79.21423
842.4888, 90.25262
842.9709, 93.95267
843.4530, 94.13528
843.9351, 90.18463
844.4172, 82.92438
844.8994, 72.70120
845.3815, 59.68091
845.8636, 41.42316
846.3457, 6.933777
846.8278, 2.283844
847.3099, 52.86316
847.7921, 98.77942
848.2742, 112.2966
848.7563, 108.7798
849.2384, 107.6001
849.7205, 111.0503
850.2026, 106.0450
850.6848, 79.15045
851.1669, 53.55673
851.6490, 41.23248
852.1311, 39.20813
852.6132, 45.34778
853.0953, 57.49692
853.5775, 69.85062
854.0596, 81.70016
854.5417, 86.91687
855.0238, 66.07187
855.5059, 27.60010
855.9880, 13.70374
856.4702, 31.82043
856.9523, 54.04123
857.4344, 60.46948
857.9165, 55.72513
858.3986, 52.74915
858.8807, 49.30951
859.3629, 51.53906
859.8450, 64.94937
860.3271, 76.50781
860.8092, 80.00229
861.2913, 77.06665
861.7734, 68.30792
862.2556, 51.17441
862.7377, 41.66895
863.2198, 44.55859
863.7019, 53.58679
864.1840, 72.96060
864.6661, 92.33514
865.1483, 96.59106
865.6304, 83.93857
866.1125, 69.46423
866.5946, 63.36414
867.0767, 59.62610
867.5588, 54.84900
868.0410, 47.96048
868.5231, 31.21204
869.0052, 5.441132
869.4873, 8.708130
869.9694, 4.726868
870.4515, 34.96832
870.9337, 57.70685
871.4158, 73.07013
871.8979, 74.20462
872.3800, 50.55740
872.8621, 37.86063
873.3442, 63.71576
873.8264, 104.2999
874.3085, 113.9064
874.7906, 80.92877
875.2727, 56.60980
875.7548, 44.75552
876.2369, 36.13187
876.7191, 27.26389
877.2012, 17.40494
877.6833, 7.411499
878.1654, 1.764069
878.6475, 6.282990
879.1296, 2.766113
879.6118, 3.631073
880.0939, 8.498352
880.5760, 14.12686
881.0581, 25.85834
881.5402, 42.35162
882.0223, 56.74289
882.5045, 65.58563
882.9866, 66.96738
883.4687, 53.60284
883.9508, 28.58401
884.4329, 13.29279
884.9150, 7.386475
885.3972, 5.724854
885.8793, 5.305298
886.3614, 7.014313
886.8435, 13.04688
887.3256, 23.18237
887.8077, 38.91443
888.2899, 72.69250
888.7720, 89.32535
889.2541, 65.89035
889.7362, 34.88290
890.2183, 22.38123
890.7004, 25.36078
891.1826, 27.95605
891.6647, 28.20847
892.1468, 27.63843
892.6289, 24.09036
893.1110, 21.74524
893.5931, 27.65222
894.0753, 36.75000
894.5574, 37.78781
895.0395, 26.49057
895.5216, 14.65939
896.0037, 10.90131
896.4858, 12.98795
896.9680, 18.73245
897.4501, 27.46420
897.9322, 40.80173
898.4143, 58.09308
898.8964, 67.28009
899.3785, 53.98740
899.8607, 26.19858
900.3428, 11.56021
900.8249, 10.54465
901.3070, 10.23685
901.7891, 7.462738
902.2712, 9.785767
902.7534, 24.33249
903.2355, 46.05734
903.7176, 61.11035
904.1997, 70.54703
904.6818, 69.98547
905.1639, 50.08102
905.6461, 32.05453
906.1282, 20.14481
906.6103, 15.82895
907.0924, 24.87930
907.5745, 47.56204
908.0566, 61.55365
908.5388, 53.60944
909.0209, 45.58212
909.5030, 52.13855
909.9851, 60.02698
910.4672, 53.01123
910.9493, 33.35013
911.4315, 13.92969
911.9136, 1.655273
912.3957, 5.904572
912.8778, 20.72726
913.3599, 57.53708
913.8420, 68.24518
914.3242, 54.63870
914.8063, 32.28748
915.2884, 7.820496
915.7705, 8.756317
916.2526, 1.325623
916.7347, 24.05518
917.2169, 35.33664
917.6990, 32.15329
918.1811, 27.28473
918.6632, 23.14154
919.1453, 21.14520
919.6274, 22.70984
920.1096, 27.26663
920.5917, 32.54532
921.0738, 39.93045
921.5559, 45.02103
922.0380, 51.68735
922.5201, 50.51312
923.0023, 27.01852
923.4844, 2.505829
923.9665, 12.96506
924.4486, 1.284302
924.9307, 11.78699
925.4128, 27.96359
925.8950, 39.53809
926.3771, 41.24194
926.8592, 38.43274
927.3413, 37.10342
927.8234, 37.65863
928.3055, 32.01501
928.7877, 11.50394
929.2698, 3.987305
929.7519, 7.985321
930.2340, 27.40759
930.7161, 26.13574
931.1982, 10.34033
931.6804, 7.361328
932.1625, 26.92325
932.6446, 44.19336
933.1267, 23.42633
933.6088, 16.29443
934.0909, 23.00595
934.5731, 2.707245
935.0552, 8.736786
935.5373, 2.803040
936.0194, 1.370605
936.5015, 12.83301
936.9836, 38.96069
937.4658, 57.67587
937.9479, 68.89743
938.4300, 69.16684
938.9121, 53.18817
939.3942, 44.57175
939.8763, 61.51553
940.3585, 82.75937
940.8406, 69.90359
941.3227, 14.83133
941.8048, 12.52573
942.2869, 13.50500
942.7690, 29.58487
943.2512, 4.158630
943.7333, 17.67963
944.2154, 9.333252
944.6975, 68.67899
945.1796, 100.3184
945.6617, 83.36374
946.1439, 63.80768
946.6260, 51.53467
947.1081, 42.25650
947.5902, 33.46738
948.0723, 25.52649
948.5544, 17.53842
949.0366, 9.948395
949.5187, 10.64539
950.0008, 30.00381
950.4829, 53.81680
950.9650, 74.22784
951.4471, 88.63156
951.9293, 90.39523
952.4114, 81.51990
952.8935, 72.44482
953.3756, 68.57288
953.8577, 67.72391
954.3398, 68.24576
954.8220, 69.55960
955.3041, 66.77579
955.7862, 61.99838
956.2683, 73.24405
956.7504, 106.4924
957.2325, 135.5576
957.7147, 129.3137
958.1968, 100.5189
958.6789, 106.9450
959.1610, 151.4142
959.6431, 173.5759
960.1252, 159.7159
960.6074, 140.1504
961.0895, 130.0608
961.5716, 133.3265
962.0537, 162.3425
962.5358, 228.1369
963.0179, 260.7023
963.5001, 242.5670
963.9822, 223.6617
964.4643, 216.0888
964.9464, 215.6820
965.4285, 219.4838
965.9106, 227.1917
966.3928, 236.1522
966.8749, 241.8239
967.3570, 255.4928
967.8391, 290.6027
968.3212, 320.4641
968.8033, 330.4915
969.2855, 326.5793
969.7676, 314.6992
970.2497, 295.1319
970.7318, 286.1263
971.2139, 309.5760
971.6960, 324.4774
972.1782, 295.3211
972.6603, 257.4364
973.1424, 256.7519
973.6245, 283.2991
974.1066, 291.3665
974.5887, 257.8647
975.0709, 219.1666
975.5530, 199.5842
976.0351, 192.0223
976.5172, 194.7829
976.9993, 201.2769
977.4814, 199.2694
977.9636, 184.6299
978.4457, 161.5350
978.9278, 126.4700
979.4099, 95.35953
979.8920, 103.3362
980.3741, 134.1933
980.8563, 139.8657
981.3384, 118.1118
981.8205, 97.29102
982.3026, 92.69925
982.7847, 93.42899
983.2668, 82.61090
983.7490, 64.27322
984.2311, 62.27856
984.7132, 76.75089
985.1953, 92.51871
985.6774, 106.0565
986.1595, 115.6245
986.6417, 118.6102
987.1238, 117.9868
987.6059, 121.2767
988.0880, 130.2361
988.5701, 126.8062
989.0522, 102.9420
989.5344, 93.88196
990.0165, 121.5240
990.4986, 155.6470
990.9807, 157.7769
991.4628, 128.6136
991.9449, 109.9904
992.4271, 111.7726
992.9092, 107.2125
993.3913, 82.75714
993.8734, 65.16354
994.3555, 81.48117
994.8376, 110.4925
995.3198, 105.9179
995.8019, 55.62485
996.2841, 30.47449
996.7662, 57.38379
997.2483, 78.20309
997.7304, 73.01920
998.2125, 59.86057
998.6946, 50.51129
999.1768, 46.04742
999.6589, 47.10956
1000.141, 61.61902
1000.623, 66.30255
1001.105, 39.99362
1001.587, 17.15567
1002.069, 26.76489
1002.552, 49.84631
1003.034, 62.78433
1003.516, 62.46866
1003.998, 57.09695
1004.480, 44.70712
1004.962, 36.58917
1005.444, 46.24121
1005.926, 57.67569
1006.409, 51.15631
1006.891, 33.80167
1007.373, 22.94089
1007.855, 23.93604
1008.337, 32.06592
1008.819, 55.56183
1009.301, 73.91125
1009.783, 53.43002
1010.265, 18.99622
1010.748, 18.25058
1011.230, 47.90021
1011.712, 66.16559
1012.194, 51.51556
1012.676, 31.10208
1013.158, 35.17447
1013.640, 53.52521
1014.122, 75.53864
1014.604, 94.83005
1015.087, 90.62729
1015.569, 61.77597
1016.051, 28.63690
1016.533, 3.701019
1017.015, 11.37531
1017.497, 8.623688
1017.979, 6.493439
1018.461, 14.49173
1018.944, 14.42294
1019.426, 8.378143
1019.908, 2.711792
1020.390, 7.675568
1020.872, 7.924286
1021.354, 35.08688
1021.836, 43.06976
1022.318, 33.26920
1022.800, 25.52820
1023.283, 22.28119
1023.765, 22.16272
1024.247, 24.45065
1024.729, 29.73984
1025.211, 40.24899
1025.693, 55.03372
1026.175, 63.31052
1026.657, 65.43216
1027.140, 54.84903
1027.622, 26.39890
1028.104, 3.059875
1028.586, 0.2913210
1029.068, 12.92075
1029.550, 32.15350
1030.032, 60.50903
1030.514, 72.79346
1030.996, 64.92993
1031.479, 53.75803
1031.961, 40.62241
1032.443, 33.66867
1032.925, 44.63928
1033.407, 65.10114
1033.889, 60.41644
1034.371, 14.58743
1034.853, 7.767273
1035.335, 2.994598
1035.818, 18.26755
1036.300, 28.71661
1036.782, 38.61462
1037.264, 56.69095
1037.746, 80.18500
1038.228, 80.67795
1038.710, 34.66507
1039.192, 12.19217
1039.675, 36.72781
1040.157, 57.53973
1040.639, 49.29755
1041.121, 26.81824
1041.603, 8.090149
1042.085, 6.983276
1042.567, 16.52716
1043.049, 22.83417
1043.531, 19.93423
1044.014, 0.8914790
1044.496, 22.22647
1044.978, 37.58228
1045.460, 47.53989
1045.942, 51.29364
1046.424, 47.00998
1046.906, 49.70245
1047.388, 67.58841
1047.870, 83.09164
1048.353, 101.2410
1048.835, 107.3186
1049.317, 79.09076
1049.799, 33.45337
1050.281, 9.644684
1050.763, 15.34024
1051.245, 25.57748
1051.727, 41.92078
1052.210, 55.11880
1052.692, 65.33737
1053.174, 68.53265
1053.656, 53.07504
1054.138, 26.78979
1054.620, 23.56851
1055.102, 61.36420
1055.584, 83.40393
1056.067, 58.82846
1056.549, 35.92404
1057.031, 39.79129
1057.513, 55.43707
1057.995, 72.54672
1058.477, 86.28064
1058.959, 83.39041
1059.441, 49.73972
1059.923, 26.48199
1060.406, 31.43997
1060.888, 43.61230
1061.370, 59.33752
1061.852, 70.78973
1062.334, 62.43143
1062.816, 38.18811
1063.298, 28.01498
1063.780, 51.64285
1064.262, 70.77863
1064.745, 65.26605
1065.227, 55.89075
1065.709, 57.65430
1066.191, 64.66785
1066.673, 66.28882
1067.155, 61.76291
1067.637, 59.76279
1068.119, 66.45947
1068.602, 71.40173
1069.084, 66.70953
1069.566, 62.02426
1070.048, 64.51910
1070.530, 72.24884
1071.012, 88.26727
1071.494, 110.3740
1071.976, 108.8298
1072.458, 44.06583
1072.941, 11.22202
1073.423, 18.80511
1073.905, 6.725525
1074.387, 9.664612
1074.869, 23.31448
1075.351, 24.66028
1075.833, 12.77274
1076.315, 10.24109
1076.797, 37.84628
1077.280, 63.23349
1077.762, 70.66425
1078.244, 67.81976
1078.726, 56.47787
1079.208, 43.20377
1079.690, 40.14920
1080.172, 49.99252
1080.655, 62.01807
1081.137, 73.94318
1081.619, 83.93246
1082.101, 93.17236
1082.583, 98.29565
1083.065, 97.16095
1083.547, 89.04388
1084.029, 68.55823
1084.511, 33.40067
1084.994, 13.11795
1085.476, 32.40262
1085.958, 55.34387
1086.440, 68.32025
1086.922, 71.88156
1087.404, 59.58533
1087.886, 40.22595
1088.368, 32.83997
1088.850, 42.53012
1089.333, 56.71259
1089.815, 80.14532
1090.297, 94.54596
1090.779, 85.91418
1091.261, 67.85748
1091.743, 48.74725
1092.225, 31.85114
1092.707, 21.81232
1093.190, 21.41193
1093.672, 22.52850
1094.154, 22.43787
1094.636, 23.04810
1095.118, 25.39160
1095.600, 28.69745
1096.082, 33.03162
1096.564, 37.54364
1097.047, 40.15833
1097.529, 40.50354
1098.011, 41.75232
1098.493, 46.78027
1098.975, 51.46674
1099.457, 60.01764
1099.939, 61.99011
1100.421, 40.24902
1100.903, 6.691895
1101.385, 8.632935
1101.868, 3.450623
1102.350, 15.64673
1102.832, 17.86700
1103.314, 23.56604
1103.796, 46.26184
1104.278, 66.85388
1104.760, 66.93854
1105.242, 53.20264
1105.725, 42.62720
1106.207, 37.58917
1106.689, 34.99060
1107.171, 32.43597
1107.653, 34.77295
1108.135, 50.93085
1108.617, 66.23468
1109.099, 70.55005
1109.582, 63.18176
1110.064, 43.52655
1110.546, 5.947510
1111.028, 13.13141
1111.510, 6.074951
1111.992, 21.29602
1112.474, 18.92932
1112.956, 14.02637
1113.438, 17.26819
1113.921, 25.01398
1114.403, 27.59918
1114.885, 22.05634
1115.367, 26.59314
1115.849, 62.88544
1116.331, 76.11481
1116.813, 37.01910
1117.295, 2.980652
1117.777, 14.94904
1118.260, 7.408875
1118.742, 9.402039
1119.224, 37.43298
1119.706, 61.13501
1120.188, 85.47504
1120.670, 93.39575
1121.152, 71.00702
1121.634, 51.39258
1122.117, 57.53125
1122.599, 73.58850
1123.081, 70.94104
1123.563, 48.72382
1124.045, 36.17859
1124.527, 35.10046
1125.009, 38.06580
1125.491, 47.50592
1125.974, 50.52979
1126.456, 36.76740
1126.938, 20.36517
1127.420, 23.77228
1127.902, 45.18048
1128.384, 58.12408
1128.866, 61.35645
1129.348, 65.31079
1129.830, 72.98718
1130.313, 67.68451
1130.795, 35.71265
1131.277, 7.981262
1131.759, 30.97894
1132.241, 89.19965
1132.723, 98.85382
1133.205, 60.43195
1133.687, 31.72498
1134.169, 18.49115
1134.652, 21.50861
1135.134, 42.06830
1135.616, 63.65942
1136.098, 68.13989
1136.580, 61.54248
1137.062, 61.31116
1137.544, 65.71674
1138.026, 64.21686
1138.509, 56.59949
1138.991, 47.44843
1139.473, 38.36780
1139.955, 30.27490
1140.437, 23.71564
1140.919, 19.82727
1141.401, 14.84583
1141.883, 12.63879
1142.365, 37.65906
1142.848, 79.43597
1143.330, 95.92670
1143.812, 79.44202
1144.294, 60.12396
1144.776, 59.09601
1145.258, 61.22736
1145.740, 42.71063
1146.222, 20.64545
1146.704, 24.51923
1147.187, 43.53937
1147.669, 52.36029
1148.151, 48.66888
1148.633, 48.12445
1149.115, 59.68390
1149.597, 69.37042
1150.079, 63.11755
1150.561, 53.63483
1151.044, 53.28717
1151.526, 56.43665
1152.008, 53.91730
1152.490, 46.98669
1152.972, 45.10101
1153.454, 52.95337
1153.936, 52.85553
1154.418, 21.99280
1154.901, 0.6545410
1155.383, 16.82794
1155.865, 41.76294
1156.347, 39.63605
1156.829, 20.68365
1157.311, 14.51788
1157.793, 27.23657
1158.275, 38.71796
1158.757, 45.21777
1159.240, 48.57605
1159.722, 45.55499
1160.204, 46.84729
1160.686, 65.27216
1161.168, 86.82544
1161.650, 81.14478
1162.132, 45.67126
1162.614, 30.92926
1163.096, 54.22388
1163.579, 66.26428
1164.061, 60.42773
1164.543, 47.35779
1165.025, 27.49805
1165.507, 7.549561
1165.989, 6.841553
1166.471, 14.04846
1166.953, 0.6899410
1167.436, 46.60040
1167.918, 70.82977
1168.400, 67.48804
1168.882, 55.15234
1169.364, 40.31848
1169.846, 29.16638
1170.328, 29.12512
1170.810, 34.95880
1171.292, 32.17798
1171.775, 21.55170
1172.257, 16.27051
1172.739, 16.05646
1173.221, 9.067566
1173.703, 6.981873
1174.185, 21.12238
1174.667, 27.00342
1175.149, 22.46448
1175.631, 6.706482
1176.114, 45.87921
1176.596, 51.24451
1177.078, 32.56909
1177.560, 16.18213
1178.042, 7.820190
1178.524, 11.52600
1179.006, 28.85645
1179.488, 44.86890
1179.971, 46.77899
1180.453, 40.53607
1180.935, 22.05695
1181.417, 6.837158
1181.899, 26.54803
1182.381, 64.49982
1182.863, 77.25415
1183.345, 56.73834
1183.828, 35.69910
1184.310, 28.88623
1184.792, 27.28662
1185.274, 24.33557
1185.756, 27.35876
1186.238, 54.23938
1186.720, 82.19446
1187.202, 71.81458
1187.684, 29.60547
1188.167, 13.40527
1188.649, 50.09827
1189.131, 73.95605
1189.613, 69.91138
1190.095, 61.17651
1190.577, 48.34265
1191.059, 40.40710
1191.541, 50.70520
1192.023, 69.23926
1192.506, 68.56055
1192.988, 43.71680
1193.470, 33.07190
1193.952, 42.24841
1194.434, 47.54919
1194.916, 44.14648
1195.398, 38.49072
1195.880, 32.50208
1196.363, 30.72742
1196.845, 45.27625
1197.327, 68.77844
1197.809, 50.34009
1198.291, 6.338501
1198.773, 14.18848
1199.255, 31.43933
1199.737, 61.03101
1200.219, 50.39111
1200.702, 31.94531
1201.184, 32.85681
1201.666, 45.37000
1202.148, 63.05530
1202.630, 79.65344
1203.112, 78.49792
1203.594, 65.07935
1204.076, 54.29443
1204.558, 49.16162
1205.041, 46.22620
1205.523, 43.83752
1206.005, 42.25635
1206.487, 44.69482
1206.969, 44.85657
1207.451, 32.50684
1207.933, 18.75867
1208.415, 20.12378
1208.898, 30.02527
1209.380, 28.61658
1209.862, 11.19214
1210.344, 1.458862
1210.826, 15.78394
1211.308, 24.32544
1211.790, 7.243408
1212.272, 3.816528
1212.755, 14.21606
1213.237, 44.95361
1213.719, 70.34692
1214.201, 89.17773
1214.683, 91.31079
1215.165, 66.07275
1215.647, 57.34839
1216.129, 76.88293
1216.611, 73.59595
1217.094, 22.53088
1217.576, 16.88477
1218.058, 4.452515
1218.540, 54.29382
1219.022, 68.18091
1219.504, 50.57178
1219.986, 39.11414
1220.468, 33.94177
1220.950, 38.77307
1221.433, 52.61145
1221.915, 61.69055
1222.397, 60.06067
1222.879, 55.71594
1223.361, 55.32996
1223.843, 57.76013
1224.325, 67.70642
1224.807, 77.96240
1225.290, 68.00354
1225.772, 48.27173
1226.254, 47.23486
1226.736, 66.07263
1227.218, 76.61755
1227.700, 61.83704
1228.182, 53.17114
1228.664, 78.75061
1229.146, 101.1068
1229.629, 94.96472
1230.111, 78.05627
1230.593, 61.71948
1231.075, 50.57861
1231.557, 55.67371
1232.039, 81.77039
1232.521, 90.47791
1233.003, 67.75525
1233.485, 55.21069
1233.968, 59.44080
1234.450, 66.02319
1234.932, 70.84167
1235.414, 71.59045
1235.896, 63.27539
1236.378, 49.37817
1236.860, 45.58093
1237.342, 51.79224
1237.825, 65.18701
1238.307, 85.16345
1238.789, 87.32239
1239.271, 67.19421
1239.753, 60.18262
1240.235, 90.57727
1240.717, 120.5559
1241.199, 85.65063
1241.682, 30.79041
1242.164, 44.84705
1242.646, 89.70312
1243.128, 94.18481
1243.610, 65.59900
1244.092, 44.77454
1244.574, 42.66418
1245.056, 44.09460
1245.538, 51.62732
1246.021, 55.91650
1246.503, 55.42163
1246.985, 48.44482
1247.467, 18.66565
1247.949, 6.572876
1248.431, 13.58887
1248.913, 64.44653
1249.395, 84.85352
1249.878, 64.22021
1250.360, 48.59509
1250.842, 40.02100
1251.324, 30.61365
1251.806, 17.30542
1252.288, 5.078857
1252.770, 6.777100
1253.252, 10.53613
1253.734, 7.516235
1254.217, 36.64087
1254.699, 27.86780
1255.181, 6.785645
1255.663, 4.017822
1256.145, 32.40161
1256.627, 55.53564
1257.109, 54.15625
1257.591, 39.59204
1258.073, 16.61511
1258.556, 2.018555
1259.038, 23.44373
1259.520, 51.85193
1260.002, 55.38623
1260.484, 46.73950
1260.966, 38.74658
1261.448, 34.20276
1261.930, 36.69470
1262.413, 45.92615
1262.895, 49.76733
1263.377, 38.08362
1263.859, 31.71143
1264.341, 44.38721
1264.823, 50.04907
1265.305, 21.59766
1265.787, 2.548462
1266.270, 40.30164
1266.752, 103.2650
1267.234, 111.6948
1267.716, 62.93750
1268.198, 46.75354
1268.680, 66.50378
1269.162, 73.97229
1269.644, 61.83752
1270.126, 54.18652
1270.609, 59.82239
1271.091, 64.44800
1271.573, 54.30029
1272.055, 36.32593
1272.537, 19.72095
1273.019, 8.712646
1273.501, 4.793213
1273.983, 9.444214
1274.465, 24.09692
1274.948, 44.45984
1275.430, 55.57178
1275.912, 51.47864
1276.394, 52.04492
1276.876, 79.45691
1277.358, 94.73389
1277.840, 68.58118
1278.322, 41.38306
1278.805, 38.77563
1279.287, 49.83167
1279.769, 61.24341
1280.251, 72.52063
1280.733, 81.92859
1281.215, 90.98132
1281.697, 89.09399
1282.179, 72.96790
1282.661, 68.11450
1283.144, 80.65295
1283.626, 94.47400
1284.108, 101.1963
1284.590, 100.1327
1285.072, 85.80066
1285.554, 70.35510
1286.036, 86.55652
1286.518, 115.9038
1287.000, 123.9293
1287.483, 110.9086
1287.965, 72.88403
1288.447, 20.49683
1288.929, 1.467896
1289.411, 31.21753
1289.893, 60.66577
1290.375, 40.92590
1290.857, 0.0000000E+00
##END=



