##NAMES=Kobellite
##RRUFFID=R110092
##IDEAL CHEMISTRY=Pb^2+^_11_(Cu^1+^,Fe^2+^)_2_(Bi^3+^,Sb^3+^)_15_S^2-^_35_
##LOCALITY=Crabtree quarry, Wake County, North Carolina, USA
##OWNER=RRUFF
##SOURCE=Mark Feinglos
##DESCRIPTION=Dark grey metallic massive, associated with quartz
##STATUS=The identification of this mineral is confirmed by single-crystal X-ray diffraction and chemical analysis.
##URL=rruff.info/R110092
##MEASURED CHEMISTRY=(Pb_10.21_Bi_0.63_Ag_0.16_)_Σ=11.00_(Cu_1.64_Fe_0.50_)_Σ=2.14_(Bi_9.41_Sb_5.59_)_Σ=15.00_S_35_
184.5049, 0.0000000E+00
184.9871, 1.237560
185.4692, 1.621689
185.9513, 0.9338040
186.4334, 3.3642001E-02
186.9155, 9.2240004E-03
187.3976, 0.6849670
187.8798, 1.340488
188.3619, 2.019001
188.8440, 2.569958
189.3261, 3.254890
189.8082, 3.314793
190.2903, 2.942982
190.7725, 2.826080
191.2546, 2.893188
191.7367, 2.736633
192.2188, 2.320766
192.7009, 1.731529
193.1830, 0.9581990
193.6652, 2.7389999E-03
194.1473, 0.6448250
194.6294, 0.5545810
195.1115, 0.2062870
195.5936, 0.8546450
196.0757, 1.300888
196.5579, 1.693497
197.0400, 2.438198
197.5221, 3.590694
198.0042, 4.511799
198.4863, 4.719063
198.9684, 4.202084
199.4506, 3.889648
199.9327, 3.860439
200.4148, 4.046284
200.8969, 4.335758
201.3790, 4.747463
201.8611, 5.175068
202.3433, 5.626572
202.8254, 6.129395
203.3075, 6.314415
203.7896, 6.071381
204.2717, 5.569420
204.7538, 5.259968
205.2360, 5.197979
205.7181, 5.120590
206.2002, 4.820671
206.6823, 4.236641
207.1644, 3.825451
207.6465, 3.634335
208.1287, 3.630409
208.6108, 3.732182
209.0929, 3.966606
209.5750, 4.230751
210.0571, 4.473217
210.5392, 4.703735
211.0214, 4.872326
211.5035, 4.968895
211.9856, 5.004128
212.4677, 4.974350
212.9498, 4.797619
213.4319, 4.740822
213.9140, 5.073811
214.3962, 6.033772
214.8783, 6.501709
215.3604, 6.206169
215.8425, 5.373623
216.3246, 4.964657
216.8067, 5.164017
217.2889, 5.419750
217.7710, 5.323822
218.2531, 4.629845
218.7352, 4.325935
219.2173, 4.594261
219.6994, 5.316681
220.1816, 5.920898
220.6637, 6.356609
221.1458, 6.772968
221.6279, 7.360870
222.1100, 8.459225
222.5921, 8.787868
223.0743, 7.909496
223.5564, 6.169979
224.0385, 5.187462
224.5206, 5.294811
225.0027, 5.664703
225.4848, 5.742123
225.9670, 5.205978
226.4491, 5.193905
226.9312, 6.041317
227.4133, 7.502060
227.8954, 8.400150
228.3775, 8.512688
228.8597, 8.370342
229.3418, 8.295341
229.8239, 8.388866
230.3060, 8.320988
230.7881, 8.088455
231.2702, 7.676491
231.7524, 6.934536
232.2345, 5.417717
232.7166, 4.210892
233.1987, 4.042347
233.6808, 5.464138
234.1629, 6.717197
234.6451, 7.803703
235.1272, 8.651325
235.6093, 8.916939
236.0914, 8.297085
236.5735, 7.513599
237.0556, 6.935898
237.5378, 6.533688
238.0199, 6.415596
238.5020, 6.672726
238.9841, 7.222240
239.4662, 7.749195
239.9483, 8.370560
240.4305, 8.815277
240.9126, 8.884583
241.3947, 8.255905
241.8768, 7.977280
242.3589, 8.212345
242.8410, 8.816906
243.3232, 9.314659
243.8053, 9.826866
244.2874, 10.05788
244.7695, 9.800941
245.2516, 8.709972
245.7337, 7.913197
246.2159, 7.433826
246.6980, 7.267719
247.1801, 7.495819
247.6622, 8.567253
248.1443, 9.359867
248.6264, 9.206276
249.1086, 7.392342
249.5907, 6.384571
250.0728, 6.565872
250.5549, 7.478825
251.0370, 7.859653
251.5191, 7.326172
252.0013, 6.821583
252.4834, 6.883339
252.9655, 7.895462
253.4476, 8.524433
253.9297, 8.669739
254.4118, 8.475319
254.8940, 8.219696
255.3761, 7.779472
255.8582, 7.495834
256.3403, 7.572903
256.8224, 8.197029
257.3046, 8.536110
257.7867, 8.438351
258.2688, 8.149029
258.7509, 8.199337
259.2330, 8.828259
259.7151, 9.306557
260.1973, 9.292076
260.6794, 8.632538
261.1615, 8.191303
261.6436, 8.073025
262.1257, 8.088932
262.6078, 7.869736
263.0900, 7.237801
263.5721, 6.816193
264.0542, 6.981903
264.5363, 7.931107
265.0184, 8.042965
265.5005, 6.907589
265.9827, 5.418827
266.4648, 4.915833
266.9469, 5.716885
267.4290, 6.597107
267.9111, 7.195480
268.3932, 7.491077
268.8754, 7.846874
269.3575, 8.376740
269.8396, 8.790901
270.3217, 8.592651
270.8038, 7.561218
271.2859, 6.775269
271.7681, 6.563343
272.2502, 6.908676
272.7323, 7.456638
273.2144, 8.394188
273.6965, 9.137562
274.1786, 8.874847
274.6608, 7.362236
275.1429, 6.151699
275.6250, 5.671425
276.1071, 5.832073
276.5892, 5.981346
277.0714, 6.133156
277.5535, 6.235092
278.0356, 6.237766
278.5177, 6.140408
278.9998, 5.928177
279.4819, 5.509933
279.9641, 5.041416
280.4462, 5.083805
280.9283, 5.683830
281.4104, 6.296204
281.8925, 6.489552
282.3746, 6.264881
282.8568, 5.996727
283.3389, 5.708664
283.8210, 5.452156
284.3031, 5.425547
284.7852, 5.645035
285.2673, 5.834417
285.7495, 5.817820
286.2316, 5.600817
286.7137, 5.193367
287.1958, 4.517715
287.6779, 3.772511
288.1600, 3.381226
288.6422, 3.347437
289.1243, 3.436663
289.6064, 3.515890
290.0885, 3.595562
290.5706, 3.805201
291.0527, 4.252245
291.5349, 4.633804
292.0170, 4.201492
292.4991, 3.045803
292.9812, 2.167656
293.4633, 2.262228
293.9454, 3.082102
294.4276, 3.938623
294.9097, 4.842419
295.3918, 5.595730
295.8739, 5.899694
296.3560, 5.808308
296.8381, 5.612593
297.3203, 5.362160
297.8024, 5.111511
298.2845, 5.027899
298.7666, 5.151396
299.2487, 5.218697
299.7308, 4.815281
300.2130, 4.117477
300.6951, 3.593616
301.1772, 3.420801
301.6593, 3.541517
302.1414, 4.011381
302.6235, 4.802015
303.1057, 5.464014
303.5878, 5.668486
304.0699, 5.571182
304.5520, 5.438513
305.0341, 5.367104
305.5162, 5.290691
305.9984, 5.054094
306.4805, 4.699924
306.9626, 4.464230
307.4447, 4.592932
307.9268, 4.912294
308.4089, 5.208456
308.8911, 5.460484
309.3732, 5.626747
309.8553, 5.616629
310.3374, 5.477909
310.8195, 5.369431
311.3016, 5.372278
311.7838, 5.453423
312.2659, 5.601913
312.7480, 5.861601
313.2301, 6.080877
313.7122, 6.264006
314.1943, 6.350279
314.6765, 6.184278
315.1586, 5.422873
315.6407, 4.615250
316.1228, 4.083841
316.6049, 3.891785
317.0870, 3.912945
317.5692, 4.220119
318.0513, 4.677263
318.5334, 5.092180
319.0155, 5.579929
319.4976, 5.868521
319.9797, 5.766052
320.4619, 5.227859
320.9440, 4.697193
321.4261, 3.994219
321.9082, 3.501532
322.3903, 3.589077
322.8724, 5.257900
323.3546, 6.584290
323.8367, 6.953644
324.3188, 6.386263
324.8009, 5.788055
325.2830, 5.054970
325.7651, 4.496487
326.2473, 4.316124
326.7294, 5.010218
327.2115, 5.531723
327.6936, 5.912886
328.1757, 6.090458
328.6578, 5.761415
329.1400, 4.034077
329.6221, 2.547268
330.1042, 2.025770
330.5863, 3.339069
331.0684, 4.181463
331.5505, 4.382147
332.0327, 4.140659
332.5148, 3.891697
332.9969, 3.684305
333.4790, 3.397482
333.9611, 2.926971
334.4432, 2.142450
334.9254, 1.732180
335.4075, 2.004763
335.8896, 2.403244
336.3717, 2.041300
336.8538, 0.4395330
337.3359, 0.8080720
337.8180, 1.162881
338.3001, 0.6348150
338.7823, 7.2890997E-02
339.2644, 0.6112540
339.7465, 1.138849
340.2286, 1.144603
340.7107, 0.5134410
341.1928, 4.9872000E-02
341.6750, 8.3724000E-02
342.1571, 6.4782999E-02
342.6392, 0.3846380
343.1213, 0.9155130
343.6034, 1.418024
344.0855, 1.743793
344.5677, 1.892790
345.0498, 1.881890
345.5319, 1.684550
346.0140, 1.375088
346.4961, 1.083764
346.9782, 0.8112930
347.4604, 0.5373560
347.9425, 0.2614840
348.4246, 2.9598000E-02
348.9067, 0.4177200
349.3888, 0.9479600
349.8709, 1.363705
350.3531, 1.195144
350.8352, 0.6051160
351.3173, 0.1878360
351.7994, 0.4082370
352.2815, 0.8907200
352.7636, 0.9505200
353.2458, 0.5879660
353.7279, 0.2078240
354.2100, 0.2598710
354.6921, 0.5161900
355.1742, 0.5612130
355.6563, 7.0473000E-02
356.1385, 0.4697660
356.6206, 0.5448610
357.1027, 0.2340470
357.5848, 6.5278001E-02
358.0669, 5.5806998E-02
358.5490, 4.5501001E-02
359.0312, 3.1858999E-02
359.5133, 0.5398580
359.9954, 0.7785940
360.4775, 7.5158000E-02
360.9596, 1.494124
361.4417, 2.350630
361.9239, 1.556201
362.4060, 0.5711520
362.8881, 0.2682210
363.3702, 0.8809800
363.8523, 1.412666
364.3344, 1.417579
364.8166, 1.190935
365.2987, 1.134689
365.7808, 1.672824
366.2629, 2.063127
366.7450, 2.007928
367.2271, 1.507243
367.7093, 1.166385
368.1914, 1.175860
368.6735, 1.290449
369.1556, 1.352304
369.6377, 1.437698
370.1198, 1.359356
370.6020, 0.9133810
371.0841, 0.2700470
371.5662, 6.5962002E-02
372.0483, 0.6014180
372.5304, 1.214724
373.0125, 1.671062
373.4947, 2.015260
373.9768, 2.015811
374.4589, 1.429152
374.9410, 0.6931360
375.4231, 0.5816470
375.9052, 1.343265
376.3874, 2.022371
376.8695, 2.273661
377.3516, 2.114604
377.8337, 2.268753
378.3158, 2.875487
378.7979, 3.416493
379.2801, 3.279190
379.7622, 2.426287
380.2443, 1.669442
380.7264, 1.129033
381.2085, 0.8052290
381.6906, 0.7494060
382.1728, 0.9655290
382.6549, 1.231346
383.1370, 1.390294
383.6191, 1.471790
384.1012, 1.579570
384.5833, 1.719806
385.0655, 1.909253
385.5476, 2.220870
386.0297, 2.613513
386.5118, 2.927587
386.9939, 3.056620
387.4760, 3.077460
387.9582, 3.089661
388.4403, 3.095370
388.9224, 3.103501
389.4045, 3.221884
389.8866, 3.323229
390.3687, 3.208929
390.8509, 2.579323
391.3330, 1.970981
391.8151, 1.923655
392.2972, 2.274971
392.7793, 2.362565
393.2614, 1.268478
393.7436, 0.1691710
394.2257, 8.1359996E-03
394.7078, 1.428778
395.1899, 2.561765
395.6720, 2.458961
396.1541, 1.801893
396.6363, 1.599320
397.1184, 2.724901
397.6005, 3.699500
398.0826, 3.896058
398.5647, 3.161640
399.0468, 2.690711
399.5290, 2.819422
400.0111, 3.140647
400.4932, 3.309125
400.9753, 3.090429
401.4574, 3.037685
401.9395, 3.317269
402.4217, 3.824122
402.9038, 4.076147
403.3859, 4.107764
403.8680, 3.831290
404.3501, 3.058131
404.8322, 1.447985
405.3144, 0.6162410
405.7965, 0.8013330
406.2786, 1.480791
406.7607, 1.782319
407.2428, 1.599679
407.7249, 1.591448
408.2071, 2.165812
408.6892, 3.195624
409.1713, 3.642605
409.6534, 3.418469
410.1355, 2.836432
410.6176, 2.064275
411.0998, 1.201189
411.5819, 0.6606640
412.0640, 0.5199950
412.5461, 0.6558900
413.0282, 1.067424
413.5103, 1.717712
413.9925, 2.191703
414.4746, 2.013792
414.9567, 1.564497
415.4388, 1.515486
415.9209, 1.984252
416.4030, 2.418539
416.8852, 2.190206
417.3673, 1.603476
417.8494, 1.215018
418.3315, 1.521073
418.8136, 1.940258
419.2957, 2.227606
419.7779, 2.367131
420.2600, 2.184874
420.7421, 1.096808
421.2242, 1.0942000E-02
421.7063, 0.4529300
422.1884, 0.2409930
422.6706, 0.9124550
423.1527, 1.293317
423.6348, 1.478230
424.1169, 1.622427
424.5990, 1.883496
425.0811, 2.026364
425.5633, 1.906092
426.0454, 1.455396
426.5275, 1.234474
427.0096, 1.337525
427.4917, 1.593800
427.9738, 1.902533
428.4560, 2.440024
428.9381, 2.619616
429.4202, 2.204302
429.9023, 1.447061
430.3844, 1.140512
430.8665, 1.418360
431.3487, 1.765647
431.8308, 1.945292
432.3129, 1.951462
432.7950, 1.831726
433.2771, 1.550862
433.7592, 1.257162
434.2414, 1.137461
434.7235, 1.179285
435.2056, 1.255919
435.6877, 1.347714
436.1698, 1.439881
436.6519, 1.496303
437.1341, 1.516952
437.6162, 1.510187
438.0983, 1.394323
438.5804, 1.276622
439.0625, 1.413456
439.5446, 1.951192
440.0268, 2.399181
440.5089, 2.226986
440.9910, 1.641071
441.4731, 1.069551
441.9552, 0.5745630
442.4373, 0.2543750
442.9195, 0.2212190
443.4016, 0.4707450
443.8837, 0.7567730
444.3658, 1.033770
444.8479, 1.273871
445.3300, 1.442049
445.8122, 1.215275
446.2943, 1.332458
446.7764, 2.386349
447.2585, 3.891892
447.7406, 4.605668
448.2227, 3.854868
448.7049, 2.879865
449.1870, 1.941218
449.6691, 1.006869
450.1512, 0.3607340
450.6333, 5.9989998E-03
451.1154, 6.5394998E-02
451.5976, 0.2099500
452.0797, 0.9959420
452.5618, 1.643946
453.0439, 2.039676
453.5260, 2.197469
454.0081, 2.114076
454.4903, 1.740177
454.9724, 1.463551
455.4545, 1.650352
455.9366, 2.189528
456.4187, 2.194852
456.9008, 1.559955
457.3830, 0.8265470
457.8651, 0.6828560
458.3472, 0.9787830
458.8293, 1.231371
459.3114, 1.205797
459.7935, 1.141376
460.2757, 1.425234
460.7578, 1.981091
461.2399, 2.428983
461.7220, 2.533620
462.2041, 2.420211
462.6862, 2.121591
463.1684, 1.564590
463.6505, 1.196964
464.1326, 1.584899
464.6147, 2.200616
465.0968, 2.364262
465.5789, 1.342703
466.0611, 0.4059070
466.5432, 0.1671480
467.0253, 0.3727390
467.5074, 0.2261060
467.9895, 0.7802440
468.4716, 1.727390
468.9538, 2.137261
469.4359, 1.631976
469.9180, 1.431440
470.4001, 1.733934
470.8822, 2.205873
471.3643, 2.306144
471.8465, 1.870233
472.3286, 1.533984
472.8107, 1.485067
473.2928, 1.673222
473.7749, 1.833922
474.2570, 1.978302
474.7392, 2.028852
475.2213, 1.951140
475.7034, 1.737864
476.1855, 1.240366
476.6676, 0.3370630
477.1497, 0.4855740
477.6319, 0.3533230
478.1140, 0.4619150
478.5961, 1.073792
479.0782, 0.9707550
479.5603, 0.5199670
480.0424, 5.0429001E-02
480.5246, 0.4213670
481.0067, 0.6014920
481.4888, 5.1527001E-02
481.9709, 0.8773480
482.4530, 1.240352
482.9352, 0.8141340
483.4173, 0.4330590
483.8994, 0.4909180
484.3815, 0.7863660
484.8636, 1.012079
485.3457, 1.041430
485.8279, 1.051978
486.3100, 1.072824
486.7921, 1.106516
487.2742, 1.195270
487.7563, 1.465945
488.2384, 1.663629
488.7206, 1.631804
489.2027, 1.279994
489.6848, 0.9207890
490.1669, 0.4783180
490.6490, 0.1165770
491.1311, 0.1641920
491.6133, 0.6763920
492.0954, 1.123882
492.5775, 1.339168
493.0596, 1.364598
493.5417, 1.319703
494.0238, 1.202586
494.5060, 1.132193
494.9881, 1.286482
495.4702, 1.550481
495.9523, 1.607039
496.4344, 1.378127
496.9165, 1.109154
497.3987, 1.090694
497.8808, 1.203115
498.3629, 1.221476
498.8450, 0.8930530
499.3271, 0.5746190
499.8092, 0.5524840
500.2914, 0.7715430
500.7735, 0.9297670
501.2556, 0.8618790
501.7377, 0.7365810
502.2198, 0.6304660
502.7019, 0.5023200
503.1841, 0.5240150
503.6662, 0.8581780
504.1483, 1.294971
504.6304, 1.591020
505.1125, 1.707786
505.5946, 1.731895
506.0768, 1.599091
506.5589, 1.375993
507.0410, 1.450362
507.5231, 1.955907
508.0052, 2.381565
508.4873, 2.424505
508.9695, 2.080892
509.4516, 1.758340
509.9337, 1.456705
510.4158, 1.180256
510.8979, 0.8801950
511.3800, 0.5920400
511.8622, 0.5022830
512.3443, 0.7138980
512.8264, 1.067052
513.3085, 1.461186
513.7906, 1.844197
514.2728, 2.028847
514.7549, 1.750019
515.2370, 1.331569
515.7191, 1.021839
516.2012, 0.8397120
516.6833, 0.7709740
517.1655, 0.8303490
517.6476, 0.9861700
518.1297, 1.213268
518.6118, 1.617931
519.0939, 1.954558
519.5760, 2.272239
520.0582, 2.487690
520.5403, 2.418121
521.0224, 1.908283
521.5045, 1.324379
521.9866, 0.6970800
522.4688, 2.5208000E-02
522.9509, 0.3739330
523.4330, 0.5016160
523.9151, 0.3641410
524.3972, 0.1608570
524.8793, 1.134968
525.3615, 1.904868
525.8436, 2.362170
526.3257, 2.540751
526.8078, 2.334312
527.2899, 1.840831
527.7720, 1.540634
528.2542, 1.781246
528.7363, 2.195722
529.2184, 2.301120
529.7005, 2.134108
530.1826, 1.899846
530.6647, 1.522450
531.1469, 1.242658
531.6290, 1.396085
532.1111, 2.180170
532.5932, 2.598183
533.0753, 1.726907
533.5574, 0.5308420
534.0396, 2.3180000E-02
534.5217, 1.191240
535.0038, 2.079231
535.4859, 2.389080
535.9680, 2.256034
536.4501, 2.048438
536.9323, 1.664817
537.4144, 1.379060
537.8965, 1.301215
538.3786, 1.419257
538.8607, 1.624406
539.3428, 1.999390
539.8250, 2.311459
540.3071, 2.348234
540.7892, 2.128691
541.2713, 1.780365
541.7534, 1.259568
542.2355, 0.7956400
542.7177, 0.7743090
543.1998, 1.090540
543.6819, 1.412917
544.1640, 1.662810
544.6461, 1.817760
545.1282, 1.809122
545.6104, 1.693494
546.0925, 1.566932
546.5746, 1.553902
547.0567, 1.494792
547.5388, 1.162716
548.0209, 0.2834130
548.5031, 2.1960000E-02
548.9852, 1.143469
549.4673, 2.677512
549.9494, 3.397858
550.4315, 2.622265
550.9136, 2.078709
551.3958, 2.044051
551.8779, 2.329484
552.3600, 2.367929
552.8421, 2.108036
553.3242, 1.778922
553.8063, 1.424471
554.2885, 1.066788
554.7706, 0.8912840
555.2527, 0.9041700
555.7348, 1.032366
556.2169, 1.322029
556.6990, 1.673545
557.1812, 1.774912
557.6633, 1.501366
558.1454, 1.268958
558.6275, 1.616998
559.1096, 2.266552
559.5917, 2.733238
560.0739, 2.694795
560.5560, 2.555519
561.0381, 2.499115
561.5202, 2.483203
562.0023, 2.394257
562.4844, 2.031176
562.9666, 1.735957
563.4487, 1.710933
563.9308, 2.041971
564.4129, 2.204795
564.8950, 2.084727
565.3771, 1.921688
565.8593, 1.942572
566.3414, 2.223026
566.8235, 2.341938
567.3056, 2.204499
567.7877, 1.972571
568.2698, 2.017355
568.7520, 2.313399
569.2341, 2.408172
569.7162, 1.961762
570.1983, 1.322090
570.6804, 1.129467
571.1625, 1.345283
571.6447, 1.687648
572.1268, 2.196619
572.6089, 2.614341
573.0910, 2.604626
573.5731, 2.070095
574.0552, 1.603129
574.5374, 1.572787
575.0195, 1.684403
575.5016, 1.661936
575.9837, 1.251352
576.4658, 0.9546180
576.9479, 0.8263070
577.4301, 0.8352600
577.9122, 0.9394740
578.3943, 1.222254
578.8764, 1.437634
579.3585, 1.530703
579.8406, 1.500453
580.3228, 1.382119
580.8049, 1.172399
581.2870, 0.8100500
581.7691, 2.5353000E-02
582.2512, 1.077202
582.7333, 1.224020
583.2155, 0.3272050
583.6975, 0.7420280
584.1796, 1.260434
584.6617, 1.385017
585.1439, 1.374179
585.6260, 1.281332
586.1081, 1.101165
586.5902, 0.7425280
587.0723, 0.3019770
587.5544, 2.7641000E-02
588.0366, 0.2073440
588.5187, 0.2605180
589.0008, 0.1868840
589.4829, 1.8908000E-02
589.9650, 0.3417420
590.4471, 0.7879140
590.9293, 1.289014
591.4114, 1.874712
591.8935, 2.600595
592.3756, 2.995344
592.8577, 3.015593
593.3398, 2.830691
593.8220, 2.611705
594.3041, 2.363102
594.7862, 2.129140
595.2683, 1.939255
595.7504, 1.717020
596.2325, 1.313709
596.7147, 0.8104620
597.1968, 0.4247680
597.6789, 0.2705220
598.1610, 0.2479940
598.6431, 0.3611330
599.1252, 0.5689900
599.6074, 0.6892710
600.0895, 0.6507200
600.5716, 0.5162740
601.0537, 0.2008720
601.5358, 0.4421150
602.0179, 0.4997600
602.5001, 0.4448970
602.9822, 1.572070
603.4643, 2.292891
603.9464, 2.552443
604.4285, 2.628871
604.9106, 2.509972
605.3928, 2.267573
605.8749, 1.969341
606.3570, 1.616835
606.8391, 1.299775
607.3212, 0.9403200
607.8033, 0.7420480
608.2855, 1.263090
608.7676, 2.279928
609.2497, 2.988048
609.7318, 2.635063
610.2139, 2.015197
610.6960, 1.737034
611.1782, 1.823097
611.6603, 1.947591
612.1424, 2.080537
612.6245, 2.155388
613.1066, 2.125613
613.5887, 1.947187
614.0709, 1.752284
614.5530, 1.504313
615.0351, 1.270883
615.5172, 1.149704
615.9993, 1.193740
616.4814, 1.075913
616.9636, 0.6799460
617.4457, 0.2056260
617.9278, 5.2471001E-02
618.4099, 7.7869996E-02
618.8920, 0.2917790
619.3741, 1.576881
619.8563, 2.969090
620.3384, 3.028963
620.8205, 1.998707
621.3026, 1.090421
621.7847, 1.087322
622.2668, 1.411945
622.7490, 1.693526
623.2311, 1.900624
623.7132, 2.015381
624.1953, 2.075704
624.6774, 2.011266
625.1595, 1.744242
625.6417, 0.9530010
626.1238, 0.6186100
626.6059, 0.9283850
627.0880, 1.492453
627.5701, 1.853064
628.0522, 2.017724
628.5344, 1.834195
629.0165, 1.085184
629.4986, 0.2476360
629.9807, 0.4943350
630.4628, 1.607810
630.9449, 2.407871
631.4271, 1.907327
631.9092, 1.063839
632.3913, 0.9679870
632.8734, 1.521913
633.3555, 2.066337
633.8376, 2.388386
634.3198, 2.511676
634.8019, 2.440341
635.2840, 2.159654
635.7661, 1.749443
636.2482, 0.8392080
636.7303, 0.1119660
637.2125, 0.1295430
637.6946, 1.329288
638.1767, 1.955719
638.6588, 1.785583
639.1409, 1.304190
639.6230, 1.217407
640.1052, 1.438881
640.5873, 1.544271
641.0694, 1.458876
641.5515, 1.270278
642.0336, 1.024591
642.5157, 0.7742090
642.9979, 0.6698740
643.4800, 0.9566360
643.9621, 1.275857
644.4442, 1.403179
644.9263, 1.344294
645.4084, 1.156281
645.8906, 0.7060920
646.3727, 0.2728690
646.8548, 5.8727998E-02
647.3369, 0.3156580
647.8190, 0.1600640
648.3011, 0.7420880
648.7833, 1.560358
649.2654, 1.460656
649.7475, 0.3131300
650.2296, 0.1607160
650.7117, 0.2515430
651.1938, 0.8768800
651.6760, 0.7625380
652.1581, 0.1615090
652.6402, 0.1048790
653.1223, 0.3110240
653.6044, 0.8423300
654.0865, 0.9303570
654.5687, 0.7751800
655.0508, 0.7614780
655.5329, 1.363706
656.0150, 1.835240
656.4971, 1.741595
656.9792, 1.205839
657.4614, 0.8311620
657.9435, 0.6972770
658.4256, 0.6470820
658.9077, 0.6405230
659.3898, 0.6424880
659.8719, 0.6337090
660.3541, 0.6373410
660.8362, 0.7418240
661.3183, 1.156089
661.8004, 1.760585
662.2825, 2.047042
662.7646, 1.971253
663.2468, 1.870785
663.7289, 2.197062
664.2110, 2.617977
664.6931, 2.666997
665.1752, 2.116179
665.6573, 1.522367
666.1395, 1.040265
666.6216, 0.6817030
667.1037, 0.4612460
667.5858, 0.3341490
668.0679, 0.4346440
668.5500, 0.9512850
669.0322, 1.622435
669.5143, 1.832642
669.9964, 1.499711
670.4785, 1.104366
670.9606, 0.7417520
671.4427, 0.4506200
671.9249, 0.3681800
672.4070, 0.4799050
672.8891, 0.6553760
673.3712, 0.8838720
673.8533, 1.103051
674.3354, 1.255652
674.8176, 1.337348
675.2997, 1.315798
675.7818, 1.033127
676.2639, 0.7461920
676.7460, 0.6384540
677.2281, 0.7688820
677.7103, 0.8507460
678.1924, 0.7169900
678.6745, 0.6883800
679.1566, 1.099295
679.6387, 2.140255
680.1208, 2.684220
680.6030, 2.613241
681.0851, 2.210274
681.5672, 1.641889
682.0493, 1.007664
682.5314, 0.7813740
683.0135, 1.243231
683.4957, 1.759064
683.9778, 1.579329
684.4599, 0.9809040
684.9420, 0.4923990
685.4241, 0.2792260
685.9063, 0.2371940
686.3884, 0.4593400
686.8705, 0.8395850
687.3526, 1.005709
687.8347, 0.7538690
688.3168, 0.5688900
688.7990, 0.6002150
689.2811, 0.8117490
689.7632, 0.9583270
690.2453, 1.029074
690.7274, 1.107084
691.2095, 1.318952
691.6917, 1.568776
692.1738, 1.489879
692.6559, 1.095823
693.1380, 0.7613350
693.6201, 0.8220240
694.1022, 1.039941
694.5844, 1.159151
695.0665, 1.123162
695.5486, 1.194513
696.0307, 1.739908
696.5128, 2.241388
696.9949, 2.250723
697.4771, 1.290637
697.9592, 0.8775580
698.4413, 1.270561
698.9234, 1.882068
699.4055, 1.957721
699.8876, 1.486771
700.3698, 1.067950
700.8519, 0.7772750
701.3340, 0.6560620
701.8161, 0.9702060
702.2982, 1.504777
702.7803, 1.703375
703.2625, 1.076919
703.7446, 0.3932460
704.2267, 0.2371060
704.7088, 0.3964220
705.1909, 0.4043040
705.6730, 0.1279220
706.1552, 0.4615220
706.6373, 0.3535070
707.1194, 9.2808999E-02
707.6015, 0.4170130
708.0836, 0.6076580
708.5657, 0.6660040
709.0479, 0.4548370
709.5300, 0.1070920
710.0121, 0.3479860
710.4942, 1.141706
710.9763, 1.755756
711.4584, 1.568610
711.9406, 0.9712620
712.4227, 0.3077650
712.9048, 0.3854350
713.3869, 0.7379800
713.8690, 0.3045380
714.3511, 0.3354880
714.8333, 0.8413280
715.3154, 1.186215
715.7975, 1.311083
716.2796, 1.045831
716.7617, 0.7709450
717.2438, 0.8397300
717.7260, 1.301759
718.2081, 1.550216
718.6902, 1.525160
719.1723, 1.378756
719.6544, 1.267633
720.1365, 1.175488
720.6187, 1.041771
721.1008, 0.8128980
721.5829, 0.6600990
722.0650, 0.7775930
722.5471, 1.025664
723.0292, 1.219625
723.5114, 1.273298
723.9935, 1.305463
724.4756, 1.320334
724.9577, 1.329722
725.4398, 1.361909
725.9219, 1.440128
726.4041, 1.474962
726.8862, 1.464961
727.3683, 1.380356
727.8504, 1.089504
728.3325, 0.6287110
728.8146, 0.2390430
729.2968, 3.0238001E-02
729.7789, 0.1168650
730.2610, 0.2006140
730.7431, 0.7878070
731.2252, 1.199036
731.7073, 1.091434
732.1895, 0.9135170
732.6716, 0.8461230
733.1537, 0.8905240
733.6358, 0.9316510
734.1179, 0.9505730
734.6000, 1.031035
735.0822, 1.217656
735.5643, 1.431197
736.0464, 1.452408
736.5285, 1.273917
737.0106, 1.143387
737.4927, 1.313344
737.9749, 1.619775
738.4570, 1.843386
738.9391, 1.964294
739.4212, 1.855697
739.9033, 1.021883
740.3854, 0.2308530
740.8676, 0.1713940
741.3497, 1.239322
741.8318, 1.851819
742.3139, 1.440968
742.7960, 0.9137170
743.2781, 1.084541
743.7603, 2.114703
744.2424, 2.668240
744.7245, 2.659909
745.2066, 2.390915
745.6887, 2.079535
746.1708, 1.760752
746.6530, 1.560730
747.1351, 1.532628
747.6172, 1.457571
748.0993, 1.023269
748.5814, 0.5206330
749.0635, 0.2935820
749.5457, 0.7090660
750.0278, 0.9306950
750.5099, 0.6755930
750.9920, 0.2955780
751.4741, 0.1787370
751.9562, 0.3672290
752.4384, 0.6915030
752.9205, 1.177291
753.4026, 1.681755
753.8847, 2.026180
754.3668, 2.198401
754.8489, 2.114694
755.3311, 1.572407
755.8132, 1.101269
756.2953, 1.357560
756.7774, 1.979773
757.2595, 2.328271
757.7416, 1.972890
758.2238, 1.595770
758.7059, 1.256605
759.1880, 1.018651
759.6701, 1.071985
760.1522, 1.563293
760.6343, 1.842735
761.1165, 1.635609
761.5986, 1.231447
762.0807, 1.484268
762.5628, 2.260720
763.0449, 2.779304
763.5270, 2.509874
764.0092, 1.947048
764.4913, 1.519106
764.9734, 1.219514
765.4555, 0.9756240
765.9376, 0.7609470
766.4197, 0.6089470
766.9019, 0.4954420
767.3840, 0.4457230
767.8661, 0.6541160
768.3482, 1.268192
768.8303, 1.704170
769.3124, 1.689128
769.7946, 1.329991
770.2767, 0.8781020
770.7588, 0.3490770
771.2409, 4.9387999E-02
771.7230, 0.4209310
772.2051, 1.004420
772.6873, 1.436574
773.1694, 1.693603
773.6515, 1.706482
774.1336, 1.097664
774.6157, 0.5842910
775.0978, 0.4786360
775.5800, 0.7682500
776.0621, 1.256741
776.5442, 2.123155
777.0263, 2.675419
777.5084, 2.329443
777.9905, 1.329802
778.4727, 0.8711680
778.9548, 0.9286140
779.4369, 1.057928
779.9190, 0.9463010
780.4011, 0.7497370
780.8832, 0.6139000
781.3654, 0.5503580
781.8475, 0.5005090
782.3296, 0.3359070
782.8117, 0.2849970
783.2938, 0.4532210
783.7759, 0.8499980
784.2581, 1.455345
784.7402, 2.429279
785.2223, 3.096821
785.7044, 2.786176
786.1865, 1.767835
786.6686, 1.043077
787.1508, 0.6404360
787.6329, 0.5146620
788.1150, 0.8430070
788.5971, 1.302408
789.0792, 1.602884
789.5613, 1.713593
790.0435, 1.691416
790.5256, 1.575844
791.0077, 1.297143
791.4898, 0.6958000
791.9719, 0.3629660
792.4540, 0.6441130
792.9362, 1.5024000E-02
793.4183, 0.7969770
793.9004, 0.9109610
794.3825, 0.6156950
794.8646, 0.7192960
795.3467, 1.286157
795.8289, 1.726818
796.3110, 1.552379
796.7931, 1.104053
797.2752, 0.6469820
797.7573, 0.2122840
798.2394, 0.2495740
798.7216, 1.103473
799.2037, 1.606082
799.6858, 1.112093
800.1679, 0.5922670
800.6500, 1.633841
801.1321, 1.984082
801.6143, 1.950770
802.0964, 1.632367
802.5785, 1.184534
803.0606, 0.8725460
803.5427, 0.7249660
804.0248, 0.7739980
804.5070, 1.357499
804.9891, 1.922766
805.4712, 1.997317
805.9533, 1.306027
806.4354, 0.8405130
806.9175, 0.7003770
807.3997, 0.6489320
807.8818, 0.4215490
808.3639, 3.2956000E-02
808.8460, 0.2702590
809.3281, 1.221479
809.8102, 2.027872
810.2924, 1.625306
810.7745, 0.7333930
811.2566, 0.3167210
811.7387, 0.5301660
812.2208, 0.9739940
812.7029, 2.009547
813.1851, 2.818742
813.6672, 2.707541
814.1493, 1.338914
814.6314, 0.5621130
815.1135, 0.5051740
815.5956, 0.7368560
816.0778, 0.9987600
816.5599, 1.269162
817.0420, 1.438499
817.5241, 1.500473
818.0062, 1.494636
818.4883, 1.479289
818.9705, 1.394872
819.4526, 1.099159
819.9347, 0.5130780
820.4168, 0.2238040
820.8989, 0.5705630
821.3810, 1.054185
821.8632, 1.480428
822.3453, 1.869858
822.8274, 1.935624
823.3095, 1.626232
823.7916, 1.303253
824.2737, 1.364627
824.7559, 1.588198
825.2380, 1.396559
825.7201, 0.7793060
826.2022, 0.4166820
826.6843, 1.002486
827.1664, 1.767141
827.6486, 2.169510
828.1307, 2.097522
828.6128, 2.155151
829.0949, 2.419980
829.5770, 2.686942
830.0591, 2.900024
830.5413, 3.038381
831.0234, 2.805685
831.5055, 2.206786
831.9876, 1.613274
832.4697, 1.175791
832.9518, 0.9525570
833.4340, 1.098521
833.9161, 1.590772
834.3982, 2.011908
834.8803, 2.229739
835.3624, 2.327482
835.8445, 2.351226
836.3267, 2.300073
836.8088, 2.114821
837.2909, 1.766840
837.7730, 1.417726
838.2551, 1.074599
838.7372, 0.8203100
839.2194, 0.9819260
839.7015, 1.481585
840.1836, 1.868442
840.6657, 1.743679
841.1478, 1.549536
841.6299, 1.599737
842.1121, 1.863877
842.5942, 1.962409
843.0763, 1.759614
843.5584, 1.594342
844.0405, 1.570007
844.5226, 1.664729
845.0048, 1.883127
845.4869, 2.203858
845.9690, 2.293547
846.4511, 1.744213
846.9332, 1.082733
847.4153, 0.9606090
847.8975, 1.202700
848.3796, 1.313534
848.8617, 0.7974190
849.3438, 0.5683060
849.8259, 0.9333540
850.3080, 1.586302
850.7902, 2.109616
851.2723, 2.508745
851.7544, 2.465367
852.2365, 1.698177
852.7186, 0.7410190
853.2007, 0.6363930
853.6829, 1.105392
854.1650, 1.521608
854.6471, 1.596968
855.1292, 1.607814
855.6113, 1.646596
856.0934, 1.697290
856.5756, 1.766458
857.0577, 2.032669
857.5398, 2.071500
858.0219, 1.720062
858.5040, 1.264584
858.9861, 1.393350
859.4683, 1.983079
859.9504, 2.351293
860.4325, 2.296137
860.9146, 2.111916
861.3967, 2.022230
861.8788, 1.979241
862.3610, 1.929947
862.8431, 1.937548
863.3252, 1.779784
863.8073, 1.198740
864.2894, 0.6974560
864.7715, 0.9041070
865.2537, 1.873518
865.7358, 2.404653
866.2179, 2.380178
866.7000, 2.121062
867.1821, 1.878127
867.6642, 1.628508
868.1464, 1.315031
868.6285, 0.9019330
869.1106, 0.5956000
869.5927, 0.4808600
870.0748, 0.4979660
870.5569, 0.6518960
871.0391, 1.000108
871.5212, 0.9906590
872.0033, 0.4920600
872.4854, 0.1640850
872.9675, 0.7953820
873.4496, 1.903628
873.9318, 2.231490
874.4139, 1.798012
874.8960, 1.333056
875.3781, 1.229781
875.8602, 1.262541
876.3423, 1.345272
876.8245, 1.465433
877.3066, 1.471363
877.7887, 1.303908
878.2708, 1.153175
878.7529, 1.078936
879.2350, 1.086945
879.7172, 1.318276
880.1993, 1.707315
880.6814, 1.849688
881.1635, 1.132778
881.6456, 0.4401200
882.1277, 0.5649020
882.6099, 1.255898
883.0920, 1.752114
883.5741, 1.755696
884.0562, 1.775054
884.5383, 1.920751
885.0204, 2.104028
885.5026, 2.095400
885.9847, 1.910777
886.4668, 1.787690
886.9489, 1.794840
887.4310, 1.887988
887.9131, 2.132688
888.3953, 2.394425
888.8774, 2.465559
889.3595, 2.085452
889.8416, 1.826886
890.3237, 1.950608
890.8058, 2.074798
891.2880, 1.686704
891.7701, 0.7145530
892.2522, 0.2142610
892.7343, 0.3054980
893.2164, 0.6554920
893.6985, 1.051878
894.1807, 1.427571
894.6628, 1.669853
895.1449, 1.739988
895.6270, 1.825887
896.1091, 2.190216
896.5912, 2.412095
897.0734, 2.168248
897.5555, 1.393946
898.0376, 1.038428
898.5197, 1.169778
899.0018, 1.323481
899.4839, 1.078237
899.9661, 0.6737170
900.4482, 0.5530150
900.9303, 0.7001140
901.4124, 0.9514880
901.8945, 1.346469
902.3766, 1.710964
902.8588, 2.057600
903.3409, 2.321772
903.8230, 2.146096
904.3051, 1.390855
904.7872, 0.7511790
905.2693, 0.5112290
905.7515, 0.4446010
906.2336, 0.1077010
906.7157, 0.8895090
907.1978, 1.145992
907.6799, 0.1100560
908.1620, 0.9407290
908.6442, 1.619038
909.1263, 1.899850
909.6084, 1.594288
910.0905, 0.2522880
910.5726, 0.2875100
911.0547, 0.2959740
911.5369, 1.325959
912.0190, 2.206200
912.5011, 2.794917
912.9832, 2.511741
913.4653, 1.114684
913.9474, 0.1779250
914.4296, 0.7453310
914.9117, 0.7722850
915.3938, 0.2545710
915.8759, 1.057078
916.3580, 1.666218
916.8401, 1.346081
917.3223, 0.8839620
917.8044, 0.8109140
918.2865, 1.039607
918.7686, 1.271687
919.2507, 1.502295
919.7328, 1.721855
920.2150, 1.994916
920.6971, 2.191145
921.1792, 2.210971
921.6613, 2.066076
922.1434, 1.880439
922.6255, 1.576324
923.1077, 1.439156
923.5898, 1.627365
924.0719, 1.950708
924.5540, 1.916243
925.0361, 1.611166
925.5182, 1.404517
926.0004, 1.542532
926.4825, 1.634390
926.9646, 1.279756
927.4467, 0.7759270
927.9288, 0.5984960
928.4109, 1.017537
928.8931, 1.219808
929.3752, 1.060562
929.8573, 0.8958860
930.3394, 1.289051
930.8215, 2.025694
931.3036, 2.278600
931.7858, 1.924186
932.2679, 1.519875
932.7500, 1.377943
933.2321, 1.397619
933.7142, 1.573396
934.1964, 1.965987
934.6785, 2.076807
935.1606, 1.888537
935.6427, 1.520146
936.1248, 0.8493980
936.6069, 9.3218997E-02
937.0891, 0.2420820
937.5712, 1.097596
938.0533, 1.654246
938.5354, 0.8658400
939.0175, 0.1199030
939.4996, 0.3884490
939.9818, 1.313377
940.4639, 1.836366
940.9460, 1.864562
941.4281, 1.581220
941.9102, 0.8531730
942.3923, 0.1438720
942.8745, 0.4070490
943.3566, 1.308257
943.8387, 1.850836
944.3208, 1.718890
944.8029, 1.474032
945.2850, 1.466363
945.7672, 1.472375
946.2493, 1.219176
946.7314, 0.5304690
947.2135, 0.3014530
947.6956, 0.5902350
948.1777, 1.138557
948.6599, 2.032996
949.1420, 2.960129
949.6241, 3.004650
950.1062, 2.245314
950.5883, 1.479105
951.0704, 1.034655
951.5526, 0.7864060
952.0347, 0.7720310
952.5168, 0.9123240
952.9989, 0.9154180
953.4810, 0.7335110
953.9631, 0.6458890
954.4453, 0.7510640
954.9274, 0.9568300
955.4095, 1.212991
955.8916, 1.437467
956.3737, 1.423180
956.8558, 0.8389000
957.3380, 0.5127610
957.8201, 1.132537
958.3022, 1.862744
958.7843, 1.836310
959.2664, 0.8181370
959.7485, 0.3514760
960.2307, 0.5196720
960.7128, 0.9533490
961.1949, 1.357587
961.6770, 1.810490
962.1591, 2.598540
962.6412, 3.692944
963.1234, 4.264048
963.6055, 3.583985
964.0876, 2.802049
964.5697, 2.332669
965.0518, 2.083609
965.5339, 1.388744
966.0161, 0.1920640
966.4982, 0.4459460
966.9803, 0.1016100
967.4624, 1.027348
967.9445, 1.527438
968.4266, 1.725524
968.9088, 1.894506
969.3909, 2.142225
969.8730, 2.237276
970.3551, 2.123404
970.8372, 1.916072
971.3193, 1.712038
971.8015, 1.500936
972.2836, 1.263247
972.7657, 1.031835
973.2478, 0.9261890
973.7299, 1.114889
974.2120, 1.337552
974.6942, 1.364296
975.1763, 1.176555
975.6584, 1.074792
976.1405, 1.102077
976.6226, 1.155539
977.1047, 1.230068
977.5869, 1.278818
978.0690, 1.076203
978.5511, 0.7155550
979.0332, 0.5454660
979.5153, 0.7857590
979.9974, 1.133125
980.4796, 1.543529
980.9617, 1.909551
981.4438, 2.076050
981.9259, 1.972066
982.4080, 1.879385
982.8901, 1.801746
983.3723, 1.771016
983.8544, 1.939684
984.3365, 2.135591
984.8186, 1.897933
985.3007, 1.210380
985.7828, 0.8236500
986.2650, 1.563717
986.7471, 2.122430
987.2292, 1.819232
987.7113, 0.8557900
988.1934, 0.2624730
988.6755, 4.4930000E-02
989.1577, 0.1115370
989.6398, 0.6230630
990.1219, 1.076229
990.6040, 0.6342370
991.0861, 0.2090090
991.5682, 0.6804130
992.0504, 0.2250750
992.5325, 8.7513000E-02
993.0146, 9.1041997E-02
993.4967, 4.0291999E-02
993.9788, 0.1569970
994.4609, 0.4322450
994.9431, 0.8360870
995.4252, 1.365448
995.9073, 1.670319
996.3894, 1.187674
996.8715, 0.6445730
997.3536, 0.6647080
997.8358, 1.221558
998.3179, 1.531577
998.8000, 1.533041
999.2821, 1.386007
999.7642, 1.061399
1000.246, 0.7234410
1000.728, 0.8441550
1001.211, 1.218486
1001.693, 1.261707
1002.175, 0.5037430
1002.657, 3.6929999E-02
1003.139, 0.6895380
1003.621, 1.619615
1004.103, 1.981442
1004.585, 1.650897
1005.068, 1.656145
1005.550, 2.050334
1006.032, 2.260400
1006.514, 1.517440
1006.996, 0.5581320
1007.478, 0.3649360
1007.960, 0.8457220
1008.442, 1.269470
1008.924, 1.362808
1009.407, 1.487373
1009.889, 1.795277
1010.371, 2.101016
1010.853, 1.885348
1011.335, 1.255997
1011.817, 0.9786210
1012.299, 1.296767
1012.781, 1.689091
1013.263, 1.914282
1013.746, 1.974697
1014.228, 1.672617
1014.710, 0.9613440
1015.192, 0.4133970
1015.674, 2.1937000E-02
1016.156, 0.1095780
1016.638, 0.4618560
1017.120, 1.401377
1017.603, 2.230858
1018.085, 2.889278
1018.567, 3.119319
1019.049, 2.304761
1019.531, 1.659482
1020.013, 1.769731
1020.495, 2.094496
1020.977, 1.727617
1021.459, 0.6434430
1021.942, 2.8073000E-02
1022.424, 6.0757998E-02
1022.906, 0.3299580
1023.388, 0.6107130
1023.870, 0.8282000
1024.352, 0.8521960
1024.834, 0.7102830
1025.316, 0.5998180
1025.799, 0.4733150
1026.281, 0.5227800
1026.763, 0.9279280
1027.245, 1.473707
1027.727, 1.588747
1028.209, 1.367164
1028.691, 1.117747
1029.173, 0.9304620
1029.656, 0.7878340
1030.138, 0.6512060
1030.620, 0.5812750
1031.102, 0.6928800
1031.584, 1.050391
1032.066, 1.194271
1032.548, 1.121934
1033.030, 1.014538
1033.512, 1.023426
1033.995, 1.056547
1034.477, 1.015741
1034.959, 0.8990950
1035.441, 0.7235770
1035.923, 0.3760950
1036.405, 0.1382740
1036.887, 4.3145001E-02
1037.369, 0.1129140
1037.851, 0.4815340
1038.334, 1.060631
1038.816, 1.562068
1039.298, 1.947083
1039.780, 2.127265
1040.262, 1.967637
1040.744, 1.641794
1041.226, 1.262066
1041.708, 0.8232250
1042.191, 0.4477410
1042.673, 0.1223240
1043.155, 6.8057999E-02
1043.637, 3.5193000E-02
1044.119, 0.1184840
1044.601, 0.2686970
1045.083, 0.4272050
1045.565, 0.6150390
1046.047, 1.029716
1046.530, 1.180369
1047.012, 0.9590580
1047.494, 0.5684540
1047.976, 0.1072740
1048.458, 0.3488290
1048.940, 0.2905090
1049.422, 0.2793750
1049.904, 0.7391780
1050.386, 0.3079550
1050.869, 7.7069998E-02
1051.351, 0.3680490
1051.833, 1.376281
1052.315, 1.807929
1052.797, 1.589487
1053.279, 1.332390
1053.761, 1.166814
1054.243, 1.114362
1054.726, 1.260022
1055.208, 1.509912
1055.690, 1.758437
1056.172, 2.046479
1056.654, 2.084802
1057.136, 1.663097
1057.618, 1.357797
1058.100, 1.687317
1058.583, 2.380699
1059.065, 2.286894
1059.547, 1.544253
1060.029, 0.7874770
1060.511, 0.1087870
1060.993, 0.2281220
1061.475, 0.1599930
1061.957, 0.8244560
1062.439, 1.160558
1062.922, 1.122420
1063.404, 1.176124
1063.886, 1.365832
1064.368, 1.577111
1064.850, 1.767165
1065.332, 1.851932
1065.814, 1.718292
1066.296, 1.391907
1066.778, 1.236996
1067.261, 1.309098
1067.743, 1.499814
1068.225, 1.836548
1068.707, 2.183661
1069.189, 2.414643
1069.671, 2.436550
1070.153, 1.865784
1070.635, 0.3086820
1071.118, 0.6758460
1071.600, 0.1559150
1072.082, 1.197016
1072.564, 1.555563
1073.046, 1.279033
1073.528, 0.7576220
1074.010, 4.7201000E-02
1074.492, 2.8755000E-02
1074.974, 1.801302
1075.457, 3.467925
1075.939, 3.044232
1076.421, 1.549709
1076.903, 0.7318220
1077.385, 0.8915780
1077.867, 1.136694
1078.349, 1.487023
1078.831, 1.668506
1079.313, 1.236585
1079.796, 0.5778160
1080.278, 0.2238830
1080.760, 0.1923780
1081.242, 0.3945560
1081.724, 1.135615
1082.206, 1.663799
1082.688, 1.775080
1083.170, 1.655341
1083.652, 1.629067
1084.135, 1.664825
1084.617, 1.600358
1085.099, 1.372054
1085.581, 1.302032
1086.063, 1.915341
1086.545, 2.433166
1087.027, 2.371418
1087.509, 1.771601
1087.992, 0.8518610
1088.474, 0.3985470
1088.956, 1.010155
1089.438, 0.3322360
1089.920, 0.6949030
1090.402, 1.304853
1090.884, 1.623759
1091.366, 1.809623
1091.849, 1.862197
1092.331, 1.840939
1092.813, 1.730183
1093.295, 1.598580
1093.777, 1.482950
1094.259, 1.387755
1094.741, 1.379720
1095.223, 1.405046
1095.705, 1.277469
1096.188, 0.5394520
1096.670, 0.2082670
1097.152, 0.5789190
1097.634, 1.224460
1098.116, 1.685788
1098.598, 1.953122
1099.080, 1.913599
1099.562, 1.562955
1100.044, 1.206006
1100.527, 0.9499540
1101.009, 0.8732110
1101.491, 0.9984380
1101.973, 1.319996
1102.455, 1.805961
1102.937, 2.465957
1103.419, 2.572237
1103.901, 1.830181
1104.384, 0.9524650
1104.866, 0.5033440
1105.348, 0.3553680
1105.830, 0.4606960
1106.312, 0.8384180
1106.794, 0.9396800
1107.276, 0.6872680
1107.758, 0.5346610
1108.240, 0.7855270
1108.723, 1.144735
1109.205, 1.163524
1109.687, 0.9532600
1110.169, 0.7190460
1110.651, 0.2724220
1111.133, 0.2927960
1111.615, 1.115613
1112.097, 1.861987
1112.579, 1.637787
1113.062, 0.8262750
1113.544, 0.7833200
1114.026, 1.368655
1114.508, 1.820168
1114.990, 1.685445
1115.472, 1.447648
1115.954, 1.164781
1116.436, 0.9410600
1116.919, 1.012284
1117.401, 1.337122
1117.883, 1.158830
1118.365, 0.4104950
1118.847, 9.9809999E-03
1119.329, 1.205987
1119.811, 2.398972
1120.293, 2.308285
1120.776, 1.280885
1121.258, 0.4885520
1121.740, 7.9563998E-02
1122.222, 0.2651360
1122.704, 1.7061001E-02
1123.186, 0.4616570
1123.668, 0.9080830
1124.150, 1.256280
1124.632, 1.363401
1125.115, 1.185018
1125.597, 1.061735
1126.079, 0.9707620
1126.561, 1.051668
1127.043, 1.467123
1127.525, 1.906563
1128.007, 1.681942
1128.489, 1.173832
1128.971, 1.027806
1129.454, 1.723664
1129.936, 2.214389
1130.418, 2.330739
1130.900, 2.380837
1131.382, 2.611704
1131.864, 2.897075
1132.346, 2.756557
1132.828, 2.329523
1133.311, 2.041518
1133.793, 2.328116
1134.275, 2.434227
1134.757, 2.081889
1135.239, 1.606810
1135.721, 1.282618
1136.203, 1.109234
1136.685, 1.120759
1137.167, 1.297159
1137.650, 1.420954
1138.132, 1.270936
1138.614, 1.135230
1139.096, 1.158495
1139.578, 1.286044
1140.060, 1.434290
1140.542, 1.603579
1141.024, 1.939701
1141.506, 2.483552
1141.989, 2.705557
1142.471, 1.613283
1142.953, 0.5396110
1143.435, 0.7900380
1143.917, 2.024582
1144.399, 2.303549
1144.881, 1.427109
1145.363, 0.9983450
1145.846, 1.463978
1146.328, 2.041362
1146.810, 1.778501
1147.292, 1.328541
1147.774, 1.343407
1148.256, 1.923036
1148.738, 2.206920
1149.220, 2.156575
1149.703, 1.881706
1150.185, 1.345673
1150.667, 0.7540610
1151.149, 0.2966950
1151.631, 3.1562999E-02
1152.113, 7.4914001E-02
1152.595, 0.5424510
1153.077, 1.022647
1153.559, 1.514651
1154.042, 1.950367
1154.524, 2.339103
1155.006, 2.609961
1155.488, 2.626839
1155.970, 2.388719
1156.452, 1.911506
1156.934, 0.9687580
1157.416, 0.1790230
1157.898, 0.5898450
1158.381, 0.8905250
1158.863, 5.3525001E-02
1159.345, 1.521007
1159.827, 2.212787
1160.309, 2.156206
1160.791, 1.877966
1161.273, 1.369435
1161.755, 1.003145
1162.238, 0.9245940
1162.720, 0.9580880
1163.202, 0.9145820
1163.684, 0.8151170
1164.166, 0.7966530
1164.648, 0.8610160
1165.130, 0.9658050
1165.612, 1.327275
1166.094, 1.432051
1166.577, 0.7785840
1167.059, 6.4514004E-02
1167.541, 0.1605030
1168.023, 0.4343550
1168.505, 1.175277
1168.987, 2.013346
1169.469, 2.340552
1169.951, 0.9510820
1170.433, 0.3046710
1170.916, 9.4765000E-02
1171.398, 1.039562
1171.880, 1.934016
1172.362, 2.590505
1172.844, 2.634033
1173.326, 1.916946
1173.808, 1.177509
1174.290, 1.104432
1174.773, 1.193938
1175.255, 0.9191960
1175.737, 0.4184510
1176.219, 0.6831790
1176.701, 1.769364
1177.183, 2.326393
1177.665, 1.873232
1178.147, 1.178761
1178.630, 0.8503790
1179.112, 0.7337450
1179.594, 0.6720220
1180.076, 0.6696990
1180.558, 0.9350540
1181.040, 1.383494
1181.522, 1.742977
1182.004, 1.904633
1182.486, 1.979305
1182.969, 2.142423
1183.451, 2.020294
1183.933, 2.118224
1184.415, 1.658604
1184.897, 1.259641
1185.379, 0.8964250
1185.861, 0.7493070
1186.343, 1.051841
1186.825, 1.426806
1187.308, 1.466975
1187.790, 1.260109
1188.272, 0.8822790
1188.754, 9.7758003E-02
1189.236, 1.7355001E-02
1189.718, 0.7888750
1190.200, 1.503311
1190.682, 1.452197
1191.165, 1.130675
1191.647, 1.148094
1192.129, 1.355885
1192.611, 1.412301
1193.093, 1.160526
1193.575, 0.9789030
1194.057, 0.8809850
1194.539, 0.8171320
1195.021, 0.7530600
1195.504, 0.6948090
1195.986, 0.5822340
1196.468, 0.4838450
1196.950, 0.6162830
1197.432, 1.189478
1197.914, 1.589919
1198.396, 1.757957
1198.878, 1.834265
1199.360, 1.927193
1199.843, 2.027372
1200.325, 2.170045
1200.807, 2.317935
1201.289, 2.294580
1201.771, 1.993683
1202.253, 1.648413
1202.735, 1.192896
1203.217, 0.9995410
1203.700, 1.830835
1204.182, 2.978409
1204.664, 3.426872
1205.146, 3.180176
1205.628, 2.731288
1206.110, 1.897167
1206.592, 1.526957
1207.074, 1.878870
1207.557, 2.359435
1208.039, 2.131303
1208.521, 1.607283
1209.003, 1.456272
1209.485, 1.697069
1209.967, 1.622099
1210.449, 0.9304480
1210.931, 0.4650120
1211.413, 0.4501730
1211.896, 0.5814720
1212.378, 0.2964640
1212.860, 3.2483999E-02
1213.342, 0.2873390
1213.824, 1.330831
1214.306, 1.920182
1214.788, 1.815294
1215.270, 1.619309
1215.752, 1.422848
1216.235, 1.265085
1216.717, 1.290689
1217.199, 1.374421
1217.681, 1.415889
1218.163, 1.401498
1218.645, 1.294218
1219.127, 1.029586
1219.609, 0.8698430
1220.092, 0.9038730
1220.574, 1.065526
1221.056, 1.301451
1221.538, 1.578203
1222.020, 1.922460
1222.502, 2.381052
1222.984, 2.275577
1223.466, 1.253624
1223.948, 0.8590330
1224.431, 1.921202
1224.913, 3.399261
1225.395, 3.705824
1225.877, 3.330633
1226.359, 2.784930
1226.841, 2.085989
1227.323, 1.578158
1227.805, 1.249772
1228.287, 1.183828
1228.770, 1.590897
1229.252, 2.052305
1229.734, 2.030330
1230.216, 1.687044
1230.698, 1.123929
1231.180, 0.1948840
1231.662, 0.1206610
1232.144, 1.076592
1232.627, 1.858078
1233.109, 1.811390
1233.591, 1.505126
1234.073, 1.627798
1234.555, 1.912614
1235.037, 1.996676
1235.519, 1.826541
1236.001, 1.594401
1236.484, 1.312611
1236.966, 0.8342450
1237.448, 0.2390660
1237.930, 1.021034
1238.412, 0.2247640
1238.894, 1.179923
1239.376, 1.780099
1239.858, 1.376702
1240.340, 1.371246
1240.823, 1.783450
1241.305, 2.150558
1241.787, 2.215395
1242.269, 2.148391
1242.751, 2.026276
1243.233, 1.895140
1243.715, 1.834423
1244.197, 1.865928
1244.679, 1.654237
1245.162, 1.208191
1245.644, 1.037693
1246.126, 1.845182
1246.608, 2.453692
1247.090, 1.788777
1247.572, 0.6784910
1248.054, 2.2000000E-02
1248.536, 0.1913430
1249.019, 0.3543530
1249.501, 1.555985
1249.983, 2.303272
1250.465, 1.469857
1250.947, 0.6623630
1251.429, 0.6937420
1251.911, 1.167359
1252.393, 1.848176
1252.875, 2.703328
1253.358, 3.123224
1253.840, 3.130761
1254.322, 2.901470
1254.804, 2.409369
1255.286, 1.839438
1255.768, 1.099887
1256.250, 0.4652750
1256.732, 0.1357410
1257.214, 0.1192040
1257.697, 0.6338660
1258.179, 1.544823
1258.661, 2.274339
1259.143, 2.526465
1259.625, 2.577678
1260.107, 2.410852
1260.589, 2.205140
1261.071, 2.150968
1261.554, 2.171228
1262.036, 1.936853
1262.518, 1.550426
1263.000, 1.358038
1263.482, 1.744352
1263.964, 1.920167
1264.446, 1.732146
1264.928, 1.528034
1265.411, 1.668960
1265.893, 1.955685
1266.375, 1.984756
1266.857, 1.836448
1267.339, 1.733796
1267.821, 1.646719
1268.303, 1.848340
1268.785, 2.453909
1269.267, 2.923596
1269.750, 2.622844
1270.232, 2.095902
1270.714, 1.943229
1271.196, 2.231624
1271.678, 2.376750
1272.160, 2.297627
1272.642, 1.985714
1273.124, 1.391778
1273.606, 0.9986950
1274.089, 1.442434
1274.571, 1.965097
1275.053, 1.698933
1275.535, 2.086634
1276.017, 1.087798
1276.499, 1.906834
1276.981, 1.922050
1277.463, 1.117148
1277.946, 0.5970390
1278.428, 1.512872
1278.910, 2.463821
1279.392, 2.511341
1279.874, 2.808219
1280.356, 2.010361
1280.838, 2.114107
1281.320, 1.407050
1281.802, 2.5800999E-02
1282.285, 0.7854260
1282.767, 0.1841920
1283.249, 1.153577
1283.731, 1.429955
1284.213, 2.045806
1284.695, 1.864328
1285.177, 2.389082
1285.659, 2.340720
1286.141, 1.869643
1286.624, 1.609719
1287.106, 2.120168
1287.588, 2.449641
1288.070, 2.498024
1288.552, 2.302549
1289.034, 1.608855
1289.516, 0.8218900
1289.998, 1.026335
1290.481, 1.890344
1290.963, 2.558462
1291.445, 2.569268
1291.927, 2.826307
1292.409, 3.462443
1292.891, 3.464329
1293.373, 2.911812
1293.855, 1.979400
1294.338, 1.020050
1294.820, 0.2037480
1295.302, 8.8639997E-02
1295.784, 0.2192940
1296.266, 0.7536800
1296.748, 1.538423
1297.230, 2.101843
1297.712, 2.065492
1298.194, 1.815537
1298.677, 1.595804
1299.159, 1.337970
1299.641, 0.7777440
1300.123, 0.2085110
1300.605, 0.1978590
1301.087, 0.6647620
1301.569, 0.9239630
1302.051, 0.4101010
1302.533, 2.1619999E-03
1303.016, 0.0000000E+00
##END=



