##NAMES=Kobellite
##RRUFFID=R070669
##IDEAL CHEMISTRY=Pb^2+^_11_(Cu^1+^,Fe^2+^)_2_(Bi^3+^,Sb^3+^)_15_S^2-^_35_
##LOCALITY=Jedlovec (Fichtenhubel) deposit, Smolník ore belt, Slovenske Rudohorie Mts, Koický Kraj, Slovak Republic
##OWNER=RRUFF
##SOURCE=Michael Scott
##DESCRIPTION=Steel gray metallic massive associated with chalcopyrite and siderite
##STATUS=The identification of this mineral is confirmed by single-crystal X-ray diffraction and chemical analysis.
##URL=rruff.info/R070669
##MEASURED CHEMISTRY=(Pb_9.66_Ag_0.25_Bi_0.94_)_Σ=10.85_(Cu_1.40_Fe_0.61_)_Σ=2.01_(Sb_7.71_Bi_7.29_)_Σ=15.00_S_35_
108.7069, 0.0000000E+00
109.1890, 4.886230
109.6711, 1.977051
110.1532, 14.84192
110.6353, 32.11938
111.1174, 28.53540
111.5996, 14.64062
112.0817, 2.760864
112.5638, 1.132568
113.0459, 3.826172
113.5280, 15.26331
114.0101, 44.06934
114.4923, 71.32178
114.9744, 79.30237
115.4565, 65.01111
115.9386, 47.44177
116.4207, 53.26025
116.9028, 84.33508
117.3850, 102.8911
117.8671, 89.90308
118.3492, 58.51892
118.8313, 35.78003
119.3134, 31.82861
119.7955, 39.35474
120.2777, 46.49475
120.7598, 55.69910
121.2419, 61.90588
121.7240, 55.19995
122.2061, 35.99377
122.6882, 24.79163
123.1704, 38.18420
123.6525, 53.64722
124.1346, 62.25928
124.6167, 64.29456
125.0988, 62.83667
125.5809, 54.31580
126.0631, 45.27954
126.5452, 37.66016
127.0273, 28.60132
127.5094, 21.63745
127.9915, 22.78772
128.4736, 37.55408
128.9558, 63.49695
129.4379, 73.46619
129.9200, 43.64075
130.4021, 18.88770
130.8842, 17.11279
131.3663, 26.97864
131.8485, 37.52966
132.3306, 38.68787
132.8127, 25.35352
133.2948, 20.40039
133.7769, 46.38928
134.2590, 74.79675
134.7412, 86.73413
135.2233, 78.91187
135.7054, 59.90332
136.1875, 40.23889
136.6696, 13.16968
137.1517, 1.946411
137.6339, 24.69995
138.1160, 59.34460
138.5981, 75.78540
139.0802, 61.85999
139.5623, 30.51917
140.0444, 8.620850
140.5266, 5.080566
141.0087, 11.02820
141.4908, 5.600586
141.9729, 8.827271
142.4550, 22.38879
142.9371, 30.91541
143.4193, 35.39111
143.9014, 38.99390
144.3835, 43.14185
144.8656, 44.87854
145.3477, 39.68823
145.8298, 26.22632
146.3120, 13.76880
146.7941, 7.041138
147.2762, 4.309814
147.7583, 4.566040
148.2404, 9.280029
148.7225, 16.02869
149.2047, 17.86633
149.6868, 9.935791
150.1689, 5.094482
150.6510, 13.26929
151.1331, 27.90930
151.6152, 36.33679
152.0974, 25.49475
152.5795, 4.353516
153.0616, 18.46240
153.5437, 7.781372
154.0258, 29.81006
154.5080, 30.92896
154.9901, 13.35352
155.4722, 10.26917
155.9543, 28.26770
156.4364, 42.49951
156.9185, 44.18909
157.4007, 22.07153
157.8828, 1.931274
158.3649, 14.80835
158.8470, 14.29065
159.3291, 7.461548
159.8112, 5.599121
160.2934, 14.65222
160.7755, 19.59338
161.2576, 16.91785
161.7397, 11.94971
162.2218, 10.25232
162.7039, 14.02661
163.1861, 20.91553
163.6682, 24.81934
164.1503, 21.45557
164.6324, 20.88586
165.1145, 26.93689
165.5966, 36.78674
166.0788, 45.34827
166.5609, 50.82861
167.0430, 52.96216
167.5251, 54.33020
168.0072, 56.94067
168.4893, 57.09924
168.9715, 51.26660
169.4536, 40.56042
169.9357, 30.92090
170.4178, 26.58496
170.8999, 26.61157
171.3820, 25.50085
171.8642, 21.57788
172.3463, 17.20374
172.8284, 13.55896
173.3105, 10.27026
173.7926, 10.68262
174.2747, 23.75684
174.7569, 42.20837
175.2390, 52.10510
175.7211, 40.40515
176.2032, 18.92383
176.6853, 12.93274
177.1674, 30.02637
177.6496, 47.42322
178.1317, 49.27979
178.6138, 40.48267
179.0959, 31.95483
179.5780, 29.77820
180.0602, 33.21631
180.5423, 37.79260
181.0244, 44.91040
181.5065, 51.60571
181.9886, 58.04333
182.4707, 63.30847
182.9529, 64.73730
183.4350, 57.97180
183.9171, 41.65369
184.3992, 29.96655
184.8813, 26.74548
185.3634, 25.96021
185.8456, 25.48059
186.3277, 25.15881
186.8098, 25.95032
187.2919, 30.30188
187.7740, 41.73621
188.2561, 46.11719
188.7383, 35.58850
189.2204, 24.23962
189.7025, 20.85486
190.1846, 27.15356
190.6667, 38.41626
191.1488, 48.12903
191.6310, 60.15173
192.1131, 63.73389
192.5952, 52.42407
193.0773, 36.98438
193.5594, 25.61890
194.0415, 21.39844
194.5237, 22.47717
195.0058, 25.17212
195.4879, 32.78796
195.9700, 40.31323
196.4521, 49.72009
196.9342, 58.29419
197.4164, 62.09644
197.8985, 58.91296
198.3806, 50.57190
198.8627, 45.30530
199.3448, 46.58215
199.8270, 48.59607
200.3091, 51.01062
200.7912, 52.58276
201.2733, 50.03870
201.7554, 40.37354
202.2375, 26.70312
202.7197, 24.51062
203.2018, 46.93994
203.6839, 64.72205
204.1660, 63.40723
204.6481, 47.72058
205.1302, 32.71521
205.6124, 27.59790
206.0945, 30.42236
206.5766, 29.06335
207.0587, 17.66235
207.5408, 7.436157
208.0229, 4.748779
208.5051, 9.322510
208.9872, 18.02612
209.4693, 30.78174
209.9514, 46.16943
210.4335, 57.80347
210.9156, 63.27307
211.3978, 67.34167
211.8799, 72.31042
212.3620, 78.42151
212.8441, 80.92480
213.3262, 73.29187
213.8083, 58.15247
214.2905, 44.82263
214.7726, 35.85840
215.2547, 31.68188
215.7368, 30.88062
216.2189, 32.47241
216.7010, 35.85266
217.1832, 42.76331
217.6653, 51.23621
218.1474, 57.24146
218.6295, 60.64880
219.1116, 60.51758
219.5937, 52.26672
220.0759, 30.29346
220.5580, 13.77075
221.0401, 21.82642
221.5222, 44.34180
222.0043, 60.62390
222.4864, 54.78235
222.9686, 34.83459
223.4507, 26.69812
223.9328, 36.80029
224.4149, 48.68494
224.8970, 50.87976
225.3791, 47.18347
225.8613, 46.51721
226.3434, 59.16443
226.8255, 81.36353
227.3076, 89.66858
227.7897, 72.58142
228.2718, 55.76782
228.7540, 54.78809
229.2361, 64.81580
229.7182, 72.70422
230.2003, 65.29395
230.6824, 43.96875
231.1645, 34.70679
231.6467, 46.17285
232.1288, 61.78711
232.6109, 79.38904
233.0930, 95.94861
233.5751, 104.4159
234.0572, 94.82996
234.5394, 66.29785
235.0215, 48.37769
235.5036, 49.13757
235.9857, 54.29736
236.4678, 58.81030
236.9500, 62.98401
237.4321, 69.60657
237.9142, 83.25500
238.3963, 105.5658
238.8784, 119.3772
239.3605, 116.2886
239.8427, 111.2908
240.3248, 108.4061
240.8069, 108.2982
241.2890, 110.7366
241.7711, 117.2089
242.2532, 129.8595
242.7354, 133.3014
243.2175, 112.7211
243.6996, 95.70581
244.1817, 96.30408
244.6638, 112.6948
245.1459, 133.0079
245.6281, 145.8063
246.1102, 150.1858
246.5923, 151.0387
247.0744, 143.2778
247.5565, 136.5691
248.0386, 136.7246
248.5208, 142.8721
249.0029, 149.3450
249.4850, 149.5156
249.9671, 140.5885
250.4492, 137.5530
250.9313, 149.6300
251.4135, 159.0847
251.8956, 153.9969
252.3777, 136.2159
252.8598, 117.9178
253.3419, 112.7206
253.8240, 124.7004
254.3062, 132.9332
254.7883, 133.6553
255.2704, 134.4858
255.7525, 141.2966
256.2346, 153.0203
256.7167, 162.9406
257.1989, 163.3335
257.6810, 150.7238
258.1631, 142.9171
258.6452, 143.9072
259.1273, 145.2587
259.6094, 140.1705
260.0916, 129.9257
260.5737, 122.6581
261.0558, 127.8781
261.5379, 150.4840
262.0200, 163.8339
262.5021, 160.8623
262.9843, 156.8292
263.4664, 160.9102
263.9485, 172.5188
264.4306, 184.5781
264.9127, 189.8119
265.3948, 186.5892
265.8770, 184.5919
266.3591, 187.4750
266.8412, 188.2935
267.3233, 181.9902
267.8054, 169.5356
268.2875, 155.9066
268.7697, 145.4369
269.2518, 138.0775
269.7339, 135.1857
270.2160, 138.4958
270.6981, 143.6763
271.1802, 151.0765
271.6624, 159.1188
272.1445, 162.9510
272.6266, 156.9022
273.1087, 138.3613
273.5908, 132.3247
274.0729, 152.5428
274.5551, 169.8047
275.0372, 166.9220
275.5193, 147.4536
276.0014, 126.8695
276.4835, 117.8516
276.9656, 121.0028
277.4478, 127.1140
277.9299, 141.1033
278.4120, 152.7567
278.8941, 155.8276
279.3762, 152.4515
279.8583, 149.7998
280.3405, 153.4956
280.8226, 163.8311
281.3047, 168.7418
281.7868, 165.8455
282.2689, 161.1705
282.7510, 156.4445
283.2332, 152.2113
283.7153, 148.2904
284.1974, 144.1953
284.6795, 139.6781
285.1616, 132.3666
285.6437, 118.0945
286.1259, 106.0383
286.6080, 99.44885
287.0901, 97.99792
287.5722, 99.94299
288.0543, 105.0474
288.5364, 113.4489
289.0186, 114.7496
289.5007, 101.6422
289.9828, 90.24634
290.4649, 85.27576
290.9470, 84.47131
291.4291, 84.01691
291.9113, 81.90759
292.3934, 78.26013
292.8755, 73.54498
293.3576, 65.09357
293.8397, 59.13995
294.3218, 58.22552
294.8040, 59.81555
295.2861, 60.07745
295.7682, 57.07092
296.2503, 52.32556
296.7325, 50.59918
297.2146, 52.98621
297.6967, 56.99707
298.1788, 63.47449
298.6609, 70.35132
299.1430, 75.53296
299.6252, 78.93463
300.1073, 80.47351
300.5894, 79.87421
301.0715, 76.22839
301.5536, 72.97363
302.0357, 67.91669
302.5179, 62.59857
303.0000, 59.00659
303.4821, 57.75061
303.9642, 58.48987
304.4463, 61.08093
304.9284, 70.76837
305.4106, 73.28229
305.8927, 61.95496
306.3748, 48.31061
306.8569, 41.48438
307.3390, 43.94989
307.8211, 51.06067
308.3033, 56.55939
308.7854, 60.42578
309.2675, 63.64148
309.7496, 66.50085
310.2317, 68.81537
310.7138, 71.02295
311.1960, 72.89062
311.6781, 72.55536
312.1602, 67.14551
312.6423, 54.45844
313.1244, 45.65875
313.6065, 38.06506
314.0887, 36.05603
314.5708, 44.73541
315.0529, 62.03131
315.5350, 80.63861
316.0171, 94.59943
316.4992, 103.7906
316.9814, 110.5797
317.4635, 118.8577
317.9456, 121.0349
318.4277, 109.2466
318.9098, 88.93274
319.3919, 71.64691
319.8741, 65.67285
320.3562, 70.54651
320.8383, 80.15503
321.3204, 106.5212
321.8025, 124.4766
322.2846, 122.8269
322.7668, 110.0633
323.2489, 99.89465
323.7310, 100.9702
324.2131, 109.5010
324.6952, 110.5928
325.1773, 94.79163
325.6595, 86.05310
326.1416, 97.11273
326.6237, 114.4538
327.1058, 122.3058
327.5879, 113.4062
328.0700, 94.33643
328.5522, 77.70984
329.0343, 61.91821
329.5164, 52.88959
329.9985, 57.21960
330.4806, 64.95068
330.9627, 67.43164
331.4449, 62.05322
331.9270, 53.64557
332.4091, 49.16083
332.8912, 49.68695
333.3733, 49.84167
333.8554, 49.82410
334.3376, 48.34326
334.8197, 44.36761
335.3018, 37.82092
335.7839, 29.63788
336.2660, 18.75098
336.7481, 4.720581
337.2303, 2.403076
337.7124, 4.359192
338.1945, 13.13055
338.6766, 17.96228
339.1587, 18.53998
339.6408, 15.42468
340.1230, 6.158936
340.6051, 7.454224
341.0872, 15.35992
341.5693, 15.01245
342.0514, 12.01300
342.5335, 8.388184
343.0157, 5.057251
343.4978, 4.520142
343.9799, 15.44800
344.4620, 28.47290
344.9441, 18.27295
345.4262, 23.98511
345.9084, 60.31665
346.3905, 57.66449
346.8726, 33.82886
347.3547, 15.28491
347.8368, 10.26227
348.3189, 11.56219
348.8011, 12.49109
349.2832, 13.13214
349.7653, 12.15051
350.2474, 7.793579
350.7295, 1.830383
351.2116, 2.330200
351.6938, 3.946716
352.1759, 4.710144
352.6580, 4.785278
353.1401, 4.641541
353.6222, 6.958740
354.1043, 14.32056
354.5865, 22.40643
355.0686, 23.35718
355.5507, 16.36523
356.0328, 7.137512
356.5149, 8.095886
356.9970, 23.21039
357.4792, 24.72272
357.9613, 6.508362
358.4434, 16.22253
358.9255, 21.99432
359.4076, 7.837097
359.8897, 6.540710
360.3719, 22.85944
360.8540, 36.28064
361.3361, 40.40552
361.8182, 35.06012
362.3003, 27.81097
362.7824, 26.20288
363.2646, 31.21973
363.7467, 29.87360
364.2288, 13.73761
364.7109, 0.6188960
365.1930, 2.108948
365.6751, 6.395447
366.1573, 14.33698
366.6394, 14.24677
367.1215, 7.412720
367.6036, 5.617310
368.0857, 13.21326
368.5678, 20.44556
369.0500, 26.19208
369.5321, 30.05151
370.0142, 31.54633
370.4963, 30.40454
370.9784, 27.07129
371.4605, 22.27606
371.9427, 10.69775
372.4248, 6.145691
372.9069, 14.36847
373.3890, 26.09283
373.8711, 34.46021
374.3532, 37.58032
374.8354, 36.66748
375.3175, 32.20349
375.7996, 21.48383
376.2817, 15.76044
376.7638, 15.14075
377.2459, 19.23669
377.7281, 32.53613
378.2102, 51.80603
378.6923, 66.94720
379.1744, 68.46069
379.6566, 56.92706
380.1387, 44.47375
380.6208, 24.97607
381.1029, 13.15973
381.5850, 20.10626
382.0671, 37.01630
382.5493, 48.22467
383.0314, 43.88873
383.5135, 31.47168
383.9956, 28.77271
384.4777, 40.31531
384.9598, 47.58661
385.4420, 36.62238
385.9241, 20.52173
386.4062, 12.30377
386.8883, 15.98853
387.3704, 23.74420
387.8525, 27.26184
388.3347, 26.96667
388.8168, 30.82849
389.2989, 44.04535
389.7810, 58.95270
390.2631, 66.12347
390.7452, 65.12408
391.2274, 63.80743
391.7095, 69.62866
392.1916, 76.98840
392.6737, 71.43311
393.1558, 47.68463
393.6379, 25.04535
394.1201, 25.86487
394.6022, 48.07269
395.0843, 63.25134
395.5664, 63.92749
396.0485, 59.44067
396.5306, 57.18439
397.0128, 57.21454
397.4949, 56.38977
397.9770, 52.33374
398.4591, 45.17273
398.9412, 38.70258
399.4233, 29.10431
399.9055, 25.43188
400.3876, 35.95795
400.8697, 53.27094
401.3518, 65.17700
401.8339, 66.03937
402.3160, 58.35687
402.7982, 48.84235
403.2803, 34.07629
403.7624, 23.28790
404.2445, 14.07867
404.7266, 10.17523
405.2087, 18.06494
405.6909, 36.65393
406.1730, 55.49133
406.6551, 62.01068
407.1372, 53.61542
407.6193, 49.47064
408.1014, 53.08392
408.5836, 57.36456
409.0657, 61.90491
409.5478, 65.28711
410.0299, 64.58441
410.5120, 57.23260
410.9941, 45.22650
411.4763, 35.60516
411.9584, 27.28326
412.4405, 22.86182
412.9226, 29.93512
413.4047, 38.71436
413.8868, 35.95276
414.3690, 16.40533
414.8511, 4.182312
415.3332, 2.401123
415.8153, 22.66650
416.2974, 38.52075
416.7795, 34.84161
417.2617, 26.04944
417.7438, 23.41949
418.2259, 26.33972
418.7080, 30.51581
419.1901, 35.68939
419.6722, 40.17175
420.1544, 38.72601
420.6365, 29.34332
421.1186, 21.43701
421.6007, 23.99512
422.0828, 34.65887
422.5649, 42.65857
423.0471, 46.57556
423.5292, 49.08783
424.0113, 51.67914
424.4934, 53.82208
424.9755, 53.91626
425.4576, 51.28058
425.9398, 46.64124
426.4219, 40.71570
426.9040, 29.29138
427.3861, 23.04382
427.8682, 30.25165
428.3503, 40.60657
428.8325, 40.06104
429.3146, 25.94971
429.7967, 9.214355
430.2788, 4.414856
430.7609, 15.81732
431.2430, 25.88635
431.7252, 37.63965
432.2073, 45.48022
432.6894, 43.24121
433.1715, 34.51221
433.6536, 28.59033
434.1357, 32.52374
434.6179, 44.15332
435.1000, 52.07025
435.5821, 56.17505
436.0642, 56.13812
436.5463, 49.40942
437.0284, 40.25647
437.5106, 32.49268
437.9927, 27.04388
438.4748, 24.19153
438.9569, 27.11884
439.4390, 36.90710
439.9211, 42.25562
440.4033, 39.68958
440.8854, 33.33807
441.3675, 24.69324
441.8496, 14.53961
442.3317, 7.277283
442.8138, 5.657166
443.2960, 8.381653
443.7781, 14.25287
444.2602, 24.12958
444.7423, 31.08032
445.2244, 28.84100
445.7065, 19.77991
446.1887, 12.83240
446.6708, 9.032532
447.1529, 6.860046
447.6350, 5.336304
448.1171, 4.800171
448.5992, 6.298767
449.0814, 10.63873
449.5635, 16.88348
450.0456, 23.72827
450.5277, 33.36475
451.0098, 38.52167
451.4919, 34.75739
451.9741, 29.32111
452.4562, 29.51074
452.9383, 34.66296
453.4204, 37.03320
453.9025, 28.46912
454.3846, 8.914368
454.8668, 1.092712
455.3489, 19.23114
455.8310, 34.21765
456.3131, 38.73633
456.7952, 37.04492
457.2773, 35.34082
457.7595, 36.28278
458.2416, 37.92169
458.7237, 36.07562
459.2058, 29.17804
459.6879, 24.75104
460.1700, 27.29498
460.6522, 30.23334
461.1343, 27.71576
461.6164, 20.45215
462.0985, 16.23999
462.5807, 24.56305
463.0628, 39.75208
463.5449, 43.93561
464.0270, 33.34674
464.5091, 22.94965
464.9912, 24.27087
465.4734, 32.84698
465.9555, 37.43469
466.4376, 33.42297
466.9197, 29.16541
467.4018, 31.74548
467.8839, 38.44952
468.3661, 40.88397
468.8482, 35.36700
469.3303, 27.09460
469.8124, 25.14111
470.2945, 32.95184
470.7766, 38.45764
471.2588, 42.97760
471.7409, 43.67480
472.2230, 33.23822
472.7051, 14.71735
473.1872, 3.758118
473.6693, 14.34137
474.1515, 43.40735
474.6336, 58.40033
475.1157, 45.59192
475.5978, 34.46741
476.0799, 30.65875
476.5620, 30.77734
477.0442, 32.01074
477.5263, 32.29932
478.0084, 30.90247
478.4905, 25.32574
478.9726, 14.69971
479.4547, 9.062317
479.9369, 12.87512
480.4190, 18.52075
480.9011, 20.96252
481.3832, 20.89429
481.8653, 21.27472
482.3474, 26.10083
482.8296, 31.04059
483.3117, 27.15875
483.7938, 14.12842
484.2759, 4.197144
484.7580, 4.004272
485.2401, 11.00665
485.7223, 18.75336
486.2044, 29.40112
486.6865, 36.28564
487.1686, 34.12415
487.6507, 27.91931
488.1328, 25.38245
488.6150, 28.10043
489.0971, 31.03098
489.5792, 27.95422
490.0613, 17.12363
490.5434, 12.97043
491.0255, 21.09525
491.5077, 28.84995
491.9898, 32.64136
492.4719, 32.48959
492.9540, 28.50873
493.4361, 20.56540
493.9182, 10.56082
494.4004, 1.886566
494.8825, 6.987030
495.3646, 10.18369
495.8467, 2.931549
496.3288, 7.378967
496.8109, 18.53964
497.2931, 29.10013
497.7752, 36.35873
498.2573, 38.58771
498.7394, 35.97763
499.2215, 27.03424
499.7036, 9.698914
500.1858, 4.527557
500.6679, 8.146790
501.1500, 4.044220
501.6321, 0.7166750
502.1142, 6.253571
502.5963, 11.60382
503.0785, 18.75269
503.5606, 24.94724
504.0427, 22.81580
504.5248, 10.12601
505.0069, 3.171417
505.4890, 4.749207
505.9712, 8.501526
506.4533, 19.30380
506.9354, 29.01337
507.4175, 35.27573
507.8996, 34.91302
508.3817, 31.41913
508.8639, 29.91675
509.3460, 33.13586
509.8281, 38.89044
510.3102, 38.58533
510.7923, 28.82822
511.2744, 21.84531
511.7566, 20.91446
512.2387, 21.98840
512.7208, 23.26843
513.2029, 24.56046
513.6851, 25.47449
514.1672, 25.65784
514.6493, 25.24783
515.1314, 24.30481
515.6135, 22.81485
516.0956, 20.81866
516.5778, 17.91306
517.0599, 14.63379
517.5420, 11.83725
518.0241, 7.769135
518.5062, 7.528748
518.9883, 18.50516
519.4705, 33.14423
519.9526, 37.89594
520.4347, 29.93668
520.9168, 19.16177
521.3989, 16.47107
521.8810, 23.32068
522.3632, 26.33530
522.8453, 20.88803
523.3274, 17.26730
523.8095, 19.96057
524.2916, 26.74289
524.7737, 34.50424
525.2559, 41.76328
525.7380, 46.44934
526.2201, 44.17325
526.7022, 32.79578
527.1843, 24.74298
527.6664, 21.95932
528.1486, 22.59329
528.6307, 27.38950
529.1128, 34.97137
529.5949, 40.64923
530.0770, 41.44299
530.5591, 39.45377
531.0413, 37.55164
531.5234, 35.75201
532.0055, 33.34500
532.4876, 30.50970
532.9697, 26.39297
533.4518, 17.74075
533.9340, 0.8253170
534.4161, 9.052002
534.8982, 3.235596
535.3803, 7.081360
535.8624, 11.56274
536.3445, 9.643768
536.8267, 5.883514
537.3088, 3.125977
537.7909, 1.923798
538.2730, 7.306793
538.7551, 31.59299
539.2372, 45.04849
539.7194, 34.87231
540.2015, 17.56668
540.6836, 9.318085
541.1657, 13.17343
541.6478, 19.09140
542.1299, 14.86627
542.6121, 2.842865
543.0942, 1.467896
543.5763, 15.98532
544.0584, 30.52676
544.5405, 33.70288
545.0226, 29.94330
545.5048, 27.73840
545.9869, 28.78690
546.4690, 30.76752
546.9511, 33.10278
547.4332, 35.28534
547.9153, 36.10861
548.3975, 35.24045
548.8796, 33.44080
549.3617, 31.20099
549.8438, 27.90085
550.3259, 28.20438
550.8080, 36.26511
551.2902, 42.96762
551.7723, 46.72659
552.2544, 46.37183
552.7365, 38.24030
553.2186, 20.73474
553.7007, 2.430481
554.1829, 2.685944
554.6650, 7.269135
555.1471, 15.86429
555.6292, 20.92752
556.1113, 24.70728
556.5934, 29.35458
557.0756, 34.13458
557.5577, 36.65259
558.0398, 35.18311
558.5219, 31.48102
559.0040, 26.43704
559.4861, 20.61481
559.9683, 17.60437
560.4504, 19.23441
560.9325, 22.85956
561.4146, 24.43341
561.8967, 23.84344
562.3788, 21.03568
562.8610, 12.68893
563.3431, 4.918243
563.8252, 4.003418
564.3073, 7.176971
564.7894, 5.941315
565.2715, 5.575714
565.7537, 19.84595
566.2358, 15.89984
566.7179, 14.81815
567.2000, 37.90945
567.6821, 44.45657
568.1642, 44.22360
568.6464, 42.15744
569.1285, 38.44153
569.6106, 31.88721
570.0927, 16.26025
570.5748, 0.4104610
571.0569, 0.4310610
571.5391, 12.58795
572.0212, 25.60104
572.5033, 33.61905
572.9854, 36.61264
573.4675, 33.24576
573.9496, 18.86755
574.4318, 10.77316
574.9139, 16.98596
575.3960, 24.91266
575.8781, 24.30502
576.3602, 16.64664
576.8423, 9.506409
577.3245, 7.637634
577.8066, 10.19446
578.2887, 15.50461
578.7708, 26.99319
579.2529, 32.81088
579.7350, 26.56595
580.2172, 17.30829
580.6993, 9.157745
581.1814, 2.415649
581.6635, 1.995453
582.1456, 4.074402
582.6277, 2.618713
583.1099, 6.707306
583.5920, 23.36145
584.0741, 36.62601
584.5562, 41.43439
585.0383, 40.00839
585.5204, 36.16727
586.0026, 26.68924
586.4847, 22.69165
586.9668, 31.94528
587.4489, 41.53387
587.9310, 40.70120
588.4131, 31.36252
588.8953, 22.22971
589.3774, 18.80649
589.8595, 19.43875
590.3416, 19.30008
590.8237, 18.15805
591.3058, 16.90118
591.7880, 14.19327
592.2701, 12.07660
592.7522, 14.74597
593.2343, 21.22220
593.7164, 25.14105
594.1985, 20.11853
594.6807, 13.08511
595.1628, 14.24023
595.6449, 22.46075
596.1270, 28.90436
596.6091, 29.70337
597.0912, 26.79184
597.5734, 23.41986
598.0555, 17.74966
598.5376, 16.21356
599.0197, 21.83609
599.5018, 28.79712
599.9839, 34.16019
600.4661, 37.96317
600.9482, 41.83023
601.4303, 47.03616
601.9124, 50.94879
602.3945, 46.62219
602.8766, 32.02237
603.3588, 21.92044
603.8409, 20.19250
604.3230, 22.12790
604.8051, 26.41513
605.2872, 31.71460
605.7693, 31.62448
606.2515, 17.29874
606.7336, 2.896698
607.2157, 1.221313
607.6978, 8.845337
608.1799, 16.17261
608.6620, 19.91254
609.1442, 21.83691
609.6263, 24.36081
610.1084, 27.49390
610.5905, 31.26462
611.0726, 39.84430
611.5547, 44.49557
612.0369, 39.34775
612.5190, 29.29306
613.0011, 20.41412
613.4832, 14.87460
613.9653, 12.87982
614.4474, 17.45789
614.9296, 27.28485
615.4117, 29.40689
615.8938, 19.39859
616.3759, 9.275116
616.8580, 8.545593
617.3401, 15.34204
617.8223, 21.10495
618.3044, 28.93307
618.7865, 31.49704
619.2686, 20.68372
619.7507, 5.438324
620.2328, 1.802307
620.7150, 0.9501340
621.1971, 6.540222
621.6792, 7.821564
622.1613, 5.292389
622.6434, 7.252838
623.1255, 15.81046
623.6077, 23.00073
624.0898, 30.41730
624.5719, 36.55969
625.0540, 37.03372
625.5361, 31.44550
626.0182, 26.04877
626.5004, 27.11844
626.9825, 29.89160
627.4646, 23.64456
627.9467, 8.588593
628.4288, 1.004578
628.9109, 3.925873
629.3931, 17.47830
629.8752, 23.90579
630.3573, 16.79053
630.8394, 12.93036
631.3215, 16.16852
631.8036, 19.30023
632.2858, 15.53427
632.7679, 7.626617
633.2500, 4.117065
633.7321, 10.65829
634.2142, 21.82330
634.6964, 27.62848
635.1785, 27.92169
635.6606, 25.60599
636.1427, 20.48706
636.6248, 14.02313
637.1069, 5.738525
637.5891, 3.503479
638.0712, 8.077332
638.5533, 6.265503
639.0354, 0.4956670
639.5175, 12.26035
639.9996, 26.73932
640.4818, 33.27866
640.9639, 29.62500
641.4460, 21.84665
641.9281, 17.05295
642.4102, 15.30515
642.8923, 15.12561
643.3745, 17.59454
643.8566, 20.03574
644.3387, 23.27243
644.8208, 25.20135
645.3029, 22.36398
645.7850, 13.77908
646.2672, 6.234375
646.7493, 3.349457
647.2314, 4.825592
647.7135, 12.33905
648.1956, 24.57379
648.6777, 32.06601
649.1599, 28.59567
649.6420, 18.20752
650.1241, 12.53403
650.6062, 13.02945
651.0883, 15.64053
651.5704, 26.91663
652.0526, 35.15390
652.5347, 28.96744
653.0168, 13.94766
653.4989, 5.801941
653.9810, 14.37857
654.4631, 28.44083
654.9453, 29.28516
655.4274, 18.23068
655.9095, 12.69272
656.3916, 17.99585
656.8737, 24.49539
657.3558, 22.46857
657.8380, 12.38861
658.3201, 6.814148
658.8022, 9.581024
659.2843, 12.42484
659.7664, 12.86108
660.2485, 11.71323
660.7307, 8.468109
661.2128, 3.926147
661.6949, 2.658813
662.1770, 10.85217
662.6591, 26.00168
663.1412, 32.28281
663.6234, 27.17780
664.1055, 21.14288
664.5876, 15.40756
665.0697, 12.24274
665.5518, 15.16852
666.0339, 24.59436
666.5161, 32.88251
666.9982, 39.83722
667.4803, 43.00104
667.9625, 36.94470
668.4446, 25.40561
668.9267, 18.69485
669.4088, 21.27383
669.8909, 28.08337
670.3730, 30.60754
670.8552, 27.40442
671.3373, 27.56992
671.8194, 37.11420
672.3015, 42.06790
672.7836, 32.18475
673.2657, 16.22058
673.7479, 7.107635
674.2300, 8.404144
674.7121, 13.50562
675.1942, 21.72604
675.6763, 29.62671
676.1584, 30.26761
676.6406, 23.80634
677.1227, 18.28143
677.6048, 19.29236
678.0869, 23.76547
678.5690, 22.31256
679.0511, 9.291504
679.5333, 0.5133970
680.0154, 3.319733
680.4975, 3.203796
680.9796, 3.991760
681.4617, 14.63922
681.9438, 19.60748
682.4260, 12.78159
682.9081, 3.402313
683.3902, 1.563110
683.8723, 5.385834
684.3544, 8.811218
684.8365, 10.62360
685.3187, 11.68146
685.8008, 12.52167
686.2829, 13.18207
686.7650, 14.84180
687.2471, 19.58456
687.7292, 22.49933
688.2114, 21.65848
688.6935, 19.84482
689.1756, 19.98120
689.6577, 21.65564
690.1398, 21.51666
690.6219, 16.24295
691.1041, 9.007233
691.5862, 4.258087
692.0683, 2.104095
692.5504, 5.530396
693.0325, 17.36020
693.5146, 28.50085
693.9968, 27.29642
694.4789, 12.07254
694.9610, 4.961823
695.4431, 13.20163
695.9252, 19.51288
696.4073, 18.73630
696.8895, 14.45138
697.3716, 9.009064
697.8537, 3.496979
698.3358, 0.1922300
698.8179, 2.005402
699.3000, 7.035339
699.7822, 8.222504
700.2643, 5.179626
700.7464, 8.253387
701.2285, 24.62833
701.7106, 43.12033
702.1927, 46.63940
702.6749, 31.35574
703.1570, 18.78268
703.6391, 9.483429
704.1212, 2.545013
704.6033, 3.878632
705.0854, 7.606598
705.5676, 2.657501
706.0497, 11.55533
706.5318, 23.40366
707.0139, 16.15762
707.4960, 4.310669
707.9781, 11.16907
708.4603, 2.513641
708.9424, 8.209625
709.4245, 16.87451
709.9066, 22.55765
710.3887, 22.46555
710.8708, 1.161316
711.3530, 17.90140
711.8351, 28.63321
712.3172, 31.48160
712.7993, 2.834564
713.2814, 14.85706
713.7635, 10.58093
714.2457, 5.636444
714.7278, 23.38269
715.2099, 0.6837160
715.6920, 16.70212
716.1741, 17.54071
716.6563, 25.95233
717.1384, 17.96472
717.6205, 15.04236
718.1026, 28.52426
718.5847, 32.92291
719.0668, 23.04025
719.5490, 31.92081
720.0311, 7.280121
720.5132, 12.06543
720.9953, 29.54648
721.4774, 20.49503
721.9595, 29.68735
722.4417, 31.93127
722.9238, 2.598785
723.4059, 28.18137
723.8880, 30.01480
724.3701, 7.463318
724.8522, 31.16400
725.3344, 11.97403
725.8165, 8.093323
726.2986, 15.73392
726.7807, 11.36884
727.2628, 25.94516
727.7449, 22.27017
728.2271, 16.96365
728.7092, 18.76999
729.1913, 0.4206240
729.6734, 19.46375
730.1555, 12.96451
730.6376, 19.16174
731.1198, 28.23666
731.6019, 15.27615
732.0840, 25.64407
732.5661, 0.1651000
733.0482, 4.296082
733.5303, 5.497559
734.0125, 26.04733
734.4946, 0.4140930
734.9767, 4.033905
735.4588, 20.10938
735.9409, 18.75748
736.4230, 24.69266
736.9052, 9.055664
737.3873, 13.66580
737.8694, 12.46536
738.3515, 30.57507
738.8336, 33.67938
739.3157, 18.40842
739.7979, 3.215088
740.2800, 22.94894
740.7621, 9.574005
741.2442, 14.05087
741.7263, 9.4665997E-02
742.2084, 2.064301
742.6906, 3.781097
743.1727, 13.67285
743.6548, 0.9614260
744.1369, 16.27548
744.6190, 14.95264
745.1011, 19.09686
745.5833, 22.63281
746.0654, 1.263184
746.5475, 0.3255620
747.0296, 29.01566
747.5117, 12.96921
747.9938, 16.35471
748.4760, 14.33850
748.9581, 18.31079
749.4402, 27.31573
749.9223, 33.87570
750.4044, 34.72556
750.8865, 31.47174
751.3687, 27.12695
751.8508, 19.39642
752.3329, 15.18246
752.8150, 19.85971
753.2971, 23.73703
753.7792, 24.58426
754.2614, 22.72189
754.7435, 16.45978
755.2256, 5.415314
755.7077, 0.3194890
756.1898, 8.548828
756.6719, 21.49512
757.1541, 29.84277
757.6362, 33.37976
758.1183, 31.69174
758.6004, 24.82056
759.0825, 17.56796
759.5646, 16.39178
760.0468, 21.14017
760.5289, 22.91299
761.0110, 20.60541
761.4931, 17.85968
761.9752, 14.34875
762.4573, 11.86502
762.9395, 14.17960
763.4216, 21.86411
763.9037, 25.19473
764.3858, 14.99014
764.8679, 6.953247
765.3500, 13.57162
765.8322, 26.16733
766.3143, 32.88364
766.7964, 30.60574
767.2785, 24.28345
767.7606, 16.84067
768.2427, 10.02673
768.7249, 11.66867
769.2070, 23.08252
769.6891, 28.30042
770.1712, 20.35913
770.6533, 10.44354
771.1354, 10.38919
771.6176, 20.15161
772.0997, 27.66959
772.5818, 35.90253
773.0639, 38.24411
773.5460, 26.92682
774.0281, 13.77771
774.5103, 10.22620
774.9924, 15.58276
775.4745, 21.44839
775.9566, 22.89496
776.4387, 22.53412
776.9208, 24.86279
777.4030, 28.52161
777.8851, 27.22275
778.3672, 19.61151
778.8493, 12.29160
779.3314, 10.46304
779.8135, 12.88794
780.2957, 13.93298
780.7778, 11.98392
781.2599, 11.74100
781.7420, 16.58139
782.2241, 20.11188
782.7062, 17.99866
783.1884, 12.25754
783.6705, 7.231476
784.1526, 3.591980
784.6347, 2.282227
785.1168, 4.439301
785.5989, 8.976746
786.0811, 16.07697
786.5632, 24.49646
787.0453, 30.15741
787.5274, 30.97311
788.0095, 28.41110
788.4916, 24.34357
788.9738, 18.52213
789.4559, 14.48340
789.9380, 11.79309
790.4201, 12.31418
790.9022, 19.50894
791.3843, 29.01184
791.8665, 33.22186
792.3486, 31.38489
792.8307, 28.41537
793.3128, 23.01505
793.7949, 18.74429
794.2770, 17.37848
794.7592, 18.46069
795.2413, 22.56168
795.7234, 29.20212
796.2055, 33.69580
796.6876, 30.40469
797.1697, 22.54645
797.6519, 16.17773
798.1340, 11.50610
798.6161, 12.20221
799.0982, 20.49426
799.5803, 27.47824
800.0624, 21.49432
800.5446, 2.831024
801.0267, 2.879578
801.5088, 16.94861
801.9909, 30.39493
802.4730, 31.15958
802.9551, 25.65024
803.4373, 15.03708
803.9194, 1.790710
804.4015, 5.855743
804.8836, 2.919067
805.3657, 2.906464
805.8478, 7.452667
806.3300, 11.30630
806.8121, 17.70584
807.2942, 25.14392
807.7763, 23.80322
808.2584, 5.906586
808.7405, 16.84854
809.2227, 16.95035
809.7048, 6.114380
810.1869, 21.50247
810.6690, 25.78854
811.1511, 25.57938
811.6332, 23.62256
812.1154, 20.35684
812.5975, 16.50629
813.0796, 10.54718
813.5617, 7.824524
814.0438, 11.82709
814.5259, 15.98071
815.0081, 17.11984
815.4902, 16.40973
815.9723, 15.56964
816.4544, 15.08298
816.9365, 15.27670
817.4186, 16.79285
817.9008, 18.90488
818.3829, 20.73938
818.8650, 22.22559
819.3471, 23.15988
819.8292, 23.70633
820.3113, 24.00668
820.7935, 24.04175
821.2756, 23.91104
821.7577, 26.43619
822.2398, 35.02240
822.7219, 36.21255
823.2040, 19.98212
823.6862, 3.083191
824.1683, 2.300079
824.6504, 13.74789
825.1325, 20.21432
825.6146, 12.72440
826.0967, 9.586578
826.5789, 22.85846
827.0610, 37.29782
827.5431, 37.07950
828.0252, 25.73392
828.5073, 17.43613
828.9894, 19.25156
829.4716, 23.93311
829.9537, 21.60986
830.4358, 15.54935
830.9180, 16.88785
831.4001, 25.92569
831.8822, 31.34631
832.3643, 26.98386
832.8464, 18.91943
833.3286, 18.21967
833.8107, 26.63388
834.2928, 31.41452
834.7749, 30.89664
835.2570, 29.55203
835.7391, 29.14835
836.2213, 28.42142
836.7034, 24.68506
837.1855, 18.05252
837.6676, 16.02579
838.1497, 26.07202
838.6318, 34.67017
839.1140, 33.82153
839.5961, 28.35410
840.0782, 24.97885
840.5603, 24.47449
841.0424, 24.14511
841.5245, 21.83231
842.0067, 19.76398
842.4888, 23.12769
842.9709, 30.14215
843.4530, 31.37811
843.9351, 25.39883
844.4172, 20.62790
844.8994, 22.92114
845.3815, 28.96808
845.8636, 30.10361
846.3457, 24.25031
846.8278, 19.52859
847.3099, 13.28900
847.7921, 11.88187
848.2742, 23.77328
848.7563, 38.92023
849.2384, 44.09265
849.7205, 37.78082
850.2026, 29.50677
850.6848, 17.17755
851.1669, 8.772675
851.6490, 13.20352
852.1311, 22.30331
852.6132, 22.18661
853.0953, 12.39948
853.5775, 7.663239
854.0596, 23.37299
854.5417, 43.90002
855.0238, 40.17584
855.5059, 17.95200
855.9880, 4.263031
856.4702, 4.222443
856.9523, 11.73764
857.4344, 23.85995
857.9165, 37.41397
858.3986, 41.73547
858.8807, 32.25119
859.3629, 29.50327
859.8450, 39.63846
860.3271, 47.77295
860.8092, 43.17429
861.2913, 33.42563
861.7734, 31.40237
862.2556, 39.40033
862.7377, 43.05435
863.2198, 35.34534
863.7019, 27.34766
864.1840, 26.76321
864.6661, 28.21683
865.1483, 23.23767
865.6304, 11.41110
866.1125, 0.8634950
866.5946, 4.887054
867.0767, 5.820679
867.5588, 1.118347
868.0410, 11.34879
868.5231, 14.48700
869.0052, 9.433105
869.4873, 4.836151
869.9694, 6.773163
870.4515, 13.39749
870.9337, 21.34921
871.4158, 31.28622
871.8979, 35.98752
872.3800, 33.49261
872.8621, 29.56976
873.3442, 26.78708
873.8264, 24.64154
874.3085, 22.33603
874.7906, 20.11069
875.2727, 16.74338
875.7548, 11.14667
876.2369, 5.725189
876.7191, 3.8879000E-02
877.2012, 4.444305
877.6833, 5.429657
878.1654, 3.135284
878.6475, 1.6326999E-02
879.1296, 3.307495
879.6118, 6.645599
880.0939, 9.971100
880.5760, 13.29462
881.0581, 16.55679
881.5402, 19.78519
882.0223, 23.42017
882.5045, 27.90009
882.9866, 31.65509
883.4687, 31.51471
883.9508, 28.27020
884.4329, 26.49197
884.9150, 26.49991
885.3972, 27.33264
885.8793, 28.88739
886.3614, 29.94730
886.8435, 28.31189
887.3256, 23.59308
887.8077, 21.98135
888.2899, 25.88382
888.7720, 28.53281
889.2541, 29.51865
889.7362, 27.63159
890.2183, 17.55960
890.7004, 2.699738
891.1826, 0.4147030
891.6647, 24.39285
892.1468, 39.97052
892.6289, 28.04889
893.1110, 10.06702
893.5931, 1.155365
894.0753, 0.1821590
894.5574, 1.991760
895.0395, 5.002533
895.5216, 6.598846
896.0037, 1.402069
896.4858, 4.423370
896.9680, 0.8096920
897.4501, 13.25601
897.9322, 19.57635
898.4143, 16.13229
898.8964, 10.11264
899.3785, 8.388275
899.8607, 9.651276
900.3428, 9.451019
900.8249, 7.742035
901.3070, 5.713348
901.7891, 3.342468
902.2712, 1.521545
902.7534, 0.6237790
903.2355, 0.9472660
903.7176, 3.587402
904.1997, 10.21423
904.6818, 15.00330
905.1639, 19.38528
905.6461, 20.05472
906.1282, 12.19220
906.6103, 2.290588
907.0924, 2.109009
907.5745, 0.4618530
908.0566, 3.118530
908.5388, 10.38464
909.0209, 16.14441
909.5030, 16.21552
909.9851, 14.92096
910.4672, 19.34042
910.9493, 27.09766
911.4315, 26.64124
911.9136, 9.509674
912.3957, 6.747314
912.8778, 2.852051
913.3599, 12.01453
913.8420, 25.15814
914.3242, 34.53790
914.8063, 36.94348
915.2884, 31.21436
915.7705, 22.60373
916.2526, 16.44864
916.7347, 13.00757
917.2169, 14.16980
917.6990, 20.05762
918.1811, 27.37674
918.6632, 36.27521
919.1453, 42.24579
919.6274, 41.05722
920.1096, 34.09576
920.5917, 27.17355
921.0738, 18.89813
921.5559, 14.15677
922.0380, 16.08539
922.5201, 17.59943
923.0023, 13.47766
923.4844, 7.731812
923.9665, 6.346649
924.4486, 9.723328
924.9307, 13.87796
925.4128, 21.51883
925.8950, 28.01779
926.3771, 31.36789
926.8592, 31.93668
927.3413, 28.66553
927.8234, 22.94629
928.3055, 20.20627
928.7877, 24.65640
929.2698, 28.37201
929.7519, 23.68753
930.2340, 16.45047
930.7161, 12.03076
931.1982, 11.62955
931.6804, 18.51926
932.1625, 33.51410
932.6446, 46.07288
933.1267, 41.11664
933.6088, 26.65970
934.0909, 25.02103
934.5731, 33.33691
935.0552, 33.80722
935.5373, 22.47232
936.0194, 11.11774
936.5015, 9.229645
936.9836, 3.272583
937.4658, 16.87543
937.9479, 24.52734
938.4300, 26.54816
938.9121, 6.072144
939.3942, 14.64575
939.8763, 11.57770
940.3585, 8.031921
940.8406, 20.69397
941.3227, 3.489716
941.8048, 15.89444
942.2869, 16.47961
942.7690, 22.47409
943.2512, 16.75488
943.7333, 14.65338
944.2154, 24.26935
944.6975, 27.39719
945.1796, 20.32898
945.6617, 26.66672
946.1439, 9.052032
946.6260, 12.45575
947.1081, 24.92795
947.5902, 18.44815
948.0723, 24.99957
948.5544, 26.58194
949.0366, 5.563538
949.5187, 23.82184
950.0008, 25.11661
950.4829, 8.993347
950.9650, 25.90753
951.4471, 12.17419
951.9293, 9.371674
952.4114, 14.80682
952.8935, 11.67142
953.3756, 22.06146
953.8577, 19.41064
954.3398, 15.30725
954.8220, 16.57047
955.3041, 3.449646
955.7862, 17.03793
956.2683, 12.56567
956.7504, 17.30847
957.2325, 23.90717
957.7147, 14.63553
958.1968, 22.02719
958.6789, 3.578064
959.1610, 6.750763
959.6431, 7.593475
960.1252, 22.24893
960.6074, 3.918823
961.0895, 6.479279
961.5716, 17.94760
962.0537, 16.96750
962.5358, 21.19226
963.0179, 10.00827
963.5001, 13.29956
963.9822, 12.60086
964.4643, 25.68427
964.9464, 27.74411
965.4285, 16.78043
965.9106, 5.911774
966.3928, 19.99265
966.8749, 10.42761
967.3570, 13.61938
967.8391, 3.636200
968.3212, 5.028809
968.8033, 6.241058
969.2855, 13.28470
969.7676, 2.645813
970.2497, 14.51358
970.7318, 13.37021
971.2139, 16.31647
971.6960, 18.82837
972.1782, 3.550842
972.6603, 2.856567
973.1424, 23.02945
973.6245, 11.37897
974.1066, 6.161407
974.5887, 5.500122
975.0709, 26.38782
975.5530, 27.24600
976.0351, 4.162720
976.5172, 24.10095
976.9993, 17.57162
977.4814, 18.90866
977.9636, 17.37692
978.4457, 16.69458
978.9278, 5.207336
979.4099, 7.959076
979.8920, 22.28833
980.3741, 16.87958
980.8563, 24.84799
981.3384, 33.16354
981.8205, 28.89676
982.3026, 6.350800
982.7847, 18.38071
983.2668, 22.00491
983.7490, 8.126404
984.2311, 6.348022
984.7132, 21.23044
985.1953, 26.60797
985.6774, 19.25516
986.1595, 10.73334
986.6417, 10.21912
987.1238, 14.95944
987.6059, 17.19409
988.0880, 16.71576
988.5701, 14.62515
989.0522, 9.774567
989.5344, 7.559814
990.0165, 11.19287
990.4986, 16.40759
990.9807, 17.71414
991.4628, 15.37646
991.9449, 15.90359
992.4271, 23.27866
992.9092, 25.04175
993.3913, 13.84921
993.8734, 4.150696
994.3555, 5.012848
994.8376, 12.45352
995.3198, 19.23621
995.8019, 25.58487
996.2841, 30.19687
996.7662, 34.96887
997.2483, 35.42004
997.7304, 23.67783
998.2125, 12.82532
998.6946, 16.69748
999.1768, 30.79480
999.6589, 38.03760
1000.141, 32.59064
1000.623, 27.29678
1001.105, 27.68015
1001.587, 26.96945
1002.069, 17.95239
1002.552, 7.285156
1003.034, 4.464569
1003.516, 9.941101
1003.998, 15.91876
1004.480, 18.93439
1004.962, 21.84869
1005.444, 28.00925
1005.926, 33.50339
1006.409, 34.01993
1006.891, 30.65945
1007.373, 25.22781
1007.855, 18.57031
1008.337, 15.65295
1008.819, 24.37503
1009.301, 34.62943
1009.783, 36.05270
1010.265, 32.17032
1010.748, 28.13110
1011.230, 24.76483
1011.712, 21.51974
1012.194, 18.18930
1012.676, 13.94965
1013.158, 5.695435
1013.640, 2.908966
1014.122, 5.235565
1014.604, 2.054779
1015.087, 5.401611
1015.569, 15.86865
1016.051, 23.49561
1016.533, 23.79504
1017.015, 19.32663
1017.497, 11.08292
1017.979, 1.939148
1018.461, 6.127167
1018.944, 22.14423
1019.426, 30.16440
1019.908, 23.02362
1020.390, 12.00226
1020.872, 8.269897
1021.354, 10.73932
1021.836, 18.05472
1022.318, 29.57953
1022.800, 34.73734
1023.283, 32.00696
1023.765, 30.11273
1024.247, 33.87173
1024.729, 38.23145
1025.211, 35.24738
1025.693, 25.61414
1026.175, 19.42084
1026.657, 17.08893
1027.140, 13.42734
1027.622, 6.384491
1028.104, 3.473236
1028.586, 10.99548
1029.068, 23.43417
1029.550, 28.81436
1030.032, 26.62518
1030.514, 20.32510
1030.996, 6.599884
1031.479, 1.417419
1031.961, 12.47351
1032.443, 25.85480
1032.925, 29.87308
1033.407, 26.31631
1033.889, 21.22662
1034.371, 12.14066
1034.853, 9.736481
1035.335, 18.45102
1035.818, 23.36002
1036.300, 15.50311
1036.782, 6.534332
1037.264, 11.44907
1037.746, 27.96030
1038.228, 32.44186
1038.710, 13.33273
1039.192, 5.011749
1039.675, 17.27426
1040.157, 29.31110
1040.639, 30.45172
1041.121, 26.26193
1041.603, 22.91562
1042.085, 19.87051
1042.567, 21.05585
1043.049, 35.09070
1043.531, 40.42935
1044.014, 24.35339
1044.496, 10.33795
1044.978, 15.44147
1045.460, 29.26291
1045.942, 33.30908
1046.424, 25.35571
1046.906, 19.22479
1047.388, 14.12830
1047.870, 13.53015
1048.353, 26.47708
1048.835, 36.33850
1049.317, 24.75128
1049.799, 2.672943
1050.281, 2.806732
1050.763, 14.83572
1051.245, 28.13181
1051.727, 33.57184
1052.210, 33.59189
1052.692, 25.00870
1053.174, 14.78995
1053.656, 7.200073
1054.138, 3.139282
1054.620, 4.517914
1055.102, 13.94760
1055.584, 21.47305
1056.067, 25.14502
1056.549, 25.90009
1057.031, 21.33765
1057.513, 16.13898
1057.995, 14.30826
1058.477, 16.08887
1058.959, 23.09229
1059.441, 41.93622
1059.923, 50.80420
1060.406, 31.90500
1060.888, 13.28455
1061.370, 13.15485
1061.852, 21.77753
1062.334, 28.21231
1062.816, 30.64716
1063.298, 28.63388
1063.780, 18.34677
1064.262, 10.60220
1064.745, 13.25336
1065.227, 15.97351
1065.709, 7.727539
1066.191, 2.885040
1066.673, 1.210175
1067.155, 13.13956
1067.637, 25.02927
1068.119, 29.15363
1068.602, 27.82233
1069.084, 16.16537
1069.566, 4.992584
1070.048, 3.048676
1070.530, 7.549103
1071.012, 14.49432
1071.494, 21.78485
1071.976, 23.45898
1072.458, 11.85019
1072.941, 1.867645
1073.423, 1.820984
1073.905, 4.812531
1074.387, 4.443420
1074.869, 3.397034
1075.351, 7.045166
1075.833, 16.38293
1076.315, 23.52570
1076.797, 22.86374
1077.280, 21.90054
1077.762, 23.62268
1078.244, 26.83859
1078.726, 32.81458
1079.208, 38.67215
1079.690, 38.38239
1080.172, 30.59000
1080.655, 22.75430
1081.137, 18.44550
1081.619, 14.56387
1082.101, 5.936432
1082.583, 2.6154000E-02
1083.065, 8.559204
1083.547, 24.13583
1084.029, 28.12411
1084.511, 15.69586
1084.994, 5.447083
1085.476, 5.682617
1085.958, 9.964600
1086.440, 19.54779
1086.922, 27.98572
1087.404, 27.80020
1087.886, 21.54135
1088.368, 14.45850
1088.850, 7.497833
1089.333, 4.325043
1089.815, 9.882385
1090.297, 15.40704
1090.779, 17.69547
1091.261, 16.76932
1091.743, 7.975647
1092.225, 2.889374
1092.707, 1.131775
1093.190, 18.19876
1093.672, 34.84634
1094.154, 43.12970
1094.636, 44.92966
1095.118, 35.65707
1095.600, 24.91464
1096.082, 22.51065
1096.564, 25.67667
1097.047, 25.68500
1097.529, 20.11301
1098.011, 16.10373
1098.493, 19.06390
1098.975, 20.03250
1099.457, 9.618195
1099.939, 0.4102480
1100.421, 8.002716
1100.903, 24.87192
1101.385, 30.07516
1101.868, 17.38898
1102.350, 9.363068
1102.832, 17.63351
1103.314, 23.63742
1103.796, 16.43549
1104.278, 8.068665
1104.760, 10.63141
1105.242, 19.50903
1105.725, 22.58282
1106.207, 17.53653
1106.689, 10.92111
1107.171, 0.6282960
1107.653, 7.597412
1108.135, 4.997192
1108.617, 1.263092
1109.099, 9.260620
1109.582, 16.53766
1110.064, 16.60312
1110.546, 6.252808
1111.028, 2.847321
1111.510, 15.36304
1111.992, 24.67593
1112.474, 23.46796
1112.956, 20.72110
1113.438, 25.11423
1113.921, 31.64093
1114.403, 27.07922
1114.885, 6.567963
1115.367, 1.192566
1115.849, 14.07135
1116.331, 26.37863
1116.813, 33.27728
1117.295, 34.02942
1117.777, 22.72092
1118.260, 8.046173
1118.742, 8.625854
1119.224, 27.52939
1119.706, 35.64236
1120.188, 27.56314
1120.670, 19.90662
1121.152, 14.37003
1121.634, 11.16791
1122.117, 10.50177
1122.599, 12.31821
1123.081, 17.92493
1123.563, 27.79764
1124.045, 25.72665
1124.527, 5.600769
1125.009, 4.645508
1125.491, 2.000702
1125.974, 10.55640
1126.456, 14.00409
1126.938, 12.93033
1127.420, 6.979828
1127.902, 3.084045
1128.384, 5.933197
1128.866, 0.7515870
1129.348, 7.375397
1129.830, 19.29175
1130.313, 25.56512
1130.795, 20.42688
1131.277, 9.718842
1131.759, 0.1243590
1132.241, 7.094177
1132.723, 2.377594
1133.205, 14.11935
1133.687, 18.24396
1134.169, 7.419128
1134.652, 0.7608340
1135.134, 0.9661560
1135.616, 7.398346
1136.098, 13.67877
1136.580, 19.25839
1137.062, 22.48227
1137.544, 23.60889
1138.026, 24.15051
1138.509, 24.16675
1138.991, 22.61923
1139.473, 19.26855
1139.955, 16.50034
1140.437, 16.44653
1140.919, 17.85535
1141.401, 18.63034
1141.883, 18.84827
1142.365, 19.66620
1142.848, 20.08362
1143.330, 13.20587
1143.812, 0.5888980
1144.294, 2.898926
1144.776, 22.17502
1145.258, 49.78809
1145.740, 48.83472
1146.222, 33.79095
1146.704, 21.24326
1147.187, 13.37939
1147.669, 13.99176
1148.151, 21.67383
1148.633, 28.70609
1149.115, 31.67426
1149.597, 30.74478
1150.079, 20.94778
1150.561, 12.26089
1151.044, 17.09021
1151.526, 26.09341
1152.008, 25.13254
1152.490, 15.85547
1152.972, 9.719299
1153.454, 10.59412
1153.936, 12.84464
1154.418, 15.57523
1154.901, 16.83536
1155.383, 12.61032
1155.865, 8.993134
1156.347, 15.14114
1156.829, 25.59818
1157.311, 25.49811
1157.793, 10.77435
1158.275, 2.126617
1158.757, 7.505096
1159.240, 14.30347
1159.722, 21.98026
1160.204, 27.26071
1160.686, 27.59586
1161.168, 24.61267
1161.650, 19.63522
1162.132, 12.05725
1162.614, 9.095001
1163.096, 13.62308
1163.579, 19.00424
1164.061, 25.21774
1164.543, 31.70764
1165.025, 40.64734
1165.507, 45.74387
1165.989, 38.34976
1166.471, 21.54272
1166.953, 15.78662
1167.436, 24.41953
1167.918, 27.58270
1168.400, 22.77084
1168.882, 19.65488
1169.364, 21.60452
1169.846, 26.49475
1170.328, 33.42810
1170.810, 39.80899
1171.292, 36.08371
1171.775, 23.35739
1172.257, 15.65823
1172.739, 13.23367
1173.221, 15.08514
1173.703, 21.11685
1174.185, 26.25058
1174.667, 27.48532
1175.149, 25.01944
1175.631, 15.15674
1176.114, 3.561340
1176.596, 7.327393
1177.078, 21.11957
1177.560, 30.29712
1178.042, 32.78864
1178.524, 30.58734
1179.006, 24.65759
1179.488, 20.79022
1179.971, 27.55267
1180.453, 35.41479
1180.935, 32.71857
1181.417, 25.43463
1181.899, 20.37369
1182.381, 17.93115
1182.863, 16.61032
1183.345, 16.83649
1183.828, 18.38742
1184.310, 23.15698
1184.792, 26.12115
1185.274, 23.94687
1185.756, 19.61835
1186.238, 15.11649
1186.720, 10.81937
1187.202, 3.937347
1187.684, 4.100281
1188.167, 3.532959
1188.649, 14.35019
1189.131, 25.01730
1189.613, 20.14212
1190.095, 13.76953
1190.577, 8.056824
1191.059, 6.646118
1191.541, 14.81235
1192.023, 28.10004
1192.506, 35.08575
1192.988, 35.47696
1193.470, 32.89075
1193.952, 25.10669
1194.434, 21.80121
1194.916, 26.64859
1195.398, 28.81027
1195.880, 20.81931
1196.363, 11.59882
1196.845, 15.54843
1197.327, 28.96259
1197.809, 29.32684
1198.291, 17.67841
1198.773, 17.38235
1199.255, 29.49072
1199.737, 30.88959
1200.219, 13.69208
1200.702, 1.998657
1201.184, 2.166199
1201.666, 14.92944
1202.148, 19.36188
1202.630, 18.41547
1203.112, 15.38919
1203.594, 11.56876
1204.076, 9.362396
1204.558, 9.042114
1205.041, 8.949646
1205.523, 7.970642
1206.005, 9.362640
1206.487, 20.69269
1206.969, 29.87259
1207.451, 19.65298
1207.933, 7.367920
1208.415, 17.94348
1208.898, 42.16818
1209.380, 54.69708
1209.862, 49.94064
1210.344, 42.23602
1210.826, 32.84140
1211.308, 24.92987
1211.790, 18.64960
1212.272, 14.74194
1212.755, 16.02701
1213.237, 18.22476
1213.719, 14.11655
1214.201, 5.500580
1214.683, 6.030273
1215.165, 20.72214
1215.647, 30.55527
1216.129, 35.27682
1216.611, 34.90790
1217.094, 28.80887
1217.576, 19.40372
1218.058, 7.530640
1218.540, 3.921844
1219.022, 9.891785
1219.504, 10.29022
1219.986, 1.568573
1220.468, 14.54825
1220.950, 20.87439
1221.433, 15.92975
1221.915, 10.72656
1222.397, 10.16684
1222.879, 12.30380
1223.361, 16.36356
1223.843, 20.21457
1224.325, 20.78342
1224.807, 19.04306
1225.290, 14.74799
1225.772, 10.08395
1226.254, 11.19424
1226.736, 17.34604
1227.218, 17.81528
1227.700, 5.083466
1228.182, 4.365204
1228.664, 0.4525450
1229.146, 8.197479
1229.629, 14.71680
1230.111, 18.81946
1230.593, 19.06445
1231.075, 15.98956
1231.557, 10.95770
1232.039, 2.743866
1232.521, 4.574432
1233.003, 26.95975
1233.485, 39.78867
1233.968, 34.95526
1234.450, 30.29926
1234.932, 35.68472
1235.414, 40.78568
1235.896, 32.80353
1236.378, 15.89307
1236.860, 5.951996
1237.342, 2.936523
1237.825, 5.665192
1238.307, 14.25186
1238.789, 22.74310
1239.271, 29.55569
1239.753, 33.16513
1240.235, 32.56677
1240.717, 29.18231
1241.199, 23.37729
1241.682, 17.08856
1242.164, 13.27963
1242.646, 11.70779
1243.128, 2.554443
1243.610, 16.52945
1244.092, 24.55490
1244.574, 26.94983
1245.056, 6.848480
1245.538, 15.79678
1246.021, 13.10571
1246.503, 9.531067
1246.985, 20.10559
1247.467, 3.110596
1247.949, 15.84335
1248.431, 16.75668
1248.913, 23.07925
1249.395, 17.68829
1249.878, 15.91641
1250.360, 25.86087
1250.842, 29.31744
1251.324, 22.05151
1251.806, 28.70688
1252.288, 11.40912
1252.770, 15.13364
1253.252, 27.93958
1253.734, 21.79324
1254.217, 28.67828
1254.699, 30.59793
1255.181, 9.961578
1255.663, 28.54852
1256.145, 30.17291
1256.627, 14.38025
1257.109, 31.62259
1257.591, 18.22580
1258.073, 2.749939
1258.556, 15.90207
1259.038, 23.21548
1259.520, 25.00296
1260.002, 4.727722
1260.484, 12.93640
1260.966, 9.827423
1261.448, 6.257660
1261.930, 18.58438
1262.413, 1.634033
1262.895, 13.73309
1263.377, 14.26529
1263.859, 20.11261
1264.341, 14.48700
1264.823, 12.42270
1265.305, 21.86322
1265.787, 24.96146
1266.270, 18.08569
1266.752, 24.38232
1267.234, 7.229401
1267.716, 10.72394
1268.198, 23.14520
1268.680, 19.59625
1269.162, 21.52884
1269.644, 20.10419
1270.126, 16.37549
1270.609, 10.74506
1271.091, 7.406982
1271.573, 11.36905
1272.055, 16.54556
1272.537, 9.928894
1273.019, 0.1737980
1273.501, 0.6282960
1273.983, 0.0000000E+00
##END=



