##NAMES=Kolarite
##RRUFFID=R070677
##IDEAL CHEMISTRY=PbTeCl_2_
##LOCALITY=Oktyabr'sky Mine, Noril'sk, Putoran Mts, Taymyrskiy Autonomous Okrug, Eastern-Siberian Region, Russia
##OWNER=RRUFF
##SOURCE=Michael Scott
##DESCRIPTION=Steel gray metallic massive polished fragment embedded in epoxy
##STATUS=The identification of this mineral is not yet confirmed.
##URL=rruff.info/R070677
145.8063, 0.0000000E+00
146.2884, 5.5420000E-02
146.7705, 14.49268
147.2527, 45.05310
147.7348, 60.24854
148.2169, 49.38330
148.6990, 39.00220
149.1811, 26.33740
149.6632, 28.29077
150.1454, 28.74219
150.6275, 22.52185
151.1096, 4.218628
151.5917, 3.327515
152.0738, 8.732056
152.5559, 29.42371
153.0381, 42.47534
153.5202, 33.92859
154.0023, 29.30115
154.4844, 37.57983
154.9665, 74.37372
155.4486, 99.74451
155.9308, 106.2015
156.4129, 97.69525
156.8950, 85.56091
157.3771, 67.20654
157.8592, 50.83826
158.3413, 36.47864
158.8235, 27.81378
159.3056, 23.22253
159.7877, 23.85724
160.2698, 29.00671
160.7519, 34.50482
161.2340, 41.54449
161.7162, 53.15564
162.1983, 58.57343
162.6804, 68.21326
163.1625, 77.19220
163.6446, 84.97375
164.1267, 92.40417
164.6089, 92.44421
165.0910, 73.71045
165.5731, 46.43262
166.0552, 25.49573
166.5373, 21.88306
167.0194, 24.35394
167.5016, 25.20398
167.9837, 23.05200
168.4658, 19.74927
168.9479, 12.01392
169.4300, 3.056335
169.9121, 2.283875
170.3943, 26.70782
170.8764, 57.58234
171.3585, 74.58344
171.8406, 65.53326
172.3227, 48.89240
172.8048, 38.16626
173.2870, 32.82544
173.7691, 31.35065
174.2512, 40.19037
174.7333, 52.20276
175.2154, 55.45929
175.6975, 36.30780
176.1797, 10.71265
176.6618, 5.568237
177.1439, 12.90955
177.6260, 10.65466
178.1081, 11.48645
178.5902, 45.65936
179.0724, 69.56573
179.5545, 66.34637
180.0366, 47.94550
180.5187, 33.83960
181.0008, 25.30646
181.4829, 20.08954
181.9651, 14.85608
182.4472, 9.227539
182.9293, 7.023621
183.4114, 15.40283
183.8935, 30.18121
184.3756, 38.13544
184.8578, 34.64172
185.3399, 28.31030
185.8220, 34.92896
186.3041, 54.21704
186.7862, 72.43134
187.2683, 77.52673
187.7504, 72.00604
188.2326, 68.07587
188.7147, 69.57776
189.1968, 73.67468
189.6789, 72.35583
190.1610, 64.72516
190.6431, 57.85400
191.1253, 61.18280
191.6074, 73.76404
192.0895, 82.94336
192.5716, 82.58966
193.0537, 75.44061
193.5358, 74.44482
194.0180, 81.45013
194.5001, 88.41492
194.9822, 82.66309
195.4643, 64.01807
195.9464, 47.45111
196.4285, 39.57715
196.9107, 40.46228
197.3928, 43.00726
197.8749, 48.32147
198.3570, 52.47986
198.8391, 45.74866
199.3212, 26.21399
199.8034, 11.02527
200.2855, 11.33075
200.7676, 28.58856
201.2497, 43.81622
201.7318, 56.84399
202.2139, 66.06787
202.6961, 65.96497
203.1782, 52.13904
203.6603, 37.94751
204.1424, 36.42120
204.6245, 50.51501
205.1066, 57.00470
205.5888, 50.32416
206.0709, 33.88141
206.5530, 24.08655
207.0351, 22.17340
207.5172, 24.59833
207.9993, 30.54944
208.4815, 41.48969
208.9636, 50.30878
209.4457, 55.39087
209.9278, 57.57355
210.4099, 55.03003
210.8920, 44.67065
211.3742, 34.25061
211.8563, 33.38385
212.3384, 46.80286
212.8205, 55.76672
213.3026, 53.04028
213.7847, 36.98419
214.2669, 29.22772
214.7490, 32.86890
215.2311, 41.71283
215.7132, 46.73535
216.1953, 48.45441
216.6774, 45.37750
217.1596, 34.49194
217.6417, 11.61383
218.1238, 0.1263430
218.6059, 1.950562
219.0880, 13.72632
219.5701, 27.62659
220.0523, 47.93970
220.5344, 63.00366
221.0165, 65.56787
221.4986, 48.75598
221.9807, 39.46057
222.4628, 41.80713
222.9450, 51.36163
223.4271, 52.01880
223.9092, 37.18683
224.3913, 23.78271
224.8734, 22.76709
225.3555, 41.44788
225.8377, 55.08820
226.3198, 61.62286
226.8019, 61.60864
227.2840, 58.64606
227.7661, 51.36578
228.2482, 43.50739
228.7303, 37.22504
229.2125, 32.50726
229.6946, 29.34265
230.1767, 27.77332
230.6588, 27.80414
231.1409, 29.97919
231.6230, 36.40216
232.1052, 42.69843
232.5873, 43.81042
233.0694, 33.66315
233.5515, 30.79315
234.0336, 42.97723
234.5157, 71.46527
234.9979, 82.56763
235.4800, 68.72736
235.9621, 46.00732
236.4442, 30.01447
236.9263, 21.03741
237.4084, 18.19397
237.8906, 23.27429
238.3727, 38.36212
238.8548, 46.87518
239.3369, 45.92035
239.8190, 40.53717
240.3011, 37.61713
240.7833, 38.62872
241.2654, 39.82208
241.7475, 39.60455
242.2296, 36.64539
242.7117, 37.36182
243.1938, 46.15649
243.6760, 56.39209
244.1581, 54.63794
244.6402, 30.59888
245.1223, 10.68085
245.6044, 6.244385
246.0865, 24.49231
246.5687, 34.85132
247.0508, 34.79556
247.5329, 27.96262
248.0150, 21.68723
248.4971, 13.80032
248.9792, 9.674469
249.4614, 13.13220
249.9435, 31.09235
250.4256, 39.70667
250.9077, 35.52631
251.3898, 22.56088
251.8719, 12.09930
252.3541, 3.679749
252.8362, 1.478424
253.3183, 2.270111
253.8004, 3.516296
254.2825, 7.984772
254.7646, 10.66986
255.2468, 11.87982
255.7289, 12.57220
256.2110, 12.29214
256.6931, 12.16547
257.1752, 13.48965
257.6573, 18.77927
258.1395, 18.69458
258.6216, 10.01102
259.1037, 4.952454
259.5858, 13.48349
260.0679, 13.89890
260.5500, 10.73990
261.0322, 6.839020
261.5143, 2.174377
261.9964, 3.269012
262.4785, 10.83948
262.9606, 19.55286
263.4427, 23.15714
263.9249, 19.21265
264.4070, 1.792572
264.8891, 16.48407
265.3712, 26.93536
265.8533, 30.00644
266.3354, 3.544189
266.8176, 15.25397
267.2997, 11.64252
267.7818, 7.436890
268.2639, 25.28491
268.7460, 4.440979
269.2281, 21.18192
269.7103, 22.23935
270.1924, 30.44888
270.6745, 23.26410
271.1566, 20.86105
271.6387, 33.80350
272.1208, 38.15128
272.6030, 29.09256
273.0851, 37.70828
273.5672, 14.87469
274.0493, 19.65991
274.5314, 36.30072
275.0135, 27.97656
275.4957, 36.63849
275.9778, 38.52200
276.4599, 10.89294
276.9420, 35.01917
277.4241, 36.91705
277.9063, 15.96539
278.3884, 38.40210
278.8705, 20.56287
279.3526, 17.08154
279.8347, 24.36996
280.3168, 20.38330
280.7990, 34.20374
281.2811, 30.88913
281.7632, 25.97992
282.2453, 27.68478
282.7274, 10.45389
283.2095, 28.39975
283.6917, 22.39563
284.1738, 28.30460
284.6559, 25.90372
285.1380, 25.22018
285.6201, 19.96826
286.1022, 11.75299
286.5844, 9.762299
287.0665, 15.00311
287.5486, 21.77072
288.0307, 22.18631
288.5128, 16.75146
288.9949, 13.99118
289.4771, 19.27914
289.9591, 29.85129
290.4413, 34.42285
290.9234, 32.39343
291.4055, 27.37140
291.8876, 21.60141
292.3697, 15.56042
292.8518, 12.83887
293.3340, 17.79465
293.8161, 26.95282
294.2982, 28.81656
294.7803, 22.62338
295.2624, 15.60071
295.7445, 17.06122
296.2267, 25.02997
296.7088, 30.74176
297.1909, 29.66785
297.6730, 24.07123
298.1551, 17.43448
298.6372, 9.353455
299.1194, 4.399628
299.6015, 10.61060
300.0836, 24.29379
300.5657, 34.98215
301.0478, 38.49808
301.5299, 36.21429
302.0121, 27.07184
302.4942, 10.34033
302.9763, 2.918640
303.4584, 1.248260
303.9405, 16.54007
304.4226, 28.91034
304.9048, 29.97424
305.3869, 26.02567
305.8690, 23.91888
306.3511, 23.76108
306.8332, 24.51480
307.3153, 25.33783
307.7975, 26.60025
308.2796, 28.70627
308.7617, 35.07272
309.2438, 40.26697
309.7259, 37.01395
310.2080, 24.92319
310.6902, 15.70334
311.1723, 21.83148
311.6544, 35.03326
312.1365, 43.38498
312.6186, 37.79178
313.1007, 29.24380
313.5829, 24.60403
314.0650, 24.13831
314.5471, 24.60263
315.0292, 24.65979
315.5113, 24.66180
315.9934, 24.94897
316.4756, 26.05655
316.9577, 26.58093
317.4398, 26.04379
317.9219, 24.96350
318.4040, 23.82935
318.8861, 24.76611
319.3683, 24.95868
319.8504, 21.63904
320.3325, 5.965790
320.8146, 5.920929
321.2967, 6.530548
321.7788, 4.607056
322.2610, 13.25085
322.7431, 14.41586
323.2252, 12.84265
323.7073, 12.50977
324.1894, 19.67691
324.6715, 22.21512
325.1537, 11.86853
325.6358, 10.68979
326.1179, 20.15710
326.6000, 0.3199770
327.0821, 26.12946
327.5642, 40.07175
328.0464, 28.09381
328.5285, 19.24414
329.0106, 17.93088
329.4927, 23.74969
329.9748, 26.14740
330.4569, 20.04166
330.9391, 14.55789
331.4212, 15.92145
331.9033, 34.29572
332.3854, 43.69391
332.8675, 37.93127
333.3496, 20.01080
333.8318, 8.724792
334.3139, 5.036255
334.7960, 6.913513
335.2781, 14.67407
335.7602, 33.42612
336.2423, 44.30368
336.7245, 42.01550
337.2066, 31.35394
337.6887, 30.57806
338.1708, 44.62857
338.6529, 57.75656
339.1350, 59.31635
339.6172, 46.46191
340.0993, 37.09528
340.5814, 32.78638
341.0635, 32.52237
341.5456, 34.72296
342.0277, 40.74527
342.5099, 43.05713
342.9920, 33.86981
343.4741, 13.08734
343.9562, 2.176361
344.4383, 4.378967
344.9204, 13.71634
345.4026, 20.24472
345.8847, 23.88809
346.3668, 25.57977
346.8489, 24.77261
347.3310, 22.20865
347.8131, 21.54352
348.2953, 23.37854
348.7774, 25.75571
349.2595, 23.97604
349.7416, 19.27423
350.2237, 19.12238
350.7058, 34.10843
351.1880, 55.06387
351.6701, 61.33484
352.1522, 50.61920
352.6343, 35.22025
353.1164, 24.79544
353.5985, 19.44641
354.0807, 19.45032
354.5628, 32.62418
355.0449, 47.24481
355.5270, 47.49927
356.0091, 32.32944
356.4912, 16.54544
356.9734, 10.74863
357.4555, 11.69870
357.9376, 14.40649
358.4197, 18.80228
358.9018, 22.78116
359.3839, 24.64395
359.8661, 24.38345
360.3482, 23.73270
360.8303, 23.05081
361.3124, 22.85394
361.7945, 22.91675
362.2766, 25.05527
362.7588, 25.42517
363.2409, 19.68774
363.7230, 9.040344
364.2051, 4.166199
364.6872, 17.21918
365.1693, 32.03052
365.6515, 37.37924
366.1336, 17.99469
366.6157, 3.505402
367.0978, 0.2734680
367.5799, 6.448456
368.0620, 13.17322
368.5442, 22.41193
369.0263, 30.05981
369.5084, 34.13544
369.9905, 33.55344
370.4726, 30.70563
370.9547, 23.49103
371.4369, 14.04999
371.9190, 8.498352
372.4011, 9.471710
372.8832, 10.97244
373.3653, 9.886780
373.8474, 2.872650
374.3295, 3.366943
374.8116, 16.02911
375.2938, 32.80954
375.7759, 37.30347
376.2580, 25.02246
376.7401, 13.25485
377.2222, 9.883972
377.7043, 15.72766
378.1865, 14.04034
378.6686, 1.677643
379.1507, 12.29202
379.6328, 14.65701
380.1149, 5.082947
380.5970, 3.912750
381.0792, 7.395844
381.5613, 6.810394
382.0434, 10.12421
382.5255, 17.89011
383.0076, 24.84915
383.4897, 24.48123
383.9719, 17.94354
384.4540, 11.03201
384.9361, 1.619629
385.4182, 7.128876
385.9003, 7.648712
386.3824, 0.5361630
386.8646, 7.413452
387.3467, 11.58453
387.8288, 12.96548
388.3109, 13.06104
388.7930, 12.02606
389.2751, 10.22647
389.7573, 7.301697
390.2394, 3.683777
390.7215, 1.125763
391.2036, 2.469421
391.6857, 4.242859
392.1678, 2.541626
392.6500, 5.567596
393.1321, 11.31513
393.6142, 7.787994
394.0963, 1.249481
394.5784, 8.378296
395.0605, 8.205719
395.5427, 7.652771
396.0248, 11.01599
396.5069, 20.61914
396.9890, 26.61969
397.4711, 24.06143
397.9532, 17.52084
398.4354, 12.81525
398.9175, 9.471680
399.3996, 9.239960
399.8817, 14.93100
400.3638, 27.85483
400.8459, 33.56946
401.3281, 26.85071
401.8102, 16.60297
402.2923, 10.35089
402.7744, 9.556793
403.2565, 10.11038
403.7386, 11.81424
404.2208, 14.49701
404.7029, 17.35376
405.1850, 21.37784
405.6671, 23.68890
406.1492, 21.45486
406.6313, 13.68576
407.1135, 7.508301
407.5956, 3.103302
408.0777, 1.139038
408.5598, 4.571716
409.0419, 13.93350
409.5240, 22.68106
410.0062, 27.24203
410.4883, 27.98474
410.9704, 26.16464
411.4525, 21.19116
411.9346, 16.08401
412.4167, 15.59595
412.8989, 18.79749
413.3810, 21.43369
413.8631, 20.84955
414.3452, 18.70535
414.8273, 17.83511
415.3094, 18.36185
415.7916, 18.48257
416.2737, 15.46985
416.7558, 11.29123
417.2379, 9.014984
417.7200, 11.57266
418.2021, 14.87418
418.6843, 15.64624
419.1664, 14.36414
419.6485, 13.99484
420.1306, 17.20636
420.6127, 21.26782
421.0948, 24.13544
421.5770, 26.14117
422.0591, 25.76700
422.5412, 19.79178
423.0233, 10.84296
423.5054, 6.245758
423.9875, 12.12247
424.4697, 18.54343
424.9518, 21.49875
425.4339, 18.97632
425.9160, 16.94601
426.3981, 12.76749
426.8802, 10.16235
427.3624, 15.04913
427.8445, 35.07681
428.3266, 50.54510
428.8087, 55.63251
429.2908, 50.01120
429.7729, 45.26724
430.2551, 41.67380
430.7372, 38.69083
431.2193, 35.83188
431.7014, 32.99243
432.1835, 30.35419
432.6656, 27.05243
433.1478, 24.47455
433.6299, 28.93549
434.1120, 40.99826
434.5941, 51.77203
435.0762, 55.99359
435.5583, 53.93323
436.0405, 44.77841
436.5226, 25.47879
437.0047, 6.447357
437.4868, 7.527100
437.9689, 24.20358
438.4510, 37.31845
438.9332, 30.26605
439.4153, 17.00861
439.8974, 15.79797
440.3795, 28.47003
440.8616, 42.57010
441.3438, 51.68430
441.8259, 56.10703
442.3080, 56.38409
442.7901, 48.32812
443.2722, 39.78772
443.7543, 33.86145
444.2365, 31.08704
444.7186, 32.10773
445.2007, 42.60156
445.6828, 53.52075
446.1649, 58.90274
446.6470, 51.27509
447.1292, 46.91486
447.6113, 49.20239
448.0934, 55.92331
448.5755, 61.04849
449.0576, 65.25604
449.5397, 67.04016
450.0219, 65.50571
450.5040, 59.56512
450.9861, 53.63562
451.4682, 48.14020
451.9503, 43.79468
452.4324, 38.22171
452.9146, 28.21924
453.3967, 27.75772
453.8788, 44.71124
454.3609, 74.19351
454.8430, 88.75610
455.3251, 87.02286
455.8072, 80.87044
456.2893, 80.07372
456.7715, 83.62791
457.2536, 86.38608
457.7357, 87.51389
458.2178, 87.79636
458.6999, 88.50461
459.1820, 89.39499
459.6642, 87.95023
460.1463, 78.14545
460.6284, 67.20917
461.1105, 65.03445
461.5926, 73.45807
462.0747, 84.30157
462.5569, 96.39011
463.0390, 105.9318
463.5211, 107.7989
464.0032, 89.68623
464.4853, 73.40656
464.9674, 70.96646
465.4496, 81.49316
465.9317, 89.30542
466.4138, 84.95206
466.8959, 80.16122
467.3780, 82.23636
467.8601, 104.9013
468.3423, 119.1086
468.8244, 119.9312
469.3065, 111.4794
469.7886, 105.3102
470.2707, 105.0891
470.7528, 103.3987
471.2350, 95.99303
471.7171, 81.12314
472.1992, 74.87030
472.6813, 80.53558
473.1634, 89.50522
473.6455, 93.91069
474.1277, 93.79456
474.6098, 88.46825
475.0919, 73.56351
475.5740, 55.15623
476.0561, 51.39816
476.5382, 61.95129
477.0204, 75.20572
477.5025, 82.58430
477.9846, 85.23581
478.4667, 84.50920
478.9488, 80.75441
479.4309, 73.33362
479.9131, 56.47751
480.3952, 35.23425
480.8773, 21.14595
481.3594, 25.42693
481.8415, 34.94571
482.3236, 41.69171
482.8058, 45.15208
483.2879, 45.30885
483.7700, 37.15518
484.2521, 28.08545
484.7342, 24.65707
485.2163, 34.79372
485.6985, 43.35536
486.1806, 49.46086
486.6627, 52.45969
487.1448, 49.44501
487.6269, 32.74260
488.1090, 18.69145
488.5912, 15.07333
489.0733, 26.36348
489.5554, 33.16692
490.0375, 34.69719
490.5196, 32.90114
491.0017, 29.55775
491.4839, 24.02641
491.9660, 21.25066
492.4481, 24.05525
492.9302, 30.52708
493.4123, 32.73761
493.8944, 30.89015
494.3766, 29.24644
494.8587, 31.04865
495.3408, 35.66260
495.8229, 42.90779
496.3050, 55.36514
496.7871, 63.85622
497.2693, 54.03139
497.7514, 32.18044
498.2335, 14.49770
498.7156, 11.21346
499.1977, 13.26103
499.6798, 13.55289
500.1620, 11.37523
500.6441, 12.61189
501.1262, 25.86800
501.6083, 40.48900
502.0904, 47.20518
502.5725, 37.83258
503.0547, 27.58943
503.5368, 15.85712
504.0189, 4.363312
504.5010, 3.6635999E-02
504.9831, 9.060577
505.4652, 17.42729
505.9474, 17.82674
506.4295, 6.205292
506.9116, 7.691116
507.3937, 29.85240
507.8758, 53.64182
508.3579, 50.12692
508.8401, 16.21085
509.3222, 8.110931
509.8043, 10.20497
510.2864, 2.547699
510.7685, 10.58318
511.2506, 14.00114
511.7328, 15.46416
512.2148, 16.36601
512.6970, 16.73730
513.1791, 16.92369
513.6612, 17.25835
514.1433, 16.22472
514.6254, 8.740295
515.1075, 0.6266170
515.5897, 3.597000
516.0718, 11.52654
516.5539, 26.87489
517.0360, 32.78049
517.5181, 29.33269
518.0002, 23.47200
518.4824, 13.40660
518.9645, 4.024979
519.4466, 1.599091
519.9287, 3.037552
520.4108, 0.5071110
520.8929, 9.892868
521.3751, 22.88370
521.8572, 27.35838
522.3393, 18.95950
522.8214, 11.58012
523.3035, 10.84682
523.7856, 16.33476
524.2678, 15.16541
524.7499, 5.981827
525.2320, 4.532303
525.7141, 12.24179
526.1962, 16.61540
526.6783, 12.22156
527.1605, 4.755234
527.6426, 25.19225
528.1247, 38.17133
528.6068, 43.62256
529.0889, 42.21883
529.5710, 27.11717
530.0532, 4.703979
530.5353, 13.10173
531.0174, 23.08398
531.4995, 25.66344
531.9816, 1.311768
532.4637, 9.876389
532.9459, 5.760498
533.4280, 1.015656
533.9101, 17.60455
534.3922, 4.992981
534.8743, 11.22414
535.3564, 11.89885
535.8386, 19.68257
536.3207, 12.06796
536.8028, 9.207718
537.2849, 21.74792
537.7670, 25.75876
538.2491, 16.36636
538.7313, 24.59393
539.2134, 1.336349
539.6955, 5.703873
540.1776, 21.98975
540.6597, 13.36334
541.1418, 18.68117
541.6240, 21.34984
542.1061, 16.69279
542.5882, 11.18430
543.0703, 8.365173
543.5524, 7.201889
544.0345, 5.574142
544.5167, 3.158920
544.9988, 3.107254
545.4809, 10.44536
545.9630, 20.36192
546.4451, 27.43930
546.9272, 27.90961
547.4094, 26.85663
547.8915, 26.68295
548.3736, 26.47694
548.8557, 23.06815
549.3378, 8.812408
549.8199, 1.958359
550.3021, 3.130661
550.7842, 8.479095
551.2663, 17.72578
551.7484, 23.14349
552.2305, 26.45250
552.7126, 28.29736
553.1948, 28.50677
553.6769, 28.55089
554.1590, 29.12576
554.6411, 29.21494
555.1232, 25.02469
555.6053, 16.84633
556.0875, 10.75520
556.5696, 10.34477
557.0517, 14.23795
557.5338, 21.83394
558.0159, 33.35397
558.4980, 42.30978
558.9802, 43.17805
559.4623, 38.70224
559.9444, 32.13565
560.4265, 20.39005
560.9086, 11.83955
561.3907, 12.41049
561.8729, 18.85286
562.3550, 22.43622
562.8371, 18.58466
563.3192, 14.46280
563.8013, 11.77896
564.2834, 10.12210
564.7656, 13.57784
565.2477, 27.30492
565.7298, 39.48643
566.2119, 37.69534
566.6940, 18.38541
567.1761, 5.740280
567.6583, 4.581451
568.1404, 10.64180
568.6225, 13.80438
569.1046, 14.29118
569.5867, 14.92070
570.0688, 18.30870
570.5510, 22.28436
571.0331, 21.72455
571.5152, 16.85902
571.9973, 14.06630
572.4794, 21.66341
572.9615, 31.79337
573.4437, 35.65895
573.9258, 28.29292
574.4079, 21.84526
574.8900, 23.13962
575.3721, 28.08354
575.8542, 29.45531
576.3364, 20.14941
576.8185, 13.66168
577.3006, 13.36330
577.7827, 19.14145
578.2648, 25.53812
578.7469, 33.86362
579.2291, 40.26863
579.7112, 41.70503
580.1933, 37.88939
580.6754, 33.41124
581.1575, 28.03082
581.6396, 23.28352
582.1218, 21.95528
582.6039, 23.32071
583.0860, 23.66412
583.5681, 20.88519
584.0502, 17.39937
584.5323, 17.43726
585.0145, 20.75420
585.4966, 22.48853
585.9787, 16.77454
586.4608, 11.03717
586.9429, 12.36209
587.4250, 24.28180
587.9072, 30.82217
588.3893, 23.16420
588.8714, 11.37480
589.3535, 6.590118
589.8356, 17.08424
590.3177, 21.98961
590.7999, 15.55861
591.2820, 2.707977
591.7641, 0.2927250
592.2462, 8.665848
592.7283, 17.63237
593.2104, 19.66722
593.6926, 15.91487
594.1747, 14.77966
594.6568, 16.42630
595.1389, 18.74380
595.6210, 19.25156
596.1031, 19.04628
596.5853, 21.13010
597.0674, 27.88362
597.5495, 32.43898
598.0316, 25.18224
598.5137, 11.95534
598.9958, 3.833511
599.4780, 10.73259
599.9601, 17.73207
600.4422, 18.00403
600.9243, 11.70598
601.4064, 8.215759
601.8885, 11.80774
602.3707, 14.82045
602.8528, 12.71346
603.3349, 2.537521
603.8170, 1.926788
604.2991, 0.4422450
604.7813, 6.598801
605.2634, 15.03529
605.7455, 25.52596
606.2276, 29.55029
606.7097, 23.71921
607.1918, 12.27690
607.6740, 7.5882003E-02
608.1561, 10.96062
608.6382, 13.80777
609.1203, 3.064072
609.6024, 24.06435
610.0845, 33.61592
610.5667, 30.39868
611.0488, 25.89333
611.5309, 24.08748
612.0130, 23.62823
612.4951, 23.45351
612.9772, 23.87379
613.4594, 23.85172
613.9415, 22.34492
614.4236, 20.76361
614.9057, 22.02577
615.3878, 27.97162
615.8699, 31.64624
616.3521, 30.65869
616.8342, 26.01137
617.3163, 22.21011
617.7984, 19.27896
618.2805, 16.74651
618.7626, 14.09946
619.2448, 11.64778
619.7269, 10.28038
620.2090, 10.15666
620.6911, 9.994904
621.1732, 7.113007
621.6553, 4.132797
622.1375, 4.595428
622.6196, 13.64221
623.1017, 21.05853
623.5838, 23.23387
624.0659, 21.31407
624.5480, 18.08809
625.0302, 9.859680
625.5123, 5.042572
625.9944, 7.643463
626.4765, 17.26485
626.9586, 20.15952
627.4407, 14.01622
627.9229, 7.477783
628.4050, 8.114517
628.8871, 15.02962
629.3692, 17.33440
629.8513, 13.41151
630.3334, 8.401611
630.8156, 7.674774
631.2977, 10.21581
631.7798, 14.03526
632.2619, 20.77542
632.7440, 25.72540
633.2261, 23.21581
633.7083, 15.97397
634.1904, 12.01738
634.6725, 19.01250
635.1546, 24.99257
635.6367, 23.97340
636.1188, 14.70441
636.6010, 9.510208
637.0831, 9.207581
637.5652, 11.85396
638.0473, 17.46414
638.5294, 27.12352
639.0115, 31.19897
639.4937, 27.95352
639.9758, 22.12959
640.4579, 19.76402
640.9400, 20.44629
641.4221, 22.38397
641.9042, 26.28607
642.3864, 29.84164
642.8685, 28.30722
643.3506, 23.17117
643.8327, 20.30045
644.3148, 25.74757
644.7969, 31.42343
645.2791, 32.73946
645.7612, 29.12296
646.2433, 24.48514
646.7254, 17.48456
647.2075, 11.15222
647.6896, 7.115967
648.1718, 5.056320
648.6539, 6.807678
649.1360, 14.64346
649.6181, 22.70607
650.1002, 21.75993
650.5823, 12.13869
651.0645, 4.338699
651.5466, 1.189804
652.0287, 1.068008
652.5108, 1.917679
652.9929, 3.645462
653.4750, 6.115662
653.9572, 9.348190
654.4393, 12.34972
654.9214, 14.43289
655.4035, 15.54628
655.8856, 15.95059
656.3677, 16.02727
656.8499, 15.16574
657.3320, 12.58792
657.8141, 5.983734
658.2962, 3.803055
658.7783, 8.422211
659.2604, 14.80013
659.7426, 15.51968
660.2246, 10.06024
660.7067, 7.253601
661.1888, 9.674774
661.6710, 14.09053
662.1531, 16.55185
662.6352, 16.68874
663.1173, 13.33600
663.5994, 1.407547
664.0815, 14.75975
664.5637, 11.13567
665.0458, 7.396927
665.5279, 21.15286
666.0100, 17.42673
666.4921, 9.548920
666.9742, 5.846558
667.4564, 7.371445
667.9385, 8.408066
668.4206, 8.458679
668.9027, 8.527496
669.3848, 10.34927
669.8669, 14.59842
670.3491, 15.97875
670.8312, 13.18622
671.3133, 8.605911
671.7954, 5.791199
672.2775, 4.619568
672.7596, 4.482513
673.2418, 4.212128
673.7239, 5.651855
674.2060, 13.10786
674.6881, 24.62039
675.1702, 32.67033
675.6523, 31.56749
676.1345, 27.93727
676.6166, 24.27156
677.0987, 20.31396
677.5808, 20.33369
678.0629, 29.00923
678.5450, 36.73961
679.0272, 36.15930
679.5093, 24.69150
679.9914, 18.10373
680.4735, 18.29373
680.9556, 20.37350
681.4377, 16.92131
681.9199, 9.395874
682.4020, 4.832581
682.8841, 5.505814
683.3662, 9.149536
683.8483, 15.98793
684.3304, 23.90869
684.8126, 28.14523
685.2947, 24.31042
685.7768, 18.44379
686.2589, 10.86449
686.7410, 2.209656
687.2231, 0.7279660
687.7053, 14.43044
688.1874, 25.82977
688.6695, 25.72096
689.1516, 12.44891
689.6337, 7.288956
690.1158, 12.04533
690.5980, 18.15862
691.0801, 15.52876
691.5622, 7.032806
692.0443, 5.233017
692.5264, 13.40736
693.0085, 22.54300
693.4907, 23.46611
693.9728, 19.76831
694.4549, 17.18747
694.9370, 20.72572
695.4191, 22.47615
695.9012, 17.55406
696.3834, 8.684845
696.8655, 4.112030
697.3476, 7.719803
697.8297, 10.16638
698.3118, 8.485672
698.7939, 3.353333
699.2761, 0.9164430
699.7582, 4.795639
700.2403, 4.591843
700.7224, 6.523651
701.2045, 23.13519
701.6866, 28.30315
702.1688, 21.29112
702.6509, 14.24892
703.1330, 18.71895
703.6151, 26.98347
704.0972, 30.75986
704.5793, 26.56395
705.0615, 22.25845
705.5436, 19.50345
706.0257, 18.59924
706.5078, 19.31598
706.9899, 23.89113
707.4720, 25.52754
707.9542, 22.04967
708.4363, 16.42540
708.9184, 16.44559
709.4005, 22.20447
709.8826, 23.47382
710.3647, 11.22626
710.8469, 4.168732
711.3290, 0.6507570
711.8111, 17.76807
712.2932, 32.80083
712.7753, 30.62621
713.2574, 23.95915
713.7396, 22.06270
714.2217, 26.11429
714.7038, 26.61972
715.1859, 17.46080
715.6680, 7.808395
716.1501, 1.554550
716.6323, 2.224167
717.1144, 2.760788
717.5965, 20.22775
718.0786, 37.77147
718.5607, 39.51294
719.0428, 28.19994
719.5250, 20.41864
720.0071, 19.64458
720.4892, 22.07811
720.9713, 24.41290
721.4534, 26.83853
721.9355, 29.12175
722.4177, 34.77644
722.8998, 39.53568
723.3819, 42.30144
723.8640, 42.24576
724.3461, 36.22168
724.8282, 17.72809
725.3104, 3.324875
725.7925, 1.769104
726.2746, 1.169113
726.7567, 4.202667
727.2388, 7.375488
727.7209, 9.919922
728.2031, 10.80441
728.6852, 10.84680
729.1673, 12.22813
729.6494, 14.96385
730.1315, 17.17313
730.6136, 16.63486
731.0958, 15.49510
731.5779, 15.61499
732.0600, 17.58557
732.5421, 19.88988
733.0242, 22.73270
733.5063, 25.48662
733.9885, 27.83858
734.4706, 30.25238
734.9527, 30.23505
735.4348, 26.57855
735.9169, 22.29546
736.3990, 22.57860
736.8812, 26.71896
737.3633, 30.82967
737.8454, 34.16081
738.3275, 36.30379
738.8096, 36.45282
739.2917, 35.12180
739.7739, 33.51035
740.2560, 33.87283
740.7381, 32.25917
741.2202, 24.54779
741.7023, 12.14285
742.1844, 6.985992
742.6666, 12.99664
743.1487, 19.11325
743.6308, 20.81177
744.1129, 18.59561
744.5950, 17.44524
745.0771, 17.35327
745.5593, 18.34299
746.0414, 21.64253
746.5235, 25.55243
747.0056, 27.37640
747.4877, 26.85234
747.9698, 24.73140
748.4520, 19.75261
748.9341, 14.38892
749.4162, 10.60689
749.8983, 8.322357
750.3804, 8.707367
750.8625, 13.23709
751.3447, 18.98245
751.8268, 23.19713
752.3089, 25.91792
752.7910, 25.99245
753.2731, 22.31720
753.7552, 18.24077
754.2374, 20.30293
754.7195, 26.25363
755.2016, 29.77399
755.6837, 27.44678
756.1658, 22.83739
756.6479, 17.20082
757.1301, 11.07181
757.6122, 5.845505
758.0943, 0.9097290
758.5764, 2.530136
759.0585, 4.735916
759.5406, 18.37393
760.0228, 25.10701
760.5049, 24.07262
760.9870, 20.46115
761.4691, 16.39632
761.9512, 11.64830
762.4333, 3.824509
762.9155, 6.442276
763.3976, 12.85442
763.8797, 6.899353
764.3618, 2.216888
764.8439, 4.959045
765.3260, 2.9800000E-02
765.8082, 1.761200
766.2903, 6.815674
766.7724, 16.09309
767.2545, 19.85130
767.7366, 15.20439
768.2188, 16.69264
768.7009, 26.66679
769.1830, 36.61887
769.6651, 36.95233
770.1472, 29.22920
770.6293, 20.05571
771.1115, 9.299149
771.5936, 2.117844
772.0757, 7.912643
772.5578, 18.77025
773.0399, 23.45352
773.5220, 13.69328
774.0042, 5.794418
774.4863, 5.678375
774.9684, 9.765427
775.4505, 12.31587
775.9326, 13.11665
776.4147, 12.79024
776.8969, 11.06703
777.3790, 8.721359
777.8611, 7.369049
778.3432, 6.914276
778.8253, 6.775101
779.3074, 6.658188
779.7896, 6.820236
780.2717, 7.687988
780.7538, 9.073822
781.2359, 10.41336
781.7180, 10.21532
782.2001, 11.24985
782.6823, 17.22639
783.1644, 26.29198
783.6465, 26.46915
784.1286, 13.53398
784.6107, 3.535782
785.0928, 4.867172
785.5750, 14.49097
786.0571, 17.72638
786.5392, 14.85487
787.0213, 11.92281
787.5034, 14.61731
787.9855, 18.48032
788.4677, 18.61615
788.9498, 14.64845
789.4319, 10.43167
789.9140, 6.070480
790.3961, 2.908966
790.8782, 1.603149
791.3604, 2.199310
791.8425, 4.562714
792.3246, 9.030243
792.8067, 14.31090
793.2888, 21.50807
793.7709, 29.12817
794.2531, 27.13161
794.7352, 13.43250
795.2173, 0.4698490
795.6994, 0.9992980
796.1815, 7.837250
796.6636, 12.95958
797.1458, 14.49246
797.6279, 14.74519
798.1100, 12.01341
798.5921, 9.593445
799.0742, 11.41344
799.5563, 19.63579
800.0385, 24.15448
800.5206, 23.39311
801.0027, 20.26245
801.4848, 19.36394
801.9669, 19.48694
802.4490, 18.32352
802.9312, 14.70152
803.4133, 10.69087
803.8954, 7.222977
804.3775, 4.831543
804.8596, 3.943954
805.3417, 5.150375
805.8239, 7.122482
806.3060, 10.26331
806.7881, 13.71268
807.2702, 15.62563
807.7523, 15.87231
808.2344, 15.14828
808.7166, 12.68448
809.1987, 10.60048
809.6808, 15.45537
810.1629, 24.72356
810.6450, 29.60596
811.1271, 20.51414
811.6093, 10.62032
812.0914, 8.866776
812.5735, 1.168747
813.0556, 16.67253
813.5377, 26.69160
814.0198, 29.30878
814.5020, 2.355194
814.9841, 13.58575
815.4662, 9.514862
815.9483, 4.780853
816.4304, 21.26314
816.9125, 1.388107
817.3947, 14.88762
817.8768, 15.64993
818.3589, 23.49460
818.8410, 15.93903
819.3231, 13.13876
819.8052, 25.74034
820.2874, 29.81337
820.7695, 20.10823
821.2516, 27.62163
821.7337, 4.024490
822.2158, 8.460037
822.6979, 24.81554
823.1801, 16.25349
823.6622, 24.74362
824.1443, 26.79439
824.6263, 0.8018950
825.1085, 23.16022
825.5906, 24.82445
826.0727, 3.593826
826.5548, 25.78998
827.0369, 7.716812
827.5190, 4.017212
828.0012, 11.13449
828.4833, 6.975220
828.9654, 20.59828
829.4475, 17.08975
829.9296, 12.05081
830.4117, 13.68991
830.8939, 3.595093
831.3760, 14.22513
831.8581, 8.063889
832.3402, 13.82364
832.8223, 22.28519
833.3044, 6.887833
833.7866, 5.380295
834.2687, 7.029434
834.7508, 13.59436
835.2329, 16.95457
835.7150, 15.09360
836.1971, 11.64148
836.6793, 8.819550
837.1614, 6.621796
837.6435, 5.499207
838.1256, 5.653351
838.6077, 5.780640
839.0898, 4.398972
839.5720, 2.528061
840.0541, 1.380157
840.5362, 0.8896480
841.0183, 2.7054001E-02
841.5004, 4.225288
841.9825, 6.596909
842.4647, 2.066986
842.9468, 14.95447
843.4289, 23.87061
843.9110, 22.92723
844.3931, 17.73616
844.8752, 11.86351
845.3574, 6.305862
845.8395, 6.704987
846.3216, 14.36723
846.8037, 23.73312
847.2858, 34.04506
847.7679, 41.47807
848.2501, 40.67717
848.7322, 25.01169
849.2143, 13.98743
849.6964, 12.74648
850.1785, 14.45583
850.6606, 12.17314
851.1428, 4.807846
851.6249, 3.770325
852.1070, 11.27278
852.5891, 19.75255
853.0712, 19.09743
853.5533, 13.62111
854.0355, 11.29439
854.5176, 14.46423
854.9997, 18.83109
855.4818, 22.94377
855.9639, 26.93155
856.4460, 31.48340
856.9282, 41.16170
857.4103, 39.82228
857.8924, 22.67680
858.3745, 2.996597
858.8566, 3.329033
859.3387, 1.593369
859.8209, 8.892517
860.3030, 18.31274
860.7851, 23.88026
861.2672, 12.87085
861.7493, 1.146469
862.2314, 1.774323
862.7136, 27.51411
863.1957, 45.93433
863.6778, 47.43349
864.1599, 39.94499
864.6420, 28.86755
865.1241, 13.63496
865.6063, 6.362991
866.0884, 9.459091
866.5705, 15.70572
867.0526, 17.70422
867.5347, 17.14485
868.0168, 16.83601
868.4990, 17.60562
868.9811, 18.06326
869.4632, 17.74626
869.9453, 16.81100
870.4274, 15.16713
870.9095, 12.27235
871.3917, 10.94981
871.8738, 11.27910
872.3559, 13.23480
872.8380, 19.74197
873.3201, 27.89230
873.8022, 27.47343
874.2844, 15.18269
874.7665, 3.337219
875.2486, 1.846466
875.7307, 4.850342
876.2128, 7.127396
876.6949, 6.530380
877.1771, 8.130310
877.6592, 13.12372
878.1413, 18.61969
878.6234, 22.02861
879.1055, 23.42546
879.5876, 23.12730
880.0698, 20.90198
880.5519, 19.30376
881.0340, 21.35651
881.5161, 24.82707
881.9982, 29.08385
882.4803, 35.20299
882.9625, 37.51958
883.4446, 32.55183
883.9267, 25.53110
884.4088, 19.61617
884.8909, 14.83002
885.3730, 10.63927
885.8552, 6.801712
886.3373, 4.965149
886.8194, 8.379227
887.3015, 14.09430
887.7836, 17.16547
888.2657, 16.69502
888.7479, 16.57828
889.2300, 21.20764
889.7121, 25.33449
890.1942, 24.81064
890.6763, 18.08369
891.1584, 16.77147
891.6406, 22.41211
892.1227, 27.79576
892.6048, 25.59393
893.0869, 19.02029
893.5690, 16.80005
894.0511, 19.35710
894.5333, 22.11865
895.0154, 24.68681
895.4975, 24.59146
895.9796, 18.87344
896.4617, 6.181595
896.9438, 2.844391
897.4260, 8.930481
897.9081, 10.20493
898.3902, 2.289589
898.8723, 11.71094
899.3544, 14.24060
899.8365, 6.712631
900.3187, 1.413300
900.8008, 8.891251
901.2829, 19.45818
901.7650, 25.40643
902.2471, 26.53813
902.7292, 26.91263
903.2114, 25.90923
903.6935, 26.07446
904.1756, 29.28560
904.6577, 34.44829
905.1398, 34.90169
905.6219, 30.86252
906.1041, 26.41228
906.5862, 23.09019
907.0683, 21.09634
907.5504, 20.51692
908.0325, 21.40396
908.5146, 23.98901
908.9968, 32.34486
909.4789, 37.43178
909.9610, 35.93558
910.4431, 30.04453
910.9252, 28.13857
911.4073, 30.28690
911.8895, 30.20667
912.3716, 23.11360
912.8537, 15.40941
913.3358, 17.89737
913.8179, 26.29521
914.3000, 30.72272
914.7822, 21.29309
915.2643, 15.30875
915.7464, 19.57666
916.2285, 28.41621
916.7106, 30.07886
917.1927, 24.22020
917.6749, 21.04753
918.1570, 22.51479
918.6391, 25.83054
919.1212, 28.60275
919.6033, 30.28741
920.0854, 30.42764
920.5676, 29.00014
921.0497, 26.22276
921.5318, 19.09901
922.0139, 12.47110
922.4960, 12.68294
922.9781, 21.87613
923.4603, 27.35205
923.9424, 27.70084
924.4245, 25.02255
924.9066, 19.95525
925.3887, 14.24602
925.8708, 5.701431
926.3530, 12.92755
926.8351, 17.13231
927.3172, 18.47823
927.7993, 8.403549
928.2814, 13.07574
928.7635, 11.83771
929.2457, 10.35710
929.7278, 17.10362
930.2099, 8.688675
930.6920, 15.30409
931.1741, 15.91901
931.6563, 23.09178
932.1384, 9.633881
932.6205, 0.1615750
933.1026, 12.37048
933.5847, 27.47221
934.0668, 32.33629
934.5490, 26.70151
935.0311, 24.30922
935.5132, 25.50458
935.9953, 28.74571
936.4774, 37.50844
936.9595, 46.23973
937.4417, 36.60876
937.9238, 12.86456
938.4059, 4.098167
938.8880, 3.997253
939.3701, 14.49306
939.8522, 15.12384
940.3344, 8.623840
940.8165, 6.855057
941.2986, 11.23366
941.7807, 15.15854
942.2628, 16.57283
942.7449, 16.45500
943.2271, 16.77560
943.7092, 17.19241
944.1913, 16.75821
944.6734, 14.32333
945.1555, 11.83591
945.6376, 8.377899
946.1198, 6.026917
946.6019, 8.947021
947.0840, 19.81917
947.5661, 26.15733
948.0482, 25.73317
948.5303, 22.02206
949.0125, 18.48143
949.4946, 15.50023
949.9767, 13.26903
950.4588, 10.57568
950.9409, 13.00183
951.4230, 32.43835
951.9052, 51.81136
952.3873, 55.31725
952.8694, 37.43326
953.3515, 22.00406
953.8336, 8.325165
954.3157, 0.5479740
954.7979, 8.293106
955.2800, 22.18529
955.7621, 23.21252
956.2442, 10.70714
956.7263, 0.5976100
957.2084, 7.916000
957.6906, 8.159348
958.1727, 4.865204
958.6548, 29.64497
959.1369, 35.61862
959.6190, 19.46066
960.1011, 5.939606
960.5833, 12.53624
961.0654, 27.34816
961.5475, 28.64609
962.0296, 19.94495
962.5117, 13.63081
962.9938, 19.72339
963.4760, 23.66180
963.9581, 18.72556
964.4402, 8.983337
964.9223, 3.501648
965.4044, 2.573029
965.8865, 3.346558
966.3687, 5.394455
966.8508, 8.155716
967.3329, 12.41309
967.8150, 16.48914
968.2971, 17.38936
968.7792, 11.54895
969.2614, 6.968155
969.7435, 5.587738
970.2256, 5.880234
970.7077, 6.617432
971.1898, 7.798447
971.6719, 9.158646
972.1541, 10.58771
972.6362, 12.96646
973.1183, 21.69286
973.6004, 29.17520
974.0825, 24.25194
974.5646, 3.611511
975.0468, 10.42120
975.5289, 11.08153
976.0110, 7.882278
976.4931, 4.641281
976.9752, 1.202087
977.4573, 4.631424
977.9395, 12.57018
978.4216, 17.49237
978.9037, 13.93671
979.3858, 8.070404
979.8679, 3.513733
980.3500, 0.8865050
980.8322, 2.628250
981.3143, 14.25284
981.7964, 20.82477
982.2785, 17.90215
982.7606, 10.12376
983.2427, 7.214737
983.7249, 8.226517
984.2070, 8.931793
984.6891, 8.020309
985.1712, 6.524490
985.6533, 4.426971
986.1354, 2.474518
986.6176, 1.663116
987.0997, 2.199310
987.5818, 3.701630
988.0639, 6.765564
988.5460, 9.263428
989.0281, 8.391800
989.5102, 5.468185
989.9923, 3.867126
990.4744, 3.746185
990.9565, 4.317413
991.4387, 5.248062
991.9208, 6.183960
992.4029, 6.856033
992.8850, 7.285690
993.3671, 8.279404
993.8492, 10.13107
994.3314, 10.70906
994.8135, 7.139526
995.2956, 3.119583
995.7777, 6.395233
996.2598, 14.15071
996.7419, 20.28288
997.2241, 20.24220
997.7062, 19.72008
998.1883, 20.66559
998.6704, 21.65482
999.1525, 19.79991
999.6346, 15.10457
1000.117, 10.66129
1000.599, 6.827560
1001.081, 4.260727
1001.563, 3.910751
1002.045, 5.048584
1002.527, 7.208084
1003.009, 11.66919
1003.492, 12.56378
1003.974, 6.265869
1004.456, 1.527252
1004.938, 7.118835
1005.420, 20.69154
1005.902, 22.67438
1006.384, 13.79141
1006.866, 9.269089
1007.349, 29.51309
1007.831, 48.16554
1008.313, 43.40561
1008.795, 18.79124
1009.277, 6.425018
1009.759, 10.47404
1010.241, 15.69804
1010.723, 17.66928
1011.205, 18.67050
1011.688, 24.54008
1012.170, 32.77841
1012.652, 37.13527
1013.134, 34.19495
1013.616, 29.08591
1014.098, 21.42169
1014.580, 13.82622
1015.062, 8.294022
1015.544, 5.114227
1016.027, 6.025833
1016.509, 10.97008
1016.991, 16.25160
1017.473, 19.60484
1017.955, 20.65617
1018.437, 17.29787
1018.919, 9.356323
1019.401, 5.986847
1019.884, 13.39246
1020.366, 19.36705
1020.848, 18.43607
1021.330, 13.10057
1021.812, 15.16458
1022.294, 23.22421
1022.776, 27.67825
1023.258, 18.42030
1023.740, 10.75896
1024.223, 18.84235
1024.705, 34.35065
1025.187, 41.50349
1025.669, 36.68173
1026.151, 31.20143
1026.633, 25.43184
1027.115, 20.89606
1027.597, 20.16563
1028.080, 21.85893
1028.562, 23.31256
1029.044, 24.18318
1029.526, 24.38948
1030.008, 22.43137
1030.490, 21.26067
1030.972, 22.77483
1031.454, 26.73872
1031.937, 29.28568
1032.419, 30.38698
1032.901, 30.00969
1033.383, 27.54863
1033.865, 25.87737
1034.347, 29.78566
1034.829, 36.48470
1035.311, 38.62804
1035.793, 29.92474
1036.276, 24.35721
1036.758, 24.24304
1037.240, 26.60446
1037.722, 27.38097
1038.204, 26.99863
1038.686, 26.99756
1039.168, 27.73077
1039.650, 28.23027
1040.132, 26.18633
1040.615, 25.85353
1041.097, 30.53012
1041.579, 40.81200
1042.061, 45.97726
1042.543, 45.75905
1043.025, 42.10992
1043.507, 33.26543
1043.989, 23.67416
1044.472, 18.69576
1044.954, 17.98822
1045.436, 20.51218
1045.918, 31.95410
1046.400, 38.92471
1046.882, 37.63037
1047.364, 33.03111
1047.846, 33.26906
1048.328, 37.65103
1048.811, 42.50862
1049.293, 48.00993
1049.775, 49.95818
1050.257, 42.37152
1050.739, 31.95100
1051.221, 23.92036
1051.703, 18.49106
1052.185, 16.24913
1052.667, 17.49251
1053.150, 20.72398
1053.632, 27.93974
1054.114, 34.81750
1054.596, 31.01572
1055.078, 20.24393
1055.560, 14.00995
1056.042, 21.45197
1056.524, 27.49843
1057.007, 29.73973
1057.489, 28.81702
1057.971, 23.82883
1058.453, 15.69861
1058.935, 12.98305
1059.417, 17.70309
1059.899, 23.28844
1060.381, 25.84489
1060.864, 26.21870
1061.346, 24.01247
1061.828, 18.71700
1062.310, 19.00121
1062.792, 26.99109
1063.274, 31.10539
1063.756, 22.02563
1064.238, 7.629196
1064.720, 1.641022
1065.203, 2.194427
1065.685, 4.357895
1066.167, 5.398453
1066.649, 9.802933
1067.131, 22.13495
1067.613, 33.86816
1068.095, 30.72220
1068.577, 15.00896
1069.059, 5.001526
1069.542, 3.288269
1070.024, 4.669662
1070.506, 8.697815
1070.988, 11.60544
1071.470, 8.916641
1071.952, 0.6795960
1072.434, 2.225006
1072.916, 1.173691
1073.398, 5.832428
1073.881, 10.09802
1074.363, 14.01625
1074.845, 18.33960
1075.327, 22.12154
1075.809, 23.28931
1076.291, 17.98367
1076.773, 14.73027
1077.255, 15.85461
1077.738, 17.19774
1078.220, 11.30249
1078.702, 0.9444270
1079.184, 4.492752
1079.666, 23.16896
1080.148, 38.67885
1080.630, 35.56963
1081.112, 28.62878
1081.594, 26.92679
1082.077, 29.45355
1082.559, 30.73299
1083.041, 30.84175
1083.523, 28.88007
1084.005, 23.67844
1084.487, 18.04063
1084.969, 15.00021
1085.451, 14.05151
1085.933, 14.78802
1086.416, 19.81227
1086.898, 20.55013
1087.380, 14.82300
1087.862, 8.681366
1088.344, 6.056625
1088.826, 6.998260
1089.308, 14.26280
1089.790, 26.56844
1090.273, 34.17482
1090.755, 26.47951
1091.237, 19.31424
1091.719, 19.92532
1092.201, 24.94214
1092.683, 26.90800
1093.165, 25.87575
1093.647, 25.66389
1094.130, 27.66243
1094.612, 28.18607
1095.094, 21.92044
1095.576, 13.64571
1096.058, 8.931107
1096.540, 9.468033
1097.022, 5.040573
1097.504, 6.832886
1097.986, 14.07225
1098.469, 6.163177
1098.951, 8.331497
1099.433, 14.49036
1099.915, 13.91638
1100.397, 11.08197
1100.879, 4.746048
1101.361, 0.1637570
1101.843, 4.275421
1102.325, 5.019394
1102.808, 4.336288
1103.290, 20.05910
1103.772, 24.45737
1104.254, 15.60251
1104.736, 5.647919
1105.218, 0.7913670
1105.700, 3.176102
1106.182, 0.6741030
1106.665, 6.071182
1107.147, 16.72021
1107.629, 31.59288
1108.111, 39.41960
1108.593, 33.76605
1109.075, 24.50392
1109.557, 21.46384
1110.039, 21.51421
1110.521, 20.29004
1111.004, 15.34821
1111.486, 13.65707
1111.968, 15.61975
1112.450, 19.58038
1112.932, 27.06418
1113.414, 34.46986
1113.896, 32.90662
1114.378, 24.07784
1114.860, 16.52681
1115.343, 13.34296
1115.825, 12.19054
1116.307, 12.85515
1116.789, 14.82324
1117.271, 18.14363
1117.753, 22.16338
1118.235, 23.22432
1118.717, 20.32506
1119.200, 18.11194
1119.682, 20.91530
1120.164, 24.17178
1120.646, 23.89552
1121.128, 20.56786
1121.610, 22.17795
1122.092, 28.77116
1122.574, 31.67400
1123.057, 24.70195
1123.539, 15.82765
1124.021, 11.41846
1124.503, 10.27626
1124.985, 10.83955
1125.467, 13.54666
1125.949, 16.18951
1126.431, 18.97487
1126.913, 20.85181
1127.396, 20.73886
1127.878, 18.82947
1128.360, 15.25499
1128.842, 10.34732
1129.324, 5.671799
1129.806, 9.0378001E-02
1130.288, 2.547668
1130.770, 0.4874420
1131.252, 3.561737
1131.735, 5.088303
1132.217, 4.761719
1132.699, 4.053818
1133.181, 2.864777
1133.663, 3.679077
1134.145, 10.71892
1134.627, 17.64156
1135.109, 19.16364
1135.592, 15.98470
1136.074, 15.66399
1136.556, 18.09355
1137.038, 22.54176
1137.520, 32.68607
1138.002, 39.18034
1138.484, 33.21335
1138.966, 21.58129
1139.448, 12.63557
1139.931, 5.836159
1140.413, 6.261375
1140.895, 14.62069
1141.377, 22.75793
1141.859, 24.30203
1142.341, 22.55869
1142.823, 19.88298
1143.305, 16.60258
1143.787, 13.42016
1144.270, 9.830200
1144.752, 8.011383
1145.234, 8.512856
1145.716, 10.54827
1146.198, 13.55408
1146.680, 17.20242
1147.162, 21.82486
1147.644, 28.15324
1148.127, 29.36588
1148.609, 21.54032
1149.091, 14.94560
1149.573, 13.95152
1150.055, 16.28607
1150.537, 15.44011
1151.019, 12.51271
1151.501, 10.56503
1151.984, 10.95737
1152.466, 11.99497
1152.948, 12.39303
1153.430, 13.89034
1153.912, 19.22386
1154.394, 27.61024
1154.876, 30.57691
1155.358, 27.97528
1155.840, 22.30688
1156.323, 11.31216
1156.805, 3.502281
1157.287, 6.217422
1157.769, 13.13833
1158.251, 13.89420
1158.733, 8.503433
1159.215, 3.129654
1159.697, 1.804649
1160.179, 4.221710
1160.662, 0.4097520
1161.144, 6.081444
1161.626, 7.293510
1162.108, 4.696129
1162.590, 5.635574
1163.072, 10.50983
1163.554, 15.18787
1164.036, 19.04921
1164.519, 21.22884
1165.001, 20.19475
1165.483, 17.19379
1165.965, 13.59090
1166.447, 9.106628
1166.929, 5.704514
1167.411, 3.284065
1167.893, 2.484039
1168.375, 4.467598
1168.858, 7.792404
1169.340, 9.798149
1169.822, 11.47432
1170.304, 14.66921
1170.786, 24.92117
1171.268, 28.00608
1171.750, 20.16889
1172.232, 12.37313
1172.714, 19.76328
1173.197, 33.64839
1173.679, 34.83439
1174.161, 23.84367
1174.643, 14.43272
1175.125, 12.86714
1175.607, 11.33765
1176.089, 8.153831
1176.571, 4.358681
1177.054, 0.6162570
1177.536, 2.115746
1178.018, 0.2792210
1178.500, 7.394547
1178.982, 13.66212
1179.464, 15.91678
1179.946, 15.12788
1180.428, 10.17720
1180.911, 3.251839
1181.393, 3.006332
1181.875, 8.039429
1182.357, 12.16189
1182.839, 13.83180
1183.321, 13.02224
1183.803, 6.141563
1184.285, 0.1111830
1184.767, 0.5756450
1185.250, 4.601959
1185.732, 11.89933
1186.214, 20.85420
1186.696, 27.24908
1187.178, 26.50535
1187.660, 24.75339
1188.142, 24.80212
1188.624, 26.09519
1189.106, 28.04449
1189.589, 30.79222
1190.071, 30.00816
1190.553, 25.35855
1191.035, 17.89464
1191.517, 1.734253
1191.999, 10.79253
1192.481, 7.551109
1192.963, 6.345161
1193.446, 15.06745
1193.928, 18.51429
1194.410, 16.47308
1194.892, 7.465103
1195.374, 0.9622570
1195.856, 10.18782
1196.338, 22.85521
1196.820, 27.36339
1197.302, 23.35369
1197.785, 19.00366
1198.267, 14.11324
1198.749, 10.26895
1199.231, 7.391380
1199.713, 7.095642
1200.195, 14.48733
1200.677, 23.76724
1201.159, 27.22356
1201.641, 22.97052
1202.124, 18.71578
1202.606, 14.46675
1203.088, 10.51711
1203.570, 4.915367
1204.052, 1.772728
1204.534, 11.22453
1205.016, 25.54254
1205.498, 27.64123
1205.981, 6.071007
1206.463, 1.756905
1206.945, 7.289284
1207.427, 20.52538
1207.909, 32.04247
1208.391, 38.19205
1208.873, 28.36722
1209.355, 7.828445
1209.838, 0.6263890
1210.320, 16.96706
1210.802, 23.76318
1211.284, 14.80071
1211.766, 3.309380
1212.248, 4.952202
1212.730, 12.79306
1213.212, 18.72554
1213.694, 22.02074
1214.177, 24.36789
1214.659, 26.11658
1215.141, 26.71255
1215.623, 25.74569
1216.105, 24.19800
1216.587, 22.46861
1217.069, 21.62567
1217.551, 24.24111
1218.033, 31.94067
1218.516, 34.26396
1218.998, 28.39490
1219.480, 21.92615
1219.962, 17.00112
1220.444, 14.50676
1220.926, 18.37914
1221.408, 25.16902
1221.890, 28.15952
1222.373, 22.13046
1222.855, 23.12151
1223.337, 36.24036
1223.819, 44.84489
1224.301, 34.30328
1224.783, 15.53186
1225.265, 9.270988
1225.747, 11.22078
1226.229, 11.25008
1226.712, 0.5111160
1227.194, 2.068413
1227.676, 6.108284
1228.158, 16.89073
1228.640, 25.16919
1229.122, 30.03593
1229.604, 28.40159
1230.086, 22.39874
1230.568, 21.17000
1231.051, 34.50970
1231.533, 38.85715
1232.015, 29.60871
1232.497, 16.27158
1232.979, 8.995918
1233.461, 6.116020
1233.943, 5.149040
1234.425, 5.730415
1234.908, 5.986740
1235.390, 3.390099
1235.872, 5.786552
1236.354, 15.43176
1236.836, 26.77060
1237.318, 31.92977
1237.800, 31.36510
1238.282, 24.17532
1238.764, 9.789383
1239.247, 6.117928
1239.729, 20.95848
1240.211, 28.66949
1240.693, 17.60571
1241.175, 1.627968
1241.657, 4.658585
1242.139, 17.03738
1242.621, 23.68584
1243.104, 20.35287
1243.586, 17.27529
1244.068, 15.64507
1244.550, 14.94057
1245.032, 15.18011
1245.514, 16.02750
1245.996, 18.78868
1246.478, 21.49442
1246.960, 21.03197
1247.443, 14.39373
1247.925, 10.22371
1248.407, 8.646233
1248.889, 9.193665
1249.371, 12.65832
1249.853, 17.20303
1250.335, 21.33485
1250.817, 24.43168
1251.299, 24.84276
1251.782, 21.06253
1252.264, 17.90552
1252.746, 15.43148
1253.228, 13.80625
1253.710, 13.47738
1254.192, 13.23990
1254.674, 11.28784
1255.156, 9.020889
1255.639, 13.06414
1256.121, 27.24065
1256.603, 34.17147
1257.085, 31.81122
1257.567, 26.19379
1258.049, 20.47227
1258.531, 16.11480
1259.013, 14.78133
1259.495, 15.98011
1259.978, 17.17741
1260.460, 18.32132
1260.942, 20.38394
1261.424, 24.26280
1261.906, 25.23473
1262.388, 13.60569
1262.870, 1.482475
1263.352, 0.6236650
1263.834, 9.075821
1264.317, 15.51514
1264.799, 19.93658
1265.281, 23.59029
1265.763, 27.31610
1266.245, 27.10365
1266.727, 13.26642
1267.209, 0.4426570
1267.691, 0.1180730
1268.174, 10.45236
1268.656, 10.73085
1269.138, 1.557495
1269.620, 2.057152
1270.102, 5.837677
1270.584, 14.12854
1271.066, 15.29492
1271.548, 13.51121
1272.031, 10.60934
1272.513, 8.138947
1272.995, 9.768280
1273.477, 14.60696
1273.959, 15.78731
1274.441, 10.34380
1274.923, 6.002563
1275.405, 6.056412
1275.887, 8.443970
1276.370, 5.863739
1276.852, 9.4452001E-02
1277.334, 0.6253660
1277.816, 6.430344
1278.298, 11.38588
1278.780, 10.67137
1279.262, 8.288101
1279.744, 3.674484
1280.226, 0.0000000E+00
##END=



