##NAMES=Kostovite
##RRUFFID=R070282
##IDEAL CHEMISTRY=AuCuTe_4_
##LOCALITY=Chelopech mine, Chelopech Obshchina, Balkan Mts, Sofiya Oblast, Bulgaria
##OWNER=RRUFF
##SOURCE=Michael Scott
##DESCRIPTION=Dark gray metallic fragment embedded in epoxy. Portion of type sample
##STATUS=The identification of this mineral has been confirmed only by chemical analysis
##URL=rruff.info/R070282
##MEASURED CHEMISTRY=Au_1.00_(Cu_0.85_Ag_0.28_)_Î£=1.13_Te_4_ ; normalized to Te_4_
174.2498, 0.0000000E+00
174.7319, 18.44922
175.2140, 27.51416
175.6961, 29.37158
176.1783, 26.97607
176.6604, 17.91357
177.1425, 9.637207
177.6246, 13.70850
178.1067, 29.59766
178.5888, 44.51221
179.0710, 56.82666
179.5531, 61.44922
180.0352, 56.33350
180.5173, 35.51660
180.9994, 10.08057
181.4815, 0.7797850
181.9637, 1.516602
182.4458, 7.184570
182.9279, 5.055176
183.4100, 0.6445310
183.8921, 2.608398
184.3742, 24.56982
184.8564, 55.35010
185.3385, 64.68506
185.8206, 51.80078
186.3027, 31.68115
186.7848, 18.30518
187.2669, 9.690430
187.7491, 3.928711
188.2312, 1.959473
188.7133, 2.871094
189.1954, 3.583496
189.6775, 4.154785
190.1596, 4.337402
190.6418, 4.187012
191.1239, 3.708008
191.6060, 3.052734
192.0881, 1.753906
192.5702, 2.4901999E-02
193.0523, 9.7167999E-02
193.5345, 2.332031
194.0166, 5.318359
194.4987, 6.197754
194.9808, 4.741211
195.4629, 5.827148
195.9451, 9.994141
196.4272, 18.34229
196.9093, 24.95898
197.3914, 30.37354
197.8735, 32.94775
198.3556, 28.98340
198.8378, 16.19922
199.3199, 3.250000
199.8020, 6.040039
200.2841, 25.88916
200.7662, 44.91602
201.2483, 64.54395
201.7305, 80.57129
202.2126, 80.20752
202.6947, 57.84326
203.1768, 34.49756
203.6589, 27.45996
204.1410, 42.20264
204.6232, 51.64551
205.1053, 49.56641
205.5874, 43.89307
206.0695, 46.45068
206.5516, 61.83594
207.0337, 75.30029
207.5159, 75.16113
207.9980, 58.80859
208.4801, 44.18994
208.9622, 31.23730
209.4443, 21.64795
209.9264, 21.88135
210.4086, 35.91260
210.8907, 51.83740
211.3728, 61.24756
211.8549, 62.47266
212.3370, 59.07812
212.8191, 50.62012
213.3013, 38.36670
213.7834, 34.23730
214.2655, 43.28760
214.7476, 52.34766
215.2297, 47.39062
215.7118, 19.83789
216.1940, 2.361328
216.6761, 2.735352
217.1582, 20.12598
217.6403, 37.65088
218.1224, 58.82373
218.6045, 75.13867
219.0867, 76.30078
219.5688, 54.47656
220.0509, 36.19336
220.5330, 29.42285
221.0151, 34.55957
221.4972, 28.91016
221.9794, 4.555664
222.4615, 21.76172
222.9436, 31.07471
223.4257, 14.80469
223.9078, 0.9799800
224.3899, 9.748535
224.8721, 10.97656
225.3542, 14.83789
225.8363, 24.47998
226.3184, 33.83984
226.8005, 34.99023
227.2826, 22.58691
227.7648, 12.16162
228.2469, 8.773926
228.7290, 13.95020
229.2111, 13.40771
229.6932, 1.252441
230.1753, 11.88623
230.6575, 9.454590
231.1396, 23.82959
231.6217, 45.20410
232.1038, 38.93799
232.5859, 2.141602
233.0681, 31.58545
233.5502, 48.36572
234.0323, 54.28320
234.5144, 50.43262
234.9965, 29.88037
235.4786, 11.47461
235.9608, 2.908691
236.4429, 8.805176
236.9250, 2.586426
237.4071, 24.41406
237.8892, 58.10059
238.3713, 76.05957
238.8535, 73.47119
239.3356, 62.97559
239.8177, 46.60742
240.2998, 20.90527
240.7819, 2.454102
241.2640, 8.005371
241.7462, 11.90771
242.2283, 12.21338
242.7104, 9.942383
243.1925, 2.368164
243.6746, 13.97266
244.1567, 45.62256
244.6389, 62.80176
245.1210, 58.50781
245.6031, 43.90967
246.0852, 40.48193
246.5673, 59.75391
247.0494, 70.48975
247.5316, 57.61084
248.0137, 8.296387
248.4958, 20.53662
248.9779, 21.87061
249.4600, 6.492676
249.9421, 5.765137
250.4243, 12.98291
250.9064, 20.71729
251.3885, 31.40820
251.8706, 46.46143
252.3527, 60.59082
252.8348, 76.79639
253.3170, 90.20801
253.7991, 89.48096
254.2812, 66.55029
254.7633, 44.84961
255.2454, 33.86768
255.7275, 37.17334
256.2097, 37.86963
256.6918, 33.89502
257.1739, 28.47510
257.6560, 29.06494
258.1381, 39.04346
258.6202, 47.89893
259.1024, 49.45459
259.5845, 38.69727
260.0666, 43.91309
260.5487, 76.73242
261.0308, 116.6494
261.5129, 123.2178
261.9951, 81.92236
262.4772, 41.63574
262.9593, 21.85791
263.4414, 26.05127
263.9235, 33.95654
264.4056, 46.09961
264.8878, 61.62061
265.3699, 82.29395
265.8520, 113.9321
266.3341, 134.4663
266.8162, 128.6113
267.2983, 88.25293
267.7805, 77.62598
268.2626, 109.3735
268.7447, 156.9136
269.2268, 170.9341
269.7089, 141.6763
270.1910, 113.9819
270.6732, 108.1895
271.1553, 127.7935
271.6374, 133.0410
272.1195, 118.3145
272.6016, 97.47070
273.0837, 94.18555
273.5659, 111.1616
274.0480, 131.5107
274.5301, 153.0234
275.0122, 176.2412
275.4943, 182.3496
275.9764, 166.4858
276.4586, 142.6646
276.9407, 129.6357
277.4228, 127.4873
277.9049, 136.1924
278.3870, 163.6450
278.8691, 208.1196
279.3513, 226.8237
279.8334, 214.7485
280.3155, 188.6753
280.7976, 171.7808
281.2797, 165.6719
281.7618, 163.0688
282.2440, 160.3887
282.7261, 158.0806
283.2082, 161.1660
283.6903, 170.6812
284.1725, 181.7715
284.6546, 189.4238
285.1367, 193.5557
285.6188, 193.9609
286.1009, 189.0518
286.5830, 180.1924
287.0652, 173.1475
287.5473, 168.0586
288.0294, 163.7769
288.5115, 159.6504
288.9936, 156.0928
289.4757, 154.0806
289.9579, 150.1948
290.4400, 148.9932
290.9221, 168.3184
291.4042, 210.3711
291.8863, 250.4229
292.3684, 261.2114
292.8506, 248.4888
293.3327, 234.0659
293.8148, 223.5791
294.2969, 215.1978
294.7790, 203.2598
295.2611, 187.6255
295.7433, 179.3848
296.2254, 198.7651
296.7075, 234.4878
297.1896, 253.1978
297.6717, 236.6958
298.1538, 206.2852
298.6360, 192.6631
299.1181, 194.8179
299.6002, 204.1094
300.0823, 218.7993
300.5644, 235.5938
301.0465, 247.9697
301.5287, 251.8149
302.0108, 253.1655
302.4929, 258.1870
302.9750, 266.6152
303.4571, 276.5513
303.9392, 291.4810
304.4214, 305.8057
304.9035, 311.1680
305.3856, 300.8691
305.8677, 288.4634
306.3498, 285.8940
306.8319, 291.4053
307.3141, 297.6602
307.7962, 298.1133
308.2783, 297.3003
308.7604, 300.8921
309.2425, 313.1479
309.7246, 322.8452
310.2068, 316.8721
310.6889, 301.9937
311.1710, 295.6880
311.6531, 314.4233
312.1352, 340.0557
312.6173, 359.6616
313.0995, 370.5654
313.5816, 376.5122
314.0637, 380.6401
314.5458, 380.9565
315.0279, 373.8311
315.5100, 342.2827
315.9922, 314.6831
316.4743, 309.6226
316.9564, 335.4927
317.4385, 357.8594
317.9206, 356.0347
318.4027, 346.0239
318.8849, 350.1880
319.3670, 397.3062
319.8491, 439.5786
320.3312, 455.6279
320.8133, 438.8955
321.2954, 426.7808
321.7776, 432.5767
322.2597, 444.1670
322.7418, 448.6348
323.2239, 434.9067
323.7060, 423.0923
324.1881, 417.7886
324.6703, 419.4507
325.1524, 423.7988
325.6345, 437.7891
326.1166, 450.4731
326.5987, 452.9668
327.0808, 424.7778
327.5630, 410.6421
328.0451, 423.7690
328.5272, 462.2617
329.0093, 484.2554
329.4914, 476.3965
329.9735, 463.7065
330.4557, 462.8721
330.9378, 483.7251
331.4199, 499.3018
331.9020, 506.4751
332.3841, 506.6538
332.8662, 506.7495
333.3484, 507.5713
333.8305, 507.0801
334.3126, 504.0757
334.7947, 498.1929
335.2768, 490.1353
335.7589, 476.5146
336.2411, 462.6450
336.7232, 464.7593
337.2053, 489.5103
337.6874, 511.1079
338.1695, 514.3867
338.6516, 494.6938
339.1338, 487.2891
339.6159, 498.5669
340.0980, 518.0522
340.5801, 531.2886
341.0622, 539.2114
341.5443, 532.7363
342.0265, 498.4326
342.5086, 440.9585
342.9907, 409.1772
343.4728, 406.1528
343.9549, 419.5117
344.4370, 443.4854
344.9192, 475.3491
345.4013, 488.2778
345.8834, 460.1743
346.3655, 409.6855
346.8476, 390.4331
347.3297, 403.3105
347.8119, 422.3599
348.2940, 424.0376
348.7761, 412.6470
349.2582, 403.0376
349.7403, 397.7349
350.2224, 398.1685
350.7046, 411.2451
351.1867, 435.4248
351.6688, 455.0566
352.1509, 456.4155
352.6330, 447.2368
353.1151, 438.2168
353.5973, 429.1724
354.0794, 421.0488
354.5615, 414.3101
355.0436, 410.9385
355.5258, 414.0850
356.0079, 435.3604
356.4900, 458.9507
356.9721, 468.7095
357.4542, 457.6157
357.9363, 446.8501
358.4185, 447.7451
358.9006, 456.7129
359.3827, 468.4126
359.8648, 485.8281
360.3469, 501.2573
360.8290, 508.8696
361.3112, 506.8428
361.7933, 508.0742
362.2754, 516.7734
362.7575, 530.5962
363.2396, 547.3042
363.7217, 575.6162
364.2039, 599.2417
364.6860, 606.8633
365.1681, 595.4414
365.6502, 595.5698
366.1323, 621.3633
366.6144, 653.8350
367.0966, 681.7603
367.5787, 705.0928
368.0608, 717.6802
368.5429, 713.7983
369.0250, 698.5708
369.5071, 696.7046
369.9893, 715.5542
370.4714, 739.1235
370.9535, 761.0952
371.4356, 784.9473
371.9177, 798.3711
372.3998, 800.2114
372.8820, 792.7681
373.3641, 777.9771
373.8462, 748.9199
374.3283, 723.4819
374.8104, 713.1216
375.2925, 720.0635
375.7747, 718.5698
376.2568, 705.1411
376.7389, 688.1021
377.2210, 683.1055
377.7031, 691.9243
378.1852, 691.3647
378.6674, 671.6343
379.1495, 636.9980
379.6316, 606.1162
380.1137, 580.1548
380.5958, 549.7749
381.0779, 495.4580
381.5601, 424.9648
382.0422, 383.7881
382.5243, 392.9736
383.0064, 420.8584
383.4885, 413.6167
383.9706, 374.7476
384.4528, 330.7051
384.9349, 294.7749
385.4170, 266.3530
385.8991, 244.4824
386.3812, 229.9126
386.8633, 218.5859
387.3455, 211.7710
387.8276, 204.8770
388.3097, 188.6333
388.7918, 146.8628
389.2739, 101.2197
389.7560, 67.52686
390.2382, 47.05518
390.7203, 37.92725
391.2024, 49.96875
391.6845, 69.12549
392.1666, 79.32422
392.6487, 69.10742
393.1309, 54.56299
393.6130, 41.94141
394.0951, 30.97070
394.5772, 17.49072
395.0593, 11.62354
395.5414, 35.98730
396.0236, 42.49805
396.5057, 5.879883
396.9878, 20.82520
397.4699, 31.09814
397.9520, 27.63037
398.4341, 18.61328
398.9163, 6.964355
399.3984, 26.64502
399.8805, 31.33398
400.3626, 15.48096
400.8447, 0.7055660
401.3268, 14.53027
401.8090, 27.56055
402.2911, 34.10742
402.7732, 31.63770
403.2553, 29.54004
403.7374, 32.85400
404.2195, 40.60596
404.7017, 31.52686
405.1838, 0.5322270
405.6659, 32.84961
406.1480, 43.23389
406.6301, 31.49756
407.1122, 18.66162
407.5944, 7.415527
408.0765, 1.672363
408.5586, 7.769531
409.0407, 10.89453
409.5228, 9.292969
410.0049, 5.037109
410.4871, 25.12061
410.9692, 28.64502
411.4513, 10.22607
411.9334, 12.15527
412.4155, 18.04443
412.8976, 11.28076
413.3798, 2.954590
413.8619, 4.601074
414.3440, 9.677246
414.8261, 10.80127
415.3082, 7.914551
415.7903, 1.035156
416.2725, 16.86719
416.7546, 36.14941
417.2367, 46.02393
417.7188, 36.01465
418.2009, 23.43408
418.6830, 15.04004
419.1652, 10.24707
419.6473, 7.298828
420.1294, 9.382324
420.6115, 10.22021
421.0936, 3.869629
421.5757, 21.83643
422.0579, 29.67432
422.5400, 8.474609
423.0221, 62.55566
423.5042, 83.44189
423.9863, 29.12695
424.4684, 13.06152
424.9506, 19.51611
425.4327, 13.41309
425.9148, 36.49658
426.3969, 47.93945
426.8791, 51.61035
427.3612, 49.06592
427.8433, 36.90869
428.3254, 30.03564
428.8075, 33.80615
429.2896, 42.99316
429.7718, 35.86377
430.2539, 8.142578
430.7360, 13.48779
431.2181, 5.997070
431.7002, 27.66113
432.1823, 41.11523
432.6645, 28.20068
433.1466, 7.990234
433.6287, 5.597656
434.1108, 18.81787
434.5929, 37.51514
435.0750, 65.03369
435.5572, 92.04834
436.0393, 97.90283
436.5214, 83.54785
437.0035, 69.15723
437.4856, 73.70166
437.9677, 87.16992
438.4499, 95.53906
438.9320, 93.74316
439.4141, 88.58105
439.8962, 82.85889
440.3783, 77.36475
440.8604, 73.96143
441.3426, 78.96924
441.8247, 82.19434
442.3068, 76.33691
442.7889, 58.26221
443.2710, 42.47510
443.7531, 28.54541
444.2353, 20.57764
444.7174, 22.88232
445.1995, 52.17676
445.6816, 74.23096
446.1637, 79.78418
446.6458, 70.63721
447.1280, 66.02881
447.6101, 64.91064
448.0922, 69.54346
448.5743, 83.30908
449.0564, 114.9092
449.5385, 132.1069
450.0207, 130.6631
450.5028, 117.7690
450.9849, 104.6953
451.4670, 90.44922
451.9491, 83.30664
452.4312, 91.35010
452.9134, 110.7651
453.3955, 109.7007
453.8776, 86.39404
454.3597, 65.22363
454.8418, 72.79150
455.3239, 100.9399
455.8061, 114.8071
456.2882, 101.8223
456.7703, 78.46436
457.2524, 65.15039
457.7345, 61.55615
458.2166, 64.13623
458.6988, 74.70898
459.1809, 86.72559
459.6630, 92.95166
460.1451, 92.02979
460.6272, 90.49561
461.1093, 96.20410
461.5915, 102.5840
462.0736, 101.2910
462.5557, 73.75098
463.0378, 53.88867
463.5199, 57.14746
464.0020, 81.28613
464.4842, 103.7231
464.9663, 122.3320
465.4484, 134.9951
465.9305, 140.7705
466.4126, 134.4756
466.8947, 129.6387
467.3769, 128.2744
467.8590, 126.9058
468.3411, 118.8433
468.8232, 98.61279
469.3053, 87.71826
469.7874, 95.44238
470.2696, 119.1680
470.7517, 126.6445
471.2338, 114.1875
471.7159, 95.78467
472.1980, 79.38867
472.6801, 65.69043
473.1623, 70.22266
473.6444, 100.9507
474.1265, 140.3525
474.6086, 159.5874
475.0907, 159.1924
475.5728, 145.7231
476.0550, 108.2583
476.5371, 65.82031
477.0192, 53.83691
477.5013, 73.76270
477.9834, 99.08887
478.4655, 111.4458
478.9477, 115.6836
479.4298, 117.1655
479.9119, 119.3096
480.3940, 122.9097
480.8761, 128.9746
481.3582, 133.5088
481.8404, 129.2910
482.3225, 98.27148
482.8046, 72.05225
483.2867, 68.93164
483.7688, 96.17285
484.2509, 119.1289
484.7331, 137.3491
485.2152, 148.6299
485.6973, 150.0742
486.1794, 131.8081
486.6615, 121.3184
487.1436, 127.6855
487.6258, 145.4053
488.1079, 145.4785
488.5900, 121.1323
489.0721, 97.26807
489.5542, 86.32471
490.0363, 87.04834
490.5185, 99.56299
491.0006, 127.4497
491.4827, 153.4702
491.9648, 146.1499
492.4469, 112.7988
492.9290, 94.89209
493.4112, 115.8945
493.8933, 152.1606
494.3754, 169.3535
494.8575, 168.9956
495.3397, 160.6943
495.8218, 142.2632
496.3039, 120.5146
496.7860, 105.5967
497.2681, 101.8340
497.7502, 99.02002
498.2324, 91.27686
498.7145, 81.29590
499.1966, 72.60840
499.6787, 64.65918
500.1608, 59.85156
500.6429, 61.89355
501.1251, 69.82129
501.6072, 70.92529
502.0893, 56.69385
502.5714, 42.61035
503.0535, 36.29199
503.5356, 39.89014
504.0178, 44.98486
504.4999, 53.55957
504.9820, 61.74463
505.4641, 64.07227
505.9462, 59.47559
506.4283, 50.42236
506.9105, 33.65479
507.3926, 13.80762
507.8747, 12.39990
508.3568, 30.36328
508.8389, 50.02441
509.3210, 59.60156
509.8032, 61.25049
510.2853, 59.97998
510.7674, 53.82910
511.2495, 46.55908
511.7316, 42.33496
512.2137, 40.62695
512.6959, 40.39941
513.1780, 41.78027
513.6601, 44.01270
514.1422, 46.08740
514.6243, 48.29248
515.1064, 52.75488
515.5886, 63.29395
516.0707, 74.76367
516.5528, 83.73926
517.0349, 90.44727
517.5170, 91.33594
517.9991, 84.06104
518.4813, 71.74707
518.9634, 57.88672
519.4455, 41.04346
519.9276, 24.82178
520.4097, 7.906738
520.8918, 8.233398
521.3740, 14.71143
521.8561, 11.03271
522.3382, 0.7612300
522.8203, 25.44678
523.3024, 61.30762
523.7845, 80.88770
524.2667, 80.90576
524.7488, 71.53174
525.2309, 60.02881
525.7130, 48.61475
526.1951, 45.90723
526.6772, 60.46191
527.1594, 80.15576
527.6415, 94.66309
528.1236, 103.0278
528.6057, 99.90625
529.0878, 70.21484
529.5699, 35.68115
530.0521, 13.21240
530.5342, 6.646484
531.0163, 3.603516
531.4984, 2.193359
531.9805, 5.533203
532.4626, 0.9218750
532.9448, 28.33447
533.4269, 46.22021
533.9090, 43.88184
534.3911, 26.73096
534.8732, 15.47412
535.3553, 10.73926
535.8375, 10.97607
536.3196, 19.06396
536.8017, 36.20947
537.2838, 34.58789
537.7659, 8.817383
538.2480, 17.95020
538.7302, 16.73535
539.2123, 8.205078
539.6944, 26.76270
540.1765, 30.55420
540.6586, 28.60010
541.1407, 37.05566
541.6229, 51.68408
542.1050, 57.51318
542.5871, 34.86279
543.0692, 7.436523
543.5513, 2.449707
544.0334, 6.363281
544.5156, 18.59473
544.9977, 31.11475
545.4798, 41.81299
545.9619, 48.78076
546.4440, 49.95850
546.9261, 49.95801
547.4083, 51.15869
547.8904, 51.14941
548.3725, 44.99219
548.8546, 26.00244
549.3367, 11.83008
549.8188, 7.373047
550.3010, 11.95361
550.7831, 20.24951
551.2652, 35.56934
551.7473, 43.54834
552.2294, 25.16895
552.7115, 15.26416
553.1937, 31.66895
553.6758, 17.87695
554.1579, 9.442383
554.6400, 38.59277
555.1221, 65.53271
555.6042, 77.63428
556.0864, 60.80811
556.5685, 37.19678
557.0506, 28.55078
557.5327, 31.44336
558.0148, 33.31006
558.4969, 26.01025
558.9791, 17.30420
559.4612, 10.64258
559.9433, 5.460449
560.4254, 7.275391
560.9075, 30.77490
561.3896, 53.91064
561.8718, 56.26660
562.3539, 12.67969
562.8360, 7.271973
563.3181, 13.73975
563.8002, 55.73193
564.2823, 67.91992
564.7645, 43.37012
565.2466, 19.27686
565.7287, 13.04834
566.2108, 20.16016
566.6929, 13.14893
567.1750, 8.839355
567.6572, 26.47363
568.1393, 16.52930
568.6214, 8.444824
569.1035, 22.34033
569.5856, 19.53564
570.0677, 12.31152
570.5499, 10.45068
571.0320, 11.01611
571.5141, 9.357422
571.9962, 1.714844
572.4783, 6.431641
572.9604, 16.09180
573.4426, 25.53418
573.9247, 26.23193
574.4068, 7.653809
574.8889, 11.71387
575.3710, 25.94482
575.8531, 35.43848
576.3353, 35.68652
576.8174, 21.40137
577.2995, 5.682129
577.7816, 2.601074
578.2637, 13.51074
578.7458, 18.75439
579.2280, 14.72314
579.7101, 7.457031
580.1922, 8.779785
580.6743, 16.86475
581.1564, 21.20166
581.6385, 12.81836
582.1207, 0.3334960
582.6028, 4.298828
583.0849, 1.929199
583.5670, 0.5424800
584.0491, 8.167969
584.5313, 13.77930
585.0134, 1.594727
585.4955, 39.28662
585.9776, 69.12988
586.4597, 71.91846
586.9418, 60.73438
587.4240, 49.74756
587.9061, 32.63965
588.3882, 26.61865
588.8703, 39.27734
589.3524, 62.48730
589.8345, 71.96533
590.3167, 64.96924
590.7988, 57.58105
591.2809, 56.62354
591.7630, 60.36670
592.2451, 60.21191
592.7272, 56.06787
593.2094, 48.63428
593.6915, 29.58887
594.1736, 9.624512
594.6557, 13.13721
595.1378, 49.24170
595.6199, 85.93164
596.1021, 99.43359
596.5842, 98.19238
597.0663, 93.30908
597.5484, 86.73975
598.0305, 75.68701
598.5126, 49.32080
598.9948, 15.07568
599.4769, 5.355957
599.9590, 47.64453
600.4411, 83.06104
600.9233, 88.08252
601.4054, 59.39502
601.8875, 51.40527
602.3696, 72.15918
602.8517, 92.62744
603.3339, 80.49072
603.8160, 39.39844
604.2981, 21.48438
604.7802, 36.40625
605.2623, 62.28418
605.7444, 73.28809
606.2266, 72.72119
606.7087, 68.69043
607.1908, 60.11035
607.6729, 53.53955
608.1550, 54.86426
608.6371, 62.61230
609.1193, 72.12891
609.6014, 91.55908
610.0835, 103.6294
610.5656, 92.56934
611.0477, 52.43164
611.5298, 33.75098
612.0120, 53.52148
612.4941, 79.14502
612.9762, 88.67871
613.4583, 75.67578
613.9404, 70.12158
614.4225, 74.57275
614.9047, 84.34473
615.3868, 94.12305
615.8689, 103.8452
616.3510, 111.6772
616.8331, 117.8867
617.3152, 120.9014
617.7974, 114.9609
618.2795, 102.7812
618.7616, 94.64355
619.2437, 103.4629
619.7258, 113.0981
620.2079, 106.4688
620.6901, 82.79590
621.1722, 71.38818
621.6543, 98.35840
622.1364, 129.0586
622.6185, 139.1343
623.1006, 112.4316
623.5828, 98.81836
624.0649, 104.1157
624.5470, 117.1680
625.0291, 124.7563
625.5112, 125.4653
625.9933, 125.5181
626.4755, 126.2754
626.9576, 125.5176
627.4397, 115.9883
627.9218, 99.65625
628.4039, 91.53760
628.8860, 106.2671
629.3682, 129.7300
629.8503, 144.8848
630.3324, 151.6655
630.8145, 150.7729
631.2966, 133.6240
631.7787, 115.6011
632.2609, 109.8618
632.7430, 121.1460
633.2251, 128.1577
633.7072, 118.6748
634.1893, 108.3110
634.6714, 111.1274
635.1536, 137.6079
635.6357, 153.2178
636.1178, 151.0527
636.5999, 141.4004
637.0820, 146.7837
637.5641, 168.2026
638.0463, 177.4253
638.5284, 158.1406
639.0105, 127.3823
639.4926, 118.5654
639.9747, 129.4902
640.4568, 147.1729
640.9390, 174.9927
641.4211, 198.9756
641.9032, 202.4614
642.3853, 184.3311
642.8674, 168.0322
643.3495, 158.9263
643.8317, 156.9443
644.3138, 163.4023
644.7959, 190.7065
645.2780, 201.6221
645.7601, 185.6714
646.2422, 162.5288
646.7244, 157.3311
647.2065, 174.8564
647.6886, 184.8926
648.1707, 179.5752
648.6528, 167.7280
649.1349, 168.3872
649.6171, 179.7915
650.0992, 189.4697
650.5813, 190.7373
651.0634, 187.6401
651.5455, 182.6299
652.0276, 176.6777
652.5098, 175.2119
652.9919, 191.2065
653.4740, 204.7681
653.9561, 199.4048
654.4382, 168.4468
654.9203, 150.1338
655.4025, 155.7573
655.8846, 169.9985
656.3667, 185.2153
656.8488, 207.2583
657.3309, 209.6318
657.8130, 184.1006
658.2952, 152.1401
658.7773, 147.1162
659.2594, 166.5698
659.7415, 181.6079
660.2236, 184.5513
660.7057, 179.8398
661.1879, 171.3154
661.6700, 160.0854
662.1521, 149.3223
662.6342, 133.4526
663.1163, 124.6924
663.5984, 138.5269
664.0806, 171.0415
664.5627, 189.2515
665.0448, 175.3281
665.5269, 154.2129
666.0090, 133.2114
666.4911, 110.2852
666.9733, 104.8018
667.4554, 120.7798
667.9375, 146.2397
668.4196, 178.0527
668.9017, 215.4409
669.3839, 229.7607
669.8660, 216.3477
670.3481, 189.9111
670.8302, 157.4717
671.3123, 125.7017
671.7944, 110.1680
672.2766, 123.6235
672.7587, 142.8159
673.2408, 151.0610
673.7229, 151.9985
674.2050, 154.9653
674.6871, 172.7300
675.1693, 181.3848
675.6514, 168.1416
676.1335, 138.6455
676.6156, 122.4106
677.0977, 122.6279
677.5798, 128.9961
678.0620, 138.6504
678.5441, 151.6611
679.0262, 165.5684
679.5083, 180.2349
679.9904, 186.6187
680.4725, 170.6675
680.9547, 144.0205
681.4368, 122.9468
681.9189, 109.7271
682.4010, 105.3936
682.8831, 120.8013
683.3652, 141.0273
683.8474, 149.7729
684.3295, 132.1392
684.8116, 120.8838
685.2937, 132.0469
685.7758, 147.0361
686.2579, 138.7588
686.7401, 94.50244
687.2222, 62.68311
687.7043, 50.87646
688.1864, 56.26562
688.6685, 81.27197
689.1506, 124.3418
689.6328, 155.4272
690.1149, 155.4214
690.5970, 139.5410
691.0791, 127.8433
691.5612, 120.0337
692.0433, 114.8462
692.5255, 114.2881
693.0076, 113.8135
693.4897, 107.5908
693.9718, 95.52588
694.4539, 95.80957
694.9360, 128.6128
695.4182, 154.8511
695.9003, 152.1602
696.3824, 109.5181
696.8645, 86.30127
697.3466, 86.50439
697.8287, 95.76953
698.3109, 102.9087
698.7930, 106.5752
699.2751, 103.7637
699.7572, 96.90820
700.2393, 92.33789
700.7214, 102.9878
701.2036, 120.3945
701.6857, 127.5728
702.1678, 101.2881
702.6499, 81.72266
703.1320, 93.41357
703.6141, 122.8057
704.0963, 134.6138
704.5784, 114.3354
705.0605, 95.72510
705.5426, 83.87793
706.0247, 79.32861
706.5068, 90.34033
706.9890, 120.4370
707.4711, 137.0317
707.9532, 109.1938
708.4353, 58.51025
708.9174, 46.04248
709.3995, 68.41504
709.8817, 92.89062
710.3638, 97.13184
710.8459, 91.80078
711.3280, 84.24609
711.8101, 73.91943
712.2922, 64.58105
712.7744, 59.37305
713.2565, 57.24023
713.7386, 58.12256
714.2207, 66.28857
714.7028, 65.28125
715.1849, 51.30908
715.6671, 34.73535
716.1492, 27.43115
716.6313, 28.70459
717.1134, 29.90088
717.5955, 29.82715
718.0776, 28.37549
718.5598, 24.85303
719.0419, 19.92725
719.5240, 14.83398
720.0061, 8.713379
720.4882, 4.068359
720.9703, 1.504395
721.4525, 4.562988
721.9346, 2.853516
722.4167, 36.25781
722.8988, 61.50537
723.3809, 71.63623
723.8630, 68.97021
724.3452, 58.80908
724.8273, 38.68164
725.3094, 29.30078
725.7915, 49.87402
726.2736, 84.86426
726.7557, 90.21777
727.2379, 69.34668
727.7200, 49.14600
728.2021, 54.74756
728.6842, 62.95557
729.1663, 49.51562
729.6484, 11.63965
730.1306, 13.81152
730.6127, 11.46973
731.0948, 2.669922
731.5769, 21.46045
732.0590, 48.62891
732.5411, 64.79102
733.0233, 67.65234
733.5054, 64.65820
733.9875, 64.60352
734.4696, 65.85596
734.9517, 53.71826
735.4338, 24.40332
735.9160, 5.486816
736.3981, 22.46240
736.8802, 28.06885
737.3623, 22.86865
737.8444, 1.859863
738.3265, 20.10059
738.8087, 11.32422
739.2908, 6.157715
739.7729, 4.403320
740.2550, 35.38330
740.7371, 61.50830
741.2192, 65.06348
741.7014, 54.41553
742.1835, 46.83789
742.6656, 42.41504
743.1478, 34.49268
743.6299, 18.05029
744.1120, 0.4995120
744.5941, 7.213379
745.0762, 6.224121
745.5583, 0.2514650
746.0405, 9.997559
746.5226, 23.68896
747.0047, 45.16357
747.4868, 71.54639
747.9689, 85.94043
748.4510, 79.02344
748.9332, 69.54004
749.4153, 64.91211
749.8974, 63.81543
750.3795, 46.44092
750.8616, 9.947266
751.3438, 20.40283
751.8259, 28.97510
752.3080, 19.53467
752.7901, 7.827148
753.2722, 51.25488
753.7543, 80.56396
754.2365, 67.95508
754.7186, 38.22559
755.2007, 3.945313
755.6828, 39.03125
756.1649, 52.31934
756.6470, 6.957520
757.1292, 65.37256
757.6113, 74.80518
758.0934, 19.83887
758.5755, 14.82812
759.0576, 27.45557
759.5397, 26.46777
760.0219, 17.91260
760.5040, 2.910156
760.9861, 17.66064
761.4682, 45.85840
761.9503, 66.30225
762.4324, 61.60010
762.9146, 44.54541
763.3967, 29.50879
763.8788, 13.33740
764.3609, 10.36084
764.8430, 41.33350
765.3251, 76.22266
765.8073, 77.73486
766.2894, 34.89355
766.7715, 2.117676
767.2536, 11.89551
767.7357, 14.81787
768.2178, 20.99072
768.7000, 27.72705
769.1821, 22.28418
769.6642, 8.327637
770.1463, 38.15186
770.6284, 40.70850
771.1105, 26.87891
771.5927, 17.69971
772.0748, 24.16016
772.5569, 30.80371
773.0390, 35.32617
773.5211, 37.26611
774.0032, 33.87598
774.4854, 22.50049
774.9675, 15.67188
775.4496, 16.99268
775.9317, 25.37891
776.4138, 44.97656
776.8959, 71.89307
777.3781, 85.98389
777.8602, 59.93066
778.3423, 30.00977
778.8244, 30.67822
779.3065, 55.03906
779.7886, 73.18604
780.2708, 68.97217
780.7529, 63.92871
781.2350, 66.96973
781.7171, 76.52490
782.1992, 75.38232
782.6813, 59.35986
783.1635, 49.46484
783.6456, 63.35596
784.1277, 90.57764
784.6098, 92.60840
785.0919, 72.08691
785.5740, 55.42383
786.0562, 63.18750
786.5383, 79.44336
787.0204, 93.59668
787.5025, 104.8506
787.9846, 107.8096
788.4667, 97.82275
788.9489, 85.13330
789.4310, 70.10645
789.9131, 51.97949
790.3952, 50.93213
790.8773, 70.89893
791.3594, 89.57373
791.8416, 84.18408
792.3237, 65.35693
792.8058, 65.33008
793.2879, 85.28467
793.7700, 99.64258
794.2521, 79.46777
794.7343, 53.88330
795.2164, 50.11084
795.6985, 79.62061
796.1806, 96.89502
796.6627, 83.22412
797.1448, 71.03467
797.6270, 88.11230
798.1091, 142.1123
798.5912, 162.3052
799.0733, 143.8169
799.5554, 116.2197
800.0375, 107.5425
800.5197, 110.5591
801.0018, 111.1699
801.4839, 106.9604
801.9660, 104.5688
802.4481, 110.2212
802.9302, 118.4004
803.4124, 124.9546
803.8945, 131.9297
804.3766, 129.0293
804.8587, 109.4102
805.3408, 88.95264
805.8229, 83.40527
806.3051, 92.66602
806.7872, 101.2783
807.2693, 108.2002
807.7514, 112.8970
808.2335, 117.5493
808.7156, 118.7744
809.1978, 105.0840
809.6799, 65.72363
810.1620, 46.77588
810.6441, 92.63477
811.1262, 153.2837
811.6083, 179.4878
812.0905, 150.6567
812.5726, 132.7720
813.0547, 128.0811
813.5368, 129.9092
814.0189, 140.2334
814.5010, 160.7720
814.9832, 170.7598
815.4653, 165.7490
815.9474, 157.6943
816.4295, 157.5874
816.9116, 159.6460
817.3937, 155.7886
817.8759, 135.9165
818.3580, 127.6958
818.8401, 152.8687
819.3222, 180.1890
819.8043, 174.7720
820.2864, 122.8687
820.7686, 106.1089
821.2507, 139.1885
821.7328, 186.2759
822.2149, 203.5322
822.6970, 197.7031
823.1791, 182.9922
823.6613, 158.1553
824.1434, 140.1099
824.6255, 142.5688
825.1076, 156.0781
825.5897, 171.5991
826.0718, 205.2104
826.5540, 212.1904
827.0361, 179.6401
827.5182, 138.3965
828.0003, 124.0811
828.4824, 136.4321
828.9645, 141.8354
829.4467, 133.2676
829.9288, 125.7017
830.4109, 143.8174
830.8930, 171.7603
831.3751, 182.9092
831.8572, 158.8315
832.3394, 143.8677
832.8215, 164.5586
833.3036, 196.1255
833.7857, 210.0586
834.2678, 197.5508
834.7499, 194.6313
835.2321, 208.0337
835.7142, 220.6665
836.1963, 204.8589
836.6784, 169.2314
837.1605, 145.3022
837.6426, 139.4146
838.1248, 145.0029
838.6069, 168.1133
839.0890, 194.6611
839.5711, 208.1709
840.0532, 195.3179
840.5353, 187.4253
841.0175, 187.2144
841.4996, 191.7773
841.9817, 199.7451
842.4638, 211.4688
842.9459, 218.7295
843.4280, 220.6621
843.9102, 218.5674
844.3923, 212.5410
844.8744, 203.8555
845.3565, 192.7690
845.8386, 176.1621
846.3207, 169.0073
846.8029, 197.8462
847.2850, 225.3418
847.7671, 214.3604
848.2492, 132.5483
848.7313, 105.1372
849.2134, 147.8174
849.6956, 205.4204
850.1777, 221.2417
850.6598, 206.1030
851.1419, 198.3809
851.6240, 203.3652
852.1061, 207.9014
852.5883, 204.2622
853.0704, 194.1362
853.5525, 175.1880
854.0346, 136.6450
854.5167, 125.1924
854.9988, 157.1567
855.4810, 197.8281
855.9631, 228.1841
856.4452, 248.4346
856.9273, 236.1016
857.4094, 188.2271
857.8915, 142.1816
858.3737, 134.8096
858.8558, 147.0674
859.3379, 156.6094
859.8200, 160.7949
860.3021, 165.7622
860.7842, 164.6353
861.2664, 164.2598
861.7485, 176.3325
862.2306, 204.3462
862.7127, 210.8047
863.1948, 191.1582
863.6769, 170.2588
864.1591, 167.4839
864.6412, 176.0864
865.1233, 181.0122
865.6054, 181.7930
866.0875, 179.1396
866.5696, 171.1865
867.0518, 161.8638
867.5339, 151.9365
868.0160, 141.3853
868.4981, 139.6475
868.9802, 154.1162
869.4623, 161.4868
869.9445, 146.0464
870.4266, 115.6816
870.9087, 102.4199
871.3908, 103.1426
871.8729, 111.2261
872.3550, 136.7812
872.8372, 158.4409
873.3193, 153.9756
873.8014, 128.1704
874.2835, 106.7578
874.7656, 93.97070
875.2477, 85.77881
875.7299, 81.18604
876.2120, 81.08154
876.6941, 88.17432
877.1762, 102.4961
877.6583, 116.5312
878.1404, 128.9521
878.6226, 133.9863
879.1047, 114.7104
879.5868, 81.05859
880.0689, 58.16406
880.5510, 68.71387
881.0331, 76.04492
881.5153, 66.41357
881.9974, 47.65088
882.4795, 33.03320
882.9617, 21.03906
883.4438, 23.98926
883.9259, 49.52197
884.4080, 81.46045
884.8901, 95.90723
885.3723, 97.53955
885.8544, 94.15381
886.3365, 83.55371
886.8186, 71.80469
887.3007, 52.23633
887.7828, 36.90576
888.2650, 45.31934
888.7471, 94.17285
889.2292, 116.2656
889.7113, 99.55518
890.1934, 69.79346
890.6755, 58.43604
891.1577, 61.59180
891.6398, 69.04443
892.1219, 81.38428
892.6040, 88.09668
893.0861, 72.44141
893.5682, 50.82031
894.0504, 40.14551
894.5325, 47.29248
895.0146, 54.75830
895.4967, 64.43018
895.9788, 70.99365
896.4609, 67.23877
896.9431, 55.45166
897.4252, 51.67041
897.9073, 56.92188
898.3894, 60.29150
898.8715, 47.02930
899.3536, 31.18945
899.8358, 25.55322
900.3179, 32.39648
900.8000, 36.06885
901.2821, 31.20166
901.7642, 28.48828
902.2463, 33.35840
902.7285, 44.75098
903.2106, 56.46191
903.6927, 68.33057
904.1748, 77.84814
904.6569, 85.61523
905.1390, 88.78760
905.6212, 82.79150
906.1033, 69.29883
906.5854, 55.20947
907.0675, 32.62256
907.5496, 22.48047
908.0317, 34.66699
908.5139, 60.57812
908.9960, 75.31689
909.4781, 78.76270
909.9602, 75.03418
910.4423, 65.75977
910.9244, 53.10254
911.4066, 32.42383
911.8887, 11.81543
912.3708, 2.049316
912.8529, 16.68750
913.3350, 29.97266
913.8171, 34.32324
914.2993, 37.12061
914.7814, 52.41113
915.2635, 82.56445
915.7456, 92.52393
916.2277, 75.73828
916.7098, 44.91797
917.1920, 2.825195
917.6741, 48.11768
918.1562, 56.37451
918.6383, 7.482422
919.1204, 31.55273
919.6025, 33.63623
920.0847, 24.36572
920.5668, 17.34326
921.0489, 10.54541
921.5310, 27.51074
922.0131, 72.04541
922.4952, 108.2539
922.9774, 96.77588
923.4595, 63.37256
923.9416, 44.41357
924.4237, 41.87256
924.9058, 46.15625
925.3879, 66.42773
925.8701, 79.09863
926.3522, 73.78711
926.8343, 52.22705
927.3164, 24.20166
927.7985, 12.87061
928.2806, 33.51367
928.7628, 16.27783
929.2449, 15.14746
929.7270, 26.03027
930.2091, 20.66846
930.6912, 10.27100
931.1733, 9.581543
931.6555, 22.69971
932.1376, 21.87256
932.6197, 12.26416
933.1018, 0.6982420
933.5839, 18.98584
934.0660, 23.55078
934.5482, 6.190918
935.0303, 10.82520
935.5124, 11.65625
935.9945, 51.82861
936.4766, 68.80127
936.9587, 42.65137
937.4409, 23.09326
937.9230, 32.50049
938.4051, 49.95801
938.8872, 60.79297
939.3693, 65.26953
939.8514, 59.86328
940.3336, 43.26953
940.8157, 26.95068
941.2978, 23.97217
941.7799, 25.41357
942.2620, 13.04688
942.7441, 12.48682
943.2263, 23.64844
943.7084, 12.43066
944.1905, 41.47705
944.6726, 36.53760
945.1547, 5.170410
945.6368, 2.786621
946.1190, 14.05615
946.6011, 30.04834
947.0832, 33.55078
947.5653, 30.38330
948.0474, 28.16895
948.5295, 25.50635
949.0117, 19.13965
949.4938, 2.794922
949.9759, 14.34619
950.4580, 7.092285
950.9401, 9.729004
951.4222, 23.50049
951.9044, 34.30371
952.3865, 40.44678
952.8686, 40.60498
953.3507, 41.13379
953.8328, 56.86426
954.3149, 73.16309
954.7971, 67.02588
955.2792, 23.55713
955.7613, 0.4970700
956.2434, 15.50195
956.7255, 38.10010
957.2076, 45.31787
957.6898, 38.00928
958.1719, 50.69922
958.6540, 83.01221
959.1361, 104.8818
959.6182, 81.20752
960.1003, 49.13281
960.5825, 45.79102
961.0646, 66.92676
961.5467, 80.29785
962.0288, 77.47461
962.5109, 69.59521
962.9930, 56.42041
963.4752, 42.25537
963.9573, 37.98926
964.4394, 42.82617
964.9215, 53.76221
965.4036, 76.32666
965.8857, 91.56787
966.3679, 81.01416
966.8500, 55.43164
967.3321, 27.56201
967.8142, 20.43799
968.2963, 29.70703
968.7784, 14.60840
969.2606, 68.48633
969.7427, 87.15625
970.2248, 76.15625
970.7069, 63.81348
971.1890, 52.45947
971.6711, 44.97559
972.1533, 48.69873
972.6354, 52.50488
973.1175, 46.87256
973.5996, 31.92432
974.0817, 21.91895
974.5638, 14.31250
975.0460, 22.29834
975.5281, 57.88916
976.0102, 103.6919
976.4923, 123.3652
976.9744, 119.4126
977.4565, 106.6187
977.9387, 80.95459
978.4208, 59.83984
978.9029, 51.77051
979.3850, 50.82666
979.8671, 47.59912
980.3492, 39.74951
980.8314, 47.22754
981.3135, 75.50439
981.7956, 103.6475
982.2777, 108.9854
982.7598, 99.91553
983.2419, 86.20605
983.7241, 68.31055
984.2062, 54.63916
984.6883, 45.38770
985.1704, 44.26074
985.6525, 58.09668
986.1346, 82.95850
986.6168, 74.35254
987.0989, 33.67334
987.5810, 6.546387
988.0631, 35.11865
988.5452, 76.63818
989.0273, 89.59229
989.5095, 82.44678
989.9916, 78.08740
990.4737, 84.44775
990.9558, 89.75781
991.4379, 91.78271
991.9200, 91.56738
992.4022, 93.77783
992.8843, 95.11035
993.3664, 81.65625
993.8485, 46.33496
994.3306, 19.92480
994.8127, 32.96631
995.2949, 56.99854
995.7770, 63.73926
996.2591, 49.90723
996.7412, 53.65283
997.2233, 72.37842
997.7054, 91.27393
998.1876, 100.1968
998.6697, 100.5503
999.1518, 91.44043
999.6339, 75.83789
1000.116, 65.39307
1000.598, 68.99854
1001.080, 72.60645
1001.562, 76.03174
1002.044, 76.12744
1002.527, 66.84180
1003.009, 46.66846
1003.491, 38.49121
1003.973, 49.34131
1004.455, 65.86084
1004.937, 73.29199
1005.419, 78.01123
1005.901, 91.23779
1006.384, 121.6318
1006.866, 128.5210
1007.348, 87.06445
1007.830, 52.01611
1008.312, 63.86328
1008.794, 111.4751
1009.276, 121.5581
1009.758, 98.26904
1010.240, 77.02295
1010.723, 79.53418
1011.205, 89.59717
1011.687, 104.7290
1012.169, 118.4316
1012.651, 113.5264
1013.133, 80.41553
1013.615, 55.82617
1014.097, 47.11572
1014.580, 47.04248
1015.062, 43.52930
1015.544, 42.32031
1016.026, 59.83154
1016.508, 104.3125
1016.990, 134.9561
1017.472, 125.2466
1017.954, 105.7310
1018.436, 93.30322
1018.919, 87.65527
1019.401, 80.35156
1019.883, 71.39258
1020.365, 60.60742
1020.847, 41.67920
1021.329, 26.02734
1021.811, 28.25781
1022.293, 42.58301
1022.776, 54.79834
1023.258, 62.42920
1023.740, 67.08057
1024.222, 68.13574
1024.704, 67.53955
1025.186, 72.12646
1025.668, 75.50586
1026.150, 56.33789
1026.632, 11.82373
1027.115, 17.63135
1027.597, 9.900879
1028.079, 47.39014
1028.561, 59.17773
1029.043, 46.84229
1029.525, 61.46973
1030.007, 108.7515
1030.489, 135.5044
1030.972, 105.9531
1031.454, 54.97314
1031.936, 23.44482
1032.418, 8.835449
1032.900, 6.254395
1033.382, 28.95801
1033.864, 42.04492
1034.346, 36.95557
1034.828, 28.12061
1035.311, 34.28467
1035.793, 52.38135
1036.275, 62.14404
1036.757, 61.98486
1037.239, 54.69189
1037.721, 27.80811
1038.203, 7.003418
1038.685, 18.00488
1039.167, 56.60840
1039.650, 75.37305
1040.132, 69.48486
1040.614, 64.32422
1041.096, 69.67285
1041.578, 77.93555
1042.060, 78.68945
1042.542, 73.00293
1043.024, 61.68848
1043.507, 35.80176
1043.989, 23.52588
1044.471, 40.47559
1044.953, 60.21143
1045.435, 57.28906
1045.917, 35.12891
1046.399, 41.27490
1046.881, 74.74268
1047.364, 98.98682
1047.846, 77.96826
1048.328, 49.73047
1048.810, 43.31445
1049.292, 52.68311
1049.774, 46.40674
1050.256, 18.14697
1050.738, 5.384277
1051.220, 20.92773
1051.703, 24.18750
1052.185, 10.06104
1052.667, 54.56836
1053.149, 50.94238
1053.631, 31.88135
1054.113, 67.67725
1054.595, 24.40527
1055.077, 117.2485
1055.559, 144.0908
1056.042, 114.9492
1056.524, 98.74902
1057.006, 93.88428
1057.488, 88.38428
1057.970, 69.20850
1058.452, 49.40479
1058.934, 39.76660
1059.416, 40.74951
1059.899, 54.13818
1060.381, 86.97314
1060.863, 107.0063
1061.345, 111.8130
1061.827, 103.5088
1062.309, 70.10498
1062.791, 32.38623
1063.273, 27.87793
1063.755, 58.57666
1064.238, 78.19141
1064.720, 67.57324
1065.202, 51.16260
1065.684, 30.20215
1066.166, 12.44385
1066.648, 31.64844
1067.130, 76.96045
1067.612, 95.71826
1068.094, 58.17627
1068.577, 22.66211
1069.059, 28.87451
1069.541, 51.05078
1070.023, 62.89502
1070.505, 60.64111
1070.987, 71.14062
1071.469, 96.32178
1071.951, 115.4023
1072.434, 108.8931
1072.916, 92.73926
1073.398, 78.80566
1073.880, 70.85254
1074.362, 81.21680
1074.844, 138.6123
1075.326, 170.1812
1075.808, 162.7031
1076.291, 134.3252
1076.773, 97.69238
1077.255, 62.02979
1077.737, 63.69238
1078.219, 110.1055
1078.701, 143.4526
1079.183, 120.8516
1079.665, 90.41211
1080.147, 75.81787
1080.630, 74.76758
1081.112, 73.79932
1081.594, 72.85498
1082.076, 74.05615
1082.558, 79.80713
1083.040, 85.01318
1083.522, 86.91895
1084.004, 84.72119
1084.486, 76.75732
1084.969, 60.60596
1085.451, 41.43945
1085.933, 14.91846
1086.415, 3.633789
1086.897, 3.724121
1087.379, 23.95264
1087.861, 37.42334
1088.343, 43.68506
1088.826, 43.25098
1089.308, 24.67236
1089.790, 15.53516
1090.272, 24.34326
1090.754, 40.24609
1091.236, 46.88623
1091.718, 45.69434
1092.200, 43.36279
1092.682, 40.92627
1093.165, 36.69141
1093.647, 18.66699
1094.129, 8.314453
1094.611, 22.95752
1095.093, 58.37988
1095.575, 90.74219
1096.057, 120.6714
1096.539, 129.3735
1097.022, 101.4541
1097.504, 65.95508
1097.986, 51.38916
1098.468, 48.59863
1098.950, 45.74756
1099.432, 42.38184
1099.914, 32.48047
1100.396, 11.23926
1100.879, 0.6259770
1101.361, 23.14014
1101.843, 61.40918
1102.325, 68.90381
1102.807, 53.64648
1103.289, 46.97363
1103.771, 73.45850
1104.253, 91.88965
1104.735, 92.51074
1105.218, 85.61719
1105.700, 84.31494
1106.182, 88.20215
1106.664, 99.82617
1107.146, 119.8760
1107.628, 126.5645
1108.110, 85.07275
1108.592, 47.29492
1109.074, 46.65723
1109.557, 74.18555
1110.039, 97.75635
1110.521, 116.1392
1111.003, 114.7314
1111.485, 80.70068
1111.967, 42.91113
1112.449, 37.53613
1112.931, 44.43994
1113.414, 48.48438
1113.896, 49.88232
1114.378, 30.13184
1114.860, 21.69482
1115.342, 46.10400
1115.824, 14.64746
1116.306, 102.5571
1116.788, 128.9194
1117.271, 109.4062
1117.753, 79.02441
1118.235, 24.05811
1118.717, 3.992188
1119.199, 1.609375
1119.681, 26.59717
1120.163, 71.45508
1120.645, 122.1250
1121.127, 131.2905
1121.609, 100.9946
1122.092, 68.66406
1122.574, 52.41943
1123.056, 37.97266
1123.538, 17.77100
1124.020, 1.895020
1124.502, 6.729980
1124.984, 1.710938
1125.466, 10.91260
1125.949, 18.62891
1126.431, 25.53857
1126.913, 38.13477
1127.395, 45.04248
1127.877, 30.48193
1128.359, 0.4448240
1128.841, 0.7617190
1129.323, 31.86523
1129.806, 51.93457
1130.288, 36.38721
1130.770, 15.73682
1131.252, 21.59180
1131.734, 40.82129
1132.216, 57.80713
1132.698, 74.27393
1133.180, 71.73291
1133.662, 44.30225
1134.145, 22.90283
1134.627, 36.02246
1135.109, 61.36963
1135.591, 58.37988
1136.073, 39.11328
1136.555, 34.11621
1137.037, 80.67285
1137.519, 94.42236
1138.001, 56.69043
1138.484, 14.58594
1138.966, 23.33496
1139.448, 64.13086
1139.930, 97.15234
1140.412, 119.2427
1140.894, 123.8569
1141.376, 85.36572
1141.858, 60.10205
1142.341, 71.05664
1142.823, 94.47412
1143.305, 81.09521
1143.787, 42.53955
1144.269, 28.48682
1144.751, 49.89697
1145.233, 74.38574
1145.715, 91.19043
1146.198, 97.64502
1146.680, 88.92773
1147.162, 69.90527
1147.644, 65.69189
1148.126, 75.17383
1148.608, 82.86279
1149.090, 87.56104
1149.572, 81.28760
1150.054, 43.02686
1150.536, 6.042480
1151.019, 5.401367
1151.501, 44.63672
1151.983, 72.42773
1152.465, 88.99316
1152.947, 95.37500
1153.429, 87.74902
1153.911, 74.99805
1154.393, 61.89160
1154.876, 50.72705
1155.358, 46.41504
1155.840, 52.21582
1156.322, 53.06885
1156.804, 46.92236
1157.286, 45.84814
1157.768, 65.70459
1158.250, 91.82568
1158.733, 107.4336
1159.215, 113.4648
1159.697, 114.9805
1160.179, 118.3530
1160.661, 101.0332
1161.143, 51.95166
1161.625, 5.880371
1162.107, 9.558594
1162.589, 40.10352
1163.072, 64.23389
1163.554, 79.05908
1164.036, 78.69922
1164.518, 46.26074
1165.000, 25.67676
1165.482, 29.73633
1165.964, 46.90332
1166.446, 59.96094
1166.928, 69.01025
1167.411, 76.50732
1167.893, 83.51514
1168.375, 79.68457
1168.857, 41.25635
1169.339, 17.68652
1169.821, 37.65283
1170.303, 80.14209
1170.785, 80.69922
1171.268, 50.65186
1171.750, 27.30859
1172.232, 24.09424
1172.714, 23.47803
1173.196, 21.41699
1173.678, 21.81348
1174.160, 20.83252
1174.642, 19.22266
1175.125, 20.91455
1175.607, 26.52344
1176.089, 39.43848
1176.571, 73.29053
1177.053, 99.00146
1177.535, 98.00635
1178.017, 86.66016
1178.499, 77.14746
1178.981, 69.51660
1179.464, 75.06787
1179.946, 92.92383
1180.428, 107.4282
1180.910, 110.1206
1181.392, 105.2759
1181.874, 89.42871
1182.356, 70.16553
1182.838, 59.94434
1183.320, 58.82129
1183.803, 56.13037
1184.285, 51.07520
1184.767, 51.46631
1185.249, 72.61230
1185.731, 92.22510
1186.213, 92.09912
1186.695, 78.24268
1187.177, 68.36670
1187.660, 62.45117
1188.142, 51.26660
1188.624, 31.95752
1189.106, 19.14502
1189.588, 34.42480
1190.070, 53.83154
1190.552, 54.55078
1191.034, 39.65625
1191.516, 38.40869
1191.999, 52.50635
1192.481, 64.54736
1192.963, 70.15479
1193.445, 71.74219
1193.927, 67.29639
1194.409, 63.24023
1194.891, 70.18408
1195.373, 87.70703
1195.855, 88.77734
1196.338, 72.06055
1196.820, 52.06396
1197.302, 32.33789
1197.784, 16.06787
1198.266, 10.04004
1198.748, 7.923828
1199.230, 0.9091800
1199.712, 21.60840
1200.195, 18.88574
1200.677, 10.46826
1201.159, 41.30371
1201.641, 63.91064
1202.123, 76.21924
1202.605, 67.42578
1203.087, 49.59180
1203.569, 43.85742
1204.052, 60.27881
1204.534, 64.51807
1205.016, 55.80566
1205.498, 39.76660
1205.980, 5.401855
1206.462, 22.28857
1206.944, 2.330078
1207.426, 44.63232
1207.908, 68.48242
1208.391, 51.58740
1208.873, 54.24561
1209.355, 84.00977
1209.837, 107.0342
1210.319, 79.21338
1210.801, 40.89111
1211.283, 41.47949
1211.765, 71.96289
1212.247, 97.92432
1212.730, 122.6846
1213.212, 119.2515
1213.694, 79.14551
1214.176, 37.79004
1214.658, 34.80273
1215.140, 45.08154
1215.622, 38.23584
1216.104, 16.63086
1216.587, 3.893555
1217.069, 1.221680
1217.551, 9.345703
1218.033, 30.84863
1218.515, 52.58545
1218.997, 64.73486
1219.479, 65.62598
1219.961, 46.84424
1220.443, 10.71631
1220.926, 7.502441
1221.408, 2.583008
1221.890, 5.153809
1222.372, 11.73145
1222.854, 16.79541
1223.336, 23.70508
1223.818, 26.79834
1224.300, 15.40186
1224.782, 12.14355
1225.265, 25.10400
1225.747, 22.12500
1226.229, 10.05225
1226.711, 10.64502
1227.193, 34.96338
1227.675, 70.70605
1228.157, 98.83154
1228.639, 87.86963
1229.122, 29.34424
1229.604, 3.808594
1230.086, 14.84619
1230.568, 35.39160
1231.050, 57.94531
1231.532, 79.39160
1232.014, 102.5586
1232.496, 118.9639
1232.979, 113.7656
1233.461, 82.88721
1233.943, 67.52051
1234.425, 68.77979
1234.907, 75.57959
1235.389, 87.21729
1235.871, 94.90479
1236.353, 81.90234
1236.835, 64.49268
1237.318, 66.33984
1237.800, 91.77197
1238.282, 110.8174
1238.764, 123.9355
1239.246, 116.9160
1239.728, 62.51123
1240.210, 9.274902
1240.692, 0.3457030
1241.175, 17.33740
1241.657, 36.17871
1242.139, 57.66162
1242.621, 74.21094
1243.103, 86.29492
1243.585, 84.64014
1244.067, 42.90332
1244.549, 7.848633
1245.031, 25.68066
1245.514, 62.02246
1245.996, 60.94580
1246.478, 16.54639
1246.960, 23.01025
1247.442, 78.87646
1247.924, 122.9092
1248.406, 107.5229
1248.888, 77.61865
1249.370, 43.54736
1249.853, 18.80713
1250.335, 29.52295
1250.817, 73.45020
1251.299, 71.71680
1251.781, 26.75439
1252.263, 8.011230
1252.745, 1.003906
1253.227, 20.52734
1253.710, 59.62988
1254.192, 94.44336
1254.674, 86.93848
1255.156, 48.70020
1255.638, 34.30469
1256.120, 44.93848
1256.602, 59.46973
1257.084, 66.86328
1257.567, 76.19434
1258.049, 94.22461
1258.531, 110.4697
1259.013, 108.7588
1259.495, 92.75684
1259.977, 72.80371
1260.459, 51.55176
1260.941, 36.81445
1261.423, 33.77637
1261.906, 34.38965
1262.388, 40.49805
1262.870, 48.76855
1263.352, 49.78027
1263.834, 47.50586
1264.316, 59.63965
1264.798, 92.45117
1265.280, 108.9727
1265.762, 79.45020
1266.245, 59.38086
1266.727, 60.84668
1267.209, 72.54492
1267.691, 81.10547
1268.173, 87.76562
1268.655, 97.36230
1269.137, 109.4883
1269.619, 106.5205
1270.102, 73.95312
1270.584, 65.86621
1271.066, 100.4082
1271.548, 138.8408
1272.030, 130.3633
1272.512, 100.2402
1272.994, 70.15137
1273.476, 43.72266
1273.958, 28.30762
1274.441, 25.26172
1274.923, 34.21680
1275.405, 58.87695
1275.887, 83.55176
1276.369, 97.19238
1276.851, 99.35156
1277.333, 83.40527
1277.815, 50.38281
1278.297, 27.69434
1278.780, 12.87793
1279.262, 7.692383
1279.744, 13.70117
1280.226, 23.71582
1280.708, 34.25195
1281.190, 44.66797
1281.672, 54.06445
1282.154, 63.00293
1282.637, 77.38770
1283.119, 95.43359
1283.601, 97.73633
1284.083, 78.23242
1284.565, 58.26855
1285.047, 50.87402
1285.529, 46.44434
1286.011, 39.97461
1286.494, 32.84668
1286.976, 28.25293
1287.458, 26.43164
1287.940, 30.59863
1288.422, 43.18945
1288.904, 46.13281
1289.386, 14.20312
1289.868, 1.287109
1290.350, 23.31934
1290.833, 64.04492
1291.315, 75.25781
1291.797, 66.91016
1292.279, 54.99414
1292.761, 42.13477
1293.243, 27.47852
1293.725, 4.559570
1294.207, 1.794922
1294.689, 22.38672
1295.172, 52.94434
1295.654, 48.44727
1296.136, 31.84668
1296.618, 37.78125
1297.100, 76.58594
1297.582, 87.05078
1298.064, 65.08984
1298.546, 35.74414
1299.029, 11.78027
1299.511, 1.654297
1299.993, 10.88867
1300.475, 33.68945
1300.957, 57.40430
1301.439, 59.26074
1301.921, 41.63184
1302.403, 0.0000000E+00
##END=



