##NAMES=Kotoite
##RRUFFID=R060940
##IDEAL CHEMISTRY=Mg_3_(BO_3_)_2_
##LOCALITY=Hol Kol mine, Samdung, near Pyongyang, Suan County, North Korea
##OWNER=RRUFF
##SOURCE=Michael Scott
##DESCRIPTION=Aggregate of pale green micro grains
##STATUS=The identification of this mineral is confirmed by single-crystal X-ray diffraction and chemical analysis.
##URL=rruff.info/R060940
##MEASURED CHEMISTRY=(Mg_2.98_Fe_0.02_)_Î£=3_(BO_3_)_2_ ; trace amounts of Mn; B_2_O_3_ estimated by difference
158.1689, 0.0000000E+00
158.6510, 7.233032
159.1331, 3.430511
159.6152, 0.2447050
160.0974, 7.399002
160.5795, 13.78200
161.0616, 13.93970
161.5437, 9.924301
162.0258, 6.760757
162.5079, 7.774551
162.9901, 11.92984
163.4722, 13.48650
163.9543, 9.359421
164.4364, 6.112946
164.9185, 6.941315
165.4006, 10.70650
165.8828, 14.47531
166.3649, 17.66370
166.8470, 18.33738
167.3291, 16.87834
167.8112, 10.90057
168.2933, 6.294067
168.7755, 7.021599
169.2576, 11.67890
169.7397, 15.27059
170.2218, 14.47658
170.7039, 10.44269
171.1860, 8.864372
171.6682, 12.81831
172.1503, 16.08774
172.6324, 15.05637
173.1145, 10.41867
173.5966, 5.378586
174.0787, 1.171547
174.5609, 1.134293
175.0430, 0.2277830
175.5251, 10.10847
176.0072, 19.28511
176.4893, 22.16607
176.9714, 20.01233
177.4536, 18.20807
177.9357, 20.36874
178.4178, 25.11128
178.8999, 27.37804
179.3820, 25.07521
179.8641, 22.59280
180.3463, 23.79667
180.8284, 28.21104
181.3105, 30.17649
181.7926, 26.37405
182.2747, 19.00783
182.7568, 14.32345
183.2390, 12.32111
183.7211, 13.02013
184.2032, 19.16618
184.6853, 29.86508
185.1674, 35.79898
185.6495, 30.25742
186.1316, 19.23541
186.6138, 17.28832
187.0959, 25.41631
187.5780, 31.96460
188.0601, 32.85125
188.5422, 28.72610
189.0243, 22.83831
189.5065, 15.05182
189.9886, 7.339500
190.4707, 3.630142
190.9528, 6.669769
191.4349, 9.789818
191.9170, 9.441650
192.3992, 6.338470
192.8813, 5.176437
193.3634, 9.068672
193.8455, 14.93131
194.3276, 17.24402
194.8097, 14.44763
195.2919, 11.41517
195.7740, 12.04543
196.2561, 15.70409
196.7382, 18.83144
197.2203, 20.18784
197.7024, 20.68693
198.1846, 22.09298
198.6667, 25.08636
199.1488, 27.17506
199.6309, 26.35423
200.1130, 23.18638
200.5951, 21.61266
201.0773, 24.74017
201.5594, 28.22087
202.0415, 25.05944
202.5236, 13.18875
203.0057, 4.201927
203.4878, 9.341965
203.9700, 25.54170
204.4521, 35.16689
204.9342, 30.49042
205.4163, 20.31832
205.8984, 15.69685
206.3805, 17.05345
206.8626, 19.81112
207.3448, 21.77189
207.8269, 22.98044
208.3090, 24.12222
208.7911, 26.31051
209.2732, 27.11742
209.7553, 22.51747
210.2375, 12.43614
210.7196, 5.243034
211.2017, 8.569382
211.6838, 18.84314
212.1659, 24.17509
212.6480, 21.36390
213.1302, 14.54641
213.6123, 6.764847
214.0944, 1.899971
214.5765, 8.283165
215.0586, 10.94299
215.5407, 10.18915
216.0229, 5.667526
216.5050, 4.137939
216.9871, 13.70332
217.4692, 17.48266
217.9513, 16.59091
218.4334, 14.76468
218.9156, 13.07287
219.3977, 11.52125
219.8798, 9.919014
220.3619, 7.986107
220.8440, 6.774727
221.3261, 8.712227
221.8083, 12.51001
222.2904, 13.73701
222.7725, 7.718452
223.2546, 0.5688510
223.7367, 2.863464
224.2188, 2.174694
224.7010, 8.815464
225.1831, 13.89975
225.6652, 17.35395
226.1473, 18.40186
226.6294, 14.50227
227.1115, 9.422832
227.5937, 8.172062
228.0758, 11.15321
228.5579, 14.17618
229.0400, 13.65328
229.5221, 11.44806
230.0042, 11.56335
230.4863, 17.97830
230.9685, 24.48738
231.4506, 24.69464
231.9327, 18.76348
232.4148, 12.08787
232.8969, 6.573807
233.3790, 3.147392
233.8612, 3.279907
234.3433, 9.799084
234.8254, 16.48909
235.3075, 18.54201
235.7896, 16.59206
236.2717, 14.87337
236.7539, 15.85209
237.2360, 17.64027
237.7181, 15.87547
238.2002, 7.981274
238.6823, 1.808067
239.1644, 2.929878
239.6466, 9.297127
240.1287, 14.55731
240.6108, 16.38435
241.0929, 16.14246
241.5750, 15.99556
242.0571, 15.74074
242.5393, 16.76347
243.0214, 22.87056
243.5035, 30.80355
243.9856, 32.36405
244.4677, 23.61205
244.9498, 13.47149
245.4320, 17.92871
245.9141, 39.64803
246.3962, 55.22092
246.8783, 56.30728
247.3604, 49.84946
247.8425, 43.01283
248.3247, 36.92119
248.8068, 34.24792
249.2889, 39.22770
249.7710, 53.23908
250.2531, 64.04507
250.7352, 72.09838
251.2174, 75.87440
251.6995, 72.52445
252.1816, 62.21164
252.6637, 49.31603
253.1458, 36.64653
253.6279, 24.22469
254.1100, 17.93833
254.5922, 24.46210
255.0743, 31.16599
255.5564, 28.29433
256.0385, 17.93883
256.5206, 10.75158
257.0027, 15.33919
257.4849, 30.18542
257.9670, 35.44163
258.4491, 23.58775
258.9312, 12.19124
259.4133, 6.814388
259.8954, 6.550262
260.3776, 9.619781
260.8597, 15.52600
261.3418, 23.02911
261.8239, 27.02932
262.3060, 24.68099
262.7881, 22.32088
263.2703, 19.85065
263.7524, 18.13215
264.2345, 18.81039
264.7166, 22.51942
265.1987, 27.50584
265.6808, 30.18991
266.1630, 28.73566
266.6451, 27.43820
267.1272, 27.87112
267.6093, 27.50922
268.0914, 22.45285
268.5735, 12.55094
269.0557, 3.365070
269.5378, 2.976406
270.0199, 16.89693
270.5020, 23.98594
270.9841, 20.01380
271.4662, 14.12395
271.9484, 10.45652
272.4305, 9.369968
272.9126, 9.919762
273.3947, 11.63201
273.8768, 15.00546
274.3589, 16.56415
274.8411, 12.81564
275.3232, 9.745262
275.8053, 9.455429
276.2874, 11.23706
276.7695, 13.71072
277.2516, 15.91232
277.7338, 17.38459
278.2159, 17.00840
278.6980, 13.12536
279.1801, 9.646324
279.6622, 7.310127
280.1443, 5.891720
280.6265, 5.262882
281.1086, 5.306061
281.5907, 5.541500
282.0728, 4.654999
282.5549, 0.5170250
283.0370, 9.5291004E-02
283.5192, 9.784187
284.0013, 20.65479
284.4834, 25.66387
284.9655, 23.07276
285.4476, 16.78130
285.9297, 9.668732
286.4118, 1.295063
286.8940, 2.866516
287.3761, 1.022480
287.8582, 6.981060
288.3403, 12.43097
288.8224, 16.83394
289.3045, 18.43861
289.7867, 13.03615
290.2688, 2.847977
290.7509, 0.4423980
291.2330, 7.313831
291.7151, 16.34985
292.1972, 20.07088
292.6794, 19.68255
293.1615, 18.18163
293.6436, 16.15898
294.1257, 13.94148
294.6078, 11.73516
295.0899, 9.368046
295.5721, 8.186996
296.0542, 9.842979
296.5363, 13.08398
297.0184, 15.53802
297.5005, 18.15678
297.9826, 18.49205
298.4648, 11.62278
298.9469, 0.6563530
299.4290, 7.259312
299.9111, 1.540649
300.3932, 10.78473
300.8753, 17.50207
301.3575, 17.61058
301.8396, 15.68995
302.3217, 11.58048
302.8038, 6.864914
303.2859, 4.327000
303.7680, 4.724468
304.2502, 7.305180
304.7323, 11.69030
305.2144, 18.95683
305.6965, 23.59650
306.1786, 23.24968
306.6607, 21.47616
307.1429, 21.85983
307.6250, 24.29528
308.1071, 25.75168
308.5892, 23.31090
309.0713, 16.69043
309.5534, 10.70950
310.0356, 3.704220
310.5177, 1.142986
310.9998, 1.518723
311.4819, 1.191460
311.9640, 4.194687
312.4461, 5.976284
312.9283, 6.944427
313.4104, 7.142342
313.8925, 4.029346
314.3746, 3.036743
314.8567, 6.123856
315.3388, 10.83474
315.8210, 15.42158
316.3031, 19.13702
316.7852, 20.95454
317.2673, 18.37484
317.7494, 8.111259
318.2315, 2.198090
318.7137, 4.868744
319.1958, 8.764545
319.6779, 8.904778
320.1600, 5.682167
320.6421, 2.998585
321.1242, 5.179050
321.6064, 11.99330
322.0885, 15.46170
322.5706, 13.78675
323.0527, 10.89412
323.5348, 6.682148
324.0169, 2.750511
324.4991, 2.327896
324.9812, 8.453194
325.4633, 17.30124
325.9454, 21.31038
326.4275, 19.48650
326.9096, 16.93302
327.3918, 14.29997
327.8739, 12.87604
328.3560, 15.00758
328.8381, 22.41457
329.3202, 28.26599
329.8023, 25.19841
330.2844, 15.13796
330.7665, 7.889992
331.2487, 6.448284
331.7308, 7.717766
332.2129, 8.648632
332.6950, 9.338226
333.1771, 8.442616
333.6592, 2.675800
334.1414, 3.584217
334.6235, 4.074043
335.1056, 1.910526
335.5877, 9.834232
336.0698, 16.81573
336.5519, 22.61173
337.0341, 25.61427
337.5162, 25.63427
337.9983, 23.16490
338.4804, 15.77696
338.9625, 5.960041
339.4446, 0.3372690
339.9268, 2.730381
340.4089, 10.00583
340.8910, 12.87700
341.3731, 3.820740
341.8552, 9.7103000E-02
342.3373, 7.183369
342.8195, 17.15239
343.3016, 20.66721
343.7837, 16.19637
344.2658, 9.177216
344.7479, 6.645473
345.2300, 10.75446
345.7122, 12.42917
346.1943, 8.639744
346.6764, 5.620193
347.1585, 5.668911
347.6406, 8.654457
348.1227, 13.41199
348.6049, 20.23056
349.0870, 27.57754
349.5691, 27.44752
350.0512, 12.63921
350.5333, 3.553516
351.0154, 10.16637
351.4976, 22.88319
351.9797, 31.77930
352.4618, 33.63363
352.9439, 32.86012
353.4260, 34.07645
353.9081, 37.28493
354.3903, 42.17487
354.8724, 49.84387
355.3545, 57.97913
355.8366, 66.13457
356.3187, 73.95606
356.8008, 76.67788
357.2830, 67.28419
357.7651, 53.07113
358.2472, 46.19450
358.7293, 48.33125
359.2114, 51.06926
359.6935, 48.78986
360.1757, 41.83794
360.6578, 33.66055
361.1399, 19.94363
361.6220, 9.284111
362.1041, 9.560188
362.5862, 16.73092
363.0684, 19.90543
363.5505, 13.91919
364.0326, 3.601479
364.5147, 1.074394
364.9968, 2.286118
365.4789, 5.719090
365.9611, 9.856956
366.4432, 13.30283
366.9253, 14.47427
367.4074, 13.40891
367.8895, 11.80350
368.3716, 11.55778
368.8538, 13.04604
369.3359, 11.58936
369.8180, 1.635563
370.3001, 5.503662
370.7822, 5.199442
371.2643, 0.3594550
371.7465, 4.318325
372.2286, 6.509605
372.7107, 7.225361
373.1928, 8.687309
373.6749, 11.29936
374.1570, 13.49889
374.6392, 16.71470
375.1213, 18.18637
375.6034, 13.99183
376.0855, 4.272537
376.5676, 3.415472
377.0497, 0.9103930
377.5318, 9.171940
378.0139, 14.73527
378.4961, 13.21193
378.9782, 11.03919
379.4603, 14.17293
379.9424, 19.81038
380.4245, 22.56335
380.9066, 18.40992
381.3888, 13.20597
381.8709, 12.64894
382.3530, 15.82275
382.8351, 17.68176
383.3172, 15.61970
383.7993, 11.62187
384.2815, 10.35329
384.7636, 12.86659
385.2457, 14.97635
385.7278, 15.19623
386.2099, 15.10168
386.6920, 17.28293
387.1742, 21.65644
387.6563, 24.46141
388.1384, 21.44392
388.6205, 11.95210
389.1026, 6.525383
389.5847, 8.916273
390.0669, 11.00829
390.5490, 9.526798
391.0311, 6.408546
391.5132, 5.115784
391.9953, 7.165131
392.4774, 10.77561
392.9596, 11.71734
393.4417, 7.987049
393.9238, 6.568245
394.4059, 11.77180
394.8880, 17.04610
395.3701, 17.41493
395.8523, 13.27391
396.3344, 9.963188
396.8165, 12.47395
397.2986, 19.00318
397.7807, 23.71564
398.2628, 27.01127
398.7450, 26.76204
399.2271, 17.37975
399.7092, 4.302471
400.1913, 1.891289
400.6734, 3.945826
401.1555, 11.64813
401.6377, 15.35948
402.1198, 15.46354
402.6019, 12.06358
403.0840, 4.322338
403.5661, 3.580452
404.0482, 4.784822
404.5304, 3.467430
405.0125, 8.101076
405.4946, 3.545652
405.9767, 0.9148060
406.4588, 3.507797
406.9409, 14.74750
407.4231, 23.10560
407.9052, 21.36063
408.3873, 11.84701
408.8694, 8.252672
409.3515, 17.64513
409.8336, 23.60178
410.3158, 22.33940
410.7979, 17.98649
411.2800, 13.60968
411.7621, 10.29380
412.2442, 8.607595
412.7263, 10.54337
413.2085, 16.35907
413.6906, 19.86889
414.1727, 20.59243
414.6548, 19.12923
415.1369, 13.49936
415.6190, 6.283684
416.1012, 3.594831
416.5833, 10.69102
417.0654, 19.94554
417.5475, 21.12113
418.0296, 14.89586
418.5117, 10.61872
418.9939, 12.78131
419.4760, 17.26155
419.9581, 16.64287
420.4402, 10.10247
420.9223, 4.064833
421.4044, 3.172478
421.8865, 7.282749
422.3687, 0.5143260
422.8508, 15.93972
423.3329, 29.98898
423.8150, 31.78144
424.2971, 22.36102
424.7792, 14.50136
425.2614, 6.520061
425.7435, 2.157690
426.2256, 3.695120
426.7077, 8.399557
427.1898, 14.24869
427.6719, 20.31993
428.1541, 24.68200
428.6362, 25.01345
429.1183, 20.93248
429.6004, 17.41304
430.0825, 14.42643
430.5646, 12.18096
431.0468, 11.14735
431.5289, 10.85058
432.0110, 10.11406
432.4931, 7.724415
432.9752, 5.548374
433.4573, 7.209940
433.9395, 12.53975
434.4216, 15.22564
434.9037, 12.87905
435.3858, 7.819473
435.8679, 2.810108
436.3500, 2.766096
436.8322, 4.946589
437.3143, 0.6220780
437.7964, 7.927122
438.2785, 10.72206
438.7606, 8.938612
439.2427, 6.151428
439.7249, 4.615597
440.2070, 4.410028
440.6891, 6.039719
441.1712, 13.65821
441.6533, 18.00817
442.1354, 14.12312
442.6176, 8.731873
443.0997, 9.993771
443.5818, 18.84847
444.0639, 27.62062
444.5460, 26.21867
445.0281, 14.13507
445.5103, 7.651306
445.9924, 10.00804
446.4745, 13.48087
446.9566, 14.65419
447.4387, 14.47277
447.9208, 14.48868
448.4030, 15.31798
448.8851, 16.18487
449.3672, 16.05308
449.8493, 15.16633
450.3314, 15.01128
450.8135, 16.26781
451.2957, 17.64835
451.7778, 17.63995
452.2599, 16.47440
452.7420, 15.08976
453.2241, 12.93739
453.7062, 11.03279
454.1884, 9.843929
454.6705, 9.416418
455.1526, 9.924824
455.6347, 11.53527
456.1168, 13.72417
456.5989, 15.07796
457.0811, 14.87181
457.5632, 15.11879
458.0453, 15.48000
458.5274, 16.59302
459.0095, 20.33488
459.4916, 25.45415
459.9738, 27.19606
460.4559, 19.95102
460.9380, 7.528879
461.4201, 3.470146
461.9022, 10.46715
462.3843, 16.72651
462.8665, 15.67427
463.3486, 11.81646
463.8307, 11.09904
464.3128, 14.79426
464.7949, 17.42363
465.2770, 14.65227
465.7591, 9.669855
466.2412, 8.238522
466.7234, 10.98087
467.2055, 13.09049
467.6876, 10.34356
468.1697, 3.310316
468.6518, 0.5533730
469.1339, 2.251554
469.6161, 7.3862001E-02
470.0982, 12.05981
470.5803, 25.95119
471.0624, 32.12529
471.5445, 29.53696
472.0266, 22.53311
472.5088, 14.44624
472.9909, 4.777895
473.4730, 2.890436
473.9551, 13.81612
474.4372, 25.76405
474.9193, 36.42059
475.4015, 44.30283
475.8836, 46.91489
476.3657, 43.02226
476.8478, 35.27139
477.3299, 22.51838
477.8120, 7.191351
478.2942, 1.074835
478.7763, 8.627275
479.2584, 18.43846
479.7405, 18.55354
480.2226, 9.146267
480.7047, 3.299282
481.1869, 3.859144
481.6690, 5.363897
482.1511, 5.171888
482.6332, 4.054781
483.1153, 3.537521
483.5974, 4.224024
484.0796, 5.825287
484.5617, 7.829073
485.0438, 10.07744
485.5259, 13.26382
486.0080, 20.13108
486.4901, 25.27579
486.9723, 25.42154
487.4544, 22.34636
487.9365, 19.47802
488.4186, 17.70491
488.9007, 18.22256
489.3828, 25.18707
489.8650, 37.96808
490.3471, 44.43680
490.8292, 39.47707
491.3113, 30.46180
491.7934, 26.58043
492.2755, 27.62845
492.7577, 26.67328
493.2398, 19.56877
493.7219, 12.48214
494.2040, 8.829932
494.6861, 8.313316
495.1682, 10.69713
495.6504, 15.54993
496.1325, 21.11999
496.6146, 23.73865
497.0967, 21.71264
497.5788, 20.51073
498.0609, 20.57693
498.5431, 20.99417
499.0252, 22.06430
499.5073, 23.12307
499.9894, 22.55505
500.4715, 18.87867
500.9536, 14.31356
501.4358, 12.69975
501.9179, 14.07953
502.4000, 15.37384
502.8821, 15.28630
503.3642, 15.44512
503.8463, 18.95247
504.3285, 25.68791
504.8106, 29.30737
505.2927, 25.49482
505.7748, 20.79778
506.2569, 20.85017
506.7390, 24.10228
507.2212, 26.03127
507.7033, 24.59529
508.1854, 20.24380
508.6675, 13.07181
509.1496, 0.9337390
509.6317, 8.209343
510.1138, 6.149028
510.5959, 0.2094640
511.0781, 11.32304
511.5602, 24.58528
512.0423, 31.14960
512.5244, 25.07576
513.0065, 13.93541
513.4886, 7.930115
513.9708, 7.029206
514.4529, 12.18338
514.9350, 27.50354
515.4171, 42.39044
515.8992, 41.97681
516.3813, 27.14338
516.8635, 16.88400
517.3456, 18.15282
517.8277, 20.48548
518.3098, 15.56042
518.7919, 6.898659
519.2740, 3.038002
519.7562, 7.441843
520.2383, 16.02488
520.7204, 22.22383
521.2025, 25.62263
521.6846, 28.07921
522.1667, 29.00884
522.6489, 29.49874
523.1310, 30.14071
523.6131, 30.55560
524.0952, 29.69636
524.5773, 26.58859
525.0594, 23.79010
525.5416, 27.21193
526.0237, 34.47806
526.5058, 30.65375
526.9879, 9.214567
527.4700, 11.38827
527.9521, 12.61114
528.4343, 5.733758
528.9164, 17.82944
529.3985, 19.74692
529.8806, 19.94886
530.3627, 20.70801
530.8448, 22.08025
531.3270, 24.93805
531.8091, 29.13318
532.2912, 31.57250
532.7733, 27.49024
533.2554, 16.49843
533.7375, 10.02939
534.2197, 10.80544
534.7018, 11.86921
535.1839, 8.725904
535.6660, 5.052002
536.1481, 6.150545
536.6302, 13.91040
537.1124, 21.91329
537.5945, 26.26241
538.0766, 27.75814
538.5587, 27.27589
539.0408, 25.00601
539.5229, 23.09042
540.0051, 23.51146
540.4872, 25.43938
540.9693, 24.24093
541.4514, 13.51811
541.9335, 8.356425
542.4156, 14.98971
542.8978, 23.79894
543.3799, 26.26281
543.8620, 22.40929
544.3441, 18.26511
544.8262, 18.86327
545.3083, 22.33556
545.7905, 22.63572
546.2726, 19.13549
546.7547, 16.01857
547.2368, 15.51019
547.7189, 15.16531
548.2010, 11.28795
548.6832, 3.655329
549.1653, 2.081125
549.6474, 5.953540
550.1295, 6.122571
550.6116, 2.300512
551.0938, 15.88966
551.5759, 24.97341
552.0580, 25.19738
552.5401, 19.63519
553.0222, 13.96773
553.5043, 6.544385
553.9865, 4.106618
554.4686, 12.07603
554.9507, 19.89141
555.4328, 22.44568
555.9149, 22.41675
556.3970, 25.33669
556.8792, 34.50287
557.3613, 42.49353
557.8434, 39.62531
558.3255, 28.94955
558.8076, 21.39535
559.2897, 19.16443
559.7719, 18.55528
560.2540, 15.89788
560.7361, 11.57788
561.2182, 11.95069
561.7003, 10.75656
562.1824, 24.64828
562.6646, 32.27881
563.1467, 33.98118
563.6288, 12.00811
564.1109, 20.60618
564.5930, 16.95220
565.0751, 12.79555
565.5573, 25.69526
566.0394, 7.163881
566.5215, 19.79257
567.0036, 19.83359
567.4857, 25.10999
567.9678, 18.18772
568.4500, 14.45424
568.9321, 18.79432
569.4142, 21.38280
569.8963, 16.04414
570.3784, 11.81322
570.8605, 19.69529
571.3427, 34.57734
571.8248, 41.37486
572.3069, 32.72626
572.7890, 18.03529
573.2711, 15.91745
573.7532, 32.71595
574.2354, 39.63823
574.7175, 27.55725
575.1996, 15.48632
575.6817, 11.77677
576.1638, 13.23691
576.6459, 13.85117
577.1281, 11.29132
577.6101, 9.507986
578.0922, 14.26069
578.5743, 21.70626
579.0565, 21.14529
579.5386, 11.05190
580.0207, 2.843795
580.5028, 6.183561
580.9849, 18.57748
581.4670, 24.46279
581.9492, 14.78572
582.4313, 10.28731
582.9134, 17.08045
583.3955, 25.56226
583.8776, 27.95995
584.3597, 24.67028
584.8419, 20.99733
585.3240, 19.08038
585.8061, 19.19750
586.2882, 22.48983
586.7703, 27.97823
587.2524, 31.20530
587.7346, 30.99640
588.2167, 27.89232
588.6988, 21.01861
589.1809, 9.876447
589.6630, 4.179669
590.1451, 9.486130
590.6273, 14.35956
591.1094, 11.86862
591.5915, 6.961515
592.0736, 8.033914
592.5557, 16.64784
593.0378, 25.07520
593.5200, 23.38354
594.0021, 13.20361
594.4842, 11.75380
594.9663, 23.27972
595.4484, 30.12851
595.9305, 19.25732
596.4127, 3.394328
596.8948, 3.157772
597.3769, 22.37067
597.8590, 33.66993
598.3411, 21.49051
598.8232, 4.542218
599.3054, 1.782890
599.7875, 0.6550000
600.2696, 3.174074
600.7517, 1.736509
601.2338, 6.0823001E-02
601.7159, 5.988326
602.1981, 22.14278
602.6802, 32.05295
603.1623, 32.93633
603.6444, 30.86712
604.1265, 26.65142
604.6086, 22.21386
605.0908, 21.03203
605.5729, 24.68622
606.0550, 28.53233
606.5371, 31.02133
607.0192, 31.22099
607.5013, 27.12491
607.9835, 19.35738
608.4656, 11.02455
608.9477, 2.757385
609.4298, 3.358546
609.9119, 1.252362
610.3940, 14.52867
610.8762, 24.72458
611.3583, 26.61338
611.8404, 24.06159
612.3225, 15.61293
612.8046, 4.353015
613.2867, 3.048487
613.7689, 4.028187
614.2510, 0.6990710
614.7331, 7.803184
615.2152, 18.78966
615.6973, 26.30721
616.1794, 29.28505
616.6616, 28.10963
617.1437, 22.28814
617.6258, 12.92254
618.1079, 7.208345
618.5900, 8.292826
619.0721, 8.262361
619.5543, 4.329018
620.0364, 0.8759320
620.5185, 1.397138
621.0006, 5.288246
621.4827, 9.381941
621.9648, 12.29913
622.4470, 14.37147
622.9291, 15.00217
623.4112, 14.95656
623.8933, 18.34265
624.3754, 26.55900
624.8575, 34.05392
625.3397, 35.53640
625.8218, 31.12772
626.3039, 24.50528
626.7860, 11.24523
627.2681, 1.512281
627.7502, 4.174586
628.2324, 5.324472
628.7145, 1.719838
629.1966, 14.83371
629.6787, 23.65639
630.1608, 18.75758
630.6429, 8.484647
631.1251, 6.000925
631.6072, 10.21747
632.0893, 13.95114
632.5714, 14.97021
633.0535, 15.96107
633.5356, 20.65516
634.0178, 29.52751
634.4999, 32.45269
634.9820, 24.78428
635.4641, 17.33873
635.9462, 10.16154
636.4283, 5.485474
636.9105, 7.654860
637.3926, 15.68340
637.8747, 21.17210
638.3568, 15.95302
638.8389, 6.049932
639.3210, 2.734397
639.8032, 5.998701
640.2853, 10.90445
640.7674, 16.61421
641.2495, 20.35235
641.7316, 17.77542
642.2137, 7.902287
642.6959, 3.163880
643.1780, 7.037026
643.6601, 11.36589
644.1422, 12.86070
644.6243, 14.78569
645.1064, 23.62062
645.5886, 38.38263
646.0707, 46.97910
646.5528, 35.43046
647.0349, 15.16811
647.5170, 6.933717
647.9991, 9.491755
648.4813, 12.69402
648.9634, 13.55681
649.4455, 12.64329
649.9276, 9.981112
650.4097, 5.022420
650.8918, 4.430991
651.3740, 14.99229
651.8561, 21.36218
652.3382, 16.84932
652.8203, 8.769855
653.3024, 3.014910
653.7845, 0.9880590
654.2667, 3.665251
654.7488, 15.80860
655.2309, 30.55480
655.7130, 38.09422
656.1951, 38.78679
656.6772, 32.91640
657.1594, 19.49473
657.6415, 6.338015
658.1236, 2.653733
658.6057, 8.977457
659.0878, 13.21877
659.5699, 13.21834
660.0521, 13.87916
660.5342, 17.30338
661.0163, 20.82312
661.4984, 22.60461
661.9805, 22.21659
662.4626, 19.20853
662.9448, 9.044755
663.4269, 0.5321470
663.9090, 2.672512
664.3911, 14.54096
664.8732, 20.68572
665.3553, 17.05247
665.8375, 9.079453
666.3196, 1.662284
666.8017, 5.044639
667.2838, 7.220368
667.7659, 1.159408
668.2480, 4.255239
668.7301, 7.934055
669.2122, 9.897817
669.6943, 8.755004
670.1765, 5.392959
670.6586, 4.400228
671.1407, 9.771104
671.6228, 15.83559
672.1049, 18.03544
672.5870, 17.40950
673.0692, 16.22922
673.5513, 15.01265
674.0334, 12.87533
674.5155, 8.468335
674.9976, 2.900735
675.4797, 3.009892
675.9619, 11.73213
676.4440, 18.16092
676.9261, 18.99076
677.4082, 18.14184
677.8903, 18.35576
678.3724, 19.33922
678.8546, 19.80333
679.3367, 18.98639
679.8188, 18.19670
680.3009, 18.87940
680.7830, 19.57594
681.2651, 18.02915
681.7473, 14.31363
682.2294, 10.45159
682.7115, 7.779421
683.1936, 6.051930
683.6757, 4.580201
684.1578, 3.301206
684.6400, 2.599689
685.1221, 1.641114
685.6042, 2.791922
686.0863, 10.61773
686.5684, 22.71521
687.0505, 28.57548
687.5327, 24.48326
688.0148, 20.15410
688.4969, 17.45453
688.9790, 15.63430
689.4611, 13.67408
689.9432, 12.08422
690.4254, 12.22373
690.9075, 14.74209
691.3896, 19.33693
691.8717, 28.71730
692.3538, 40.79016
692.8359, 41.63386
693.3181, 28.64772
693.8002, 14.55130
694.2823, 6.083071
694.7644, 1.867721
695.2465, 1.864317
695.7286, 9.900190
696.2108, 9.466315
696.6929, 8.576585
697.1750, 25.22873
697.6571, 32.55143
698.1392, 32.56634
698.6213, 27.44594
699.1035, 17.65993
699.5856, 9.904879
700.0677, 11.12014
700.5498, 16.59515
701.0319, 19.54979
701.5140, 19.96892
701.9962, 17.83173
702.4783, 12.82421
702.9604, 8.121504
703.4425, 8.577003
703.9246, 14.87561
704.4067, 19.35280
704.8889, 21.68937
705.3710, 22.76803
705.8531, 21.61196
706.3352, 20.17939
706.8173, 20.56354
707.2994, 22.78102
707.7816, 24.47836
708.2637, 24.61532
708.7458, 24.21036
709.2279, 24.08556
709.7100, 23.82153
710.1921, 22.95446
710.6743, 21.36149
711.1564, 19.06468
711.6385, 15.82662
712.1206, 12.16495
712.6027, 10.01184
713.0848, 9.537469
713.5670, 8.922984
714.0491, 7.691407
714.5312, 6.380987
715.0133, 4.996715
715.4954, 3.814734
715.9775, 4.612905
716.4597, 8.880522
716.9418, 12.99612
717.4239, 18.02495
717.9060, 21.31947
718.3881, 19.15831
718.8702, 13.56208
719.3524, 10.46628
719.8345, 13.15547
720.3166, 16.38688
720.7987, 12.87497
721.2808, 5.633616
721.7629, 2.989382
722.2451, 5.612026
722.7272, 10.97162
723.2093, 18.37199
723.6914, 25.42471
724.1735, 26.59813
724.6556, 19.00467
725.1378, 14.66370
725.6199, 17.98750
726.1020, 19.66057
726.5841, 14.22837
727.0662, 6.553763
727.5483, 2.791170
728.0305, 3.844286
728.5126, 5.313007
728.9947, 5.415824
729.4768, 5.426920
729.9589, 6.695112
730.4410, 8.496589
730.9232, 9.464054
731.4053, 9.241291
731.8874, 8.263415
732.3695, 6.322461
732.8516, 4.336729
733.3337, 6.902805
733.8159, 14.61160
734.2980, 17.65924
734.7801, 12.06967
735.2622, 4.831499
735.7443, 2.014085
736.2264, 3.431561
736.7086, 6.685879
737.1907, 15.19786
737.6728, 20.67612
738.1549, 21.36593
738.6370, 19.57975
739.1191, 14.70986
739.6013, 8.891825
740.0834, 7.471982
740.5655, 13.93040
741.0476, 20.28983
741.5297, 17.99177
742.0118, 12.04690
742.4940, 11.29800
742.9761, 15.74034
743.4582, 20.66436
743.9403, 23.77141
744.4224, 25.55423
744.9045, 27.46345
745.3867, 29.91922
745.8688, 26.39690
746.3509, 11.70393
746.8330, 4.172577
747.3151, 17.90334
747.7972, 37.54662
748.2794, 40.21715
748.7615, 24.69408
749.2436, 13.05318
749.7257, 8.467586
750.2078, 7.303375
750.6899, 12.52905
751.1721, 17.69863
751.6542, 12.21689
752.1363, 2.378921
752.6184, 10.92623
753.1005, 1.558687
753.5826, 14.85208
754.0648, 27.37355
754.5469, 35.83086
755.0290, 35.60525
755.5111, 26.22854
755.9932, 14.58978
756.4753, 4.952358
756.9574, 2.225023
757.4395, 5.473601
757.9216, 4.402876
758.4037, 0.3323420
758.8859, 11.12723
759.3680, 19.35432
759.8501, 15.83544
760.3322, 6.682329
760.8143, 0.8921690
761.2964, 0.7984810
761.7786, 5.5803999E-02
762.2607, 4.750719
762.7428, 9.790881
763.2249, 12.09315
763.7070, 13.30196
764.1891, 17.88023
764.6713, 25.98211
765.1534, 29.82755
765.6355, 18.92869
766.1176, 2.366896
766.5997, 1.326745
767.0818, 5.584778
767.5640, 11.01595
768.0461, 12.00036
768.5282, 11.86870
769.0103, 13.62662
769.4924, 16.66801
769.9745, 17.86171
770.4567, 16.34934
770.9388, 15.48296
771.4209, 17.00153
771.9030, 17.85666
772.3851, 14.58716
772.8672, 9.768147
773.3494, 8.984153
773.8315, 14.35233
774.3136, 18.95126
774.7957, 20.66957
775.2778, 21.23490
775.7599, 22.01248
776.2421, 22.44248
776.7242, 20.33062
777.2063, 15.45042
777.6884, 12.58588
778.1705, 19.92636
778.6526, 30.59041
779.1348, 27.80214
779.6169, 14.15974
780.0990, 7.276778
780.5811, 11.85297
781.0632, 18.89675
781.5453, 20.03360
782.0275, 16.25978
782.5096, 13.87544
782.9917, 13.23474
783.4738, 12.86283
783.9559, 12.33687
784.4380, 12.37137
784.9202, 13.65900
785.4023, 15.82858
785.8844, 18.00880
786.3665, 20.10634
786.8486, 22.35942
787.3307, 26.56316
787.8129, 29.15993
788.2950, 27.09432
788.7771, 22.10647
789.2592, 18.34353
789.7413, 16.82825
790.2234, 16.69355
790.7056, 16.97274
791.1877, 18.12898
791.6698, 22.35309
792.1519, 27.79330
792.6340, 27.97821
793.1161, 21.37008
793.5983, 15.42023
794.0804, 16.81832
794.5625, 22.85038
795.0446, 23.72873
795.5267, 18.45967
796.0089, 15.96255
796.4910, 17.41468
796.9731, 20.69746
797.4552, 26.01249
797.9373, 31.32311
798.4194, 30.84245
798.9016, 20.72517
799.3837, 14.80742
799.8658, 11.77846
800.3479, 11.64128
800.8300, 19.28010
801.3121, 28.58146
801.7943, 32.07193
802.2764, 28.80152
802.7585, 23.41790
803.2406, 15.40367
803.7227, 8.911386
804.2048, 7.618928
804.6870, 9.864388
805.1691, 14.31987
805.6512, 19.85599
806.1333, 23.27318
806.6154, 21.45058
807.0975, 18.15978
807.5797, 21.45613
808.0618, 29.68871
808.5439, 30.87813
809.0260, 23.52046
809.5081, 16.48081
809.9902, 14.12705
810.4724, 14.34458
810.9545, 15.60067
811.4366, 17.71015
811.9187, 17.94102
812.4008, 14.37950
812.8829, 12.27490
813.3651, 14.89652
813.8472, 18.23469
814.3293, 18.72609
814.8114, 16.46412
815.2935, 13.26622
815.7756, 7.499428
816.2578, 4.156743
816.7399, 6.011038
817.2220, 9.341922
817.7041, 10.35445
818.1862, 10.24747
818.6683, 14.04009
819.1505, 24.50883
819.6326, 31.35863
820.1147, 19.99110
820.5968, 3.134037
821.0789, 1.591427
821.5610, 11.99917
822.0432, 19.49208
822.5253, 19.30111
823.0074, 18.17044
823.4895, 24.58934
823.9716, 34.81822
824.4537, 31.16962
824.9359, 12.66448
825.4180, 3.890928
825.9001, 12.14612
826.3822, 20.48335
826.8643, 14.62683
827.3464, 0.4351070
827.8286, 1.426545
828.3107, 18.99808
828.7928, 29.29222
829.2749, 20.00089
829.7570, 11.92785
830.2391, 15.19686
830.7213, 22.71472
831.2034, 25.54678
831.6855, 22.88326
832.1676, 20.13421
832.6497, 19.22385
833.1318, 17.78083
833.6140, 14.27454
834.0961, 9.990499
834.5782, 6.067862
835.0603, 2.717583
835.5424, 0.8763590
836.0245, 6.392836
836.5067, 7.998679
836.9888, 6.572419
837.4709, 25.68632
837.9530, 25.31074
838.4351, 9.036903
838.9172, 0.7188580
839.3994, 5.089384
839.8815, 16.05044
840.3636, 19.54868
840.8457, 17.04969
841.3278, 16.05770
841.8099, 16.64315
842.2921, 16.40058
842.7742, 14.43107
843.2563, 13.06400
843.7384, 14.83827
844.2205, 18.45955
844.7026, 17.94413
845.1848, 9.972945
845.6669, 5.395494
846.1490, 9.223306
846.6310, 17.57942
847.1132, 20.00959
847.5953, 1.235559
848.0774, 8.093905
848.5595, 5.178448
849.0416, 1.761647
849.5237, 15.40163
850.0059, 2.389182
850.4880, 10.97849
850.9701, 11.90749
851.4522, 18.52930
851.9343, 12.82369
852.4164, 10.92550
852.8986, 1.509957
853.3807, 2.502934
853.8628, 5.596589
854.3449, 17.25205
854.8270, 24.16976
855.3091, 25.14842
855.7913, 17.22108
856.2734, 8.2401000E-02
856.7555, 14.45285
857.2376, 12.64632
857.7197, 0.2949410
858.2018, 10.55379
858.6840, 19.59837
859.1661, 24.81235
859.6482, 25.75364
860.1303, 24.89930
860.6124, 24.06005
861.0945, 22.90516
861.5767, 20.60106
862.0588, 17.14192
862.5409, 11.67053
863.0230, 2.174709
863.5051, 2.411459
863.9872, 3.813992
864.4694, 14.07931
864.9515, 19.02750
865.4336, 18.30223
865.9157, 17.20259
866.3978, 15.95602
866.8799, 13.97580
867.3621, 5.842844
867.8442, 1.943308
868.3263, 14.47539
868.8084, 36.14732
869.2905, 47.08648
869.7726, 41.86154
870.2548, 33.63534
870.7369, 19.31192
871.2190, 9.844372
871.7011, 18.21672
872.1832, 32.29129
872.6653, 32.74726
873.1475, 18.22239
873.6296, 6.722522
874.1117, 9.919640
874.5938, 17.91541
875.0759, 25.64126
875.5580, 31.11232
876.0402, 30.59213
876.5223, 24.90606
877.0044, 17.69493
877.4865, 10.59056
877.9686, 5.020977
878.4507, 2.703694
878.9329, 3.176630
879.4150, 6.524989
879.8971, 11.94090
880.3792, 15.28210
880.8613, 15.40747
881.3434, 13.22995
881.8256, 9.096405
882.3077, 4.186300
882.7898, 1.729945
883.2719, 1.704478
883.7540, 5.497640
884.2361, 14.39113
884.7183, 21.05826
885.2004, 21.32479
885.6825, 18.42561
886.1646, 18.31422
886.6467, 21.36955
887.1288, 19.50803
887.6110, 6.768598
888.0931, 1.877708
888.5752, 14.54606
889.0573, 29.60614
889.5394, 36.83886
890.0215, 36.89629
890.5037, 31.89071
890.9858, 15.12900
891.4679, 7.592661
891.9500, 20.20972
892.4321, 31.38223
892.9142, 30.10352
893.3964, 23.43160
893.8785, 19.05406
894.3606, 18.19694
894.8427, 20.76540
895.3248, 30.34630
895.8069, 37.22974
896.2891, 36.26628
896.7712, 31.46762
897.2533, 24.09427
897.7354, 16.22300
898.2175, 13.34313
898.6996, 17.33523
899.1818, 21.60953
899.6639, 20.56701
900.1460, 18.28309
900.6281, 19.46883
901.1102, 22.53726
901.5923, 24.74566
902.0745, 25.38628
902.5566, 23.92550
903.0387, 19.36834
903.5208, 14.98533
904.0029, 18.93136
904.4850, 26.74145
904.9672, 26.39178
905.4493, 19.73625
905.9314, 17.11223
906.4135, 20.13196
906.8956, 24.49292
907.3777, 24.15082
907.8599, 21.20436
908.3420, 25.94556
908.8241, 37.65845
909.3062, 39.91952
909.7883, 29.13943
910.2704, 25.43049
910.7526, 42.68505
911.2347, 66.39829
911.7168, 68.82320
912.1989, 48.02999
912.6810, 40.11203
913.1631, 48.31332
913.6453, 58.12461
914.1274, 67.81337
914.6095, 72.88396
915.0916, 70.22835
915.5737, 62.40324
916.0558, 56.21820
916.5380, 50.52700
917.0201, 50.60709
917.5022, 61.74132
917.9843, 70.35903
918.4664, 67.24599
918.9485, 61.61419
919.4307, 66.39278
919.9128, 81.14227
920.3949, 88.78632
920.8770, 84.60877
921.3591, 78.91193
921.8412, 70.35059
922.3234, 64.04993
922.8055, 65.94370
923.2876, 71.25811
923.7697, 71.13240
924.2518, 63.84493
924.7339, 56.66288
925.2161, 52.19170
925.6982, 47.49536
926.1803, 40.81471
926.6624, 33.58972
927.1445, 25.18300
927.6266, 17.63622
928.1088, 17.07475
928.5909, 27.33678
929.0730, 36.62344
929.5551, 37.01442
930.0372, 34.97955
930.5193, 35.00169
931.0015, 36.81721
931.4836, 41.01901
931.9657, 46.52691
932.4478, 48.37072
932.9299, 42.94429
933.4120, 34.74820
933.8942, 24.34380
934.3763, 15.99115
934.8584, 18.56857
935.3405, 28.29150
935.8226, 33.47918
936.3047, 30.79389
936.7868, 27.26397
937.2689, 30.44515
937.7510, 34.59686
938.2332, 28.55243
938.7153, 16.78937
939.1974, 10.37899
939.6795, 10.05241
940.1616, 10.33297
940.6437, 8.564022
941.1259, 8.632730
941.6080, 18.57439
942.0901, 33.36170
942.5722, 35.26588
943.0543, 26.71320
943.5364, 22.57183
944.0186, 25.65090
944.5007, 28.35958
944.9828, 25.59628
945.4649, 19.62168
945.9470, 13.48712
946.4291, 7.563406
946.9113, 6.437065
947.3934, 10.21044
947.8755, 16.17327
948.3576, 23.97410
948.8397, 29.36063
949.3218, 27.82577
949.8040, 22.36788
950.2861, 23.25714
950.7682, 31.29659
951.2503, 36.28556
951.7324, 37.53759
952.2145, 36.88944
952.6967, 35.81385
953.1788, 31.53628
953.6609, 18.33370
954.1430, 1.049573
954.6251, 2.990304
955.1072, 19.23725
955.5894, 30.55344
956.0715, 23.34122
956.5536, 15.27190
957.0357, 14.25820
957.5178, 18.85713
957.9999, 29.17686
958.4821, 45.88555
958.9642, 46.44048
959.4463, 19.87194
959.9284, 3.276242
960.4105, 6.496913
960.8926, 14.33298
961.3748, 21.04962
961.8569, 23.72646
962.3390, 13.86261
962.8211, 14.67546
963.3032, 24.74942
963.7853, 2.940449
964.2675, 16.04346
964.7496, 26.55903
965.2317, 30.82631
965.7138, 27.21473
966.1959, 18.92342
966.6780, 15.77491
967.1602, 20.78201
967.6423, 22.60214
968.1244, 17.10733
968.6065, 13.57361
969.0886, 17.87258
969.5707, 22.38742
970.0529, 19.33327
970.5350, 10.63546
971.0171, 4.652841
971.4992, 0.6125150
971.9813, 2.272416
972.4634, 21.55108
972.9456, 32.74341
973.4277, 14.09406
973.9098, 9.718450
974.3919, 8.395990
974.8740, 14.76237
975.3561, 27.32714
975.8383, 14.34724
976.3204, 7.455963
976.8025, 20.21844
977.2846, 31.89553
977.7667, 29.76392
978.2488, 21.18302
978.7310, 14.74324
979.2131, 11.52449
979.6952, 11.96339
980.1773, 22.99176
980.6594, 27.87986
981.1415, 14.82836
981.6237, 1.890734
982.1058, 1.363176
982.5879, 8.397105
983.0700, 3.458391
983.5521, 18.50496
984.0342, 27.28896
984.5164, 30.14730
984.9985, 9.330280
985.4806, 19.08499
985.9627, 16.58809
986.4448, 13.58891
986.9269, 27.64661
987.4091, 10.27384
987.8912, 24.06125
988.3733, 25.41021
988.8554, 32.45213
989.3375, 27.16681
989.8196, 25.68903
990.3018, 36.54294
990.7839, 28.31293
991.2660, 21.94076
991.7481, 15.24613
992.2302, 9.928807
992.7123, 8.968693
993.1945, 19.50491
993.6766, 27.41297
994.1587, 21.46987
994.6408, 12.93852
995.1229, 12.31696
995.6050, 17.84472
996.0872, 24.65716
996.5693, 31.92906
997.0514, 34.64946
997.5335, 26.10521
998.0156, 17.79199
998.4977, 15.59722
998.9799, 17.31769
999.4620, 23.49412
999.9441, 30.95449
1000.426, 32.06710
1000.908, 23.97942
1001.390, 15.93675
1001.873, 10.71594
1002.355, 8.531187
1002.837, 11.49299
1003.319, 16.05782
1003.801, 17.93983
1004.283, 18.19707
1004.765, 20.79064
1005.247, 27.47881
1005.729, 33.37941
1006.212, 38.45755
1006.694, 39.54006
1007.176, 33.03215
1007.658, 22.75363
1008.140, 9.817195
1008.622, 2.782898
1009.104, 8.024445
1009.586, 3.360392
1010.069, 6.010150
1010.551, 24.73345
1011.033, 39.47135
1011.515, 40.77133
1011.997, 34.70318
1012.479, 24.03185
1012.961, 13.06475
1013.443, 12.25635
1013.925, 28.09282
1014.408, 37.51018
1014.890, 21.21261
1015.372, 7.105368
1015.854, 16.72287
1016.336, 32.97377
1016.818, 37.07323
1017.300, 30.39097
1017.782, 23.80534
1018.265, 20.23034
1018.747, 16.72718
1019.229, 8.998023
1019.711, 4.894448
1020.193, 11.32728
1020.675, 20.44439
1021.157, 26.89072
1021.639, 31.74514
1022.121, 33.80954
1022.604, 33.00112
1023.086, 28.37391
1023.568, 13.25605
1024.050, 2.065113
1024.532, 1.799520
1025.014, 8.464888
1025.496, 23.23864
1025.978, 40.89785
1026.460, 46.69030
1026.943, 34.74111
1027.425, 23.04250
1027.907, 12.50659
1028.389, 7.171686
1028.871, 13.17659
1029.353, 21.25505
1029.835, 22.64856
1030.317, 19.16874
1030.800, 18.20505
1031.282, 22.69620
1031.764, 21.60645
1032.246, 7.113861
1032.728, 2.836516
1033.210, 1.363132
1033.692, 5.030640
1034.174, 12.29855
1034.656, 19.96640
1035.139, 28.53477
1035.621, 40.78269
1036.103, 43.44952
1036.585, 22.16812
1037.067, 9.390844
1037.549, 20.85443
1038.031, 35.76662
1038.513, 41.54840
1038.995, 38.90525
1039.478, 27.71242
1039.960, 2.613773
1040.442, 8.110672
1040.924, 6.679949
1041.406, 18.12090
1041.888, 18.47209
1042.370, 17.26829
1042.852, 20.86426
1043.335, 27.02930
1043.817, 31.62563
1044.299, 35.03819
1044.781, 33.64278
1045.263, 24.87870
1045.745, 16.89469
1046.227, 10.69720
1046.709, 6.090510
1047.192, 2.926187
1047.674, 1.335962
1048.156, 1.828790
1048.638, 4.483584
1049.120, 6.060637
1049.602, 5.275495
1050.084, 9.351559
1050.566, 23.00958
1051.048, 29.02319
1051.531, 14.79783
1052.013, 4.138066
1052.495, 4.053368
1052.977, 13.10753
1053.459, 25.16583
1053.941, 31.71594
1054.423, 36.33282
1054.905, 39.48897
1055.387, 40.05447
1055.870, 37.33125
1056.352, 32.45690
1056.834, 26.42485
1057.316, 19.84823
1057.798, 14.96129
1058.280, 11.83607
1058.762, 13.03443
1059.244, 18.68450
1059.727, 22.38189
1060.209, 21.69926
1060.691, 16.95783
1061.173, 6.957810
1061.655, 3.548676
1062.137, 1.459157
1062.619, 10.25073
1063.101, 19.56941
1063.583, 25.30457
1064.066, 24.77169
1064.548, 17.84053
1065.030, 13.03720
1065.512, 17.81466
1065.994, 25.52658
1066.476, 25.88717
1066.958, 20.98919
1067.440, 14.84961
1067.922, 8.620829
1068.405, 3.453323
1068.887, 0.4655870
1069.369, 4.183742
1069.851, 18.54784
1070.333, 33.69030
1070.815, 39.65716
1071.297, 40.67980
1071.779, 38.93716
1072.261, 35.53241
1072.744, 34.67244
1073.226, 35.88278
1073.708, 35.50596
1074.190, 32.02996
1074.672, 26.37238
1075.154, 12.51547
1075.636, 4.047376
1076.118, 20.51841
1076.601, 41.67592
1077.083, 39.65941
1077.565, 21.37264
1078.047, 12.25488
1078.529, 19.50253
1079.011, 24.88364
1079.493, 15.62512
1079.975, 9.929469
1080.458, 22.01587
1080.940, 36.40193
1081.422, 35.16674
1081.904, 25.31145
1082.386, 20.63184
1082.868, 22.74574
1083.350, 27.06109
1083.832, 41.59768
1084.314, 45.22374
1084.797, 20.78493
1085.279, 0.3834190
1085.761, 4.139333
1086.243, 18.02881
1086.725, 24.97595
1087.207, 25.53365
1087.689, 26.35106
1088.171, 30.55638
1088.653, 27.08999
1089.136, 7.724612
1089.618, 2.317042
1090.100, 9.942055
1090.582, 27.06517
1091.064, 33.57298
1091.546, 31.63479
1092.028, 26.92966
1092.510, 18.17588
1092.993, 16.90362
1093.475, 24.58655
1093.957, 29.62430
1094.439, 28.85428
1094.921, 27.33328
1095.403, 28.99562
1095.885, 30.17651
1096.367, 22.27906
1096.849, 7.805160
1097.332, 1.833971
1097.814, 4.684597
1098.296, 13.55676
1098.778, 28.04693
1099.260, 35.33003
1099.742, 29.29199
1100.224, 20.03015
1100.706, 18.45401
1101.188, 22.01268
1101.671, 25.20665
1102.153, 28.00540
1102.635, 29.63085
1103.117, 29.69393
1103.599, 26.79028
1104.081, 20.89639
1104.563, 15.04992
1105.045, 9.906165
1105.528, 8.636818
1106.010, 19.20778
1106.492, 30.50099
1106.974, 28.35356
1107.456, 19.61241
1107.938, 15.96237
1108.420, 18.59102
1108.902, 22.86841
1109.385, 28.38849
1109.867, 31.22483
1110.349, 27.81906
1110.831, 24.29792
1111.313, 21.95965
1111.795, 22.19388
1112.277, 28.57921
1112.759, 38.06940
1113.241, 42.58025
1113.724, 40.82538
1114.206, 37.10681
1114.688, 27.71696
1115.170, 22.53102
1115.652, 26.11940
1116.134, 29.64311
1116.616, 27.94014
1117.098, 23.86045
1117.580, 20.81399
1118.063, 19.28036
1118.545, 23.69216
1119.027, 37.70244
1119.509, 40.32432
1119.991, 27.73411
1120.473, 17.28534
1120.955, 15.38746
1121.437, 17.40222
1121.920, 19.32490
1122.402, 21.32435
1122.884, 25.10139
1123.366, 29.60980
1123.848, 25.63272
1124.330, 14.91558
1124.812, 10.96291
1125.294, 15.99379
1125.776, 22.56317
1126.259, 26.52467
1126.741, 29.00928
1127.223, 34.71609
1127.705, 37.04222
1128.187, 17.81565
1128.669, 7.633488
1129.151, 9.181453
1129.633, 7.506154
1130.115, 17.99423
1130.598, 15.36716
1131.080, 11.12561
1131.562, 12.24317
1132.044, 12.84431
1132.526, 5.449061
1133.008, 0.3665670
1133.490, 11.41960
1133.972, 26.19631
1134.455, 22.89993
1134.937, 4.965556
1135.419, 2.236327
1135.901, 30.49412
1136.383, 46.98260
1136.865, 43.99637
1137.347, 31.89595
1137.829, 0.4480290
1138.312, 23.39998
1138.794, 9.447981
1139.276, 22.40605
1139.758, 33.04871
1140.240, 21.67411
1140.722, 12.55392
1141.204, 4.490211
1141.686, 7.306602
1142.168, 24.82847
1142.651, 36.07917
1143.133, 31.27217
1143.615, 21.65567
1144.097, 18.67838
1144.579, 20.60576
1145.061, 22.95500
1145.543, 26.24207
1146.025, 35.85645
1146.507, 48.74262
1146.990, 49.48272
1147.472, 36.13173
1147.954, 20.23082
1148.436, 7.366781
1148.918, 0.8704320
1149.400, 7.419991
1149.882, 18.67983
1150.364, 28.76770
1150.847, 35.47133
1151.329, 37.00761
1151.811, 35.06781
1152.293, 32.97589
1152.775, 31.58988
1153.257, 31.98880
1153.739, 42.33836
1154.221, 43.09356
1154.703, 13.41821
1155.186, 9.883643
1155.668, 1.207103
1156.150, 20.51075
1156.632, 39.06057
1157.114, 51.47826
1157.596, 44.73273
1158.078, 8.535482
1158.560, 6.532627
1159.042, 7.222496
1159.525, 18.73797
1160.007, 21.82976
1160.489, 20.30787
1160.971, 14.97431
1161.453, 12.15853
1161.935, 23.45786
1162.417, 42.99834
1162.899, 43.46894
1163.381, 28.83324
1163.864, 21.32372
1164.346, 22.38334
1164.828, 29.60721
1165.310, 41.02624
1165.792, 47.26068
1166.274, 40.73175
1166.756, 31.94138
1167.238, 31.34558
1167.721, 35.57046
1168.203, 46.98103
1168.685, 56.43597
1169.167, 45.45605
1169.649, 21.86377
1170.131, 12.39241
1170.613, 24.31054
1171.095, 33.58710
1171.578, 29.33157
1172.060, 25.63004
1172.542, 26.35688
1173.024, 28.86609
1173.506, 36.91918
1173.988, 41.54930
1174.470, 28.02701
1174.952, 3.047973
1175.434, 2.581239
1175.917, 16.19494
1176.399, 32.79017
1176.881, 48.50055
1177.363, 53.75782
1177.845, 45.39972
1178.327, 34.78503
1178.809, 28.13740
1179.291, 25.61560
1179.773, 29.23910
1180.256, 35.02472
1180.738, 29.30539
1181.220, 18.04870
1181.702, 19.51059
1182.184, 31.18199
1182.666, 40.60023
1183.148, 44.53864
1183.630, 46.49636
1184.113, 48.54272
1184.595, 48.31255
1185.077, 42.04417
1185.559, 35.27259
1186.041, 31.71127
1186.523, 29.41277
1187.005, 25.86398
1187.487, 24.03675
1187.969, 30.43620
1188.452, 46.63975
1188.934, 53.76028
1189.416, 46.60746
1189.898, 37.07640
1190.380, 22.92356
1190.862, 11.93358
1191.344, 5.958866
1191.826, 7.274209
1192.308, 19.80724
1192.791, 37.21440
1193.273, 44.61734
1193.755, 42.88267
1194.237, 39.05581
1194.719, 33.89131
1195.201, 32.64401
1195.683, 35.29609
1196.165, 35.41896
1196.648, 33.18830
1197.130, 27.68105
1197.612, 14.89423
1198.094, 4.036501
1198.576, 4.309772
1199.058, 11.84096
1199.540, 31.39179
1200.022, 49.31818
1200.505, 43.37707
1200.987, 19.94516
1201.469, 6.318755
1201.951, 9.006010
1202.433, 15.70322
1202.915, 29.83353
1203.397, 39.01665
1203.879, 40.58723
1204.361, 37.60250
1204.844, 27.64373
1205.326, 20.47447
1205.808, 29.94672
1206.290, 47.41473
1206.772, 38.64908
1207.254, 4.297655
1207.736, 8.279886
1208.218, 3.9252002E-02
1208.700, 11.58508
1209.183, 22.26233
1209.665, 29.09840
1210.147, 30.75352
1210.629, 31.26408
1211.111, 36.50139
1211.593, 39.08364
1212.075, 22.83401
1212.557, 6.363645
1213.040, 17.44793
1213.522, 40.21341
1214.004, 44.06372
1214.486, 29.84850
1214.968, 18.07745
1215.450, 14.80759
1215.932, 13.15080
1216.414, 12.58023
1216.896, 12.80824
1217.379, 14.35427
1217.861, 15.59545
1218.343, 15.07547
1218.825, 15.25859
1219.307, 19.47844
1219.789, 26.05217
1220.271, 29.42047
1220.753, 29.62955
1221.235, 27.16516
1221.718, 22.23894
1222.200, 14.25869
1222.682, 4.521792
1223.164, 1.980865
1223.646, 11.40767
1224.128, 20.65428
1224.610, 19.70448
1225.092, 14.52855
1225.575, 6.681921
1226.057, 1.015768
1226.539, 3.648622
1227.021, 10.38804
1227.503, 16.50149
1227.985, 20.95667
1228.467, 22.04926
1228.949, 18.10080
1229.432, 17.30002
1229.914, 22.02873
1230.396, 24.88329
1230.878, 23.57766
1231.360, 24.71220
1231.842, 32.38292
1232.324, 38.79820
1232.806, 35.62085
1233.288, 27.61184
1233.771, 25.95682
1234.253, 28.73755
1234.735, 29.69089
1235.217, 28.77959
1235.699, 24.43888
1236.181, 18.38598
1236.663, 18.71626
1237.145, 27.19130
1237.627, 29.98106
1238.110, 12.16412
1238.592, 0.2960830
1239.074, 13.82434
1239.556, 26.49614
1240.038, 19.86973
1240.520, 9.263433
1241.002, 15.22671
1241.484, 28.39382
1241.967, 27.12806
1242.449, 11.16364
1242.931, 6.140415
1243.413, 14.06235
1243.895, 18.72397
1244.377, 18.75137
1244.859, 14.07798
1245.341, 4.859729
1245.823, 0.7975060
1246.306, 9.172182
1246.788, 20.25912
1247.270, 21.37998
1247.752, 18.32612
1248.234, 19.08606
1248.716, 20.14198
1249.198, 13.30436
1249.680, 4.722283
1250.162, 11.52326
1250.645, 32.24146
1251.127, 37.93271
1251.609, 11.29747
1252.091, 1.536589
1252.573, 15.33928
1253.055, 24.76115
1253.537, 16.47351
1254.019, 7.202609
1254.501, 5.849626
1254.984, 7.637399
1255.466, 7.884676
1255.948, 6.518267
1256.430, 0.8226530
1256.912, 5.446119
1257.394, 6.466267
1257.876, 29.02546
1258.358, 37.37033
1258.841, 30.81126
1259.323, 22.13190
1259.805, 16.11575
1260.287, 16.38976
1260.769, 32.91847
1261.251, 44.02998
1261.733, 34.96365
1262.215, 24.89644
1262.698, 20.84043
1263.180, 20.40124
1263.662, 20.60595
1264.144, 19.32310
1264.626, 26.92952
1265.108, 38.96478
1265.590, 34.15071
1266.072, 12.71775
1266.554, 5.995907
1267.036, 14.53195
1267.519, 16.09532
1268.001, 5.908554
1268.483, 0.1520390
1268.965, 7.712232
1269.447, 16.42324
1269.929, 10.35952
1270.411, 0.0000000E+00
##END=



