##NAMES=Kotoite
##RRUFFID=R060940
##IDEAL CHEMISTRY=Mg_3_(BO_3_)_2_
##LOCALITY=Hol Kol mine, Samdung, near Pyongyang, Suan County, North Korea
##OWNER=RRUFF
##SOURCE=Michael Scott
##DESCRIPTION=Aggregate of pale green micro grains
##STATUS=The identification of this mineral is confirmed by single-crystal X-ray diffraction and chemical analysis.
##URL=rruff.info/R060940
##MEASURED CHEMISTRY=(Mg_2.98_Fe_0.02_)_Î£=3_(BO_3_)_2_ ; trace amounts of Mn; B_2_O_3_ estimated by difference
154.3069, 0.0000000E+00
154.7890, 2.342422
155.2712, 3.857758
155.7533, 4.288803
156.2354, 2.538330
156.7175, 4.425125
157.1996, 6.876938
157.6817, 8.812958
158.1639, 8.989487
158.6460, 3.222916
159.1281, 0.9792180
159.6102, 0.3698580
160.0923, 6.457169
160.5744, 11.59538
161.0566, 12.87640
161.5387, 12.20229
162.0208, 12.03621
162.5029, 15.38155
162.9850, 17.29955
163.4671, 14.66135
163.9493, 6.138168
164.4314, 0.1933440
164.9135, 2.112549
165.3956, 8.939850
165.8777, 13.50031
166.3598, 9.785141
166.8420, 4.531174
167.3241, 3.352341
167.8062, 8.450775
168.2883, 13.05972
168.7704, 11.60620
169.2525, 6.051079
169.7346, 1.360046
170.2168, 0.1763690
170.6989, 0.7270360
171.1810, 3.968941
171.6631, 11.33539
172.1452, 17.89775
172.6273, 18.16434
173.1095, 13.35862
173.5916, 8.995628
174.0737, 9.182076
174.5558, 11.95689
175.0379, 14.52111
175.5201, 16.76534
176.0022, 17.87642
176.4843, 15.86414
176.9664, 11.07208
177.4485, 6.872993
177.9306, 7.114296
178.4128, 10.02185
178.8949, 11.55488
179.3770, 7.939743
179.8591, 3.419273
180.3412, 7.028336
180.8233, 19.05412
181.3055, 30.07054
181.7876, 28.51112
182.2697, 17.76645
182.7518, 9.575439
183.2339, 11.04675
183.7160, 18.22141
184.1982, 21.56410
184.6803, 20.75277
185.1624, 18.06698
185.6445, 15.35650
186.1266, 12.77564
186.6087, 11.12235
187.0908, 11.13349
187.5730, 12.57585
188.0551, 14.14555
188.5372, 15.99818
189.0193, 17.81314
189.5014, 19.24727
189.9835, 20.26336
190.4657, 20.79770
190.9478, 20.57178
191.4299, 19.59938
191.9120, 18.77322
192.3941, 18.75954
192.8762, 18.42139
193.3584, 17.95547
193.8405, 17.67185
194.3226, 18.74623
194.8047, 23.01361
195.2868, 30.73661
195.7689, 35.92621
196.2511, 39.03886
196.7332, 39.97549
197.2153, 39.36659
197.6974, 38.15848
198.1795, 35.43285
198.6616, 27.57517
199.1438, 13.43920
199.6259, 8.865158
200.1080, 19.30277
200.5901, 39.41985
201.0722, 49.55647
201.5543, 48.42523
202.0364, 42.36039
202.5186, 34.17468
203.0007, 22.80115
203.4828, 17.66584
203.9649, 22.18975
204.4470, 34.48542
204.9291, 44.46958
205.4113, 53.23300
205.8934, 57.54016
206.3755, 52.39746
206.8576, 34.64910
207.3397, 23.03952
207.8218, 23.69238
208.3040, 35.24213
208.7861, 39.97927
209.2682, 36.16573
209.7503, 28.64217
210.2324, 21.90788
210.7145, 15.59968
211.1967, 10.91336
211.6788, 9.089279
212.1609, 10.26147
212.6430, 14.69386
213.1251, 24.49046
213.6072, 34.61946
214.0894, 39.15707
214.5715, 36.68890
215.0536, 32.29272
215.5357, 26.63966
216.0178, 19.40768
216.4999, 14.28118
216.9820, 11.30024
217.4642, 10.37895
217.9463, 11.91525
218.4284, 17.97228
218.9105, 21.49698
219.3926, 19.17106
219.8747, 9.347359
220.3569, 4.166138
220.8390, 5.087433
221.3211, 9.474983
221.8032, 13.94818
222.2853, 19.69737
222.7674, 22.96155
223.2496, 21.23082
223.7317, 11.96779
224.2138, 8.983528
224.6959, 16.34978
225.1780, 27.39302
225.6601, 29.64011
226.1423, 17.24992
226.6244, 6.419090
227.1065, 4.093742
227.5886, 14.48422
228.0707, 19.27284
228.5528, 16.28310
229.0350, 8.754532
229.5171, 2.957565
229.9992, 1.850349
230.4813, 3.858025
230.9634, 1.711784
231.4455, 7.253975
231.9276, 13.08225
232.4098, 14.68361
232.8919, 13.53401
233.3740, 13.22383
233.8561, 15.15827
234.3382, 15.77118
234.8203, 13.04252
235.3025, 4.106796
235.7846, 1.200836
236.2667, 1.200905
236.7488, 2.000359
237.2309, 2.692543
237.7130, 1.299263
238.1952, 4.631462
238.6773, 5.017593
239.1594, 1.749580
239.6415, 3.660912
240.1236, 13.77264
240.6057, 24.72358
241.0879, 26.84967
241.5700, 12.70012
242.0521, 0.3959350
242.5342, 0.6788790
243.0163, 17.82241
243.4984, 29.26689
243.9806, 31.03499
244.4627, 25.73455
244.9448, 21.00201
245.4269, 16.14395
245.9090, 12.82236
246.3911, 11.87931
246.8732, 13.94131
247.3554, 17.26208
247.8375, 23.36636
248.3196, 30.51844
248.8017, 32.84303
249.2838, 28.17975
249.7659, 21.83263
250.2481, 15.67039
250.7302, 7.581741
251.2123, 5.010132
251.6944, 10.94086
252.1765, 22.16679
252.6586, 28.18684
253.1408, 26.53281
253.6229, 23.48377
254.1050, 22.69780
254.5871, 26.73999
255.0692, 26.17591
255.5513, 17.87707
256.0334, 5.229996
256.5156, 0.6391600
256.9977, 3.244400
257.4798, 9.057983
257.9619, 12.63020
258.4440, 12.68641
258.9261, 14.24696
259.4083, 18.60539
259.8904, 24.38241
260.3725, 26.56274
260.8546, 23.10193
261.3367, 19.79870
261.8188, 20.17099
262.3010, 25.98852
262.7831, 30.05546
263.2652, 32.24150
263.7473, 32.43414
264.2294, 30.12862
264.7115, 24.77935
265.1937, 18.11600
265.6758, 9.713303
266.1579, 2.547394
266.6400, 7.067734
267.1221, 0.2732160
267.6042, 13.04313
268.0864, 19.26057
268.5685, 16.14636
269.0506, 11.69307
269.5327, 10.15968
270.0148, 12.22116
270.4969, 13.99623
270.9791, 15.38769
271.4612, 16.35142
271.9433, 16.81882
272.4254, 16.88929
272.9075, 16.15923
273.3896, 13.50195
273.8718, 8.221054
274.3539, 6.989792
274.8360, 11.66840
275.3181, 18.90159
275.8002, 20.86977
276.2823, 16.49549
276.7645, 11.51368
277.2466, 8.373344
277.7287, 7.099525
278.2108, 7.976677
278.6929, 11.93208
279.1750, 16.81854
279.6572, 17.77103
280.1393, 14.13445
280.6214, 11.18261
281.1035, 12.53981
281.5856, 18.14281
282.0677, 20.73048
282.5499, 19.72577
283.0320, 16.45164
283.5141, 12.29743
283.9962, 7.125877
284.4783, 3.388214
284.9604, 2.896996
285.4425, 5.421265
285.9247, 7.524109
286.4068, 9.249969
286.8889, 10.19078
287.3710, 8.194580
287.8531, 3.295082
288.3352, 1.428413
288.8174, 8.697319
289.2995, 22.66674
289.7816, 29.07452
290.2637, 26.66226
290.7458, 20.86343
291.2279, 17.79859
291.7101, 17.27975
292.1922, 17.81457
292.6743, 19.37037
293.1564, 21.47037
293.6385, 22.56071
294.1206, 22.71426
294.6028, 22.63563
295.0849, 24.38657
295.5670, 26.72319
296.0491, 24.87240
296.5312, 11.65474
297.0133, 5.322395
297.4955, 8.134804
297.9776, 3.790131
298.4597, 17.35641
298.9418, 18.32355
299.4239, 10.74781
299.9060, 5.276344
300.3882, 8.201523
300.8703, 14.76830
301.3524, 16.65047
301.8345, 13.94887
302.3166, 11.38988
302.7987, 13.14337
303.2809, 17.75563
303.7630, 22.76016
304.2451, 29.77698
304.7272, 34.77888
305.2093, 30.88481
305.6914, 18.97166
306.1736, 8.542442
306.6557, 7.386322
307.1378, 10.86770
307.6199, 12.59195
308.1020, 9.216911
308.5841, 5.153168
309.0663, 4.348312
309.5484, 6.307793
310.0305, 8.304291
310.5126, 8.180359
310.9947, 7.538383
311.4768, 8.038437
311.9590, 10.57513
312.4411, 13.58186
312.9232, 16.53429
313.4053, 19.26772
313.8874, 21.11962
314.3695, 21.99705
314.8517, 21.90993
315.3337, 20.31319
315.8159, 16.06253
316.2980, 12.38988
316.7801, 10.65025
317.2622, 10.49772
317.7443, 11.09836
318.2264, 14.03261
318.7086, 16.37893
319.1907, 15.96540
319.6728, 11.16444
320.1549, 7.805168
320.6370, 9.240601
321.1191, 12.95430
321.6013, 14.68684
322.0834, 9.165482
322.5655, 5.099937
323.0476, 7.190796
323.5297, 18.69136
324.0118, 25.27540
324.4940, 20.39573
324.9761, 11.50022
325.4582, 6.802292
325.9403, 10.80054
326.4224, 15.35120
326.9045, 19.00545
327.3867, 21.93082
327.8688, 22.72248
328.3509, 19.39506
328.8330, 14.86825
329.3151, 11.80374
329.7972, 11.27020
330.2794, 10.89687
330.7615, 10.59716
331.2436, 10.38403
331.7257, 8.983643
332.2078, 4.799408
332.6899, 0.9511490
333.1721, 0.1480180
333.6542, 2.559929
334.1363, 6.300217
334.6184, 12.29970
335.1005, 19.72588
335.5826, 23.70373
336.0648, 23.65540
336.5469, 21.14057
337.0290, 16.27041
337.5111, 7.443665
337.9932, 2.067574
338.4753, 1.586472
338.9575, 4.468628
339.4396, 6.283020
339.9217, 6.556725
340.4038, 7.401855
340.8859, 10.41337
341.3680, 15.77192
341.8502, 20.47904
342.3323, 24.99474
342.8144, 28.04166
343.2965, 26.64976
343.7786, 20.76659
344.2607, 15.05183
344.7429, 11.36378
345.2250, 9.625633
345.7071, 9.512543
346.1892, 11.55695
346.6713, 13.91097
347.1534, 15.55234
347.6355, 16.56482
348.1176, 17.32339
348.5998, 17.84389
349.0819, 18.24381
349.5640, 18.96309
350.0461, 20.03610
350.5282, 20.82494
351.0103, 20.37173
351.4925, 19.16503
351.9746, 18.35695
352.4567, 17.96175
352.9388, 18.46903
353.4209, 21.32944
353.9030, 26.19688
354.3852, 30.35546
354.8673, 32.37850
355.3494, 32.11520
355.8315, 29.28632
356.3136, 20.95966
356.7957, 13.11200
357.2779, 10.46727
357.7600, 12.25072
358.2421, 16.01581
358.7242, 24.73515
359.2063, 32.36892
359.6884, 33.03176
360.1706, 22.88203
360.6527, 13.91999
361.1348, 14.44828
361.6169, 19.79437
362.0990, 21.45926
362.5811, 11.52904
363.0633, 1.406517
363.5454, 3.576668
364.0275, 2.308922
364.5096, 0.5560150
364.9917, 5.637627
365.4738, 11.09209
365.9560, 14.87433
366.4381, 14.05619
366.9202, 14.09161
367.4023, 18.06853
367.8844, 26.43408
368.3665, 29.01514
368.8487, 19.08579
369.3308, 7.038689
369.8129, 0.1446080
370.2950, 2.221840
370.7771, 3.975937
371.2592, 4.594505
371.7414, 4.258080
372.2235, 3.854790
372.7056, 2.949371
373.1877, 2.558914
373.6698, 3.688553
374.1519, 7.832504
374.6341, 8.627579
375.1162, 3.836273
375.5983, 2.958809
376.0804, 3.131767
376.5625, 5.255997
377.0446, 13.66306
377.5267, 17.66203
378.0089, 17.01958
378.4910, 20.72325
378.9731, 30.84329
379.4552, 40.13808
379.9373, 35.73222
380.4194, 16.94661
380.9016, 2.655220
381.3837, 0.3440170
381.8658, 6.671585
382.3479, 10.60026
382.8300, 12.02894
383.3121, 12.85654
383.7943, 14.66807
384.2764, 17.24484
384.7585, 20.12161
385.2406, 23.71658
385.7227, 26.80714
386.2048, 27.31368
386.6870, 25.53313
387.1691, 22.92207
387.6512, 19.64140
388.1333, 16.40527
388.6154, 14.55086
389.0975, 14.99493
389.5797, 14.61536
390.0618, 8.355339
390.5439, 0.5318150
391.0260, 5.327591
391.5081, 1.845413
391.9902, 10.67558
392.4724, 14.15900
392.9545, 11.30788
393.4366, 7.614174
393.9187, 4.293098
394.4008, 1.871254
394.8829, 0.8227770
395.3651, 0.7446590
395.8472, 2.619232
396.3293, 8.741470
396.8114, 18.63760
397.2935, 24.98580
397.7756, 24.13375
398.2578, 19.91327
398.7399, 14.45624
399.2220, 3.065445
399.7041, 3.488335
400.1862, 3.065018
400.6683, 2.196396
401.1505, 6.934937
401.6326, 13.19176
402.1147, 16.15554
402.5968, 12.63364
403.0789, 0.6340790
403.5610, 6.124382
404.0432, 0.3322140
404.5253, 9.485428
405.0074, 12.84047
405.4895, 7.538490
405.9716, 4.002098
406.4537, 6.194206
406.9359, 12.87710
407.4180, 13.81419
407.9001, 7.617447
408.3822, 1.543465
408.8643, 3.085922
409.3464, 11.58161
409.8285, 18.40871
410.3106, 21.98642
410.7928, 23.04733
411.2749, 22.37975
411.7570, 20.10457
412.2391, 17.53616
412.7212, 15.46358
413.2033, 13.68964
413.6855, 11.84381
414.1676, 10.04526
414.6497, 8.170349
415.1318, 4.640182
415.6139, 0.9716950
416.0960, 0.3847350
416.5782, 8.171959
417.0603, 16.94431
417.5424, 19.90940
418.0245, 17.18835
418.5066, 14.10483
418.9887, 13.71790
419.4709, 14.21913
419.9530, 13.91071
420.4351, 11.74915
420.9172, 9.441650
421.3993, 5.314346
421.8814, 1.195488
422.3636, 2.157120
422.8457, 17.76739
423.3278, 31.69997
423.8099, 35.73752
424.2920, 23.67781
424.7741, 15.25534
425.2563, 12.89472
425.7384, 14.00287
426.2205, 15.26791
426.7026, 16.77268
427.1847, 18.38039
427.6668, 20.58271
428.1490, 23.37238
428.6311, 23.14915
429.1132, 18.20743
429.5953, 13.00538
430.0774, 11.82868
430.5595, 15.72849
431.0417, 16.93214
431.5238, 13.17366
432.0059, 7.413803
432.4880, 7.710342
432.9701, 14.48633
433.4522, 21.20062
433.9344, 25.23264
434.4165, 26.72441
434.8986, 25.34039
435.3807, 20.85429
435.8628, 14.74223
436.3449, 6.058601
436.8271, 3.315445
437.3092, 7.307419
437.7913, 1.084831
438.2734, 12.69103
438.7555, 15.15605
439.2376, 9.544128
439.7197, 4.345642
440.2018, 5.326965
440.6840, 9.557793
441.1661, 14.54492
441.6482, 21.31706
442.1303, 25.34448
442.6124, 20.79670
443.0945, 11.91669
443.5767, 7.482834
444.0588, 16.02755
444.5409, 24.72733
445.0230, 27.70840
445.5051, 23.61152
445.9872, 19.58659
446.4694, 16.32726
446.9515, 13.81627
447.4336, 12.02830
447.9157, 9.821556
448.3978, 9.921471
448.8799, 14.15311
449.3621, 21.70496
449.8442, 24.38250
450.3263, 19.25910
450.8084, 14.25768
451.2905, 14.19150
451.7726, 20.84724
452.2548, 23.80677
452.7369, 22.57812
453.2190, 18.26013
453.7011, 10.13284
454.1832, 1.893494
454.6653, 7.915295
455.1475, 1.074806
455.6296, 13.81776
456.1117, 19.89249
456.5938, 16.95089
457.0759, 12.20239
457.5580, 10.55163
458.0402, 11.74932
458.5223, 15.20087
459.0044, 21.44076
459.4865, 27.67512
459.9686, 32.60067
460.4507, 35.51491
460.9329, 34.62346
461.4150, 23.52081
461.8971, 12.31425
462.3792, 8.907661
462.8613, 14.34651
463.3434, 18.94286
463.8256, 16.79020
464.3077, 12.71764
464.7898, 10.03256
465.2719, 10.78403
465.7540, 12.78785
466.2361, 16.68555
466.7183, 21.82191
467.2004, 25.13113
467.6825, 27.32307
468.1646, 26.76453
468.6467, 22.01145
469.1288, 10.46910
469.6110, 2.640503
470.0930, 1.130318
470.5752, 1.604256
471.0573, 1.124107
471.5394, 8.541626
472.0215, 13.88995
472.5036, 15.34631
472.9857, 13.78963
473.4679, 10.79053
473.9500, 6.185715
474.4321, 4.698738
474.9142, 12.56596
475.3963, 27.36151
475.8784, 37.02569
476.3606, 39.87961
476.8427, 38.72325
477.3248, 36.76912
477.8069, 33.69180
478.2890, 28.52753
478.7711, 15.43179
479.2533, 3.332634
479.7354, 4.698860
480.2175, 18.41576
480.6996, 29.61991
481.1817, 27.03089
481.6638, 18.82621
482.1460, 12.25361
482.6281, 9.635086
483.1102, 7.765884
483.5923, 4.171745
484.0744, 0.7015530
484.5565, 1.045967
485.0387, 11.71533
485.5208, 20.75781
486.0029, 23.64106
486.4850, 19.51009
486.9671, 17.31902
487.4492, 18.59812
487.9314, 20.35927
488.4135, 19.92699
488.8956, 15.69083
489.3777, 13.92479
489.8598, 15.77961
490.3419, 20.06013
490.8241, 24.36306
491.3062, 28.92288
491.7883, 31.99941
492.2704, 32.12647
492.7525, 29.86805
493.2346, 28.78731
493.7168, 29.06220
494.1989, 28.99061
494.6810, 26.38591
495.1631, 22.00571
495.6452, 18.15469
496.1273, 14.25647
496.6095, 11.38340
497.0916, 10.63355
497.5737, 11.74496
498.0558, 13.99801
498.5379, 19.55991
499.0201, 24.32748
499.5022, 24.27853
499.9843, 18.25922
500.4664, 14.05290
500.9485, 17.36810
501.4306, 22.46982
501.9127, 23.99251
502.3948, 15.08836
502.8770, 9.496902
503.3591, 10.69166
503.8412, 16.75247
504.3233, 21.27771
504.8054, 23.81812
505.2875, 25.39849
505.7697, 26.50632
506.2518, 27.27582
506.7339, 26.28973
507.2160, 22.73888
507.6981, 19.06611
508.1802, 18.42104
508.6624, 20.84071
509.1445, 23.07004
509.6266, 25.27702
510.1087, 25.83073
510.5908, 18.36224
511.0729, 4.226471
511.5551, 5.615555
512.0372, 2.250153
512.5193, 8.322571
513.0014, 20.28741
513.4835, 33.32598
513.9656, 40.73650
514.4478, 33.01640
514.9299, 18.43854
515.4120, 7.056442
515.8941, 0.2933810
516.3762, 0.7171630
516.8583, 9.803307
517.3405, 27.28323
517.8226, 37.52752
518.3047, 28.62224
518.7868, 19.68407
519.2689, 20.37806
519.7510, 35.54995
520.2332, 39.00747
520.7153, 22.33816
521.1974, 1.960434
521.6795, 6.627541
522.1616, 5.2528001E-02
522.6437, 7.960587
523.1259, 16.73465
523.6080, 24.86304
524.0901, 27.90292
524.5722, 25.51146
525.0543, 22.14103
525.5364, 19.08207
526.0186, 16.75574
526.5007, 17.06259
526.9828, 19.84167
527.4649, 23.75630
527.9470, 31.34400
528.4291, 38.31011
528.9113, 36.10239
529.3934, 16.85603
529.8755, 1.957016
530.3576, 6.091743
530.8397, 6.7809999E-02
531.3218, 5.800758
531.8040, 7.383354
532.2861, 7.811958
532.7682, 7.449730
533.2503, 6.084335
533.7324, 8.166367
534.2145, 20.94394
534.6967, 32.78550
535.1788, 35.82393
535.6609, 23.13434
536.1430, 14.43594
536.6251, 11.91683
537.1072, 12.73076
537.5894, 10.69693
538.0715, 4.332954
538.5536, 1.907326
539.0357, 7.911057
539.5178, 20.09343
539.9999, 27.88234
540.4821, 31.00353
540.9642, 32.65887
541.4463, 35.77151
541.9284, 39.27851
542.4105, 40.82558
542.8926, 40.21438
543.3748, 37.08434
543.8569, 26.61526
544.3390, 13.98885
544.8211, 8.237251
545.3032, 21.30951
545.7853, 35.35331
546.2675, 38.56014
546.7495, 32.03027
547.2316, 26.34257
547.7137, 25.54841
548.1959, 25.35561
548.6780, 23.24352
549.1601, 17.90832
549.6422, 14.25780
550.1243, 13.75922
550.6064, 13.77044
551.0886, 10.94421
551.5707, 3.650909
552.0528, 1.459419
552.5349, 3.584320
553.0170, 2.584236
553.4991, 4.364136
553.9813, 6.729927
554.4634, 20.23764
554.9455, 27.79912
555.4276, 29.73389
555.9097, 9.209351
556.3918, 17.77887
556.8740, 14.62868
557.3561, 11.00145
557.8382, 23.56928
558.3203, 6.295074
558.8024, 18.60757
559.2845, 19.10977
559.7667, 25.01713
560.2488, 19.21988
560.7309, 17.03774
561.2130, 26.56381
561.6951, 29.60809
562.1772, 22.46530
562.6594, 28.71793
563.1415, 11.03697
563.6236, 14.35795
564.1057, 26.74031
564.5878, 20.18565
565.0699, 26.65195
565.5521, 22.17203
566.0342, 26.59822
566.5163, 28.92963
566.9984, 27.93095
567.4805, 23.63834
567.9626, 18.72301
568.4448, 12.57401
568.9269, 7.669098
569.4090, 10.14534
569.8911, 19.15957
570.3732, 26.93543
570.8553, 26.73304
571.3375, 23.67287
571.8196, 23.87737
572.3017, 27.91764
572.7838, 30.83707
573.2659, 27.12513
573.7480, 22.64186
574.2302, 22.77496
574.7123, 36.05502
575.1944, 43.95436
575.6765, 39.27628
576.1586, 28.34029
576.6407, 22.77408
577.1229, 27.05887
577.6050, 29.94578
578.0871, 28.12337
578.5692, 22.23861
579.0513, 18.67921
579.5334, 17.54254
580.0156, 17.03467
580.4977, 13.70174
580.9798, 8.511269
581.4619, 9.239815
581.9440, 17.34583
582.4261, 24.67457
582.9083, 17.37177
583.3904, 3.080154
583.8725, 1.448242
584.3546, 17.13543
584.8367, 35.58735
585.3188, 32.13419
585.8010, 15.05158
586.2831, 5.570786
586.7652, 22.59225
587.2473, 39.18678
587.7294, 42.65109
588.2115, 31.20975
588.6937, 21.10817
589.1758, 9.767426
589.6579, 2.425743
590.1400, 3.152428
590.6221, 15.68141
591.1042, 25.00367
591.5864, 30.74321
592.0685, 33.12776
592.5506, 31.43059
593.0327, 25.71681
593.5148, 20.23973
593.9969, 16.18465
594.4791, 13.01091
594.9612, 8.092155
595.4433, 2.470078
595.9254, 1.216110
596.4075, 14.31648
596.8896, 28.91631
597.3718, 29.99789
597.8539, 16.59235
598.3360, 5.426216
598.8181, 7.417366
599.3002, 13.01680
599.7823, 14.42218
600.2645, 4.607933
600.7466, 0.3840870
601.2287, 9.352699
601.7108, 21.55622
602.1929, 21.49538
602.6750, 1.290291
603.1572, 11.72971
603.6393, 9.673702
604.1214, 2.683846
604.6035, 6.582108
605.0856, 1.146202
605.5677, 0.7439350
606.0499, 14.07502
606.5320, 37.50012
607.0141, 45.80363
607.4962, 38.35072
607.9783, 28.39122
608.4604, 26.34261
608.9425, 28.15599
609.4246, 28.69795
609.9067, 25.58295
610.3889, 23.64754
610.8710, 29.21861
611.3531, 36.57471
611.8352, 37.04970
612.3173, 20.26913
612.7994, 6.744141
613.2816, 0.2141110
613.7637, 1.286484
614.2458, 0.7015990
614.7279, 6.889099
615.2100, 13.57787
615.6921, 20.62743
616.1743, 27.49251
616.6564, 26.86531
617.1385, 18.08550
617.6206, 8.514030
618.1027, 3.366539
618.5848, 2.502083
619.0670, 6.858246
619.5491, 17.55578
620.0312, 27.19418
620.5133, 30.07981
620.9954, 27.92054
621.4775, 23.43429
621.9597, 13.19573
622.4418, 5.413063
622.9239, 4.520370
623.4060, 8.614433
623.8881, 11.15054
624.3702, 9.350914
624.8524, 8.295738
625.3345, 9.967621
625.8166, 14.44095
626.2987, 16.43523
626.7808, 14.94740
627.2629, 13.80197
627.7451, 16.25670
628.2272, 21.95112
628.7093, 27.41457
629.1914, 32.69471
629.6735, 36.20634
630.1556, 35.60722
630.6378, 31.93545
631.1199, 27.15714
631.6020, 21.47213
632.0841, 15.47720
632.5662, 6.633728
633.0483, 2.094795
633.5305, 4.289604
634.0126, 12.08466
634.4947, 25.41846
634.9768, 26.68999
635.4589, 16.55994
635.9410, 9.367668
636.4232, 5.400780
636.9053, 3.850159
637.3874, 4.695534
637.8695, 8.117981
638.3516, 12.49619
638.8337, 18.53445
639.3159, 22.84439
639.7980, 20.58252
640.2801, 13.48367
640.7622, 8.136696
641.2443, 5.661469
641.7264, 5.132683
642.2086, 8.164200
642.6907, 12.33714
643.1728, 13.50522
643.6549, 5.457268
644.1370, 1.232414
644.6191, 1.972275
645.1013, 2.568855
645.5834, 8.822411
646.0655, 20.43202
646.5476, 28.07044
647.0297, 27.44621
647.5118, 18.44727
647.9940, 13.00812
648.4761, 11.80045
648.9582, 12.26783
649.4403, 11.38928
649.9224, 9.831703
650.4045, 16.79311
650.8867, 34.48185
651.3688, 49.66251
651.8509, 44.55790
652.3330, 27.64626
652.8151, 14.97401
653.2972, 12.12533
653.7794, 12.10275
654.2615, 10.53869
654.7436, 8.858444
655.2257, 9.530602
655.7078, 15.42490
656.1899, 21.36996
656.6721, 28.04874
657.1542, 34.18763
657.6363, 32.94781
658.1184, 20.33850
658.6005, 8.889595
659.0826, 3.868164
659.5648, 4.882698
660.0469, 7.648834
660.5290, 12.28307
661.0111, 16.69147
661.4932, 22.96957
661.9753, 29.18022
662.4575, 27.81616
662.9396, 16.73438
663.4217, 6.622826
663.9038, 7.607475
664.3859, 13.36854
664.8680, 16.46677
665.3502, 11.15610
665.8323, 8.575470
666.3144, 15.21862
666.7965, 25.36267
667.2786, 28.21716
667.7607, 18.26477
668.2429, 11.06175
668.7250, 10.23960
669.2071, 14.16285
669.6892, 17.41213
670.1713, 20.04966
670.6534, 21.34975
671.1355, 21.28181
671.6176, 19.44781
672.0997, 13.46931
672.5818, 3.807076
673.0640, 3.442978
673.5461, 2.441231
674.0282, 1.813599
674.5103, 5.197273
674.9924, 7.354630
675.4745, 7.572746
675.9567, 1.261818
676.4388, 4.496529
676.9209, 3.196533
677.4030, 11.75619
677.8851, 21.31693
678.3672, 23.46989
678.8494, 21.74812
679.3315, 21.54312
679.8136, 23.07950
680.2957, 21.92678
680.7778, 15.45028
681.2599, 8.190178
681.7421, 10.26098
682.2242, 19.18239
682.7063, 25.65015
683.1884, 23.51133
683.6705, 18.29842
684.1526, 12.53782
684.6348, 6.991158
685.1169, 5.105202
685.5990, 13.03101
686.0811, 20.52978
686.5632, 22.60720
687.0453, 18.89004
687.5275, 14.23931
688.0096, 7.157326
688.4917, 1.871147
688.9738, 2.270439
689.4559, 8.518822
689.9380, 11.73412
690.4202, 11.06323
690.9023, 9.760078
691.3844, 12.65884
691.8665, 18.08448
692.3486, 21.09010
692.8307, 20.20219
693.3129, 17.76816
693.7950, 13.49331
694.2771, 9.457748
694.7592, 8.194328
695.2413, 15.44473
695.7234, 20.22502
696.2056, 17.54389
696.6877, 11.04446
697.1698, 9.786812
697.6519, 15.53233
698.1340, 22.57469
698.6161, 30.94169
699.0983, 39.10259
699.5804, 39.89507
700.0625, 33.47774
700.5446, 25.60320
701.0267, 19.55407
701.5089, 14.35194
701.9910, 6.394409
702.4731, 3.881966
702.9552, 7.939941
703.4373, 6.481636
703.9194, 23.70609
704.4016, 31.73095
704.8837, 26.47794
705.3658, 22.27444
705.8479, 20.34194
706.3300, 19.83592
706.8121, 20.64628
707.2943, 23.68471
707.7764, 23.82522
708.2585, 20.73486
708.7406, 15.92617
709.2227, 10.79320
709.7048, 6.000824
710.1870, 2.759834
710.6691, 1.306488
711.1512, 1.666824
711.6333, 5.249161
712.1154, 10.47975
712.5975, 14.25273
713.0797, 12.15194
713.5618, 11.99058
714.0439, 18.56046
714.5260, 29.62125
715.0081, 35.98398
715.4902, 35.54054
715.9724, 33.76544
716.4545, 32.17752
716.9366, 30.62487
717.4187, 28.62724
717.9008, 26.23868
718.3829, 22.18201
718.8651, 12.87794
719.3472, 2.270302
719.8293, 1.855637
720.3114, 0.5256650
720.7935, 4.477219
721.2756, 9.151108
721.7578, 12.52496
722.2399, 12.09475
722.7220, 5.889488
723.2041, 2.597221
723.6862, 5.151260
724.1683, 9.688370
724.6505, 14.00176
725.1326, 18.71387
725.6147, 19.88287
726.0968, 15.58611
726.5789, 11.90587
727.0610, 20.21230
727.5432, 36.92969
728.0253, 45.27859
728.5074, 40.15179
728.9895, 29.54057
729.4716, 16.00061
729.9537, 3.613472
730.4359, 0.5714040
730.9180, 16.02653
731.4001, 29.37591
731.8822, 29.31447
732.3643, 20.92356
732.8464, 18.82400
733.3285, 28.21161
733.8106, 33.46239
734.2927, 29.38798
734.7748, 19.15282
735.2570, 11.76357
735.7391, 7.012535
736.2212, 4.186821
736.7033, 3.668846
737.1854, 4.475769
737.6675, 5.461395
738.1497, 6.519157
738.6318, 7.100723
739.1139, 5.945297
739.5960, 5.024017
740.0781, 5.566833
740.5602, 7.749878
741.0424, 10.48173
741.5245, 15.63547
742.0066, 18.94164
742.4887, 17.43729
742.9708, 10.59911
743.4529, 5.053398
743.9351, 0.5097430
744.4172, 1.210045
744.8993, 3.376404
745.3814, 11.88051
745.8635, 19.28884
746.3456, 25.35360
746.8278, 27.52779
747.3099, 18.96233
747.7920, 8.072723
748.2741, 3.811615
748.7562, 13.50571
749.2383, 19.56120
749.7205, 18.32098
750.2026, 13.39401
750.6847, 7.604362
751.1668, 0.4255750
751.6489, 3.195282
752.1310, 1.359688
752.6132, 8.982399
753.0953, 14.12071
753.5774, 16.67752
754.0595, 15.12656
754.5416, 4.761642
755.0237, 2.731331
755.5059, 7.939911
755.9880, 28.25954
756.4701, 41.95334
756.9522, 41.23126
757.4343, 35.67565
757.9164, 22.97672
758.3986, 7.747208
758.8807, 3.571045
759.3628, 15.70940
759.8449, 22.52292
760.3270, 13.75964
760.8091, 3.333809
761.2913, 5.343422
761.7734, 5.847229
762.2555, 18.14865
762.7376, 28.09348
763.2197, 33.82013
763.7018, 32.10466
764.1840, 23.91737
764.6661, 14.60532
765.1482, 1.524925
765.6303, 7.613037
766.1124, 8.407139
766.5945, 1.068939
767.0767, 8.308823
767.5588, 22.59167
768.0409, 32.04549
768.5230, 28.49195
769.0051, 14.25004
769.4872, 5.148415
769.9694, 1.115784
770.4515, 0.2421040
770.9336, 1.357529
771.4157, 0.5547940
771.8978, 6.076103
772.3799, 19.65777
772.8621, 28.67786
773.3442, 25.76888
773.8263, 19.10260
774.3084, 13.78555
774.7905, 9.656906
775.2726, 7.701271
775.7548, 7.917351
776.2369, 10.31928
776.7190, 16.79339
777.2011, 26.33192
777.6832, 30.12153
778.1653, 27.18130
778.6475, 22.42348
779.1296, 19.89167
779.6117, 18.81687
780.0938, 18.33916
780.5759, 18.65558
781.0580, 18.56863
781.5402, 17.48138
782.0223, 15.88290
782.5044, 13.87385
782.9865, 9.416443
783.4686, 10.55540
783.9507, 20.43564
784.4329, 31.41290
784.9150, 31.44073
785.3971, 22.44032
785.8792, 16.31174
786.3613, 15.80824
786.8434, 18.30169
787.3256, 24.34561
787.8077, 30.70136
788.2898, 32.36141
788.7719, 21.86585
789.2540, 13.87804
789.7361, 13.47405
790.2183, 17.19364
790.7004, 19.87090
791.1825, 21.91249
791.6646, 21.86154
792.1467, 18.53209
792.6288, 14.41426
793.1110, 15.32706
793.5930, 20.02103
794.0751, 22.22775
794.5573, 16.81796
795.0394, 12.06972
795.5215, 17.66952
796.0036, 29.25249
796.4857, 38.17904
796.9678, 42.74239
797.4500, 42.94162
797.9321, 36.71468
798.4142, 26.79887
798.8963, 20.01942
799.3784, 16.89795
799.8605, 14.17991
800.3427, 10.37191
800.8248, 6.958420
801.3069, 7.985039
801.7890, 12.48457
802.2711, 16.18643
802.7532, 16.79079
803.2354, 16.39735
803.7175, 16.27227
804.1996, 17.60620
804.6817, 19.36926
805.1638, 23.60555
805.6459, 26.05089
806.1281, 24.70992
806.6102, 20.77330
807.0923, 19.66298
807.5744, 21.69041
808.0565, 22.66127
808.5386, 20.30225
809.0208, 16.06670
809.5029, 10.25480
809.9850, 4.602737
810.4671, 4.503342
810.9492, 21.35950
811.4313, 36.61876
811.9135, 38.83461
812.3956, 29.08124
812.8777, 20.12059
813.3598, 11.33022
813.8419, 6.325539
814.3240, 7.145142
814.8062, 12.63578
815.2883, 18.62016
815.7704, 24.94861
816.2525, 28.36819
816.7346, 23.52709
817.2167, 16.92970
817.6989, 18.92679
818.1810, 27.65553
818.6631, 31.90074
819.1452, 23.28210
819.6273, 14.60306
820.1094, 10.94991
820.5916, 11.77864
821.0737, 14.20630
821.5558, 19.51817
822.0379, 22.32593
822.5200, 18.11062
823.0021, 10.21999
823.4843, 11.91125
823.9664, 21.99247
824.4485, 28.96597
824.9306, 20.47890
825.4127, 8.961952
825.8948, 4.828064
826.3770, 7.514023
826.8591, 9.938522
827.3412, 9.011391
827.8233, 9.280655
828.3054, 12.52714
828.7875, 18.26977
829.2697, 24.03572
829.7518, 30.38403
830.2339, 31.70167
830.7160, 19.16207
831.1981, 2.213821
831.6802, 0.5326310
832.1624, 11.48452
832.6445, 21.78781
833.1266, 22.10223
833.6087, 22.05549
834.0908, 29.56992
834.5729, 43.49812
835.0551, 45.95638
835.5372, 30.13251
836.0193, 16.77718
836.5014, 15.60639
836.9835, 22.86232
837.4656, 19.80599
837.9478, 7.745674
838.4299, 1.016273
838.9120, 15.90047
839.3941, 34.15848
839.8762, 35.69935
840.3583, 23.80431
840.8405, 16.35120
841.3226, 25.51925
841.8047, 32.78540
842.2868, 31.14159
842.7689, 22.56345
843.2510, 19.68634
843.7332, 23.64612
844.2153, 25.74162
844.6974, 20.71182
845.1795, 12.18984
845.6616, 7.560112
846.1437, 6.099152
846.6259, 5.142456
847.1080, 0.6706470
847.5901, 1.096375
848.0722, 6.376076
848.5543, 20.42877
849.0364, 26.41542
849.5186, 19.03430
850.0007, 14.33724
850.4828, 18.48265
850.9649, 27.45276
851.4470, 26.86427
851.9291, 18.17931
852.4113, 13.54668
852.8934, 23.45143
853.3755, 35.24899
853.8576, 36.69063
854.3397, 30.61758
854.8218, 24.64339
855.3040, 20.07170
855.7860, 17.01658
856.2681, 16.27031
856.7502, 16.71806
857.2324, 15.24739
857.7145, 11.68907
858.1966, 7.848457
858.6787, 3.182648
859.1608, 0.2208180
859.6429, 7.999184
860.1251, 20.45478
860.6072, 23.35612
861.0893, 6.318127
861.5714, 27.64071
862.0535, 17.42768
862.5356, 10.18453
863.0178, 25.71530
863.4999, 25.65094
863.9820, 21.37456
864.4641, 12.64203
864.9462, 4.169441
865.4283, 6.908447
865.9105, 17.63228
866.3926, 24.31550
866.8747, 22.58455
867.3568, 17.41936
867.8389, 9.696648
868.3210, 1.964958
868.8032, 2.354485
869.2853, 3.287117
869.7674, 1.218536
870.2495, 14.73286
870.7316, 29.82854
871.2137, 36.32878
871.6959, 34.60577
872.1780, 32.55759
872.6601, 31.57207
873.1422, 29.76721
873.6243, 24.64906
874.1064, 17.68421
874.5886, 10.01173
875.0707, 0.9896010
875.5528, 5.323071
876.0349, 6.426498
876.5170, 20.36919
876.9991, 25.13490
877.4813, 18.54834
877.9634, 16.58569
878.4455, 20.83871
878.9276, 24.20219
879.4097, 14.10404
879.8918, 3.7544001E-02
880.3740, 1.880424
880.8561, 23.56930
881.3382, 40.83751
881.8203, 37.74092
882.3024, 29.07281
882.7845, 24.37801
883.2667, 23.98405
883.7488, 28.56944
884.2309, 41.12806
884.7130, 49.42461
885.1951, 39.17016
885.6772, 18.19832
886.1594, 12.52544
886.6415, 21.80338
887.1236, 31.89322
887.6057, 36.04029
888.0878, 36.07826
888.5699, 31.41204
889.0521, 22.14592
889.5342, 16.83724
890.0163, 17.79346
890.4984, 18.68953
890.9805, 16.42307
891.4626, 12.26527
891.9448, 12.26592
892.4269, 15.86195
892.9090, 18.40997
893.3911, 15.62064
893.8732, 12.09090
894.3553, 12.84412
894.8375, 16.20480
895.3196, 16.18185
895.8017, 4.072037
896.2838, 0.8153990
896.7659, 9.008163
897.2480, 25.90500
897.7302, 28.77676
898.2123, 18.47951
898.6944, 10.08643
899.1765, 9.104691
899.6586, 11.18695
900.1407, 9.715691
900.6229, 8.367264
901.1050, 13.52150
901.5871, 39.66117
902.0692, 55.61613
902.5513, 54.05041
903.0334, 43.83779
903.5156, 35.14307
903.9977, 27.72649
904.4798, 25.74959
904.9619, 30.85067
905.4440, 36.48448
905.9261, 34.48756
906.4083, 28.83252
906.8904, 24.95738
907.3725, 23.49920
907.8546, 25.71706
908.3367, 36.56455
908.8188, 47.71456
909.3010, 52.99100
909.7831, 51.51354
910.2652, 48.83231
910.7473, 44.47590
911.2294, 41.94903
911.7115, 47.30061
912.1937, 55.66227
912.6758, 55.71327
913.1579, 47.55077
913.6400, 41.42358
914.1221, 42.22858
914.6042, 46.01788
915.0864, 51.90927
915.5685, 59.57715
916.0506, 63.11116
916.5327, 61.58974
917.0148, 61.11102
917.4969, 67.52793
917.9790, 75.45286
918.4611, 72.26485
918.9432, 60.02301
919.4254, 48.30383
919.9075, 44.43571
920.3896, 44.00432
920.8717, 44.39142
921.3538, 46.69276
921.8359, 50.39081
922.3181, 57.65591
922.8002, 58.68571
923.2823, 48.46513
923.7644, 36.01891
924.2465, 40.54494
924.7286, 54.52770
925.2108, 59.99551
925.6929, 45.37997
926.1750, 32.77476
926.6571, 34.74456
927.1392, 42.63097
927.6213, 45.11095
928.1035, 40.65072
928.5856, 35.69417
929.0677, 30.28214
929.5498, 25.24395
930.0319, 20.53368
930.5140, 16.45056
930.9962, 14.72543
931.4783, 15.65572
931.9604, 16.72144
932.4425, 14.21069
932.9246, 13.41864
933.4067, 19.64311
933.8889, 34.47082
934.3710, 38.89413
934.8531, 30.82629
935.3352, 20.30352
935.8173, 10.19606
936.2994, 3.049652
936.7816, 9.216202
937.2637, 25.54428
937.7458, 36.85214
938.2279, 30.93097
938.7100, 22.88140
939.1921, 19.39345
939.6743, 19.41840
940.1564, 19.59383
940.6385, 20.53617
941.1206, 18.58978
941.6027, 11.37296
942.0848, 3.491997
942.5670, 3.737137
943.0491, 9.351952
943.5312, 13.95798
944.0133, 14.40410
944.4954, 15.51046
944.9775, 20.08380
945.4597, 25.86944
945.9418, 30.72801
946.4239, 35.55145
946.9060, 35.42124
947.3881, 29.40408
947.8702, 21.71166
948.3524, 14.36504
948.8345, 9.104134
949.3166, 10.68941
949.7987, 19.78605
950.2808, 27.06211
950.7629, 26.48251
951.2451, 24.35399
951.7272, 24.46696
952.2093, 26.68740
952.6914, 25.97361
953.1735, 21.92520
953.6556, 17.95574
954.1378, 16.45412
954.6199, 15.72055
955.1020, 12.05356
955.5841, 7.260109
956.0662, 6.926132
956.5483, 20.26546
957.0305, 30.01165
957.5126, 29.25394
957.9947, 22.95783
958.4768, 20.42233
958.9589, 21.94884
959.4410, 22.41060
959.9232, 20.80196
960.4053, 17.74883
960.8874, 11.70426
961.3695, 5.527046
961.8516, 3.863075
962.3337, 9.026276
962.8159, 14.44729
963.2980, 18.37505
963.7801, 22.63284
964.2622, 29.63788
964.7443, 39.68219
965.2264, 42.97276
965.7086, 39.37638
966.1907, 34.50446
966.6728, 32.47009
967.1549, 31.19506
967.6370, 29.67979
968.1191, 27.45766
968.6013, 21.39137
969.0834, 2.232544
969.5655, 7.115273
970.0476, 2.613182
970.5297, 22.29408
971.0118, 26.82653
971.4940, 18.30307
971.9761, 11.98461
972.4582, 13.99430
972.9403, 18.71421
973.4224, 25.71700
973.9045, 31.14383
974.3867, 28.98637
974.8688, 10.06954
975.3509, 1.046394
975.8330, 2.933281
976.3151, 0.9553380
976.7972, 12.48263
977.2794, 26.77121
977.7615, 22.50709
978.2436, 2.310913
978.7257, 20.40614
979.2078, 6.817490
979.6899, 13.31303
980.1720, 23.56027
980.6541, 23.32769
981.1362, 22.29468
981.6183, 20.04451
982.1005, 18.83981
982.5826, 21.25034
983.0647, 23.83360
983.5468, 15.92300
984.0289, 2.006294
984.5110, 4.895897
984.9932, 10.59127
985.4753, 22.03898
985.9574, 16.61707
986.4395, 4.643898
986.9216, 1.754585
987.4037, 2.533653
987.8859, 4.333153
988.3680, 21.04907
988.8501, 34.26229
989.3322, 22.14660
989.8143, 1.728188
990.2964, 2.299423
990.7786, 15.96481
991.2607, 29.08988
991.7428, 25.87759
992.2249, 21.97456
992.7070, 25.39677
993.1891, 34.35978
993.6713, 34.70095
994.1534, 27.11958
994.6355, 20.01253
995.1176, 18.05029
995.5997, 18.44101
996.0818, 21.09264
996.5640, 24.14916
997.0461, 22.69837
997.5282, 11.08657
998.0103, 5.541397
998.4924, 9.554039
998.9745, 17.18436
999.4567, 18.32114
999.9388, 16.14439
1000.421, 23.67308
1000.903, 45.11286
1001.385, 58.67457
1001.867, 42.23589
1002.349, 19.66225
1002.831, 9.517593
1003.314, 12.65400
1003.796, 13.13866
1004.278, 10.57564
1004.760, 7.570755
1005.242, 3.852951
1005.724, 1.747749
1006.206, 7.585136
1006.688, 18.48750
1007.171, 25.88064
1007.653, 22.26048
1008.135, 20.43184
1008.617, 24.35716
1009.099, 30.46117
1009.581, 34.52792
1010.063, 36.56289
1010.545, 29.83436
1011.027, 11.31319
1011.510, 3.210175
1011.992, 5.280174
1012.474, 22.31993
1012.956, 34.64287
1013.438, 40.49337
1013.920, 40.60204
1014.402, 33.04226
1014.884, 24.35445
1015.367, 16.04153
1015.849, 9.695267
1016.331, 13.50454
1016.813, 24.66745
1017.295, 31.35945
1017.777, 24.05331
1018.259, 14.95970
1018.741, 5.389397
1019.223, 0.9214020
1019.706, 3.817604
1020.188, 23.45450
1020.670, 32.84447
1021.152, 27.53823
1021.634, 19.13135
1022.116, 20.41908
1022.598, 26.72565
1023.080, 33.17144
1023.563, 39.55672
1024.045, 40.09991
1024.527, 29.16039
1025.009, 17.52102
1025.491, 9.211281
1025.973, 3.700249
1026.455, 2.975761
1026.937, 9.866432
1027.419, 10.14091
1027.901, 6.876579
1028.384, 24.37294
1028.866, 32.31703
1029.348, 32.75109
1029.830, 27.85184
1030.312, 13.00718
1030.794, 8.287430
1031.276, 17.50310
1031.758, 28.05071
1032.241, 22.13280
1032.723, 9.863861
1033.205, 13.88652
1033.687, 35.47729
1034.169, 49.48484
1034.651, 38.01051
1035.133, 23.89246
1035.615, 15.60071
1036.098, 11.80030
1036.580, 5.444611
1037.062, 1.075157
1037.544, 0.1040570
1038.026, 14.53001
1038.508, 29.76926
1038.990, 32.50412
1039.472, 28.90298
1039.954, 27.78104
1040.437, 34.92321
1040.919, 33.71571
1041.401, 20.96053
1041.883, 8.087852
1042.365, 4.106514
1042.847, 7.651611
1043.329, 14.81081
1043.811, 24.74915
1044.293, 32.69578
1044.776, 39.35455
1045.258, 39.54417
1045.740, 27.07755
1046.222, 8.802666
1046.704, 2.699921
1047.186, 9.013885
1047.668, 14.34937
1048.150, 15.63720
1048.633, 15.94538
1049.115, 19.97649
1049.597, 23.89953
1050.079, 21.92244
1050.561, 9.604858
1051.043, 5.566338
1051.525, 12.89857
1052.007, 21.84579
1052.490, 26.70551
1052.972, 28.83752
1053.454, 32.98618
1053.936, 38.01962
1054.418, 39.56053
1054.900, 29.69413
1055.382, 23.02110
1055.864, 27.46407
1056.346, 35.85655
1056.828, 39.13094
1057.311, 37.22574
1057.793, 30.73812
1058.275, 18.94348
1058.757, 9.755745
1059.239, 12.76752
1059.721, 19.82185
1060.203, 23.43758
1060.685, 22.79402
1061.168, 22.59955
1061.650, 23.05298
1062.132, 24.10032
1062.614, 26.31615
1063.096, 28.34379
1063.578, 26.95822
1064.060, 23.19291
1064.542, 19.44742
1065.025, 16.18472
1065.507, 13.64999
1065.989, 13.59737
1066.471, 12.86708
1066.953, 7.397606
1067.435, 2.927277
1067.917, 4.638992
1068.399, 2.279716
1068.881, 11.41590
1069.364, 23.49142
1069.846, 31.53403
1070.328, 25.39746
1070.810, 9.790787
1071.292, 3.821564
1071.774, 10.66097
1072.256, 18.65282
1072.738, 26.35627
1073.220, 32.66415
1073.703, 34.88395
1074.185, 34.93446
1074.667, 36.86300
1075.149, 42.24326
1075.631, 42.59166
1076.113, 31.15916
1076.595, 19.91990
1077.077, 13.98309
1077.559, 12.49879
1078.042, 11.44505
1078.524, 10.79661
1079.006, 10.45889
1079.488, 11.40517
1079.970, 11.21572
1080.452, 5.013084
1080.934, 1.078560
1081.416, 1.469925
1081.899, 15.49600
1082.381, 23.71143
1082.863, 25.27331
1083.345, 23.25243
1083.827, 15.73344
1084.309, 8.988518
1084.791, 12.97791
1085.273, 25.96725
1085.755, 32.19695
1086.238, 24.84687
1086.720, 17.40461
1087.202, 12.24360
1087.684, 8.655724
1088.166, 2.942726
1088.648, 1.808098
1089.130, 4.394569
1089.612, 26.14955
1090.094, 42.53942
1090.577, 40.18429
1091.059, 34.05968
1091.541, 32.03989
1092.023, 33.44661
1092.505, 32.69904
1092.987, 30.02199
1093.469, 27.95986
1093.951, 28.42535
1094.434, 28.89382
1094.916, 25.07893
1095.398, 21.23927
1095.880, 24.86729
1096.362, 42.35512
1096.844, 43.69621
1097.326, 25.49261
1097.808, 7.523476
1098.291, 9.310989
1098.773, 19.61107
1099.255, 22.86054
1099.737, 20.08945
1100.219, 19.83314
1100.701, 27.31641
1101.183, 32.08164
1101.665, 32.21117
1102.147, 29.17358
1102.630, 22.11687
1103.112, 14.25784
1103.594, 18.36809
1104.076, 37.06270
1104.558, 45.85802
1105.040, 16.77513
1105.522, 8.469948
1106.004, 5.641823
1106.486, 19.31175
1106.969, 27.78367
1107.451, 21.01419
1107.933, 16.83118
1108.415, 25.42515
1108.897, 32.47496
1109.379, 21.60229
1109.861, 6.320946
1110.343, 4.176750
1110.826, 20.07507
1111.308, 28.14567
1111.790, 27.61661
1112.272, 24.63680
1112.754, 21.72507
1113.236, 20.10976
1113.718, 22.33906
1114.200, 27.88893
1114.682, 32.01472
1115.165, 34.14612
1115.647, 33.69746
1116.129, 30.17392
1116.611, 24.81360
1117.093, 17.40566
1117.575, 9.837234
1118.057, 6.003937
1118.539, 6.304779
1119.021, 9.594048
1119.504, 20.86192
1119.986, 28.19247
1120.468, 26.15215
1120.950, 18.94691
1121.432, 18.28298
1121.914, 22.88941
1122.396, 26.96915
1122.878, 29.17548
1123.361, 29.88388
1123.843, 28.95447
1124.325, 26.83873
1124.807, 24.07655
1125.289, 20.59641
1125.771, 13.43264
1126.253, 2.927673
1126.735, 1.195206
1127.218, 12.08072
1127.700, 26.66635
1128.182, 27.30577
1128.664, 20.62261
1129.146, 17.78013
1129.628, 20.83408
1130.110, 23.84952
1130.592, 27.14547
1131.074, 28.00732
1131.557, 20.44875
1132.039, 11.48318
1132.521, 11.71980
1133.003, 19.40224
1133.485, 25.86423
1133.967, 28.85059
1134.449, 32.40971
1134.931, 38.91161
1135.413, 42.27845
1135.896, 28.09866
1136.378, 6.495705
1136.860, 0.1379320
1137.342, 12.09491
1137.824, 21.30621
1138.306, 17.76524
1138.788, 12.94797
1139.270, 9.143700
1139.752, 7.473938
1140.235, 14.58129
1140.717, 26.85774
1141.199, 29.72250
1141.681, 16.27666
1142.163, 4.211395
1142.645, 2.077751
1143.127, 4.882774
1143.609, 9.470009
1144.092, 15.66819
1144.574, 21.37361
1145.056, 26.51181
1145.538, 29.69644
1146.020, 29.80774
1146.502, 28.37160
1146.984, 24.38754
1147.466, 20.69148
1147.948, 21.52568
1148.431, 17.64132
1148.913, 29.41721
1149.395, 35.24664
1149.877, 35.45013
1150.359, 13.17431
1150.841, 19.92189
1151.323, 15.03648
1151.805, 9.674271
1152.287, 20.50471
1152.770, 1.485558
1153.252, 12.05685
1153.734, 10.81756
1154.216, 14.98410
1154.698, 7.445709
1155.180, 3.522575
1155.662, 11.30829
1156.144, 15.63612
1156.627, 20.28467
1157.109, 7.111183
1157.591, 1.191055
1158.073, 10.61868
1158.555, 25.51804
1159.037, 34.48617
1159.519, 36.68425
1160.001, 26.92839
1160.484, 0.9640810
1160.966, 11.06755
1161.448, 5.522110
1161.930, 21.02599
1162.412, 23.87074
1162.894, 17.68811
1163.376, 5.235703
1163.858, 8.051617
1164.340, 6.664398
1164.823, 24.97564
1165.305, 44.41853
1165.787, 31.60057
1166.269, 14.24358
1166.751, 9.575241
1167.233, 15.44708
1167.715, 22.15256
1168.197, 29.28320
1168.679, 34.69869
1169.162, 40.14507
1169.644, 40.26752
1170.126, 30.45088
1170.608, 17.17822
1171.090, 3.561981
1171.572, 9.584209
1172.054, 7.649338
1172.536, 8.835648
1173.019, 25.30148
1173.501, 35.12273
1173.983, 40.15044
1174.465, 39.84455
1174.947, 36.00527
1175.429, 28.95513
1175.911, 18.89243
1176.393, 21.20887
1176.875, 38.45489
1177.358, 49.96426
1177.840, 30.21487
1178.322, 7.580025
1178.804, 3.801735
1179.286, 14.16089
1179.768, 22.94282
1180.250, 30.32044
1180.732, 29.60013
1181.214, 17.64952
1181.697, 6.397881
1182.179, 9.263702
1182.661, 15.92006
1183.143, 16.23779
1183.625, 10.23405
1184.107, 6.070976
1184.589, 3.206924
1185.071, 8.668121
1185.554, 28.92713
1186.036, 47.07844
1186.518, 38.34333
1187.000, 20.55640
1187.482, 16.31097
1187.964, 29.76647
1188.446, 39.18318
1188.928, 45.03729
1189.411, 43.60015
1189.893, 27.50872
1190.375, 10.92803
1190.857, 13.97569
1191.339, 27.30586
1191.821, 36.83274
1192.303, 40.51599
1192.785, 39.48063
1193.267, 32.35944
1193.750, 27.01681
1194.232, 32.94851
1194.714, 40.63689
1195.196, 34.75962
1195.678, 21.24400
1196.160, 13.83903
1196.642, 17.23074
1197.124, 23.05062
1197.606, 33.10872
1198.089, 37.68003
1198.571, 18.59812
1199.053, 5.412254
1199.535, 5.827862
1200.017, 12.97337
1200.499, 31.06728
1200.981, 50.00658
1201.463, 56.22611
1201.945, 45.87259
1202.428, 30.11150
1202.910, 17.15688
1203.392, 8.941437
1203.874, 10.46063
1204.356, 20.70214
1204.838, 28.25463
1205.320, 30.32187
1205.802, 31.95472
1206.285, 34.10172
1206.767, 36.00118
1207.249, 35.76569
1207.731, 35.07630
1208.213, 36.52247
1208.695, 42.51651
1209.177, 45.26610
1209.659, 43.35686
1210.141, 37.77969
1210.624, 27.63657
1211.106, 16.91749
1211.588, 11.28590
1212.070, 10.69151
1212.552, 16.77354
1213.034, 31.26886
1213.516, 39.09398
1213.998, 39.64975
1214.480, 36.30270
1214.963, 27.78158
1215.445, 17.38433
1215.927, 9.070023
1216.409, 3.848053
1216.891, 3.867554
1217.373, 10.70184
1217.855, 19.75018
1218.337, 33.89088
1218.820, 41.54622
1219.302, 33.24707
1219.784, 19.20229
1220.266, 21.20554
1220.748, 31.86242
1221.230, 36.94315
1221.712, 30.95695
1222.194, 22.03441
1222.677, 7.892036
1223.159, 1.622284
1223.641, 1.756920
1224.123, 12.19073
1224.605, 23.44624
1225.087, 32.50220
1225.569, 32.43419
1226.051, 8.105667
1226.533, 2.797226
1227.016, 2.802979
1227.498, 12.35507
1227.980, 26.66577
1228.462, 38.98371
1228.944, 39.04290
1229.426, 30.51762
1229.908, 23.29489
1230.390, 16.88640
1230.872, 19.48003
1231.355, 35.32906
1231.837, 46.92012
1232.319, 31.32831
1232.801, 6.390129
1233.283, 1.873398
1233.765, 3.454803
1234.247, 9.159447
1234.729, 13.11618
1235.212, 16.94975
1235.694, 20.99425
1236.176, 24.00803
1236.658, 25.54646
1237.140, 25.02477
1237.622, 17.86332
1238.104, 7.221802
1238.586, 9.236710
1239.068, 31.15060
1239.551, 44.17151
1240.033, 46.05508
1240.515, 40.97358
1240.997, 27.67660
1241.479, 15.18384
1241.961, 11.64113
1242.443, 15.90588
1242.925, 17.38702
1243.407, 14.83423
1243.890, 13.09681
1244.372, 12.11963
1244.854, 12.99269
1245.336, 13.90459
1245.818, 15.89422
1246.300, 21.44928
1246.782, 29.78312
1247.264, 33.61768
1247.747, 32.86989
1248.229, 27.48249
1248.711, 16.17554
1249.193, 6.711853
1249.675, 8.771843
1250.157, 14.30435
1250.639, 16.45993
1251.121, 15.13457
1251.604, 11.12489
1252.086, 4.192307
1252.568, 8.6333998E-02
1253.050, 0.1675950
1253.532, 2.122887
1254.014, 6.737206
1254.496, 6.762390
1254.978, 0.0000000E+00
##END=



