##NAMES=Kozoite-(La)
##RRUFFID=R060995
##IDEAL CHEMISTRY=LaCO_3_(OH)
##LOCALITY=Mitsukoshi, Hizen-cho, Karatsu City, Saga Prefecture, Japan
##OWNER=RRUFF
##SOURCE=Marcus Origlieri
##DESCRIPTION=Pink spheres, radially zoned with kozoite-(Nd). Surface of spheres are reported to be kozoite-(Nd). Kozoite-(La) are distinguished from kozoite-(Nd) by being closer to white.
##STATUS=The identification of this mineral is not yet confirmed.
##URL=rruff.info/R060995
88.74414, 0.0000000E+00
89.22626, 54.44359
89.70837, 71.14796
90.19049, 51.18206
90.67261, 35.83083
91.15472, 59.45938
91.63684, 91.08868
92.11896, 99.41277
92.60107, 72.35461
93.08319, 41.53374
93.56531, 40.02004
94.04742, 69.93498
94.52954, 102.4385
95.01165, 127.8856
95.49377, 143.9097
95.97588, 155.0329
96.45800, 161.6512
96.94012, 169.2548
97.42223, 181.0422
97.90435, 202.1977
98.38647, 231.8717
98.86858, 266.3534
99.35070, 300.8091
99.83282, 322.7352
100.3149, 317.6534
100.7971, 287.9549
101.2792, 279.6030
101.7613, 332.7761
102.2434, 388.3098
102.7255, 399.5588
103.2076, 380.6182
103.6898, 372.4994
104.1719, 420.0782
104.6540, 509.5342
105.1361, 554.0441
105.6182, 542.3086
106.1003, 534.5245
106.5825, 545.5345
107.0646, 549.6091
107.5467, 534.7327
108.0288, 525.6733
108.5109, 568.1171
108.9930, 580.1268
109.4751, 557.1878
109.9573, 523.2809
110.4394, 486.7971
110.9215, 451.4583
111.4036, 422.4335
111.8857, 407.1353
112.3678, 415.3436
112.8500, 424.1200
113.3321, 444.7445
113.8142, 452.7026
114.2963, 416.7419
114.7784, 328.9361
115.2605, 223.4250
115.7427, 162.4562
116.2248, 171.2013
116.7069, 172.3377
117.1890, 158.4315
117.6711, 132.6696
118.1532, 95.64574
118.6354, 45.34846
119.1175, 8.700127
119.5996, 45.89004
120.0817, 69.24754
120.5638, 77.15648
121.0459, 55.05440
121.5281, 16.45900
122.0102, 7.465195
122.4923, 3.795776
122.9744, 21.22760
123.4565, 55.55450
123.9386, 110.1425
124.4208, 151.1817
124.9029, 156.5546
125.3850, 130.5253
125.8671, 95.55255
126.3492, 52.68039
126.8313, 11.31573
127.3135, 11.74396
127.7956, 6.266357
128.2777, 1.6174000E-02
128.7598, 24.93469
129.2419, 82.49976
129.7240, 119.9415
130.2061, 90.16095
130.6883, 36.61841
131.1704, 14.72321
131.6525, 44.19891
132.1346, 92.55157
132.6167, 124.3774
133.0988, 139.3024
133.5810, 138.6744
134.0631, 112.3398
134.5452, 74.40015
135.0273, 36.31873
135.5094, 1.183533
135.9915, 33.15973
136.4737, 49.60120
136.9558, 46.87836
137.4379, 36.48694
137.9200, 15.10315
138.4021, 8.206665
138.8842, 22.05029
139.3664, 18.63782
139.8485, 4.956421
140.3306, 1.015259
140.8127, 0.1456300
141.2948, 11.52441
141.7769, 34.94189
142.2591, 67.86780
142.7412, 106.6152
143.2233, 148.1554
143.7054, 194.5698
144.1875, 254.1312
144.6696, 327.4691
145.1518, 415.5505
145.6339, 539.1362
146.1160, 673.3390
146.5981, 784.6978
147.0802, 836.1229
147.5623, 835.8047
148.0445, 861.6704
148.5266, 957.7122
149.0087, 1034.681
149.4908, 1065.632
149.9729, 1063.239
150.4550, 1050.763
150.9371, 1042.986
151.4193, 1039.964
151.9014, 1046.466
152.3835, 1090.834
152.8656, 1116.696
153.3477, 1101.645
153.8298, 1055.603
154.3120, 999.0876
154.7941, 944.6489
155.2762, 891.1676
155.7583, 870.9042
156.2404, 932.8877
156.7225, 978.1295
157.2047, 953.4036
157.6868, 879.8228
158.1689, 818.1274
158.6510, 821.0377
159.1331, 896.1155
159.6152, 941.0752
160.0974, 935.9497
160.5795, 924.9216
161.0616, 923.8916
161.5437, 932.8496
162.0258, 944.7993
162.5079, 953.5320
162.9901, 957.9900
163.4722, 970.4724
163.9543, 996.3154
164.4364, 1022.910
164.9185, 1046.298
165.4007, 1065.458
165.8828, 1077.264
166.3649, 1076.521
166.8470, 1059.882
167.3291, 1067.842
167.8112, 1126.722
168.2934, 1184.006
168.7755, 1207.352
169.2576, 1198.932
169.7397, 1182.669
170.2218, 1178.019
170.7039, 1186.230
171.1861, 1199.625
171.6682, 1238.738
172.1503, 1266.079
172.6324, 1249.893
173.1145, 1193.181
173.5966, 1130.688
174.0788, 1090.771
174.5609, 1075.928
175.0430, 1075.574
175.5251, 1111.455
176.0072, 1143.424
176.4893, 1139.111
176.9714, 1098.689
177.4536, 1051.579
177.9357, 1021.826
178.4178, 1012.296
178.8999, 1004.425
179.3820, 1001.209
179.8641, 998.1882
180.3463, 983.0654
180.8284, 956.5571
181.3105, 945.1597
181.7926, 980.6907
182.2747, 1062.595
182.7568, 1092.205
183.2390, 1025.864
183.7211, 943.1965
184.2032, 904.3301
184.6853, 910.4802
185.1674, 925.7383
185.6495, 919.6091
186.1317, 894.6230
186.6138, 891.2500
187.0959, 930.7119
187.5780, 975.4390
188.0601, 1001.483
188.5422, 1007.456
189.0244, 995.8018
189.5065, 964.0134
189.9886, 913.1196
190.4707, 862.8806
190.9528, 789.5874
191.4349, 734.6101
191.9171, 741.1270
192.3992, 806.1841
192.8813, 878.3926
193.3634, 928.0239
193.8455, 953.8540
194.3276, 967.0598
194.8098, 957.3047
195.2919, 944.0293
195.7740, 939.5552
196.2561, 943.7517
196.7382, 955.9675
197.2203, 981.1611
197.7025, 1013.731
198.1846, 1032.506
198.6667, 1027.172
199.1488, 1016.235
199.6309, 1014.514
200.1130, 1020.706
200.5951, 1020.829
201.0773, 1003.851
201.5594, 975.5620
202.0415, 956.3911
202.5236, 950.5005
203.0057, 949.3301
203.4878, 952.8062
203.9700, 958.9287
204.4521, 952.6553
204.9342, 920.2080
205.4163, 872.9106
205.8984, 841.4644
206.3805, 825.4741
206.8627, 825.2563
207.3448, 855.3242
207.8269, 907.4185
208.3090, 936.1514
208.7911, 905.7788
209.2732, 850.9863
209.7554, 850.8506
210.2375, 933.9683
210.7196, 1015.109
211.2017, 1044.774
211.6838, 1032.479
212.1659, 1010.919
212.6481, 986.8521
213.1302, 966.8110
213.6123, 961.4229
214.0944, 970.5903
214.5765, 991.6084
215.0586, 1036.709
215.5408, 1094.380
216.0229, 1129.319
216.5050, 1123.350
216.9871, 1099.236
217.4692, 1094.229
217.9513, 1109.722
218.4335, 1131.825
218.9156, 1151.158
219.3977, 1173.290
219.8798, 1213.674
220.3619, 1281.120
220.8440, 1357.646
221.3262, 1419.837
221.8083, 1469.632
222.2904, 1505.084
222.7725, 1507.065
223.2546, 1498.452
223.7367, 1524.141
224.2189, 1600.303
224.7010, 1688.774
225.1831, 1735.689
225.6652, 1741.431
226.1473, 1754.495
226.6294, 1798.064
227.1115, 1850.380
227.5937, 1880.829
228.0758, 1883.222
228.5579, 1874.062
229.0400, 1863.572
229.5221, 1851.759
230.0042, 1861.878
230.4864, 1905.625
230.9685, 1968.053
231.4506, 2048.470
231.9327, 2145.920
232.4148, 2218.491
232.8969, 2217.267
233.3791, 2142.686
233.8612, 2098.181
234.3433, 2097.496
234.8254, 2121.118
235.3075, 2164.158
235.7896, 2223.381
236.2718, 2275.613
236.7539, 2300.327
237.2360, 2301.199
237.7181, 2322.755
238.2002, 2383.995
238.6823, 2447.689
239.1645, 2499.386
239.6466, 2537.204
240.1287, 2551.205
240.6108, 2526.474
241.0929, 2477.048
241.5750, 2474.258
242.0572, 2548.515
242.5393, 2629.054
243.0214, 2709.870
243.5035, 2777.830
243.9856, 2796.653
244.4677, 2741.788
244.9499, 2639.730
245.4320, 2574.067
245.9141, 2543.859
246.3962, 2546.197
246.8783, 2607.743
247.3604, 2693.555
247.8426, 2748.438
248.3247, 2752.131
248.8068, 2727.226
249.2889, 2717.835
249.7710, 2736.226
250.2531, 2748.400
250.7352, 2746.575
251.2174, 2739.807
251.6995, 2739.605
252.1816, 2748.424
252.6637, 2758.019
253.1458, 2755.597
253.6279, 2730.377
254.1101, 2705.005
254.5922, 2682.004
255.0743, 2660.917
255.5564, 2640.200
256.0385, 2620.111
256.5207, 2602.899
257.0028, 2591.198
257.4849, 2586.030
257.9670, 2584.410
258.4491, 2604.809
258.9312, 2608.828
259.4134, 2560.134
259.8955, 2475.673
260.3776, 2408.352
260.8597, 2405.170
261.3418, 2464.664
261.8239, 2483.869
262.3060, 2432.592
262.7881, 2380.524
263.2703, 2345.218
263.7524, 2318.731
264.2345, 2288.547
264.7166, 2252.233
265.1987, 2211.369
265.6808, 2158.101
266.1630, 2063.963
266.6451, 1988.700
267.1272, 1951.675
267.6093, 1932.438
268.0914, 1908.984
268.5735, 1872.517
269.0557, 1826.922
269.5378, 1775.619
270.0199, 1705.626
270.5020, 1649.126
270.9841, 1617.512
271.4662, 1593.321
271.9484, 1565.162
272.4305, 1529.439
272.9126, 1486.588
273.3947, 1431.459
273.8768, 1355.026
274.3589, 1301.933
274.8411, 1316.907
275.3232, 1322.592
275.8053, 1265.587
276.2874, 1153.469
276.7695, 1044.655
277.2516, 994.5864
277.7338, 1003.949
278.2159, 1012.050
278.6980, 1023.374
279.1801, 1024.501
279.6622, 1016.190
280.1443, 995.4907
280.6265, 957.1060
281.1086, 887.4502
281.5907, 794.8945
282.0728, 714.8452
282.5549, 647.9204
283.0370, 594.6523
283.5192, 558.9644
284.0013, 534.7515
284.4834, 519.2446
284.9655, 522.4507
285.4476, 518.4824
285.9297, 459.2085
286.4119, 334.9644
286.8940, 221.2007
287.3761, 139.7974
287.8582, 91.17725
288.3403, 83.91699
288.8224, 132.8076
289.3046, 175.9072
289.7867, 148.4771
290.2688, 65.49658
290.7509, 16.70117
291.2330, 39.10889
291.7151, 88.18555
292.1973, 105.7246
292.6794, 89.97559
293.1615, 78.80469
293.6436, 98.37305
294.1257, 129.9775
294.6078, 137.7285
295.0900, 113.0942
295.5721, 77.86719
296.0542, 49.07080
296.5363, 26.68799
297.0184, 19.63916
297.5005, 48.84131
297.9827, 80.14404
298.4648, 74.63184
298.9469, 35.10254
299.4290, 6.271484
299.9111, 23.76562
300.3932, 81.88037
300.8754, 118.8218
301.3575, 141.6992
301.8396, 137.8823
302.3217, 81.81250
302.8038, 4.290039
303.2859, 75.22461
303.7681, 109.0210
304.2502, 110.7485
304.7323, 96.01953
305.2144, 51.68848
305.6965, 10.03271
306.1786, 29.37939
306.6608, 65.57959
307.1429, 102.9082
307.6250, 141.3281
308.1071, 167.0933
308.5892, 157.9419
309.0714, 99.89062
309.5535, 41.65918
310.0356, 47.02930
310.5177, 109.6841
310.9998, 96.96973
311.4819, 23.51611
311.9640, 50.51514
312.4461, 72.34082
312.9283, 41.55469
313.4104, 22.08252
313.8925, 34.26367
314.3746, 36.03027
314.8567, 0.2768550
315.3388, 50.66113
315.8210, 73.95166
316.3031, 44.60791
316.7852, 13.20410
317.2673, 33.65137
317.7494, 3.932617
318.2315, 32.07666
318.7137, 12.42041
319.1958, 10.46387
319.6779, 13.02783
320.1600, 96.03906
320.6421, 177.6851
321.1242, 175.7578
321.6064, 87.42139
322.0885, 30.15918
322.5706, 44.28516
323.0527, 74.25488
323.5348, 78.13330
324.0169, 57.84082
324.4991, 33.79932
324.9812, 12.24268
325.4633, 4.734375
325.9454, 5.236328
326.4275, 19.79639
326.9096, 31.64062
327.3918, 14.93750
327.8739, 98.22363
328.3560, 160.9399
328.8381, 190.4888
329.3202, 196.8418
329.8023, 176.0913
330.2845, 133.9360
330.7666, 106.3223
331.2487, 113.7373
331.7308, 143.8804
332.2129, 164.2559
332.6950, 174.7529
333.1772, 178.5693
333.6593, 181.3276
334.1414, 176.9175
334.6235, 146.8701
335.1056, 85.29199
335.5877, 26.72363
336.0699, 22.92920
336.5520, 107.4170
337.0341, 143.0444
337.5162, 79.02783
337.9983, 8.518555
338.4804, 0.5678710
338.9626, 45.63525
339.4447, 94.36377
339.9268, 103.1157
340.4089, 75.05029
340.8910, 62.82080
341.3731, 93.51953
341.8553, 111.7842
342.3374, 90.46777
342.8195, 55.56348
343.3016, 42.26660
343.7837, 68.33496
344.2658, 117.6372
344.7480, 154.9893
345.2301, 173.6641
345.7122, 184.0107
346.1943, 176.1777
346.6764, 166.9067
347.1585, 176.5020
347.6407, 201.5674
348.1228, 219.7227
348.6049, 206.0283
349.0870, 167.6206
349.5691, 162.3481
350.0512, 219.3989
350.5334, 270.2407
351.0155, 262.2632
351.4976, 219.7407
351.9797, 195.4395
352.4618, 221.8071
352.9439, 266.5347
353.4261, 279.4150
353.9082, 259.2520
354.3903, 252.3745
354.8724, 290.9995
355.3545, 346.7510
355.8366, 367.8086
356.3188, 347.4160
356.8009, 315.0342
357.2830, 271.7969
357.7651, 227.0840
358.2472, 204.4023
358.7293, 212.4868
359.2115, 232.9751
359.6936, 246.2305
360.1757, 253.2002
360.6578, 242.6240
361.1399, 181.1162
361.6220, 127.6030
362.1041, 135.1343
362.5862, 193.6958
363.0684, 250.7134
363.5505, 268.6968
364.0326, 251.0176
364.5147, 228.2559
364.9968, 177.8862
365.4789, 149.3696
365.9611, 168.6226
366.4432, 205.5347
366.9253, 223.8081
367.4074, 212.3091
367.8895, 188.2817
368.3716, 184.0938
368.8538, 212.8311
369.3359, 234.7383
369.8180, 241.3335
370.3001, 242.4023
370.7822, 234.3389
371.2643, 223.1655
371.7465, 226.3057
372.2286, 264.4355
372.7107, 325.4448
373.1928, 360.4824
373.6749, 363.6807
374.1570, 359.8110
374.6392, 357.8379
375.1213, 354.9727
375.6034, 347.9941
376.0855, 333.8252
376.5676, 320.2085
377.0497, 315.4780
377.5319, 315.6235
378.0140, 302.7192
378.4961, 268.4268
378.9782, 229.9092
379.4603, 208.3350
379.9424, 201.1973
380.4246, 199.9004
380.9067, 200.5605
381.3888, 208.1050
381.8709, 235.0166
382.3530, 278.7202
382.8351, 315.3281
383.3173, 329.1069
383.7994, 319.8369
384.2815, 289.4375
384.7636, 204.9780
385.2457, 145.2222
385.7278, 143.7246
386.2100, 169.3735
386.6921, 181.9893
387.1742, 167.5527
387.6563, 139.7109
388.1384, 118.8276
388.6205, 102.7490
389.1027, 100.1348
389.5848, 124.4819
390.0669, 149.2441
390.5490, 160.6113
391.0311, 160.7598
391.5132, 160.8354
391.9954, 172.1948
392.4775, 187.6987
392.9596, 175.7109
393.4417, 118.7847
393.9238, 74.64258
394.4059, 83.62939
394.8881, 108.7524
395.3702, 108.9912
395.8523, 68.50635
396.3344, 31.51172
396.8165, 47.15430
397.2986, 99.97021
397.7808, 128.4194
398.2629, 117.0854
398.7450, 86.02832
399.2271, 46.81689
399.7092, 0.3544920
400.1913, 23.49072
400.6735, 13.25293
401.1556, 47.12500
401.6377, 9.496094
402.1198, 80.96094
402.6019, 137.8730
403.0840, 105.4111
403.5662, 15.81055
404.0483, 20.27979
404.5304, 75.89746
405.0125, 123.1997
405.4946, 63.59033
405.9767, 20.95312
406.4589, 50.53711
406.9410, 15.08154
407.4231, 35.61621
407.9052, 47.10742
408.3873, 15.62451
408.8694, 2.188965
409.3516, 7.165527
409.8336, 15.25146
410.3158, 8.668457
410.7979, 3.772949
411.2800, 5.516602
411.7621, 13.80371
412.2442, 35.99854
412.7263, 27.94580
413.2085, 13.46680
413.6906, 39.41016
414.1727, 24.85254
414.6548, 3.262207
415.1369, 9.629395
415.6190, 43.22217
416.1012, 78.73340
416.5833, 122.9482
417.0654, 156.0977
417.5475, 136.6821
418.0296, 64.25928
418.5117, 2.163574
418.9939, 7.107910
419.4760, 26.73340
419.9581, 51.53369
420.4402, 70.33447
420.9223, 80.70166
421.4044, 73.07178
421.8866, 59.12158
422.3687, 57.15918
422.8508, 70.01025
423.3329, 81.00830
423.8150, 64.59229
424.2971, 7.360352
424.7793, 7.488281
425.2614, 72.94922
425.7435, 140.3506
426.2256, 152.8086
426.7077, 127.3794
427.1898, 96.51562
427.6720, 75.07373
428.1541, 60.23682
428.6362, 45.79639
429.1183, 30.37695
429.6004, 24.09326
430.0826, 42.45312
430.5647, 60.23535
431.0468, 51.71582
431.5289, 17.25146
432.0110, 12.70312
432.4931, 25.53955
432.9753, 23.93750
433.4574, 8.435547
433.9395, 21.07471
434.4216, 51.98828
434.9037, 77.48535
435.3858, 98.01172
435.8680, 116.1484
436.3501, 146.1553
436.8322, 155.7871
437.3143, 117.9795
437.7964, 64.09814
438.2785, 28.49902
438.7607, 20.55762
439.2428, 37.03418
439.7249, 81.08545
440.2070, 161.6733
440.6891, 199.5894
441.1712, 148.1489
441.6534, 102.1997
442.1355, 85.04736
442.6176, 91.53564
443.0997, 115.6650
443.5818, 158.9634
444.0639, 204.1748
444.5461, 217.9492
445.0282, 196.3140
445.5103, 187.9360
445.9924, 212.7241
446.4745, 241.5327
446.9566, 248.9443
447.4388, 238.2666
447.9209, 227.2559
448.4030, 215.9058
448.8851, 210.9390
449.3672, 227.4839
449.8493, 262.4023
450.3315, 287.7231
450.8136, 289.2163
451.2957, 270.6978
451.7778, 242.4600
452.2599, 195.1890
452.7420, 159.9185
453.2242, 135.8057
453.7063, 125.3408
454.1884, 143.6787
454.6705, 185.4741
455.1526, 215.7002
455.6347, 197.6812
456.1169, 138.5332
456.5990, 118.8965
457.0811, 167.2368
457.5632, 210.3701
458.0453, 238.1255
458.5274, 253.6353
459.0095, 254.1279
459.4916, 236.0029
459.9738, 202.5249
460.4559, 148.7100
460.9380, 88.64062
461.4201, 74.68262
461.9022, 120.1558
462.3843, 165.7368
462.8665, 171.7114
463.3486, 155.0918
463.8307, 155.3892
464.3128, 180.3076
464.7949, 208.1641
465.2770, 236.4165
465.7592, 259.7236
466.2413, 259.9556
466.7234, 229.8740
467.2055, 194.0234
467.6876, 188.5933
468.1697, 223.5518
468.6519, 253.0039
469.1340, 271.5938
469.6161, 288.6914
470.0982, 318.0532
470.5803, 348.4731
471.0624, 357.3052
471.5446, 329.9336
472.0267, 284.0859
472.5088, 251.4473
472.9909, 234.6533
473.4730, 222.5923
473.9551, 211.0601
474.4373, 204.7007
474.9194, 207.7002
475.4015, 219.0298
475.8836, 233.0522
476.3657, 253.3765
476.8478, 269.9736
477.3300, 267.2485
477.8121, 248.4521
478.2942, 236.5679
478.7763, 240.8540
479.2584, 260.2412
479.7405, 295.0381
480.2227, 364.8306
480.7048, 408.1987
481.1869, 403.8184
481.6690, 389.2139
482.1511, 389.0752
482.6332, 400.8423
483.1154, 410.0469
483.5975, 404.1914
484.0796, 390.5571
484.5617, 392.5352
485.0438, 413.2388
485.5259, 441.4375
486.0081, 504.7212
486.4902, 552.8228
486.9723, 531.9072
487.4544, 447.5518
487.9365, 383.1646
488.4186, 396.0259
488.9008, 455.0493
489.3829, 518.3545
489.8650, 583.8154
490.3471, 631.2666
490.8292, 650.2222
491.3113, 645.9424
491.7935, 626.8745
492.2756, 574.7456
492.7577, 547.4521
493.2398, 568.9043
493.7219, 607.7002
494.2040, 641.4595
494.6862, 666.1519
495.1683, 683.0449
495.6504, 693.0986
496.1325, 696.4873
496.6146, 692.5386
497.0967, 673.3140
497.5789, 662.3994
498.0610, 679.9189
498.5431, 696.6084
499.0252, 676.5737
499.5073, 620.9028
499.9894, 587.4370
500.4716, 642.3525
500.9537, 738.4805
501.4358, 769.3799
501.9179, 727.5112
502.4000, 692.1045
502.8821, 711.4434
503.3643, 762.8745
503.8464, 781.1987
504.3285, 742.5752
504.8106, 724.1123
505.2927, 763.0610
505.7748, 813.4766
506.2570, 828.7920
506.7391, 809.8711
507.2212, 789.6538
507.7033, 793.8569
508.1854, 817.2124
508.6675, 831.9038
509.1496, 832.5303
509.6317, 834.8047
510.1139, 857.1982
510.5960, 871.6865
511.0781, 836.3970
511.5602, 755.4312
512.0424, 710.8691
512.5245, 792.3105
513.0066, 931.5791
513.4887, 994.1055
513.9708, 975.1572
514.4529, 944.4839
514.9351, 932.7397
515.4172, 936.8892
515.8993, 953.6284
516.3814, 1001.419
516.8635, 1019.929
517.3456, 967.8843
517.8278, 908.7031
518.3099, 895.0059
518.7920, 923.7949
519.2741, 964.4077
519.7562, 999.1030
520.2383, 1023.822
520.7205, 1019.564
521.2026, 967.6348
521.6847, 936.7886
522.1668, 964.1055
522.6489, 1000.285
523.1310, 1013.433
523.6132, 1003.886
524.0953, 990.3975
524.5774, 985.7314
525.0595, 980.1533
525.5416, 949.4751
526.0237, 899.8950
526.5059, 883.2598
526.9880, 930.3311
527.4701, 1001.726
527.9522, 1026.014
528.4343, 983.8179
528.9164, 936.6880
529.3986, 863.6826
529.8807, 805.2964
530.3628, 796.5845
530.8449, 820.5400
531.3270, 837.4341
531.8091, 826.6650
532.2913, 800.3682
532.7734, 786.1328
533.2554, 789.8623
533.7375, 757.3506
534.2197, 628.8857
534.7018, 530.3408
535.1839, 583.5005
535.6660, 747.0483
536.1481, 875.4907
536.6302, 912.6128
537.1124, 918.2661
537.5945, 923.7793
538.0766, 930.7305
538.5587, 945.3628
539.0408, 969.6230
539.5229, 993.1167
540.0051, 1002.043
540.4872, 994.0894
540.9693, 987.9229
541.4514, 992.0254
541.9335, 988.3032
542.4156, 961.1074
542.8978, 928.1270
543.3799, 914.8994
543.8620, 928.9634
544.3441, 946.0605
544.8262, 942.3140
545.3083, 920.5806
545.7905, 894.1694
546.2726, 865.0239
546.7547, 829.0566
547.2368, 773.3281
547.7189, 711.7969
548.2010, 686.7681
548.6832, 724.0596
549.1653, 753.3530
549.6474, 748.4585
550.1295, 731.2383
550.6116, 719.0894
551.0938, 716.7319
551.5759, 731.9463
552.0580, 777.9541
552.5401, 837.6265
553.0222, 820.8799
553.5043, 677.9878
553.9865, 576.0381
554.4686, 593.0713
554.9507, 634.2202
555.4328, 628.9429
555.9149, 580.4448
556.3970, 550.4819
556.8792, 587.5039
557.3613, 644.5684
557.8434, 673.8594
558.3255, 675.4658
558.8076, 649.8242
559.2897, 593.4141
559.7719, 526.6021
560.2540, 479.6250
560.7361, 452.3413
561.2182, 448.6597
561.7003, 499.3184
562.1824, 537.6831
562.6646, 541.5420
563.1467, 513.6211
563.6288, 450.9995
564.1109, 350.3691
564.5930, 255.5195
565.0751, 237.3716
565.5573, 281.7710
566.0394, 268.0742
566.5215, 165.9243
567.0036, 67.32568
567.4857, 42.07520
567.9678, 70.63867
568.4500, 69.95557
568.9321, 9.729004
569.4142, 42.67676
569.8963, 59.69775
570.3784, 193.5864
570.8605, 245.2573
571.3427, 209.8164
571.8248, 154.6401
572.3069, 128.7798
572.7890, 127.5791
573.2711, 135.1953
573.7532, 158.1011
574.2354, 170.6353
574.7175, 150.4844
575.1996, 132.1812
575.6817, 153.8721
576.1638, 208.4717
576.6459, 238.6255
577.1281, 201.3242
577.6102, 148.2896
578.0923, 127.0630
578.5744, 128.9863
579.0565, 125.2671
579.5386, 105.6753
580.0208, 86.16895
580.5029, 89.39111
580.9850, 119.9961
581.4671, 143.4072
581.9492, 170.8281
582.4313, 177.2207
582.9135, 137.9326
583.3956, 82.40234
583.8777, 45.20996
584.3598, 34.75684
584.8419, 40.00537
585.3240, 65.66553
585.8062, 97.59863
586.2883, 97.67676
586.7704, 63.00488
587.2525, 23.37891
587.7346, 6.746094
588.2167, 28.83594
588.6989, 46.12500
589.1810, 65.33594
589.6631, 66.33887
590.1452, 20.93115
590.6273, 17.86768
591.1094, 7.826172
591.5916, 35.30176
592.0737, 71.72119
592.5558, 82.52783
593.0379, 73.30029
593.5200, 47.86621
594.0021, 6.961914
594.4843, 32.49707
594.9664, 71.35059
595.4485, 99.76270
595.9306, 108.1284
596.4127, 98.38623
596.8948, 84.66748
597.3770, 50.90576
597.8591, 33.98779
598.3412, 67.68213
598.8233, 109.6284
599.3054, 108.8882
599.7875, 65.29004
600.2697, 17.58496
600.7518, 5.677734
601.2339, 8.558594
601.7160, 0.6201170
602.1981, 29.26562
602.6802, 36.55957
603.1624, 10.43506
603.6445, 57.53271
604.1266, 46.89258
604.6087, 13.26465
605.0908, 60.43750
605.5729, 55.75342
606.0551, 50.07568
606.5372, 80.44434
607.0193, 128.9990
607.5014, 167.0498
607.9835, 185.9932
608.4656, 185.1206
608.9478, 159.8633
609.4299, 113.1572
609.9120, 97.24072
610.3941, 129.7710
610.8762, 155.0571
611.3583, 152.0767
611.8405, 138.6123
612.3226, 120.7793
612.8047, 100.7920
613.2868, 109.7017
613.7689, 189.4478
614.2510, 282.2793
614.7332, 337.2881
615.2153, 354.6670
615.6974, 332.6548
616.1795, 269.2563
616.6616, 202.2788
617.1437, 187.3696
617.6259, 238.1602
618.1080, 272.8208
618.5901, 283.0537
619.0722, 276.2202
619.5543, 222.0122
620.0364, 169.6172
620.5186, 190.9233
621.0007, 303.8755
621.4828, 406.8169
621.9649, 417.5083
622.4470, 390.6919
622.9291, 409.7192
623.4113, 467.7939
623.8934, 503.6216
624.3755, 487.4434
624.8576, 441.5908
625.3397, 400.8721
625.8218, 355.2144
626.3040, 341.1729
626.7861, 395.1562
627.2682, 437.8242
627.7503, 438.5991
628.2324, 416.2593
628.7145, 396.9712
629.1967, 387.7925
629.6788, 388.4331
630.1609, 412.7930
630.6430, 440.6724
631.1251, 426.2812
631.6072, 370.9971
632.0893, 323.5933
632.5714, 311.3345
633.0535, 323.2905
633.5356, 334.3472
634.0178, 340.2144
634.4999, 354.3833
634.9820, 385.3013
635.4641, 415.5000
635.9462, 449.9888
636.4283, 475.8335
636.9105, 465.0776
637.3926, 402.4829
637.8747, 338.6172
638.3568, 313.6802
638.8389, 318.4712
639.3210, 339.9795
639.8032, 375.1240
640.2853, 403.0757
640.7674, 410.9111
641.2495, 404.2573
641.7316, 397.7319
642.2137, 387.9702
642.6959, 385.3843
643.1780, 411.5654
643.6601, 422.6685
644.1422, 380.2119
644.6243, 312.5264
645.1064, 275.6270
645.5886, 293.2690
646.0707, 317.8823
646.5528, 304.6646
647.0349, 271.0830
647.5170, 259.3604
647.9991, 272.4585
648.4813, 271.9849
648.9634, 230.7588
649.4455, 167.7578
649.9276, 137.3467
650.4097, 159.1035
650.8918, 175.0747
651.3740, 172.9775
651.8561, 178.3115
652.3382, 220.5498
652.8203, 273.3335
653.3024, 283.6328
653.7845, 228.4897
654.2667, 159.8936
654.7488, 100.1230
655.2309, 60.85645
655.7130, 79.09424
656.1951, 150.2207
656.6772, 206.6162
657.1594, 206.7427
657.6415, 173.4219
658.1236, 164.5220
658.6057, 197.9963
659.0878, 210.9438
659.5699, 187.8857
660.0521, 159.4109
660.5342, 141.5815
661.0163, 125.5090
661.4984, 87.38257
661.9805, 11.73291
662.4626, 31.86377
662.9448, 42.71680
663.4269, 151.4656
663.9090, 167.1321
664.3911, 95.29761
664.8732, 25.08569
665.3553, 3.776855
665.8375, 11.68140
666.3196, 8.616699
666.8017, 11.82227
667.2838, 17.57275
667.7659, 3.584717
668.2480, 23.20215
668.7302, 29.86011
669.2123, 26.87329
669.6944, 17.05811
670.1765, 1.130371
670.6586, 16.34229
671.1407, 25.83521
671.6229, 28.31201
672.1050, 24.11987
672.5871, 11.73828
673.0692, 22.14453
673.5513, 83.90308
674.0334, 137.5940
674.5156, 113.0081
674.9977, 0.8383790
675.4798, 58.21680
675.9619, 48.69336
676.4440, 19.48901
676.9261, 28.98315
677.4083, 73.34741
677.8904, 76.03369
678.3725, 28.31934
678.8546, 14.46704
679.3367, 50.01831
679.8188, 64.67798
680.3010, 26.25903
680.7831, 34.51660
681.2652, 59.42896
681.7473, 30.57471
682.2294, 17.23804
682.7115, 56.46167
683.1937, 82.60498
683.6758, 59.00952
684.1579, 24.20361
684.6400, 95.37256
685.1221, 129.5237
685.6042, 137.4851
686.0864, 127.4290
686.5685, 91.26562
687.0506, 74.13892
687.5327, 98.50195
688.0148, 120.7786
688.4969, 123.4968
688.9791, 116.9299
689.4612, 111.2974
689.9433, 108.2903
690.4254, 107.6721
690.9075, 108.8760
691.3896, 114.9961
691.8718, 138.1614
692.3539, 173.9004
692.8360, 185.4990
693.3181, 159.4153
693.8002, 130.4482
694.2823, 131.4309
694.7645, 160.3577
695.2466, 199.8601
695.7287, 254.7805
696.2108, 315.3491
696.6929, 407.4922
697.1750, 483.5356
697.6572, 495.9106
698.1393, 457.4482
698.6214, 424.4895
699.1035, 415.0774
699.5856, 424.8916
700.0677, 463.8909
700.5499, 518.8235
701.0320, 562.5010
701.5141, 589.8474
701.9962, 611.5320
702.4783, 640.0764
702.9604, 657.7744
703.4426, 591.4534
703.9247, 390.7080
704.4068, 287.1504
704.8889, 362.2395
705.3710, 460.4648
705.8531, 488.9497
706.3353, 473.4580
706.8174, 464.7722
707.2995, 475.4915
707.7816, 472.5544
708.2637, 439.9343
708.7458, 395.8984
709.2280, 340.1223
709.7101, 284.2458
710.1922, 263.1479
710.6743, 293.9343
711.1564, 342.5562
711.6385, 367.7515
712.1207, 370.7756
712.6028, 348.7305
713.0849, 293.4326
713.5670, 269.3430
714.0491, 315.1951
714.5313, 396.8374
715.0134, 461.4087
715.4955, 513.5957
715.9776, 525.6482
716.4597, 470.5165
716.9418, 409.0751
717.4240, 336.9731
717.9061, 284.0967
718.3882, 300.6368
718.8703, 386.7635
719.3524, 462.2065
719.8345, 449.8746
720.3167, 411.4838
720.7988, 447.6805
721.2809, 532.2081
721.7630, 584.8296
722.2451, 583.5726
722.7272, 559.3716
723.2094, 540.8882
723.6915, 528.5117
724.1736, 511.4436
724.6557, 473.9930
725.1378, 470.7269
725.6199, 546.2147
726.1021, 625.7266
726.5842, 655.9185
727.0663, 645.6554
727.5484, 627.1379
728.0305, 602.9226
728.5126, 575.1650
728.9948, 549.6129
729.4769, 517.8313
729.9590, 458.6415
730.4411, 385.4056
730.9232, 340.4987
731.4053, 346.9321
731.8874, 375.7549
732.3695, 387.9240
732.8516, 383.3634
733.3337, 388.2365
733.8159, 413.1632
734.2980, 401.2753
734.7801, 307.1515
735.2622, 183.6520
735.7443, 133.5287
736.2264, 177.7054
736.7086, 218.9150
737.1907, 281.6227
737.6728, 313.9520
738.1549, 278.8411
738.6370, 222.5978
739.1191, 191.0469
739.6013, 189.9636
740.0834, 203.7937
740.5655, 238.1948
741.0476, 273.8258
741.5297, 313.6774
742.0118, 342.2180
742.4940, 293.7107
742.9761, 163.5830
743.4582, 57.42737
743.9403, 76.46216
744.4224, 181.4700
744.9045, 231.1052
745.3867, 220.7322
745.8688, 192.3568
746.3509, 137.8771
746.8330, 97.32251
747.3151, 114.0507
747.7972, 171.1082
748.2794, 190.6996
748.7615, 143.7468
749.2436, 109.9839
749.7257, 115.2610
750.2078, 120.5835
750.6899, 87.14746
751.1721, 37.67981
751.6542, 21.29504
752.1363, 56.28308
752.6184, 107.2943
753.1005, 155.9857
753.5826, 195.5154
754.0648, 216.5684
754.5469, 218.2800
755.0290, 190.9644
755.5111, 129.8716
755.9932, 71.95300
756.4753, 70.23706
756.9575, 121.9467
757.4396, 128.4192
757.9217, 70.38757
758.4038, 22.60608
758.8859, 5.205566
759.3680, 4.746460
759.8502, 10.26611
760.3323, 21.24121
760.8144, 36.25037
761.2965, 56.08020
761.7786, 79.25684
762.2607, 122.4865
762.7429, 155.3820
763.2250, 137.2260
763.7071, 84.68335
764.1892, 57.21667
764.6713, 89.58118
765.1534, 124.0853
765.6356, 82.90356
766.1177, 2.365356
766.5998, 34.19470
767.0819, 22.38501
767.5640, 10.41870
768.0461, 53.03564
768.5283, 92.67163
769.0104, 105.4824
769.4925, 88.83948
769.9746, 75.24194
770.4567, 59.75476
770.9388, 59.00964
771.4210, 82.92847
771.9031, 121.2285
772.3852, 174.8960
772.8673, 240.8026
773.3494, 259.8126
773.8315, 178.9291
774.3137, 108.0581
774.7958, 81.03711
775.2779, 83.62170
775.7600, 117.1471
776.2421, 168.0286
776.7242, 196.4039
777.2064, 177.7054
777.6885, 142.1824
778.1706, 114.1143
778.6527, 96.19629
779.1348, 97.90320
779.6169, 116.7876
780.0991, 139.7368
780.5812, 161.0807
781.0633, 181.7678
781.5454, 205.5806
782.0275, 234.1663
782.5096, 241.9421
782.9918, 219.2959
783.4739, 204.2927
783.9560, 218.3235
784.4381, 235.2806
784.9202, 216.4703
785.4023, 160.7781
785.8845, 140.5195
786.3666, 193.6057
786.8487, 238.2875
787.3308, 247.1013
787.8129, 242.0430
788.2950, 237.9177
788.7772, 238.3707
789.2593, 248.8106
789.7414, 278.9426
790.2235, 300.0615
790.7056, 271.4028
791.1877, 224.8661
791.6699, 221.6633
792.1520, 255.9429
792.6341, 272.5903
793.1162, 243.0280
793.5983, 195.1308
794.0804, 170.6176
794.5626, 168.5421
795.0447, 181.1370
795.5268, 215.6450
796.0089, 217.4595
796.4910, 153.7760
796.9731, 76.95703
797.4553, 46.82666
797.9374, 63.04749
798.4195, 78.21326
798.9016, 99.61255
799.3837, 113.0909
799.8658, 104.9485
800.3480, 90.31329
800.8301, 72.20410
801.3122, 58.55548
801.7943, 77.46838
802.2764, 153.4571
802.7585, 217.6881
803.2407, 229.5258
803.7228, 216.2445
804.2049, 193.1572
804.6870, 168.7792
805.1691, 158.5912
805.6512, 168.3047
806.1334, 186.2784
806.6155, 207.3438
807.0976, 224.7674
807.5797, 218.0994
808.0618, 189.4269
808.5439, 150.9678
809.0261, 103.1189
809.5082, 74.78613
809.9903, 98.00146
810.4724, 162.6852
810.9545, 212.3265
811.4366, 250.1334
811.9188, 261.1412
812.4009, 227.5679
812.8830, 188.7361
813.3651, 160.5377
813.8472, 144.9471
814.3293, 154.0319
814.8115, 206.2362
815.2936, 225.6952
815.7757, 168.5084
816.2578, 109.4666
816.7399, 74.77838
817.2220, 68.13477
817.7042, 102.6339
818.1863, 173.2325
818.6684, 234.0061
819.1505, 262.9495
819.6326, 265.9299
820.1147, 231.2180
820.5969, 180.6320
821.0790, 161.6320
821.5611, 173.2756
822.0432, 170.9353
822.5253, 126.4143
823.0074, 68.69061
823.4896, 51.53290
823.9717, 68.38470
824.4538, 72.09576
824.9359, 61.89502
825.4180, 58.10553
825.9001, 69.80054
826.3823, 86.97717
826.8644, 96.47009
827.3465, 97.89319
827.8286, 91.03259
828.3107, 74.72327
828.7928, 55.62256
829.2749, 13.07068
829.7570, 12.32837
830.2391, 20.24719
830.7213, 94.59924
831.2034, 152.6146
831.6855, 182.3198
832.1676, 203.7042
832.6497, 232.0365
833.1318, 244.8767
833.6140, 214.0133
834.0961, 159.3236
834.5782, 112.6124
835.0603, 82.48901
835.5424, 56.05176
836.0245, 15.40393
836.5067, 18.41260
836.9888, 12.14209
837.4709, 17.33643
837.9530, 29.63135
838.4351, 18.85974
838.9172, 11.49219
839.3994, 29.68225
839.8815, 53.92004
840.3636, 32.37122
840.8457, 27.13904
841.3278, 46.94531
841.8099, 17.68518
842.2921, 29.27954
842.7742, 83.23608
843.2563, 131.3325
843.7384, 152.6383
844.2205, 145.8164
844.7026, 125.7285
845.1848, 81.76245
845.6669, 45.61609
846.1490, 17.06738
846.6311, 7.369019
847.1132, 41.68848
847.5953, 108.2991
848.0775, 147.0214
848.5596, 146.1129
849.0417, 130.7825
849.5238, 66.93481
850.0059, 28.99463
850.4880, 95.41272
850.9702, 205.4059
851.4523, 252.1082
851.9344, 209.3496
852.4165, 150.7058
852.8986, 111.6971
853.3807, 78.48608
853.8629, 28.21631
854.3450, 19.63965
854.8271, 20.89905
855.3092, 20.17322
855.7913, 42.06543
856.2734, 1.509888
856.7556, 58.96790
857.2377, 49.43884
857.7198, 4.442993
858.2019, 46.00366
858.6840, 74.34790
859.1661, 100.7443
859.6483, 130.9280
860.1304, 147.7847
860.6125, 118.9801
861.0946, 52.43884
861.5767, 42.56152
862.0588, 102.1172
862.5410, 133.4460
863.0231, 102.6119
863.5052, 73.34619
863.9873, 103.2748
864.4694, 170.1021
864.9515, 192.2487
865.4337, 138.4381
865.9158, 107.3352
866.3979, 107.9626
866.8800, 120.9877
867.3621, 161.3306
867.8442, 196.8484
868.3264, 175.1598
868.8085, 91.47302
869.2906, 38.93127
869.7727, 58.72571
870.2548, 79.34021
870.7369, 77.86987
871.2191, 65.87842
871.7012, 43.31982
872.1833, 20.50940
872.6654, 25.16968
873.1475, 73.96545
873.6296, 117.0289
874.1118, 113.0902
874.5939, 95.08020
875.0760, 103.5878
875.5581, 123.3390
876.0402, 112.8274
876.5223, 65.64099
877.0045, 22.30566
877.4866, 15.39697
877.9687, 30.21094
878.4508, 49.94153
878.9329, 71.12122
879.4150, 79.70801
879.8972, 75.72131
880.3793, 77.34119
880.8614, 95.08923
881.3435, 113.2230
881.8256, 100.5157
882.3077, 61.31262
882.7899, 52.32800
883.2720, 76.57324
883.7541, 93.79382
884.2362, 94.42432
884.7183, 74.91028
885.2004, 21.71790
885.6826, 48.96375
886.1647, 48.68091
886.6468, 63.21423
887.1289, 123.2299
887.6110, 94.68933
888.0931, 60.93176
888.5753, 66.60999
889.0574, 84.43103
889.5395, 62.70874
890.0216, 11.01184
890.5037, 28.97925
890.9858, 72.36780
891.4680, 143.6470
891.9501, 129.4923
892.4322, 97.29053
892.9143, 103.3741
893.3964, 132.5901
893.8785, 133.5322
894.3607, 85.46484
894.8428, 42.50220
895.3249, 18.90100
895.8070, 8.405884
896.2891, 16.80798
896.7712, 31.26343
897.2534, 27.93066
897.7355, 8.301392
898.2176, 7.687378
898.6997, 57.99500
899.1818, 110.0948
899.6639, 131.2308
900.1461, 127.9821
900.6282, 91.42212
901.1103, 39.92480
901.5924, 26.49182
902.0745, 69.72534
902.5566, 114.3915
903.0388, 90.54480
903.5209, 38.96008
904.0030, 42.20203
904.4851, 82.23438
904.9672, 103.1307
905.4493, 94.23743
905.9315, 69.67761
906.4136, 37.69788
906.8957, 0.9672850
907.3778, 42.82703
907.8599, 89.54944
908.3420, 106.5938
908.8242, 92.79272
909.3063, 47.07275
909.7884, 36.39380
910.2705, 110.7512
910.7526, 120.6775
911.2347, 81.47815
911.7169, 80.37915
912.1990, 127.7222
912.6811, 144.5336
913.1632, 120.9093
913.6453, 70.03894
914.1274, 20.21167
914.6096, 109.1290
915.0917, 109.5249
915.5738, 4.231934
916.0559, 48.53906
916.5380, 17.48621
917.0201, 6.154297
917.5023, 0.5103760
917.9844, 14.40723
918.4665, 22.90063
918.9486, 24.59766
919.4307, 14.99707
919.9128, 11.15906
920.3950, 34.98694
920.8771, 75.96692
921.3592, 90.18042
921.8413, 42.36096
922.3234, 26.26624
922.8055, 79.25342
923.2877, 113.1495
923.7698, 126.9434
924.2519, 105.0381
924.7340, 87.83716
925.2161, 75.00854
925.6982, 82.16992
926.1804, 144.5256
926.6625, 223.9053
927.1446, 258.6323
927.6267, 237.6992
928.1088, 201.0513
928.5909, 150.3203
929.0730, 108.4185
929.5551, 89.39526
930.0372, 86.85669
930.5193, 98.93408
931.0015, 120.7041
931.4836, 146.4697
931.9657, 174.8918
932.4478, 186.3340
932.9299, 148.3726
933.4120, 101.2991
933.8942, 86.09644
934.3763, 95.14648
934.8584, 118.1646
935.3405, 149.0796
935.8226, 174.6189
936.3047, 187.2688
936.7869, 191.3550
937.2690, 183.8232
937.7511, 175.1665
938.2332, 201.1235
938.7153, 245.3936
939.1974, 238.2747
939.6796, 165.2583
940.1617, 97.11401
940.6438, 95.99194
941.1259, 131.3596
941.6080, 146.9319
942.0901, 147.8130
942.5723, 159.6050
943.0544, 181.3860
943.5365, 173.6975
944.0186, 122.2876
944.5007, 79.96606
944.9828, 107.6755
945.4650, 188.7095
945.9471, 273.3474
946.4292, 359.5583
946.9113, 393.6160
947.3934, 365.5574
947.8755, 317.4517
948.3577, 269.7295
948.8398, 237.4277
949.3219, 247.6912
949.8040, 297.6792
950.2861, 322.6187
950.7682, 322.4277
951.2504, 289.7173
951.7325, 212.4590
952.2146, 150.2446
952.6967, 150.8904
953.1788, 191.2649
953.6609, 208.5439
954.1431, 193.4138
954.6252, 221.5774
955.1073, 322.1050
955.5894, 359.8418
956.0715, 262.7224
956.5536, 154.1770
957.0358, 157.7185
957.5179, 244.7332
958.0000, 279.5308
958.4821, 227.2664
958.9642, 227.3845
959.4464, 326.9163
959.9285, 388.9038
960.4106, 332.1582
960.8927, 245.2498
961.3748, 234.1211
961.8569, 292.9534
962.3391, 333.0610
962.8212, 341.2009
963.3033, 356.9968
963.7854, 393.6814
964.2675, 423.2751
964.7496, 420.8616
965.2318, 409.7922
965.7139, 435.3682
966.1960, 504.5601
966.6781, 528.4712
967.1602, 472.3511
967.6423, 424.3518
968.1245, 375.1689
968.6066, 353.4536
969.0887, 410.3086
969.5708, 490.5242
970.0529, 489.4507
970.5350, 386.7158
971.0172, 318.1128
971.4993, 304.6453
971.9814, 311.0200
972.4635, 350.3767
972.9456, 386.2537
973.4277, 381.6650
973.9099, 354.0325
974.3920, 357.6301
974.8741, 408.4119
975.3562, 447.5107
975.8383, 456.3892
976.3204, 461.4497
976.8026, 475.9849
977.2847, 488.4023
977.7668, 493.0898
978.2489, 484.7681
978.7310, 446.5945
979.2131, 357.7190
979.6953, 309.7200
980.1774, 361.6118
980.6595, 412.8667
981.1416, 396.3450
981.6237, 371.4514
982.1058, 417.4370
982.5880, 515.9116
983.0701, 570.7126
983.5522, 540.4514
984.0343, 515.5093
984.5164, 548.5486
984.9985, 568.3767
985.4807, 507.3667
985.9628, 428.0554
986.4449, 414.7664
986.9270, 460.8245
987.4091, 488.2539
987.8912, 475.5779
988.3734, 438.6848
988.8555, 357.1445
989.3376, 280.5242
989.8197, 246.6436
990.3018, 235.8135
990.7839, 217.2332
991.2661, 189.6514
991.7482, 177.4404
992.2303, 204.3806
992.7124, 222.9871
993.1945, 187.6885
993.6766, 159.9390
994.1588, 176.7383
994.6409, 233.8662
995.1230, 345.6963
995.6051, 500.4836
996.0872, 601.5635
996.5693, 581.9946
997.0515, 543.8135
997.5336, 517.5332
998.0157, 508.6982
998.4978, 529.1538
998.9799, 570.5229
999.4620, 616.0576
999.9442, 660.8706
1000.426, 697.9141
1000.908, 725.5947
1001.391, 740.0073
1001.873, 728.4536
1002.355, 720.7261
1002.837, 748.1963
1003.319, 783.8071
1003.801, 781.6191
1004.283, 738.2983
1004.765, 705.4155
1005.247, 700.2178
1005.730, 718.1963
1006.212, 780.6792
1006.694, 839.1851
1007.176, 840.3262
1007.658, 809.0112
1008.140, 804.9897
1008.622, 839.5923
1009.104, 856.3853
1009.586, 800.5327
1010.069, 758.9302
1010.551, 779.4097
1011.033, 825.1729
1011.515, 882.5034
1011.997, 932.8237
1012.479, 943.3955
1012.961, 910.8179
1013.443, 882.3970
1013.926, 870.3916
1014.408, 872.4331
1014.890, 912.7456
1015.372, 946.5640
1015.854, 919.5791
1016.336, 863.3359
1016.818, 845.5879
1017.300, 878.4434
1017.782, 895.7422
1018.265, 849.0469
1018.747, 813.2852
1019.229, 847.3330
1019.711, 878.6870
1020.193, 840.5366
1020.675, 760.0337
1021.157, 686.6450
1021.639, 629.4673
1022.122, 594.8247
1022.604, 609.8481
1023.086, 613.1689
1023.568, 561.4355
1024.050, 511.7007
1024.532, 519.4487
1025.014, 552.4219
1025.496, 539.8408
1025.978, 471.5874
1026.461, 452.5225
1026.943, 570.2905
1027.425, 655.6460
1027.907, 618.0234
1028.389, 574.6992
1028.871, 626.2500
1029.353, 715.7188
1029.835, 734.1548
1030.318, 670.4375
1030.800, 640.1128
1031.282, 730.2549
1031.764, 758.1982
1032.246, 607.7847
1032.728, 468.4985
1033.210, 482.1089
1033.692, 560.8481
1034.174, 553.1958
1034.656, 449.5854
1035.139, 411.8911
1035.621, 520.7695
1036.103, 597.2529
1036.585, 615.7397
1037.067, 598.6187
1037.549, 520.7876
1038.031, 435.6885
1038.513, 433.8643
1038.996, 515.8901
1039.478, 531.3301
1039.960, 417.2471
1040.442, 341.2383
1040.924, 341.7363
1041.406, 341.1450
1041.888, 306.8491
1042.370, 253.5952
1042.853, 186.5820
1043.335, 110.0547
1043.817, 93.70410
1044.299, 185.6309
1044.781, 226.7891
1045.263, 176.5293
1045.745, 139.4229
1046.227, 172.6201
1046.709, 214.8828
1047.192, 191.4590
1047.674, 117.1504
1048.156, 88.37402
1048.638, 129.2090
1049.120, 127.9766
1049.602, 66.61816
1050.084, 4.164063
1050.566, 42.52441
1051.048, 72.55664
1051.531, 81.89648
1052.013, 76.16699
1052.495, 79.02930
1052.977, 93.23438
1053.459, 90.36719
1053.941, 69.25879
1054.423, 31.09277
1054.905, 30.43164
1055.388, 66.61621
1055.870, 30.63770
1056.352, 50.94141
1056.834, 122.5479
1057.316, 183.2070
1057.798, 177.8486
1058.280, 105.9590
1058.762, 99.49902
1059.245, 193.2930
1059.727, 265.0049
1060.209, 223.5459
1060.691, 131.4629
1061.173, 93.52148
1061.655, 104.0605
1062.137, 145.4199
1062.619, 210.4189
1063.101, 264.4160
1063.583, 297.6250
1064.066, 286.9004
1064.548, 215.4316
1065.030, 137.6895
1065.512, 127.3691
1065.994, 160.2275
1066.476, 191.8340
1066.958, 218.0967
1067.440, 228.3740
1067.923, 222.1719
1068.405, 208.1738
1068.887, 189.5791
1069.369, 157.1055
1069.851, 82.59180
1070.333, 7.439453
1070.815, 2.942383
1071.297, 23.78418
1071.780, 9.422852
1072.262, 83.84863
1072.744, 138.3984
1073.226, 154.7598
1073.708, 172.2969
1074.190, 210.3242
1074.672, 267.4082
1075.154, 364.0840
1075.636, 461.4238
1076.119, 497.5312
1076.601, 514.4082
1077.083, 602.3008
1077.565, 770.4531
1078.047, 935.8652
1078.529, 1085.205
1079.011, 1191.429
1079.493, 1202.976
1079.975, 1211.363
1080.458, 1270.870
1080.940, 1367.342
1081.422, 1480.346
1081.904, 1607.738
1082.386, 1754.168
1082.868, 1932.786
1083.350, 2099.817
1083.832, 2247.878
1084.314, 2382.541
1084.797, 2508.918
1085.279, 2622.309
1085.761, 2719.971
1086.243, 2801.912
1086.725, 2870.367
1087.207, 2914.266
1087.689, 2985.086
1088.171, 3108.570
1088.654, 3207.680
1089.136, 3255.768
1089.618, 3298.908
1090.100, 3382.754
1090.582, 3461.223
1091.064, 3430.045
1091.546, 3286.158
1092.028, 3269.762
1092.510, 3410.305
1092.993, 3512.705
1093.475, 3537.553
1093.957, 3594.342
1094.439, 3744.039
1094.921, 3905.791
1095.403, 3962.252
1095.885, 3954.381
1096.367, 4050.223
1096.849, 4240.039
1097.332, 4439.881
1097.814, 4638.951
1098.296, 4820.676
1098.778, 4980.842
1099.260, 5154.000
1099.742, 5375.211
1100.224, 5613.086
1100.706, 5811.391
1101.189, 5987.361
1101.671, 6187.234
1102.153, 6401.971
1102.635, 6585.984
1103.117, 6744.859
1103.599, 6959.281
1104.081, 7282.131
1104.563, 7628.148
1105.046, 7933.914
1105.528, 8205.449
1106.010, 8409.441
1106.492, 8612.518
1106.974, 8920.598
1107.456, 9311.189
1107.938, 9681.998
1108.420, 10001.72
1108.902, 10317.70
1109.385, 10667.88
1109.867, 10998.31
1110.349, 11262.61
1110.831, 11513.10
1111.313, 11775.17
1111.795, 12064.27
1112.277, 12413.11
1112.759, 12824.28
1113.241, 13224.26
1113.724, 13594.70
1114.206, 13967.10
1114.688, 14313.67
1115.170, 14709.67
1115.652, 15245.86
1116.134, 15792.54
1116.616, 16195.90
1117.098, 16491.84
1117.581, 16848.80
1118.063, 17299.33
1118.545, 17708.46
1119.027, 18056.01
1119.509, 18419.35
1119.991, 18816.27
1120.473, 19226.66
1120.955, 19638.81
1121.438, 20051.24
1121.920, 20463.57
1122.402, 20882.16
1122.884, 21329.99
1123.366, 21800.28
1123.848, 22251.39
1124.330, 22683.99
1124.812, 23138.46
1125.294, 23637.06
1125.776, 24146.42
1126.259, 24647.43
1126.741, 25117.06
1127.223, 25473.68
1127.705, 25800.05
1128.187, 26250.29
1128.669, 26794.27
1129.151, 27383.47
1129.633, 27977.78
1130.116, 28422.30
1130.598, 28586.13
1131.080, 28793.77
1131.562, 29339.58
1132.044, 29931.97
1132.526, 30328.36
1133.008, 30660.72
1133.490, 31083.21
1133.973, 31579.90
1134.455, 32078.32
1134.937, 32572.89
1135.419, 33024.79
1135.901, 33415.04
1136.383, 33775.97
1136.865, 34063.34
1137.347, 34384.62
1137.829, 34843.07
1138.312, 35327.36
1138.794, 35672.41
1139.276, 35899.52
1139.758, 36232.30
1140.240, 36723.29
1140.722, 37113.44
1141.204, 37371.17
1141.686, 37615.10
1142.168, 37873.45
1142.651, 38161.66
1143.133, 38505.33
1143.615, 38846.79
1144.097, 39067.67
1144.579, 39202.34
1145.061, 39377.61
1145.543, 39561.32
1146.025, 39718.90
1146.508, 39861.82
1146.990, 39970.86
1147.472, 40020.12
1147.954, 40041.42
1148.436, 40100.26
1148.918, 40114.41
1149.400, 39869.79
1149.882, 39602.33
1150.365, 39707.50
1150.847, 39994.48
1151.329, 40059.05
1151.811, 39853.06
1152.293, 39586.55
1152.775, 39307.14
1153.257, 39072.61
1153.739, 38998.19
1154.221, 38857.12
1154.703, 38466.17
1155.186, 38023.32
1155.668, 37716.96
1156.150, 37497.78
1156.632, 37238.22
1157.114, 36939.47
1157.596, 36557.51
1158.078, 36049.40
1158.560, 35553.55
1159.043, 35076.16
1159.525, 34644.81
1160.007, 34292.76
1160.489, 33919.21
1160.971, 33407.20
1161.453, 32808.30
1161.935, 32304.74
1162.417, 31878.77
1162.900, 31331.47
1163.382, 30674.45
1163.864, 30081.95
1164.346, 29578.08
1164.828, 29020.37
1165.310, 28329.68
1165.792, 27612.02
1166.274, 26994.34
1166.756, 26406.80
1167.239, 25761.95
1167.721, 25086.50
1168.203, 24418.80
1168.685, 23759.96
1169.167, 23096.42
1169.649, 22429.23
1170.131, 21781.48
1170.613, 21180.44
1171.095, 20565.66
1171.578, 19906.79
1172.060, 19237.81
1172.542, 18598.24
1173.024, 17935.77
1173.506, 17145.79
1173.988, 16313.18
1174.470, 15679.75
1174.952, 15280.79
1175.434, 14739.41
1175.917, 14008.20
1176.399, 13293.01
1176.881, 12611.98
1177.363, 11986.93
1177.845, 11430.68
1178.327, 10919.32
1178.809, 10438.58
1179.291, 9966.027
1179.774, 9436.297
1180.256, 8869.875
1180.738, 8316.215
1181.220, 7794.094
1181.702, 7380.227
1182.184, 7061.801
1182.666, 6698.031
1183.148, 6224.832
1183.630, 5748.031
1184.113, 5363.750
1184.595, 4996.926
1185.077, 4582.355
1185.559, 4159.074
1186.041, 3734.863
1186.523, 3344.188
1187.005, 3061.188
1187.487, 2872.824
1187.969, 2633.570
1188.452, 2256.082
1188.934, 1966.066
1189.416, 1851.879
1189.898, 1709.914
1190.380, 1474.199
1190.862, 1235.605
1191.344, 1056.691
1191.826, 901.2734
1192.309, 704.8516
1192.791, 477.4414
1193.273, 300.5430
1193.755, 173.8398
1194.237, 64.07031
1194.719, 31.84375
1195.201, 122.4492
1195.683, 208.6133
1196.166, 274.6172
1196.648, 307.7383
1197.130, 319.3125
1197.612, 320.8203
1198.094, 328.7969
1198.576, 362.8672
1199.058, 398.3711
1199.540, 405.6992
1200.022, 393.8086
1200.505, 364.7891
1200.987, 318.8477
1201.469, 326.4297
1201.951, 538.1016
1202.433, 601.3906
1202.915, 274.7148
1203.397, 21.23438
1203.879, 104.1055
1204.361, 205.1367
1204.844, 25.34375
1205.326, 274.8711
1205.808, 322.7852
1206.290, 121.8125
1206.772, 20.00000
1207.254, 104.3320
1207.736, 21.83594
1208.218, 367.5273
1208.701, 678.7266
1209.183, 858.5742
1209.665, 939.2930
1210.147, 929.3945
1210.629, 897.3398
1211.111, 929.3047
1211.593, 994.3477
1212.075, 1045.344
1212.557, 1100.066
1213.040, 1196.160
1213.522, 1321.438
1214.004, 1431.754
1214.486, 1516.148
1214.968, 1701.422
1215.450, 2002.941
1215.932, 2199.582
1216.414, 2151.137
1216.896, 2115.090
1217.379, 2181.785
1217.861, 2314.977
1218.343, 2510.277
1218.825, 2722.098
1219.307, 2836.789
1219.789, 2857.770
1220.271, 2909.074
1220.753, 2989.160
1221.236, 3050.977
1221.718, 3094.746
1222.200, 3216.500
1222.682, 3436.711
1223.164, 3536.859
1223.646, 3299.895
1224.128, 3060.770
1224.610, 3279.414
1225.093, 3602.543
1225.575, 3668.613
1226.057, 3582.148
1226.539, 3439.852
1227.021, 3298.566
1227.503, 3256.113
1227.985, 3331.141
1228.467, 3379.898
1228.949, 3348.246
1229.432, 3342.582
1229.914, 3388.805
1230.396, 3413.375
1230.878, 3396.852
1231.360, 3344.641
1231.842, 3247.492
1232.324, 3137.156
1232.806, 3081.504
1233.288, 3058.312
1233.771, 2932.949
1234.253, 2717.496
1234.735, 2522.859
1235.217, 2359.629
1235.699, 2179.656
1236.181, 1976.941
1236.663, 1771.785
1237.145, 1530.961
1237.628, 1295.199
1238.110, 1152.805
1238.592, 1021.844
1239.074, 1007.738
1239.556, 961.5234
1240.038, 776.8555
1240.520, 608.3359
1241.002, 625.8594
1241.484, 792.1641
1241.967, 793.5703
1242.449, 549.5156
1242.931, 453.6406
1243.413, 541.6016
1243.895, 622.9922
1244.377, 655.4297
1244.859, 609.6641
1245.341, 471.0625
1245.823, 352.1328
1246.306, 406.6484
1246.788, 511.0703
1247.270, 423.2734
1247.752, 258.6719
1248.234, 170.7812
1248.716, 150.3984
1249.198, 128.0781
1249.680, 98.08594
1250.163, 127.7734
1250.645, 253.4531
1251.127, 319.1641
1251.609, 235.9141
1252.091, 168.2344
1252.573, 170.0391
1253.055, 156.7578
1253.537, 84.06250
1254.020, 4.859375
1254.502, 85.84375
1254.984, 132.3047
1255.466, 47.15625
1255.948, 136.5156
1256.430, 108.4688
1256.912, 58.78125
1257.394, 33.76562
1257.876, 162.8359
1258.359, 320.2500
1258.841, 356.7031
1259.323, 402.0078
1259.805, 569.8672
1260.287, 692.2891
1260.769, 680.0156
1261.251, 633.7422
1261.733, 602.6172
1262.215, 590.7578
1262.698, 660.8125
1263.180, 738.2500
1263.662, 651.5312
1264.144, 584.2891
1264.626, 508.0625
1265.108, 452.1562
1265.590, 435.7344
1266.072, 417.6641
1266.555, 406.4844
1267.037, 376.1875
1267.519, 328.3359
1268.001, 293.1406
1268.483, 250.1328
1268.965, 175.1641
1269.447, 104.1016
1269.929, 84.99219
1270.411, 93.28125
1270.894, 109.4922
1271.376, 87.94531
1271.858, 0.0000000E+00
##END=



