##NAMES=Krinovite
##RRUFFID=R140079
##IDEAL CHEMISTRY=Na_4_(Mg_8_Cr^3+^_4_)O_4_[Si_12_O_36_]
##LOCALITY=Wichita County Meteorite, Wichita County, Texas, USA
##OWNER=RRUFF
##SOURCE=Rock Currier
##DESCRIPTION=Broken pieces of green crystals.
##STATUS=The identification of this mineral has been confirmed only by single crystal X-ray diffraction.
##URL=rruff.info/R140079
8.806445e+001, 1.866141e+003
8.854657e+001, 1.755361e+003
8.902869e+001, 1.716951e+003
8.951080e+001, 1.783944e+003
8.999292e+001, 1.908234e+003
9.047504e+001, 2.046289e+003
9.095715e+001, 2.189676e+003
9.143927e+001, 2.335800e+003
9.192139e+001, 2.483703e+003
9.240350e+001, 2.633045e+003
9.288562e+001, 2.779821e+003
9.336774e+001, 2.902566e+003
9.384985e+001, 2.981288e+003
9.433197e+001, 3.015334e+003
9.481409e+001, 3.044233e+003
9.529620e+001, 3.059861e+003
9.577832e+001, 3.074990e+003
9.626044e+001, 3.092131e+003
9.674255e+001, 3.109447e+003
9.722467e+001, 3.123583e+003
9.770679e+001, 3.132824e+003
9.818890e+001, 3.142454e+003
9.867102e+001, 3.154435e+003
9.915314e+001, 3.166556e+003
9.963525e+001, 3.176674e+003
1.001174e+002, 3.183698e+003
1.005995e+002, 3.188558e+003
1.010816e+002, 3.195104e+003
1.015637e+002, 3.205917e+003
1.020458e+002, 3.215298e+003
1.025280e+002, 3.220465e+003
1.030101e+002, 3.222988e+003
1.034922e+002, 3.225694e+003
1.039743e+002, 3.230511e+003
1.044564e+002, 3.237332e+003
1.049385e+002, 3.243930e+003
1.054207e+002, 3.247767e+003
1.059028e+002, 3.253140e+003
1.063849e+002, 3.264286e+003
1.068670e+002, 3.280584e+003
1.073491e+002, 3.295295e+003
1.078312e+002, 3.300574e+003
1.083134e+002, 3.296914e+003
1.087955e+002, 3.295809e+003
1.092776e+002, 3.299934e+003
1.097597e+002, 3.306985e+003
1.102418e+002, 3.314012e+003
1.107239e+002, 3.320962e+003
1.112061e+002, 3.326956e+003
1.116882e+002, 3.330333e+003
1.121703e+002, 3.331771e+003
1.126524e+002, 3.334211e+003
1.131345e+002, 3.340854e+003
1.136166e+002, 3.351298e+003
1.140988e+002, 3.358418e+003
1.145809e+002, 3.357764e+003
1.150630e+002, 3.356317e+003
1.155451e+002, 3.357762e+003
1.160272e+002, 3.362294e+003
1.165093e+002, 3.367963e+003
1.169915e+002, 3.372257e+003
1.174736e+002, 3.374175e+003
1.179557e+002, 3.377196e+003
1.184378e+002, 3.382476e+003
1.189199e+002, 3.388047e+003
1.194020e+002, 3.392415e+003
1.198842e+002, 3.395095e+003
1.203663e+002, 3.396768e+003
1.208484e+002, 3.399042e+003
1.213305e+002, 3.403099e+003
1.218126e+002, 3.406327e+003
1.222947e+002, 3.407803e+003
1.227769e+002, 3.408573e+003
1.232590e+002, 3.410120e+003
1.237411e+002, 3.413328e+003
1.242232e+002, 3.417638e+003
1.247053e+002, 3.420470e+003
1.251874e+002, 3.420680e+003
1.256696e+002, 3.421033e+003
1.261517e+002, 3.422468e+003
1.266338e+002, 3.424894e+003
1.271159e+002, 3.427997e+003
1.275980e+002, 3.431934e+003
1.280801e+002, 3.436348e+003
1.285623e+002, 3.440036e+003
1.290444e+002, 3.442457e+003
1.295265e+002, 3.444506e+003
1.300086e+002, 3.447191e+003
1.304907e+002, 3.450671e+003
1.309728e+002, 3.453988e+003
1.314550e+002, 3.456292e+003
1.319371e+002, 3.458092e+003
1.324192e+002, 3.459966e+003
1.329013e+002, 3.461665e+003
1.333834e+002, 3.463676e+003
1.338655e+002, 3.467742e+003
1.343477e+002, 3.475681e+003
1.348298e+002, 3.483048e+003
1.353119e+002, 3.488099e+003
1.357940e+002, 3.491312e+003
1.362761e+002, 3.493493e+003
1.367582e+002, 3.494844e+003
1.372404e+002, 3.495300e+003
1.377225e+002, 3.497278e+003
1.382046e+002, 3.502125e+003
1.386867e+002, 3.507409e+003
1.391688e+002, 3.512644e+003
1.396509e+002, 3.517696e+003
1.401331e+002, 3.522587e+003
1.406152e+002, 3.527480e+003
1.410973e+002, 3.532658e+003
1.415794e+002, 3.536573e+003
1.420615e+002, 3.538021e+003
1.425436e+002, 3.539386e+003
1.430258e+002, 3.542204e+003
1.435079e+002, 3.546707e+003
1.439900e+002, 3.552031e+003
1.444721e+002, 3.557035e+003
1.449542e+002, 3.561469e+003
1.454363e+002, 3.566183e+003
1.459185e+002, 3.571313e+003
1.464006e+002, 3.576669e+003
1.468827e+002, 3.582337e+003
1.473648e+002, 3.588481e+003
1.478469e+002, 3.594192e+003
1.483290e+002, 3.597240e+003
1.488112e+002, 3.597275e+003
1.492933e+002, 3.598251e+003
1.497754e+002, 3.602664e+003
1.502575e+002, 3.609254e+003
1.507396e+002, 3.614155e+003
1.512217e+002, 3.615222e+003
1.517039e+002, 3.615261e+003
1.521860e+002, 3.617998e+003
1.526681e+002, 3.623769e+003
1.531502e+002, 3.629736e+003
1.536323e+002, 3.633721e+003
1.541144e+002, 3.635669e+003
1.545966e+002, 3.637306e+003
1.550787e+002, 3.638667e+003
1.555608e+002, 3.640191e+003
1.560429e+002, 3.642177e+003
1.565250e+002, 3.644706e+003
1.570071e+002, 3.647633e+003
1.574893e+002, 3.650645e+003
1.579714e+002, 3.653415e+003
1.584535e+002, 3.657231e+003
1.589356e+002, 3.663885e+003
1.594177e+002, 3.670677e+003
1.598998e+002, 3.675231e+003
1.603820e+002, 3.676643e+003
1.608641e+002, 3.676193e+003
1.613462e+002, 3.676982e+003
1.618283e+002, 3.680669e+003
1.623104e+002, 3.683242e+003
1.627925e+002, 3.683284e+003
1.632747e+002, 3.682468e+003
1.637568e+002, 3.682692e+003
1.642389e+002, 3.684924e+003
1.647210e+002, 3.688645e+003
1.652031e+002, 3.691673e+003
1.656852e+002, 3.694482e+003
1.661674e+002, 3.696135e+003
1.666495e+002, 3.694938e+003
1.671316e+002, 3.692601e+003
1.676137e+002, 3.692114e+003
1.680958e+002, 3.695343e+003
1.685779e+002, 3.701754e+003
1.690601e+002, 3.707851e+003
1.695422e+002, 3.714594e+003
1.700243e+002, 3.720175e+003
1.705064e+002, 3.723312e+003
1.709885e+002, 3.724458e+003
1.714706e+002, 3.725409e+003
1.719528e+002, 3.727119e+003
1.724349e+002, 3.729584e+003
1.729170e+002, 3.732352e+003
1.733991e+002, 3.735391e+003
1.738812e+002, 3.738733e+003
1.743633e+002, 3.742592e+003
1.748455e+002, 3.746983e+003
1.753276e+002, 3.751263e+003
1.758097e+002, 3.755220e+003
1.762918e+002, 3.758749e+003
1.767739e+002, 3.761557e+003
1.772560e+002, 3.762828e+003
1.777382e+002, 3.763894e+003
1.782203e+002, 3.766870e+003
1.787024e+002, 3.772340e+003
1.791845e+002, 3.777814e+003
1.796666e+002, 3.781983e+003
1.801487e+002, 3.785350e+003
1.806309e+002, 3.788485e+003
1.811130e+002, 3.791712e+003
1.815951e+002, 3.794826e+003
1.820772e+002, 3.797076e+003
1.825593e+002, 3.797255e+003
1.830414e+002, 3.798648e+003
1.835236e+002, 3.803118e+003
1.840057e+002, 3.809148e+003
1.844878e+002, 3.814630e+003
1.849699e+002, 3.818296e+003
1.854520e+002, 3.820375e+003
1.859341e+002, 3.822317e+003
1.864163e+002, 3.823324e+003
1.868984e+002, 3.825130e+003
1.873805e+002, 3.828882e+003
1.878626e+002, 3.833647e+003
1.883447e+002, 3.837799e+003
1.888268e+002, 3.840128e+003
1.893090e+002, 3.840704e+003
1.897911e+002, 3.842098e+003
1.902732e+002, 3.845807e+003
1.907553e+002, 3.848862e+003
1.912374e+002, 3.849514e+003
1.917195e+002, 3.848799e+003
1.922017e+002, 3.849208e+003
1.926838e+002, 3.852847e+003
1.931659e+002, 3.859969e+003
1.936480e+002, 3.864933e+003
1.941301e+002, 3.865186e+003
1.946122e+002, 3.866230e+003
1.950944e+002, 3.872239e+003
1.955765e+002, 3.881738e+003
1.960586e+002, 3.888895e+003
1.965407e+002, 3.888082e+003
1.970228e+002, 3.878934e+003
1.975049e+002, 3.875820e+003
1.979871e+002, 3.883105e+003
1.984692e+002, 3.892089e+003
1.989513e+002, 3.897244e+003
1.994334e+002, 3.898531e+003
1.999155e+002, 3.899551e+003
2.003976e+002, 3.903353e+003
2.008798e+002, 3.909750e+003
2.013619e+002, 3.914969e+003
2.018440e+002, 3.917694e+003
2.023261e+002, 3.919938e+003
2.028082e+002, 3.924078e+003
2.032903e+002, 3.930345e+003
2.037725e+002, 3.935698e+003
2.042546e+002, 3.936490e+003
2.047367e+002, 3.934370e+003
2.052188e+002, 3.934032e+003
2.057009e+002, 3.937928e+003
2.061830e+002, 3.943435e+003
2.066652e+002, 3.946765e+003
2.071473e+002, 3.947304e+003
2.076294e+002, 3.947969e+003
2.081115e+002, 3.951154e+003
2.085936e+002, 3.955743e+003
2.090757e+002, 3.960136e+003
2.095579e+002, 3.963645e+003
2.100400e+002, 3.966618e+003
2.105221e+002, 3.969780e+003
2.110042e+002, 3.973155e+003
2.114863e+002, 3.976632e+003
2.119685e+002, 3.980660e+003
2.124506e+002, 3.984657e+003
2.129327e+002, 3.987562e+003
2.134148e+002, 3.988304e+003
2.138969e+002, 3.987895e+003
2.143790e+002, 3.989638e+003
2.148612e+002, 3.994979e+003
2.153433e+002, 4.000188e+003
2.158254e+002, 4.004028e+003
2.163075e+002, 4.006913e+003
2.167896e+002, 4.009402e+003
2.172717e+002, 4.011750e+003
2.177539e+002, 4.013966e+003
2.182360e+002, 4.016037e+003
2.187181e+002, 4.017868e+003
2.192002e+002, 4.019682e+003
2.196823e+002, 4.020691e+003
2.201644e+002, 4.021886e+003
2.206466e+002, 4.024953e+003
2.211287e+002, 4.031160e+003
2.216108e+002, 4.039645e+003
2.220929e+002, 4.045374e+003
2.225750e+002, 4.044735e+003
2.230571e+002, 4.045143e+003
2.235393e+002, 4.048853e+003
2.240214e+002, 4.054163e+003
2.245035e+002, 4.058437e+003
2.249856e+002, 4.059997e+003
2.254677e+002, 4.059403e+003
2.259498e+002, 4.060132e+003
2.264320e+002, 4.063410e+003
2.269141e+002, 4.066744e+003
2.273962e+002, 4.069922e+003
2.278783e+002, 4.072877e+003
2.283604e+002, 4.075439e+003
2.288425e+002, 4.077434e+003
2.293247e+002, 4.079123e+003
2.298068e+002, 4.082083e+003
2.302889e+002, 4.087226e+003
2.307710e+002, 4.092477e+003
2.312531e+002, 4.098462e+003
2.317352e+002, 4.104167e+003
2.322174e+002, 4.107294e+003
2.326995e+002, 4.106171e+003
2.331816e+002, 4.102399e+003
2.336637e+002, 4.103357e+003
2.341458e+002, 4.113680e+003
2.346279e+002, 4.122426e+003
2.351101e+002, 4.126157e+003
2.355922e+002, 4.126410e+003
2.360743e+002, 4.125955e+003
2.365564e+002, 4.125865e+003
2.370385e+002, 4.126382e+003
2.375206e+002, 4.128525e+003
2.380028e+002, 4.133781e+003
2.384849e+002, 4.138057e+003
2.389670e+002, 4.138997e+003
2.394491e+002, 4.137920e+003
2.399312e+002, 4.137938e+003
2.404133e+002, 4.140592e+003
2.408955e+002, 4.144740e+003
2.413776e+002, 4.147927e+003
2.418597e+002, 4.150206e+003
2.423418e+002, 4.151711e+003
2.428239e+002, 4.151321e+003
2.433060e+002, 4.150055e+003
2.437882e+002, 4.150995e+003
2.442703e+002, 4.155848e+003
2.447524e+002, 4.162541e+003
2.452345e+002, 4.167846e+003
2.457166e+002, 4.171788e+003
2.461987e+002, 4.174582e+003
2.466809e+002, 4.175582e+003
2.471630e+002, 4.175357e+003
2.476451e+002, 4.175735e+003
2.481272e+002, 4.176991e+003
2.486093e+002, 4.179412e+003
2.490914e+002, 4.183823e+003
2.495736e+002, 4.190283e+003
2.500557e+002, 4.195762e+003
2.505378e+002, 4.197259e+003
2.510199e+002, 4.196005e+003
2.515020e+002, 4.197439e+003
2.519841e+002, 4.204217e+003
2.524663e+002, 4.211689e+003
2.529484e+002, 4.215429e+003
2.534305e+002, 4.215804e+003
2.539126e+002, 4.216078e+003
2.543947e+002, 4.217978e+003
2.548768e+002, 4.221345e+003
2.553590e+002, 4.225613e+003
2.558411e+002, 4.231737e+003
2.563232e+002, 4.237333e+003
2.568053e+002, 4.240687e+003
2.572874e+002, 4.242211e+003
2.577695e+002, 4.243367e+003
2.582516e+002, 4.244458e+003
2.587338e+002, 4.245743e+003
2.592159e+002, 4.248868e+003
2.596980e+002, 4.255666e+003
2.601801e+002, 4.261694e+003
2.606622e+002, 4.263738e+003
2.611443e+002, 4.263306e+003
2.616265e+002, 4.263789e+003
2.621086e+002, 4.267707e+003
2.625907e+002, 4.274229e+003
2.630728e+002, 4.279376e+003
2.635549e+002, 4.282203e+003
2.640370e+002, 4.285043e+003
2.645192e+002, 4.288860e+003
2.650013e+002, 4.293310e+003
2.654834e+002, 4.297827e+003
2.659655e+002, 4.302081e+003
2.664476e+002, 4.306205e+003
2.669297e+002, 4.311080e+003
2.674119e+002, 4.318633e+003
2.678940e+002, 4.323548e+003
2.683761e+002, 4.322379e+003
2.688582e+002, 4.318699e+003
2.693403e+002, 4.316834e+003
2.698224e+002, 4.318920e+003
2.703046e+002, 4.324007e+003
2.707867e+002, 4.329704e+003
2.712688e+002, 4.336781e+003
2.717509e+002, 4.343081e+003
2.722330e+002, 4.348359e+003
2.727151e+002, 4.352729e+003
2.731973e+002, 4.356462e+003
2.736794e+002, 4.359675e+003
2.741615e+002, 4.361987e+003
2.746436e+002, 4.362104e+003
2.751257e+002, 4.357209e+003
2.756078e+002, 4.355776e+003
2.760900e+002, 4.361253e+003
2.765721e+002, 4.368518e+003
2.770542e+002, 4.373010e+003
2.775363e+002, 4.373495e+003
2.780184e+002, 4.372532e+003
2.785005e+002, 4.374728e+003
2.789827e+002, 4.382521e+003
2.794648e+002, 4.387982e+003
2.799469e+002, 4.389050e+003
2.804290e+002, 4.389250e+003
2.809111e+002, 4.390765e+003
2.813932e+002, 4.394046e+003
2.818754e+002, 4.398329e+003
2.823575e+002, 4.402938e+003
2.828396e+002, 4.408722e+003
2.833217e+002, 4.412275e+003
2.838038e+002, 4.411507e+003
2.842859e+002, 4.410568e+003
2.847681e+002, 4.412090e+003
2.852502e+002, 4.415893e+003
2.857323e+002, 4.419744e+003
2.862144e+002, 4.421028e+003
2.866965e+002, 4.418856e+003
2.871786e+002, 4.419358e+003
2.876608e+002, 4.424530e+003
2.881429e+002, 4.430252e+003
2.886250e+002, 4.435140e+003
2.891071e+002, 4.439161e+003
2.895892e+002, 4.442907e+003
2.900714e+002, 4.446952e+003
2.905535e+002, 4.451307e+003
2.910356e+002, 4.454561e+003
2.915177e+002, 4.454865e+003
2.919998e+002, 4.456026e+003
2.924819e+002, 4.460436e+003
2.929641e+002, 4.466411e+003
2.934462e+002, 4.470375e+003
2.939283e+002, 4.469735e+003
2.944104e+002, 4.465599e+003
2.948925e+002, 4.465561e+003
2.953746e+002, 4.475888e+003
2.958568e+002, 4.483469e+003
2.963389e+002, 4.484433e+003
2.968210e+002, 4.482102e+003
2.973031e+002, 4.481060e+003
2.977852e+002, 4.483515e+003
2.982673e+002, 4.488405e+003
2.987495e+002, 4.492548e+003
2.992316e+002, 4.494472e+003
2.997137e+002, 4.497501e+003
3.001958e+002, 4.502390e+003
3.006779e+002, 4.508111e+003
3.011600e+002, 4.513912e+003
3.016422e+002, 4.519485e+003
3.021243e+002, 4.524502e+003
3.026064e+002, 4.528260e+003
3.030885e+002, 4.529466e+003
3.035706e+002, 4.531656e+003
3.040527e+002, 4.535943e+003
3.045349e+002, 4.540378e+003
3.050170e+002, 4.543474e+003
3.054991e+002, 4.544995e+003
3.059812e+002, 4.545636e+003
3.064633e+002, 4.546075e+003
3.069454e+002, 4.545821e+003
3.074276e+002, 4.547325e+003
3.079097e+002, 4.552214e+003
3.083918e+002, 4.557179e+003
3.088739e+002, 4.560081e+003
3.093560e+002, 4.561206e+003
3.098381e+002, 4.562475e+003
3.103203e+002, 4.565789e+003
3.108024e+002, 4.571396e+003
3.112845e+002, 4.574969e+003
3.117666e+002, 4.574708e+003
3.122487e+002, 4.574599e+003
3.127308e+002, 4.575954e+003
3.132130e+002, 4.578556e+003
3.136951e+002, 4.581762e+003
3.141772e+002, 4.585210e+003
3.146593e+002, 4.588822e+003
3.151414e+002, 4.591991e+003
3.156235e+002, 4.594009e+003
3.161057e+002, 4.596368e+003
3.165878e+002, 4.599726e+003
3.170699e+002, 4.603417e+003
3.175520e+002, 4.606386e+003
3.180341e+002, 4.608140e+003
3.185162e+002, 4.609310e+003
3.189984e+002, 4.611510e+003
3.194805e+002, 4.615370e+003
3.199626e+002, 4.619574e+003
3.204447e+002, 4.625352e+003
3.209268e+002, 4.630806e+003
3.214089e+002, 4.633760e+003
3.218911e+002, 4.633814e+003
3.223732e+002, 4.632808e+003
3.228553e+002, 4.633368e+003
3.233374e+002, 4.635759e+003
3.238195e+002, 4.639370e+003
3.243016e+002, 4.645036e+003
3.247838e+002, 4.651077e+003
3.252659e+002, 4.657172e+003
3.257480e+002, 4.662849e+003
3.262301e+002, 4.666804e+003
3.267122e+002, 4.667499e+003
3.271943e+002, 4.664348e+003
3.276765e+002, 4.662606e+003
3.281586e+002, 4.661911e+003
3.286407e+002, 4.662688e+003
3.291228e+002, 4.665522e+003
3.296049e+002, 4.669951e+003
3.300870e+002, 4.675236e+003
3.305692e+002, 4.681036e+003
3.310513e+002, 4.687106e+003
3.315334e+002, 4.691525e+003
3.320155e+002, 4.691411e+003
3.324976e+002, 4.692917e+003
3.329797e+002, 4.698494e+003
3.334619e+002, 4.705736e+003
3.339440e+002, 4.711681e+003
3.344261e+002, 4.715022e+003
3.349082e+002, 4.716354e+003
3.353904e+002, 4.717005e+003
3.358725e+002, 4.716232e+003
3.363546e+002, 4.716038e+003
3.368367e+002, 4.716486e+003
3.373188e+002, 4.717539e+003
3.378009e+002, 4.719115e+003
3.382831e+002, 4.721224e+003
3.387652e+002, 4.724025e+003
3.392473e+002, 4.727822e+003
3.397294e+002, 4.733094e+003
3.402115e+002, 4.737926e+003
3.406936e+002, 4.742788e+003
3.411758e+002, 4.746851e+003
3.416579e+002, 4.749309e+003
3.421400e+002, 4.750470e+003
3.426221e+002, 4.751186e+003
3.431042e+002, 4.751843e+003
3.435863e+002, 4.752428e+003
3.440685e+002, 4.755913e+003
3.445506e+002, 4.767164e+003
3.450327e+002, 4.776398e+003
3.455148e+002, 4.780071e+003
3.459969e+002, 4.780519e+003
3.464790e+002, 4.781591e+003
3.469612e+002, 4.785453e+003
3.474433e+002, 4.791073e+003
3.479254e+002, 4.795169e+003
3.484075e+002, 4.796380e+003
3.488896e+002, 4.798194e+003
3.493717e+002, 4.801163e+003
3.498539e+002, 4.804818e+003
3.503360e+002, 4.809192e+003
3.508181e+002, 4.814166e+003
3.513002e+002, 4.818780e+003
3.517823e+002, 4.820898e+003
3.522644e+002, 4.818697e+003
3.527466e+002, 4.820089e+003
3.532287e+002, 4.830390e+003
3.537108e+002, 4.840358e+003
3.541929e+002, 4.844421e+003
3.546750e+002, 4.843138e+003
3.551571e+002, 4.841214e+003
3.556393e+002, 4.842756e+003
3.561214e+002, 4.847756e+003
3.566035e+002, 4.853090e+003
3.570856e+002, 4.860510e+003
3.575677e+002, 4.866009e+003
3.580498e+002, 4.866724e+003
3.585320e+002, 4.864875e+003
3.590141e+002, 4.864354e+003
3.594962e+002, 4.867497e+003
3.599783e+002, 4.872917e+003
3.604604e+002, 4.876834e+003
3.609425e+002, 4.878592e+003
3.614247e+002, 4.880345e+003
3.619068e+002, 4.882216e+003
3.623889e+002, 4.884595e+003
3.628710e+002, 4.888129e+003
3.633531e+002, 4.893024e+003
3.638352e+002, 4.898101e+003
3.643174e+002, 4.901610e+003
3.647995e+002, 4.903287e+003
3.652816e+002, 4.906104e+003
3.657637e+002, 4.911534e+003
3.662458e+002, 4.917432e+003
3.667279e+002, 4.923525e+003
3.672101e+002, 4.929300e+003
3.676922e+002, 4.932418e+003
3.681743e+002, 4.928761e+003
3.686564e+002, 4.920459e+003
3.691385e+002, 4.918028e+003
3.696206e+002, 4.924857e+003
3.701028e+002, 4.931739e+003
3.705849e+002, 4.932055e+003
3.710670e+002, 4.928765e+003
3.715491e+002, 4.926994e+003
3.720312e+002, 4.928650e+003
3.725133e+002, 4.932581e+003
3.729955e+002, 4.938468e+003
3.734776e+002, 4.946813e+003
3.739597e+002, 4.951832e+003
3.744418e+002, 4.948188e+003
3.749239e+002, 4.941514e+003
3.754060e+002, 4.938634e+003
3.758882e+002, 4.940283e+003
3.763703e+002, 4.944889e+003
3.768524e+002, 4.953585e+003
3.773345e+002, 4.964899e+003
3.778166e+002, 4.972427e+003
3.782987e+002, 4.973646e+003
3.787809e+002, 4.972656e+003
3.792630e+002, 4.974433e+003
3.797451e+002, 4.978557e+003
3.802272e+002, 4.980997e+003
3.807093e+002, 4.977649e+003
3.811914e+002, 4.973177e+003
3.816736e+002, 4.975028e+003
3.821557e+002, 4.984010e+003
3.826378e+002, 4.992523e+003
3.831199e+002, 4.994628e+003
3.836020e+002, 4.991580e+003
3.840841e+002, 4.990199e+003
3.845663e+002, 4.991740e+003
3.850484e+002, 4.993851e+003
3.855305e+002, 4.994547e+003
3.860126e+002, 4.994587e+003
3.864947e+002, 4.997038e+003
3.869768e+002, 5.004002e+003
3.874590e+002, 5.012310e+003
3.879411e+002, 5.014082e+003
3.884232e+002, 5.006173e+003
3.889053e+002, 5.002263e+003
3.893874e+002, 5.008213e+003
3.898695e+002, 5.018057e+003
3.903517e+002, 5.024996e+003
3.908338e+002, 5.027814e+003
3.913159e+002, 5.029357e+003
3.917980e+002, 5.032721e+003
3.922801e+002, 5.038319e+003
3.927622e+002, 5.041570e+003
3.932444e+002, 5.040648e+003
3.937265e+002, 5.039349e+003
3.942086e+002, 5.039704e+003
3.946907e+002, 5.041303e+003
3.951728e+002, 5.042452e+003
3.956549e+002, 5.041965e+003
3.961371e+002, 5.040792e+003
3.966192e+002, 5.042759e+003
3.971013e+002, 5.051910e+003
3.975834e+002, 5.059245e+003
3.980655e+002, 5.063194e+003
3.985476e+002, 5.065474e+003
3.990298e+002, 5.067493e+003
3.995119e+002, 5.069737e+003
3.999940e+002, 5.072369e+003
4.004761e+002, 5.075751e+003
4.009582e+002, 5.080411e+003
4.014403e+002, 5.083905e+003
4.019225e+002, 5.085792e+003
4.024046e+002, 5.087096e+003
4.028867e+002, 5.088467e+003
4.033688e+002, 5.089649e+003
4.038509e+002, 5.089688e+003
4.043330e+002, 5.087603e+003
4.048152e+002, 5.084110e+003
4.052973e+002, 5.083365e+003
4.057794e+002, 5.086755e+003
4.062615e+002, 5.090998e+003
4.067436e+002, 5.096682e+003
4.072257e+002, 5.102208e+003
4.077079e+002, 5.105522e+003
4.081900e+002, 5.106085e+003
4.086721e+002, 5.105954e+003
4.091542e+002, 5.108423e+003
4.096363e+002, 5.114304e+003
4.101184e+002, 5.118253e+003
4.106006e+002, 5.117550e+003
4.110827e+002, 5.116738e+003
4.115648e+002, 5.118232e+003
4.120469e+002, 5.121693e+003
4.125290e+002, 5.125468e+003
4.130111e+002, 5.128665e+003
4.134933e+002, 5.131367e+003
4.139754e+002, 5.133561e+003
4.144575e+002, 5.134751e+003
4.149396e+002, 5.136827e+003
4.154217e+002, 5.141582e+003
4.159038e+002, 5.147417e+003
4.163860e+002, 5.152443e+003
4.168681e+002, 5.156058e+003
4.173502e+002, 5.159421e+003
4.178323e+002, 5.164099e+003
4.183144e+002, 5.169798e+003
4.187965e+002, 5.173737e+003
4.192787e+002, 5.174592e+003
4.197608e+002, 5.174324e+003
4.202429e+002, 5.174932e+003
4.207250e+002, 5.176335e+003
4.212071e+002, 5.178130e+003
4.216892e+002, 5.180262e+003
4.221714e+002, 5.182644e+003
4.226535e+002, 5.184759e+003
4.231356e+002, 5.186560e+003
4.236177e+002, 5.189874e+003
4.240998e+002, 5.197086e+003
4.245819e+002, 5.206638e+003
4.250641e+002, 5.211821e+003
4.255462e+002, 5.208647e+003
4.260283e+002, 5.206262e+003
4.265104e+002, 5.210322e+003
4.269925e+002, 5.217720e+003
4.274746e+002, 5.221906e+003
4.279568e+002, 5.220482e+003
4.284389e+002, 5.217204e+003
4.289210e+002, 5.217978e+003
4.294031e+002, 5.225398e+003
4.298852e+002, 5.229560e+003
4.303673e+002, 5.227280e+003
4.308495e+002, 5.224313e+003
4.313316e+002, 5.224552e+003
4.318137e+002, 5.227920e+003
4.322958e+002, 5.232473e+003
4.327779e+002, 5.236976e+003
4.332600e+002, 5.241343e+003
4.337422e+002, 5.244870e+003
4.342243e+002, 5.246242e+003
4.347064e+002, 5.248284e+003
4.351885e+002, 5.252743e+003
4.356706e+002, 5.257345e+003
4.361527e+002, 5.258509e+003
4.366349e+002, 5.255565e+003
4.371170e+002, 5.252570e+003
4.375991e+002, 5.255897e+003
4.380812e+002, 5.267837e+003
4.385633e+002, 5.277595e+003
4.390454e+002, 5.285883e+003
4.395276e+002, 5.291147e+003
4.400097e+002, 5.290868e+003
4.404918e+002, 5.287003e+003
4.409739e+002, 5.283723e+003
4.414560e+002, 5.283592e+003
4.419381e+002, 5.285812e+003
4.424203e+002, 5.288253e+003
4.429024e+002, 5.291182e+003
4.433845e+002, 5.293654e+003
4.438666e+002, 5.295423e+003
4.443487e+002, 5.296637e+003
4.448308e+002, 5.297011e+003
4.453130e+002, 5.296521e+003
4.457951e+002, 5.296560e+003
4.462772e+002, 5.298322e+003
4.467593e+002, 5.301638e+003
4.472414e+002, 5.305874e+003
4.477235e+002, 5.311578e+003
4.482057e+002, 5.316889e+003
4.486878e+002, 5.320009e+003
4.491699e+002, 5.321663e+003
4.496520e+002, 5.323382e+003
4.501341e+002, 5.325651e+003
4.506162e+002, 5.328033e+003
4.510984e+002, 5.329721e+003
4.515805e+002, 5.330945e+003
4.520626e+002, 5.333382e+003
4.525447e+002, 5.338060e+003
4.530268e+002, 5.343781e+003
4.535089e+002, 5.348187e+003
4.539911e+002, 5.351047e+003
4.544732e+002, 5.354032e+003
4.549553e+002, 5.358664e+003
4.554374e+002, 5.362909e+003
4.559195e+002, 5.363579e+003
4.564016e+002, 5.360838e+003
4.568838e+002, 5.359119e+003
4.573659e+002, 5.362470e+003
4.578480e+002, 5.370430e+003
4.583301e+002, 5.374534e+003
4.588122e+002, 5.371159e+003
4.592943e+002, 5.368887e+003
4.597765e+002, 5.370202e+003
4.602586e+002, 5.373696e+003
4.607407e+002, 5.378122e+003
4.612228e+002, 5.382867e+003
4.617049e+002, 5.386636e+003
4.621870e+002, 5.386952e+003
4.626692e+002, 5.381604e+003
4.631513e+002, 5.380055e+003
4.636334e+002, 5.385725e+003
4.641155e+002, 5.391677e+003
4.645976e+002, 5.395305e+003
4.650797e+002, 5.396894e+003
4.655619e+002, 5.397593e+003
4.660440e+002, 5.397883e+003
4.665261e+002, 5.398173e+003
4.670082e+002, 5.399713e+003
4.674903e+002, 5.403025e+003
4.679724e+002, 5.406180e+003
4.684546e+002, 5.408766e+003
4.689367e+002, 5.410940e+003
4.694188e+002, 5.412468e+003
4.699009e+002, 5.413415e+003
4.703830e+002, 5.414758e+003
4.708651e+002, 5.417785e+003
4.713473e+002, 5.421828e+003
4.718294e+002, 5.424178e+003
4.723115e+002, 5.423964e+003
4.727936e+002, 5.424143e+003
4.732757e+002, 5.427278e+003
4.737578e+002, 5.431981e+003
4.742400e+002, 5.435709e+003
4.747221e+002, 5.437868e+003
4.752042e+002, 5.439333e+003
4.756863e+002, 5.440431e+003
4.761684e+002, 5.441302e+003
4.766505e+002, 5.442296e+003
4.771327e+002, 5.443509e+003
4.776148e+002, 5.444997e+003
4.780969e+002, 5.446951e+003
4.785790e+002, 5.449491e+003
4.790611e+002, 5.451780e+003
4.795432e+002, 5.454167e+003
4.800254e+002, 5.456005e+003
4.805075e+002, 5.456646e+003
4.809896e+002, 5.456400e+003
4.814717e+002, 5.456070e+003
4.819538e+002, 5.456069e+003
4.824359e+002, 5.456437e+003
4.829181e+002, 5.457269e+003
4.834002e+002, 5.458917e+003
4.838823e+002, 5.460563e+003
4.843644e+002, 5.462409e+003
4.848465e+002, 5.464069e+003
4.853286e+002, 5.465149e+003
4.858108e+002, 5.465699e+003
4.862929e+002, 5.466042e+003
4.867750e+002, 5.466241e+003
4.872571e+002, 5.466446e+003
4.877392e+002, 5.468227e+003
4.882213e+002, 5.472549e+003
4.887035e+002, 5.476832e+003
4.891856e+002, 5.480906e+003
4.896677e+002, 5.484292e+003
4.901498e+002, 5.486073e+003
4.906319e+002, 5.486028e+003
4.911140e+002, 5.486021e+003
4.915962e+002, 5.488011e+003
4.920783e+002, 5.491797e+003
4.925604e+002, 5.495920e+003
4.930425e+002, 5.500857e+003
4.935246e+002, 5.504874e+003
4.940067e+002, 5.506144e+003
4.944889e+002, 5.505588e+003
4.949710e+002, 5.505118e+003
4.954531e+002, 5.505283e+003
4.959352e+002, 5.505552e+003
4.964173e+002, 5.504922e+003
4.968994e+002, 5.503935e+003
4.973816e+002, 5.504902e+003
4.978637e+002, 5.508990e+003
4.983458e+002, 5.514027e+003
4.988279e+002, 5.516714e+003
4.993100e+002, 5.516399e+003
4.997921e+002, 5.517075e+003
5.002743e+002, 5.519498e+003
5.007564e+002, 5.522525e+003
5.012385e+002, 5.526395e+003
5.017206e+002, 5.530307e+003
5.022027e+002, 5.531928e+003
5.026848e+002, 5.529768e+003
5.031670e+002, 5.525288e+003
5.036491e+002, 5.522908e+003
5.041312e+002, 5.524728e+003
5.046133e+002, 5.525241e+003
5.050954e+002, 5.521642e+003
5.055775e+002, 5.518889e+003
5.060597e+002, 5.520977e+003
5.065418e+002, 5.527429e+003
5.070239e+002, 5.534939e+003
5.075060e+002, 5.541659e+003
5.079881e+002, 5.547050e+003
5.084702e+002, 5.547753e+003
5.089524e+002, 5.540924e+003
5.094345e+002, 5.535888e+003
5.099166e+002, 5.536281e+003
5.103987e+002, 5.539510e+003
5.108808e+002, 5.544237e+003
5.113629e+002, 5.550260e+003
5.118451e+002, 5.555278e+003
5.123271e+002, 5.556775e+003
5.128093e+002, 5.555955e+003
5.132914e+002, 5.556167e+003
5.137735e+002, 5.557788e+003
5.142556e+002, 5.560094e+003
5.147377e+002, 5.563040e+003
5.152198e+002, 5.566241e+003
5.157020e+002, 5.568416e+003
5.161841e+002, 5.568501e+003
5.166662e+002, 5.569018e+003
5.171483e+002, 5.571294e+003
5.176304e+002, 5.574638e+003
5.181125e+002, 5.578349e+003
5.185947e+002, 5.582197e+003
5.190768e+002, 5.585111e+003
5.195589e+002, 5.585851e+003
5.200410e+002, 5.584196e+003
5.205231e+002, 5.582321e+003
5.210052e+002, 5.576646e+003
5.214874e+002, 5.574768e+003
5.219695e+002, 5.581908e+003
5.224516e+002, 5.593394e+003
5.229337e+002, 5.602850e+003
5.234158e+002, 5.607927e+003
5.238979e+002, 5.610077e+003
5.243801e+002, 5.611300e+003
5.248622e+002, 5.611584e+003
5.253443e+002, 5.611017e+003
5.258264e+002, 5.607806e+003
5.263085e+002, 5.605795e+003
5.267906e+002, 5.607188e+003
5.272728e+002, 5.610831e+003
5.277549e+002, 5.614512e+003
5.282370e+002, 5.617388e+003
5.287191e+002, 5.619845e+003
5.292012e+002, 5.622623e+003
5.296833e+002, 5.625619e+003
5.301655e+002, 5.627308e+003
5.306476e+002, 5.626565e+003
5.311297e+002, 5.625578e+003
5.316118e+002, 5.627554e+003
5.320939e+002, 5.631967e+003
5.325760e+002, 5.634639e+003
5.330582e+002, 5.633114e+003
5.335403e+002, 5.630961e+003
5.340224e+002, 5.630236e+003
5.345045e+002, 5.631132e+003
5.349866e+002, 5.634300e+003
5.354688e+002, 5.640225e+003
5.359509e+002, 5.647333e+003
5.364330e+002, 5.652560e+003
5.369151e+002, 5.654312e+003
5.373972e+002, 5.658081e+003
5.378793e+002, 5.667396e+003
5.383615e+002, 5.675336e+003
5.388436e+002, 5.677170e+003
5.393257e+002, 5.674523e+003
5.398078e+002, 5.671284e+003
5.402899e+002, 5.669413e+003
5.407720e+002, 5.669308e+003
5.412542e+002, 5.672154e+003
5.417363e+002, 5.678514e+003
5.422184e+002, 5.685836e+003
5.427005e+002, 5.697190e+003
5.431826e+002, 5.706253e+003
5.436647e+002, 5.707689e+003
5.441469e+002, 5.703101e+003
5.446290e+002, 5.699406e+003
5.451111e+002, 5.701193e+003
5.455932e+002, 5.705006e+003
5.460753e+002, 5.704704e+003
5.465574e+002, 5.700501e+003
5.470396e+002, 5.698852e+003
5.475217e+002, 5.702745e+003
5.480038e+002, 5.709538e+003
5.484859e+002, 5.715759e+003
5.489680e+002, 5.721598e+003
5.494501e+002, 5.725873e+003
5.499323e+002, 5.727675e+003
5.504144e+002, 5.728435e+003
5.508965e+002, 5.729206e+003
5.513786e+002, 5.729950e+003
5.518607e+002, 5.730094e+003
5.523428e+002, 5.729280e+003
5.528250e+002, 5.728001e+003
5.533071e+002, 5.727508e+003
5.537892e+002, 5.728495e+003
5.542713e+002, 5.729056e+003
5.547534e+002, 5.727433e+003
5.552355e+002, 5.727044e+003
5.557177e+002, 5.730886e+003
5.561998e+002, 5.737683e+003
5.566819e+002, 5.743897e+003
5.571640e+002, 5.747457e+003
5.576461e+002, 5.749078e+003
5.581282e+002, 5.749846e+003
5.586104e+002, 5.749493e+003
5.590925e+002, 5.750054e+003
5.595746e+002, 5.752208e+003
5.600567e+002, 5.755313e+003
5.605388e+002, 5.759359e+003
5.610209e+002, 5.764041e+003
5.615031e+002, 5.767346e+003
5.619852e+002, 5.766443e+003
5.624673e+002, 5.765261e+003
5.629494e+002, 5.768041e+003
5.634315e+002, 5.774295e+003
5.639136e+002, 5.781756e+003
5.643958e+002, 5.789894e+003
5.648779e+002, 5.797589e+003
5.653600e+002, 5.803020e+003
5.658421e+002, 5.805802e+003
5.663242e+002, 5.806804e+003
5.668063e+002, 5.803089e+003
5.672885e+002, 5.800380e+003
5.677706e+002, 5.802579e+003
5.682527e+002, 5.808211e+003
5.687348e+002, 5.813950e+003
5.692169e+002, 5.818204e+003
5.696990e+002, 5.821365e+003
5.701812e+002, 5.823830e+003
5.706633e+002, 5.825013e+003
5.711454e+002, 5.827971e+003
5.716275e+002, 5.835654e+003
5.721096e+002, 5.842362e+003
5.725917e+002, 5.843737e+003
5.730739e+002, 5.842068e+003
5.735560e+002, 5.842913e+003
5.740381e+002, 5.849439e+003
5.745202e+002, 5.857468e+003
5.750023e+002, 5.862242e+003
5.754844e+002, 5.864276e+003
5.759666e+002, 5.866097e+003
5.764487e+002, 5.868010e+003
5.769308e+002, 5.870929e+003
5.774129e+002, 5.876453e+003
5.778950e+002, 5.884630e+003
5.783771e+002, 5.890813e+003
5.788593e+002, 5.894140e+003
5.793414e+002, 5.896271e+003
5.798235e+002, 5.897192e+003
5.803056e+002, 5.897620e+003
5.807877e+002, 5.898481e+003
5.812698e+002, 5.900096e+003
5.817520e+002, 5.902526e+003
5.822341e+002, 5.906036e+003
5.827162e+002, 5.910853e+003
5.831984e+002, 5.914709e+003
5.836805e+002, 5.916758e+003
5.841626e+002, 5.918849e+003
5.846447e+002, 5.920878e+003
5.851268e+002, 5.923519e+003
5.856089e+002, 5.928263e+003
5.860911e+002, 5.935557e+003
5.865732e+002, 5.942009e+003
5.870553e+002, 5.943376e+003
5.875374e+002, 5.941201e+003
5.880195e+002, 5.941548e+003
5.885016e+002, 5.945315e+003
5.889838e+002, 5.949674e+003
5.894659e+002, 5.953315e+003
5.899480e+002, 5.956101e+003
5.904301e+002, 5.957722e+003
5.909122e+002, 5.957276e+003
5.913943e+002, 5.957528e+003
5.918765e+002, 5.960237e+003
5.923586e+002, 5.963539e+003
5.928407e+002, 5.964258e+003
5.933228e+002, 5.962917e+003
5.938049e+002, 5.964459e+003
5.942870e+002, 5.973222e+003
5.947692e+002, 5.986799e+003
5.952513e+002, 5.993851e+003
5.957334e+002, 5.990757e+003
5.962155e+002, 5.987286e+003
5.966976e+002, 5.981365e+003
5.971797e+002, 5.977929e+003
5.976619e+002, 5.981604e+003
5.981440e+002, 5.991253e+003
5.986261e+002, 6.001357e+003
5.991082e+002, 6.008943e+003
5.995903e+002, 6.014567e+003
6.000724e+002, 6.018684e+003
6.005546e+002, 6.021253e+003
6.010367e+002, 6.024495e+003
6.015188e+002, 6.029217e+003
6.020009e+002, 6.034638e+003
6.024830e+002, 6.040233e+003
6.029651e+002, 6.046004e+003
6.034473e+002, 6.050363e+003
6.039294e+002, 6.052927e+003
6.044115e+002, 6.054124e+003
6.048936e+002, 6.052979e+003
6.053757e+002, 6.050876e+003
6.058578e+002, 6.050695e+003
6.063400e+002, 6.053476e+003
6.068221e+002, 6.057522e+003
6.073042e+002, 6.060486e+003
6.077863e+002, 6.062269e+003
6.082684e+002, 6.063955e+003
6.087505e+002, 6.066646e+003
6.092327e+002, 6.067992e+003
6.097148e+002, 6.065224e+003
6.101969e+002, 6.061750e+003
6.106790e+002, 6.062388e+003
6.111611e+002, 6.068554e+003
6.116432e+002, 6.075624e+003
6.121254e+002, 6.079423e+003
6.126075e+002, 6.080875e+003
6.130896e+002, 6.082737e+003
6.135717e+002, 6.085210e+003
6.140538e+002, 6.088076e+003
6.145359e+002, 6.091199e+003
6.150181e+002, 6.094569e+003
6.155002e+002, 6.098058e+003
6.159823e+002, 6.101063e+003
6.164644e+002, 6.105343e+003
6.169465e+002, 6.113274e+003
6.174286e+002, 6.121042e+003
6.179108e+002, 6.124120e+003
6.183929e+002, 6.123693e+003
6.188750e+002, 6.125156e+003
6.193571e+002, 6.132134e+003
6.198392e+002, 6.141944e+003
6.203214e+002, 6.147140e+003
6.208035e+002, 6.145861e+003
6.212856e+002, 6.145751e+003
6.217677e+002, 6.148345e+003
6.222498e+002, 6.151690e+003
6.227319e+002, 6.155769e+003
6.232141e+002, 6.159809e+003
6.236962e+002, 6.161657e+003
6.241783e+002, 6.158917e+003
6.246604e+002, 6.156584e+003
6.251425e+002, 6.160627e+003
6.256246e+002, 6.169253e+003
6.261068e+002, 6.176437e+003
6.265889e+002, 6.180849e+003
6.270710e+002, 6.183968e+003
6.275531e+002, 6.186956e+003
6.280352e+002, 6.189811e+003
6.285173e+002, 6.192839e+003
6.289995e+002, 6.194872e+003
6.294816e+002, 6.198477e+003
6.299637e+002, 6.205126e+003
6.304458e+002, 6.212943e+003
6.309279e+002, 6.220723e+003
6.314100e+002, 6.227881e+003
6.318922e+002, 6.233528e+003
6.323743e+002, 6.236566e+003
6.328564e+002, 6.237751e+003
6.333385e+002, 6.239705e+003
6.338206e+002, 6.242180e+003
6.343027e+002, 6.246400e+003
6.347849e+002, 6.254251e+003
6.352670e+002, 6.262517e+003
6.357491e+002, 6.268187e+003
6.362312e+002, 6.271438e+003
6.367133e+002, 6.273922e+003
6.371954e+002, 6.275843e+003
6.376776e+002, 6.277514e+003
6.381597e+002, 6.279394e+003
6.386418e+002, 6.281245e+003
6.391239e+002, 6.282526e+003
6.396060e+002, 6.283076e+003
6.400881e+002, 6.282735e+003
6.405703e+002, 6.281000e+003
6.410524e+002, 6.277615e+003
6.415345e+002, 6.276391e+003
6.420166e+002, 6.278506e+003
6.424987e+002, 6.281657e+003
6.429808e+002, 6.287035e+003
6.434630e+002, 6.292335e+003
6.439451e+002, 6.294602e+003
6.444272e+002, 6.293597e+003
6.449093e+002, 6.292845e+003
6.453914e+002, 6.295587e+003
6.458735e+002, 6.300499e+003
6.463557e+002, 6.303893e+003
6.468378e+002, 6.305646e+003
6.473199e+002, 6.309221e+003
6.478020e+002, 6.317101e+003
6.482841e+002, 6.326050e+003
6.487662e+002, 6.330653e+003
6.492484e+002, 6.330167e+003
6.497305e+002, 6.329657e+003
6.502126e+002, 6.328079e+003
6.506947e+002, 6.327953e+003
6.511768e+002, 6.331492e+003
6.516589e+002, 6.337234e+003
6.521411e+002, 6.342352e+003
6.526232e+002, 6.345911e+003
6.531053e+002, 6.349631e+003
6.535874e+002, 6.356521e+003
6.540695e+002, 6.366635e+003
6.545516e+002, 6.372761e+003
6.550338e+002, 6.372527e+003
6.555159e+002, 6.372952e+003
6.559980e+002, 6.379056e+003
6.564801e+002, 6.386418e+003
6.569622e+002, 6.389498e+003
6.574443e+002, 6.387292e+003
6.579265e+002, 6.386260e+003
6.584086e+002, 6.390519e+003
6.588907e+002, 6.396521e+003
6.593728e+002, 6.400362e+003
6.598549e+002, 6.402292e+003
6.603370e+002, 6.404334e+003
6.608192e+002, 6.407411e+003
6.613013e+002, 6.411044e+003
6.617834e+002, 6.414475e+003
6.622655e+002, 6.417904e+003
6.627476e+002, 6.420407e+003
6.632297e+002, 6.419422e+003
6.637119e+002, 6.420409e+003
6.641940e+002, 6.427722e+003
6.646761e+002, 6.436887e+003
6.651582e+002, 6.441170e+003
6.656403e+002, 6.438803e+003
6.661224e+002, 6.436189e+003
6.666046e+002, 6.440210e+003
6.670867e+002, 6.447603e+003
6.675688e+002, 6.449638e+003
6.680509e+002, 6.445802e+003
6.685330e+002, 6.443327e+003
6.690151e+002, 6.446057e+003
6.694973e+002, 6.451892e+003
6.699794e+002, 6.456789e+003
6.704615e+002, 6.460500e+003
6.709436e+002, 6.463834e+003
6.714257e+002, 6.466060e+003
6.719078e+002, 6.468619e+003
6.723900e+002, 6.472813e+003
6.728721e+002, 6.477655e+003
6.733542e+002, 6.481084e+003
6.738363e+002, 6.482427e+003
6.743184e+002, 6.483802e+003
6.748005e+002, 6.487841e+003
6.752827e+002, 6.494323e+003
6.757648e+002, 6.501444e+003
6.762469e+002, 6.509640e+003
6.767290e+002, 6.516600e+003
6.772111e+002, 6.521483e+003
6.776932e+002, 6.524231e+003
6.781754e+002, 6.524225e+003
6.786575e+002, 6.520518e+003
6.791396e+002, 6.519388e+003
6.796217e+002, 6.525507e+003
6.801038e+002, 6.531956e+003
6.805859e+002, 6.532177e+003
6.810681e+002, 6.528702e+003
6.815502e+002, 6.528315e+003
6.820323e+002, 6.533616e+003
6.825144e+002, 6.540641e+003
6.829965e+002, 6.543048e+003
6.834786e+002, 6.540343e+003
6.839608e+002, 6.541828e+003
6.844429e+002, 6.550489e+003
6.849250e+002, 6.557893e+003
6.854071e+002, 6.558508e+003
6.858892e+002, 6.557206e+003
6.863713e+002, 6.559701e+003
6.868535e+002, 6.566719e+003
6.873356e+002, 6.572683e+003
6.878177e+002, 6.573826e+003
6.882998e+002, 6.573709e+003
6.887819e+002, 6.575706e+003
6.892640e+002, 6.579633e+003
6.897462e+002, 6.584303e+003
6.902283e+002, 6.589282e+003
6.907104e+002, 6.594921e+003
6.911925e+002, 6.602226e+003
6.916746e+002, 6.611917e+003
6.921567e+002, 6.616912e+003
6.926389e+002, 6.611886e+003
6.931210e+002, 6.609526e+003
6.936031e+002, 6.615326e+003
6.940852e+002, 6.623872e+003
6.945673e+002, 6.629938e+003
6.950494e+002, 6.632854e+003
6.955316e+002, 6.634551e+003
6.960137e+002, 6.634746e+003
6.964958e+002, 6.635242e+003
6.969779e+002, 6.639279e+003
6.974600e+002, 6.646017e+003
6.979421e+002, 6.651622e+003
6.984243e+002, 6.654761e+003
6.989064e+002, 6.656114e+003
6.993885e+002, 6.656144e+003
6.998706e+002, 6.654595e+003
7.003527e+002, 6.655194e+003
7.008348e+002, 6.660863e+003
7.013170e+002, 6.665138e+003
7.017991e+002, 6.665255e+003
7.022812e+002, 6.664578e+003
7.027633e+002, 6.666752e+003
7.032454e+002, 6.671715e+003
7.037275e+002, 6.675895e+003
7.042097e+002, 6.675461e+003
7.046918e+002, 6.674313e+003
7.051739e+002, 6.679341e+003
7.056560e+002, 6.689605e+003
7.061381e+002, 6.698943e+003
7.066202e+002, 6.705646e+003
7.071024e+002, 6.711050e+003
7.075845e+002, 6.716548e+003
7.080666e+002, 6.722121e+003
7.085487e+002, 6.726126e+003
7.090308e+002, 6.725306e+003
7.095129e+002, 6.727248e+003
7.099951e+002, 6.735862e+003
7.104772e+002, 6.745527e+003
7.109593e+002, 6.751220e+003
7.114414e+002, 6.753257e+003
7.119235e+002, 6.755308e+003
7.124056e+002, 6.759791e+003
7.128878e+002, 6.764865e+003
7.133699e+002, 6.767408e+003
7.138520e+002, 6.767789e+003
7.143341e+002, 6.768433e+003
7.148162e+002, 6.769741e+003
7.152983e+002, 6.771865e+003
7.157805e+002, 6.775394e+003
7.162626e+002, 6.779888e+003
7.167447e+002, 6.782664e+003
7.172268e+002, 6.782166e+003
7.177089e+002, 6.782405e+003
7.181910e+002, 6.782451e+003
7.186732e+002, 6.784462e+003
7.191553e+002, 6.791570e+003
7.196374e+002, 6.801828e+003
7.201195e+002, 6.810559e+003
7.206016e+002, 6.815485e+003
7.210837e+002, 6.818165e+003
7.215659e+002, 6.819466e+003
7.220480e+002, 6.819989e+003
7.225301e+002, 6.823868e+003
7.230122e+002, 6.832182e+003
7.234943e+002, 6.839157e+003
7.239764e+002, 6.839731e+003
7.244586e+002, 6.837911e+003
7.249407e+002, 6.845122e+003
7.254228e+002, 6.868944e+003
7.259049e+002, 6.882779e+003
7.263870e+002, 6.876263e+003
7.268691e+002, 6.868375e+003
7.273513e+002, 6.869519e+003
7.278334e+002, 6.876529e+003
7.283155e+002, 6.883670e+003
7.287976e+002, 6.888896e+003
7.292797e+002, 6.891917e+003
7.297618e+002, 6.890697e+003
7.302440e+002, 6.886983e+003
7.307261e+002, 6.887618e+003
7.312082e+002, 6.893036e+003
7.316903e+002, 6.898765e+003
7.321724e+002, 6.902861e+003
7.326545e+002, 6.906664e+003
7.331367e+002, 6.912957e+003
7.336188e+002, 6.923087e+003
7.341009e+002, 6.927201e+003
7.345830e+002, 6.917347e+003
7.350651e+002, 6.911026e+003
7.355472e+002, 6.917483e+003
7.360294e+002, 6.928782e+003
7.365115e+002, 6.935651e+003
7.369936e+002, 6.936849e+003
7.374757e+002, 6.937226e+003
7.379578e+002, 6.940733e+003
7.384399e+002, 6.945391e+003
7.389221e+002, 6.945795e+003
7.394042e+002, 6.942464e+003
7.398863e+002, 6.944110e+003
7.403684e+002, 6.953714e+003
7.408505e+002, 6.965570e+003
7.413326e+002, 6.974985e+003
7.418148e+002, 6.981962e+003
7.422969e+002, 6.986509e+003
7.427790e+002, 6.987347e+003
7.432611e+002, 6.987742e+003
7.437432e+002, 6.987127e+003
7.442253e+002, 6.986995e+003
7.447075e+002, 6.988275e+003
7.451896e+002, 6.991032e+003
7.456717e+002, 6.995404e+003
7.461538e+002, 7.001869e+003
7.466359e+002, 7.008233e+003
7.471180e+002, 7.011235e+003
7.476002e+002, 7.011920e+003
7.480823e+002, 7.014407e+003
7.485644e+002, 7.019255e+003
7.490465e+002, 7.023714e+003
7.495286e+002, 7.026068e+003
7.500107e+002, 7.027194e+003
7.504929e+002, 7.029258e+003
7.509750e+002, 7.033292e+003
7.514571e+002, 7.035695e+003
7.519392e+002, 7.032868e+003
7.524213e+002, 7.032531e+003
7.529034e+002, 7.041508e+003
7.533856e+002, 7.053101e+003
7.538677e+002, 7.056955e+003
7.543498e+002, 7.051085e+003
7.548319e+002, 7.045333e+003
7.553140e+002, 7.047757e+003
7.557961e+002, 7.054528e+003
7.562783e+002, 7.059346e+003
7.567604e+002, 7.062539e+003
7.572425e+002, 7.066838e+003
7.577246e+002, 7.073144e+003
7.582067e+002, 7.080502e+003
7.586888e+002, 7.087826e+003
7.591710e+002, 7.095117e+003
7.596531e+002, 7.102155e+003
7.601352e+002, 7.109709e+003
7.606173e+002, 7.115682e+003
7.610994e+002, 7.119353e+003
7.615815e+002, 7.121758e+003
7.620637e+002, 7.122834e+003
7.625458e+002, 7.123222e+003
7.630279e+002, 7.124961e+003
7.635100e+002, 7.129719e+003
7.639921e+002, 7.134405e+003
7.644742e+002, 7.136137e+003
7.649564e+002, 7.136169e+003
7.654385e+002, 7.136825e+003
7.659206e+002, 7.138337e+003
7.664027e+002, 7.139259e+003
7.668848e+002, 7.138404e+003
7.673669e+002, 7.137642e+003
7.678491e+002, 7.142216e+003
7.683312e+002, 7.154711e+003
7.688133e+002, 7.162878e+003
7.692954e+002, 7.164842e+003
7.697775e+002, 7.164697e+003
7.702596e+002, 7.162553e+003
7.707418e+002, 7.160224e+003
7.712239e+002, 7.160161e+003
7.717060e+002, 7.162721e+003
7.721881e+002, 7.166264e+003
7.726702e+002, 7.171056e+003
7.731523e+002, 7.175758e+003
7.736345e+002, 7.178175e+003
7.741166e+002, 7.179904e+003
7.745987e+002, 7.184631e+003
7.750808e+002, 7.193155e+003
7.755629e+002, 7.202701e+003
7.760450e+002, 7.211133e+003
7.765272e+002, 7.217941e+003
7.770093e+002, 7.219362e+003
7.774914e+002, 7.213723e+003
7.779735e+002, 7.212453e+003
7.784556e+002, 7.221167e+003
7.789377e+002, 7.230406e+003
7.794199e+002, 7.230844e+003
7.799020e+002, 7.224357e+003
7.803841e+002, 7.220327e+003
7.808662e+002, 7.218078e+003
7.813483e+002, 7.219786e+003
7.818304e+002, 7.228608e+003
7.823126e+002, 7.239354e+003
7.827947e+002, 7.249462e+003
7.832768e+002, 7.257582e+003
7.837589e+002, 7.260861e+003
7.842410e+002, 7.257798e+003
7.847231e+002, 7.253972e+003
7.852053e+002, 7.257150e+003
7.856874e+002, 7.265379e+003
7.861695e+002, 7.270452e+003
7.866516e+002, 7.271775e+003
7.871337e+002, 7.274417e+003
7.876158e+002, 7.281017e+003
7.880980e+002, 7.289097e+003
7.885801e+002, 7.295033e+003
7.890622e+002, 7.298624e+003
7.895443e+002, 7.301379e+003
7.900264e+002, 7.302273e+003
7.905085e+002, 7.303747e+003
7.909907e+002, 7.305881e+003
7.914728e+002, 7.309175e+003
7.919549e+002, 7.314945e+003
7.924370e+002, 7.322495e+003
7.929191e+002, 7.328759e+003
7.934012e+002, 7.331727e+003
7.938834e+002, 7.333430e+003
7.943655e+002, 7.335513e+003
7.948476e+002, 7.337843e+003
7.953297e+002, 7.339984e+003
7.958118e+002, 7.341944e+003
7.962939e+002, 7.344543e+003
7.967761e+002, 7.348338e+003
7.972582e+002, 7.352925e+003
7.977403e+002, 7.357557e+003
7.982224e+002, 7.362594e+003
7.987045e+002, 7.366138e+003
7.991866e+002, 7.367482e+003
7.996688e+002, 7.368442e+003
8.001509e+002, 7.368760e+003
8.006330e+002, 7.369807e+003
8.011151e+002, 7.373451e+003
8.015972e+002, 7.379946e+003
8.020793e+002, 7.387672e+003
8.025615e+002, 7.398781e+003
8.030436e+002, 7.408394e+003
8.035257e+002, 7.411430e+003
8.040078e+002, 7.411976e+003
8.044899e+002, 7.417075e+003
8.049720e+002, 7.427183e+003
8.054542e+002, 7.436126e+003
8.059363e+002, 7.438768e+003
8.064184e+002, 7.437530e+003
8.069005e+002, 7.437272e+003
8.073826e+002, 7.437967e+003
8.078647e+002, 7.440250e+003
8.083469e+002, 7.444536e+003
8.088290e+002, 7.448626e+003
8.093111e+002, 7.450592e+003
8.097932e+002, 7.451467e+003
8.102753e+002, 7.454614e+003
8.107574e+002, 7.462693e+003
8.112396e+002, 7.467577e+003
8.117217e+002, 7.464652e+003
8.122038e+002, 7.463815e+003
8.126859e+002, 7.472450e+003
8.131680e+002, 7.484258e+003
8.136501e+002, 7.489619e+003
8.141323e+002, 7.487096e+003
8.146144e+002, 7.485479e+003
8.150965e+002, 7.492177e+003
8.155786e+002, 7.501079e+003
8.160607e+002, 7.504967e+003
8.165428e+002, 7.505242e+003
8.170250e+002, 7.505236e+003
8.175071e+002, 7.505881e+003
8.179892e+002, 7.507828e+003
8.184713e+002, 7.511756e+003
8.189534e+002, 7.517133e+003
8.194355e+002, 7.521694e+003
8.199177e+002, 7.524595e+003
8.203998e+002, 7.531052e+003
8.208819e+002, 7.545570e+003
8.213640e+002, 7.557038e+003
8.218461e+002, 7.556547e+003
8.223282e+002, 7.549146e+003
8.228104e+002, 7.544282e+003
8.232925e+002, 7.541837e+003
8.237746e+002, 7.543378e+003
8.242567e+002, 7.553093e+003
8.247388e+002, 7.562928e+003
8.252209e+002, 7.567997e+003
8.257031e+002, 7.570471e+003
8.261852e+002, 7.573575e+003
8.266673e+002, 7.578035e+003
8.271494e+002, 7.582851e+003
8.276315e+002, 7.587584e+003
8.281136e+002, 7.591799e+003
8.285958e+002, 7.595340e+003
8.290779e+002, 7.597835e+003
8.295600e+002, 7.596270e+003
8.300421e+002, 7.589869e+003
8.305242e+002, 7.585308e+003
8.310063e+002, 7.587289e+003
8.314885e+002, 7.594939e+003
8.319706e+002, 7.606494e+003
8.324527e+002, 7.626155e+003
8.329348e+002, 7.638296e+003
8.334169e+002, 7.636235e+003
8.338990e+002, 7.634869e+003
8.343812e+002, 7.641482e+003
8.348633e+002, 7.651224e+003
8.353454e+002, 7.657647e+003
8.358275e+002, 7.660033e+003
8.363096e+002, 7.664131e+003
8.367917e+002, 7.675400e+003
8.372739e+002, 7.685096e+003
8.377560e+002, 7.685898e+003
8.382381e+002, 7.682689e+003
8.387202e+002, 7.682393e+003
8.392023e+002, 7.685836e+003
8.396844e+002, 7.689803e+003
8.401666e+002, 7.692073e+003
8.406487e+002, 7.693873e+003
8.411308e+002, 7.697596e+003
8.416129e+002, 7.702907e+003
8.420950e+002, 7.706998e+003
8.425771e+002, 7.709391e+003
8.430593e+002, 7.713268e+003
8.435414e+002, 7.720821e+003
8.440235e+002, 7.729962e+003
8.445056e+002, 7.737097e+003
8.449877e+002, 7.742312e+003
8.454698e+002, 7.745077e+003
8.459520e+002, 7.742806e+003
8.464341e+002, 7.741564e+003
8.469162e+002, 7.742794e+003
8.473983e+002, 7.745579e+003
8.478804e+002, 7.749207e+003
8.483625e+002, 7.753655e+003
8.488447e+002, 7.759236e+003
8.493268e+002, 7.767500e+003
8.498089e+002, 7.774624e+003
8.502910e+002, 7.776930e+003
8.507731e+002, 7.777953e+003
8.512552e+002, 7.782417e+003
8.517374e+002, 7.789531e+003
8.522195e+002, 7.795628e+003
8.527016e+002, 7.799000e+003
8.531837e+002, 7.800280e+003
8.536658e+002, 7.798986e+003
8.541479e+002, 7.796131e+003
8.546301e+002, 7.796999e+003
8.551122e+002, 7.801700e+003
8.555943e+002, 7.807121e+003
8.560764e+002, 7.812412e+003
8.565585e+002, 7.817322e+003
8.570406e+002, 7.821620e+003
8.575228e+002, 7.825309e+003
8.580049e+002, 7.828296e+003
8.584870e+002, 7.829315e+003
8.589691e+002, 7.831898e+003
8.594512e+002, 7.839094e+003
8.599333e+002, 7.845203e+003
8.604155e+002, 7.846818e+003
8.608976e+002, 7.845423e+003
8.613797e+002, 7.843673e+003
8.618618e+002, 7.841854e+003
8.623439e+002, 7.840928e+003
8.628260e+002, 7.839512e+003
8.633082e+002, 7.840846e+003
8.637903e+002, 7.850033e+003
8.642724e+002, 7.862819e+003
8.647545e+002, 7.871534e+003
8.652366e+002, 7.874934e+003
8.657188e+002, 7.877935e+003
8.662009e+002, 7.884548e+003
8.666830e+002, 7.892761e+003
8.671651e+002, 7.898692e+003
8.676472e+002, 7.902611e+003
8.681293e+002, 7.906321e+003
8.686115e+002, 7.910017e+003
8.690936e+002, 7.913615e+003
8.695757e+002, 7.916995e+003
8.700578e+002, 7.920317e+003
8.705399e+002, 7.923775e+003
8.710220e+002, 7.926926e+003
8.715042e+002, 7.932838e+003
8.719863e+002, 7.946818e+003
8.724684e+002, 7.955037e+003
8.729505e+002, 7.946451e+003
8.734326e+002, 7.935419e+003
8.739147e+002, 7.935801e+003
8.743969e+002, 7.945961e+003
8.748790e+002, 7.953057e+003
8.753611e+002, 7.951665e+003
8.758432e+002, 7.951299e+003
8.763253e+002, 7.956359e+003
8.768074e+002, 7.963029e+003
8.772896e+002, 7.967572e+003
8.777717e+002, 7.971017e+003
8.782538e+002, 7.976500e+003
8.787359e+002, 7.985140e+003
8.792180e+002, 7.994916e+003
8.797001e+002, 8.006237e+003
8.801823e+002, 8.016265e+003
8.806644e+002, 8.016795e+003
8.811465e+002, 8.010701e+003
8.816286e+002, 8.011586e+003
8.821107e+002, 8.022823e+003
8.825928e+002, 8.036447e+003
8.830750e+002, 8.045909e+003
8.835571e+002, 8.051307e+003
8.840392e+002, 8.051869e+003
8.845213e+002, 8.046052e+003
8.850034e+002, 8.044416e+003
8.854855e+002, 8.049188e+003
8.859677e+002, 8.055244e+003
8.864498e+002, 8.061015e+003
8.869319e+002, 8.065811e+003
8.874140e+002, 8.067834e+003
8.878961e+002, 8.066406e+003
8.883782e+002, 8.067122e+003
8.888604e+002, 8.070350e+003
8.893425e+002, 8.075606e+003
8.898246e+002, 8.084797e+003
8.903067e+002, 8.094483e+003
8.907888e+002, 8.103746e+003
8.912709e+002, 8.110893e+003
8.917531e+002, 8.111062e+003
8.922352e+002, 8.100286e+003
8.927173e+002, 8.089838e+003
8.931994e+002, 8.086403e+003
8.936815e+002, 8.088181e+003
8.941636e+002, 8.095110e+003
8.946458e+002, 8.105189e+003
8.951279e+002, 8.113735e+003
8.956100e+002, 8.119365e+003
8.960921e+002, 8.124479e+003
8.965742e+002, 8.131499e+003
8.970563e+002, 8.139599e+003
8.975385e+002, 8.146514e+003
8.980206e+002, 8.152357e+003
8.985027e+002, 8.159493e+003
8.989848e+002, 8.168604e+003
8.994669e+002, 8.175261e+003
8.999490e+002, 8.175885e+003
9.004312e+002, 8.173622e+003
9.009133e+002, 8.175711e+003
9.013954e+002, 8.182789e+003
9.018775e+002, 8.191452e+003
9.023596e+002, 8.203383e+003
9.028417e+002, 8.214149e+003
9.033239e+002, 8.222557e+003
9.038060e+002, 8.229137e+003
9.042881e+002, 8.233664e+003
9.047702e+002, 8.236587e+003
9.052523e+002, 8.240681e+003
9.057344e+002, 8.249812e+003
9.062166e+002, 8.254957e+003
9.066987e+002, 8.248189e+003
9.071808e+002, 8.242242e+003
9.076629e+002, 8.248631e+003
9.081450e+002, 8.261849e+003
9.086271e+002, 8.270803e+003
9.091093e+002, 8.272629e+003
9.095914e+002, 8.273082e+003
9.100735e+002, 8.275857e+003
9.105556e+002, 8.279384e+003
9.110377e+002, 8.282144e+003
9.115198e+002, 8.284240e+003
9.120020e+002, 8.284753e+003
9.124841e+002, 8.284364e+003
9.129662e+002, 8.287564e+003
9.134483e+002, 8.297563e+003
9.139304e+002, 8.310016e+003
9.144125e+002, 8.317725e+003
9.148947e+002, 8.321155e+003
9.153768e+002, 8.323946e+003
9.158589e+002, 8.326253e+003
9.163410e+002, 8.327586e+003
9.168231e+002, 8.327201e+003
9.173052e+002, 8.328456e+003
9.177874e+002, 8.336080e+003
9.182695e+002, 8.348913e+003
9.187516e+002, 8.354424e+003
9.192337e+002, 8.346731e+003
9.197158e+002, 8.346274e+003
9.201979e+002, 8.361447e+003
9.206801e+002, 8.375861e+003
9.211622e+002, 8.377770e+003
9.216443e+002, 8.374301e+003
9.221264e+002, 8.376893e+003
9.226085e+002, 8.386681e+003
9.230906e+002, 8.396343e+003
9.235728e+002, 8.404886e+003
9.240549e+002, 8.413030e+003
9.245370e+002, 8.420784e+003
9.250191e+002, 8.428298e+003
9.255012e+002, 8.436431e+003
9.259833e+002, 8.444344e+003
9.264655e+002, 8.449237e+003
9.269476e+002, 8.449004e+003
9.274297e+002, 8.449852e+003
9.279118e+002, 8.458068e+003
9.283939e+002, 8.468004e+003
9.288760e+002, 8.472804e+003
9.293582e+002, 8.474207e+003
9.298403e+002, 8.477474e+003
9.303224e+002, 8.483592e+003
9.308045e+002, 8.488378e+003
9.312866e+002, 8.487814e+003
9.317687e+002, 8.485359e+003
9.322509e+002, 8.487972e+003
9.327330e+002, 8.494560e+003
9.332151e+002, 8.499698e+003
9.336972e+002, 8.502929e+003
9.341793e+002, 8.507682e+003
9.346614e+002, 8.515925e+003
9.351436e+002, 8.524574e+003
9.356257e+002, 8.528510e+003
9.361078e+002, 8.528161e+003
9.365899e+002, 8.532621e+003
9.370720e+002, 8.543802e+003
9.375541e+002, 8.551322e+003
9.380363e+002, 8.550697e+003
9.385184e+002, 8.550773e+003
9.390005e+002, 8.558916e+003
9.394826e+002, 8.571980e+003
9.399647e+002, 8.581108e+003
9.404468e+002, 8.583935e+003
9.409290e+002, 8.588985e+003
9.414111e+002, 8.600623e+003
9.418932e+002, 8.608811e+003
9.423753e+002, 8.606793e+003
9.428574e+002, 8.603045e+003
9.433395e+002, 8.605563e+003
9.438217e+002, 8.613771e+003
9.443038e+002, 8.622658e+003
9.447859e+002, 8.632571e+003
9.452680e+002, 8.640260e+003
9.457501e+002, 8.643209e+003
9.462322e+002, 8.644888e+003
9.467144e+002, 8.646205e+003
9.471965e+002, 8.648873e+003
9.476786e+002, 8.656502e+003
9.481607e+002, 8.669100e+003
9.486428e+002, 8.680257e+003
9.491249e+002, 8.684947e+003
9.496071e+002, 8.687595e+003
9.500892e+002, 8.692092e+003
9.505713e+002, 8.697870e+003
9.510534e+002, 8.704411e+003
9.515355e+002, 8.711320e+003
9.520176e+002, 8.717571e+003
9.524998e+002, 8.722717e+003
9.529819e+002, 8.727706e+003
9.534640e+002, 8.734138e+003
9.539461e+002, 8.741135e+003
9.544282e+002, 8.744850e+003
9.549103e+002, 8.746080e+003
9.553925e+002, 8.751601e+003
9.558746e+002, 8.762870e+003
9.563567e+002, 8.775405e+003
9.568388e+002, 8.786640e+003
9.573209e+002, 8.795192e+003
9.578030e+002, 8.797065e+003
9.582852e+002, 8.791364e+003
9.587673e+002, 8.789089e+003
9.592494e+002, 8.790413e+003
9.597315e+002, 8.794935e+003
9.602136e+002, 8.804005e+003
9.606957e+002, 8.813228e+003
9.611779e+002, 8.817971e+003
9.616600e+002, 8.819307e+003
9.621421e+002, 8.822710e+003
9.626242e+002, 8.828460e+003
9.631063e+002, 8.835933e+003
9.635884e+002, 8.848995e+003
9.640706e+002, 8.858909e+003
9.645527e+002, 8.858268e+003
9.650348e+002, 8.855670e+003
9.655169e+002, 8.861902e+003
9.659990e+002, 8.876432e+003
9.664811e+002, 8.887882e+003
9.669633e+002, 8.892545e+003
9.674454e+002, 8.896900e+003
9.679275e+002, 8.903223e+003
9.684096e+002, 8.908824e+003
9.688917e+002, 8.910251e+003
9.693738e+002, 8.910377e+003
9.698560e+002, 8.914752e+003
9.703381e+002, 8.924282e+003
9.708202e+002, 8.932885e+003
9.713023e+002, 8.938311e+003
9.717844e+002, 8.941162e+003
9.722665e+002, 8.939388e+003
9.727487e+002, 8.936940e+003
9.732308e+002, 8.938514e+003
9.737129e+002, 8.943801e+003
9.741950e+002, 8.950678e+003
9.746771e+002, 8.958300e+003
9.751592e+002, 8.965465e+003
9.756414e+002, 8.970110e+003
9.761235e+002, 8.974308e+003
9.766056e+002, 8.980816e+003
9.770877e+002, 8.989335e+003
9.775698e+002, 9.000116e+003
9.780519e+002, 9.012431e+003
9.785341e+002, 9.022599e+003
9.790162e+002, 9.028313e+003
9.794983e+002, 9.031972e+003
9.799804e+002, 9.037486e+003
9.804625e+002, 9.043924e+003
9.809446e+002, 9.046288e+003
9.814268e+002, 9.045266e+003
9.819089e+002, 9.049573e+003
9.823910e+002, 9.061567e+003
9.828731e+002, 9.072424e+003
9.833552e+002, 9.074583e+003
9.838373e+002, 9.072060e+003
9.843195e+002, 9.075186e+003
9.848016e+002, 9.084254e+003
9.852837e+002, 9.092347e+003
9.857658e+002, 9.099103e+003
9.862479e+002, 9.105746e+003
9.867300e+002, 9.112877e+003
9.872122e+002, 9.119432e+003
9.876943e+002, 9.124171e+003
9.881764e+002, 9.127519e+003
9.886585e+002, 9.131719e+003
9.891406e+002, 9.136454e+003
9.896227e+002, 9.143049e+003
9.901049e+002, 9.152627e+003
9.905870e+002, 9.162121e+003
9.910691e+002, 9.170518e+003
9.915512e+002, 9.177996e+003
9.920333e+002, 9.185361e+003
9.925154e+002, 9.192504e+003
9.929976e+002, 9.196246e+003
9.934797e+002, 9.192667e+003
9.939618e+002, 9.191724e+003
9.944439e+002, 9.194339e+003
9.949260e+002, 9.199241e+003
9.954081e+002, 9.207579e+003
9.958903e+002, 9.216896e+003
9.963724e+002, 9.223842e+003
9.968545e+002, 9.228213e+003
9.973366e+002, 9.232418e+003
9.978187e+002, 9.237559e+003
9.983008e+002, 9.241639e+003
9.987830e+002, 9.242315e+003
9.992651e+002, 9.243421e+003
9.997472e+002, 9.248655e+003
1.000229e+003, 9.255896e+003
1.000711e+003, 9.260579e+003
1.001194e+003, 9.261929e+003
1.001676e+003, 9.265566e+003
1.002158e+003, 9.276068e+003
1.002640e+003, 9.287029e+003
1.003122e+003, 9.297047e+003
1.003604e+003, 9.303921e+003
1.004086e+003, 9.301526e+003
1.004568e+003, 9.294928e+003
1.005050e+003, 9.297343e+003
1.005533e+003, 9.312719e+003
1.006015e+003, 9.327507e+003
1.006497e+003, 9.331491e+003
1.006979e+003, 9.331365e+003
1.007461e+003, 9.332732e+003
1.007943e+003, 9.334827e+003
1.008425e+003, 9.335955e+003
1.008907e+003, 9.336476e+003
1.009390e+003, 9.337908e+003
1.009872e+003, 9.340897e+003
1.010354e+003, 9.346082e+003
1.010836e+003, 9.354887e+003
1.011318e+003, 9.365733e+003
1.011800e+003, 9.377248e+003
1.012282e+003, 9.388375e+003
1.012764e+003, 9.396298e+003
1.013246e+003, 9.400940e+003
1.013729e+003, 9.404506e+003
1.014211e+003, 9.408149e+003
1.014693e+003, 9.411870e+003
1.015175e+003, 9.415292e+003
1.015657e+003, 9.418920e+003
1.016139e+003, 9.424862e+003
1.016621e+003, 9.432543e+003
1.017103e+003, 9.438753e+003
1.017586e+003, 9.442993e+003
1.018068e+003, 9.447299e+003
1.018550e+003, 9.453000e+003
1.019032e+003, 9.458769e+003
1.019514e+003, 9.462108e+003
1.019996e+003, 9.463396e+003
1.020478e+003, 9.464223e+003
1.020960e+003, 9.464705e+003
1.021442e+003, 9.469268e+003
1.021925e+003, 9.479064e+003
1.022407e+003, 9.490645e+003
1.022889e+003, 9.501950e+003
1.023371e+003, 9.512119e+003
1.023853e+003, 9.519166e+003
1.024335e+003, 9.523009e+003
1.024817e+003, 9.526907e+003
1.025299e+003, 9.530764e+003
1.025781e+003, 9.534865e+003
1.026264e+003, 9.539163e+003
1.026746e+003, 9.544111e+003
1.027228e+003, 9.550234e+003
1.027710e+003, 9.556780e+003
1.028192e+003, 9.561846e+003
1.028674e+003, 9.565035e+003
1.029156e+003, 9.569335e+003
1.029638e+003, 9.574558e+003
1.030120e+003, 9.581826e+003
1.030603e+003, 9.592926e+003
1.031085e+003, 9.602653e+003
1.031567e+003, 9.605928e+003
1.032049e+003, 9.605749e+003
1.032531e+003, 9.610260e+003
1.033013e+003, 9.620730e+003
1.033495e+003, 9.630830e+003
1.033977e+003, 9.642902e+003
1.034460e+003, 9.649495e+003
1.034942e+003, 9.645777e+003
1.035424e+003, 9.640380e+003
1.035906e+003, 9.639644e+003
1.036388e+003, 9.642556e+003
1.036870e+003, 9.646396e+003
1.037352e+003, 9.651812e+003
1.037834e+003, 9.655942e+003
1.038317e+003, 9.658016e+003
1.038799e+003, 9.659982e+003
1.039281e+003, 9.660746e+003
1.039763e+003, 9.663110e+003
1.040245e+003, 9.670594e+003
1.040727e+003, 9.681170e+003
1.041209e+003, 9.689291e+003
1.041691e+003, 9.694596e+003
1.042173e+003, 9.698443e+003
1.042656e+003, 9.699671e+003
1.043138e+003, 9.701015e+003
1.043620e+003, 9.701587e+003
1.044102e+003, 9.703859e+003
1.044584e+003, 9.711114e+003
1.045066e+003, 9.721248e+003
1.045548e+003, 9.728390e+003
1.046030e+003, 9.730724e+003
1.046512e+003, 9.735777e+003
1.046995e+003, 9.747604e+003
1.047477e+003, 9.757928e+003
1.047959e+003, 9.764014e+003
1.048441e+003, 9.767988e+003
1.048923e+003, 9.770670e+003
1.049405e+003, 9.772781e+003
1.049887e+003, 9.775409e+003
1.050369e+003, 9.778381e+003
1.050852e+003, 9.783666e+003
1.051334e+003, 9.794286e+003
1.051816e+003, 9.803873e+003
1.052298e+003, 9.809719e+003
1.052780e+003, 9.814212e+003
1.053262e+003, 9.819841e+003
1.053744e+003, 9.825578e+003
1.054226e+003, 9.828457e+003
1.054708e+003, 9.827544e+003
1.055191e+003, 9.827610e+003
1.055673e+003, 9.829266e+003
1.056155e+003, 9.832940e+003
1.056637e+003, 9.837957e+003
1.057119e+003, 9.845795e+003
1.057601e+003, 9.860244e+003
1.058083e+003, 9.877641e+003
1.058565e+003, 9.891354e+003
1.059047e+003, 9.900159e+003
1.059530e+003, 9.903458e+003
1.060012e+003, 9.895064e+003
1.060494e+003, 9.888777e+003
1.060976e+003, 9.892493e+003
1.061458e+003, 9.898847e+003
1.061940e+003, 9.901048e+003
1.062422e+003, 9.901459e+003
1.062904e+003, 9.906171e+003
1.063387e+003, 9.916311e+003
1.063869e+003, 9.925511e+003
1.064351e+003, 9.932895e+003
1.064833e+003, 9.936972e+003
1.065315e+003, 9.933873e+003
1.065797e+003, 9.930252e+003
1.066279e+003, 9.932581e+003
1.066761e+003, 9.938121e+003
1.067244e+003, 9.940031e+003
1.067726e+003, 9.937649e+003
1.068208e+003, 9.940231e+003
1.068690e+003, 9.957351e+003
1.069172e+003, 9.972373e+003
1.069654e+003, 9.975229e+003
1.070136e+003, 9.975315e+003
1.070618e+003, 9.980094e+003
1.071100e+003, 9.987438e+003
1.071583e+003, 9.992029e+003
1.072065e+003, 9.993653e+003
1.072547e+003, 9.998764e+003
1.073029e+003, 1.001362e+004
1.073511e+003, 1.002596e+004
1.073993e+003, 1.002790e+004
1.074475e+003, 1.002708e+004
1.074957e+003, 1.002771e+004
1.075439e+003, 1.003038e+004
1.075922e+003, 1.003542e+004
1.076404e+003, 1.004272e+004
1.076886e+003, 1.005168e+004
1.077368e+003, 1.006371e+004
1.077850e+003, 1.007369e+004
1.078332e+003, 1.007778e+004
1.078814e+003, 1.008057e+004
1.079297e+003, 1.008603e+004
1.079779e+003, 1.009181e+004
1.080261e+003, 1.009325e+004
1.080743e+003, 1.009147e+004
1.081225e+003, 1.009354e+004
1.081707e+003, 1.010339e+004
1.082189e+003, 1.011192e+004
1.082671e+003, 1.011399e+004
1.083153e+003, 1.011444e+004
1.083635e+003, 1.011447e+004
1.084118e+003, 1.011600e+004
1.084600e+003, 1.012264e+004
1.085082e+003, 1.013260e+004
1.085564e+003, 1.013958e+004
1.086046e+003, 1.014144e+004
1.086528e+003, 1.014250e+004
1.087010e+003, 1.014409e+004
1.087492e+003, 1.014606e+004
1.087975e+003, 1.014770e+004
1.088457e+003, 1.015024e+004
1.088939e+003, 1.015647e+004
1.089421e+003, 1.016437e+004
1.089903e+003, 1.016859e+004
1.090385e+003, 1.016760e+004
1.090867e+003, 1.016716e+004
1.091349e+003, 1.017010e+004
1.091832e+003, 1.017323e+004
1.092314e+003, 1.017348e+004
1.092796e+003, 1.017475e+004
1.093278e+003, 1.018050e+004
1.093760e+003, 1.018970e+004
1.094242e+003, 1.020169e+004
1.094724e+003, 1.021610e+004
1.095206e+003, 1.022470e+004
1.095688e+003, 1.021580e+004
1.096171e+003, 1.021314e+004
1.096653e+003, 1.023312e+004
1.097135e+003, 1.025365e+004
1.097617e+003, 1.025813e+004
1.098099e+003, 1.025396e+004
1.098581e+003, 1.025309e+004
1.099063e+003, 1.025656e+004
1.099545e+003, 1.025887e+004
1.100027e+003, 1.025603e+004
1.100510e+003, 1.025644e+004
1.100992e+003, 1.026526e+004
1.101474e+003, 1.027438e+004
1.101956e+003, 1.027917e+004
1.102438e+003, 1.028198e+004
1.102920e+003, 1.028486e+004
1.103402e+003, 1.028838e+004
1.103884e+003, 1.029448e+004
1.104367e+003, 1.030602e+004
1.104849e+003, 1.031375e+004
1.105331e+003, 1.031331e+004
1.105813e+003, 1.031227e+004
1.106295e+003, 1.031118e+004
1.106777e+003, 1.031279e+004
1.107259e+003, 1.032141e+004
1.107741e+003, 1.033444e+004
1.108224e+003, 1.034462e+004
1.108706e+003, 1.035141e+004
1.109188e+003, 1.035508e+004
1.109670e+003, 1.035455e+004
1.110152e+003, 1.035246e+004
1.110634e+003, 1.034504e+004
1.111116e+003, 1.034068e+004
1.111598e+003, 1.034727e+004
1.112080e+003, 1.035984e+004
1.112563e+003, 1.036980e+004
1.113045e+003, 1.037732e+004
1.113527e+003, 1.037968e+004
1.114009e+003, 1.037027e+004
1.114491e+003, 1.036668e+004
1.114973e+003, 1.037621e+004
1.115455e+003, 1.038432e+004
1.115937e+003, 1.038029e+004
1.116419e+003, 1.037467e+004
1.116902e+003, 1.038276e+004
1.117384e+003, 1.040301e+004
1.117866e+003, 1.041633e+004
1.118348e+003, 1.041875e+004
1.118830e+003, 1.042348e+004
1.119312e+003, 1.043154e+004
1.119794e+003, 1.044087e+004
1.120276e+003, 1.045231e+004
1.120759e+003, 1.046201e+004
1.121241e+003, 1.046557e+004
1.121723e+003, 1.046485e+004
1.122205e+003, 1.046638e+004
1.122687e+003, 1.046997e+004
1.123169e+003, 1.047683e+004
1.123651e+003, 1.048853e+004
1.124133e+003, 1.049823e+004
1.124615e+003, 1.050439e+004
1.125098e+003, 1.050733e+004
1.125580e+003, 1.050610e+004
1.126062e+003, 1.050418e+004
1.126544e+003, 1.050839e+004
1.127026e+003, 1.051865e+004
1.127508e+003, 1.053243e+004
1.127990e+003, 1.055082e+004
1.128472e+003, 1.056327e+004
1.128954e+003, 1.056771e+004
1.129437e+003, 1.056933e+004
1.129919e+003, 1.057026e+004
1.130401e+003, 1.057188e+004
1.130883e+003, 1.057582e+004
1.131365e+003, 1.058209e+004
1.131847e+003, 1.059203e+004
1.132329e+003, 1.060527e+004
1.132811e+003, 1.061451e+004
1.133294e+003, 1.061919e+004
1.133776e+003, 1.061831e+004
1.134258e+003, 1.061151e+004
1.134740e+003, 1.061057e+004
1.135222e+003, 1.062670e+004
1.135704e+003, 1.064917e+004
1.136186e+003, 1.065433e+004
1.136668e+003, 1.064781e+004
1.137151e+003, 1.065409e+004
1.137633e+003, 1.067039e+004
1.138115e+003, 1.067901e+004
1.138597e+003, 1.067715e+004
1.139079e+003, 1.067426e+004
1.139561e+003, 1.067552e+004
1.140043e+003, 1.067937e+004
1.140525e+003, 1.068326e+004
1.141007e+003, 1.068890e+004
1.141490e+003, 1.070170e+004
1.141972e+003, 1.071784e+004
1.142454e+003, 1.072774e+004
1.142936e+003, 1.073241e+004
1.143418e+003, 1.074078e+004
1.143900e+003, 1.075512e+004
1.144382e+003, 1.076603e+004
1.144864e+003, 1.076423e+004
1.145346e+003, 1.076006e+004
1.145829e+003, 1.076497e+004
1.146311e+003, 1.077367e+004
1.146793e+003, 1.078003e+004
1.147275e+003, 1.078466e+004
1.147757e+003, 1.078928e+004
1.148239e+003, 1.079458e+004
1.148721e+003, 1.080168e+004
1.149203e+003, 1.081182e+004
1.149686e+003, 1.082080e+004
1.150168e+003, 1.082614e+004
1.150650e+003, 1.082932e+004
1.151132e+003, 1.082951e+004
1.151614e+003, 1.082978e+004
1.152096e+003, 1.083332e+004
1.152578e+003, 1.083987e+004
1.153060e+003, 1.084841e+004
1.153542e+003, 1.085874e+004
1.154025e+003, 1.086829e+004
1.154507e+003, 1.087630e+004
1.154989e+003, 1.088306e+004
1.155471e+003, 1.088714e+004
1.155953e+003, 1.089142e+004
1.156435e+003, 1.089723e+004
1.156917e+003, 1.090463e+004
1.157399e+003, 1.091352e+004
1.157881e+003, 1.092384e+004
1.158364e+003, 1.093591e+004
1.158846e+003, 1.095222e+004
1.159328e+003, 1.096549e+004
1.159810e+003, 1.097699e+004
1.160292e+003, 1.098285e+004
1.160774e+003, 1.097660e+004
1.161256e+003, 1.097036e+004
1.161738e+003, 1.097419e+004
1.162221e+003, 1.098483e+004
1.162703e+003, 1.099511e+004
1.163185e+003, 1.100565e+004
1.163667e+003, 1.101039e+004
1.164149e+003, 1.100586e+004
1.164631e+003, 1.100590e+004
1.165113e+003, 1.101334e+004
1.165595e+003, 1.102361e+004
1.166078e+003, 1.103525e+004
1.166560e+003, 1.104680e+004
1.167042e+003, 1.105662e+004
1.167524e+003, 1.106476e+004
1.168006e+003, 1.107096e+004
1.168488e+003, 1.107508e+004
1.168970e+003, 1.108221e+004
1.169452e+003, 1.109278e+004
1.169934e+003, 1.109980e+004
1.170417e+003, 1.110119e+004
1.170899e+003, 1.110281e+004
1.171381e+003, 1.110917e+004
1.171863e+003, 1.111679e+004
1.172345e+003, 1.111780e+004
1.172827e+003, 1.111559e+004
1.173309e+003, 1.112377e+004
1.173791e+003, 1.113959e+004
1.174273e+003, 1.115248e+004
1.174756e+003, 1.116150e+004
1.175238e+003, 1.117185e+004
1.175720e+003, 1.118528e+004
1.176202e+003, 1.119561e+004
1.176684e+003, 1.119599e+004
1.177166e+003, 1.119362e+004
1.177648e+003, 1.119839e+004
1.178130e+003, 1.120563e+004
1.178613e+003, 1.120628e+004
1.179095e+003, 1.120483e+004
1.179577e+003, 1.121434e+004
1.180059e+003, 1.123312e+004
1.180541e+003, 1.124283e+004
1.181023e+003, 1.123355e+004
1.181505e+003, 1.122752e+004
1.181987e+003, 1.124429e+004
1.182469e+003, 1.126172e+004
1.182952e+003, 1.126303e+004
1.183434e+003, 1.125970e+004
1.183916e+003, 1.126303e+004
1.184398e+003, 1.127091e+004
1.184880e+003, 1.127642e+004
1.185362e+003, 1.127873e+004
1.185844e+003, 1.128512e+004
1.186326e+003, 1.130080e+004
1.186808e+003, 1.131504e+004
1.187291e+003, 1.132634e+004
1.187773e+003, 1.133533e+004
1.188255e+003, 1.134283e+004
1.188737e+003, 1.134760e+004
1.189219e+003, 1.134637e+004
1.189701e+003, 1.134201e+004
1.190183e+003, 1.134410e+004
1.190665e+003, 1.135496e+004
1.191148e+003, 1.135943e+004
1.191630e+003, 1.135223e+004
1.192112e+003, 1.135441e+004
1.192594e+003, 1.137251e+004
1.193076e+003, 1.139183e+004
1.193558e+003, 1.140534e+004
1.194040e+003, 1.141476e+004
1.194522e+003, 1.142204e+004
1.195005e+003, 1.142714e+004
1.195487e+003, 1.142883e+004
1.195969e+003, 1.142735e+004
1.196451e+003, 1.142949e+004
1.196933e+003, 1.143556e+004
1.197415e+003, 1.144476e+004
1.197897e+003, 1.145678e+004
1.198379e+003, 1.146993e+004
1.198861e+003, 1.148346e+004
1.199344e+003, 1.149478e+004
1.199826e+003, 1.149961e+004
1.200308e+003, 1.150040e+004
1.200790e+003, 1.150156e+004
1.201272e+003, 1.150298e+004
1.201754e+003, 1.150349e+004
1.202236e+003, 1.150419e+004
1.202718e+003, 1.150901e+004
1.203200e+003, 1.151856e+004
1.203683e+003, 1.152783e+004
1.204165e+003, 1.153271e+004
1.204647e+003, 1.153979e+004
1.205129e+003, 1.155820e+004
1.205611e+003, 1.157662e+004
1.206093e+003, 1.158583e+004
1.206575e+003, 1.158894e+004
1.207057e+003, 1.158763e+004
1.207540e+003, 1.158463e+004
1.208022e+003, 1.158525e+004
1.208504e+003, 1.159061e+004
1.208986e+003, 1.159857e+004
1.209468e+003, 1.161164e+004
1.209950e+003, 1.162275e+004
1.210432e+003, 1.163125e+004
1.210914e+003, 1.163637e+004
1.211396e+003, 1.163387e+004
1.211879e+003, 1.163106e+004
1.212361e+003, 1.163589e+004
1.212843e+003, 1.164677e+004
1.213325e+003, 1.165769e+004
1.213807e+003, 1.166958e+004
1.214289e+003, 1.167645e+004
1.214771e+003, 1.167685e+004
1.215253e+003, 1.167807e+004
1.215735e+003, 1.168132e+004
1.216218e+003, 1.168708e+004
1.216700e+003, 1.169610e+004
1.217182e+003, 1.170516e+004
1.217664e+003, 1.170976e+004
1.218146e+003, 1.171206e+004
1.218628e+003, 1.171974e+004
1.219110e+003, 1.173138e+004
1.219592e+003, 1.173997e+004
1.220075e+003, 1.174536e+004
1.220557e+003, 1.174835e+004
1.221039e+003, 1.174986e+004
1.221521e+003, 1.175415e+004
1.222003e+003, 1.176365e+004
1.222485e+003, 1.177473e+004
1.222967e+003, 1.178379e+004
1.223449e+003, 1.179247e+004
1.223932e+003, 1.180460e+004
1.224414e+003, 1.181603e+004
1.224896e+003, 1.181935e+004
1.225378e+003, 1.181842e+004
1.225860e+003, 1.182244e+004
1.226342e+003, 1.183191e+004
1.226824e+003, 1.183777e+004
1.227306e+003, 1.183378e+004
1.227788e+003, 1.183507e+004
1.228271e+003, 1.185303e+004
1.228753e+003, 1.186910e+004
1.229235e+003, 1.187338e+004
1.229717e+003, 1.187445e+004
1.230199e+003, 1.187860e+004
1.230681e+003, 1.188444e+004
1.231163e+003, 1.188803e+004
1.231645e+003, 1.188951e+004
1.232127e+003, 1.189845e+004
1.232610e+003, 1.191954e+004
1.233092e+003, 1.193305e+004
1.233574e+003, 1.193599e+004
1.234056e+003, 1.193929e+004
1.234538e+003, 1.194682e+004
1.235020e+003, 1.195295e+004
1.235502e+003, 1.195327e+004
1.235984e+003, 1.195096e+004
1.236467e+003, 1.195080e+004
1.236949e+003, 1.195303e+004
1.237431e+003, 1.195860e+004
1.237913e+003, 1.196732e+004
1.238395e+003, 1.197975e+004
1.238877e+003, 1.199447e+004
1.239359e+003, 1.200477e+004
1.239841e+003, 1.200920e+004
1.240323e+003, 1.201374e+004
1.240806e+003, 1.202246e+004
1.241288e+003, 1.203098e+004
1.241770e+003, 1.203230e+004
1.242252e+003, 1.203422e+004
1.242734e+003, 1.204641e+004
1.243216e+003, 1.206222e+004
1.243698e+003, 1.207563e+004
1.244180e+003, 1.208478e+004
1.244662e+003, 1.208542e+004
1.245145e+003, 1.207802e+004
1.245627e+003, 1.207680e+004
1.246109e+003, 1.208966e+004
1.246591e+003, 1.210134e+004
1.247073e+003, 1.210904e+004
1.247555e+003, 1.211570e+004
1.248037e+003, 1.212367e+004
1.248519e+003, 1.212925e+004
1.249002e+003, 1.212845e+004
1.249484e+003, 1.212487e+004
1.249966e+003, 1.212421e+004
1.250448e+003, 1.212675e+004
1.250930e+003, 1.213820e+004
1.251412e+003, 1.215955e+004
1.251894e+003, 1.217931e+004
1.252376e+003, 1.219671e+004
1.252859e+003, 1.220995e+004
1.253341e+003, 1.221844e+004
1.253823e+003, 1.222683e+004
1.254305e+003, 1.223845e+004
1.254787e+003, 1.224937e+004
1.255269e+003, 1.225150e+004
1.255751e+003, 1.225120e+004
1.256233e+003, 1.226145e+004
1.256715e+003, 1.227745e+004
1.257198e+003, 1.229365e+004
1.257680e+003, 1.230673e+004
1.258162e+003, 1.230806e+004
1.258644e+003, 1.229920e+004
1.259126e+003, 1.229786e+004
1.259608e+003, 1.231317e+004
1.260090e+003, 1.233061e+004
1.260572e+003, 1.234702e+004
1.261054e+003, 1.235942e+004
1.261537e+003, 1.236468e+004
1.262019e+003, 1.236718e+004
1.262501e+003, 1.236806e+004
1.262983e+003, 1.236979e+004
1.263465e+003, 1.237594e+004
1.263947e+003, 1.238622e+004
1.264429e+003, 1.239876e+004
1.264911e+003, 1.241518e+004
1.265394e+003, 1.242780e+004
1.265876e+003, 1.243592e+004
1.266358e+003, 1.244223e+004
1.266840e+003, 1.244650e+004
1.267322e+003, 1.245506e+004
1.267804e+003, 1.247184e+004
1.268286e+003, 1.249031e+004
1.268768e+003, 1.250276e+004
1.269250e+003, 1.251066e+004
1.269733e+003, 1.251526e+004
1.270215e+003, 1.251889e+004
1.270697e+003, 1.252951e+004
1.271179e+003, 1.254370e+004
1.271661e+003, 1.254965e+004
1.272143e+003, 1.254853e+004
1.272625e+003, 1.255428e+004
1.273107e+003, 1.257213e+004
1.273589e+003, 1.258737e+004
1.274072e+003, 1.258905e+004
1.274554e+003, 1.258897e+004
1.275036e+003, 1.259199e+004
1.275518e+003, 1.259631e+004
1.276000e+003, 1.260166e+004
1.276482e+003, 1.260659e+004
1.276964e+003, 1.260965e+004
1.277446e+003, 1.261267e+004
1.277929e+003, 1.261635e+004
1.278411e+003, 1.262050e+004
1.278893e+003, 1.262833e+004
1.279375e+003, 1.264168e+004
1.279857e+003, 1.265308e+004
1.280339e+003, 1.266189e+004
1.280821e+003, 1.266869e+004
1.281303e+003, 1.267425e+004
1.281786e+003, 1.268363e+004
1.282268e+003, 1.269917e+004
##END=



