##NAMES=Krupkaite
##RRUFFID=R100098
##IDEAL CHEMISTRY=Cu^1+^Pb^2+^Bi^3+^_3_S^2-^_6_
##LOCALITY=Julcani District, Peru
##OWNER=RRUFF
##SOURCE=Peter Megaw
##DESCRIPTION=Bladed steel-gray metallic crystals with blue irridescence
##STATUS=The identification of this mineral has been confirmed only by single crystal X-ray diffraction.
##URL=rruff.info/R100098
117.5675, 0.0000000E+00
118.0496, 0.2227470
118.5317, 1.212809
119.0139, 1.819208
119.4960, 1.616371
119.9781, 1.370128
120.4602, 1.166787
120.9423, 1.050384
121.4244, 0.9951930
121.9066, 1.047894
122.3887, 1.232419
122.8708, 1.251990
123.3529, 1.135988
123.8350, 1.049053
124.3171, 1.005933
124.7993, 1.239009
125.2814, 1.564042
125.7635, 1.814413
126.2456, 1.978749
126.7277, 2.031971
127.2098, 2.027394
127.6920, 1.880684
128.1741, 1.414539
128.6562, 0.5180890
129.1383, 0.3319560
129.6204, 0.3626550
130.1025, 0.3264980
130.5847, 0.8973400
131.0668, 0.8379980
131.5489, 0.3542490
132.0310, 0.2063790
132.5131, 0.8426780
132.9952, 1.558350
133.4774, 1.758818
133.9595, 1.450579
134.4416, 0.9908690
134.9237, 0.6845040
135.4058, 0.5513790
135.8879, 0.4301070
136.3701, 0.1577970
136.8522, 2.5094001E-02
137.3343, 0.1009220
137.8164, 0.5779890
138.2985, 1.169115
138.7806, 1.461677
139.2628, 1.264471
139.7449, 1.095768
140.2270, 1.065607
140.7091, 1.056255
141.1912, 0.9327930
141.6733, 0.6356070
142.1555, 0.2431680
142.6376, 3.0502001E-02
143.1197, 9.4508998E-02
143.6018, 0.2472760
144.0839, 0.5940540
144.5660, 1.005385
145.0482, 1.287889
145.5303, 1.327121
146.0124, 1.140950
146.4945, 0.8645730
146.9766, 0.2531350
147.4587, 0.1937480
147.9409, 0.1236760
148.4230, 0.3589330
148.9051, 0.7589410
149.3872, 0.6877730
149.8693, 0.2244360
150.3514, 3.4263998E-02
150.8336, 1.0693000E-02
151.3157, 0.1785990
151.7978, 0.5043370
152.2799, 0.9982210
152.7620, 1.402864
153.2441, 1.455798
153.7263, 1.287266
154.2084, 1.085235
154.6905, 0.8917500
155.1726, 0.7093960
155.6547, 0.5377580
156.1368, 0.3628570
156.6190, 0.2570290
157.1011, 0.1410460
157.5832, 7.3532000E-02
158.0653, 0.1320170
158.5474, 0.4379560
159.0295, 0.9617430
159.5117, 1.308803
159.9938, 1.414584
160.4759, 1.379897
160.9580, 1.127141
161.4401, 0.7462710
161.9222, 0.4444710
162.4044, 0.4459410
162.8865, 0.8337690
163.3686, 1.033582
163.8507, 0.9293800
164.3328, 0.7549010
164.8149, 0.5722340
165.2971, 0.4050370
165.7792, 0.2752200
166.2613, 0.2104810
166.7434, 0.2379700
167.2255, 0.2596860
167.7076, 0.1944370
168.1898, 0.1767890
168.6719, 0.3701730
169.1540, 0.7864230
169.6361, 1.214299
170.1182, 1.346833
170.6003, 1.044139
171.0825, 0.7703680
171.5646, 0.5041780
172.0467, 0.2923060
172.5288, 0.2090550
173.0109, 0.2852720
173.4930, 0.4347520
173.9752, 0.5168800
174.4573, 0.5248060
174.9394, 0.5444530
175.4215, 0.5511540
175.9036, 0.5901570
176.3857, 0.7909930
176.8679, 1.288428
177.3500, 1.806738
177.8321, 1.987198
178.3142, 1.823608
178.7963, 1.536445
179.2784, 1.160454
179.7606, 0.7214160
180.2427, 0.4685510
180.7248, 0.5993340
181.2069, 0.8358690
181.6890, 0.9261720
182.1711, 0.8492290
182.6533, 0.7335560
183.1354, 0.7096390
183.6175, 0.7922100
184.0996, 0.8497600
184.5817, 0.8652790
185.0638, 0.8363710
185.5460, 0.7059750
186.0281, 0.4695400
186.5102, 0.2675460
186.9923, 0.3259780
187.4744, 0.8513650
187.9565, 1.190213
188.4387, 1.073334
188.9208, 0.8412130
189.4029, 0.7566510
189.8850, 0.8941510
190.3671, 1.108377
190.8492, 1.107336
191.3314, 0.6704620
191.8135, 0.3735840
192.2956, 0.3205390
192.7777, 0.3706940
193.2598, 0.4255300
193.7419, 0.4429350
194.2241, 0.4083190
194.7062, 0.2836780
195.1883, 0.2667940
195.6704, 0.4947600
196.1525, 6.9408998E-02
196.6346, 0.5856690
197.1168, 0.9326470
197.5989, 0.7271960
198.0810, 0.1988470
198.5631, 2.0124000E-02
199.0452, 0.5737920
199.5273, 0.9481860
200.0095, 0.8447480
200.4916, 0.4900900
200.9737, 0.2763140
201.4558, 0.4027270
201.9379, 0.7232680
202.4200, 0.7911560
202.9022, 0.4042140
203.3843, 0.1613290
203.8664, 0.4288020
204.3485, 1.025862
204.8306, 1.439637
205.3127, 1.404024
205.7949, 1.094106
206.2770, 0.8902880
206.7591, 0.7940530
207.2412, 0.7703600
207.7233, 0.8110430
208.2054, 0.9118090
208.6876, 1.052175
209.1697, 1.235145
209.6518, 1.448074
210.1339, 1.714545
210.6160, 2.107208
211.0981, 2.342507
211.5803, 2.019729
212.0624, 1.136972
212.5445, 0.5353600
213.0266, 0.7315580
213.5087, 1.230226
213.9908, 1.602920
214.4730, 1.788835
214.9551, 1.840390
215.4372, 1.771569
215.9193, 1.556632
216.4014, 1.379906
216.8836, 1.269633
217.3657, 1.233166
217.8478, 1.330853
218.3299, 1.580716
218.8120, 1.828229
219.2941, 1.827226
219.7763, 1.479247
220.2584, 1.207689
220.7405, 1.117243
221.2226, 1.104988
221.7047, 1.114923
222.1868, 1.129971
222.6690, 1.150105
223.1511, 1.168598
223.6332, 1.160943
224.1153, 1.213132
224.5974, 1.451419
225.0795, 1.669971
225.5617, 1.679252
226.0438, 1.439222
226.5259, 1.103466
227.0080, 0.9278320
227.4901, 0.9249090
227.9722, 1.092058
228.4544, 1.789646
228.9365, 2.426040
229.4186, 2.335535
229.9007, 1.400254
230.3828, 0.2307150
230.8649, 7.8759998E-02
231.3471, 1.355871
231.8292, 2.258574
232.3113, 2.392540
232.7934, 2.186046
233.2755, 1.947951
233.7576, 1.775734
234.2398, 1.618664
234.7219, 1.382487
235.2040, 0.8619490
235.6861, 0.6804670
236.1682, 1.126354
236.6503, 1.718994
237.1325, 2.005485
237.6146, 1.874569
238.0967, 1.570719
238.5788, 1.445458
239.0609, 1.560737
239.5430, 1.745784
240.0252, 2.114430
240.5073, 2.493029
240.9894, 2.694956
241.4715, 2.675464
241.9536, 2.543621
242.4357, 2.438452
242.9179, 2.374824
243.4000, 2.269758
243.8821, 1.971974
244.3642, 1.695732
244.8463, 1.783080
245.3284, 2.323563
245.8106, 2.856722
246.2927, 2.703194
246.7748, 1.805566
247.2569, 1.251417
247.7390, 1.479101
248.2211, 2.009872
248.7033, 2.234577
249.1854, 2.033175
249.6675, 1.767295
250.1496, 1.843295
250.6317, 2.206684
251.1138, 2.490285
251.5960, 2.595299
252.0781, 2.580390
252.5602, 2.523072
253.0423, 2.421962
253.5244, 2.306964
254.0065, 2.234770
254.4887, 2.182146
254.9708, 2.114700
255.4529, 1.976493
255.9350, 1.837955
256.4171, 1.823116
256.8992, 1.963298
257.3813, 2.099654
257.8635, 2.096005
258.3456, 2.012284
258.8277, 1.948439
259.3098, 2.041114
259.7919, 2.105087
260.2740, 1.772705
260.7562, 0.9198050
261.2383, 0.2060030
261.7204, 0.1156160
262.2025, 0.3672250
262.6846, 0.6682440
263.1667, 0.9836030
263.6489, 1.254216
264.1310, 1.381777
264.6131, 1.340077
265.0952, 1.268921
265.5773, 1.220033
266.0594, 1.212300
266.5416, 1.197614
267.0237, 1.118565
267.5058, 1.041384
267.9879, 1.010134
268.4700, 1.035676
268.9521, 1.057748
269.4343, 1.097103
269.9164, 1.102317
270.3985, 0.9872900
270.8806, 0.7174560
271.3627, 0.4677530
271.8448, 0.5277030
272.3270, 0.9869180
272.8091, 1.272348
273.2912, 1.058696
273.7733, 0.7606400
274.2554, 0.6388000
274.7375, 0.7339520
275.2197, 0.8848020
275.7018, 0.9043740
276.1839, 0.7696940
276.6660, 0.6537530
277.1481, 0.5912420
277.6302, 0.5494370
278.1124, 0.4512050
278.5945, 0.3292190
279.0766, 0.3522430
279.5587, 0.8323130
280.0408, 1.871115
280.5229, 2.456397
281.0051, 2.149320
281.4872, 1.686584
281.9693, 1.269970
282.4514, 0.9477720
282.9335, 0.7585430
283.4156, 0.8085050
283.8978, 1.107686
284.3799, 1.167240
284.8620, 0.7221590
285.3441, 0.2889140
285.8262, 3.3968002E-02
286.3083, 0.2027630
286.7905, 0.1503060
287.2726, 0.2555650
287.7547, 0.9512920
288.2368, 1.253001
288.7189, 0.7478000
289.2010, 0.3181540
289.6832, 0.2284610
290.1653, 0.3604280
290.6474, 0.5478130
291.1295, 0.7177590
291.6116, 0.8352060
292.0938, 0.7308460
292.5759, 0.1399730
293.0580, 0.2911720
293.5401, 0.3821090
294.0222, 0.2832450
294.5043, 0.1494690
294.9865, 4.8298001E-02
295.4686, 3.1757001E-02
295.9507, 0.1254880
296.4328, 0.2875330
296.9149, 0.3582450
297.3970, 0.2376060
297.8792, 7.6944001E-02
298.3613, 1.4570000E-03
298.8434, 4.1069999E-02
299.3255, 0.1745500
299.8076, 0.3698540
300.2897, 0.6938090
300.7719, 0.9048690
301.2540, 1.039301
301.7361, 1.050613
302.2182, 0.8121050
302.7003, 0.3547660
303.1824, 7.9190999E-02
303.6646, 0.1658740
304.1467, 0.2255300
304.6288, 0.4934150
305.1109, 0.6020710
305.5930, 0.6293950
306.0751, 0.5826500
306.5573, 0.4796190
307.0394, 0.3506730
307.5215, 0.2112430
308.0036, 5.4299999E-02
308.4857, 1.7574999E-02
308.9678, 7.9348996E-02
309.4500, 2.5446000E-02
309.9321, 0.5448580
310.4142, 1.267450
310.8963, 1.795681
311.3784, 1.840938
311.8605, 1.432283
312.3427, 1.098388
312.8248, 0.8860810
313.3069, 0.7198480
313.7890, 0.5716950
314.2711, 0.4719530
314.7532, 0.4882740
315.2354, 0.6617580
315.7175, 0.9079210
316.1996, 0.9709980
316.6817, 0.6934830
317.1638, 0.4754550
317.6459, 0.3316500
318.1281, 0.2742030
318.6102, 0.3348700
319.0923, 0.5176620
319.5744, 0.7648390
320.0565, 0.9981710
320.5386, 1.210009
321.0208, 1.370341
321.5029, 1.661950
321.9850, 1.785180
322.4671, 1.364661
322.9492, 0.4671550
323.4313, 0.3584010
323.9135, 0.4493410
324.3956, 0.3866720
324.8777, 0.9873150
325.3598, 1.292443
325.8419, 1.419192
326.3240, 1.330308
326.8062, 1.087399
327.2883, 0.8238730
327.7704, 0.6438090
328.2525, 0.5401790
328.7346, 0.3991780
329.2167, 4.6268001E-02
329.6989, 0.1352990
330.1810, 5.9073001E-02
330.6631, 0.4549270
331.1452, 0.7998600
331.6273, 0.9588710
332.1094, 0.9781990
332.5916, 1.010571
333.0737, 1.142112
333.5558, 1.126939
334.0379, 0.6319770
334.5200, 0.1417710
335.0021, 0.2177520
335.4843, 1.024004
335.9664, 2.078752
336.4485, 2.597074
336.9306, 2.425398
337.4127, 2.167986
337.8948, 1.768291
338.3770, 1.390108
338.8591, 1.113016
339.3412, 0.9513190
339.8233, 0.8969980
340.3055, 0.9841240
340.7876, 1.236198
341.2697, 1.390801
341.7518, 1.464610
342.2339, 1.407146
342.7160, 1.054448
343.1982, 0.5470700
343.6803, 0.2062330
344.1624, 0.2793650
344.6445, 0.6962490
345.1266, 1.060746
345.6087, 1.379528
346.0909, 1.524824
346.5730, 1.347319
347.0551, 1.045926
347.5372, 0.8926540
348.0193, 1.021434
348.5014, 1.260016
348.9836, 1.245812
349.4657, 0.8509110
349.9478, 0.6353510
350.4299, 1.005443
350.9120, 1.433901
351.3941, 1.504334
351.8763, 1.156801
352.3584, 0.7630000
352.8405, 0.7229170
353.3226, 1.043059
353.8047, 1.348914
354.2868, 1.704541
354.7690, 1.904818
355.2511, 1.764839
355.7332, 1.345478
356.2153, 0.9090150
356.6974, 0.5389910
357.1795, 0.3027460
357.6617, 0.4100880
358.1438, 1.008436
358.6259, 1.519975
359.1080, 1.548316
359.5901, 1.322733
360.0722, 1.221215
360.5544, 1.472887
361.0365, 1.789205
361.5186, 1.697997
362.0007, 1.150798
362.4828, 0.7353960
362.9649, 0.7975120
363.4471, 1.066234
363.9292, 1.243200
364.4113, 1.292759
364.8934, 1.277560
365.3755, 1.218844
365.8576, 1.125854
366.3398, 1.082488
366.8219, 1.203608
367.3040, 1.259712
367.7861, 0.8029080
368.2682, 9.1867998E-02
368.7503, 0.7270270
369.2325, 0.7117520
369.7146, 0.2959040
370.1967, 0.1577300
370.6788, 0.6450680
371.1609, 1.000807
371.6430, 1.012832
372.1252, 0.7784950
372.6073, 0.6269860
373.0894, 0.5583640
373.5715, 0.6202650
374.0536, 0.9361690
374.5357, 1.457887
375.0179, 1.935010
375.5000, 2.317384
375.9821, 2.496535
376.4642, 2.161031
376.9463, 0.9756650
377.4284, 0.1438570
377.9106, 0.2850260
378.3927, 0.9985140
378.8748, 1.608348
379.3569, 1.949685
379.8390, 2.043267
380.3211, 1.839693
380.8033, 1.266523
381.2854, 0.8549460
381.7675, 0.6910040
382.2496, 0.7775190
382.7317, 1.234795
383.2138, 1.970366
383.6960, 2.420788
384.1781, 2.076365
384.6602, 1.021738
385.1423, 0.5184130
385.6244, 0.9585330
386.1065, 1.397957
386.5887, 1.518733
387.0708, 1.422394
387.5529, 1.321349
388.0350, 1.333959
388.5171, 1.381762
388.9992, 1.283381
389.4814, 0.8542330
389.9635, 0.5580750
390.4456, 0.4580290
390.9277, 0.4463020
391.4098, 0.4419410
391.8919, 0.4307000
392.3741, 0.4319480
392.8562, 0.4816230
393.3383, 0.5825920
393.8204, 0.7400790
394.3025, 1.165319
394.7846, 1.426543
395.2668, 1.144201
395.7489, 0.6140480
396.2310, 0.4462300
396.7131, 1.039496
397.1952, 2.087141
397.6773, 2.498675
398.1595, 1.831852
398.6416, 1.233200
399.1237, 0.7860770
399.6058, 0.4986520
400.0879, 0.4543780
400.5700, 0.6416970
401.0522, 0.8355180
401.5343, 0.6856110
402.0164, 9.7347997E-02
402.4985, 0.2026680
402.9806, 2.6803000E-02
403.4627, 0.3519090
403.9449, 0.6412770
404.4270, 0.8778910
404.9091, 1.057873
405.3912, 1.178130
405.8733, 1.240405
406.3554, 1.245421
406.8376, 1.182624
407.3197, 1.087680
407.8018, 0.8560660
408.2839, 0.6541690
408.7660, 0.7195440
409.2481, 1.160154
409.7303, 1.590744
410.2124, 1.565667
410.6945, 1.116406
411.1766, 0.7305760
411.6587, 0.4743420
412.1408, 0.3658540
412.6230, 0.5362280
413.1051, 0.9266510
413.5872, 1.071550
414.0693, 0.4842100
414.5514, 0.3620070
415.0335, 0.6634420
415.5157, 0.3337620
415.9978, 0.1379000
416.4799, 0.4886790
416.9620, 0.7297460
417.4441, 0.9238920
417.9262, 1.093532
418.4084, 1.189543
418.8905, 1.144073
419.3726, 1.001748
419.8547, 0.8708040
420.3368, 0.7830270
420.8189, 0.7371690
421.3011, 0.7445120
421.7832, 0.8270910
422.2653, 0.8652280
422.7474, 0.8868700
423.2295, 0.8315150
423.7116, 0.5163610
424.1938, 1.4580000E-03
424.6759, 0.2981670
425.1580, 7.1109999E-03
425.6401, 0.8277180
426.1222, 1.313102
426.6043, 1.266633
427.0865, 1.143431
427.5686, 0.9505510
428.0507, 0.8052710
428.5328, 0.8943770
429.0149, 1.281038
429.4970, 1.762600
429.9792, 1.988495
430.4613, 1.886268
430.9434, 1.664967
431.4255, 1.107892
431.9076, 0.6414300
432.3897, 0.6422450
432.8719, 0.9815960
433.3540, 1.164630
433.8361, 0.7296270
434.3182, 0.1840920
434.8003, 0.5280580
435.2824, 0.1538040
435.7646, 0.7102340
436.2467, 0.8485700
436.7288, 0.7295170
437.2109, 0.4453830
437.6930, 2.0648001E-02
438.1751, 0.3126980
438.6573, 0.1579250
439.1394, 0.5371950
439.6215, 0.9623620
440.1036, 0.7083630
440.5857, 0.4998770
441.0678, 0.9929290
441.5500, 1.977127
442.0321, 2.643509
442.5142, 2.379066
442.9963, 1.621810
443.4784, 1.155894
443.9605, 1.005257
444.4427, 0.9545420
444.9248, 0.9059730
445.4069, 0.8963050
445.8890, 0.9807150
446.3711, 1.174391
446.8532, 1.426502
447.3354, 1.808457
447.8175, 2.216858
448.2996, 2.423910
448.7817, 2.375110
449.2638, 2.141671
449.7459, 1.711251
450.2281, 1.067689
450.7102, 0.7346030
451.1923, 1.039515
451.6744, 1.386101
452.1565, 1.324173
452.6386, 0.9770390
453.1208, 0.7833480
453.6029, 0.9900940
454.0850, 1.432277
454.5671, 1.652929
455.0492, 1.440287
455.5313, 1.282506
456.0135, 1.177505
456.4956, 1.134387
456.9777, 1.177722
457.4598, 1.299305
457.9419, 1.445679
458.4240, 1.556548
458.9062, 1.629700
459.3883, 1.823999
459.8704, 2.457478
460.3525, 2.823059
460.8346, 2.710858
461.3167, 2.305345
461.7989, 1.754013
462.2810, 1.106412
462.7631, 0.5998640
463.2452, 0.7518930
463.7273, 1.749005
464.2094, 2.277871
464.6916, 1.694078
465.1737, 1.047688
465.6558, 0.9666270
466.1379, 1.359752
466.6200, 1.806283
467.1021, 2.166373
467.5843, 2.392170
468.0664, 2.330641
468.5485, 1.940476
469.0306, 1.555158
469.5127, 1.285336
469.9948, 1.136433
470.4770, 1.110356
470.9591, 1.223706
471.4412, 1.398098
471.9233, 1.668312
472.4054, 1.927855
472.8875, 2.003255
473.3697, 1.892225
473.8518, 1.802789
474.3339, 1.929418
474.8160, 2.263751
475.2981, 2.385812
475.7802, 2.111106
476.2624, 1.828139
476.7445, 1.658906
477.2266, 1.605997
477.7087, 1.684745
478.1908, 1.903923
478.6729, 2.171674
479.1551, 2.317695
479.6372, 2.269135
480.1193, 2.267023
480.6014, 2.310529
481.0835, 2.394175
481.5656, 2.585065
482.0478, 2.816484
482.5299, 2.909534
483.0120, 2.785353
483.4941, 2.482454
483.9762, 2.187922
484.4583, 1.812467
484.9405, 1.638608
485.4226, 1.918977
485.9047, 2.270263
486.3868, 2.361618
486.8689, 2.166770
487.3510, 1.952620
487.8332, 1.973356
488.3153, 2.174540
488.7974, 2.273742
489.2795, 2.211679
489.7616, 2.169378
490.2437, 2.338130
490.7259, 2.579462
491.2080, 2.671156
491.6901, 2.543972
492.1722, 2.347276
492.6543, 2.154376
493.1364, 2.015009
493.6186, 1.845439
494.1007, 1.615937
494.5828, 1.411635
495.0649, 1.330632
495.5470, 1.389724
496.0291, 1.483118
496.5113, 1.734617
496.9934, 1.927030
497.4755, 1.818083
497.9576, 1.544067
498.4397, 1.489336
498.9218, 1.853847
499.4040, 2.386625
499.8861, 2.503247
500.3682, 1.823520
500.8503, 1.422511
501.3324, 1.416162
501.8145, 1.552737
502.2967, 1.742610
502.7788, 1.941058
503.2609, 2.104955
503.7430, 2.222868
504.2251, 2.263108
504.7072, 2.040747
505.1894, 1.327795
505.6715, 0.8799620
506.1536, 1.118879
506.6357, 1.540643
507.1178, 1.765579
507.5999, 1.746847
508.0821, 1.671562
508.5642, 1.677671
509.0463, 1.733222
509.5284, 1.843365
510.0105, 2.090822
510.4926, 2.205637
510.9748, 1.895952
511.4569, 1.368807
511.9390, 1.118957
512.4211, 1.327770
512.9032, 1.527995
513.3853, 1.471406
513.8674, 1.257859
514.3495, 1.027930
514.8317, 0.8120290
515.3138, 0.6718320
515.7959, 0.6826340
516.2780, 0.8494320
516.7601, 0.9512170
517.2422, 0.9905070
517.7244, 0.9741030
518.2065, 0.7716310
518.6886, 0.5589070
519.1707, 0.6818890
519.6528, 1.237906
520.1349, 1.832768
520.6171, 1.773770
521.0992, 0.7944350
521.5813, 0.2503760
522.0634, 0.5498280
522.5455, 0.9012300
523.0276, 1.035812
523.5098, 1.014764
523.9919, 0.9833170
524.4740, 1.008401
524.9561, 1.041928
525.4382, 1.018215
525.9203, 0.9369990
526.4025, 0.7996570
526.8846, 0.5332870
527.3667, 0.3111450
527.8488, 0.3389740
528.3309, 0.5771880
528.8130, 0.7776000
529.2952, 0.8057020
529.7773, 0.8126190
530.2594, 0.9901240
530.7415, 1.289050
531.2236, 1.488627
531.7057, 1.498180
532.1879, 1.332048
532.6700, 0.9798380
533.1521, 0.1897480
533.6342, 0.1873800
534.1163, 0.2228470
534.5984, 0.7455720
535.0806, 0.9456220
535.5627, 0.8679260
536.0448, 0.7657700
536.5269, 0.7954300
537.0090, 0.9082530
537.4911, 0.9484220
537.9733, 0.8540520
538.4554, 0.8251090
538.9375, 1.044339
539.4196, 1.202459
539.9017, 0.9797080
540.3839, 0.4749500
540.8660, 0.1638140
541.3481, 0.4978570
541.8302, 1.149354
542.3123, 1.348865
542.7944, 1.046928
543.2766, 0.7161640
543.7587, 0.4607840
544.2408, 0.3433310
544.7229, 0.5103340
545.2050, 1.015149
545.6871, 1.326520
546.1693, 1.094827
546.6514, 0.6824840
547.1335, 0.5196380
547.6156, 0.5939730
548.0977, 0.5600050
548.5798, 0.1530290
549.0620, 0.4233260
549.5441, 0.4896280
550.0262, 0.6718710
550.5083, 1.382012
550.9904, 1.441184
551.4725, 1.192655
551.9547, 0.7375170
552.4368, 0.1967570
552.9189, 0.1867670
553.4010, 0.2155690
553.8831, 3.7627999E-02
554.3652, 0.3209100
554.8474, 0.7267290
555.3295, 0.9355820
555.8116, 0.6029250
556.2937, 0.2107870
556.7758, 0.1322100
557.2579, 0.3830060
557.7401, 0.7116700
558.2222, 1.077540
558.7043, 1.390514
559.1864, 1.487639
559.6685, 1.363444
560.1506, 1.087585
560.6328, 0.5896710
561.1149, 6.1014000E-02
561.5970, 2.1702001E-02
562.0791, 0.4901100
562.5612, 0.8742690
563.0433, 0.9536770
563.5255, 0.8876560
564.0076, 0.8114150
564.4897, 0.7200790
564.9718, 0.4793410
565.4539, 3.4109000E-02
565.9360, 0.6368480
566.4182, 0.6516890
566.9003, 0.5061150
567.3824, 1.141609
567.8645, 0.7685340
568.3466, 0.2171770
568.8287, 7.0327997E-02
569.3109, 6.6014998E-02
569.7930, 0.1379690
570.2751, 0.5981600
570.7572, 1.103088
571.2393, 1.133535
571.7214, 0.6456130
572.2036, 0.2074840
572.6857, 6.5399997E-02
573.1678, 0.1351370
573.6499, 0.1408720
574.1320, 0.7508380
574.6141, 1.153148
575.0963, 0.9659560
575.5784, 0.6965170
576.0605, 0.9175770
576.5426, 1.461022
577.0247, 1.645639
577.5068, 1.123781
577.9890, 0.3345450
578.4711, 0.1293930
578.9532, 0.8698990
579.4353, 1.278762
579.9174, 1.153967
580.3995, 0.9445660
580.8817, 0.8375190
581.3638, 0.8118050
581.8459, 0.7838800
582.3280, 0.7114840
582.8101, 0.6440290
583.2922, 0.6946700
583.7744, 0.8802090
584.2565, 0.9501610
584.7386, 0.7325780
585.2207, 0.5417840
585.7029, 0.6522560
586.1850, 0.9585490
586.6671, 1.200450
587.1492, 1.368796
587.6313, 1.409337
588.1135, 1.157758
588.5956, 0.7448030
589.0777, 0.5125090
589.5598, 0.5595080
590.0419, 0.6616640
590.5240, 0.5491360
591.0062, 0.2034120
591.4883, 8.4577002E-02
591.9704, 0.3259710
592.4525, 0.6152510
592.9346, 0.9135040
593.4167, 1.200794
593.8989, 1.494063
594.3810, 1.779900
594.8631, 1.968993
595.3452, 1.930844
595.8273, 1.689624
596.3094, 1.529329
596.7916, 1.477877
597.2737, 1.442230
597.7558, 1.392276
598.2379, 1.332751
598.7200, 1.258364
599.2021, 1.163974
599.6843, 1.100292
600.1664, 1.184339
600.6485, 1.269631
601.1306, 1.056619
601.6127, 0.5712930
602.0948, 0.2224450
602.5770, 0.2516660
603.0591, 0.5676670
603.5412, 0.9396280
604.0233, 1.624602
604.5054, 1.897650
604.9875, 1.484411
605.4697, 0.9248800
605.9518, 0.4158760
606.4339, 5.5650000E-02
606.9160, 5.3059999E-03
607.3981, 0.4129840
607.8802, 1.033854
608.3624, 1.312985
608.8445, 1.212010
609.3266, 1.044147
609.8087, 0.7199340
610.2908, 0.5225760
610.7729, 0.8777140
611.2551, 1.536456
611.7372, 1.718082
612.2193, 0.8474920
612.7014, 0.1022070
613.1835, 0.4260980
613.6656, 0.3193460
614.1478, 0.1499640
614.6299, 6.4599998E-03
615.1120, 0.1435250
615.5941, 0.3419930
616.0762, 0.5897060
616.5583, 0.7574350
617.0405, 0.7633280
617.5226, 0.7925520
618.0047, 0.9236790
618.4868, 1.062467
618.9689, 1.102768
619.4510, 1.037754
619.9332, 0.9592530
620.4153, 0.9601260
620.8974, 1.003763
621.3795, 0.9314100
621.8616, 0.7083870
622.3438, 0.5562710
622.8259, 0.5778700
623.3080, 0.6934290
623.7901, 0.7835030
624.2722, 0.8817090
624.7543, 0.9627830
625.2365, 0.9727900
625.7186, 0.9310280
626.2007, 0.8059740
626.6828, 0.6387100
627.1649, 0.5623290
627.6470, 0.6356920
628.1292, 0.7576520
628.6113, 0.7538470
629.0934, 0.5611570
629.5755, 0.5072060
630.0576, 0.8095900
630.5397, 1.016681
631.0219, 0.9166980
631.5040, 0.6820760
631.9861, 0.5150280
632.4682, 0.4739460
632.9503, 0.5470020
633.4324, 0.8368670
633.9146, 1.232389
634.3967, 1.321959
634.8788, 1.040245
635.3609, 0.7669480
635.8430, 0.7226220
636.3251, 0.8429880
636.8073, 0.9571120
637.2894, 1.096117
637.7715, 1.160969
638.2536, 1.063739
638.7357, 0.9470840
639.2178, 0.9880470
639.7000, 1.109820
640.1821, 1.043583
640.6642, 0.6276140
641.1463, 7.8119002E-02
641.6284, 0.1481200
642.1105, 1.5282000E-02
642.5927, 0.1581550
643.0748, 0.2945430
643.5569, 0.3397640
644.0390, 0.1851080
644.5211, 7.4689001E-02
645.0032, 0.2551310
645.4854, 0.3238460
645.9675, 0.2811780
646.4496, 6.0070001E-02
646.9317, 0.2524590
647.4138, 0.4682620
647.8959, 0.5693350
648.3781, 0.7425920
648.8602, 1.172704
649.3423, 1.744945
649.8244, 1.895982
650.3065, 1.212108
650.7886, 0.7177160
651.2708, 0.4660890
651.7529, 0.3884580
652.2350, 0.4984270
652.7171, 0.7442120
653.1992, 1.037338
653.6813, 1.377692
654.1635, 1.627316
654.6456, 1.505828
655.1277, 1.046587
655.6098, 0.6355540
656.0919, 0.2925650
656.5740, 0.1709830
657.0562, 0.5226490
657.5383, 1.260731
658.0204, 1.713812
658.5025, 1.823270
658.9846, 1.717628
659.4667, 1.272014
659.9489, 0.7263730
660.4310, 0.2707910
660.9131, 3.2951001E-02
661.3952, 0.1249250
661.8773, 5.6391999E-02
662.3594, 0.4469150
662.8416, 0.8831380
663.3237, 1.449558
663.8058, 1.750297
664.2879, 1.589328
664.7700, 1.258976
665.2521, 0.8563640
665.7343, 0.4531270
666.2164, 0.3067840
666.6985, 0.6128890
667.1806, 1.030587
667.6627, 1.451029
668.1448, 1.778768
668.6270, 1.780519
669.1091, 1.427650
669.5912, 0.9313170
670.0733, 0.4167070
670.5554, 6.1602000E-02
671.0375, 5.9520002E-03
671.5197, 1.288289
672.0018, 2.103309
672.4839, 1.914067
672.9660, 1.439016
673.4481, 1.067055
673.9302, 0.8394850
674.4124, 0.7036120
674.8945, 0.6211440
675.3766, 0.6430840
675.8587, 0.9244280
676.3408, 1.389458
676.8229, 1.667889
677.3051, 1.663233
677.7872, 1.574658
678.2693, 1.565976
678.7514, 1.632102
679.2335, 1.715932
679.7156, 1.904688
680.1978, 1.993158
680.6799, 1.896728
681.1620, 1.730935
681.6441, 1.601482
682.1262, 1.499070
682.6083, 1.334661
683.0905, 1.028056
683.5726, 0.6825120
684.0547, 0.4991030
684.5368, 0.4781910
685.0189, 0.4838210
685.5010, 0.4882500
685.9832, 0.5220420
686.4653, 0.6496460
686.9474, 0.8358840
687.4295, 0.9032600
687.9116, 0.7556430
688.3937, 0.6151690
688.8759, 0.4447600
689.3580, 0.3786320
689.8401, 0.7084140
690.3222, 1.318876
690.8043, 1.661510
691.2864, 1.333808
691.7686, 0.6824470
692.2507, 0.6329850
692.7328, 1.332949
693.2149, 1.662439
693.6970, 1.216640
694.1791, 0.7437900
694.6613, 0.8153810
695.1434, 1.235928
695.6255, 1.592713
696.1076, 1.848810
696.5897, 1.985604
697.0718, 1.933070
697.5540, 1.803745
698.0361, 1.717710
698.5182, 1.681851
699.0003, 1.557125
699.4824, 1.227927
699.9645, 0.8803870
700.4467, 1.007925
700.9288, 1.878666
701.4109, 2.184164
701.8930, 1.392700
702.3751, 0.5732020
702.8572, 0.1815610
703.3394, 0.1416420
703.8215, 0.3885240
704.3036, 1.015099
704.7857, 1.530027
705.2678, 1.565655
705.7499, 1.353300
706.2321, 1.088021
706.7142, 0.8495650
707.1963, 0.9275750
707.6784, 1.509014
708.1605, 2.270035
708.6426, 2.556019
709.1248, 2.239895
709.6069, 1.898352
710.0890, 1.404117
710.5711, 1.037826
711.0532, 0.9718140
711.5353, 1.049807
712.0175, 1.045001
712.4996, 0.9061680
712.9817, 0.8538710
713.4638, 1.152907
713.9459, 1.546481
714.4280, 1.616204
714.9102, 1.418163
715.3923, 1.334018
715.8744, 1.536902
716.3565, 1.811340
716.8386, 1.826654
717.3207, 1.533827
717.8029, 1.340185
718.2850, 1.431539
718.7671, 1.383318
719.2492, 0.7961720
719.7313, 0.2394410
720.2134, 0.4097350
720.6956, 1.301979
721.1777, 2.034524
721.6598, 1.923744
722.1419, 1.483009
722.6240, 1.400004
723.1061, 1.574824
723.5883, 1.583013
724.0704, 1.292405
724.5525, 0.9103180
725.0346, 0.6363670
725.5167, 0.4711790
725.9988, 0.4203650
726.4810, 0.6466200
726.9631, 0.7512040
727.4452, 0.7025330
727.9273, 0.5092810
728.4094, 4.2808000E-02
728.8915, 0.7612590
729.3737, 1.001991
729.8558, 0.2429400
730.3379, 0.7141940
730.8200, 1.017115
731.3021, 0.8551400
731.7842, 0.6201930
732.2664, 0.3782640
732.7485, 0.3033700
733.2306, 0.5542480
733.7127, 1.019776
734.1948, 1.257573
734.6769, 1.152810
735.1591, 1.024218
735.6412, 0.8461050
736.1233, 0.6824210
736.6054, 0.5347250
737.0875, 0.4327790
737.5696, 0.4443900
738.0518, 0.6080900
738.5339, 0.7829630
739.0160, 0.8448270
739.4981, 0.8613090
739.9802, 0.9616090
740.4623, 1.130499
740.9445, 1.254867
741.4266, 1.272783
741.9087, 1.198508
742.3908, 1.048092
742.8729, 0.7952080
743.3550, 0.5764100
743.8372, 0.3513480
744.3193, 0.2134780
744.8014, 0.2464930
745.2835, 0.3446680
745.7656, 0.3736130
746.2477, 0.3221190
746.7299, 0.3306920
747.2120, 0.5851110
747.6941, 0.8586280
748.1762, 0.8541950
748.6583, 0.6321330
749.1404, 0.4506940
749.6226, 0.3820970
750.1047, 0.4368900
750.5868, 0.6671230
751.0689, 1.033254
751.5510, 1.079401
752.0331, 0.5386080
752.5153, 0.1921740
752.9974, 0.3964280
753.4795, 0.6286160
753.9616, 0.4499020
754.4437, 1.6338000E-02
754.9258, 0.1273270
755.4080, 0.3254140
755.8901, 0.8287630
756.3722, 1.030067
756.8543, 1.038723
757.3364, 1.004675
757.8185, 0.9457680
758.3007, 0.8055500
758.7828, 0.5389330
759.2649, 0.2401100
759.7470, 0.1223290
760.2291, 0.2234800
760.7112, 0.3245300
761.1934, 0.4461770
761.6755, 0.5286240
762.1576, 0.4210090
762.6397, 0.3158460
763.1218, 0.5367050
763.6039, 1.165967
764.0861, 1.595244
764.5682, 1.489316
765.0503, 1.221662
765.5324, 1.035389
766.0145, 0.9200650
766.4966, 0.8248480
766.9788, 0.7337530
767.4609, 0.6568690
767.9430, 0.6147360
768.4251, 0.5914190
768.9072, 0.4538120
769.3893, 0.1318250
769.8715, 9.1794997E-02
770.3536, 0.6155250
770.8357, 1.218190
771.3178, 1.442986
771.7999, 1.379380
772.2820, 1.282619
772.7642, 1.020989
773.2463, 0.9229010
773.7284, 1.367609
774.2105, 1.781029
774.6926, 1.492522
775.1747, 0.7034070
775.6569, 0.1314170
776.1390, 0.1437720
776.6211, 0.4151830
777.1032, 0.4909530
777.5853, 0.4218770
778.0674, 0.5395750
778.5496, 0.8945710
779.0317, 1.182292
779.5138, 1.221990
779.9959, 1.162071
780.4780, 1.290870
780.9601, 1.716776
781.4423, 1.880095
781.9244, 1.561336
782.4065, 1.259478
782.8886, 1.194340
783.3707, 1.188679
783.8528, 1.008968
784.3350, 0.6554210
784.8171, 0.3497660
785.2992, 0.1734540
785.7813, 0.1733210
786.2634, 0.6194890
786.7455, 1.253253
787.2277, 1.286045
787.7098, 0.6282230
788.1919, 8.6791001E-02
788.6740, 0.3819380
789.1561, 0.3029650
789.6382, 4.6255000E-02
790.1204, 0.9606340
790.6025, 1.422541
791.0846, 0.9227970
791.5667, 0.4633820
792.0488, 0.6259160
792.5309, 1.054127
793.0131, 1.128761
793.4952, 0.6868490
793.9773, 0.3583700
794.4594, 0.6522220
794.9415, 1.008690
795.4236, 0.8182480
795.9058, 0.2761400
796.3879, 0.1597810
796.8700, 0.3322660
797.3521, 0.2453210
797.8342, 0.1636490
798.3163, 0.8020470
798.7985, 1.188154
799.2806, 1.303637
799.7627, 1.253182
800.2448, 0.9412900
800.7269, 0.6688170
801.2090, 0.7724880
801.6912, 1.158610
802.1733, 1.299625
802.6554, 0.9136210
803.1375, 0.7295700
803.6196, 1.248463
804.1017, 1.682926
804.5839, 1.190241
805.0660, 0.2161810
805.5481, 0.1872000
806.0302, 0.3706410
806.5123, 1.156734
806.9944, 1.491696
807.4766, 1.490912
807.9587, 1.356490
808.4408, 1.116653
808.9229, 0.9963270
809.4050, 1.083542
809.8871, 1.290845
810.3693, 1.551218
810.8514, 1.861578
811.3335, 1.914418
811.8156, 1.546129
812.2977, 1.189594
812.7798, 0.8263390
813.2620, 0.5752790
813.7441, 0.5582170
814.2262, 0.6951730
814.7083, 0.7425840
815.1904, 0.5622510
815.6725, 0.4705000
816.1547, 0.7716050
816.6368, 1.167522
817.1189, 1.303628
817.6010, 1.215929
818.0831, 1.098092
818.5652, 1.034323
819.0474, 1.025955
819.5295, 1.100179
820.0116, 1.240624
820.4937, 1.293554
820.9758, 1.243196
821.4579, 1.199110
821.9401, 1.195547
822.4222, 1.210825
822.9043, 1.217679
823.3864, 1.218031
823.8685, 1.255491
824.3506, 1.421801
824.8328, 1.495218
825.3149, 1.440172
825.7970, 1.283555
826.2791, 0.9462120
826.7612, 0.5389510
827.2433, 0.3342570
827.7255, 0.4612610
828.2076, 0.5550040
828.6897, 8.0889001E-02
829.1718, 0.5148740
829.6539, 0.3571610
830.1360, 0.4229220
830.6182, 1.057161
831.1003, 1.253735
831.5824, 1.214188
832.0645, 1.170683
832.5466, 1.116457
833.0287, 0.9222070
833.5109, 0.4646080
833.9930, 0.3591340
834.4751, 0.9792510
834.9572, 1.619337
835.4393, 1.658008
835.9214, 1.285577
836.4036, 1.053128
836.8857, 1.103292
837.3678, 1.087565
837.8499, 0.8490410
838.3320, 0.5834520
838.8141, 0.3717680
839.2963, 0.2581450
839.7784, 0.3219090
840.2605, 0.5793440
840.7426, 0.8875290
841.2247, 1.177940
841.7068, 1.435087
842.1890, 1.501205
842.6711, 1.379842
843.1532, 1.321969
843.6353, 1.397199
844.1174, 1.487620
844.5995, 1.488363
845.0817, 1.417247
845.5638, 1.356152
846.0459, 1.315484
846.5280, 1.226948
847.0101, 0.9398810
847.4922, 0.8119450
847.9744, 1.108564
848.4565, 1.613235
848.9386, 2.029637
849.4207, 2.343588
849.9028, 2.502451
850.3849, 2.511315
850.8671, 2.338726
851.3492, 1.722770
851.8313, 1.041412
852.3134, 0.8764410
852.7955, 1.239775
853.2776, 1.599876
853.7598, 1.590440
854.2419, 1.403951
854.7240, 1.329317
855.2061, 1.360317
855.6882, 1.456073
856.1703, 1.590251
856.6525, 1.569771
857.1346, 1.239974
857.6167, 0.8732620
858.0988, 1.058121
858.5809, 1.953200
859.0630, 2.317214
859.5452, 1.829336
860.0273, 1.381294
860.5094, 1.292774
860.9915, 1.313933
861.4736, 1.213927
861.9557, 1.017349
862.4379, 0.8955300
862.9200, 0.9561310
863.4021, 0.9751450
863.8842, 0.7429090
864.3663, 0.5818380
864.8484, 0.9794160
865.3306, 1.666399
865.8127, 1.921368
866.2948, 1.472178
866.7769, 0.8962910
867.2590, 0.7668370
867.7411, 0.9152550
868.2233, 1.046601
868.7054, 1.140252
869.1875, 1.095048
869.6696, 0.8798980
870.1517, 0.6766620
870.6339, 0.6654850
871.1160, 0.7991290
871.5981, 0.8393260
872.0802, 0.7041400
872.5623, 0.8031420
873.0444, 1.393277
873.5266, 1.856815
874.0087, 1.744480
874.4908, 1.328684
874.9729, 1.142393
875.4550, 1.254909
875.9371, 1.200622
876.4193, 0.5366850
876.9014, 0.1491890
877.3835, 0.7638330
877.8656, 1.606081
878.3477, 1.775471
878.8298, 1.312785
879.3120, 0.9183690
879.7941, 0.9816140
880.2762, 1.117559
880.7583, 0.8001270
881.2404, 0.3704420
881.7225, 0.5511120
882.2047, 1.254595
882.6868, 1.811926
883.1689, 1.934133
883.6510, 1.838606
884.1331, 1.800485
884.6152, 1.796977
885.0974, 1.627030
885.5795, 1.260009
886.0616, 0.9387870
886.5437, 0.6836590
887.0258, 0.5520790
887.5079, 0.7061970
887.9901, 1.084962
888.4722, 1.388858
888.9543, 1.799815
889.4364, 1.779109
889.9185, 0.9204820
890.4006, 0.1148370
890.8828, 0.4063050
891.3649, 0.6117560
891.8470, 0.3255010
892.3291, 0.4358160
892.8112, 1.036207
893.2933, 1.177835
893.7755, 1.131841
894.2576, 0.8808030
894.7397, 0.6557280
895.2218, 0.8566570
895.7039, 1.375825
896.1860, 1.746058
896.6682, 1.746279
897.1503, 1.506939
897.6324, 1.115263
898.1145, 0.6263280
898.5966, 9.8251998E-02
899.0787, 0.4255500
899.5609, 0.5316690
900.0430, 6.8980001E-02
900.5251, 0.5577620
901.0072, 0.9795650
901.4893, 1.213629
901.9714, 1.349795
902.4536, 1.429465
902.9357, 1.215474
903.4178, 0.4112210
903.8999, 0.1895690
904.3820, 4.1074999E-02
904.8641, 0.4978100
905.3463, 0.8212670
905.8284, 0.9060840
906.3105, 0.9754650
906.7926, 1.138731
907.2747, 1.167065
907.7568, 0.8180780
908.2390, 0.4508460
908.7211, 0.4403930
909.2032, 0.7489950
909.6853, 1.150069
910.1674, 1.610070
910.6495, 1.957226
911.1317, 2.081969
911.6138, 2.032599
912.0959, 1.785763
912.5780, 1.425998
913.0601, 1.085276
913.5422, 0.8212070
914.0244, 0.7426460
914.5065, 1.004445
914.9886, 1.411080
915.4707, 1.532622
915.9528, 1.428222
916.4349, 1.544209
916.9171, 1.945617
917.3992, 2.141527
917.8813, 1.833667
918.3634, 1.344266
918.8455, 1.225983
919.3276, 1.504236
919.8098, 1.711857
920.2919, 1.849476
920.7740, 1.934992
921.2561, 1.875875
921.7382, 1.799040
922.2203, 1.906637
922.7025, 2.129829
923.1846, 2.212460
923.6667, 2.203711
924.1488, 1.949545
924.6309, 1.024724
925.1130, 0.3194480
925.5952, 0.3295850
926.0773, 0.7280070
926.5594, 1.269329
927.0415, 1.832778
927.5236, 2.007972
928.0057, 1.286200
928.4879, 0.6271280
928.9700, 0.8524220
929.4521, 1.346084
929.9342, 1.330068
930.4163, 0.9259770
930.8984, 0.6611360
931.3806, 0.7477900
931.8627, 0.9911600
932.3448, 1.379209
932.8269, 1.741791
933.3090, 1.635742
933.7911, 1.173370
934.2733, 0.7971000
934.7554, 0.6011100
935.2375, 0.6133700
935.7196, 0.8796850
936.2017, 1.227798
936.6838, 1.238576
937.1660, 1.328657
937.6481, 1.390370
938.1302, 1.119174
938.6123, 1.242267
939.0944, 0.8746340
939.5765, 0.5176510
940.0587, 0.7521580
940.5408, 1.462884
941.0229, 1.795249
941.5050, 1.517287
941.9871, 1.286003
942.4692, 1.001792
942.9514, 0.9039890
943.4335, 1.300051
943.9156, 1.817229
944.3977, 1.956861
944.8798, 1.695666
945.3619, 1.444067
945.8441, 1.345307
946.3262, 1.194028
946.8083, 0.8721920
947.2904, 0.5078760
947.7725, 5.7882998E-02
948.2546, 0.3131460
948.7368, 0.2353530
949.2189, 0.4360860
949.7010, 1.098005
950.1831, 1.341478
950.6652, 1.362807
951.1473, 1.296764
951.6295, 1.209592
952.1116, 1.208386
952.5937, 1.302071
953.0758, 1.484243
953.5579, 1.778340
954.0400, 1.924177
954.5222, 1.365387
955.0043, 0.4151050
955.4864, 4.5460001E-02
955.9685, 0.2212410
956.4506, 0.4269820
956.9327, 0.4799670
957.4149, 0.4470100
957.8970, 0.3907270
958.3791, 0.3196890
958.8612, 0.3392820
959.3433, 0.4620100
959.8254, 0.4530640
960.3076, 0.2302140
960.7897, 0.2157960
961.2718, 0.7081810
961.7539, 1.216720
962.2360, 1.082296
962.7181, 0.3475860
963.2003, 0.1364370
963.6824, 0.9463220
964.1645, 1.235765
964.6466, 0.3018950
965.1287, 0.4823880
965.6108, 0.1894620
966.0930, 0.6139700
966.5751, 1.094132
967.0572, 1.200340
967.5393, 1.351781
968.0214, 1.797806
968.5035, 2.015747
968.9857, 1.629493
969.4678, 1.177205
969.9499, 1.185780
970.4320, 1.428620
970.9141, 1.250816
971.3962, 0.4217860
971.8784, 9.7120002E-02
972.3605, 0.5775660
972.8426, 1.235127
973.3247, 0.7711860
973.8068, 3.6552001E-02
974.2889, 9.6717000E-02
974.7711, 0.5347520
975.2532, 1.071423
975.7353, 1.156184
976.2174, 1.028942
976.6995, 0.8795140
977.1816, 0.6681320
977.6638, 0.1611800
978.1459, 0.4210910
978.6280, 0.4407820
979.1101, 0.1619650
979.5922, 0.8272280
980.0743, 1.190148
980.5565, 1.268785
981.0386, 0.9227130
981.5207, 0.3249450
982.0028, 0.1379180
982.4849, 0.3584690
982.9670, 0.6437940
983.4492, 0.8795420
983.9313, 0.9703970
984.4134, 0.7949970
984.8955, 0.4641460
985.3776, 0.3216450
985.8597, 0.3698320
986.3419, 0.6267620
986.8240, 1.181877
987.3061, 1.335860
987.7882, 0.7423090
988.2703, 1.9817000E-02
988.7524, 0.2459710
989.2346, 1.4599000E-02
989.7167, 0.2665700
990.1988, 0.5548020
990.6809, 0.6788660
991.1630, 0.4811580
991.6451, 0.3829470
992.1273, 0.6183620
992.6094, 1.057640
993.0915, 1.612364
993.5736, 2.317717
994.0557, 2.473608
994.5378, 1.533449
995.0200, 0.8452700
995.5021, 0.6338940
995.9842, 0.5993560
996.4663, 0.6490870
996.9484, 0.7403310
997.4305, 0.8203090
997.9127, 0.8870640
998.3948, 0.9104630
998.8769, 0.7785980
999.3590, 0.7459910
999.8411, 1.067484
1000.323, 1.354893
1000.805, 1.249840
1001.287, 0.8991520
1001.770, 0.6174100
1002.252, 0.4701480
1002.734, 0.4245860
1003.216, 0.5665080
1003.698, 0.6909040
1004.180, 0.6379080
1004.662, 0.5338610
1005.144, 0.5386120
1005.627, 0.6145700
1006.109, 0.5921870
1006.591, 0.4442220
1007.073, 0.3251240
1007.555, 0.3214700
1008.037, 0.3642110
1008.519, 0.3316730
1009.001, 0.3292280
1009.483, 0.6695390
1009.966, 1.224437
1010.448, 1.394120
1010.930, 0.8785300
1011.412, 0.2785810
1011.894, 0.1756780
1012.376, 0.3861540
1012.858, 0.8134430
1013.340, 1.276143
1013.823, 1.235130
1014.305, 0.7015080
1014.787, 0.2833700
1015.269, 0.3365090
1015.751, 0.5547070
1016.233, 0.4914350
1016.715, 0.2753060
1017.197, 0.2832670
1017.679, 0.4813230
1018.162, 0.7056260
1018.644, 0.9119900
1019.126, 1.062350
1019.608, 1.134905
1020.090, 1.107822
1020.572, 0.8048710
1021.054, 0.3269930
1021.536, 0.5477410
1022.018, 1.436084
1022.501, 1.882976
1022.983, 1.571250
1023.465, 1.178485
1023.947, 1.156584
1024.429, 1.334808
1024.911, 1.396510
1025.393, 1.341122
1025.875, 1.148157
1026.358, 0.7881640
1026.840, 0.5269760
1027.322, 0.4262230
1027.804, 0.4762070
1028.286, 0.6825900
1028.768, 1.013960
1029.250, 1.448933
1029.732, 2.051160
1030.214, 2.172434
1030.697, 1.661932
1031.179, 1.159636
1031.661, 0.7699740
1032.143, 0.5211070
1032.625, 0.4751300
1033.107, 0.5505240
1033.589, 0.5099130
1034.071, 0.5871960
1034.553, 0.7745870
1035.036, 0.7663820
1035.518, 1.164916
1036.000, 1.355522
1036.482, 1.390495
1036.964, 1.264190
1037.446, 1.025963
1037.928, 0.8087360
1038.410, 0.5907560
1038.893, 0.4694090
1039.375, 0.4759190
1039.857, 0.5357280
1040.339, 0.6434490
1040.821, 0.7809660
1041.303, 1.002656
1041.785, 1.230784
1042.267, 1.234423
1042.750, 0.9722830
1043.232, 0.6274990
1043.714, 0.2111160
1044.196, 0.5703890
1044.678, 0.2691350
1045.160, 1.196279
1045.642, 1.326340
1046.124, 0.9324310
1046.606, 0.7096350
1047.089, 0.8193780
1047.571, 0.8517610
1048.053, 0.5660340
1048.535, 0.4250000
1049.017, 0.6035940
1049.499, 0.9147840
1049.981, 1.357571
1050.463, 1.785303
1050.945, 1.848110
1051.428, 1.433178
1051.910, 1.144559
1052.392, 1.222732
1052.874, 1.329062
1053.356, 1.192709
1053.838, 1.072877
1054.320, 1.308127
1054.802, 1.709008
1055.285, 1.882799
1055.767, 1.767253
1056.249, 1.464763
1056.731, 0.5624210
1057.213, 6.1255001E-02
1057.695, 0.6668210
1058.177, 1.488750
1058.659, 1.915645
1059.141, 2.019206
1059.624, 1.988658
1060.106, 1.856705
1060.588, 1.786363
1061.070, 2.001135
1061.552, 2.057464
1062.034, 1.648536
1062.516, 1.159381
1062.998, 0.7589690
1063.480, 0.5053920
1063.963, 0.4340780
1064.445, 0.5466460
1064.927, 0.7662390
1065.409, 1.307858
1065.891, 1.622386
1066.373, 1.243416
1066.855, 0.7882640
1067.337, 0.7313410
1067.820, 0.9242800
1068.302, 1.155043
1068.784, 1.357210
1069.266, 1.373687
1069.748, 1.001107
1070.230, 0.6846910
1070.712, 0.6015220
1071.194, 0.6665480
1071.677, 0.9398100
1072.159, 1.248549
1072.641, 1.351311
1073.123, 1.241209
1073.605, 1.061582
1074.087, 0.7272500
1074.569, 0.6612380
1075.051, 1.432807
1075.533, 2.150391
1076.016, 2.087083
1076.498, 1.639606
1076.980, 1.321394
1077.462, 1.173758
1077.944, 0.9955820
1078.426, 0.6620540
1078.908, 0.5000530
1079.390, 0.8390710
1079.873, 1.200246
1080.355, 1.237897
1080.837, 1.142484
1081.319, 1.180806
1081.801, 1.303387
1082.283, 1.234160
1082.765, 0.8492230
1083.247, 0.5891890
1083.729, 0.7206710
1084.212, 0.9746070
1084.694, 1.301087
1085.176, 1.586622
1085.658, 1.764429
1086.140, 1.800145
1086.622, 1.611091
1087.104, 1.168575
1087.586, 0.7301480
1088.068, 0.2087600
1088.551, 3.4272000E-02
1089.033, 0.4371240
1089.515, 1.032985
1089.997, 1.230752
1090.479, 1.164042
1090.961, 1.220184
1091.443, 1.448112
1091.925, 1.382987
1092.408, 0.5151400
1092.890, 0.2199970
1093.372, 0.5052330
1093.854, 0.4670170
1094.336, 7.3367000E-02
1094.818, 0.7272690
1095.300, 0.9114120
1095.782, 0.6119300
1096.265, 0.3156420
1096.747, 4.5959000E-02
1097.229, 2.5407000E-02
1097.711, 0.5924430
1098.193, 1.130495
1098.675, 1.246114
1099.157, 1.156183
1099.639, 1.142216
1100.121, 1.183107
1100.604, 1.034669
1101.086, 0.4945150
1101.568, 0.2240400
1102.050, 0.7074870
1102.532, 1.146806
1103.014, 1.155367
1103.496, 0.9016990
1103.978, 0.2867490
1104.460, 0.4044830
1104.943, 0.4247750
1105.425, 0.4758430
1105.907, 1.169209
1106.389, 1.350559
1106.871, 1.442031
1107.353, 1.576514
1107.835, 1.650186
1108.317, 1.678408
1108.800, 1.557121
1109.282, 0.9674730
1109.764, 0.1438810
1110.246, 0.7338080
1110.728, 0.4685010
1111.210, 3.9184000E-02
1111.692, 0.7060530
1112.174, 1.313804
1112.656, 1.510947
1113.139, 1.493101
1113.621, 1.489766
1114.103, 1.496590
1114.585, 1.423774
1115.067, 1.170613
1115.549, 1.017778
1116.031, 0.9969350
1116.513, 1.028943
1116.995, 1.108040
1117.478, 1.216411
1117.960, 1.453130
1118.442, 1.677121
1118.924, 1.354296
1119.406, 0.1441310
1119.888, 0.2207480
1120.370, 0.7832390
1120.852, 1.549492
1121.335, 1.756439
1121.817, 1.594569
1122.299, 0.9912280
1122.781, 0.3123050
1123.263, 0.2608590
1123.745, 0.8515950
1124.227, 1.392526
1124.709, 2.015970
1125.192, 2.022889
1125.674, 1.031587
1126.156, 0.3619730
1126.638, 0.7461810
1127.120, 1.441476
1127.602, 1.566939
1128.084, 1.244826
1128.566, 1.006041
1129.048, 0.8556410
1129.531, 0.7321460
1130.013, 0.6222050
1130.495, 0.6351200
1130.977, 0.8251510
1131.459, 1.017222
1131.941, 1.062025
1132.423, 1.008078
1132.905, 0.9403790
1133.387, 0.8616860
1133.870, 0.8141500
1134.352, 0.7971280
1134.834, 0.7820950
1135.316, 0.7654910
1135.798, 0.8618040
1136.280, 1.103940
1136.762, 1.366133
1137.244, 1.450781
1137.727, 1.430820
1138.209, 1.658628
1138.691, 1.984375
1139.173, 1.503406
1139.655, 0.3518220
1140.137, 3.6072001E-02
1140.619, 0.7777180
1141.101, 1.691114
1141.583, 1.809538
1142.066, 1.519130
1142.548, 1.329028
1143.030, 1.206249
1143.512, 1.136977
1143.994, 1.065607
1144.476, 0.7374440
1144.958, 0.2197000
1145.440, 9.4022997E-02
1145.922, 0.6825550
1146.405, 1.254415
1146.887, 0.8979250
1147.369, 0.4133100
1147.851, 0.9632500
1148.333, 0.7313160
1148.815, 0.7651110
1149.297, 1.169485
1149.779, 0.9821760
1150.262, 1.511556
1150.744, 2.004162
1151.226, 2.167006
1151.708, 1.993963
1152.190, 1.046420
1152.672, 0.2070470
1153.154, 0.5360270
1153.636, 1.301661
1154.119, 1.297921
1154.601, 0.5892930
1155.083, 0.2117580
1155.565, 0.5387540
1156.047, 0.9120930
1156.529, 1.167101
1157.011, 1.361157
1157.493, 1.590404
1157.975, 1.703395
1158.458, 1.348898
1158.940, 0.8589640
1159.422, 1.054681
1159.904, 2.085493
1160.386, 2.558336
1160.868, 1.961282
1161.350, 1.405351
1161.832, 0.9466730
1162.314, 0.5955390
1162.797, 0.3884290
1163.279, 0.3762250
1163.761, 0.6313520
1164.243, 1.058973
1164.725, 1.192148
1165.207, 0.9187500
1165.689, 0.7248550
1166.171, 0.5549320
1166.654, 0.6739660
1167.136, 1.265927
1167.618, 1.776937
1168.100, 1.818943
1168.582, 1.621009
1169.064, 1.490459
1169.546, 1.390550
1170.028, 1.072881
1170.510, 1.057385
1170.993, 1.123133
1171.475, 0.9298680
1171.957, 1.310760
1172.439, 1.345540
1172.921, 1.173658
1173.403, 0.8938720
1173.885, 0.5961590
1174.367, 0.4557260
1174.849, 0.4482860
1175.332, 0.4271120
1175.814, 0.4640110
1176.296, 1.072673
1176.778, 2.146632
1177.260, 2.554464
1177.742, 1.740375
1178.224, 0.7001820
1178.706, 0.2491810
1179.189, 0.1609840
1179.671, 0.2665970
1180.153, 0.4593640
1180.635, 0.5566200
1181.117, 0.6148190
1181.599, 0.9004910
1182.081, 1.367113
1182.563, 1.446795
1183.046, 0.7433850
1183.528, 4.9313001E-02
1184.010, 0.2692150
1184.492, 0.3020650
1184.974, 4.6432000E-02
1185.456, 0.5190710
1185.938, 0.8664620
1186.420, 1.118111
1186.902, 1.508552
1187.385, 2.104005
1187.867, 2.141135
1188.349, 0.7581870
1188.831, 0.1183260
1189.313, 0.2109450
1189.795, 0.7070340
1190.277, 0.9733410
1190.759, 1.087112
1191.241, 1.163766
1191.724, 1.141705
1192.206, 0.8423870
1192.688, 4.6735000E-02
1193.170, 0.3315320
1193.652, 0.2005360
1194.134, 0.7113960
1194.616, 1.071144
1195.098, 1.260625
1195.581, 1.246199
1196.063, 1.128290
1196.545, 1.039278
1197.027, 0.9709330
1197.509, 0.8523130
1197.991, 0.6907330
1198.473, 0.7386930
1198.955, 0.9919450
1199.438, 1.333148
1199.920, 1.706533
1200.402, 1.829809
1200.884, 1.496217
1201.366, 1.012855
1201.848, 0.6047840
1202.330, 0.4504940
1202.812, 1.273593
1203.294, 2.432391
1203.776, 2.487927
1204.259, 1.652678
1204.741, 0.8916960
1205.223, 0.5276090
1205.705, 0.5873840
1206.187, 1.264682
1206.669, 1.895445
1207.151, 2.002227
1207.633, 1.900717
1208.116, 1.716557
1208.598, 1.559404
1209.080, 1.598069
1209.562, 1.743279
1210.044, 1.732265
1210.526, 1.506170
1211.008, 1.302955
1211.490, 1.048987
1211.973, 1.000468
1212.455, 1.385728
1212.937, 1.761895
1213.419, 1.961797
1213.901, 2.041103
1214.383, 2.046471
1214.865, 1.977060
1215.347, 1.817135
1215.829, 1.542653
1216.312, 1.340729
1216.794, 1.212415
1217.276, 1.188307
1217.758, 1.307542
1218.240, 1.292909
1218.722, 0.9574410
1219.204, 0.6213600
1219.686, 0.6397540
1220.168, 0.8955890
1220.651, 1.129858
1221.133, 1.326427
1221.615, 1.377659
1222.097, 1.318015
1222.579, 1.325870
1223.061, 1.407629
1223.543, 1.351334
1224.025, 1.059098
1224.508, 0.8524130
1224.990, 1.110284
1225.472, 1.471550
1225.954, 1.655660
1226.436, 1.660244
1226.918, 1.283175
1227.400, 0.8275650
1227.882, 0.8724060
1228.365, 1.356688
1228.847, 1.631658
1229.329, 1.461988
1229.811, 1.299719
1230.293, 1.221684
1230.775, 1.237930
1231.257, 1.511099
1231.739, 1.705922
1232.221, 1.577941
1232.703, 1.266291
1233.186, 0.8567970
1233.668, 0.4116340
1234.150, 0.3832960
1234.632, 0.9283140
1235.114, 1.249404
1235.596, 1.302518
1236.078, 1.389693
1236.560, 1.577873
1237.043, 1.694044
1237.525, 1.636422
1238.007, 1.430871
1238.489, 1.013575
1238.971, 0.5997130
1239.453, 0.9536670
1239.935, 1.760610
1240.417, 2.040639
1240.900, 1.831532
1241.382, 1.515218
1241.864, 1.219815
1242.346, 1.062662
1242.828, 1.104254
1243.310, 1.186119
1243.792, 1.153602
1244.274, 1.144115
1244.756, 1.317458
1245.239, 1.519511
1245.721, 1.672532
1246.203, 1.709125
1246.685, 1.379142
1247.167, 0.8201580
1247.649, 0.8686460
1248.131, 0.4426530
1248.613, 0.1410640
1249.095, 0.3525850
1249.578, 0.8346190
1250.060, 3.4244999E-02
1250.542, 0.9823780
1251.024, 1.427035
1251.506, 1.489231
1251.988, 1.349249
1252.470, 1.054750
1252.952, 0.7431870
1253.435, 0.4061000
1253.917, 0.4371340
1254.399, 0.8255270
1254.881, 1.077568
1255.363, 1.110116
1255.845, 1.142063
1256.327, 1.273434
1256.809, 1.375031
1257.292, 1.323885
1257.774, 1.178796
1258.256, 0.9711430
1258.738, 0.7598100
1259.220, 0.5909490
1259.702, 0.5007150
1260.184, 0.6372710
1260.666, 0.8885670
1261.148, 0.8324600
1261.630, 0.3501380
1262.113, 0.1179340
1262.595, 0.5345920
1263.077, 1.008444
1263.559, 1.479260
1264.041, 1.837548
1264.523, 1.996299
1265.005, 2.051458
1265.487, 2.126086
1265.970, 2.133049
1266.452, 1.833032
1266.934, 1.217674
1267.416, 0.7633840
1267.898, 0.3216900
1268.380, 0.6073140
1268.862, 1.565632
1269.344, 1.984913
1269.827, 1.469426
1270.309, 0.8576320
1270.791, 0.7583450
1271.273, 0.8781190
1271.755, 0.8197430
1272.237, 0.6831630
1272.719, 0.6147990
1273.201, 0.6259660
1273.683, 0.8858780
1274.166, 1.188361
1274.648, 0.8844800
1275.130, 5.9539001E-02
1275.612, 0.1215900
1276.094, 1.022535
1276.576, 1.732949
1277.058, 0.7687970
1277.540, 6.3740001E-03
1278.022, 0.2465560
1278.505, 0.8263230
1278.987, 1.578591
1279.469, 2.213334
1279.951, 2.387947
1280.433, 2.174549
1280.915, 1.724131
1281.397, 1.260030
1281.879, 0.7233300
1282.362, 0.1395130
1282.844, 1.5139000E-02
1283.326, 0.3432140
1283.808, 0.7389990
1284.290, 0.9431310
1284.772, 0.8014780
1285.254, 0.4992230
1285.736, 0.0000000E+00
##END=



