##NAMES=Kukharenkoite-(Ce)
##RRUFFID=R110190
##IDEAL CHEMISTRY=Ba_2_Ce(CO_3_)_3_F
##LOCALITY=Demix-Varennes quarry, Saint-Amable sill, Varennes & St-Amable, Lajemmerais RCM, Monteregie, Quebec, Canada
##OWNER=RRUFF
##SOURCE=Donald Doell
##DESCRIPTION=Radial sprays of white bladed crystals
##STATUS=The identification of this mineral is confirmed by single-crystal X-ray diffraction and chemical analysis.
##URL=rruff.info/R110190
##MEASURED CHEMISTRY=(Ba_1.90_Sr_0.10_)_Σ=2.00_(Ce_0.54_La_0.22_Nd_0.15_Pr_0.06_)_Σ=0.97_(CO_3_)_2.99_F_1.14_
95.46045, 2757.953
95.94257, 2775.713
96.42468, 2786.791
96.90680, 2789.825
97.38892, 2792.776
97.87103, 2800.977
98.35315, 2809.546
98.83527, 2810.521
99.31738, 2802.878
99.79950, 2783.430
100.2816, 2770.462
100.7637, 2764.661
101.2458, 2762.948
101.7280, 2761.172
102.2101, 2757.605
102.6922, 2757.579
103.1743, 2775.881
103.6564, 2814.623
104.1385, 2842.090
104.6207, 2838.835
105.1028, 2813.480
105.5849, 2795.337
106.0670, 2793.718
106.5491, 2802.666
107.0313, 2815.278
107.5134, 2831.746
107.9955, 2848.768
108.4776, 2863.733
108.9597, 2877.062
109.4418, 2885.940
109.9240, 2885.784
110.4061, 2882.961
110.8882, 2881.542
111.3703, 2882.981
111.8524, 2887.202
112.3345, 2894.224
112.8167, 2906.359
113.2988, 2918.528
113.7809, 2928.895
114.2630, 2938.999
114.7451, 2952.015
115.2272, 2970.402
115.7094, 2993.523
116.1915, 3005.768
116.6736, 2990.367
117.1557, 2982.233
117.6378, 3000.752
118.1199, 3039.626
118.6021, 3075.162
119.0842, 3086.096
119.5663, 3069.846
120.0484, 3061.567
120.5305, 3060.452
121.0126, 3067.279
121.4948, 3088.229
121.9769, 3125.981
122.4590, 3160.759
122.9411, 3163.571
123.4232, 3143.570
123.9053, 3130.679
124.3875, 3140.972
124.8696, 3166.317
125.3517, 3183.809
125.8338, 3187.654
126.3159, 3187.188
126.7980, 3186.641
127.2802, 3187.020
127.7623, 3192.639
128.2444, 3209.639
128.7265, 3239.424
129.2086, 3264.972
129.6907, 3281.007
130.1729, 3295.268
130.6550, 3312.640
131.1371, 3332.997
131.6192, 3351.332
132.1013, 3358.206
132.5834, 3338.352
133.0656, 3338.772
133.5477, 3371.804
134.0298, 3414.634
134.5119, 3451.863
134.9940, 3477.853
135.4761, 3494.961
135.9583, 3507.935
136.4404, 3509.072
136.9225, 3515.544
137.4046, 3529.540
137.8867, 3549.186
138.3688, 3572.184
138.8510, 3597.941
139.3331, 3625.732
139.8152, 3653.115
140.2973, 3681.104
140.7794, 3707.583
141.2615, 3729.803
141.7437, 3748.903
142.2258, 3771.113
142.7079, 3802.450
143.1900, 3837.293
143.6721, 3863.548
144.1542, 3875.042
144.6364, 3884.795
145.1185, 3907.503
145.6006, 3945.502
146.0827, 3982.141
146.5648, 4008.307
147.0469, 4028.828
147.5291, 4047.222
148.0112, 4063.018
148.4933, 4079.194
148.9754, 4103.480
149.4575, 4142.234
149.9396, 4178.592
150.4218, 4203.237
150.9039, 4223.571
151.3860, 4249.376
151.8681, 4286.988
152.3502, 4335.299
152.8323, 4382.403
153.3145, 4434.949
153.7966, 4479.092
154.2787, 4504.813
154.7608, 4519.796
155.2429, 4539.292
155.7250, 4576.231
156.2072, 4632.198
156.6893, 4680.577
157.1714, 4722.990
157.6535, 4758.384
158.1356, 4781.357
158.6177, 4794.920
159.0999, 4810.189
159.5820, 4837.479
160.0641, 4879.179
160.5462, 4922.073
161.0283, 4968.155
161.5104, 5013.827
161.9926, 5057.046
162.4747, 5097.417
162.9568, 5134.276
163.4389, 5164.850
163.9210, 5189.595
164.4031, 5215.560
164.8853, 5241.930
165.3674, 5270.797
165.8495, 5305.735
166.3316, 5348.895
166.8137, 5394.209
167.2958, 5436.431
167.7780, 5476.186
168.2601, 5514.936
168.7422, 5552.915
169.2243, 5590.359
169.7064, 5627.350
170.1885, 5663.085
170.6707, 5699.439
171.1528, 5740.079
171.6349, 5783.338
172.1170, 5822.797
172.5991, 5852.800
173.0812, 5873.021
173.5634, 5890.678
174.0455, 5890.605
174.5276, 5901.279
175.0097, 5943.087
175.4918, 6011.466
175.9739, 6082.532
176.4561, 6128.255
176.9382, 6139.556
177.4203, 6156.925
177.9024, 6178.856
178.3845, 6206.999
178.8666, 6244.929
179.3488, 6291.512
179.8309, 6341.388
180.3130, 6387.132
180.7951, 6429.202
181.2772, 6464.552
181.7593, 6485.622
182.2415, 6505.638
182.7236, 6536.361
183.2057, 6579.869
183.6878, 6626.852
184.1699, 6662.995
184.6520, 6681.021
185.1342, 6701.667
185.6163, 6721.703
186.0984, 6745.974
186.5805, 6780.671
187.0626, 6827.905
187.5447, 6882.870
188.0269, 6939.712
188.5090, 7000.706
188.9911, 7055.401
189.4732, 7098.484
189.9553, 7134.116
190.4374, 7169.365
190.9196, 7207.337
191.4017, 7243.654
191.8838, 7268.208
192.3659, 7278.823
192.8480, 7299.799
193.3301, 7348.323
193.8123, 7417.668
194.2944, 7483.290
194.7765, 7537.250
195.2586, 7587.329
195.7407, 7643.577
196.2228, 7706.002
196.7050, 7765.685
197.1871, 7813.208
197.6692, 7849.321
198.1513, 7891.137
198.6334, 7948.016
199.1155, 8006.714
199.5977, 8054.829
200.0798, 8092.725
200.5619, 8134.661
201.0440, 8196.854
201.5261, 8282.933
202.0082, 8367.947
202.4904, 8457.744
202.9725, 8539.515
203.4546, 8601.914
203.9367, 8645.721
204.4188, 8685.396
204.9009, 8738.002
205.3831, 8805.850
205.8652, 8880.042
206.3473, 8963.030
206.8294, 9049.251
207.3115, 9136.363
207.7936, 9223.313
208.2758, 9309.749
208.7579, 9394.447
209.2400, 9476.376
209.7221, 9558.390
210.2042, 9636.216
210.6863, 9716.566
211.1685, 9800.407
211.6506, 9889.606
212.1327, 9991.077
212.6148, 10118.51
213.0969, 10297.22
213.5790, 10444.87
214.0612, 10544.63
214.5433, 10626.03
215.0254, 10707.19
215.5075, 10793.36
215.9896, 10890.64
216.4717, 11007.86
216.9539, 11155.77
217.4360, 11302.00
217.9181, 11449.95
218.4002, 11594.34
218.8823, 11725.86
219.3644, 11841.67
219.8466, 11959.73
220.3287, 12108.84
220.8108, 12297.45
221.2929, 12472.29
221.7750, 12616.97
222.2571, 12747.80
222.7393, 12882.63
223.2214, 13024.21
223.7035, 13174.24
224.1856, 13337.94
224.6677, 13513.58
225.1498, 13689.46
225.6320, 13871.52
226.1141, 14049.82
226.5962, 14201.96
227.0783, 14316.30
227.5604, 14428.62
228.0425, 14572.93
228.5247, 14743.62
229.0068, 14935.04
229.4889, 15155.98
229.9710, 15393.75
230.4531, 15623.13
230.9352, 15841.54
231.4174, 16048.90
231.8995, 16239.18
232.3816, 16417.73
232.8637, 16598.72
233.3458, 16786.80
233.8279, 16982.37
234.3101, 17193.94
234.7922, 17433.99
235.2743, 17665.56
235.7564, 17861.63
236.2385, 18034.78
236.7206, 18211.92
237.2028, 18409.46
237.6849, 18622.13
238.1670, 18833.52
238.6491, 19056.06
239.1312, 19255.87
239.6133, 19406.03
240.0955, 19529.99
240.5776, 19670.41
241.0597, 19856.03
241.5418, 20076.61
242.0239, 20278.39
242.5060, 20452.55
242.9882, 20619.01
243.4703, 20781.78
243.9524, 20942.44
244.4345, 21103.91
244.9166, 21268.25
245.3987, 21434.18
245.8809, 21590.83
246.3630, 21716.11
246.8451, 21862.01
247.3272, 22051.85
247.8093, 22263.68
248.2914, 22470.57
248.7736, 22658.87
249.2557, 22829.41
249.7378, 22982.85
250.2199, 23096.66
250.7020, 23221.68
251.1841, 23371.06
251.6663, 23532.15
252.1484, 23691.19
252.6305, 23842.61
253.1126, 23983.91
253.5947, 24110.05
254.0768, 24189.13
254.5590, 24290.78
255.0411, 24440.13
255.5232, 24605.99
256.0053, 24755.86
256.4874, 24875.47
256.9695, 24973.00
257.4517, 25067.91
257.9338, 25149.34
258.4159, 25242.26
258.8980, 25372.66
259.3801, 25503.58
259.8622, 25591.27
260.3444, 25621.24
260.8265, 25621.91
261.3086, 25647.18
261.7907, 25728.05
262.2728, 25784.40
262.7549, 25790.99
263.2371, 25784.48
263.7192, 25808.26
264.2013, 25872.84
264.6834, 25944.05
265.1655, 25968.93
265.6476, 25919.21
266.1298, 25889.22
266.6119, 25883.59
267.0940, 25896.85
267.5761, 25938.90
268.0582, 26009.25
268.5403, 26065.98
269.0225, 26053.10
269.5046, 25947.45
269.9867, 25876.10
270.4688, 25865.01
270.9509, 25875.20
271.4330, 25872.81
271.9152, 25854.14
272.3973, 25838.23
272.8794, 25847.94
273.3615, 25885.22
273.8436, 25897.30
274.3257, 25864.56
274.8079, 25819.53
275.2900, 25785.55
275.7721, 25763.91
276.2542, 25748.86
276.7363, 25738.69
277.2184, 25731.92
277.7006, 25718.06
278.1827, 25694.38
278.6648, 25665.70
279.1469, 25634.40
279.6290, 25600.77
280.1111, 25565.74
280.5933, 25529.12
281.0754, 25491.78
281.5575, 25456.26
282.0396, 25424.11
282.5217, 25392.13
283.0038, 25365.52
283.4860, 25340.55
283.9681, 25295.98
284.4502, 25217.54
284.9323, 25116.38
285.4144, 25019.67
285.8965, 24931.89
286.3787, 24838.10
286.8608, 24718.64
287.3429, 24583.91
287.8250, 24472.51
288.3071, 24405.00
288.7892, 24355.96
289.2714, 24290.99
289.7535, 24211.07
290.2356, 24116.65
290.7177, 24003.95
291.1998, 23876.72
291.6819, 23741.22
292.1641, 23594.24
292.6462, 23447.86
293.1283, 23317.19
293.6104, 23200.50
294.0925, 23082.38
294.5746, 22959.75
295.0568, 22831.55
295.5389, 22696.43
296.0210, 22555.22
296.5031, 22404.43
296.9852, 22227.35
297.4673, 22035.33
297.9495, 21860.40
298.4316, 21727.85
298.9137, 21613.22
299.3958, 21484.71
299.8779, 21342.86
300.3600, 21180.00
300.8422, 20970.71
301.3243, 20739.47
301.8064, 20532.33
302.2885, 20368.37
302.7706, 20221.05
303.2527, 20060.60
303.7349, 19885.63
304.2170, 19708.27
304.6991, 19534.49
305.1812, 19361.31
305.6633, 19184.01
306.1454, 18999.89
306.6276, 18818.29
307.1097, 18648.06
307.5918, 18489.07
308.0739, 18332.97
308.5560, 18180.87
309.0381, 18029.10
309.5203, 17871.37
310.0024, 17705.52
310.4845, 17547.21
310.9666, 17411.28
311.4487, 17293.46
311.9308, 17175.47
312.4130, 17058.44
312.8951, 16933.81
313.3772, 16792.39
313.8593, 16636.25
314.3414, 16482.50
314.8235, 16330.52
315.3057, 16187.23
315.7878, 16077.05
316.2699, 16019.96
316.7520, 15953.62
317.2341, 15814.96
317.7162, 15633.07
318.1984, 15469.35
318.6805, 15357.59
319.1626, 15271.83
319.6447, 15170.54
320.1268, 15050.40
320.6089, 14931.79
321.0911, 14819.66
321.5732, 14717.91
322.0553, 14636.45
322.5374, 14585.79
323.0195, 14541.29
323.5016, 14477.08
323.9838, 14392.66
324.4659, 14307.20
324.9480, 14230.49
325.4301, 14154.45
325.9122, 14068.17
326.3943, 13967.78
326.8765, 13870.53
327.3586, 13787.36
327.8407, 13717.22
328.3228, 13658.11
328.8049, 13616.07
329.2870, 13576.03
329.7692, 13519.03
330.2513, 13447.04
330.7334, 13382.23
331.2155, 13345.60
331.6976, 13323.05
332.1797, 13278.33
332.6619, 13200.77
333.1440, 13120.39
333.6261, 13060.47
334.1082, 13016.33
334.5903, 12979.67
335.0724, 12956.10
335.5546, 12935.07
336.0367, 12902.02
336.5188, 12856.21
337.0009, 12807.00
337.4830, 12755.15
337.9651, 12705.01
338.4473, 12665.51
338.9294, 12643.04
339.4115, 12622.90
339.8936, 12587.75
340.3757, 12541.02
340.8578, 12511.80
341.3400, 12520.03
341.8221, 12541.66
342.3042, 12539.03
342.7863, 12508.93
343.2684, 12475.11
343.7505, 12449.31
344.2327, 12428.31
344.7148, 12405.26
345.1969, 12379.58
345.6790, 12349.22
346.1611, 12302.65
346.6432, 12243.32
347.1254, 12203.70
347.6075, 12203.00
348.0896, 12221.33
348.5717, 12238.83
349.0538, 12254.27
349.5359, 12260.88
350.0181, 12252.63
350.5002, 12230.37
350.9823, 12202.51
351.4644, 12158.34
351.9465, 12118.38
352.4286, 12097.94
352.9108, 12094.46
353.3929, 12096.33
353.8750, 12100.60
354.3571, 12104.17
354.8392, 12098.24
355.3214, 12076.64
355.8035, 12060.60
356.2856, 12065.84
356.7677, 12080.31
357.2498, 12079.53
357.7319, 12054.62
358.2141, 12023.86
358.6962, 12014.21
359.1783, 12030.04
359.6604, 12038.79
360.1425, 12029.16
360.6246, 12015.65
361.1068, 12014.00
361.5889, 12024.85
362.0710, 12034.56
362.5531, 12030.60
363.0352, 12013.25
363.5173, 12003.63
363.9995, 12005.84
364.4816, 12010.85
364.9637, 12022.28
365.4458, 12033.59
365.9279, 12024.69
366.4100, 11981.34
366.8922, 11919.56
367.3743, 11893.32
367.8564, 11928.54
368.3385, 11959.66
368.8206, 11980.21
369.3027, 11991.57
369.7849, 11992.96
370.2670, 11984.59
370.7491, 11971.77
371.2312, 11960.50
371.7133, 11947.02
372.1954, 11949.33
372.6776, 11990.05
373.1597, 12026.53
373.6418, 12027.39
374.1239, 11997.23
374.6060, 11962.85
375.0881, 11944.18
375.5703, 11941.23
376.0524, 11949.48
376.5345, 11989.90
377.0166, 12017.55
377.4987, 12013.40
377.9808, 11992.55
378.4630, 11977.27
378.9451, 11977.86
379.4272, 11988.03
379.9093, 11992.52
380.3914, 11984.10
380.8735, 11982.30
381.3557, 11994.23
381.8378, 12007.74
382.3199, 12013.19
382.8020, 12009.70
383.2841, 12003.33
383.7662, 11999.85
384.2484, 11998.70
384.7305, 12004.09
385.2126, 12024.46
385.6947, 12043.37
386.1768, 12048.49
386.6589, 12048.58
387.1411, 12063.40
387.6232, 12108.30
388.1053, 12171.30
388.5874, 12207.72
389.0695, 12203.09
389.5516, 12198.21
390.0338, 12196.72
390.5159, 12202.38
390.9980, 12224.63
391.4801, 12265.64
391.9622, 12304.48
392.4443, 12309.83
392.9265, 12276.93
393.4086, 12257.65
393.8907, 12270.62
394.3728, 12287.66
394.8549, 12289.53
395.3370, 12280.11
395.8192, 12276.67
396.3013, 12294.08
396.7834, 12325.86
397.2655, 12352.99
397.7476, 12379.29
398.2297, 12390.73
398.7119, 12354.94
399.1940, 12307.36
399.6761, 12298.19
400.1582, 12350.30
400.6403, 12420.78
401.1224, 12471.43
401.6046, 12502.87
402.0867, 12516.42
402.5688, 12498.98
403.0509, 12478.93
403.5330, 12494.58
404.0151, 12546.71
404.4973, 12591.78
404.9794, 12603.54
405.4615, 12597.96
405.9436, 12600.17
406.4257, 12612.47
406.9078, 12637.50
407.3900, 12685.61
407.8721, 12750.38
408.3542, 12798.61
408.8363, 12814.03
409.3184, 12824.84
409.8005, 12853.35
410.2827, 12893.34
410.7648, 12919.48
411.2469, 12916.59
411.7290, 12901.60
412.2111, 12916.03
412.6932, 12974.41
413.1754, 13020.93
413.6575, 13036.41
414.1396, 13040.51
414.6217, 13053.81
415.1038, 13079.63
415.5859, 13109.48
416.0681, 13136.01
416.5502, 13159.45
417.0323, 13174.42
417.5144, 13171.49
417.9965, 13171.25
418.4786, 13178.03
418.9608, 13194.03
419.4429, 13226.20
419.9250, 13279.20
420.4071, 13341.23
420.8892, 13378.26
421.3713, 13358.71
421.8535, 13361.95
422.3356, 13411.43
422.8177, 13468.32
423.2998, 13498.98
423.7819, 13501.76
424.2640, 13501.71
424.7462, 13527.12
425.2283, 13580.82
425.7104, 13618.87
426.1925, 13627.60
426.6746, 13634.38
427.1567, 13643.75
427.6389, 13657.03
428.1210, 13675.47
428.6031, 13699.87
429.0852, 13729.08
429.5673, 13762.92
430.0494, 13805.25
430.5316, 13838.65
431.0137, 13848.74
431.4958, 13855.22
431.9779, 13869.98
432.4600, 13893.91
432.9421, 13921.06
433.4243, 13949.96
433.9064, 13978.98
434.3885, 14000.68
434.8706, 14013.09
435.3527, 14022.14
435.8348, 14018.96
436.3170, 14016.89
436.7991, 14043.91
437.2812, 14125.26
437.7633, 14211.59
438.2454, 14258.07
438.7275, 14268.08
439.2097, 14258.71
439.6918, 14223.23
440.1739, 14189.50
440.6560, 14208.04
441.1381, 14282.52
441.6202, 14344.68
442.1024, 14362.27
442.5845, 14365.02
443.0666, 14389.80
443.5487, 14438.74
444.0308, 14485.55
444.5129, 14510.65
444.9951, 14515.62
445.4772, 14519.04
445.9593, 14516.81
446.4414, 14518.02
446.9235, 14525.83
447.4056, 14538.77
447.8878, 14557.95
448.3699, 14583.38
448.8520, 14605.06
449.3341, 14604.53
449.8162, 14561.90
450.2983, 14555.55
450.7805, 14616.01
451.2626, 14678.84
451.7447, 14709.55
452.2268, 14713.79
452.7089, 14715.66
453.1910, 14731.63
453.6732, 14756.73
454.1553, 14769.40
454.6374, 14762.81
455.1195, 14754.70
455.6016, 14731.92
456.0837, 14718.89
456.5659, 14743.81
457.0480, 14808.76
457.5301, 14880.35
458.0122, 14925.58
458.4943, 14944.96
458.9764, 14955.49
459.4586, 14951.23
459.9407, 14947.68
460.4228, 14951.67
460.9049, 14961.93
461.3870, 14978.86
461.8691, 15010.59
462.3513, 15035.76
462.8334, 15014.24
463.3155, 14948.81
463.7976, 14915.05
464.2797, 14950.82
464.7618, 15011.40
465.2440, 15038.12
465.7261, 15030.79
466.2082, 15026.56
466.6903, 15039.88
467.1724, 15061.97
467.6545, 15083.29
468.1367, 15102.90
468.6188, 15123.00
469.1009, 15147.86
469.5830, 15173.38
470.0651, 15179.38
470.5472, 15145.89
471.0294, 15120.89
471.5115, 15120.92
471.9936, 15134.22
472.4757, 15144.42
472.9578, 15147.85
473.4399, 15156.12
473.9221, 15186.43
474.4042, 15247.59
474.8863, 15278.44
475.3684, 15250.73
475.8505, 15226.61
476.3326, 15231.94
476.8148, 15255.98
477.2969, 15279.45
477.7790, 15293.05
478.2611, 15299.08
478.7432, 15299.42
479.2253, 15286.86
479.7075, 15289.44
480.1896, 15325.72
480.6717, 15365.22
481.1538, 15392.80
481.6359, 15408.35
482.1180, 15419.05
482.6002, 15431.36
483.0823, 15441.89
483.5644, 15435.92
484.0465, 15405.48
484.5286, 15388.64
485.0107, 15416.92
485.4929, 15460.49
485.9750, 15483.48
486.4571, 15479.49
486.9392, 15469.09
487.4213, 15455.56
487.9034, 15445.85
488.3856, 15461.65
488.8677, 15509.82
489.3498, 15556.30
489.8319, 15569.01
490.3140, 15550.26
490.7961, 15543.30
491.2783, 15558.79
491.7604, 15574.59
492.2425, 15576.07
492.7246, 15571.68
493.2067, 15579.52
493.6888, 15605.95
494.1710, 15638.52
494.6531, 15656.66
495.1352, 15651.54
495.6173, 15660.30
496.0994, 15698.41
496.5815, 15733.33
497.0637, 15743.34
497.5458, 15738.08
498.0279, 15742.87
498.5100, 15773.55
498.9921, 15814.53
499.4742, 15823.39
499.9564, 15783.28
500.4385, 15753.41
500.9206, 15742.92
501.4027, 15744.18
501.8848, 15756.85
502.3669, 15778.72
502.8491, 15802.38
503.3312, 15826.60
503.8133, 15848.13
504.2954, 15853.89
504.7775, 15838.95
505.2596, 15832.14
505.7418, 15855.02
506.2239, 15889.33
506.7060, 15910.76
507.1881, 15918.39
507.6702, 15911.71
508.1523, 15873.97
508.6345, 15827.07
509.1166, 15810.28
509.5987, 15829.42
510.0808, 15861.93
510.5629, 15895.29
511.0450, 15926.98
511.5272, 15933.22
512.0093, 15884.77
512.4914, 15849.06
512.9735, 15854.06
513.4556, 15879.52
513.9377, 15899.71
514.4199, 15907.25
514.9020, 15910.94
515.3841, 15925.87
515.8662, 15959.94
516.3483, 15951.19
516.8304, 15830.25
517.3126, 15740.04
517.7947, 15747.09
518.2768, 15802.35
518.7589, 15834.03
519.2410, 15813.54
519.7231, 15764.01
520.2053, 15705.62
520.6874, 15635.16
521.1695, 15610.75
521.6516, 15683.40
522.1337, 15747.72
522.6158, 15717.61
523.0980, 15622.38
523.5801, 15546.02
524.0622, 15526.28
524.5443, 15530.07
525.0264, 15535.53
525.5085, 15538.69
525.9907, 15509.25
526.4728, 15425.85
526.9549, 15329.31
527.4370, 15282.89
527.9191, 15293.52
528.4012, 15303.58
528.8834, 15315.64
529.3655, 15318.51
529.8476, 15295.55
530.3297, 15256.02
530.8118, 15227.46
531.2939, 15225.23
531.7761, 15238.61
532.2582, 15242.07
532.7403, 15244.77
533.2224, 15218.09
533.7045, 15127.74
534.1866, 15041.22
534.6688, 15003.41
535.1509, 15005.86
535.6330, 15013.04
536.1151, 15004.22
536.5972, 14981.24
537.0793, 14945.18
537.5615, 14891.33
538.0436, 14845.32
538.5257, 14824.45
539.0078, 14807.36
539.4899, 14773.25
539.9720, 14722.54
540.4542, 14675.00
540.9363, 14645.66
541.4184, 14622.79
541.9005, 14587.58
542.3826, 14540.16
542.8647, 14494.04
543.3469, 14452.40
543.8290, 14420.21
544.3111, 14415.94
544.7932, 14463.52
545.2753, 14479.14
545.7574, 14430.55
546.2396, 14359.82
546.7217, 14294.13
547.2038, 14239.82
547.6859, 14202.73
548.1680, 14188.39
548.6501, 14190.97
549.1323, 14185.08
549.6144, 14170.60
550.0965, 14147.03
550.5786, 14095.43
551.0607, 14050.28
551.5428, 14049.93
552.0250, 14086.87
552.5071, 14109.18
552.9892, 14070.25
553.4713, 13991.72
553.9534, 13934.50
554.4355, 13900.31
554.9177, 13879.92
555.3998, 13875.67
555.8819, 13879.47
556.3640, 13884.15
556.8461, 13891.71
557.3282, 13882.24
557.8104, 13829.73
558.2925, 13766.67
558.7746, 13733.85
559.2567, 13731.02
559.7388, 13735.22
560.2209, 13735.02
560.7031, 13728.22
561.1852, 13707.91
561.6673, 13664.77
562.1494, 13620.03
562.6315, 13564.76
563.1136, 13515.21
563.5958, 13480.96
564.0779, 13463.28
564.5600, 13464.79
565.0421, 13492.23
565.5242, 13531.48
566.0063, 13529.91
566.4885, 13469.40
566.9706, 13421.05
567.4527, 13411.67
567.9348, 13412.84
568.4169, 13409.10
568.8990, 13398.92
569.3812, 13381.70
569.8633, 13352.82
570.3454, 13319.17
570.8275, 13290.94
571.3096, 13267.94
571.7917, 13241.99
572.2739, 13203.50
572.7560, 13169.95
573.2381, 13178.58
573.7202, 13244.36
574.2023, 13290.72
574.6844, 13310.62
575.1666, 13309.22
575.6487, 13277.72
576.1308, 13228.05
576.6129, 13187.18
577.0950, 13169.10
577.5771, 13166.45
578.0593, 13163.97
578.5414, 13162.79
579.0235, 13158.48
579.5056, 13141.88
579.9877, 13130.40
580.4698, 13142.32
580.9520, 13165.01
581.4341, 13167.67
581.9162, 13130.04
582.3983, 13080.08
582.8804, 13059.63
583.3625, 13065.03
583.8447, 13054.75
584.3268, 13011.85
584.8089, 12967.72
585.2910, 12959.26
585.7731, 12982.70
586.2552, 12998.41
586.7374, 12999.79
587.2195, 12996.15
587.7016, 12988.87
588.1837, 12980.74
588.6658, 12977.83
589.1479, 12981.55
589.6301, 12984.33
590.1122, 12974.03
590.5943, 12946.85
591.0764, 12943.90
591.5585, 13005.18
592.0406, 13043.60
592.5228, 13031.49
593.0049, 12988.98
593.4870, 12931.68
593.9691, 12864.73
594.4512, 12810.93
594.9333, 12800.45
595.4155, 12822.73
595.8976, 12831.61
596.3797, 12823.05
596.8618, 12807.22
597.3439, 12781.99
597.8260, 12756.99
598.3082, 12758.92
598.7903, 12810.57
599.2724, 12831.82
599.7545, 12767.49
600.2366, 12678.31
600.7188, 12634.09
601.2009, 12634.64
601.6830, 12632.96
602.1651, 12596.09
602.6472, 12535.44
603.1293, 12493.30
603.6115, 12478.50
604.0936, 12466.53
604.5757, 12466.03
605.0578, 12458.63
605.5399, 12422.86
606.0220, 12369.06
606.5042, 12331.31
606.9863, 12335.36
607.4684, 12355.55
607.9505, 12349.82
608.4326, 12318.70
608.9147, 12286.17
609.3969, 12261.24
609.8790, 12231.58
610.3611, 12175.81
610.8432, 12096.99
611.3253, 12039.35
611.8074, 12022.50
612.2896, 12012.25
612.7717, 11991.28
613.2538, 11964.53
613.7359, 11945.56
614.2180, 11936.95
614.7001, 11920.18
615.1823, 11869.79
615.6644, 11783.25
616.1465, 11715.31
616.6286, 11677.75
617.1107, 11643.69
617.5928, 11604.78
618.0750, 11566.70
618.5571, 11540.38
619.0392, 11526.81
619.5213, 11503.61
620.0034, 11441.62
620.4855, 11361.00
620.9677, 11310.61
621.4498, 11293.57
621.9319, 11275.82
622.4140, 11241.53
622.8961, 11195.58
623.3782, 11146.26
623.8604, 11091.27
624.3425, 11040.79
624.8246, 11004.55
625.3067, 10965.88
625.7888, 10905.07
626.2709, 10832.96
626.7531, 10775.45
627.2352, 10745.63
627.7173, 10734.00
628.1994, 10732.76
628.6815, 10751.96
629.1636, 10722.14
629.6458, 10595.96
630.1279, 10476.54
630.6100, 10421.90
631.0921, 10406.09
631.5742, 10384.64
632.0563, 10346.47
632.5385, 10301.34
633.0206, 10256.01
633.5027, 10208.92
633.9848, 10153.47
634.4669, 10089.17
634.9490, 10030.77
635.4312, 9991.199
635.9133, 9964.632
636.3954, 9922.584
636.8775, 9841.707
637.3596, 9777.128
637.8417, 9743.004
638.3239, 9715.824
638.8060, 9681.944
639.2881, 9639.752
639.7702, 9590.981
640.2523, 9535.231
640.7344, 9477.201
641.2166, 9428.987
641.6987, 9391.158
642.1808, 9344.291
642.6629, 9279.403
643.1450, 9212.517
643.6271, 9161.390
644.1093, 9120.789
644.5914, 9072.163
645.0735, 9003.388
645.5556, 8937.439
646.0377, 8881.595
646.5198, 8836.553
647.0020, 8811.867
647.4841, 8805.137
647.9662, 8789.185
648.4483, 8737.938
648.9304, 8657.185
649.4125, 8585.765
649.8947, 8530.098
650.3768, 8472.653
650.8589, 8402.455
651.3410, 8336.068
651.8231, 8291.809
652.3052, 8264.728
652.7874, 8226.883
653.2695, 8155.114
653.7516, 8074.427
654.2337, 8019.361
654.7158, 7983.996
655.1979, 7938.816
655.6801, 7873.729
656.1622, 7807.591
656.6443, 7764.193
657.1264, 7746.045
657.6085, 7703.346
658.0906, 7607.138
658.5728, 7526.292
659.0549, 7490.200
659.5370, 7469.087
660.0191, 7428.890
660.5012, 7366.615
660.9833, 7306.391
661.4655, 7270.829
661.9476, 7250.575
662.4297, 7216.731
662.9118, 7167.777
663.3939, 7117.306
663.8760, 7067.152
664.3582, 7020.285
664.8403, 6985.867
665.3224, 6962.416
665.8045, 6924.334
666.2866, 6846.176
666.7687, 6774.772
667.2509, 6748.882
667.7330, 6743.273
668.2151, 6712.600
668.6972, 6646.713
669.1793, 6574.447
669.6614, 6524.964
670.1436, 6496.895
670.6257, 6471.683
671.1078, 6456.464
671.5899, 6429.174
672.0720, 6368.444
672.5541, 6303.543
673.0363, 6258.410
673.5184, 6232.940
674.0005, 6208.939
674.4826, 6182.790
674.9647, 6150.892
675.4468, 6105.916
675.9290, 6051.975
676.4111, 6000.728
676.8932, 5955.834
677.3753, 5916.259
677.8574, 5882.197
678.3395, 5854.100
678.8217, 5819.933
679.3038, 5774.348
679.7859, 5729.332
680.2680, 5684.431
680.7501, 5643.012
681.2322, 5609.666
681.7144, 5583.939
682.1965, 5558.839
682.6786, 5531.299
683.1607, 5500.956
683.6428, 5466.687
684.1249, 5428.744
684.6071, 5390.174
685.0892, 5351.346
685.5713, 5313.500
686.0534, 5277.958
686.5355, 5244.993
687.0176, 5211.631
687.4998, 5173.733
687.9819, 5140.705
688.4640, 5116.505
688.9461, 5097.319
689.4282, 5082.900
689.9103, 5070.633
690.3925, 5050.830
690.8746, 5013.158
691.3567, 4966.012
691.8388, 4931.533
692.3209, 4910.433
692.8030, 4883.246
693.2852, 4841.620
693.7673, 4798.436
694.2494, 4767.273
694.7315, 4747.437
695.2136, 4726.923
695.6957, 4710.357
696.1779, 4686.800
696.6600, 4639.013
697.1421, 4590.206
697.6242, 4574.109
698.1063, 4588.474
698.5884, 4596.448
699.0706, 4568.237
699.5527, 4516.679
700.0348, 4476.884
700.5169, 4449.547
700.9990, 4431.232
701.4811, 4428.264
701.9633, 4424.259
702.4454, 4401.420
702.9275, 4365.568
703.4096, 4335.645
703.8917, 4319.926
704.3738, 4302.534
704.8560, 4270.531
705.3381, 4236.660
705.8202, 4218.140
706.3023, 4214.615
706.7844, 4213.426
707.2665, 4206.971
707.7487, 4193.120
708.2308, 4162.549
708.7129, 4108.947
709.1950, 4069.117
709.6771, 4057.444
710.1592, 4047.044
710.6414, 4015.476
711.1235, 3973.577
711.6056, 3945.236
712.0877, 3939.008
712.5698, 3935.684
713.0519, 3932.988
713.5341, 3924.046
714.0162, 3892.198
714.4983, 3843.789
714.9804, 3809.651
715.4625, 3808.332
715.9446, 3823.475
716.4268, 3819.350
716.9089, 3790.791
717.3910, 3766.073
717.8731, 3747.211
718.3552, 3730.362
718.8373, 3715.966
719.3195, 3701.400
719.8016, 3682.344
720.2837, 3657.396
720.7658, 3632.140
721.2479, 3605.887
721.7300, 3583.038
722.2122, 3569.680
722.6943, 3564.201
723.1764, 3561.860
723.6585, 3560.723
724.1406, 3555.904
724.6227, 3538.331
725.1049, 3505.723
725.5870, 3480.775
726.0691, 3463.279
726.5512, 3454.179
727.0333, 3469.573
727.5154, 3483.613
727.9976, 3462.678
728.4797, 3405.269
728.9618, 3359.283
729.4439, 3353.498
729.9260, 3360.392
730.4081, 3358.807
730.8903, 3349.718
731.3724, 3337.212
731.8545, 3322.493
732.3366, 3303.653
732.8187, 3276.601
733.3008, 3243.163
733.7830, 3227.026
734.2651, 3242.221
734.7472, 3244.326
735.2293, 3208.308
735.7114, 3168.377
736.1935, 3150.225
736.6757, 3150.222
737.1578, 3147.900
737.6399, 3136.423
738.1220, 3121.668
738.6041, 3105.297
739.0862, 3089.137
739.5684, 3074.891
740.0505, 3063.574
740.5326, 3059.649
741.0147, 3067.792
741.4968, 3081.551
741.9789, 3080.402
742.4611, 3060.294
742.9432, 3039.899
743.4253, 3017.926
743.9074, 2999.921
744.3895, 2993.735
744.8716, 2992.237
745.3538, 2980.674
745.8359, 2952.519
746.3180, 2928.308
746.8001, 2918.978
747.2822, 2916.983
747.7643, 2918.621
748.2465, 2920.656
748.7286, 2914.924
749.2107, 2897.711
749.6928, 2876.369
750.1749, 2862.097
750.6570, 2855.277
751.1392, 2847.515
751.6213, 2839.890
752.1034, 2828.620
752.5855, 2809.432
753.0676, 2787.652
753.5497, 2767.678
754.0319, 2749.401
754.5140, 2740.790
754.9961, 2753.720
755.4782, 2766.413
755.9603, 2766.341
756.4424, 2757.157
756.9246, 2743.368
757.4067, 2726.928
757.8888, 2710.805
758.3709, 2697.154
758.8530, 2685.936
759.3351, 2676.851
759.8173, 2669.802
760.2994, 2666.543
760.7815, 2670.101
761.2636, 2672.858
761.7457, 2667.340
762.2278, 2655.291
762.7100, 2645.702
763.1921, 2643.760
763.6742, 2636.584
764.1563, 2615.196
764.6384, 2592.439
765.1205, 2577.547
765.6027, 2570.594
766.0848, 2570.458
766.5669, 2577.125
767.0490, 2582.001
767.5311, 2569.967
768.0132, 2545.039
768.4954, 2531.506
768.9775, 2532.338
769.4596, 2530.552
769.9417, 2516.406
770.4238, 2497.247
770.9059, 2485.698
771.3881, 2483.308
771.8702, 2483.087
772.3523, 2493.187
772.8344, 2495.719
773.3165, 2476.714
773.7986, 2451.521
774.2808, 2438.320
774.7629, 2438.715
775.2450, 2439.812
775.7271, 2432.742
776.2092, 2421.819
776.6913, 2412.760
777.1735, 2405.391
777.6556, 2398.514
778.1377, 2391.738
778.6198, 2388.441
779.1019, 2392.668
779.5840, 2401.989
780.0662, 2403.743
780.5483, 2394.255
781.0304, 2384.069
781.5125, 2371.542
781.9946, 2360.795
782.4767, 2355.819
782.9589, 2353.531
783.4410, 2347.780
783.9231, 2336.409
784.4052, 2324.801
784.8873, 2318.577
785.3694, 2312.292
785.8516, 2294.913
786.3337, 2271.023
786.8158, 2258.281
787.2979, 2263.637
787.7800, 2276.112
788.2621, 2282.162
788.7443, 2281.846
789.2264, 2277.844
789.7085, 2269.155
790.1906, 2259.355
790.6727, 2246.937
791.1548, 2236.188
791.6370, 2234.230
792.1191, 2239.117
792.6012, 2236.802
793.0833, 2216.240
793.5654, 2199.317
794.0475, 2197.970
794.5297, 2201.739
795.0118, 2201.842
795.4939, 2196.618
795.9760, 2184.418
796.4581, 2162.965
796.9402, 2143.134
797.4224, 2145.648
797.9045, 2166.297
798.3866, 2176.585
798.8687, 2173.599
799.3508, 2164.558
799.8329, 2150.801
800.3151, 2136.724
800.7972, 2130.958
801.2793, 2135.770
801.7614, 2140.020
802.2435, 2154.113
802.7256, 2155.075
803.2078, 2122.643
803.6899, 2082.645
804.1720, 2061.350
804.6541, 2060.804
805.1362, 2066.969
805.6183, 2076.982
806.1005, 2085.015
806.5826, 2084.273
807.0647, 2077.039
807.5468, 2067.424
808.0289, 2056.510
808.5110, 2046.089
808.9932, 2037.358
809.4753, 2030.160
809.9574, 2023.846
810.4395, 2019.692
810.9216, 2014.806
811.4037, 2015.425
811.8859, 2016.529
812.3680, 2018.152
812.8501, 2018.407
813.3322, 2012.442
813.8143, 1998.157
814.2964, 1991.852
814.7786, 2006.153
815.2607, 2019.935
815.7428, 2020.379
816.2249, 2012.817
816.7070, 2005.447
817.1891, 1999.670
817.6713, 1990.596
818.1534, 1970.977
818.6355, 1951.276
819.1176, 1957.997
819.5997, 1986.568
820.0818, 1999.500
820.5640, 1989.098
821.0461, 1972.540
821.5282, 1961.087
822.0103, 1953.194
822.4924, 1943.958
822.9745, 1929.620
823.4567, 1922.236
823.9388, 1929.173
824.4209, 1934.554
824.9030, 1932.293
825.3851, 1925.546
825.8672, 1918.737
826.3494, 1912.462
826.8315, 1903.727
827.3136, 1887.664
827.7957, 1871.888
828.2778, 1860.118
828.7599, 1854.284
829.2421, 1862.502
829.7242, 1883.074
830.2063, 1896.787
830.6884, 1887.432
831.1705, 1865.729
831.6526, 1859.209
832.1348, 1868.432
832.6169, 1876.602
833.0990, 1883.238
833.5811, 1883.306
834.0632, 1870.483
834.5453, 1851.611
835.0275, 1842.177
835.5096, 1846.891
835.9917, 1847.146
836.4738, 1841.686
836.9559, 1833.099
837.4380, 1817.032
837.9202, 1801.588
838.4023, 1796.883
838.8844, 1802.983
839.3665, 1810.263
839.8486, 1815.647
840.3307, 1817.393
840.8129, 1810.228
841.2950, 1799.243
841.7771, 1795.983
842.2592, 1800.990
842.7413, 1804.943
843.2234, 1801.691
843.7056, 1795.710
844.1877, 1798.469
844.6698, 1811.636
845.1519, 1811.006
845.6340, 1790.442
846.1161, 1771.635
846.5983, 1764.461
847.0804, 1762.855
847.5625, 1757.866
848.0446, 1749.041
848.5267, 1744.309
849.0089, 1746.185
849.4910, 1749.340
849.9731, 1753.467
850.4552, 1757.339
850.9373, 1761.163
851.4194, 1763.810
851.9016, 1761.728
852.3837, 1752.003
852.8658, 1742.180
853.3479, 1741.333
853.8300, 1744.017
854.3121, 1737.209
854.7943, 1723.493
855.2764, 1720.862
855.7585, 1737.213
856.2406, 1757.783
856.7227, 1763.142
857.2048, 1754.364
857.6870, 1745.111
858.1691, 1734.741
858.6512, 1726.521
859.1333, 1720.937
859.6154, 1718.383
860.0975, 1722.053
860.5797, 1729.629
861.0618, 1727.974
861.5439, 1704.091
862.0260, 1692.889
862.5081, 1712.899
862.9902, 1731.536
863.4724, 1727.126
863.9545, 1709.023
864.4366, 1692.499
864.9187, 1681.468
865.4008, 1676.020
865.8829, 1679.643
866.3651, 1686.042
866.8472, 1688.316
867.3293, 1687.484
867.8114, 1685.769
868.2935, 1683.913
868.7756, 1683.043
869.2578, 1684.190
869.7399, 1686.331
870.2220, 1686.540
870.7041, 1684.643
871.1862, 1685.117
871.6683, 1689.775
872.1505, 1691.334
872.6326, 1685.209
873.1147, 1674.717
873.5968, 1664.457
874.0789, 1653.354
874.5610, 1648.516
875.0432, 1653.842
875.5253, 1659.994
876.0074, 1664.508
876.4895, 1669.305
876.9716, 1679.152
877.4537, 1691.118
877.9359, 1694.482
878.4180, 1683.196
878.9001, 1668.870
879.3822, 1653.698
879.8643, 1642.802
880.3464, 1645.094
880.8286, 1656.514
881.3107, 1666.012
881.7928, 1669.414
882.2749, 1668.882
882.7570, 1666.206
883.2391, 1661.622
883.7213, 1655.807
884.2034, 1648.783
884.6855, 1639.523
885.1676, 1626.979
885.6497, 1618.672
886.1318, 1621.701
886.6140, 1632.020
887.0961, 1635.448
887.5782, 1627.823
888.0603, 1624.104
888.5424, 1627.455
889.0245, 1630.438
889.5067, 1629.162
889.9888, 1626.491
890.4709, 1625.818
890.9530, 1627.256
891.4351, 1628.416
891.9172, 1627.344
892.3994, 1627.722
892.8815, 1632.732
893.3636, 1638.615
893.8457, 1642.623
894.3278, 1644.061
894.8099, 1642.254
895.2921, 1636.731
895.7742, 1629.567
896.2563, 1619.063
896.7384, 1610.147
897.2205, 1615.099
897.7026, 1630.179
898.1848, 1638.476
898.6669, 1635.004
899.1490, 1630.111
899.6311, 1635.012
900.1132, 1645.061
900.5953, 1639.208
901.0775, 1614.971
901.5596, 1604.932
902.0417, 1617.465
902.5238, 1631.940
903.0059, 1637.268
903.4880, 1635.462
903.9702, 1629.183
904.4523, 1614.676
904.9344, 1610.947
905.4165, 1630.238
905.8986, 1644.403
906.3807, 1642.494
906.8629, 1636.780
907.3450, 1639.954
907.8271, 1649.368
908.3092, 1650.991
908.7913, 1635.259
909.2734, 1623.743
909.7556, 1628.561
910.2377, 1639.544
910.7198, 1653.442
911.2019, 1664.682
911.6840, 1660.295
912.1661, 1638.452
912.6483, 1620.536
913.1304, 1628.904
913.6125, 1647.968
914.0946, 1652.792
914.5767, 1646.689
915.0588, 1638.671
915.5410, 1630.834
916.0231, 1626.337
916.5052, 1627.473
916.9873, 1631.231
917.4694, 1630.227
917.9515, 1623.985
918.4337, 1629.173
918.9158, 1650.273
919.3979, 1661.257
919.8800, 1648.806
920.3621, 1631.956
920.8442, 1632.104
921.3264, 1647.082
921.8085, 1653.776
922.2906, 1643.825
922.7727, 1639.323
923.2548, 1641.943
923.7369, 1649.173
924.2191, 1667.058
924.7012, 1685.590
925.1833, 1686.527
925.6654, 1666.912
926.1475, 1654.919
926.6296, 1666.342
927.1118, 1678.675
927.5939, 1679.625
928.0760, 1676.188
928.5581, 1675.247
929.0402, 1677.582
929.5223, 1681.974
930.0045, 1688.149
930.4866, 1694.542
930.9687, 1699.937
931.4508, 1704.551
931.9329, 1711.240
932.4150, 1717.351
932.8972, 1711.833
933.3793, 1693.115
933.8614, 1676.277
934.3435, 1674.477
934.8256, 1683.662
935.3077, 1696.465
935.7899, 1712.267
936.2720, 1721.348
936.7541, 1722.129
937.2362, 1722.236
937.7183, 1725.719
938.2004, 1729.341
938.6826, 1727.570
939.1647, 1720.186
939.6468, 1717.699
940.1289, 1720.568
940.6110, 1727.724
941.0931, 1744.903
941.5753, 1758.464
942.0574, 1754.252
942.5395, 1740.000
943.0216, 1737.582
943.5037, 1752.448
943.9858, 1762.553
944.4680, 1763.656
944.9501, 1762.794
945.4322, 1757.713
945.9143, 1755.461
946.3964, 1767.998
946.8785, 1791.187
947.3607, 1802.875
947.8428, 1788.425
948.3249, 1777.333
948.8070, 1790.912
949.2891, 1810.428
949.7712, 1818.747
950.2534, 1818.881
950.7355, 1818.860
951.2176, 1821.042
951.6997, 1823.714
952.1818, 1824.636
952.6639, 1826.564
953.1461, 1833.019
953.6282, 1843.470
954.1103, 1860.448
954.5924, 1881.459
955.0745, 1891.806
955.5566, 1884.090
956.0388, 1869.785
956.5209, 1862.992
957.0030, 1863.291
957.4851, 1871.880
957.9672, 1888.688
958.4493, 1892.668
958.9315, 1877.016
959.4136, 1865.480
959.8957, 1877.167
960.3778, 1901.963
960.8599, 1913.575
961.3420, 1909.325
961.8242, 1904.758
962.3063, 1898.095
962.7884, 1895.856
963.2705, 1902.852
963.7526, 1911.467
964.2347, 1912.217
964.7169, 1907.079
965.1990, 1910.750
965.6811, 1928.567
966.1632, 1947.159
966.6453, 1972.771
967.1274, 1991.948
967.6096, 1994.632
968.0917, 1990.381
968.5738, 1990.609
969.0559, 1996.148
969.5380, 2002.975
970.0201, 2012.155
970.5023, 2019.824
970.9844, 2024.525
971.4665, 2027.303
971.9486, 2027.563
972.4307, 2027.059
972.9128, 2028.477
973.3950, 2032.568
973.8771, 2039.629
974.3592, 2053.742
974.8413, 2067.058
975.3234, 2070.707
975.8055, 2070.255
976.2877, 2073.051
976.7698, 2080.107
977.2519, 2092.116
977.7340, 2109.750
978.2161, 2122.688
978.6982, 2110.332
979.1804, 2127.926
979.6625, 2103.665
980.1446, 2139.691
980.6267, 2161.716
981.1088, 2162.950
981.5909, 2162.356
982.0731, 2172.893
982.5552, 2189.217
983.0373, 2202.737
983.5194, 2213.480
984.0015, 2221.925
984.4836, 2228.110
984.9658, 2230.079
985.4479, 2226.423
985.9300, 2226.026
986.4121, 2237.799
986.8942, 2258.203
987.3763, 2275.441
987.8585, 2290.219
988.3406, 2296.247
988.8227, 2290.866
989.3048, 2283.578
989.7869, 2273.948
990.2690, 2272.622
990.7512, 2296.655
991.2333, 2342.730
991.7154, 2367.809
992.1975, 2359.165
992.6796, 2356.298
993.1617, 2361.560
993.6439, 2373.325
994.1260, 2395.322
994.6081, 2420.929
995.0902, 2442.094
995.5723, 2458.931
996.0544, 2468.659
996.5366, 2463.730
997.0187, 2462.455
997.5008, 2470.139
997.9829, 2479.879
998.4650, 2486.996
998.9471, 2493.498
999.4293, 2501.953
999.9114, 2512.517
1000.393, 2529.590
1000.876, 2563.828
1001.358, 2592.686
1001.840, 2603.058
1002.322, 2606.862
1002.804, 2614.740
1003.286, 2625.038
1003.768, 2630.355
1004.250, 2628.216
1004.733, 2629.448
1005.215, 2636.047
1005.697, 2652.230
1006.179, 2693.590
1006.661, 2738.484
1007.143, 2754.390
1007.625, 2746.733
1008.107, 2745.412
1008.589, 2763.179
1009.072, 2784.422
1009.554, 2799.490
1010.036, 2807.930
1010.518, 2798.872
1011.000, 2786.513
1011.482, 2806.059
1011.964, 2854.840
1012.446, 2892.129
1012.929, 2895.026
1013.411, 2887.230
1013.893, 2893.852
1014.375, 2911.986
1014.857, 2942.885
1015.339, 2979.943
1015.821, 2998.577
1016.303, 2995.611
1016.785, 2993.900
1017.268, 3009.178
1017.750, 3033.119
1018.232, 3054.437
1018.714, 3072.765
1019.196, 3082.380
1019.678, 3085.448
1020.160, 3106.524
1020.642, 3152.229
1021.125, 3190.390
1021.607, 3192.993
1022.089, 3179.753
1022.571, 3200.165
1023.053, 3251.828
1023.535, 3284.510
1024.017, 3295.927
1024.499, 3299.832
1024.981, 3299.093
1025.464, 3303.190
1025.946, 3321.756
1026.428, 3349.846
1026.910, 3371.037
1027.392, 3384.021
1027.874, 3403.977
1028.356, 3433.619
1028.838, 3459.080
1029.321, 3474.686
1029.803, 3486.580
1030.285, 3499.251
1030.767, 3514.490
1031.249, 3541.544
1031.731, 3585.240
1032.213, 3623.079
1032.695, 3655.725
1033.177, 3678.698
1033.660, 3686.771
1034.142, 3689.903
1034.624, 3696.756
1035.106, 3707.859
1035.588, 3726.659
1036.070, 3757.929
1036.552, 3784.906
1037.034, 3800.678
1037.516, 3824.151
1037.999, 3870.633
1038.481, 3918.922
1038.963, 3943.260
1039.445, 3947.588
1039.927, 3962.598
1040.409, 3998.025
1040.891, 4026.986
1041.373, 4045.219
1041.855, 4062.161
1042.338, 4078.112
1042.820, 4096.518
1043.302, 4122.319
1043.784, 4154.458
1044.266, 4185.458
1044.748, 4217.697
1045.230, 4244.283
1045.712, 4257.518
1046.195, 4273.746
1046.677, 4306.860
1047.159, 4341.047
1047.641, 4350.592
1048.123, 4341.777
1048.605, 4361.536
1049.087, 4441.406
1049.569, 4501.796
1050.052, 4515.659
1050.534, 4526.070
1051.016, 4554.598
1051.498, 4588.462
1051.980, 4609.046
1052.462, 4619.366
1052.944, 4643.161
1053.426, 4689.886
1053.908, 4739.666
1054.391, 4794.344
1054.873, 4843.528
1055.355, 4883.074
1055.837, 4913.708
1056.319, 4930.324
1056.801, 4937.987
1057.283, 4960.939
1057.765, 5014.791
1058.248, 5060.198
1058.730, 5077.813
1059.212, 5093.216
1059.694, 5118.616
1060.176, 5151.034
1060.658, 5188.936
1061.140, 5230.117
1061.622, 5267.686
1062.104, 5297.675
1062.587, 5329.652
1063.069, 5363.693
1063.551, 5404.242
1064.033, 5461.295
1064.515, 5521.086
1064.997, 5567.099
1065.479, 5600.844
1065.961, 5635.355
1066.443, 5675.553
1066.926, 5711.824
1067.408, 5733.053
1067.890, 5757.342
1068.372, 5796.302
1068.854, 5843.762
1069.336, 5894.234
1069.818, 5946.055
1070.300, 5999.600
1070.782, 6057.629
1071.265, 6105.304
1071.747, 6131.224
1072.229, 6150.906
1072.711, 6164.233
1073.193, 6183.521
1073.675, 6229.385
1074.157, 6291.475
1074.639, 6336.390
1075.122, 6351.921
1075.604, 6373.784
1076.086, 6426.487
1076.568, 6480.595
1077.050, 6514.745
1077.532, 6544.923
1078.014, 6586.344
1078.496, 6638.671
1078.979, 6696.847
1079.461, 6759.832
1079.943, 6824.066
1080.425, 6901.638
1080.907, 6962.457
1081.389, 6968.487
1081.871, 6967.878
1082.353, 7010.741
1082.835, 7082.717
1083.318, 7146.405
1083.800, 7193.192
1084.282, 7234.458
1084.764, 7268.220
1085.246, 7306.510
1085.728, 7364.806
1086.210, 7421.544
1086.692, 7452.123
1087.175, 7469.759
1087.657, 7499.550
1088.139, 7545.708
1088.621, 7595.009
1089.103, 7638.166
1089.585, 7689.046
1090.067, 7763.760
1090.549, 7838.451
1091.031, 7898.061
1091.514, 7943.264
1091.996, 7967.211
1092.478, 7975.312
1092.960, 8008.330
1093.442, 8098.700
1093.924, 8180.384
1094.406, 8220.988
1094.888, 8254.229
1095.370, 8301.876
1095.853, 8355.657
1096.335, 8405.253
1096.817, 8449.372
1097.299, 8487.334
1097.781, 8513.217
1098.263, 8548.119
1098.745, 8607.213
1099.227, 8667.135
1099.709, 8709.748
1100.192, 8751.620
1100.674, 8813.542
1101.156, 8890.613
1101.638, 8960.649
1102.120, 9016.178
1102.602, 9077.349
1103.084, 9162.100
1103.566, 9236.765
1104.049, 9290.165
1104.531, 9326.207
1105.013, 9329.919
1105.495, 9323.861
1105.977, 9361.202
1106.459, 9454.025
1106.941, 9550.964
1107.423, 9656.423
1107.906, 9747.226
1108.388, 9813.483
1108.870, 9866.662
1109.352, 9908.560
1109.834, 9944.748
1110.316, 9979.791
1110.798, 10013.52
1111.280, 10066.31
1111.762, 10162.61
1112.245, 10244.04
1112.727, 10295.72
1113.209, 10340.55
1113.691, 10384.51
1114.173, 10430.71
1114.655, 10479.16
1115.137, 10530.88
1115.619, 10604.59
1116.102, 10739.07
1116.584, 10824.94
1117.066, 10815.83
1117.548, 10824.94
1118.030, 10904.75
1118.512, 11004.29
1118.994, 11076.42
1119.476, 11128.04
1119.958, 11187.32
1120.441, 11257.91
1120.923, 11323.85
1121.405, 11378.97
1121.887, 11444.12
1122.369, 11533.79
1122.851, 11617.00
1123.333, 11668.21
1123.815, 11699.47
1124.297, 11734.33
1124.780, 11770.62
1125.262, 11843.27
1125.744, 11972.03
1126.226, 12055.51
1126.708, 12057.67
1127.190, 12080.33
1127.672, 12191.25
1128.154, 12322.14
1128.636, 12367.95
1129.119, 12342.00
1129.601, 12358.25
1130.083, 12421.01
1130.565, 12478.84
1131.047, 12525.94
1131.529, 12570.27
1132.011, 12612.77
1132.493, 12669.67
1132.976, 12762.12
1133.458, 12871.71
1133.940, 12945.60
1134.422, 12985.88
1134.904, 13004.78
1135.386, 13005.86
1135.868, 13057.36
1136.350, 13176.42
1136.833, 13281.15
1137.315, 13310.71
1137.797, 13401.93
1138.279, 13457.52
1138.761, 13502.88
1139.243, 13566.01
1139.725, 13589.45
1140.207, 13630.59
1140.689, 13695.79
1141.172, 13750.76
1141.654, 13779.71
1142.136, 13815.84
1142.618, 13901.57
1143.100, 14008.55
1143.582, 14090.28
1144.064, 14155.89
1144.546, 14224.32
1145.029, 14295.25
1145.511, 14358.55
1145.993, 14412.83
1146.475, 14471.04
1146.957, 14545.00
1147.439, 14618.57
1147.921, 14673.55
1148.403, 14721.13
1148.885, 14774.04
1149.368, 14829.34
1149.850, 14876.73
1150.332, 14918.71
1150.814, 14971.02
1151.296, 15039.29
1151.778, 15121.24
1152.260, 15229.42
1152.742, 15334.07
1153.224, 15424.40
1153.707, 15494.15
1154.189, 15515.76
1154.671, 15518.87
1155.153, 15579.95
1155.635, 15715.50
1156.117, 15813.82
1156.599, 15796.83
1157.081, 15798.82
1157.563, 15865.71
1158.046, 15959.38
1158.528, 16078.40
1159.010, 16195.56
1159.492, 16271.45
1159.974, 16309.83
1160.456, 16361.88
1160.938, 16440.65
1161.420, 16515.05
1161.903, 16556.64
1162.385, 16633.15
1162.867, 16798.72
1163.349, 16964.14
1163.831, 17058.36
1164.313, 17103.00
1164.795, 17148.62
1165.277, 17196.25
1165.760, 17232.62
1166.242, 17239.84
1166.724, 17299.60
1167.206, 17442.86
1167.688, 17577.42
1168.170, 17651.24
1168.652, 17705.76
1169.134, 17792.76
1169.616, 17906.92
1170.099, 18030.37
1170.581, 18163.82
1171.063, 18250.94
1171.545, 18288.18
1172.027, 18343.95
1172.509, 18439.81
1172.991, 18542.11
1173.473, 18624.92
1173.956, 18702.02
1174.438, 18794.91
1174.920, 18902.23
1175.402, 19028.00
1175.884, 19162.70
1176.366, 19269.07
1176.848, 19346.97
1177.330, 19425.44
1177.813, 19516.98
1178.295, 19605.49
1178.777, 19663.60
1179.259, 19732.64
1179.741, 19892.94
1180.223, 20076.23
1180.705, 20171.20
1181.187, 20212.51
1181.669, 20285.75
1182.151, 20403.19
1182.634, 20522.73
1183.116, 20625.68
1183.598, 20724.62
1184.080, 20809.89
1184.562, 20912.61
1185.044, 21060.68
1185.526, 21230.58
1186.008, 21417.95
1186.490, 21601.33
1186.973, 21727.79
1187.455, 21783.20
1187.937, 21876.94
1188.419, 22073.29
1188.901, 22246.32
1189.383, 22356.38
1189.865, 22456.59
1190.347, 22558.07
1190.830, 22675.25
1191.312, 22837.18
1191.794, 23028.86
1192.276, 23172.24
1192.758, 23236.72
1193.240, 23365.55
1193.722, 23594.77
1194.204, 23773.62
1194.687, 23849.18
1195.169, 23929.00
1195.651, 24085.22
1196.133, 24273.71
1196.615, 24420.16
1197.097, 24536.97
1197.579, 24713.49
1198.061, 24946.08
1198.543, 25142.02
1199.026, 25295.10
1199.508, 25443.83
1199.990, 25600.66
1200.472, 25760.64
1200.954, 25918.51
1201.436, 26076.10
1201.918, 26229.29
1202.400, 26389.40
1202.883, 26594.96
1203.365, 26819.51
1203.847, 26989.55
1204.329, 27114.93
1204.811, 27271.07
1205.293, 27484.63
1205.775, 27709.41
1206.257, 27916.35
1206.740, 28119.95
1207.222, 28333.33
1207.704, 28545.69
1208.186, 28737.00
1208.668, 28926.89
1209.150, 29149.52
1209.632, 29402.05
1210.114, 29650.49
1210.596, 29879.63
1211.078, 30127.68
1211.561, 30431.24
1212.043, 30717.79
1212.525, 30959.02
1213.007, 31182.66
1213.489, 31388.16
1213.971, 31601.08
1214.453, 31863.93
1214.935, 32173.53
1215.417, 32474.59
1215.900, 32761.61
1216.382, 33060.84
1216.864, 33376.21
1217.346, 33681.95
1217.828, 33967.52
1218.310, 34254.36
1218.792, 34560.03
1219.274, 34886.74
1219.757, 35255.91
1220.239, 35649.75
1220.721, 35974.86
1221.203, 36249.57
1221.685, 36558.28
1222.167, 36909.18
1222.649, 37284.65
1223.131, 37676.06
1223.614, 38047.12
1224.096, 38354.76
1224.578, 38680.12
1225.060, 39138.07
1225.542, 39640.91
1226.024, 40080.20
1226.506, 40490.43
1226.988, 40926.29
1227.470, 41389.41
1227.953, 41859.08
1228.435, 42326.24
1228.917, 42808.67
1229.399, 43323.57
1229.881, 43834.81
1230.363, 44338.23
1230.845, 44831.81
1231.327, 45273.46
1231.810, 45735.13
1232.292, 46328.91
1232.774, 47018.09
1233.256, 47647.25
1233.738, 48190.25
1234.220, 48791.46
1234.702, 49475.20
1235.184, 50123.77
1235.667, 50703.20
1236.149, 51286.42
1236.631, 51904.88
1237.113, 52559.93
1237.595, 53261.37
1238.077, 53992.77
1238.559, 54715.40
1239.041, 55433.48
1239.523, 56162.73
1240.005, 56915.09
1240.488, 57728.54
1240.970, 58599.07
1241.452, 59436.46
1241.934, 60202.05
1242.416, 61022.85
1242.898, 62064.32
1243.380, 63163.51
1243.862, 64184.33
1244.344, 65155.71
1244.827, 66067.66
1245.309, 66987.16
1245.791, 68024.27
1246.273, 69176.82
1246.755, 70360.80
1247.237, 71580.79
1247.719, 72745.44
1248.201, 73713.13
1248.684, 74801.04
1249.166, 76184.56
1249.648, 77614.33
1250.130, 78921.65
1250.612, 80218.11
1251.094, 81671.44
1251.576, 83256.09
1252.058, 84792.09
1252.541, 86279.96
1253.023, 87669.49
1253.505, 88939.89
1253.987, 90474.82
1254.469, 92371.71
1254.951, 94336.02
1255.433, 96199.80
1255.915, 98024.87
1256.397, 99867.83
1256.880, 101751.8
1257.362, 103708.7
1257.844, 105733.3
1258.326, 107820.7
1258.808, 109956.6
1259.290, 112147.6
1259.772, 114374.6
1260.254, 116587.2
1260.737, 118743.3
1261.219, 121008.6
1261.701, 123578.8
1262.183, 126131.8
1262.665, 128412.7
1263.147, 130740.3
1263.629, 133412.8
1264.111, 136238.3
1264.594, 138961.1
1265.076, 141577.1
1265.558, 144122.9
1266.040, 146542.1
1266.522, 149110.0
1267.004, 151863.9
1267.486, 154660.5
1267.968, 157490.4
1268.450, 160300.1
1268.932, 163068.0
1269.415, 165778.9
1269.897, 168447.3
1270.379, 171053.1
1270.861, 173572.4
1271.343, 176006.8
1271.825, 178347.3
1272.307, 180613.0
1272.789, 182876.0
1273.271, 185103.3
1273.754, 187069.4
1274.236, 188710.6
1274.718, 190336.4
1275.200, 192151.7
1275.682, 194000.8
1276.164, 195910.7
1276.646, 197687.9
1277.128, 199277.0
1277.611, 200585.8
1278.093, 201378.7
1278.575, 201820.0
1279.057, 202434.3
1279.539, 203287.3
1280.021, 203990.4
1280.503, 204434.6
1280.985, 204944.4
1281.468, 205676.3
1281.950, 206216.9
1282.432, 206381.1
1282.914, 206452.9
1283.396, 206667.2
1283.878, 206968.7
1284.360, 207274.8
1284.842, 207481.1
1285.324, 207329.0
##END=



