##NAMES=Laihunite
##RRUFFID=R110051
##IDEAL CHEMISTRY=(Fe^3+^,Fe^2+^,[box])_2_SiO_4_
##LOCALITY=Laihe Fe deposit, Qianshan District, Anshan Prefecture, Liaoning Province, China
##OWNER=RRUFF
##SOURCE=Pingqu Fu
##DESCRIPTION=Unconsolidated black subhedral grains. Type sample
##STATUS=The identification of this mineral has been confirmed by single-crystal X-ray diffraction.
##URL=rruff.info/R110051
125.3517, 0.0000000E+00
125.8338, 0.9864880
126.3159, 2.357521
126.7980, 2.575050
127.2802, 1.803467
127.7623, 0.8586580
128.2444, 0.3869250
128.7265, 0.5063170
129.2086, 0.5745770
129.6907, 0.3001400
130.1729, 9.7930998E-02
130.6550, 0.2686840
131.1371, 1.064972
131.6192, 2.062897
132.1013, 2.025513
132.5834, 0.8749470
133.0656, 0.3911900
133.5477, 1.052101
134.0298, 2.004333
134.5119, 2.666451
134.9940, 2.832962
135.4761, 2.577393
135.9583, 2.057007
136.4404, 0.5964360
136.9225, 0.3215710
137.4046, 0.5059890
137.8867, 0.1240920
138.3688, 0.7536700
138.8510, 2.218781
139.3331, 3.898483
139.8152, 4.543716
140.2973, 3.817421
140.7794, 2.834747
141.2615, 1.827415
141.7437, 0.8665920
142.2258, 0.2849200
142.7079, 0.4218060
143.1900, 1.001572
143.6721, 1.393555
144.1542, 1.568245
144.6364, 1.549835
145.1185, 1.262444
145.6006, 0.6406250
146.0827, 0.1495290
146.5648, 0.1135560
147.0469, 0.3105390
147.5291, 0.5362630
148.0112, 0.7044070
148.4933, 0.8759380
148.9754, 1.162323
149.4575, 1.529488
149.9396, 2.151459
150.4218, 3.552696
150.9039, 5.170845
151.3860, 6.174644
151.8681, 5.943817
152.3502, 4.688499
152.8323, 4.269569
153.3145, 5.889778
153.7966, 7.235138
154.2787, 7.947769
154.7608, 8.029503
155.2429, 7.527824
155.7250, 6.371162
156.2072, 4.459099
156.6893, 3.501083
157.1714, 3.893341
157.6535, 4.651100
158.1356, 5.738869
158.6177, 6.941261
159.0999, 7.670425
159.5820, 7.283897
160.0641, 5.535675
160.5462, 4.297348
161.0283, 3.541801
161.5104, 3.279228
161.9926, 3.814552
162.4747, 5.163383
162.9568, 6.453934
163.4389, 6.665092
163.9210, 5.850800
164.4031, 4.977051
164.8853, 3.959633
165.3674, 3.043968
165.8495, 2.726753
166.3316, 3.257805
166.8137, 3.885239
167.2958, 3.877045
167.7780, 3.363731
168.2601, 2.735298
168.7422, 1.963531
169.2243, 1.170280
169.7064, 0.9257130
170.1885, 1.681427
170.6707, 2.516342
171.1528, 2.925148
171.6349, 2.919243
172.1170, 2.603348
172.5991, 1.765541
173.0812, 0.3440400
173.5634, 0.2698440
174.0455, 0.9598690
174.5276, 2.291382
175.0097, 3.133003
175.4918, 3.413948
175.9739, 3.262001
176.4561, 2.698944
176.9382, 1.275314
177.4203, 0.6407700
177.9024, 1.314812
178.3845, 2.321678
178.8666, 3.702339
179.3488, 5.262550
179.8309, 6.527107
180.3130, 6.647392
180.7951, 4.612473
181.2772, 3.536331
181.7593, 4.106155
182.2415, 5.263748
182.7236, 5.712959
183.2057, 5.094597
183.6878, 4.454765
184.1699, 5.264183
184.6520, 8.837105
185.1342, 11.04634
185.6163, 10.95298
186.0984, 9.914848
186.5805, 9.361870
187.0626, 9.730438
187.5447, 10.52584
188.0269, 10.97803
188.5090, 11.10148
188.9911, 10.97782
189.4732, 10.46545
189.9553, 9.739418
190.4374, 9.088463
190.9196, 8.572586
191.4017, 8.191689
191.8838, 7.889427
192.3659, 7.634430
192.8480, 7.602875
193.3301, 8.067581
193.8123, 8.867645
194.2944, 9.396111
194.7765, 9.357803
195.2586, 9.109619
195.7407, 9.051445
196.2228, 9.175156
196.7050, 9.360947
197.1871, 9.398567
197.6692, 9.308060
198.1513, 9.690422
198.6334, 11.04166
199.1155, 12.61159
199.5977, 14.07455
200.0798, 15.36837
200.5619, 16.23557
201.0440, 16.20570
201.5261, 15.07829
202.0082, 14.39732
202.4904, 14.73950
202.9725, 15.31453
203.4546, 15.77129
203.9367, 16.05682
204.4188, 16.30606
204.9009, 16.72368
205.3831, 17.43729
205.8652, 17.91296
206.3473, 17.65195
206.8294, 17.51981
207.3115, 18.21645
207.7936, 19.75116
208.2758, 21.46161
208.7579, 22.46798
209.2400, 22.76838
209.7221, 22.21831
210.2042, 19.73435
210.6863, 17.30053
211.1685, 16.33241
211.6506, 17.06849
212.1327, 18.70265
212.6148, 20.13250
213.0969, 21.41961
213.5790, 22.24937
214.0612, 22.76253
214.5433, 22.78163
215.0254, 21.92453
215.5075, 20.17339
215.9896, 18.19222
216.4717, 16.98465
216.9539, 17.13225
217.4360, 16.62962
217.9181, 14.93679
218.4002, 12.83145
218.8823, 10.97051
219.3644, 9.516754
219.8466, 8.434975
220.3287, 7.767509
220.8108, 7.585236
221.2929, 7.378860
221.7750, 7.189285
222.2571, 6.900108
222.7393, 6.243240
223.2214, 5.100464
223.7035, 3.975998
224.1856, 3.674248
224.6677, 4.125893
225.1498, 4.373360
225.6320, 4.203613
226.1141, 3.672485
226.5962, 2.672775
227.0783, 0.9450680
227.5604, 0.5350190
228.0425, 0.3683320
228.5247, 1.035568
229.0068, 2.001175
229.4889, 1.280602
229.9710, 0.2783430
230.4531, 0.6270370
230.9352, 0.9079060
231.4174, 2.650833
231.8995, 3.526268
232.3816, 3.652328
232.8637, 3.283646
233.3458, 2.152168
233.8279, 0.5813370
234.3101, 0.3550640
234.7922, 0.3839800
235.2743, 0.1456450
235.7564, 6.4208999E-02
236.2385, 0.2352290
236.7206, 0.3510890
237.2028, 0.4682690
237.6849, 0.5268940
238.1670, 0.1977690
238.6491, 0.9626310
239.1312, 1.830521
239.6133, 1.823524
240.0955, 1.277634
240.5776, 0.7975010
241.0597, 0.8500060
241.5418, 1.221390
242.0239, 0.7668300
242.5060, 1.650871
242.9882, 3.306770
243.4703, 2.871895
243.9524, 1.359550
244.4345, 0.2714080
244.9166, 0.5270690
245.3987, 1.800919
245.8809, 2.549164
246.3630, 2.348145
246.8451, 2.122261
247.3272, 1.973137
247.8093, 1.936279
248.2914, 2.119263
248.7736, 2.610924
249.2557, 3.243736
249.7378, 3.307304
250.2199, 1.901520
250.7020, 1.043388
251.1841, 1.460220
251.6663, 2.401093
252.1484, 2.964821
252.6305, 2.714432
253.1126, 1.886253
253.5947, 1.200951
254.0768, 0.3474960
254.5590, 9.1178998E-02
255.0411, 1.097412
255.5232, 2.476212
256.0053, 3.092972
256.4874, 2.473656
256.9695, 1.279343
257.4517, 1.109703
257.9338, 3.759705
258.4159, 5.300056
258.8980, 4.810966
259.3801, 3.588531
259.8622, 3.011223
260.3444, 3.550949
260.8265, 4.683502
261.3086, 5.430023
261.7907, 5.553802
262.2728, 5.620140
262.7549, 5.589951
263.2371, 5.527122
263.7192, 5.367470
264.2013, 5.112183
264.6834, 5.098457
265.1655, 5.937500
265.6476, 8.365829
266.1298, 9.780113
266.6119, 9.442863
267.0940, 8.456795
267.5761, 7.695503
268.0582, 7.352180
268.5403, 7.417221
269.0225, 7.970932
269.5046, 9.190735
269.9867, 10.07283
270.4688, 10.41022
270.9509, 10.51520
271.4330, 10.61695
271.9152, 10.75018
272.3973, 10.89119
272.8794, 11.00447
273.3615, 11.08984
273.8436, 11.26109
274.3257, 11.75571
274.8079, 12.17113
275.2900, 12.07043
275.7721, 11.46930
276.2542, 10.88175
276.7363, 10.63239
277.2184, 10.76310
277.7006, 11.16202
278.1827, 12.21701
278.6648, 13.22990
279.1469, 13.64251
279.6290, 13.50852
280.1111, 13.32983
280.5933, 13.46924
281.0754, 13.75182
281.5575, 13.60277
282.0396, 12.58921
282.5217, 11.67384
283.0038, 11.66827
283.4860, 12.37818
283.9681, 12.72709
284.4502, 12.03587
284.9323, 10.84877
285.4144, 10.27638
285.8965, 10.55436
286.3787, 11.07464
286.8608, 11.69121
287.3429, 12.30272
287.8250, 12.53874
288.3071, 12.33142
288.7892, 11.71178
289.2714, 10.37634
289.7535, 8.174507
290.2356, 6.474998
290.7177, 6.064476
291.1998, 6.643890
291.6819, 7.535568
292.1641, 8.770737
292.6462, 9.830223
293.1283, 10.03960
293.6104, 9.509979
294.0925, 9.045807
294.5746, 9.005684
295.0568, 9.236992
295.5389, 9.500633
296.0210, 9.784538
296.5031, 9.914185
296.9852, 9.701904
297.4673, 9.412651
297.9495, 9.577278
298.4316, 10.89438
298.9137, 12.51100
299.3958, 13.05829
299.8779, 12.38004
300.3600, 11.58080
300.8422, 11.15532
301.3243, 11.05707
301.8064, 11.31236
302.2885, 12.32795
302.7706, 13.31060
303.2527, 13.03970
303.7349, 11.38957
304.2170, 10.25628
304.6991, 11.05957
305.1812, 12.65955
305.6633, 13.42303
306.1454, 12.85991
306.6276, 12.17780
307.1097, 12.71524
307.5918, 14.37172
308.0739, 15.33152
308.5560, 14.59136
309.0381, 13.22346
309.5203, 12.39531
310.0024, 12.14560
310.4845, 12.29463
310.9666, 13.03500
311.4487, 14.18039
311.9308, 14.73844
312.4130, 14.25887
312.8951, 13.51088
313.3772, 13.31401
313.8593, 13.56477
314.3414, 13.57230
314.8235, 12.69038
315.3057, 11.32269
315.7878, 10.57083
316.2699, 10.72462
316.7520, 11.02442
317.2341, 10.73227
317.7162, 10.14975
318.1984, 9.981247
318.6805, 11.05599
319.1626, 12.42558
319.6447, 12.31851
320.1268, 10.39406
320.6089, 8.717827
321.0911, 8.996880
321.5732, 10.10110
322.0553, 10.40141
322.5374, 9.178795
323.0195, 7.716629
323.5016, 7.391754
323.9838, 8.208366
324.4659, 9.196953
324.9480, 10.15659
325.4301, 10.98206
325.9122, 11.67142
326.3943, 12.30721
326.8765, 12.39283
327.3586, 11.18803
327.8407, 8.955780
328.3228, 7.177071
328.8049, 6.075699
329.2870, 5.747688
329.7692, 6.708389
330.2513, 8.802414
330.7334, 10.09991
331.2155, 8.843277
331.6976, 6.194130
332.1797, 5.043541
332.6619, 6.103996
333.1440, 7.493111
333.6261, 7.601456
334.1082, 6.847321
334.5903, 6.134911
335.0724, 5.974602
335.5546, 5.883202
336.0367, 5.061188
336.5188, 3.415367
337.0009, 1.998146
337.4830, 1.487427
337.9651, 1.623497
338.4473, 1.897598
338.9294, 2.279755
339.4115, 2.645439
339.8936, 2.909561
340.3757, 3.077202
340.8578, 3.181580
341.3400, 3.342453
341.8221, 3.310715
342.3042, 2.466232
342.7863, 0.4943620
343.2684, 0.5477140
343.7505, 1.181770
344.2327, 4.426079
344.7148, 6.249207
345.1969, 5.820770
345.6790, 4.552383
346.1611, 3.619926
346.6432, 2.847610
347.1254, 2.125832
347.6075, 1.421776
348.0896, 0.7800290
348.5717, 0.1733780
349.0538, 0.4149780
349.5359, 0.6293410
350.0181, 2.1637000E-02
350.5002, 1.308708
350.9823, 2.139786
351.4644, 2.391106
351.9465, 2.138474
352.4286, 0.9187320
352.9108, 0.9577790
353.3929, 1.966812
353.8750, 1.188049
354.3571, 0.7606050
354.8392, 2.373535
355.3214, 3.773674
355.8035, 4.744530
356.2856, 5.055176
356.7677, 4.803055
357.2498, 3.998566
357.7319, 2.515205
358.2141, 1.208687
358.6962, 1.541527
359.1783, 3.916115
359.6604, 5.358025
360.1425, 4.894135
360.6246, 3.752998
361.1068, 3.023232
361.5889, 2.811150
362.0710, 2.724640
362.5531, 2.407349
363.0352, 1.877312
363.5173, 1.700569
363.9995, 2.140976
364.4816, 2.645386
364.9637, 3.007057
365.4458, 3.223068
365.9279, 3.317413
366.4100, 3.297066
366.8922, 3.168594
367.3743, 2.948708
367.8564, 2.512039
368.3385, 2.167122
368.8206, 1.837265
369.3027, 1.667778
369.7849, 2.003166
370.2670, 2.901054
370.7491, 3.790184
371.2312, 3.807213
371.7133, 2.440750
372.1954, 1.791000
372.6776, 2.386665
373.1597, 3.191727
373.6418, 3.615013
374.1239, 3.642487
374.6060, 3.533295
375.0881, 3.482330
375.5703, 3.501068
376.0524, 3.561798
376.5345, 3.721252
377.0166, 3.834328
377.4987, 3.867981
377.9808, 3.898949
378.4630, 3.954430
378.9451, 4.136375
379.4272, 4.326485
379.9093, 4.130562
380.3914, 3.164162
380.8735, 2.448776
381.3557, 1.942757
381.8378, 1.716652
382.3199, 2.076981
382.8020, 2.919212
383.2841, 3.568367
383.7662, 3.113205
384.2484, 1.277328
384.7305, 0.2654720
385.2126, 0.6729130
385.6947, 1.373856
386.1768, 2.321320
386.6589, 3.281830
387.1411, 3.883865
387.6232, 3.878403
388.1053, 3.396309
388.5874, 2.847633
389.0695, 1.984665
389.5516, 1.552940
390.0338, 1.914185
390.5159, 2.610207
390.9980, 3.390869
391.4801, 4.174042
391.9622, 4.594200
392.4443, 3.955956
392.9265, 2.091904
393.4086, 0.7943800
393.8907, 0.7329940
394.3728, 0.8993230
394.8549, 0.6064380
395.3370, 1.0612000E-02
395.8192, 0.3453450
396.3013, 9.5031999E-02
396.7834, 1.112602
397.2655, 2.120163
397.7476, 3.218201
398.2297, 4.037125
398.7119, 4.542473
399.1940, 4.609344
399.6761, 3.809822
400.1582, 1.593842
400.6403, 0.5239330
401.1224, 0.5352630
401.6046, 1.421402
402.0867, 2.355797
402.5688, 0.6635970
403.0509, 1.609673
403.5330, 1.884712
404.0151, 0.1312710
404.4973, 1.602737
404.9794, 2.411797
405.4615, 2.627113
405.9436, 2.879128
406.4257, 3.278801
406.9078, 3.343079
407.3900, 2.400642
407.8721, 0.7578740
408.3542, 0.1756520
408.8363, 0.1345140
409.3184, 0.7851720
409.8005, 1.355186
410.2827, 1.814301
410.7648, 2.031380
411.2469, 1.962303
411.7290, 1.711205
412.2111, 1.172325
412.6932, 3.0990999E-02
413.1754, 0.7657550
413.6575, 0.5495760
414.1396, 7.6691002E-02
414.6217, 0.5299680
415.1038, 0.7188340
415.5859, 0.9785540
416.0681, 1.736252
416.5502, 3.102554
417.0323, 3.622978
417.5144, 2.730133
417.9965, 1.736084
418.4786, 1.080284
418.9608, 0.7290650
419.4429, 0.4746090
419.9250, 0.2140730
420.4071, 7.3325999E-02
420.8892, 0.4394070
421.3713, 2.119987
421.8535, 3.062737
422.3356, 2.744858
422.8177, 2.051849
423.2998, 1.533447
423.7819, 1.332344
424.2640, 1.425667
424.7462, 1.850929
425.2283, 2.456276
425.7104, 3.397415
426.1925, 5.723015
426.6746, 7.215706
427.1567, 6.868500
427.6389, 5.369293
428.1210, 3.655823
428.6031, 2.081345
429.0852, 0.8963390
429.5673, 0.8222200
430.0494, 2.215462
430.5316, 3.265747
431.0137, 3.583420
431.4958, 3.416245
431.9779, 2.615189
432.4600, 1.274605
432.9421, 0.1575090
433.4243, 9.8899998E-02
433.9064, 0.8005290
434.3885, 0.7998890
434.8706, 0.4204860
435.3527, 1.288811
435.8348, 0.1958920
436.3170, 1.833931
436.7991, 3.060226
437.2812, 2.717300
437.7633, 1.918579
438.2454, 1.560379
438.7275, 1.623711
439.2097, 2.090408
439.6918, 3.196869
440.1739, 4.345360
440.6560, 4.525894
441.1381, 3.669891
441.6202, 2.874176
442.1024, 2.319656
442.5845, 2.070633
443.0666, 2.411156
443.5487, 3.303955
444.0308, 4.026344
444.5129, 3.985710
444.9951, 3.270760
445.4772, 2.778252
445.9593, 2.715607
446.4414, 2.599152
446.9235, 2.137314
447.4056, 1.570641
447.8878, 1.323746
448.3699, 1.532249
448.8520, 1.883545
449.3341, 1.862839
449.8162, 1.176476
450.2983, 0.9736790
450.7805, 1.647224
451.2626, 2.360748
451.7447, 2.655365
452.2268, 2.621597
452.7089, 2.626663
453.1910, 2.925911
453.6732, 3.387344
454.1553, 3.491814
454.6374, 2.869743
455.1195, 2.470192
455.6016, 2.597450
456.0837, 2.876312
456.5659, 3.048378
457.0480, 3.045456
457.5301, 2.858063
458.0122, 2.259697
458.4943, 1.216209
458.9764, 0.9697270
459.4586, 2.292076
459.9407, 3.388847
460.4228, 3.062759
460.9049, 1.841972
461.3870, 0.9950790
461.8691, 1.201683
462.3513, 1.751366
462.8334, 1.761574
463.3155, 1.260750
463.7976, 1.127815
464.2797, 1.698807
464.7618, 2.500717
465.2440, 2.892433
465.7261, 2.874649
466.2082, 2.706329
466.6903, 2.317924
467.1724, 1.944992
467.6545, 1.997116
468.1367, 2.464584
468.6188, 2.682854
469.1009, 2.087128
469.5830, 0.9122010
470.0651, 0.3429030
470.5472, 0.8775940
471.0294, 1.290260
471.5115, 1.120682
471.9936, 0.7896960
472.4757, 0.7606280
472.9578, 1.133789
473.4399, 1.574631
473.9221, 1.684135
474.4042, 1.410080
474.8863, 1.077652
475.3684, 0.4914860
475.8505, 5.4359000E-02
476.3326, 6.2035002E-02
476.8148, 0.1107330
477.2969, 0.4030690
477.7790, 0.8096850
478.2611, 1.334656
478.7432, 2.043442
479.2253, 3.123795
479.7075, 3.826241
480.1896, 4.220970
480.6717, 4.085442
481.1538, 2.631615
481.6359, 0.3275220
482.1180, 1.051590
482.6002, 0.2429890
483.0823, 3.155235
483.5644, 4.659264
484.0465, 4.468643
484.5286, 3.875534
485.0107, 3.309639
485.4929, 2.698364
485.9750, 1.837830
486.4571, 0.6001590
486.9392, 0.2991180
487.4213, 0.2480770
487.9034, 0.4428630
488.3856, 1.138786
488.8677, 1.768242
489.3498, 2.198257
489.8319, 2.162735
490.3140, 1.741325
490.7961, 1.863647
491.2783, 3.490936
491.7604, 4.685333
492.2425, 4.035339
492.7246, 2.358833
493.2067, 1.314590
493.6888, 1.612137
494.1710, 2.551193
494.6531, 3.101738
495.1352, 3.226166
495.6173, 3.024231
496.0994, 2.287956
496.5815, 1.478142
497.0637, 0.6723860
497.5458, 1.9638000E-02
498.0279, 0.4286420
498.5100, 0.4558560
498.9921, 0.1616210
499.4742, 0.3596340
499.9564, 1.273804
500.4385, 1.987671
500.9206, 2.580276
501.4027, 2.824654
501.8848, 2.266571
502.3669, 1.091080
502.8491, 0.2173460
503.3312, 0.5373840
503.8133, 1.555313
504.2954, 1.756378
504.7775, 0.8826450
505.2596, 0.4467320
505.7418, 1.711967
506.2239, 3.507439
506.7060, 4.059402
507.1881, 2.990410
507.6702, 1.885223
508.1523, 1.541397
508.6345, 1.680168
509.1166, 1.868385
509.5987, 2.040733
510.0808, 2.236923
510.5629, 2.531059
511.0450, 2.891907
511.5272, 2.994423
512.0093, 2.536575
512.4914, 2.214455
512.9735, 2.365967
513.4556, 2.713478
513.9377, 2.852028
514.4199, 2.687492
514.9020, 2.484978
515.3841, 2.592918
515.8662, 3.068504
516.3483, 3.457115
516.8304, 3.859688
517.3126, 4.065636
517.7947, 3.871292
518.2768, 3.477470
518.7589, 3.255684
519.2410, 3.371094
519.7231, 3.392174
520.2053, 2.381493
520.6874, 0.2010040
521.1695, 0.8702470
521.6516, 0.2591550
522.1337, 1.558037
522.6158, 1.385902
523.0980, 0.2489010
523.5801, 0.3878400
524.0622, 0.2305220
524.5443, 1.332375
525.0264, 2.371552
525.5085, 3.277122
525.9907, 3.499382
526.4728, 2.715233
526.9549, 1.457703
527.4370, 0.3878480
527.9191, 0.5768740
528.4012, 0.9209900
528.8834, 8.8081002E-02
529.3655, 1.147705
529.8476, 1.083710
530.3297, 0.2734150
530.8118, 5.9067000E-02
531.2939, 1.219910
531.7761, 3.024628
532.2582, 3.564087
532.7403, 1.936943
533.2224, 0.6649930
533.7045, 0.5658490
534.1866, 1.182343
534.6688, 0.3382720
535.1509, 1.487556
535.6330, 2.876366
536.1151, 2.772110
536.5972, 1.778786
537.0793, 1.612633
537.5615, 2.536049
538.0436, 3.197136
538.5257, 2.824799
539.0078, 2.332901
539.4899, 2.704071
539.9720, 3.831299
540.4542, 4.667671
540.9363, 4.143219
541.4184, 3.118149
541.9005, 3.040405
542.3826, 3.889809
542.8647, 4.210587
543.3469, 2.960938
543.8290, 0.9866940
544.3111, 0.5837860
544.7932, 2.389214
545.2753, 3.944351
545.7574, 5.060867
546.2396, 5.697205
546.7217, 5.473694
547.2038, 4.650497
547.6859, 4.230705
548.1680, 4.981224
548.6501, 6.573059
549.1323, 7.540192
549.6144, 7.581154
550.0965, 7.489830
550.5786, 7.260147
551.0607, 6.997627
551.5428, 6.800301
552.0250, 6.695625
552.5071, 6.720100
552.9892, 6.847267
553.4713, 7.140282
553.9534, 7.903091
554.4355, 9.269264
554.9177, 10.42856
555.3998, 11.05451
555.8819, 11.26816
556.3640, 11.30981
556.8461, 11.19470
557.3282, 10.96484
557.8104, 10.58106
558.2925, 10.10950
558.7746, 9.559799
559.2567, 8.963638
559.7388, 8.500565
560.2209, 8.251328
560.7031, 8.247314
561.1852, 8.597450
561.6673, 10.04913
562.1494, 10.78527
562.6315, 10.08775
563.1136, 9.211205
563.5958, 9.032921
564.0779, 9.549072
564.5600, 10.37957
565.0421, 11.34262
565.5242, 12.27064
566.0063, 12.49031
566.4885, 11.65819
566.9706, 11.11936
567.4527, 11.51362
567.9348, 12.06958
568.4169, 12.21583
568.8990, 11.98302
569.3812, 11.83594
569.8633, 12.11023
570.3454, 12.56245
570.8275, 12.84319
571.3096, 12.95904
571.7917, 13.07464
572.2739, 13.29308
572.7560, 13.48901
573.2381, 13.43599
573.7202, 13.12428
574.2023, 12.62975
574.6844, 11.79065
575.1666, 10.91458
575.6487, 10.02831
576.1308, 9.285416
576.6129, 9.134216
577.0950, 9.845596
577.5771, 10.88239
578.0593, 10.95821
578.5414, 9.548302
579.0235, 8.590561
579.5056, 9.057091
579.9877, 9.321487
580.4698, 8.112495
580.9520, 6.151970
581.4341, 5.154488
581.9162, 6.219330
582.3983, 7.978416
582.8804, 8.544952
583.3625, 8.043846
583.8447, 7.888496
584.3268, 8.626945
584.8089, 9.282921
585.2910, 8.544678
585.7731, 6.574089
586.2552, 5.366066
586.7374, 5.596718
587.2195, 6.193207
587.7016, 6.863518
588.1837, 7.477737
588.6658, 7.763535
589.1479, 7.659340
589.6301, 7.516296
590.1122, 7.842400
590.5943, 8.752930
591.0764, 9.004021
591.5585, 7.911186
592.0406, 6.870262
592.5228, 6.195457
593.0049, 5.847229
593.4870, 5.862076
593.9691, 6.240883
594.4512, 6.731796
594.9333, 7.138741
595.4155, 7.464775
595.8976, 7.770950
596.3797, 8.118210
596.8618, 8.171555
597.3439, 7.571815
597.8260, 6.597397
598.3082, 5.948265
598.7903, 5.715614
599.2724, 5.576706
599.7545, 5.498512
600.2366, 5.474457
600.7188, 5.212952
601.2009, 4.826553
601.6830, 4.820198
602.1651, 5.605972
602.6472, 6.835548
603.1293, 7.144653
603.6115, 5.646408
604.0936, 4.867455
604.5757, 5.865707
605.0578, 6.780952
605.5399, 6.406197
606.0220, 4.919945
606.5042, 3.128593
606.9863, 1.233032
607.4684, 0.3392940
607.9505, 0.7226260
608.4326, 5.5870000E-02
608.9147, 0.8542710
609.3969, 1.362709
609.8790, 1.789360
610.3611, 2.737915
610.8432, 4.159645
611.3253, 4.825851
611.8074, 4.077019
612.2896, 3.098999
612.7717, 2.393585
613.2538, 1.912300
613.7359, 1.568802
614.2180, 1.328690
614.7001, 1.144249
615.1823, 0.9543150
615.6644, 0.7552800
616.1465, 0.6131820
616.6286, 0.3888170
617.1107, 0.4317930
617.5928, 1.193542
618.0750, 2.039894
618.5571, 2.194138
619.0392, 1.541092
619.5213, 0.9062350
620.0034, 0.9484480
620.4855, 1.448029
620.9677, 2.021866
621.4498, 2.663162
621.9319, 2.997055
622.4140, 2.742973
622.8961, 2.176895
623.3782, 1.883156
623.8604, 1.930107
624.3425, 1.992683
624.8246, 1.804588
625.3067, 1.824196
625.7888, 2.789413
626.2709, 4.192879
626.7531, 4.765099
627.2352, 3.866631
627.7173, 2.209763
628.1994, 0.9994580
628.6815, 0.2319150
629.1636, 4.1489001E-02
629.6458, 0.6060450
630.1279, 1.217434
630.6100, 1.282818
631.0921, 1.001842
631.5742, 0.7156450
632.0563, 0.5024640
632.5385, 0.3153340
633.0206, 0.1407780
633.5027, 3.8807001E-02
633.9848, 0.3303150
634.4669, 0.7379880
634.9490, 0.9033850
635.4312, 0.4859920
635.9133, 0.3363110
636.3954, 0.7164500
636.8775, 0.1469880
637.3596, 0.3833160
637.8417, 0.7636070
638.3239, 1.989586
638.8060, 2.261806
639.2881, 1.744736
639.7702, 1.274220
640.2523, 1.303062
640.7344, 1.630035
641.2166, 2.017509
641.6987, 2.483704
642.1808, 2.568844
642.6629, 1.991062
643.1450, 1.316086
643.6271, 1.140781
644.1093, 1.321884
644.5914, 1.345524
645.0735, 0.7004010
645.5556, 0.3907740
646.0377, 1.252800
646.5198, 2.585564
647.0020, 3.444553
647.4841, 3.612839
647.9662, 3.337982
648.4483, 2.804428
648.9304, 2.077198
649.4125, 1.571911
649.8947, 1.349770
650.3768, 1.248726
650.8589, 1.368660
651.3410, 1.490536
651.8231, 1.425991
652.3052, 1.205914
652.7874, 1.027794
653.2695, 0.9397050
653.7516, 0.9901960
654.2337, 1.324009
654.7158, 1.874424
655.1979, 2.428646
655.6801, 3.012451
656.1622, 3.215076
656.6443, 2.329872
657.1264, 0.2434430
657.6085, 0.7309040
658.0906, 3.5399999E-03
658.5728, 0.9337160
659.0549, 2.188351
659.5370, 3.174400
660.0191, 3.018913
660.5012, 1.797806
660.9833, 0.7145610
661.4655, 0.8761410
661.9476, 1.859814
662.4297, 2.362419
662.9118, 2.328705
663.3939, 2.013611
663.8760, 1.283794
664.3582, 0.5543170
664.8403, 0.5062790
665.3224, 1.059391
665.8045, 1.127029
666.2866, 0.2625160
666.7687, 1.274998
667.2509, 0.3260420
667.7330, 1.515556
668.2151, 2.405651
668.6972, 1.906071
669.1793, 0.9775350
669.6614, 0.5640140
670.1436, 0.6479030
670.6257, 1.005951
671.1078, 1.892048
671.5899, 2.640385
672.0720, 2.750755
672.5541, 2.549007
673.0363, 2.336197
673.5184, 2.137707
674.0005, 1.960209
674.4826, 1.848728
674.9647, 1.728344
675.4468, 1.519272
675.9290, 1.238029
676.4111, 0.8999560
676.8932, 0.5071370
677.3753, 0.1858020
677.8574, 8.4549002E-02
678.3395, 0.2071000
678.8217, 0.4550360
679.3038, 0.9656980
679.7859, 1.429886
680.2680, 1.875908
680.7501, 2.197701
681.2322, 2.224442
681.7144, 1.990192
682.1965, 1.785038
682.6786, 1.702923
683.1607, 1.832035
683.6428, 2.657246
684.1249, 4.019642
684.6071, 4.336563
685.0892, 2.901340
685.5713, 1.116962
686.0534, 0.5741200
686.5355, 1.351891
687.0176, 2.116570
687.4998, 3.277706
687.9819, 3.920197
688.4640, 3.532494
688.9461, 2.694489
689.4282, 1.801716
689.9103, 1.029705
690.3925, 0.6555440
690.8746, 1.041519
691.3567, 1.823017
691.8388, 2.115677
692.3209, 1.894802
692.8030, 1.489357
693.2852, 0.8939900
693.7673, 0.4751400
694.2494, 0.6932180
694.7315, 1.524853
695.2136, 2.079098
695.6957, 2.517975
696.1779, 2.509789
696.6600, 1.337543
697.1421, 6.9286004E-02
697.6242, 0.1646580
698.1063, 1.629715
698.5884, 2.803394
699.0706, 2.281769
699.5527, 0.7893790
700.0348, 0.4917530
700.5169, 1.594242
700.9990, 2.618595
701.4811, 3.428249
701.9633, 3.878860
702.4454, 3.760235
702.9275, 3.175632
703.4096, 2.397865
703.8917, 1.060524
704.3738, 8.9152999E-02
704.8560, 0.1004220
705.3381, 0.5469170
705.8202, 0.8204960
706.3023, 0.8413580
706.7844, 0.7769700
707.2665, 0.7300610
707.7487, 0.7205280
708.2308, 0.8145100
708.7129, 1.033333
709.1950, 1.262814
709.6771, 1.545033
710.1592, 1.760559
710.6414, 1.890564
711.1235, 1.895153
711.6056, 1.654278
712.0877, 1.046871
712.5698, 0.4341550
713.0519, 0.2847290
713.5341, 0.7420460
714.0162, 0.2130810
714.4983, 1.091671
714.9804, 2.088821
715.4625, 2.094086
715.9446, 1.621937
716.4268, 1.538681
716.9089, 1.955475
717.3910, 2.217125
717.8731, 2.385410
718.3552, 2.276520
718.8373, 1.448036
719.3195, 0.4492870
719.8016, 0.1490590
720.2837, 0.7822040
720.7658, 1.440533
721.2479, 1.613659
721.7300, 1.647907
722.2122, 2.031189
722.6943, 2.633514
723.1764, 2.860435
723.6585, 2.444397
724.1406, 1.828381
724.6227, 1.766090
725.1049, 2.493385
725.5870, 2.735104
726.0691, 1.819103
726.5512, 1.427727
727.0333, 3.282475
727.5154, 5.207470
727.9976, 4.511135
728.4797, 1.062515
728.9618, 1.501171
729.4439, 0.8889310
729.9260, 0.6059910
730.4081, 0.8841250
730.8903, 0.4363940
731.3724, 0.7695580
731.8545, 2.260307
732.3366, 3.611515
732.8187, 3.329529
733.3008, 1.603825
733.7830, 0.7417030
734.2651, 1.034241
734.7472, 1.563595
735.2293, 2.697197
735.7114, 3.521347
736.1935, 2.961540
736.6757, 1.391602
737.1578, 0.6927760
737.6399, 2.256805
738.1220, 3.771057
738.6041, 3.221756
739.0862, 1.805702
739.5684, 1.655979
740.0505, 2.904617
740.5326, 3.925690
741.0147, 3.473328
741.4968, 2.139378
741.9789, 1.832047
742.4611, 2.970707
742.9432, 3.572300
743.4253, 3.142097
743.9074, 2.524506
744.3895, 2.126415
744.8716, 1.905582
745.3538, 1.840099
745.8359, 2.027157
746.3180, 2.037170
746.8001, 1.476170
747.2822, 0.7908970
747.7643, 0.4145360
748.2465, 0.3355670
748.7286, 0.4420590
749.2107, 0.6811600
749.6928, 0.8558690
750.1749, 0.5234300
750.6570, 0.3741570
751.1392, 0.4174580
751.6213, 0.9142570
752.1034, 1.898590
752.5855, 1.719181
753.0676, 0.9535140
753.5497, 1.3744000E-02
754.0319, 1.191158
754.5140, 1.554569
754.9961, 1.0494000E-02
755.4782, 1.576820
755.9603, 1.953678
756.4424, 1.670078
756.9246, 1.551617
757.4067, 1.820374
757.8888, 2.434772
758.3709, 3.519466
758.8530, 4.770863
759.3351, 5.124023
759.8173, 4.495468
760.2994, 3.632713
760.7815, 2.481579
761.2636, 1.513321
761.7457, 1.146755
762.2278, 1.303463
762.7100, 1.657948
763.1921, 2.563095
763.6742, 3.133129
764.1563, 2.784878
764.6384, 2.327499
765.1205, 2.340473
765.6027, 2.836418
766.0848, 3.821987
766.5669, 5.351200
767.0490, 6.590923
767.5311, 6.031391
768.0132, 4.092415
768.4954, 3.212410
768.9775, 3.642788
769.4596, 4.250397
769.9417, 4.620159
770.4238, 4.657963
770.9059, 4.049866
771.3881, 2.451847
771.8702, 1.743214
772.3523, 2.633606
772.8344, 3.507507
773.3165, 3.687553
773.7986, 3.645088
774.2808, 4.029587
774.7629, 4.859531
775.2450, 5.505219
775.7271, 5.367447
776.2092, 4.978550
776.6913, 5.256985
777.1735, 5.997215
777.6556, 6.392193
778.1377, 6.284073
778.6198, 5.738144
779.1019, 4.704281
779.5840, 3.370796
780.0662, 2.742630
780.5483, 3.261738
781.0304, 3.651237
781.5125, 3.847973
781.9946, 3.886852
782.4767, 3.911602
782.9589, 3.756725
783.4410, 2.869324
783.9231, 0.8144150
784.4052, 0.4288140
784.8873, 1.517014
785.3694, 4.132351
785.8516, 3.727802
786.3337, 1.092010
786.8158, 0.4182170
787.2979, 0.7212260
787.7800, 2.814217
788.2621, 3.491852
788.7443, 2.804295
789.2264, 2.636707
789.7085, 3.223190
790.1906, 3.668930
790.6727, 3.645905
791.1548, 3.446159
791.6370, 3.536423
792.1191, 3.805592
792.6012, 3.412270
793.0833, 1.083523
793.5654, 0.4974630
794.0475, 0.1411900
794.5297, 1.701294
795.0118, 3.142799
795.4939, 4.221581
795.9760, 4.854618
796.4581, 4.986980
796.9402, 4.723736
797.4224, 4.106506
797.9045, 3.194336
798.3866, 2.344063
798.8687, 1.562149
799.3508, 1.070522
799.8329, 0.9884870
800.3151, 1.267349
800.7972, 1.923992
801.2793, 3.274387
801.7614, 3.741158
802.2435, 2.410805
802.7256, 1.405754
803.2078, 1.776337
803.6899, 2.492542
804.1720, 2.201450
804.6541, 0.9816930
805.1362, 0.4121780
805.6183, 2.034786
806.1005, 3.866020
806.5826, 3.490643
807.0647, 1.817875
807.5468, 0.9210550
808.0289, 1.115231
808.5110, 1.562897
808.9932, 1.780792
809.4753, 1.736629
809.9574, 0.9759710
810.4395, 0.9684980
810.9216, 1.390434
811.4037, 0.9411700
811.8859, 2.880619
812.3680, 2.513676
812.8501, 1.195957
813.3322, 0.6411820
813.8143, 1.038059
814.2964, 1.255932
814.7786, 0.6503450
815.2607, 0.2060590
815.7428, 0.6646080
816.2249, 1.564831
816.7070, 2.298019
817.1891, 2.715706
817.6713, 2.907642
818.1534, 2.885262
818.6355, 2.760303
819.1176, 2.717033
819.5997, 2.759789
820.0818, 3.008152
820.5640, 3.528301
821.0461, 3.821873
821.5282, 3.474178
822.0103, 2.713463
822.4924, 2.259163
822.9745, 2.418037
823.4567, 2.188641
823.9388, 0.7681730
824.4209, 0.1200260
824.9030, 0.4712370
825.3851, 1.767834
825.8672, 2.832939
826.3494, 3.527447
826.8315, 4.080826
827.3136, 4.749443
827.7957, 5.182384
828.2778, 5.034691
828.7599, 4.451012
829.2421, 3.543915
829.7242, 2.432827
830.2063, 1.515308
830.6884, 1.069424
831.1705, 1.082600
831.6526, 1.800350
832.1348, 3.272572
832.6169, 3.631657
833.0990, 2.294907
833.5811, 1.024937
834.0632, 0.9144740
834.5453, 1.506828
835.0275, 1.783897
835.5096, 1.534035
835.9917, 1.603882
836.4738, 2.404404
836.9559, 3.045517
837.4380, 3.212170
837.9202, 3.042171
838.4023, 2.514519
838.8844, 1.750336
839.3665, 1.352940
839.8486, 1.952927
840.3307, 2.677074
840.8129, 2.459187
841.2950, 1.771065
841.7771, 1.602585
842.2592, 2.025257
842.7413, 2.537762
843.2234, 2.792179
843.7056, 2.882492
844.1877, 2.994019
844.6698, 3.118774
845.1519, 3.203133
845.6340, 3.206577
846.1161, 3.236378
846.5983, 3.436779
847.0804, 3.591278
847.5625, 3.271263
848.0446, 2.421932
848.5267, 2.030052
849.0089, 2.736618
849.4910, 3.129314
849.9731, 2.328041
850.4552, 1.438503
850.9373, 1.567284
851.4194, 2.448723
851.9016, 3.249763
852.3837, 3.556561
852.8658, 3.699417
853.3479, 3.883671
853.8300, 4.157494
854.3121, 4.741531
854.7943, 5.522251
855.2764, 6.090603
855.7585, 6.270264
856.2406, 6.012718
856.7227, 5.126080
857.2048, 3.695511
857.6870, 2.752518
858.1691, 2.289585
858.6512, 2.454758
859.1333, 3.702442
859.6154, 4.952415
860.0975, 5.147552
860.5797, 4.441475
861.0618, 3.846176
861.5439, 2.879807
862.0260, 2.819881
862.5081, 4.964020
862.9902, 6.876434
863.4724, 6.967445
863.9545, 5.893795
864.4366, 4.658215
864.9187, 3.531708
865.4008, 2.906826
865.8829, 3.377766
866.3651, 4.218220
866.8472, 4.730038
867.3293, 4.893711
867.8114, 4.450630
868.2935, 3.443604
868.7756, 2.810318
869.2578, 3.373425
869.7399, 4.679195
870.2220, 5.960873
870.7041, 7.261467
871.1862, 7.393326
871.6683, 6.005787
872.1505, 4.312057
872.6326, 2.685055
873.1147, 1.395206
873.5968, 0.9682500
874.0789, 1.595024
874.5610, 2.062683
875.0432, 2.331516
875.5253, 2.545944
876.0074, 2.720360
876.4895, 2.902885
876.9716, 3.133301
877.4537, 3.386742
877.9359, 3.579605
878.4180, 3.683826
878.9001, 3.725567
879.3822, 3.795238
879.8643, 3.758316
880.3464, 3.349514
880.8286, 2.707638
881.3107, 2.161846
881.7928, 1.848297
882.2749, 1.841957
882.7570, 2.353073
883.2391, 3.182461
883.7213, 3.811264
884.2034, 4.223690
884.6855, 3.948891
885.1676, 2.764549
885.6497, 1.714378
886.1318, 1.665192
886.6140, 2.312912
887.0961, 2.591991
887.5782, 2.195457
888.0603, 2.239544
888.5424, 3.199352
889.0245, 4.050823
889.5067, 4.384949
889.9888, 4.347107
890.4709, 3.981003
890.9530, 3.297871
891.4351, 2.898956
891.9172, 3.063469
892.3994, 3.338783
892.8815, 3.774197
893.3636, 4.067951
893.8457, 3.776356
894.3278, 3.083591
894.8099, 2.585938
895.2921, 2.549656
895.7742, 2.652870
896.2563, 2.572338
896.7384, 2.439861
897.2205, 2.616344
897.7026, 2.970882
898.1848, 2.860703
898.6669, 2.109451
899.1490, 1.335266
899.6311, 1.143433
900.1132, 1.400261
900.5953, 1.621887
901.0775, 1.806549
901.5596, 1.976067
902.0417, 2.139645
902.5238, 2.278545
903.0059, 2.317955
903.4880, 2.319714
903.9702, 2.457008
904.4523, 2.844383
904.9344, 2.932121
905.4165, 2.421352
905.8986, 1.997547
906.3807, 2.099094
906.8629, 2.117420
907.3450, 1.125736
907.8271, 0.4488720
908.3092, 0.9663850
908.7913, 0.6982190
909.2734, 2.154934
909.7556, 2.294086
910.2377, 1.808125
910.7198, 0.9630930
911.2019, 8.3835997E-02
911.6840, 0.3262330
912.1661, 0.1304280
912.6483, 0.3894620
913.1304, 1.290668
913.6125, 2.115353
914.0946, 1.905888
914.5767, 0.9861110
915.0588, 0.4256250
915.5410, 0.3791010
916.0231, 0.3272670
916.5052, 8.1672996E-02
916.9873, 0.5544130
917.4694, 0.4664380
917.9515, 0.2080570
918.4337, 0.7323880
918.9158, 1.080883
919.3979, 1.387146
919.8800, 1.700813
920.3621, 1.985859
920.8442, 2.257813
921.3264, 2.112705
921.8085, 2.402248
922.2906, 1.563019
922.7727, 0.8857190
923.2548, 4.3804001E-02
923.7369, 0.1622510
924.2191, 1.498875
924.7012, 3.651966
925.1833, 4.033245
925.6654, 2.316299
926.1475, 0.8136790
926.6296, 0.2303160
927.1118, 1.5144000E-02
927.5939, 6.1278999E-02
928.0760, 0.1724050
928.5581, 0.1907810
929.0402, 0.1672290
929.5223, 0.3717610
930.0045, 0.9728430
930.4866, 1.488228
930.9687, 1.479328
931.4508, 1.106297
931.9329, 0.1896820
932.4150, 0.8531610
932.8972, 0.4897880
933.3793, 1.541138
933.8614, 3.440971
934.3435, 3.601063
934.8256, 2.665485
935.3077, 2.539070
935.7899, 3.146591
936.2720, 3.237747
936.7541, 2.640972
937.2362, 1.984451
937.7183, 1.568752
938.2004, 1.270653
938.6826, 0.8675800
939.1647, 0.3468550
939.6468, 0.2667920
940.1289, 0.9160960
940.6110, 1.288528
941.0931, 0.9724390
941.5753, 0.6250380
942.0574, 0.7826960
942.5395, 1.243599
943.0216, 1.447960
943.5037, 1.301674
943.9858, 1.194687
944.4680, 1.410351
944.9501, 1.331829
945.4322, 0.2518960
945.9143, 0.8968200
946.3964, 1.059807
946.8785, 0.3420560
947.3607, 0.3467830
947.8428, 0.7947770
948.3249, 0.9773140
948.8070, 0.5443120
949.2891, 0.1271170
949.7712, 0.4592550
950.2534, 1.235329
950.7355, 1.748318
951.2176, 1.836758
951.6997, 1.947979
952.1818, 2.540016
952.6639, 3.169857
953.1461, 3.208958
953.6282, 2.836861
954.1103, 2.357025
954.5924, 1.873241
955.0745, 1.682816
955.5566, 1.938179
956.0388, 2.263187
956.5209, 2.020111
957.0030, 1.408226
957.4851, 1.695030
957.9672, 2.870968
958.4493, 3.095501
958.9315, 1.844616
959.4136, 0.4673810
959.8957, 8.9947000E-02
960.3778, 2.7866000E-02
960.8599, 0.1404270
961.3420, 0.4064140
961.8242, 0.8343540
962.3063, 1.489685
962.7884, 2.187019
963.2705, 3.189102
963.7526, 3.763237
964.2347, 2.816841
964.7169, 0.6692160
965.1990, 0.3737790
965.6811, 0.3836750
966.1632, 1.156410
966.6453, 2.242607
967.1274, 3.107571
967.6096, 3.535954
968.0917, 3.636841
968.5738, 3.454361
969.0559, 3.022625
969.5380, 2.715485
970.0201, 2.768566
970.5023, 2.808102
970.9844, 2.741844
971.4665, 2.569313
971.9486, 2.164497
972.4307, 1.691486
972.9128, 1.466106
973.3950, 1.568455
973.8771, 1.771862
974.3592, 2.052891
974.8413, 2.245239
975.3234, 2.313492
975.8055, 2.218117
976.2877, 1.641651
976.7698, 0.8104780
977.2519, 0.5198780
977.7340, 1.212631
978.2161, 1.857002
978.6982, 0.8064770
979.1804, 0.7807430
979.6625, 0.3721890
980.1446, 1.469467
980.6267, 2.735390
981.1088, 3.006992
981.5909, 2.966045
982.0731, 3.099556
982.5552, 3.204998
983.0373, 2.916161
983.5194, 2.268764
984.0015, 1.334892
984.4836, 0.1235120
984.9658, 0.2727780
985.4479, 0.5556910
985.9300, 1.625011
986.4121, 2.175190
986.8942, 2.276009
987.3763, 1.905987
987.8585, 0.8337480
988.3406, 1.028221
988.8227, 3.121227
989.3048, 4.647194
989.7869, 4.542210
990.2690, 3.430725
990.7512, 1.962780
991.2333, 0.2401700
991.7154, 0.5330850
992.1975, 0.1826480
992.6796, 0.7099040
993.1617, 0.8637350
993.6439, 0.9170230
994.1260, 1.008743
994.6081, 1.067818
995.0902, 0.9207230
995.5723, 0.5502010
996.0544, 0.4651760
996.5366, 1.000320
997.0187, 1.369015
997.5008, 1.254364
997.9829, 1.133595
998.4650, 1.209435
998.9471, 1.515106
999.4293, 2.339909
999.9114, 3.787884
1000.393, 4.217785
1000.876, 1.913624
1001.358, 0.1127430
1001.840, 0.7781410
1002.322, 2.016911
1002.804, 2.018517
1003.286, 1.204437
1003.768, 0.8544010
1004.250, 1.415386
1004.733, 2.132305
1005.215, 2.883648
1005.697, 3.222252
1006.179, 2.335606
1006.661, 1.198181
1007.143, 1.400898
1007.625, 2.570965
1008.107, 2.927437
1008.589, 1.693779
1009.072, 0.3295710
1009.554, 9.7607002E-02
1010.036, 0.3771170
1010.518, 0.4813500
1011.000, 0.5036540
1011.482, 0.6830440
1011.964, 1.039375
1012.446, 1.461895
1012.929, 1.904781
1013.411, 2.279648
1013.893, 2.493885
1014.375, 2.559925
1014.857, 2.549690
1015.339, 2.414497
1015.821, 1.735329
1016.303, 0.5627820
1016.785, 9.4563000E-02
1017.268, 1.247200
1017.750, 2.880547
1018.232, 3.026417
1018.714, 2.102100
1019.196, 1.860966
1019.678, 2.274162
1020.160, 2.691086
1020.642, 2.927708
1021.125, 2.657837
1021.607, 1.473171
1022.089, 0.1380390
1022.571, 0.7440070
1023.053, 3.103741
1023.535, 4.278652
1024.017, 4.093685
1024.499, 3.393085
1024.981, 2.361164
1025.464, 1.495552
1025.946, 1.316204
1026.428, 1.532726
1026.910, 1.047554
1027.392, 1.283001
1027.874, 1.738495
1028.356, 1.300117
1028.838, 1.478085
1029.321, 2.094994
1029.803, 1.254009
1030.285, 0.7472040
1030.767, 0.6128690
1031.249, 1.150597
1031.731, 2.772446
1032.213, 3.434849
1032.695, 2.809704
1033.177, 1.851749
1033.660, 0.5491560
1034.142, 0.3309590
1034.624, 0.2321090
1035.106, 1.926277
1035.588, 2.724991
1036.070, 1.893318
1036.552, 2.019756
1037.034, 4.163044
1037.516, 5.391701
1037.999, 3.851139
1038.481, 1.637596
1038.963, 1.060417
1039.445, 1.903286
1039.927, 2.524612
1040.409, 3.185116
1040.891, 3.161797
1041.373, 1.886875
1041.855, 0.6584010
1042.338, 0.4178890
1042.820, 0.9930230
1043.302, 0.2825850
1043.784, 1.452076
1044.266, 2.438427
1044.748, 2.121765
1045.230, 1.904099
1045.712, 1.812317
1046.195, 1.873577
1046.677, 2.442501
1047.159, 2.926758
1047.641, 2.480709
1048.123, 1.301170
1048.605, 0.7340160
1049.087, 1.062248
1049.569, 1.577339
1050.052, 2.960381
1050.534, 3.803936
1051.016, 2.997585
1051.498, 1.651817
1051.980, 0.9289590
1052.462, 0.8492360
1052.944, 0.9558140
1053.426, 1.269085
1053.908, 1.554260
1054.391, 1.681717
1054.873, 1.859978
1055.355, 2.398548
1055.837, 2.904484
1056.319, 2.778839
1056.801, 2.154163
1057.283, 1.876961
1057.765, 2.263039
1058.248, 2.726837
1058.730, 3.253025
1059.212, 3.627079
1059.694, 3.936787
1060.176, 3.916580
1060.658, 3.032467
1061.140, 1.513805
1061.622, 0.3916850
1062.104, 1.2302000E-02
1062.587, 0.1218990
1063.069, 0.2076000
1063.551, 0.4663700
1064.033, 0.1499820
1064.515, 0.2712440
1064.997, 0.2326510
1065.479, 0.2147600
1065.961, 0.6795960
1066.443, 1.096508
1066.926, 1.348156
1067.408, 1.089100
1067.890, 0.9953310
1068.372, 1.700588
1068.854, 2.624676
1069.336, 3.128536
1069.818, 3.192364
1070.300, 2.947216
1070.782, 2.309845
1071.265, 1.965370
1071.747, 2.753136
1072.229, 3.298725
1072.711, 2.177536
1073.193, 0.8295590
1073.675, 1.224052
1074.157, 2.776226
1074.639, 3.243389
1075.122, 1.811264
1075.604, 0.8997230
1076.086, 2.309193
1076.568, 3.737896
1077.050, 3.708687
1077.532, 3.123566
1078.014, 2.740803
1078.496, 2.669838
1078.979, 3.084587
1079.461, 4.071617
1079.943, 4.741714
1080.425, 4.506073
1080.907, 4.080349
1081.389, 3.844345
1081.871, 3.617588
1082.353, 3.185020
1082.835, 2.646282
1083.318, 2.154907
1083.800, 1.753014
1084.282, 1.757324
1084.764, 2.990227
1085.246, 3.785103
1085.728, 2.726227
1086.210, 1.413006
1086.692, 1.418514
1087.175, 2.126457
1087.657, 2.128819
1088.139, 1.241180
1088.621, 0.7821500
1089.103, 1.801315
1089.585, 2.616306
1090.067, 1.944992
1090.549, 1.347992
1091.031, 2.589642
1091.514, 4.406742
1091.996, 4.525787
1092.478, 2.951355
1092.960, 1.937862
1093.442, 2.540775
1093.924, 3.245487
1094.406, 3.906944
1094.888, 4.086071
1095.370, 2.970989
1095.853, 1.376656
1096.335, 0.6029660
1096.817, 0.7554050
1097.299, 1.503300
1097.781, 3.383404
1098.263, 4.241302
1098.745, 1.908745
1099.227, 0.1396450
1099.709, 1.621288
1100.192, 4.095634
1100.674, 5.544067
1101.156, 5.858852
1101.638, 4.939533
1102.120, 2.126984
1102.602, 0.4648630
1103.084, 1.946632
1103.566, 3.092915
1104.049, 2.196945
1104.531, 0.6933480
1105.013, 0.5144650
1105.495, 1.251987
1105.977, 1.259705
1106.459, 0.4090040
1106.941, 0.4803500
1107.423, 1.430618
1107.906, 2.183857
1108.388, 2.492420
1108.870, 2.762501
1109.352, 3.595600
1109.834, 4.422268
1110.316, 4.061035
1110.798, 2.377220
1111.280, 1.221199
1111.762, 0.8749350
1112.245, 0.8522800
1112.727, 1.355988
1113.209, 1.869030
1113.691, 2.281437
1114.173, 2.475681
1114.655, 2.171253
1115.137, 1.424873
1115.619, 0.9945950
1116.102, 0.9034390
1116.584, 1.101883
1117.066, 1.892040
1117.548, 2.524582
1118.030, 2.761395
1118.512, 2.717625
1118.994, 2.472370
1119.476, 2.021770
1119.958, 1.344894
1120.441, 1.9638000E-02
1120.923, 9.9688999E-02
1121.405, 1.626114
1121.887, 3.140526
1122.369, 3.962227
1122.851, 4.313168
1123.333, 4.231659
1123.815, 3.912537
1124.297, 3.914169
1124.780, 4.336613
1125.262, 3.619251
1125.744, 1.193157
1126.226, 0.1608090
1126.708, 0.2786450
1127.190, 1.020618
1127.672, 1.277168
1128.154, 1.322433
1128.636, 1.579414
1129.119, 1.993252
1129.601, 1.998283
1130.083, 1.510540
1130.565, 1.592712
1131.047, 2.397888
1131.529, 3.431393
1132.011, 4.578987
1132.493, 5.223068
1132.976, 4.648251
1133.458, 3.273865
1133.940, 2.281731
1134.422, 1.641399
1134.904, 0.7896730
1135.386, 0.2369690
1135.868, 2.9891999E-02
1136.350, 1.952347
1136.833, 3.621399
1137.315, 3.684250
1137.797, 2.765572
1138.279, 1.364449
1138.761, 3.1539999E-02
1139.243, 0.7711870
1139.725, 3.174911
1140.207, 4.757114
1140.689, 5.094326
1141.172, 4.331093
1141.654, 2.558449
1142.136, 0.9698720
1142.618, 1.037506
1143.100, 1.878914
1143.582, 2.067837
1144.064, 1.867413
1144.546, 1.733006
1145.029, 1.746220
1145.511, 2.040897
1145.993, 2.597321
1146.475, 2.992565
1146.957, 2.948448
1147.439, 2.614494
1147.921, 1.754833
1148.403, 1.008762
1148.885, 1.387615
1149.368, 2.348232
1149.850, 3.007813
1150.332, 3.190495
1150.814, 3.042004
1151.296, 2.637470
1151.778, 1.802094
1152.260, 0.7163890
1152.742, 2.361008
1153.224, 0.4777950
1153.707, 2.416660
1154.189, 3.920307
1154.671, 4.077499
1155.153, 3.303898
1155.635, 1.663723
1156.117, 0.9902650
1156.599, 3.172905
1157.081, 4.532322
1157.563, 3.122036
1158.046, 1.445816
1158.528, 1.046204
1159.010, 1.322235
1159.492, 1.307613
1159.974, 1.049648
1160.456, 1.463097
1160.938, 3.618568
1161.420, 4.511677
1161.903, 2.902676
1162.385, 1.627991
1162.867, 1.694653
1163.349, 1.989349
1163.831, 1.613560
1164.313, 0.9900740
1164.795, 1.043995
1165.277, 1.860001
1165.760, 2.398476
1166.242, 2.648663
1166.724, 2.606071
1167.206, 2.137550
1167.688, 1.805019
1168.170, 1.908031
1168.652, 2.273167
1169.134, 2.731289
1169.616, 3.209637
1170.099, 3.323788
1170.581, 3.070133
1171.063, 2.883541
1171.545, 2.791313
1172.027, 2.474728
1172.509, 1.826717
1172.991, 1.507221
1173.473, 2.053188
1173.956, 3.016201
1174.438, 4.047905
1174.920, 4.691326
1175.402, 3.067638
1175.884, 0.1843380
1176.366, 0.1120150
1176.848, 2.224609
1177.330, 4.267746
1177.813, 4.757912
1178.295, 4.541920
1178.777, 4.152084
1179.259, 3.816235
1179.741, 3.831886
1180.223, 4.025528
1180.705, 4.011692
1181.187, 4.035904
1181.669, 5.141773
1182.151, 7.047073
1182.634, 7.304573
1183.116, 4.219036
1183.598, 1.564716
1184.080, 1.807919
1184.562, 2.927544
1185.044, 4.223137
1185.526, 5.125023
1186.008, 4.768780
1186.490, 3.690964
1186.973, 3.270039
1187.455, 3.776543
1187.937, 4.065380
1188.419, 3.634144
1188.901, 3.383698
1189.383, 3.697544
1189.865, 3.985641
1190.347, 3.972481
1190.830, 3.767262
1191.312, 3.521156
1191.794, 3.184143
1192.276, 2.426731
1192.758, 2.318489
1193.240, 2.305542
1193.722, 1.657036
1194.204, 1.635956
1194.687, 1.945412
1195.169, 1.326843
1195.651, 1.234787
1196.133, 1.401733
1196.615, 1.390163
1197.097, 1.257206
1197.579, 1.201084
1198.061, 1.239410
1198.543, 2.009750
1199.026, 3.465904
1199.508, 3.830196
1199.990, 2.561905
1200.472, 1.277069
1200.954, 1.215832
1201.436, 2.005032
1201.918, 3.866669
1202.400, 5.891769
1202.883, 5.794880
1203.365, 4.391254
1203.847, 3.546135
1204.329, 3.442646
1204.811, 3.532013
1205.293, 3.599754
1205.775, 3.570496
1206.257, 3.148434
1206.740, 2.951450
1207.222, 3.823349
1207.704, 4.736286
1208.186, 4.877647
1208.668, 4.358303
1209.150, 3.039116
1209.632, 1.266720
1210.114, 0.4198990
1210.596, 1.000515
1211.078, 1.888390
1211.561, 3.488472
1212.043, 4.201817
1212.525, 2.553314
1213.007, 0.9668460
1213.489, 1.275345
1213.971, 2.371162
1214.453, 2.514599
1214.935, 1.764584
1215.417, 1.253300
1215.900, 1.004433
1216.382, 0.9004780
1216.864, 0.7657280
1217.346, 1.360928
1217.828, 3.100677
1218.310, 4.638668
1218.792, 4.946594
1219.274, 4.464352
1219.757, 3.807064
1220.239, 3.120872
1220.721, 3.290524
1221.203, 4.094765
1221.685, 4.443817
1222.167, 4.245113
1222.649, 3.711102
1223.131, 2.991390
1223.614, 2.763756
1224.096, 3.751640
1224.578, 4.806362
1225.060, 4.469284
1225.542, 3.652683
1226.024, 3.250381
1226.506, 3.242924
1226.988, 3.782124
1227.470, 4.560440
1227.953, 4.732788
1228.435, 4.062714
1228.917, 3.372490
1229.399, 3.039574
1229.881, 2.660179
1230.363, 2.187073
1230.845, 1.521061
1231.327, 3.1661998E-02
1231.810, 1.327026
1232.292, 0.5769840
1232.774, 1.572536
1233.256, 2.487164
1233.738, 1.780876
1234.220, 1.509624
1234.702, 1.811874
1235.184, 2.153309
1235.667, 2.535919
1236.149, 2.445053
1236.631, 1.456665
1237.113, 0.6223110
1237.595, 1.283100
1238.077, 2.934574
1238.559, 4.443466
1239.041, 5.595287
1239.523, 4.729416
1240.005, 2.375362
1240.488, 1.542446
1240.970, 2.600506
1241.452, 3.625874
1241.934, 3.675655
1242.416, 3.208801
1242.898, 2.135082
1243.380, 1.339954
1243.862, 2.120850
1244.344, 3.314770
1244.827, 3.607517
1245.309, 3.336315
1245.791, 3.108047
1246.273, 3.074158
1246.755, 3.444984
1247.237, 4.596619
1247.719, 5.024918
1248.201, 3.604183
1248.684, 2.530895
1249.166, 2.540253
1249.648, 2.955868
1250.130, 3.551304
1250.612, 4.200047
1251.094, 4.809536
1251.576, 5.318588
1252.058, 5.258572
1252.541, 4.556175
1253.023, 3.645622
1253.505, 2.458523
1253.987, 2.137478
1254.469, 2.963070
1254.951, 3.878185
1255.433, 4.282650
1255.915, 4.387051
1256.397, 4.594009
1256.880, 4.467236
1257.362, 2.524364
1257.844, 4.0966000E-02
1258.326, 0.9373360
1258.808, 0.5889090
1259.290, 0.8281590
1259.772, 2.823128
1260.254, 4.131115
1260.737, 4.204967
1261.219, 4.147377
1261.701, 4.679962
1262.183, 5.031837
1262.665, 4.591801
1263.147, 4.054424
1263.629, 4.073746
1264.111, 4.218079
1264.594, 3.605667
1265.076, 2.477947
1265.558, 2.392418
1266.040, 3.978474
1266.522, 4.209843
1267.004, 2.600571
1267.486, 1.310471
1267.968, 0.7165680
1268.450, 0.7309490
1268.932, 1.396515
1269.415, 2.015491
1269.897, 1.660309
1270.379, 1.024551
1270.861, 2.169353
1271.343, 4.302032
1271.825, 5.003662
1272.307, 3.993031
1272.789, 2.468941
1273.271, 0.4115560
1273.754, 0.2929570
1274.236, 1.035069
1274.718, 2.851223
1275.200, 5.002506
1275.682, 6.063988
1276.164, 4.187912
1276.646, 2.014339
1277.128, 1.426613
1277.611, 1.658657
1278.093, 1.507210
1278.575, 1.122261
1279.057, 1.044720
1279.539, 1.286121
1280.021, 1.126244
1280.503, 1.290661
1280.985, 1.042835
1281.468, 7.5764000E-02
1281.950, 4.0454999E-02
1282.432, 1.450775
1282.914, 2.877434
1283.396, 2.816723
1283.878, 1.688065
1284.360, 1.210705
1284.842, 0.8934060
1285.324, 0.0000000E+00
##END=



