##NAMES=Lanthanite-(Nd)
##RRUFFID=R060470
##IDEAL CHEMISTRY=Nd_2_(CO_3_)_3_&#183;8H_2_O
##LOCALITY=Santa Isabel, Sao Paulo State, Brazil
##OWNER=RRUFF
##SOURCE=Michael Scott
##DESCRIPTION=Purple platy aggregate
##STATUS=The identification of this mineral has been confirmed only by single crystal X-ray diffraction.
##URL=rruff.info/R060470
194.7426, 2989.202
195.2247, 2993.040
195.7068, 3001.791
196.1889, 3008.395
196.6711, 3008.287
197.1532, 3002.477
197.6353, 2997.538
198.1174, 2995.578
198.5995, 2992.456
199.0816, 2983.699
199.5638, 2970.431
200.0459, 2960.594
200.5280, 2960.436
201.0101, 2966.853
201.4922, 2969.796
201.9743, 2967.866
202.4565, 2963.475
202.9386, 2957.493
203.4207, 2949.823
203.9028, 2943.947
204.3849, 2944.466
204.8670, 2947.049
205.3492, 2944.841
205.8313, 2933.710
206.3134, 2921.157
206.7955, 2917.709
207.2776, 2925.488
207.7597, 2932.522
208.2419, 2934.862
208.7240, 2933.081
209.2061, 2926.020
209.6882, 2911.754
210.1703, 2895.229
210.6524, 2885.041
211.1346, 2882.773
211.6167, 2883.189
212.0988, 2886.214
212.5809, 2890.097
213.0630, 2893.056
213.5451, 2894.250
214.0273, 2894.626
214.5094, 2896.227
214.9915, 2899.058
215.4736, 2903.346
215.9557, 2910.193
216.4378, 2917.777
216.9200, 2923.856
217.4021, 2927.316
217.8842, 2929.850
218.3663, 2936.376
218.8484, 2951.083
219.3305, 2963.897
219.8127, 2973.509
220.2948, 2980.917
220.7769, 2986.549
221.2590, 2990.594
221.7411, 2994.223
222.2232, 3000.969
222.7054, 3016.203
223.1875, 3028.152
223.6696, 3031.327
224.1517, 3032.562
224.6338, 3040.893
225.1159, 3060.430
225.5980, 3086.467
226.0802, 3105.341
226.5623, 3108.164
227.0444, 3114.148
227.5265, 3127.625
228.0086, 3144.182
228.4907, 3157.028
228.9729, 3163.045
229.4550, 3166.237
229.9371, 3177.478
230.4192, 3205.923
230.9013, 3227.739
231.3834, 3234.066
231.8656, 3232.665
232.3477, 3234.210
232.8298, 3242.498
233.3119, 3256.553
233.7940, 3275.921
234.2761, 3303.004
234.7583, 3328.142
235.2404, 3349.273
235.7225, 3366.800
236.2046, 3381.046
236.6867, 3391.626
237.1688, 3400.321
237.6510, 3410.461
238.1331, 3422.235
238.6152, 3433.578
239.0973, 3444.797
239.5794, 3455.050
240.0615, 3461.990
240.5437, 3464.182
241.0258, 3464.604
241.5079, 3465.846
241.9900, 3467.512
242.4721, 3473.780
242.9542, 3490.548
243.4364, 3513.344
243.9185, 3530.637
244.4006, 3539.614
244.8827, 3543.452
245.3648, 3542.747
245.8469, 3538.399
246.3290, 3538.550
246.8112, 3549.944
247.2933, 3569.123
247.7754, 3586.018
248.2575, 3599.430
248.7396, 3610.033
249.2217, 3619.084
249.7039, 3626.341
250.1860, 3630.460
250.6681, 3629.240
251.1502, 3624.036
251.6323, 3619.544
252.1144, 3615.088
252.5966, 3613.038
253.0787, 3615.066
253.5608, 3620.159
254.0429, 3626.107
254.5250, 3631.196
255.0071, 3636.123
255.4893, 3644.042
255.9714, 3657.051
256.4535, 3669.736
256.9356, 3682.317
257.4177, 3692.738
257.8998, 3696.922
258.3820, 3690.108
258.8641, 3676.582
259.3462, 3672.173
259.8283, 3682.871
260.3104, 3693.207
260.7925, 3697.955
261.2747, 3699.434
261.7568, 3700.427
262.2389, 3702.095
262.7210, 3704.557
263.2031, 3708.764
263.6852, 3718.017
264.1674, 3723.023
264.6495, 3717.188
265.1316, 3708.491
265.6137, 3706.861
266.0958, 3717.014
266.5779, 3732.362
267.0601, 3735.883
267.5422, 3716.136
268.0243, 3705.344
268.5064, 3715.034
268.9885, 3730.625
269.4706, 3738.509
269.9528, 3734.032
270.4349, 3723.600
270.9170, 3719.333
271.3991, 3723.842
271.8812, 3729.918
272.3633, 3738.169
272.8455, 3746.747
273.3276, 3753.527
273.8097, 3758.296
274.2918, 3763.278
274.7739, 3772.838
275.2560, 3793.045
275.7382, 3804.388
276.2202, 3801.010
276.7024, 3795.118
277.1845, 3794.207
277.6666, 3799.338
278.1487, 3806.878
278.6308, 3812.066
279.1129, 3812.730
279.5951, 3818.782
280.0772, 3831.797
280.5593, 3847.708
281.0414, 3867.760
281.5235, 3889.753
282.0056, 3907.385
282.4878, 3913.798
282.9699, 3906.883
283.4520, 3904.198
283.9341, 3905.150
284.4162, 3910.125
284.8983, 3921.301
285.3805, 3936.971
285.8626, 3953.156
286.3447, 3966.839
286.8268, 3978.031
287.3089, 3989.579
287.7910, 4004.310
288.2732, 4016.403
288.7553, 4021.109
289.2374, 4022.055
289.7195, 4026.168
290.2016, 4037.826
290.6837, 4055.547
291.1659, 4071.583
291.6480, 4084.879
292.1301, 4097.578
292.6122, 4112.054
293.0943, 4125.598
293.5764, 4133.155
294.0586, 4132.222
294.5407, 4126.835
295.0228, 4127.967
295.5049, 4142.091
295.9870, 4155.206
296.4691, 4165.683
296.9513, 4175.431
297.4334, 4186.722
297.9155, 4200.207
298.3976, 4214.684
298.8797, 4228.249
299.3618, 4241.827
299.8440, 4252.214
300.3261, 4258.048
300.8082, 4261.565
301.2903, 4263.763
301.7724, 4265.130
302.2545, 4267.032
302.7367, 4271.180
303.2188, 4278.245
303.7009, 4285.122
304.1830, 4291.733
304.6651, 4298.235
305.1472, 4305.022
305.6294, 4311.917
306.1115, 4318.108
306.5936, 4322.813
307.0757, 4325.947
307.5578, 4329.204
308.0399, 4331.085
308.5221, 4334.504
309.0042, 4343.463
309.4863, 4355.325
309.9684, 4362.868
310.4505, 4360.925
310.9326, 4351.163
311.4148, 4345.189
311.8969, 4346.191
312.3790, 4346.666
312.8611, 4344.549
313.3432, 4340.818
313.8253, 4336.408
314.3075, 4331.548
314.7896, 4327.693
315.2717, 4328.820
315.7538, 4341.023
316.2359, 4349.458
316.7180, 4351.524
317.2001, 4349.907
317.6823, 4347.062
318.1644, 4343.753
318.6465, 4340.081
319.1286, 4335.843
319.6107, 4329.109
320.0928, 4327.214
320.5750, 4335.671
321.0571, 4344.973
321.5392, 4346.001
322.0213, 4338.704
322.5034, 4331.742
322.9855, 4334.336
323.4677, 4348.486
323.9498, 4357.661
324.4319, 4360.651
324.9140, 4360.655
325.3961, 4356.998
325.8782, 4351.361
326.3604, 4348.138
326.8425, 4350.843
327.3246, 4358.745
327.8067, 4363.364
328.2888, 4364.430
328.7709, 4363.180
329.2531, 4356.771
329.7352, 4348.836
330.2173, 4345.505
330.6994, 4349.838
331.1815, 4359.280
331.6636, 4366.959
332.1458, 4376.946
332.6279, 4379.656
333.1100, 4366.487
333.5921, 4350.009
334.0742, 4343.344
334.5563, 4349.934
335.0385, 4362.948
335.5206, 4372.780
336.0027, 4379.007
336.4848, 4382.446
336.9669, 4380.317
337.4490, 4377.885
337.9312, 4379.802
338.4133, 4385.444
338.8954, 4389.740
339.3775, 4387.541
339.8596, 4378.028
340.3417, 4372.153
340.8239, 4371.045
341.3060, 4371.796
341.7881, 4374.870
342.2702, 4378.964
342.7523, 4381.012
343.2344, 4378.675
343.7166, 4373.924
344.1987, 4376.472
344.6808, 4400.486
345.1629, 4415.640
345.6450, 4413.429
346.1271, 4403.253
346.6093, 4396.041
347.0914, 4395.755
347.5735, 4397.740
348.0556, 4392.310
348.5377, 4369.177
349.0198, 4357.770
349.5020, 4365.562
349.9841, 4377.805
350.4662, 4385.045
350.9483, 4386.039
351.4304, 4384.893
351.9125, 4386.018
352.3947, 4389.919
352.8768, 4392.735
353.3589, 4395.593
353.8410, 4396.265
354.3231, 4392.371
354.8052, 4385.651
355.2874, 4379.796
355.7695, 4377.556
356.2516, 4377.985
356.7337, 4375.399
357.2158, 4364.823
357.6979, 4358.118
358.1800, 4358.240
358.6621, 4362.670
359.1443, 4370.561
359.6264, 4381.556
360.1085, 4390.906
360.5906, 4388.155
361.0727, 4365.667
361.5548, 4351.185
362.0370, 4354.080
362.5191, 4360.309
363.0012, 4361.677
363.4833, 4357.344
363.9654, 4351.159
364.4475, 4346.742
364.9297, 4344.179
365.4118, 4341.741
365.8939, 4338.188
366.3760, 4336.236
366.8581, 4337.478
367.3402, 4341.023
367.8224, 4345.626
368.3045, 4352.078
368.7866, 4357.819
369.2687, 4354.466
369.7508, 4338.706
370.2329, 4320.887
370.7151, 4301.019
371.1972, 4282.633
371.6793, 4269.976
372.1614, 4264.856
372.6435, 4262.156
373.1256, 4253.711
373.6078, 4238.608
374.0899, 4231.790
374.5720, 4246.140
375.0541, 4261.075
375.5362, 4260.172
376.0183, 4244.272
376.5005, 4226.499
376.9826, 4214.597
377.4647, 4207.567
377.9468, 4201.884
378.4289, 4197.730
378.9110, 4194.022
379.3932, 4191.179
379.8753, 4188.165
380.3574, 4182.647
380.8395, 4172.530
381.3216, 4160.819
381.8037, 4151.295
382.2859, 4143.979
382.7680, 4136.813
383.2501, 4128.981
383.7322, 4120.761
384.2143, 4112.564
384.6964, 4104.471
385.1786, 4096.400
385.6607, 4086.265
386.1428, 4076.167
386.6249, 4073.734
387.1070, 4083.547
387.5891, 4093.465
388.0713, 4087.062
388.5534, 4066.030
389.0355, 4045.652
389.5176, 4027.163
389.9997, 4011.869
390.4818, 4002.271
390.9640, 3998.113
391.4461, 3994.969
391.9282, 3990.055
392.4103, 3983.613
392.8924, 3977.298
393.3745, 3968.697
393.8567, 3962.756
394.3388, 3965.117
394.8209, 3971.081
395.3030, 3971.146
395.7851, 3961.488
396.2672, 3946.010
396.7494, 3930.873
397.2315, 3914.352
397.7136, 3902.835
398.1957, 3901.953
398.6778, 3902.468
399.1599, 3896.540
399.6420, 3883.646
400.1241, 3867.700
400.6063, 3851.462
401.0884, 3834.708
401.5705, 3824.092
402.0526, 3824.464
402.5347, 3824.714
403.0168, 3822.985
403.4990, 3818.620
403.9811, 3810.272
404.4632, 3797.277
404.9453, 3781.821
405.4274, 3769.314
405.9095, 3762.427
406.3917, 3754.250
406.8738, 3741.983
407.3559, 3730.395
407.8380, 3722.645
408.3201, 3719.180
408.8022, 3718.839
409.2844, 3721.459
409.7665, 3727.476
410.2486, 3728.801
410.7307, 3721.952
411.2128, 3713.760
411.6949, 3706.399
412.1771, 3698.978
412.6592, 3689.417
413.1413, 3676.272
413.6234, 3661.850
414.1055, 3651.130
414.5876, 3644.685
415.0698, 3640.114
415.5519, 3639.415
416.0340, 3638.724
416.5161, 3635.346
416.9982, 3628.979
417.4803, 3621.260
417.9625, 3612.402
418.4446, 3602.920
418.9267, 3596.373
419.4088, 3594.159
419.8909, 3592.923
420.3730, 3591.888
420.8552, 3590.169
421.3373, 3585.692
421.8194, 3577.243
422.3015, 3566.295
422.7836, 3552.982
423.2657, 3537.401
423.7479, 3525.613
424.2300, 3521.896
424.7121, 3521.719
425.1942, 3518.016
425.6763, 3510.545
426.1584, 3501.225
426.6406, 3488.066
427.1227, 3474.378
427.6048, 3466.223
428.0869, 3464.727
428.5690, 3466.607
429.0511, 3470.428
429.5333, 3475.867
430.0154, 3475.928
430.4975, 3465.712
430.9796, 3454.693
431.4617, 3449.476
431.9438, 3447.800
432.4260, 3443.259
432.9081, 3432.698
433.3902, 3418.165
433.8723, 3404.212
434.3544, 3387.284
434.8365, 3377.307
435.3187, 3379.757
435.8008, 3385.833
436.2829, 3389.609
436.7650, 3389.714
437.2471, 3386.243
437.7292, 3378.928
438.2114, 3367.627
438.6935, 3357.080
439.1756, 3347.775
439.6577, 3338.699
440.1398, 3328.359
440.6219, 3318.573
441.1040, 3312.432
441.5862, 3311.245
442.0683, 3312.318
442.5504, 3311.422
443.0325, 3309.496
443.5146, 3302.683
443.9967, 3282.173
444.4789, 3263.850
444.9610, 3259.205
445.4431, 3265.357
445.9252, 3269.518
446.4073, 3261.457
446.8894, 3244.319
447.3716, 3229.621
447.8537, 3216.798
448.3358, 3207.869
448.8179, 3206.292
449.3000, 3207.889
449.7821, 3208.474
450.2643, 3207.124
450.7464, 3204.971
451.2285, 3203.402
451.7106, 3202.007
452.1927, 3198.992
452.6748, 3194.366
453.1570, 3187.308
453.6391, 3174.941
454.1212, 3158.617
454.6033, 3144.797
455.0854, 3135.487
455.5675, 3128.991
456.0497, 3125.025
456.5318, 3123.009
457.0139, 3119.740
457.4960, 3113.356
457.9781, 3104.975
458.4602, 3097.561
458.9424, 3091.458
459.4245, 3085.427
459.9066, 3079.248
460.3887, 3073.077
460.8708, 3067.229
461.3529, 3061.673
461.8351, 3055.802
462.3172, 3048.761
462.7993, 3040.489
463.2814, 3034.355
463.7635, 3034.707
464.2456, 3032.067
464.7278, 3020.651
465.2099, 3005.880
465.6920, 2996.012
466.1741, 2994.066
466.6562, 2995.141
467.1383, 2990.986
467.6205, 2980.139
468.1026, 2968.409
468.5847, 2953.126
469.0668, 2939.574
469.5489, 2931.370
470.0310, 2927.090
470.5132, 2922.680
470.9953, 2915.452
471.4774, 2906.634
471.9595, 2900.001
472.4416, 2896.826
472.9237, 2891.199
473.4059, 2880.378
473.8880, 2866.422
474.3701, 2849.437
474.8522, 2829.293
475.3343, 2812.241
475.8164, 2804.097
476.2986, 2801.986
476.7807, 2799.869
477.2628, 2797.807
477.7449, 2791.632
478.2270, 2775.063
478.7091, 2751.351
479.1913, 2734.563
479.6734, 2728.462
480.1555, 2726.004
480.6376, 2725.197
481.1197, 2725.254
481.6018, 2725.311
482.0839, 2725.279
482.5660, 2722.720
483.0482, 2713.551
483.5303, 2694.974
484.0124, 2679.897
484.4945, 2670.170
484.9766, 2661.991
485.4587, 2654.839
485.9409, 2647.495
486.4230, 2636.702
486.9051, 2620.159
487.3872, 2601.656
487.8693, 2592.970
488.3514, 2601.593
488.8336, 2605.964
489.3157, 2604.595
489.7978, 2599.171
490.2799, 2588.100
490.7620, 2573.221
491.2441, 2560.986
491.7263, 2558.226
492.2084, 2562.341
492.6905, 2560.180
493.1726, 2549.249
493.6547, 2538.081
494.1368, 2529.551
494.6190, 2522.930
495.1011, 2517.889
495.5832, 2514.508
496.0653, 2511.692
496.5474, 2509.792
497.0295, 2507.868
497.5117, 2502.162
497.9938, 2491.106
498.4759, 2480.436
498.9580, 2474.734
499.4401, 2473.527
499.9222, 2473.528
500.4044, 2479.177
500.8865, 2481.215
501.3686, 2471.000
501.8507, 2454.209
502.3328, 2442.226
502.8149, 2438.968
503.2971, 2441.508
503.7792, 2446.626
504.2613, 2456.951
504.7434, 2459.820
505.2255, 2449.188
505.7076, 2437.955
506.1898, 2431.673
506.6719, 2429.597
507.1540, 2429.744
507.6361, 2431.207
508.1182, 2432.837
508.6003, 2431.292
509.0825, 2423.929
509.5646, 2420.511
510.0467, 2427.092
510.5288, 2433.466
511.0109, 2432.817
511.4930, 2426.620
511.9752, 2421.668
512.4573, 2423.052
512.9394, 2427.958
513.4215, 2429.453
513.9036, 2426.830
514.3857, 2425.476
514.8679, 2429.573
515.3500, 2434.323
515.8321, 2433.136
516.3142, 2425.235
516.7963, 2417.396
517.2784, 2409.323
517.7606, 2404.485
518.2427, 2410.903
518.7248, 2428.446
519.2069, 2443.162
519.6890, 2444.771
520.1711, 2436.411
520.6533, 2433.716
521.1354, 2442.821
521.6175, 2448.483
522.0996, 2445.147
522.5817, 2438.960
523.0638, 2435.640
523.5460, 2436.310
524.0281, 2439.251
524.5102, 2442.628
524.9923, 2446.502
525.4744, 2454.595
525.9565, 2473.268
526.4387, 2487.663
526.9208, 2492.869
527.4029, 2493.618
527.8850, 2495.257
528.3671, 2499.033
528.8492, 2501.363
529.3314, 2496.092
529.8135, 2484.544
530.2956, 2480.388
530.7777, 2486.930
531.2598, 2495.641
531.7419, 2502.720
532.2241, 2508.132
532.7062, 2510.887
533.1883, 2507.981
533.6704, 2508.149
534.1525, 2523.039
534.6346, 2544.923
535.1168, 2553.602
535.5989, 2543.623
536.0810, 2529.494
536.5631, 2525.034
537.0452, 2530.769
537.5273, 2539.966
538.0095, 2556.030
538.4916, 2571.447
538.9737, 2585.536
539.4558, 2596.597
539.9379, 2601.501
540.4200, 2599.525
540.9022, 2594.342
541.3843, 2590.823
541.8664, 2589.153
542.3485, 2588.140
542.8306, 2587.357
543.3127, 2587.825
543.7948, 2589.959
544.2769, 2593.537
544.7590, 2598.680
545.2411, 2605.706
545.7233, 2612.419
546.2054, 2615.245
546.6875, 2614.535
547.1696, 2615.422
547.6517, 2618.835
548.1339, 2623.637
548.6160, 2629.554
549.0981, 2636.153
549.5802, 2642.315
550.0623, 2647.229
550.5444, 2652.237
551.0266, 2659.692
551.5087, 2667.783
551.9908, 2671.050
552.4729, 2667.607
552.9550, 2663.976
553.4371, 2668.899
553.9193, 2684.637
554.4014, 2695.364
554.8835, 2697.737
555.3656, 2699.601
555.8477, 2704.054
556.3298, 2709.768
556.8120, 2714.512
557.2941, 2717.495
557.7762, 2719.467
558.2583, 2721.361
558.7404, 2723.130
559.2225, 2724.849
559.7047, 2723.796
560.1868, 2726.492
560.6689, 2739.747
561.1510, 2757.405
561.6331, 2768.713
562.1152, 2769.095
562.5974, 2766.099
563.0795, 2764.780
563.5616, 2765.614
564.0437, 2771.157
564.5258, 2782.701
565.0079, 2795.489
565.4901, 2805.386
565.9722, 2812.414
566.4543, 2819.414
566.9364, 2826.370
567.4185, 2833.338
567.9006, 2840.838
568.3828, 2848.188
568.8649, 2854.289
569.3470, 2858.914
569.8291, 2862.844
570.3112, 2866.083
570.7933, 2868.204
571.2755, 2878.088
571.7576, 2906.612
572.2397, 2929.240
572.7218, 2936.320
573.2039, 2936.610
573.6860, 2939.525
574.1682, 2947.473
574.6503, 2957.876
575.1324, 2969.015
575.6145, 2980.669
576.0966, 2992.013
576.5787, 3003.083
577.0609, 3013.384
577.5430, 3021.953
578.0251, 3029.637
578.5072, 3038.456
578.9893, 3048.901
579.4714, 3059.461
579.9536, 3071.859
580.4357, 3082.861
580.9178, 3087.411
581.3999, 3085.606
581.8820, 3082.373
582.3641, 3080.934
582.8463, 3081.720
583.3284, 3087.292
583.8105, 3102.795
584.2926, 3115.804
584.7747, 3126.312
585.2568, 3133.524
585.7390, 3135.921
586.2211, 3134.185
586.7032, 3131.082
587.1853, 3128.061
587.6674, 3125.465
588.1495, 3124.760
588.6317, 3126.437
589.1138, 3126.836
589.5959, 3123.761
590.0780, 3119.848
590.5601, 3119.093
591.0422, 3121.414
591.5244, 3121.026
592.0065, 3112.753
592.4886, 3103.681
592.9707, 3101.854
593.4528, 3105.141
593.9349, 3105.110
594.4171, 3097.802
594.8992, 3087.289
595.3813, 3080.653
595.8634, 3079.146
596.3455, 3077.909
596.8276, 3077.728
597.3098, 3076.943
597.7919, 3075.124
598.2740, 3072.139
598.7561, 3067.538
599.2382, 3061.058
599.7203, 3054.220
600.2025, 3048.620
600.6846, 3044.268
601.1667, 3042.405
601.6488, 3044.526
602.1309, 3046.432
602.6130, 3043.682
603.0952, 3038.891
603.5773, 3037.841
604.0594, 3043.834
604.5415, 3048.803
605.0236, 3047.766
605.5057, 3043.442
605.9879, 3039.210
606.4700, 3035.897
606.9521, 3034.618
607.4342, 3036.617
607.9163, 3041.353
608.3984, 3044.826
608.8806, 3047.147
609.3627, 3047.818
609.8448, 3047.859
610.3269, 3045.471
610.8090, 3035.728
611.2911, 3021.122
611.7733, 3012.568
612.2554, 3020.554
612.7375, 3037.054
613.2196, 3042.595
613.7017, 3036.153
614.1838, 3029.593
614.6660, 3025.527
615.1481, 3023.924
615.6302, 3026.046
616.1123, 3031.574
616.5944, 3034.690
617.0765, 3034.643
617.5587, 3031.454
618.0408, 3022.751
618.5229, 3011.205
619.0050, 3002.881
619.4871, 2999.843
619.9692, 2998.443
620.4514, 2993.478
620.9335, 2984.069
621.4156, 2977.625
621.8977, 2977.502
622.3798, 2976.425
622.8619, 2971.820
623.3441, 2965.667
623.8262, 2961.547
624.3083, 2960.133
624.7904, 2955.345
625.2725, 2939.139
625.7546, 2915.943
626.2367, 2897.903
626.7188, 2885.777
627.2009, 2876.972
627.6830, 2871.233
628.1652, 2867.065
628.6473, 2861.309
629.1294, 2854.809
629.6115, 2844.761
630.0936, 2827.932
630.5757, 2809.802
631.0579, 2791.641
631.5400, 2775.594
632.0221, 2767.020
632.5042, 2768.914
632.9863, 2774.667
633.4684, 2771.269
633.9506, 2756.448
634.4327, 2743.804
634.9148, 2737.489
635.3969, 2728.954
635.8790, 2711.656
636.3611, 2690.133
636.8433, 2672.128
637.3254, 2659.840
637.8075, 2650.628
638.2896, 2644.550
638.7717, 2639.766
639.2538, 2631.667
639.7360, 2619.835
640.2181, 2609.559
640.7002, 2605.055
641.1823, 2604.625
641.6644, 2601.280
642.1465, 2594.570
642.6287, 2585.302
643.1108, 2571.111
643.5929, 2556.471
644.0750, 2544.117
644.5571, 2533.941
645.0392, 2524.525
645.5214, 2515.094
646.0035, 2506.213
646.4856, 2499.111
646.9677, 2493.783
647.4498, 2488.168
647.9319, 2481.086
648.4141, 2475.438
648.8962, 2475.273
649.3783, 2478.743
649.8604, 2478.890
650.3425, 2474.065
650.8246, 2467.321
651.3068, 2461.560
651.7889, 2453.623
652.2710, 2436.665
652.7531, 2411.828
653.2352, 2390.167
653.7173, 2380.830
654.1995, 2380.720
654.6816, 2376.465
655.1637, 2365.314
655.6458, 2356.636
656.1279, 2355.064
656.6100, 2353.738
657.0922, 2348.437
657.5743, 2339.944
658.0564, 2331.593
658.5385, 2324.736
659.0206, 2318.379
659.5027, 2311.577
659.9849, 2304.524
660.4670, 2297.716
660.9491, 2291.293
661.4312, 2284.977
661.9133, 2278.592
662.3954, 2272.083
662.8776, 2264.813
663.3597, 2252.840
663.8418, 2245.395
664.3239, 2249.259
664.8060, 2253.558
665.2881, 2247.962
665.7703, 2233.757
666.2524, 2220.482
666.7345, 2214.781
667.2166, 2212.434
667.6987, 2204.984
668.1808, 2192.607
668.6630, 2181.335
669.1451, 2171.773
669.6272, 2165.807
670.1093, 2167.608
670.5914, 2176.131
671.0735, 2178.442
671.5557, 2169.262
672.0378, 2160.048
672.5199, 2156.304
673.0020, 2153.357
673.4841, 2143.849
673.9662, 2128.572
674.4484, 2116.698
674.9305, 2116.046
675.4126, 2122.871
675.8947, 2124.097
676.3768, 2117.941
676.8589, 2114.274
677.3411, 2117.075
677.8232, 2120.697
678.3053, 2120.925
678.7874, 2118.265
679.2695, 2114.368
679.7516, 2108.063
680.2338, 2102.580
680.7159, 2101.365
681.1980, 2101.614
681.6801, 2098.342
682.1622, 2091.036
682.6443, 2083.077
683.1265, 2076.929
683.6086, 2072.793
684.0907, 2072.307
684.5728, 2079.438
685.0549, 2081.484
685.5370, 2074.156
686.0192, 2063.502
686.5013, 2051.129
686.9834, 2038.187
687.4655, 2027.178
687.9476, 2019.681
688.4297, 2013.298
688.9119, 2004.413
689.3940, 1995.298
689.8761, 1993.555
690.3582, 2000.205
690.8403, 2003.757
691.3224, 1994.354
691.8046, 1975.405
692.2867, 1962.896
692.7688, 1959.979
693.2509, 1958.786
693.7330, 1961.638
694.2151, 1963.595
694.6973, 1961.068
695.1794, 1955.297
695.6615, 1949.627
696.1436, 1945.386
696.6257, 1942.080
697.1078, 1940.906
697.5900, 1940.307
698.0721, 1933.265
698.5542, 1918.327
699.0363, 1904.673
699.5184, 1898.977
700.0005, 1898.924
700.4827, 1896.454
700.9648, 1887.831
701.4469, 1882.950
701.9290, 1887.021
702.4111, 1890.073
702.8932, 1883.677
703.3754, 1872.122
703.8575, 1865.142
704.3396, 1866.985
704.8217, 1871.602
705.3038, 1872.616
705.7859, 1870.269
706.2681, 1864.280
706.7502, 1853.681
707.2323, 1846.716
707.7144, 1849.622
708.1965, 1857.683
708.6786, 1859.647
709.1607, 1852.721
709.6428, 1848.250
710.1249, 1849.001
710.6071, 1850.348
711.0892, 1849.994
711.5713, 1848.313
712.0534, 1846.264
712.5355, 1844.166
713.0176, 1841.701
713.4998, 1837.613
713.9819, 1832.633
714.4640, 1830.959
714.9461, 1833.038
715.4282, 1836.050
715.9103, 1839.419
716.3925, 1842.444
716.8746, 1843.901
717.3567, 1843.666
717.8388, 1843.249
718.3209, 1843.988
718.8030, 1843.232
719.2852, 1838.286
719.7673, 1831.732
720.2494, 1827.008
720.7315, 1824.900
721.2136, 1823.916
721.6957, 1822.538
722.1779, 1821.260
722.6600, 1822.488
723.1421, 1826.697
723.6242, 1829.087
724.1063, 1827.488
724.5884, 1824.897
725.0706, 1825.748
725.5527, 1829.443
726.0348, 1827.833
726.5169, 1815.033
726.9990, 1803.587
727.4811, 1797.606
727.9633, 1795.128
728.4454, 1795.387
728.9275, 1797.303
729.4096, 1798.541
729.8917, 1797.850
730.3738, 1794.626
730.8560, 1786.092
731.3381, 1772.025
731.8202, 1761.677
732.3023, 1757.847
732.7844, 1754.714
733.2665, 1747.817
733.7487, 1738.185
734.2308, 1729.858
734.7129, 1723.372
735.1950, 1717.254
735.6771, 1713.121
736.1592, 1707.611
736.6414, 1696.400
737.1235, 1681.686
737.6056, 1668.983
738.0877, 1660.684
738.5698, 1655.116
739.0519, 1651.144
739.5341, 1648.310
740.0162, 1641.661
740.4983, 1630.019
740.9804, 1619.161
741.4625, 1612.477
741.9446, 1607.770
742.4268, 1600.762
742.9089, 1590.782
743.3910, 1582.122
743.8731, 1576.452
744.3552, 1570.732
744.8373, 1561.709
745.3195, 1552.522
745.8016, 1548.718
746.2837, 1550.908
746.7658, 1552.905
747.2479, 1547.892
747.7300, 1539.317
748.2122, 1539.094
748.6943, 1547.452
749.1764, 1546.778
749.6585, 1529.121
750.1406, 1508.867
750.6227, 1501.137
751.1049, 1505.588
751.5870, 1506.664
752.0691, 1503.192
752.5512, 1498.242
753.0333, 1490.759
753.5154, 1483.225
753.9976, 1476.828
754.4797, 1472.239
754.9618, 1470.342
755.4439, 1471.567
755.9260, 1475.759
756.4081, 1484.039
756.8903, 1495.287
757.3724, 1504.833
757.8545, 1512.117
758.3366, 1517.976
758.8187, 1522.983
759.3008, 1526.850
759.7830, 1529.069
760.2651, 1530.951
760.7472, 1527.858
761.2293, 1520.152
761.7114, 1507.511
762.1935, 1490.405
762.6757, 1468.062
763.1578, 1437.242
763.6399, 1397.746
764.1220, 1359.036
764.6041, 1326.875
765.0862, 1300.183
765.5684, 1278.869
766.0505, 1261.839
766.5326, 1244.596
767.0147, 1225.569
767.4968, 1206.978
767.9789, 1191.508
768.4611, 1178.916
768.9432, 1166.127
769.4253, 1151.015
769.9074, 1139.306
770.3895, 1134.143
770.8716, 1130.475
771.3538, 1126.257
771.8359, 1120.801
772.3180, 1112.427
772.8001, 1098.862
773.2822, 1085.860
773.7643, 1079.001
774.2465, 1074.366
774.7286, 1064.993
775.2107, 1051.479
775.6928, 1040.548
776.1749, 1035.997
776.6570, 1035.237
777.1392, 1033.531
777.6213, 1030.808
778.1034, 1027.643
778.5855, 1023.881
779.0676, 1020.032
779.5497, 1017.698
780.0319, 1014.538
780.5140, 1006.269
780.9961, 992.2010
781.4782, 982.0323
781.9603, 981.4188
782.4424, 981.7829
782.9246, 976.8215
783.4067, 970.2493
783.8888, 969.0883
784.3709, 973.6221
784.8530, 976.4611
785.3351, 970.8792
785.8173, 960.8644
786.2994, 957.5005
786.7815, 960.8187
787.2636, 959.4908
787.7457, 949.9668
788.2278, 940.5703
788.7100, 938.2181
789.1921, 940.9102
789.6742, 940.6642
790.1563, 934.5877
790.6384, 931.0432
791.1205, 933.8307
791.6026, 935.8864
792.0847, 931.7765
792.5668, 924.7262
793.0490, 920.3628
793.5311, 920.3419
794.0132, 921.9754
794.4953, 924.9793
794.9774, 927.2637
795.4595, 923.9253
795.9417, 915.8843
796.4238, 908.8593
796.9059, 904.6749
797.3880, 902.4011
797.8701, 901.2808
798.3522, 901.1792
798.8344, 899.8984
799.3165, 895.2736
799.7986, 893.6019
800.2807, 900.7706
800.7628, 906.7406
801.2449, 903.5656
801.7271, 894.4699
802.2092, 888.8216
802.6913, 890.4100
803.1734, 891.5969
803.6555, 888.0139
804.1376, 882.4200
804.6198, 876.4554
805.1019, 871.2515
805.5840, 869.5094
806.0661, 872.3516
806.5482, 876.2549
807.0303, 875.8271
807.5125, 878.0139
807.9946, 871.9933
808.4767, 877.5970
808.9588, 880.4141
809.4409, 876.4016
809.9230, 870.6955
810.4052, 869.6683
810.8873, 873.3002
811.3694, 873.4821
811.8515, 866.3857
812.3336, 861.0897
812.8157, 860.9423
813.2979, 861.9598
813.7800, 860.1934
814.2621, 856.8449
814.7442, 856.4152
815.2263, 861.3986
815.7084, 866.5448
816.1906, 865.9030
816.6727, 861.9969
817.1548, 860.2067
817.6369, 860.5765
818.1190, 859.8118
818.6011, 856.2463
819.0833, 853.0927
819.5654, 855.7217
820.0475, 864.5080
820.5296, 868.0793
821.0117, 864.4406
821.4938, 859.6327
821.9760, 853.0938
822.4581, 847.8412
822.9402, 846.6403
823.4223, 848.9591
823.9044, 852.3878
824.3865, 859.1346
824.8687, 862.9009
825.3508, 859.2141
825.8329, 852.9974
826.3150, 848.3417
826.7971, 845.5402
827.2792, 843.6494
827.7614, 842.2420
828.2435, 841.8167
828.7256, 843.2637
829.2077, 846.2023
829.6898, 849.8823
830.1719, 854.2466
830.6541, 855.8539
831.1362, 852.8740
831.6183, 848.5446
832.1004, 846.2565
832.5825, 846.0231
833.0646, 849.2338
833.5468, 860.2723
834.0289, 867.8517
834.5110, 870.0143
834.9931, 869.1100
835.4752, 865.0933
835.9573, 859.3680
836.4395, 854.8309
836.9216, 851.9564
837.4037, 851.2038
837.8858, 855.1668
838.3679, 859.5627
838.8500, 858.7201
839.3322, 854.6100
839.8143, 853.5741
840.2964, 857.5186
840.7785, 861.1447
841.2606, 856.8536
841.7427, 862.0004
842.2249, 851.2062
842.7070, 866.6224
843.1891, 877.8195
843.6712, 880.9115
844.1533, 877.7451
844.6354, 867.1207
845.1176, 851.9997
845.5997, 847.1996
846.0818, 862.8190
846.5639, 872.8422
847.0460, 874.8846
847.5281, 874.1483
848.0103, 871.4056
848.4924, 868.1860
848.9745, 866.5087
849.4566, 866.7717
849.9387, 867.6564
850.4208, 868.7189
850.9030, 869.8978
851.3851, 871.1434
851.8672, 872.4738
852.3493, 874.0641
852.8314, 875.8502
853.3135, 877.1656
853.7957, 877.2512
854.2778, 877.2974
854.7599, 880.4011
855.2420, 886.4923
855.7241, 892.3398
856.2062, 898.0652
856.6884, 900.9072
857.1705, 898.2323
857.6526, 893.2435
858.1347, 891.9805
858.6168, 895.4705
859.0989, 898.0539
859.5811, 899.1563
860.0632, 900.1113
860.5453, 901.2863
861.0274, 902.3925
861.5095, 902.7633
861.9916, 902.7393
862.4738, 903.9064
862.9559, 907.7324
863.4380, 911.1289
863.9201, 911.3573
864.4022, 910.5505
864.8843, 911.3175
865.3665, 913.4927
865.8486, 915.4586
866.3307, 916.5626
866.8128, 918.2201
867.2949, 923.3412
867.7770, 930.4617
868.2592, 932.4865
868.7413, 929.3340
869.2234, 926.1400
869.7055, 924.0848
870.1876, 923.3262
870.6697, 924.0078
871.1519, 926.1131
871.6340, 929.6653
872.1161, 935.8197
872.5981, 941.1849
873.0803, 946.1715
873.5624, 949.6582
874.0445, 949.2008
874.5266, 947.8253
875.0087, 950.9769
875.4908, 959.7069
875.9730, 965.1136
876.4551, 960.5833
876.9372, 955.6874
877.4193, 956.1293
877.9014, 959.9069
878.3835, 965.9085
878.8657, 972.5226
879.3478, 974.7761
879.8299, 968.4371
880.3120, 961.5569
880.7941, 967.4497
881.2762, 981.8157
881.7584, 990.8990
882.2405, 993.8400
882.7226, 993.9949
883.2047, 992.4538
883.6868, 991.8341
884.1689, 996.3923
884.6511, 1005.841
885.1332, 1009.806
885.6153, 1005.018
886.0974, 1004.151
886.5795, 1013.768
887.0616, 1022.647
887.5438, 1019.083
888.0259, 1008.255
888.5080, 1006.439
888.9901, 1019.310
889.4722, 1028.407
889.9543, 1027.605
890.4365, 1026.255
890.9186, 1029.624
891.4007, 1035.253
891.8828, 1039.389
892.3649, 1041.595
892.8470, 1044.150
893.3292, 1049.454
893.8113, 1054.263
894.2934, 1054.957
894.7755, 1053.201
895.2576, 1051.046
895.7397, 1049.266
896.2219, 1049.271
896.7040, 1051.815
897.1861, 1056.156
897.6682, 1061.554
898.1503, 1067.867
898.6324, 1074.564
899.1146, 1081.787
899.5967, 1086.546
900.0788, 1087.292
900.5609, 1087.792
901.0430, 1092.246
901.5251, 1092.952
902.0073, 1094.115
902.4894, 1098.442
902.9715, 1100.812
903.4536, 1102.745
903.9357, 1109.288
904.4178, 1115.649
904.9000, 1121.777
905.3821, 1127.400
905.8642, 1132.429
906.3463, 1137.981
906.8284, 1146.008
907.3105, 1152.547
907.7927, 1155.202
908.2748, 1155.800
908.7569, 1154.095
909.2390, 1152.178
909.7211, 1156.105
910.2032, 1169.565
910.6854, 1183.270
911.1675, 1188.227
911.6496, 1188.207
912.1317, 1189.323
912.6138, 1191.094
913.0959, 1189.616
913.5781, 1184.077
914.0602, 1179.630
914.5423, 1180.915
915.0244, 1187.218
915.5065, 1197.980
915.9886, 1213.287
916.4708, 1223.854
916.9529, 1227.910
917.4350, 1231.227
917.9171, 1237.266
918.3992, 1243.901
918.8813, 1247.053
919.3635, 1245.976
919.8456, 1247.550
920.3277, 1254.696
920.8098, 1259.702
921.2919, 1257.398
921.7740, 1255.633
922.2562, 1260.214
922.7383, 1269.742
923.2204, 1280.260
923.7025, 1292.971
924.1846, 1302.306
924.6667, 1305.183
925.1489, 1306.039
925.6310, 1303.736
926.1131, 1303.085
926.5952, 1313.239
927.0773, 1333.263
927.5594, 1348.381
928.0416, 1347.322
928.5237, 1343.243
929.0058, 1350.187
929.4879, 1360.929
929.9700, 1361.558
930.4521, 1354.493
930.9343, 1353.988
931.4164, 1365.867
931.8985, 1380.845
932.3806, 1387.462
932.8627, 1388.741
933.3448, 1394.863
933.8270, 1405.375
934.3091, 1415.759
934.7912, 1425.107
935.2733, 1432.056
935.7554, 1435.088
936.2375, 1436.447
936.7197, 1441.910
937.2018, 1452.535
937.6839, 1461.260
938.1660, 1467.599
938.6481, 1473.304
939.1302, 1478.824
939.6124, 1484.173
940.0945, 1489.544
940.5766, 1494.831
941.0587, 1499.149
941.5408, 1499.001
942.0229, 1503.234
942.5051, 1516.370
942.9872, 1529.425
943.4693, 1537.409
943.9514, 1542.977
944.4335, 1550.053
944.9156, 1559.066
945.3978, 1567.231
945.8799, 1572.370
946.3620, 1577.997
946.8441, 1587.124
947.3262, 1596.639
947.8083, 1601.749
948.2905, 1604.599
948.7726, 1611.961
949.2547, 1626.391
949.7368, 1641.565
950.2189, 1653.552
950.7010, 1662.319
951.1832, 1665.357
951.6653, 1665.743
952.1474, 1671.509
952.6295, 1683.440
953.1116, 1695.829
953.5938, 1705.090
954.0759, 1712.642
954.5580, 1720.476
955.0400, 1728.675
955.5222, 1738.728
956.0043, 1750.578
956.4864, 1757.039
956.9685, 1754.919
957.4506, 1755.679
957.9327, 1771.806
958.4149, 1798.386
958.8970, 1812.598
959.3791, 1810.625
959.8612, 1816.516
960.3433, 1834.887
960.8254, 1853.248
961.3076, 1866.124
961.7897, 1875.592
962.2718, 1884.192
962.7539, 1891.908
963.2360, 1898.939
963.7181, 1902.226
964.2003, 1909.566
964.6824, 1924.855
965.1645, 1940.825
965.6466, 1952.770
966.1287, 1963.252
966.6108, 1977.797
967.0930, 1997.716
967.5751, 2013.067
968.0572, 2019.323
968.5393, 2023.726
969.0214, 2026.768
969.5035, 2031.111
969.9857, 2037.991
970.4678, 2048.320
970.9499, 2065.695
971.4320, 2092.829
971.9141, 2114.100
972.3962, 2112.559
972.8784, 2108.806
973.3605, 2123.082
973.8426, 2146.430
974.3247, 2164.210
974.8068, 2174.827
975.2889, 2184.485
975.7711, 2196.322
976.2532, 2209.536
976.7353, 2225.263
977.2174, 2240.696
977.6995, 2247.802
978.1816, 2249.945
978.6638, 2260.357
979.1459, 2282.020
979.6280, 2305.586
980.1101, 2323.639
980.5922, 2338.377
981.0743, 2354.058
981.5565, 2370.267
982.0386, 2384.081
982.5207, 2395.343
983.0028, 2408.141
983.4849, 2424.286
983.9670, 2439.546
984.4492, 2448.715
984.9313, 2453.576
985.4134, 2462.963
985.8955, 2477.519
986.3776, 2491.706
986.8597, 2504.803
987.3419, 2518.170
987.8240, 2532.244
988.3061, 2547.353
988.7882, 2564.372
989.2703, 2583.213
989.7524, 2599.913
990.2346, 2612.964
990.7167, 2627.291
991.1988, 2644.499
991.6809, 2661.788
992.1630, 2677.382
992.6451, 2692.190
993.1273, 2708.178
993.6094, 2725.827
994.0915, 2741.094
994.5736, 2749.344
995.0557, 2761.757
995.5378, 2785.836
996.0200, 2809.401
996.5021, 2820.674
996.9842, 2826.600
997.4663, 2843.150
997.9484, 2874.561
998.4305, 2899.770
998.9127, 2904.985
999.3948, 2913.511
999.8769, 2940.532
1000.359, 2970.957
1000.841, 2989.308
1001.323, 2998.767
1001.805, 3011.000
1002.287, 3029.552
1002.770, 3049.079
1003.252, 3068.091
1003.734, 3085.714
1004.216, 3099.189
1004.698, 3112.376
1005.180, 3131.116
1005.662, 3154.801
1006.144, 3178.860
1006.627, 3201.602
1007.109, 3223.010
1007.591, 3242.728
1008.073, 3261.274
1008.555, 3279.152
1009.037, 3296.306
1009.519, 3311.807
1010.001, 3326.144
1010.483, 3342.408
1010.966, 3362.471
1011.448, 3383.704
1011.930, 3402.990
1012.412, 3421.232
1012.894, 3438.621
1013.376, 3456.694
1013.858, 3482.568
1014.340, 3516.417
1014.823, 3545.087
1015.305, 3558.382
1015.787, 3567.344
1016.269, 3592.854
1016.751, 3629.494
1017.233, 3656.184
1017.715, 3672.977
1018.197, 3686.572
1018.679, 3699.033
1019.162, 3714.525
1019.644, 3736.882
1020.126, 3763.037
1020.608, 3786.138
1021.090, 3806.419
1021.572, 3828.353
1022.054, 3852.199
1022.536, 3875.841
1023.018, 3898.399
1023.501, 3922.957
1023.983, 3953.298
1024.465, 3974.278
1024.947, 3997.165
1025.429, 4021.591
1025.911, 4039.186
1026.393, 4063.732
1026.875, 4087.667
1027.358, 4108.281
1027.840, 4127.587
1028.322, 4146.681
1028.804, 4166.646
1029.286, 4191.779
1029.768, 4223.643
1030.250, 4254.450
1030.732, 4283.659
1031.214, 4313.608
1031.697, 4347.890
1032.179, 4378.162
1032.661, 4393.802
1033.143, 4398.657
1033.625, 4412.101
1034.107, 4434.431
1034.589, 4465.564
1035.071, 4511.799
1035.553, 4555.690
1036.036, 4592.492
1036.518, 4622.344
1037.000, 4643.010
1037.482, 4656.329
1037.964, 4673.138
1038.446, 4690.446
1038.928, 4717.268
1039.410, 4769.731
1039.893, 4809.528
1040.375, 4807.125
1040.857, 4799.724
1041.339, 4826.972
1041.821, 4882.268
1042.303, 4929.302
1042.785, 4964.583
1043.267, 4997.517
1043.750, 5030.923
1044.232, 5058.964
1044.714, 5070.985
1045.196, 5083.200
1045.678, 5114.030
1046.160, 5159.499
1046.642, 5199.247
1047.124, 5227.073
1047.606, 5258.745
1048.089, 5300.666
1048.571, 5341.253
1049.053, 5378.319
1049.535, 5410.080
1050.017, 5432.160
1050.499, 5447.521
1050.981, 5468.041
1051.463, 5496.107
1051.945, 5527.826
1052.428, 5564.183
1052.910, 5602.024
1053.392, 5638.819
1053.874, 5677.389
1054.356, 5723.731
1054.838, 5774.507
1055.320, 5816.159
1055.802, 5841.429
1056.285, 5873.474
1056.767, 5927.673
1057.249, 5979.460
1057.731, 6013.599
1058.213, 6041.838
1058.695, 6077.003
1059.177, 6117.226
1059.659, 6151.640
1060.141, 6174.400
1060.624, 6207.671
1061.106, 6269.716
1061.588, 6331.535
1062.070, 6376.742
1062.552, 6416.172
1063.034, 6459.662
1063.516, 6507.253
1063.998, 6556.530
1064.480, 6607.740
1064.963, 6655.453
1065.445, 6696.030
1065.927, 6734.420
1066.409, 6768.357
1066.891, 6805.352
1067.373, 6853.955
1067.855, 6910.965
1068.337, 6968.740
1068.820, 7025.516
1069.302, 7081.135
1069.784, 7134.683
1070.266, 7188.126
1070.748, 7242.094
1071.230, 7296.983
1071.712, 7351.995
1072.194, 7409.159
1072.677, 7474.290
1073.159, 7548.288
1073.641, 7620.073
1074.123, 7677.306
1074.605, 7740.849
1075.087, 7825.362
1075.569, 7917.009
1076.051, 8010.144
1076.533, 8099.180
1077.016, 8172.290
1077.498, 8229.459
1077.980, 8293.913
1078.462, 8382.418
1078.944, 8470.813
1079.426, 8546.505
1079.908, 8618.876
1080.390, 8694.602
1080.872, 8773.264
1081.354, 8855.307
1081.837, 8939.369
1082.319, 9017.808
1082.801, 9084.535
1083.283, 9152.144
1083.765, 9216.247
1084.247, 9293.692
1084.729, 9408.699
1085.211, 9537.262
1085.694, 9641.242
1086.176, 9724.203
1086.658, 9828.973
1087.140, 9978.366
1087.622, 10125.98
1088.104, 10255.16
1088.586, 10374.87
1089.068, 10500.28
1089.551, 10612.22
1090.033, 10684.78
1090.515, 10722.65
1090.997, 10748.20
1091.479, 10768.71
1091.961, 10771.94
1092.443, 10750.90
1092.925, 10714.50
1093.407, 10659.38
1093.890, 10597.93
1094.372, 10531.04
1094.854, 10470.15
1095.336, 10440.33
1095.818, 10448.99
1096.300, 10467.08
1096.782, 10488.00
1097.264, 10513.32
1097.746, 10539.04
1098.229, 10574.10
1098.711, 10627.80
1099.193, 10695.09
1099.675, 10769.68
1100.157, 10850.53
1100.639, 10924.35
1101.121, 10978.24
1101.603, 11037.83
1102.086, 11110.35
1102.568, 11190.56
1103.050, 11282.08
1103.532, 11374.93
1104.014, 11453.76
1104.496, 11519.17
1104.978, 11588.12
1105.460, 11658.87
1105.943, 11740.67
1106.425, 11839.70
1106.907, 11944.54
1107.389, 12057.37
1107.871, 12168.74
1108.353, 12269.24
1108.835, 12359.47
1109.317, 12443.56
1109.799, 12523.54
1110.281, 12593.25
1110.764, 12636.00
1111.246, 12689.57
1111.728, 12767.68
1112.210, 12858.12
1112.692, 12953.14
1113.174, 13052.30
1113.656, 13155.92
1114.138, 13264.21
1114.621, 13374.35
1115.103, 13488.37
1115.585, 13600.36
1116.067, 13708.66
1116.549, 13816.01
1117.031, 13928.99
1117.513, 14037.75
1117.995, 14119.59
1118.478, 14232.93
1118.960, 14342.63
1119.442, 14430.29
1119.924, 14565.77
1120.406, 14650.63
1120.888, 14740.94
1121.370, 14863.58
1121.852, 14999.59
1122.334, 15128.63
1122.817, 15251.14
1123.299, 15368.03
1123.781, 15476.29
1124.263, 15594.23
1124.745, 15725.53
1125.227, 15853.47
1125.709, 15970.40
1126.191, 16089.86
1126.673, 16222.53
1127.156, 16365.17
1127.638, 16513.76
1128.120, 16668.35
1128.602, 16795.06
1129.084, 16888.28
1129.566, 17007.87
1130.048, 17168.41
1130.530, 17324.42
1131.013, 17447.30
1131.495, 17609.50
1131.977, 17719.50
1132.459, 17902.16
1132.941, 18058.68
1133.423, 18193.25
1133.905, 18353.82
1134.387, 18543.90
1134.870, 18711.43
1135.352, 18835.89
1135.834, 18968.16
1136.316, 19160.29
1136.798, 19383.54
1137.280, 19578.48
1137.762, 19752.10
1138.244, 19925.00
1138.726, 20100.59
1139.208, 20290.03
1139.691, 20494.00
1140.173, 20689.34
1140.655, 20862.53
1141.137, 21030.09
1141.619, 21209.81
1142.101, 21401.15
1142.583, 21608.47
1143.065, 21824.37
1143.548, 22027.63
1144.030, 22223.19
1144.512, 22440.47
1144.994, 22690.97
1145.476, 22949.48
1145.958, 23208.81
1146.440, 23450.65
1146.922, 23638.55
1147.405, 23811.82
1147.887, 24015.77
1148.369, 24247.65
1148.851, 24493.96
1149.333, 24750.32
1149.815, 25010.08
1150.297, 25267.48
1150.779, 25536.10
1151.261, 25823.31
1151.744, 26125.02
1152.226, 26451.11
1152.708, 26780.52
1153.190, 27093.65
1153.672, 27387.96
1154.154, 27656.60
1154.636, 27890.60
1155.118, 28159.45
1155.600, 28514.05
1156.083, 28864.69
1156.565, 29173.64
1157.047, 29476.92
1157.529, 29790.88
1158.011, 30123.60
1158.493, 30490.13
1158.975, 30892.59
1159.457, 31282.46
1159.940, 31659.71
1160.422, 32021.13
1160.904, 32336.57
1161.386, 32683.67
1161.868, 33112.79
1162.350, 33553.89
1162.832, 33939.74
1163.314, 34289.10
1163.796, 34657.21
1164.279, 35042.75
1164.761, 35450.92
1165.243, 35880.11
1165.725, 36335.80
1166.207, 36831.88
1166.689, 37312.66
1167.171, 37740.20
1167.653, 38158.04
1168.135, 38638.48
1168.618, 39070.81
1169.100, 39517.94
1169.582, 39996.37
1170.064, 40461.87
1170.546, 40930.15
1171.028, 41438.38
1171.510, 41939.55
1171.992, 42445.80
1172.474, 42969.46
1172.957, 43494.18
1173.439, 43992.30
1173.921, 44471.17
1174.403, 44949.34
1174.885, 45430.34
1175.367, 45921.87
1175.849, 46428.19
1176.331, 46951.83
1176.814, 47494.77
1177.296, 48029.03
1177.778, 48506.63
1178.260, 48994.10
1178.742, 49610.49
1179.224, 50254.08
1179.706, 50776.70
1180.188, 51220.86
1180.671, 51682.82
1181.153, 52177.17
1181.635, 52661.07
1182.117, 53108.64
1182.599, 53562.13
1183.081, 54039.26
1183.563, 54532.66
1184.045, 55053.70
1184.527, 55574.63
1185.010, 56074.72
1185.492, 56554.44
1185.974, 57016.51
1186.456, 57461.88
1186.938, 57903.16
1187.420, 58316.80
1187.902, 58766.63
1188.384, 59297.31
1188.866, 59821.98
1189.349, 60308.32
1189.831, 60762.36
1190.313, 61172.74
1190.795, 61552.73
1191.277, 61964.39
1191.759, 62359.15
1192.241, 62745.32
1192.723, 63164.34
1193.206, 63524.79
1193.688, 63942.79
1194.170, 64345.66
1194.652, 64687.98
1195.134, 64999.38
1195.616, 65321.32
1196.098, 65615.68
1196.580, 65903.39
1197.063, 66181.84
1197.545, 66442.09
1198.027, 66711.29
1198.509, 66948.42
1198.991, 67145.14
1199.473, 67355.52
1199.955, 67620.56
1200.437, 67880.39
1200.919, 68038.51
1201.401, 68154.45
1201.884, 68334.68
1202.366, 68551.84
1202.848, 68760.83
1203.330, 68950.72
1203.812, 69108.03
1204.294, 69231.51
1204.776, 69351.41
1205.258, 69491.05
1205.741, 69617.80
1206.223, 69705.05
1206.705, 69775.70
1207.187, 69835.05
1207.669, 69897.27
1208.151, 69988.45
1208.633, 70095.38
1209.115, 70171.95
1209.598, 70204.27
1210.080, 70242.17
1210.562, 70285.38
1211.044, 70347.43
1211.526, 70480.92
1212.008, 70570.83
1212.490, 70537.13
1212.972, 70460.78
1213.454, 70429.09
1213.937, 70438.80
1214.419, 70477.99
1214.901, 70555.33
1215.383, 70620.89
1215.865, 70676.17
1216.347, 70703.17
1216.829, 70692.70
1217.311, 70702.15
1217.793, 70768.02
1218.276, 70846.66
1218.758, 70875.42
1219.240, 70877.93
1219.722, 70920.80
1220.204, 70995.66
1220.686, 71064.69
1221.168, 71135.11
1221.650, 71257.21
1222.133, 71432.63
1222.615, 71587.77
1223.097, 71677.92
1223.579, 71769.52
1224.061, 71930.50
1224.543, 72113.05
1225.025, 72266.92
1225.507, 72415.80
1225.990, 72609.00
1226.472, 72810.90
1226.954, 72931.95
1227.436, 72970.27
1227.918, 73061.45
1228.400, 73272.89
1228.882, 73478.02
1229.364, 73614.87
1229.846, 73783.88
1230.328, 74063.18
1230.811, 74349.98
1231.293, 74551.89
1231.775, 74719.32
1232.257, 74952.45
1232.739, 75148.49
1233.221, 75358.98
1233.703, 75609.81
1234.185, 75814.08
1234.668, 76121.73
1235.150, 76407.24
1235.632, 76629.73
1236.114, 76819.76
1236.596, 76998.84
1237.078, 77171.80
1237.560, 77346.66
1238.042, 77523.91
1238.525, 77721.97
1239.007, 77924.82
1239.489, 78057.10
1239.971, 78144.27
1240.453, 78320.05
1240.935, 78611.61
1241.417, 78890.77
1241.899, 79077.38
1242.381, 79234.43
1242.864, 79408.90
1243.346, 79581.44
1243.828, 79721.33
1244.310, 79862.58
1244.792, 80062.02
1245.274, 80287.11
1245.756, 80455.96
1246.238, 80556.40
1246.720, 80656.89
1247.203, 80789.23
1247.685, 80886.99
1248.167, 80936.73
1248.649, 80961.26
1249.131, 80934.52
1249.613, 80941.32
1250.095, 81061.98
1250.577, 81238.16
1251.059, 81363.15
1251.542, 81436.17
1252.024, 81417.78
1252.506, 81309.31
1252.988, 81316.23
1253.470, 81451.06
1253.952, 81582.48
1254.434, 81667.80
1254.916, 81732.45
1255.399, 81791.71
1255.881, 81849.61
1256.363, 81899.06
1256.845, 81959.87
1257.327, 82061.98
1257.809, 82192.95
1258.291, 82347.36
1258.773, 82509.64
1259.255, 82641.84
1259.738, 82746.91
1260.220, 82898.30
1260.702, 83149.38
1261.184, 83374.09
1261.666, 83459.83
1262.148, 83611.40
1262.630, 83968.86
1263.112, 84360.28
1263.594, 84660.83
1264.077, 84917.67
1264.559, 85179.45
1265.041, 85454.88
1265.523, 85820.52
1266.005, 86284.36
1266.487, 86786.88
1266.969, 87330.66
1267.451, 87865.91
1267.934, 88379.20
1268.416, 88934.64
1268.898, 89574.05
1269.380, 90248.77
1269.862, 90890.42
1270.344, 91659.04
1270.826, 92356.81
1271.308, 93244.80
1271.791, 94117.63
1272.273, 94973.17
1272.755, 95812.15
1273.237, 96651.08
1273.719, 97530.73
1274.201, 98467.08
1274.683, 99471.83
1275.165, 100589.6
1275.647, 101735.3
1276.130, 102886.9
1276.612, 104055.4
1277.094, 105285.6
1277.576, 106504.7
1278.058, 107585.2
1278.540, 108600.6
1279.022, 109764.0
1279.504, 111087.7
1279.986, 112391.1
1280.469, 113666.6
1280.951, 114941.9
1281.433, 116224.2
1281.915, 117483.0
1282.397, 118715.6
1282.879, 119993.6
1283.361, 121379.3
1283.843, 122797.5
1284.326, 124159.4
1284.808, 125458.0
##END=



