##NAMES=Lanthanite-(Nd)
##RRUFFID=R060993
##IDEAL CHEMISTRY=Nd_2_(CO_3_)_3_&#183;8H_2_O
##LOCALITY=Mitsukoshi, Hizen-cho, Karatsu City, Saga Prefecture, Japan
##OWNER=RRUFF
##SOURCE=Marcus Origlieri
##DESCRIPTION=Pink platy crystals and cleavages on rock. This sample was used in the structural study by Morrison et al (2013)
##STATUS=The identification of this mineral is confirmed by single-crystal X-ray diffraction and chemical analysis.
##URL=rruff.info/R060993
##MEASURED CHEMISTRY=(Nd_0.95_La_0.61_Pr_0.17_Sm_0.12_Gd_0.08_Y_0.04_Eu_0.03_)_Σ=2_(CO_3_)_3_·7.97H_2_O
88.74414, 0.0000000E+00
89.22626, 2.072159
89.70837, 10.04288
90.19049, 18.04119
90.67261, 29.99953
91.15472, 48.39832
91.63684, 69.55347
92.11896, 88.50299
92.60107, 101.1767
93.08319, 112.0131
93.56531, 131.2790
94.04742, 158.5737
94.52954, 183.5267
95.01165, 198.3112
95.49377, 208.0860
95.97588, 223.1533
96.45800, 251.2455
96.94012, 290.2958
97.42223, 330.8570
97.90435, 370.2566
98.38647, 407.3142
98.86858, 438.1009
99.35070, 462.8533
99.83282, 481.3737
100.3149, 491.5746
100.7971, 495.1752
101.2792, 502.3221
101.7613, 524.7490
102.2434, 549.1445
102.7255, 562.9331
103.2076, 573.1827
103.6898, 595.6036
104.1719, 646.9604
104.6540, 727.2662
105.1361, 808.8478
105.6182, 881.9810
106.1003, 948.1782
106.5825, 1005.447
107.0646, 1035.229
107.5467, 1027.808
108.0288, 992.6793
108.5109, 962.7021
108.9930, 927.9537
109.4751, 887.6647
109.9573, 844.5101
110.4394, 798.7659
110.9215, 751.0634
111.4036, 703.4437
111.8857, 658.5890
112.3678, 617.6514
112.8500, 577.5643
113.3321, 542.1521
113.8142, 505.5401
114.2963, 460.3943
114.7784, 404.8622
115.2605, 346.4323
115.7427, 298.7138
116.2248, 268.3015
116.7069, 234.9111
117.1890, 195.7427
117.6711, 152.7446
118.1532, 107.6266
118.6354, 60.32680
119.1175, 12.93050
119.5996, 30.37421
120.0817, 71.93597
120.5638, 106.4378
121.0459, 129.7761
121.5281, 144.8181
122.0102, 157.9110
122.4923, 171.2896
122.9744, 184.3641
123.4565, 197.3724
123.9386, 215.8904
124.4208, 223.9323
124.9029, 210.3821
125.3850, 177.4501
125.8671, 138.1572
126.3492, 96.04492
126.8313, 50.17590
127.3135, 0.1573490
127.7956, 56.34442
128.2777, 113.8671
128.7598, 169.7377
129.2419, 224.8605
129.7240, 273.5598
130.2061, 309.4722
130.6883, 339.0436
131.1704, 369.5898
131.6525, 403.8708
132.1346, 437.8524
132.6167, 471.7850
133.0988, 509.8196
133.5810, 527.4670
134.0631, 504.1155
134.5452, 457.5469
135.0273, 400.6624
135.5094, 333.6934
135.9915, 263.8956
136.4737, 204.3296
136.9558, 157.2737
137.4379, 116.1425
137.9200, 72.18359
138.4021, 33.59607
138.8842, 10.72961
139.3664, 8.570801
139.8485, 24.48584
140.3306, 51.68750
140.8127, 91.24902
141.2948, 142.1929
141.7769, 200.7517
142.2591, 269.1714
142.7412, 350.0232
143.2233, 444.6746
143.7054, 553.0327
144.1875, 672.9370
144.6696, 813.5901
145.1518, 954.5447
145.6339, 1097.065
146.1160, 1234.807
146.5981, 1367.879
147.0802, 1480.773
147.5623, 1574.349
148.0445, 1659.307
148.5266, 1734.766
149.0087, 1799.887
149.4908, 1857.966
149.9729, 1905.687
150.4550, 1936.233
150.9371, 1944.515
151.4193, 1930.757
151.9014, 1911.607
152.3835, 1889.855
152.8656, 1859.662
153.3477, 1813.217
153.8298, 1756.523
154.3120, 1701.628
154.7941, 1657.770
155.2762, 1625.153
155.7583, 1595.227
156.2404, 1570.184
156.7225, 1545.435
157.2047, 1514.278
157.6868, 1481.277
158.1689, 1457.036
158.6510, 1449.841
159.1331, 1460.218
159.6152, 1484.719
160.0974, 1534.525
160.5795, 1585.010
161.0616, 1623.865
161.5437, 1653.410
162.0258, 1683.510
162.5079, 1721.963
162.9901, 1768.339
163.4722, 1826.145
163.9543, 1901.983
164.4364, 1980.163
164.9185, 2052.842
165.4007, 2120.484
165.8828, 2186.327
166.3649, 2254.419
166.8470, 2324.966
167.3291, 2388.254
167.8112, 2439.157
168.2934, 2487.991
168.7755, 2543.648
169.2576, 2604.193
169.7397, 2657.424
170.2218, 2691.917
170.7039, 2705.000
171.1861, 2723.873
171.6682, 2757.164
172.1503, 2788.669
172.6324, 2811.947
173.1145, 2825.122
173.5966, 2825.396
174.0788, 2808.115
174.5609, 2771.186
175.0430, 2740.708
175.5251, 2714.133
176.0072, 2694.708
176.4893, 2689.797
176.9714, 2696.968
177.4536, 2700.346
177.9357, 2685.553
178.4178, 2651.622
178.8999, 2624.078
179.3820, 2608.865
179.8641, 2596.213
180.3463, 2574.446
180.8284, 2544.505
181.3105, 2524.830
181.7926, 2535.754
182.2747, 2577.603
182.7568, 2595.109
183.2390, 2573.890
183.7211, 2541.501
184.2032, 2515.344
184.6853, 2496.550
185.1674, 2482.282
185.6495, 2463.594
186.1317, 2442.921
186.6138, 2443.775
187.0959, 2491.167
187.5780, 2542.299
188.0601, 2563.118
188.5422, 2553.497
189.0244, 2538.239
189.5065, 2539.277
189.9886, 2550.909
190.4707, 2535.620
190.9528, 2459.245
191.4349, 2380.449
191.9171, 2347.438
192.3992, 2359.136
192.8813, 2382.413
193.3634, 2401.585
193.8455, 2413.413
194.3276, 2410.050
194.8098, 2379.462
195.2919, 2342.601
195.7740, 2311.067
196.2561, 2285.438
196.7382, 2270.972
197.2203, 2278.813
197.7025, 2299.751
198.1846, 2298.624
198.6667, 2259.023
199.1488, 2210.248
199.6309, 2171.974
200.1130, 2143.157
200.5951, 2114.559
201.0773, 2080.435
201.5594, 2042.749
202.0415, 2008.568
202.5236, 1983.423
203.0057, 1955.897
203.4878, 1915.799
203.9700, 1864.840
204.4521, 1815.360
204.9342, 1774.534
205.4163, 1738.834
205.8984, 1698.511
206.3805, 1649.879
206.8627, 1601.637
207.3448, 1557.647
207.8269, 1518.067
208.3090, 1483.797
208.7911, 1455.794
209.2732, 1433.513
209.7554, 1415.251
210.2375, 1404.467
210.7196, 1391.123
211.2017, 1370.266
211.6838, 1342.403
212.1659, 1305.983
212.6481, 1252.109
213.1302, 1199.403
213.6123, 1184.178
214.0944, 1216.789
214.5765, 1253.682
215.0586, 1279.698
215.5408, 1294.736
216.0229, 1296.206
216.5050, 1277.822
216.9871, 1253.870
217.4692, 1249.560
217.9513, 1268.348
218.4335, 1287.063
218.9156, 1289.907
219.3977, 1286.347
219.8798, 1300.399
220.3619, 1343.436
220.8440, 1395.159
221.3262, 1426.020
221.8083, 1436.424
222.2904, 1439.657
222.7725, 1427.505
223.2546, 1413.562
223.7367, 1424.000
224.2189, 1467.928
224.7010, 1524.676
225.1831, 1567.279
225.6652, 1595.886
226.1473, 1628.201
226.6294, 1682.306
227.1115, 1737.078
227.5937, 1757.989
228.0758, 1736.621
228.5579, 1706.923
229.0400, 1703.018
229.5221, 1724.769
230.0042, 1755.130
230.4864, 1803.677
230.9685, 1853.359
231.4506, 1886.008
231.9327, 1899.694
232.4148, 1905.464
232.8969, 1911.896
233.3791, 1918.731
233.8612, 1922.058
234.3433, 1904.566
234.8254, 1895.918
235.3075, 1928.779
235.7896, 2000.386
236.2718, 2069.494
236.7539, 2107.233
237.2360, 2114.341
237.7181, 2120.940
238.2002, 2127.935
238.6823, 2133.593
239.1645, 2136.577
239.6466, 2137.259
240.1287, 2136.400
240.6108, 2133.363
241.0929, 2129.726
241.5750, 2133.316
242.0572, 2145.710
242.5393, 2162.474
243.0214, 2194.734
243.5035, 2230.657
243.9856, 2240.352
244.4677, 2206.267
244.9499, 2142.765
245.4320, 2094.519
245.9141, 2064.022
246.3962, 2042.135
246.8783, 2033.488
247.3604, 2030.821
247.8426, 2024.912
248.3247, 2012.641
248.8068, 1992.435
249.2889, 1959.206
249.7710, 1894.623
250.2531, 1849.617
250.7352, 1844.195
251.2174, 1852.068
251.6995, 1846.584
252.1816, 1820.753
252.6637, 1782.784
253.1458, 1743.530
253.6279, 1699.264
254.1101, 1663.021
254.5922, 1640.656
255.0743, 1621.743
255.5564, 1599.761
256.0385, 1573.542
256.5207, 1544.485
257.0028, 1514.827
257.4849, 1486.297
257.9670, 1447.410
258.4491, 1389.788
258.9312, 1331.670
259.4134, 1277.186
259.8955, 1229.497
260.3776, 1196.870
260.8597, 1188.704
261.3418, 1204.838
261.8239, 1195.715
262.3060, 1131.000
262.7881, 1074.588
263.2703, 1049.251
263.7524, 1044.296
264.2345, 1039.904
264.7166, 1024.269
265.1987, 997.7422
265.6808, 966.1396
266.1630, 926.1611
266.6451, 887.0156
267.1272, 847.1055
267.6093, 809.5400
268.0914, 778.9150
268.5735, 756.9746
269.0557, 738.9062
269.5378, 712.2676
270.0199, 660.5127
270.5020, 633.3594
270.9841, 659.7510
271.4662, 692.8691
271.9484, 692.5859
272.4305, 650.8003
272.9126, 596.2510
273.3947, 565.8765
273.8768, 564.3579
274.3589, 563.3247
274.8411, 569.4932
275.3232, 570.7324
275.8053, 554.9609
276.2874, 525.4771
276.7695, 500.2588
277.2516, 498.0225
277.7338, 519.3169
278.2159, 536.0459
278.6980, 541.4937
279.1801, 545.6504
279.6622, 561.4155
280.1443, 583.3633
280.6265, 594.0449
281.1086, 575.3057
281.5907, 537.9678
282.0728, 520.9922
282.5549, 533.0771
283.0370, 546.6665
283.5192, 542.7607
284.0013, 532.2607
284.4834, 533.5229
284.9655, 559.6216
285.4476, 593.0386
285.9297, 608.7212
286.4119, 604.0928
286.8940, 589.2388
287.3761, 563.5322
287.8582, 536.1504
288.3403, 514.5347
288.8224, 498.9648
289.3046, 483.4902
289.7867, 463.3203
290.2688, 440.4883
290.7509, 421.8433
291.2330, 406.8037
291.7151, 401.0166
292.1973, 415.2529
292.6794, 450.0435
293.1615, 472.7251
293.6436, 465.7139
294.1257, 440.2393
294.6078, 412.7642
295.0900, 384.3647
295.5721, 360.5117
296.0542, 351.0601
296.5363, 355.1230
297.0184, 351.2017
297.5005, 327.0005
297.9827, 299.4204
298.4648, 280.9780
298.9469, 272.8262
299.4290, 274.5396
299.9111, 288.7104
300.3932, 313.2192
300.8754, 327.9927
301.3575, 331.4448
301.8396, 327.9775
302.3217, 316.6055
302.8038, 299.5845
303.2859, 280.6157
303.7681, 261.0703
304.2502, 243.5928
304.7323, 235.2183
305.2144, 247.9429
305.6965, 253.8071
306.1786, 247.2725
306.6608, 235.4653
307.1429, 225.4629
307.6250, 219.2012
308.1071, 212.9663
308.5892, 201.0156
309.0714, 178.8799
309.5535, 163.3296
310.0356, 162.5757
310.5177, 160.8384
310.9998, 147.9678
311.4819, 124.4209
311.9640, 97.01709
312.4461, 69.84473
312.9283, 43.17822
313.4104, 24.92822
313.8925, 23.89551
314.3746, 22.61670
314.8567, 15.19287
315.3388, 5.037598
315.8210, 0.6328130
316.3031, 3.496094
316.7852, 10.22314
317.2673, 1.662109
317.7494, 43.98291
318.2315, 78.39355
318.7137, 91.66260
319.1958, 95.99316
319.6779, 101.1929
320.1600, 109.7573
320.6421, 117.3252
321.1242, 120.8276
321.6064, 120.5444
322.0885, 109.1963
322.5706, 72.95215
323.0527, 38.89209
323.5348, 29.34961
324.0169, 42.17773
324.4991, 57.48389
324.9812, 67.49121
325.4633, 71.73438
325.9454, 67.91553
326.4275, 54.20898
326.9096, 38.22900
327.3918, 24.93359
327.8739, 13.55713
328.3560, 2.316895
328.8381, 16.36572
329.3202, 29.51025
329.8023, 18.07568
330.2845, 13.09131
330.7666, 31.62256
331.2487, 18.11182
331.7308, 14.90332
332.2129, 33.72656
332.6950, 36.84912
333.1772, 32.11719
333.6593, 18.80078
334.1414, 6.4940996E-02
334.6235, 23.70898
335.1056, 52.33691
335.5877, 74.78076
336.0699, 73.44678
336.5520, 33.08838
337.0341, 15.98682
337.5162, 39.12158
337.9983, 70.92188
338.4804, 93.35645
338.9626, 105.3574
339.4447, 112.9883
339.9268, 121.5518
340.4089, 130.6655
340.8910, 130.5000
341.3731, 106.3384
341.8553, 89.05615
342.3374, 94.62598
342.8195, 107.6304
343.3016, 103.9609
343.7837, 72.81738
344.2658, 30.51855
344.7480, 13.72803
345.2301, 38.81885
345.7122, 48.49609
346.1943, 20.71240
346.6764, 12.72510
347.1585, 32.29297
347.6407, 35.66992
348.1228, 31.81152
348.6049, 22.55518
349.0870, 9.557617
349.5691, 16.69629
350.0512, 59.85938
350.5334, 100.7466
351.0155, 113.6929
351.4976, 108.5688
351.9797, 106.4800
352.4618, 120.5903
352.9439, 139.2617
353.4261, 143.3184
353.9082, 131.8647
354.3903, 123.3418
354.8724, 128.1270
355.3545, 139.6909
355.8366, 145.1465
356.3188, 143.1260
356.8009, 140.1050
357.2830, 137.6992
357.7651, 136.1626
358.2472, 136.4336
358.7293, 139.2939
359.2115, 144.4521
359.6936, 152.9365
360.1757, 167.1670
360.6578, 173.7476
361.1399, 161.3081
361.6220, 149.3965
362.1041, 154.2720
362.5862, 173.0996
363.0684, 190.4458
363.5505, 195.0518
364.0326, 188.6865
364.5147, 186.3457
364.9968, 190.2642
365.4789, 196.3672
365.9611, 208.8252
366.4432, 221.1519
366.9253, 223.4756
367.4074, 213.2495
367.8895, 200.2495
368.3716, 200.9258
368.8538, 219.8008
369.3359, 240.4819
369.8180, 265.8623
370.3001, 289.6064
370.7822, 307.4126
371.2643, 320.3462
371.7465, 332.6562
372.2286, 346.7402
372.7107, 363.1538
373.1928, 386.4111
373.6749, 424.6777
374.1570, 448.3540
374.6392, 424.0161
375.1213, 384.8687
375.6034, 372.6499
376.0855, 404.6108
376.5676, 443.3042
377.0497, 454.1182
377.5319, 441.2236
378.0140, 428.6914
378.4961, 424.0146
378.9782, 422.3540
379.4603, 418.5303
379.9424, 413.8379
380.4246, 408.0000
380.9067, 391.1514
381.3888, 377.4321
381.8709, 385.6050
382.3530, 414.3491
382.8351, 443.6978
383.3173, 461.0986
383.7994, 466.9531
384.2815, 460.8589
384.7636, 428.4302
385.2457, 403.8906
385.7278, 398.9683
386.2100, 404.3237
386.6921, 409.8179
387.1742, 411.7007
387.6563, 409.8955
388.1384, 399.9336
388.6205, 371.1040
389.1027, 363.5195
389.5848, 403.7183
390.0669, 440.6875
390.5490, 443.4023
391.0311, 419.8164
391.5132, 399.1841
391.9954, 401.8413
392.4775, 422.2290
392.9596, 443.9609
393.4417, 474.1890
393.9238, 490.0547
394.4059, 470.6326
394.8881, 439.4211
395.3702, 418.4709
395.8523, 412.3691
396.3344, 412.1987
396.8165, 415.0015
397.2986, 419.1880
397.7808, 416.0098
398.2629, 402.0591
398.7450, 384.9023
399.2271, 373.8760
399.7092, 368.0166
400.1913, 358.6562
400.6735, 343.9578
401.1556, 326.0740
401.6377, 306.8726
402.1198, 287.3484
402.6019, 266.2336
403.0840, 241.0959
403.5662, 214.2847
404.0483, 193.5491
404.5304, 180.5312
405.0125, 171.3484
405.4946, 170.6970
405.9767, 169.6597
406.4589, 157.8564
406.9410, 134.7786
407.4231, 111.4055
407.9052, 99.39307
408.3873, 98.71924
408.8694, 102.8992
409.3516, 122.9150
409.8336, 134.1204
410.3158, 121.7864
410.7979, 98.01929
411.2800, 81.51489
411.7621, 80.58789
412.2442, 87.84570
412.7263, 96.37158
413.2085, 107.1572
413.6906, 104.0059
414.1727, 69.42822
414.6548, 32.61938
415.1369, 24.84033
415.6190, 45.51147
416.1012, 66.78687
416.5833, 83.16675
417.0654, 90.90967
417.5475, 79.21826
418.0296, 48.37549
418.5117, 21.45630
418.9939, 14.06616
419.4760, 22.66431
419.9581, 27.77612
420.4402, 26.09521
420.9223, 26.18091
421.4044, 33.14111
421.8866, 41.35303
422.3687, 42.78784
422.8508, 35.94604
423.3329, 27.18140
423.8150, 24.59839
424.2971, 29.04028
424.7793, 35.40137
425.2614, 52.62036
425.7435, 62.12451
426.2256, 52.33203
426.7077, 31.63818
427.1898, 14.44702
427.6720, 8.159180
428.1541, 8.778809
428.6362, 10.20020
429.1183, 13.16675
429.6004, 12.48389
430.0826, 3.546631
430.5647, 6.760498
431.0468, 11.75098
431.5289, 11.44165
432.0110, 12.60913
432.4931, 21.67090
432.9753, 32.94165
433.4574, 37.96655
433.9395, 36.19922
434.4216, 29.31250
434.9037, 16.98486
435.3858, 0.6210940
435.8680, 13.37939
436.3501, 32.57324
436.8322, 40.30469
437.3143, 21.94214
437.7964, 5.507324
438.2785, 22.75830
438.7607, 24.83813
439.2428, 16.17432
439.7249, 0.1989750
440.2070, 24.89185
440.6891, 43.49365
441.1712, 56.91553
441.6534, 62.15674
442.1355, 47.80762
442.6176, 27.23193
443.0997, 23.43579
443.5818, 48.33252
444.0639, 81.15576
444.5461, 85.45459
445.0282, 58.10986
445.5103, 42.47681
445.9924, 53.92432
446.4745, 71.52808
446.9566, 75.74023
447.4388, 68.76611
447.9209, 65.55249
448.4030, 72.13867
448.8851, 84.84546
449.3672, 103.7637
449.8493, 127.2327
450.3315, 143.5642
450.8136, 147.6062
451.2957, 139.8496
451.7778, 119.2065
452.2599, 65.68408
452.7420, 35.51685
453.2242, 47.49878
453.7063, 75.95996
454.1884, 104.9587
454.6705, 129.7151
455.1526, 146.1538
455.6347, 148.9133
456.1169, 140.2168
456.5990, 142.9539
457.0811, 168.2454
457.5632, 187.8530
458.0453, 189.7354
458.5274, 186.2869
459.0095, 192.2537
459.4916, 211.0088
459.9738, 226.9004
460.4559, 220.2969
460.9380, 196.9131
461.4201, 184.0225
461.9022, 184.8357
462.3843, 195.3174
462.8665, 220.8420
463.3486, 254.5625
463.8307, 272.0422
464.3128, 253.1311
464.7949, 236.4258
465.2770, 246.2678
465.7592, 271.8616
466.2413, 294.1770
466.7234, 307.3457
467.2055, 313.0415
467.6876, 311.4414
468.1697, 297.9209
468.6519, 294.5205
469.1340, 310.6545
469.6161, 326.1868
470.0982, 335.0947
470.5803, 337.6230
471.0624, 332.7656
471.5446, 318.3682
472.0267, 304.6514
472.5088, 317.2922
472.9909, 363.9229
473.4730, 385.3425
473.9551, 350.4824
474.4373, 309.8743
474.9194, 308.0715
475.4015, 336.7930
475.8836, 353.7488
476.3657, 332.5049
476.8478, 300.4238
477.3300, 284.2026
477.8121, 282.6738
478.2942, 289.6753
478.7763, 304.6636
479.2584, 322.4524
479.7405, 331.8093
480.2227, 325.5681
480.7048, 325.2927
481.1869, 340.2947
481.6690, 354.1123
482.1511, 351.3276
482.6332, 337.0339
483.1154, 329.4062
483.5975, 340.6704
484.0796, 364.5696
484.5617, 383.1248
485.0438, 397.7771
485.5259, 403.6895
486.0081, 391.6475
486.4902, 376.4353
486.9723, 366.9050
487.4544, 363.5898
487.9365, 363.7476
488.4186, 362.4263
488.9008, 365.0728
489.3829, 386.7246
489.8650, 427.1880
490.3471, 456.6125
490.8292, 456.8628
491.3113, 438.8835
491.7935, 431.3691
492.2756, 439.3625
492.7577, 446.7466
493.2398, 443.9651
493.7219, 444.4761
494.2040, 466.8418
494.6862, 506.7634
495.1683, 540.6565
495.6504, 550.8228
496.1325, 540.2266
496.6146, 524.4949
497.0967, 496.2415
497.5789, 479.8157
498.0610, 486.7849
498.5431, 501.4631
499.0252, 509.3140
499.5073, 509.6921
499.9894, 518.0618
500.4716, 551.7363
500.9537, 598.7893
501.4358, 637.4536
501.9179, 666.9570
502.4000, 681.3574
502.8821, 668.6858
503.3643, 643.8423
503.8464, 650.4534
504.3285, 705.5718
504.8106, 752.6060
505.2927, 781.6829
505.7748, 797.3428
506.2570, 795.7908
506.7391, 782.2976
507.2212, 776.1277
507.7033, 793.5823
508.1854, 828.9766
508.6675, 852.8835
509.1496, 858.1287
509.6317, 865.3823
510.1139, 885.4180
510.5960, 903.7766
511.0781, 904.3750
511.5602, 887.9302
512.0424, 879.4666
512.5245, 902.9502
513.0066, 942.0774
513.4887, 966.5999
513.9708, 975.5117
514.4529, 978.1030
514.9351, 976.6721
515.4172, 974.1689
515.8993, 980.1182
516.3814, 1006.593
516.8635, 1014.113
517.3456, 978.0930
517.8278, 935.7856
518.3099, 915.5659
518.7920, 917.6653
519.2741, 930.8645
519.7562, 949.7842
520.2383, 969.2188
520.7205, 969.4744
521.2026, 941.7432
521.6847, 918.4915
522.1668, 906.8677
522.6489, 901.7734
523.1310, 903.6697
523.6132, 910.8699
524.0953, 913.7280
524.5774, 903.5747
525.0595, 888.7305
525.5416, 877.5981
526.0237, 870.8799
526.5059, 874.3472
526.9880, 893.2476
527.4701, 917.2756
527.9522, 927.8306
528.4343, 919.8413
528.9164, 909.2009
529.3986, 886.9758
529.8807, 870.4836
530.3628, 875.7231
530.8449, 894.2249
531.3270, 906.3770
531.8091, 901.8264
532.2913, 887.7781
532.7734, 877.0613
533.2554, 870.1155
533.7375, 862.2351
534.2197, 846.2959
534.7018, 839.3896
535.1839, 856.7661
535.6660, 892.5232
536.1481, 927.9917
536.6302, 963.5396
537.1124, 991.8606
537.5945, 1000.984
538.0766, 999.5947
538.5587, 1009.211
539.0408, 1036.427
539.5229, 1065.136
540.0051, 1074.171
540.4872, 1060.207
540.9693, 1050.299
541.4514, 1044.398
541.9335, 1043.094
542.4156, 1048.197
542.8978, 1057.666
543.3799, 1071.377
543.8620, 1089.029
544.3441, 1102.142
544.8262, 1101.410
545.3083, 1088.537
545.7905, 1068.832
546.2726, 1040.543
546.7547, 1015.292
547.2368, 1000.569
547.7189, 994.5986
548.2010, 990.4243
548.6832, 992.3738
549.1653, 988.5808
549.6474, 970.9243
550.1295, 949.3027
550.6116, 934.1904
551.0938, 926.0229
551.5759, 919.0967
552.0580, 910.6436
552.5401, 898.6990
553.0222, 873.6047
553.5043, 824.9553
553.9865, 789.8420
554.4686, 794.6892
554.9507, 803.3130
555.4328, 785.4133
555.9149, 743.8965
556.3970, 711.5024
556.8792, 713.9458
557.3613, 726.2012
557.8434, 720.8196
558.3255, 699.3149
558.8076, 668.2131
559.2897, 628.1462
559.7719, 588.8215
560.2540, 566.6353
560.7361, 569.4333
561.2182, 563.5847
561.7003, 545.4385
562.1824, 523.7144
562.6646, 499.5669
563.1467, 474.9243
563.6288, 452.5225
564.1109, 434.2642
564.5930, 416.1494
565.0751, 393.7922
565.5573, 367.2522
566.0394, 335.3516
566.5215, 294.4890
567.0036, 260.2864
567.4857, 247.3804
567.9678, 249.7166
568.4500, 242.2271
568.9321, 211.3389
569.4142, 191.7354
569.8963, 204.4216
570.3784, 226.3933
570.8605, 233.5669
571.3427, 224.1006
571.8248, 209.9680
572.3069, 200.3188
572.7890, 193.8689
573.2711, 184.6858
573.7532, 171.7222
574.2354, 159.1028
574.7175, 142.1033
575.1996, 131.4138
575.6817, 141.1816
576.1638, 167.8096
576.6459, 184.9065
577.1281, 176.8611
577.6102, 158.3044
578.0923, 139.9688
578.5744, 123.6526
579.0565, 114.8523
579.5386, 115.6787
580.0208, 118.7136
580.5029, 113.2068
580.9850, 96.77686
581.4671, 87.23340
581.9492, 94.35059
582.4313, 97.56152
582.9135, 86.97705
583.3956, 71.90698
583.8777, 64.99219
584.3598, 69.30835
584.8419, 74.71289
585.3240, 74.87671
585.8062, 69.60913
586.2883, 55.72925
586.7704, 32.91968
587.2525, 13.05469
587.7346, 2.596191
588.2167, 0.5090330
588.6989, 0.9943850
589.1810, 2.672852
589.6631, 6.254395
590.1452, 17.55298
590.6273, 21.65479
591.1094, 0.5930180
591.5916, 34.63232
592.0737, 57.40698
592.5558, 53.33301
593.0379, 36.87305
593.5200, 32.39209
594.0021, 38.99194
594.4843, 30.69702
594.9664, 3.303223
595.4485, 34.74512
595.9306, 39.84570
596.4127, 22.80957
596.8948, 8.966064
597.3770, 4.772949
597.8591, 10.82080
598.3412, 1.944580
598.8233, 18.14014
599.3054, 20.14478
599.7875, 7.354492
600.2697, 9.018066
600.7518, 21.52441
601.2339, 29.41479
601.7160, 28.05981
602.1981, 14.39209
602.6802, 4.497070
603.1624, 3.858887
603.6445, 6.401855
604.1266, 6.497314
604.6087, 4.564453
605.0908, 3.524902
605.5729, 7.179443
606.0551, 8.827393
606.5372, 1.332031
607.0193, 10.30469
607.5014, 17.80835
607.9835, 18.75049
608.4656, 13.55200
608.9478, 5.2733999E-02
609.4299, 20.80664
609.9120, 23.26050
610.3941, 8.137695
610.8762, 28.11011
611.3583, 7.177490
611.8405, 20.97485
612.3226, 25.02783
612.8047, 2.932129
613.2868, 20.58618
613.7689, 37.60742
614.2510, 48.92212
614.7332, 55.11035
615.2153, 56.28857
615.6974, 50.80078
616.1795, 37.67847
616.6616, 24.00610
617.1437, 20.62744
617.6259, 29.67773
618.1080, 34.89014
618.5901, 37.79980
619.0722, 34.44409
619.5543, 13.95898
620.0364, 8.147949
620.5186, 10.14258
621.0007, 12.84741
621.4828, 33.06836
621.9649, 28.60474
622.4470, 14.09839
622.9291, 10.36035
623.4113, 16.92407
623.8934, 24.01807
624.3755, 27.41089
624.8576, 26.63379
625.3397, 19.91187
625.8218, 3.549561
626.3040, 6.824219
626.7861, 6.566895
627.2682, 4.917236
627.7503, 5.368408
628.2324, 6.065186
628.7145, 3.773438
629.1967, 2.730713
629.6788, 9.423340
630.1609, 14.87012
630.6430, 17.91821
631.1251, 15.83911
631.6072, 8.738525
632.0893, 0.8500980
632.5714, 12.23633
633.0535, 23.27075
633.5356, 29.39771
634.0178, 32.95483
634.4999, 25.96362
634.9820, 4.309570
635.4641, 31.28223
635.9462, 44.56958
636.4283, 47.20605
636.9105, 42.79321
637.3926, 30.65869
637.8747, 20.14160
638.3568, 18.02881
638.8389, 23.45264
639.3210, 37.06934
639.8032, 58.15186
640.2853, 76.49316
640.7674, 85.94482
641.2495, 88.69263
641.7316, 90.10962
642.2137, 87.43726
642.6959, 89.22241
643.1780, 102.0647
643.6601, 112.5649
644.1422, 110.0198
644.6243, 101.8120
645.1064, 102.6707
645.5886, 119.5127
646.0707, 137.2529
646.5528, 140.3943
647.0349, 137.0212
647.5170, 143.8503
647.9991, 161.5996
648.4813, 177.9556
648.9634, 185.8362
649.4455, 186.0244
649.9276, 181.4194
650.4097, 165.5044
650.8918, 161.8167
651.3740, 177.3279
651.8561, 196.9524
652.3382, 220.9734
652.8203, 243.5205
653.3024, 252.4321
653.7845, 242.9736
654.2667, 228.2014
654.7488, 211.4575
655.2309, 198.8295
655.7130, 205.4396
656.1951, 230.3066
656.6772, 253.1658
657.1594, 262.1946
657.6415, 262.1262
658.1236, 264.5010
658.6057, 273.5798
659.0878, 274.0673
659.5699, 257.8987
660.0521, 242.8030
660.5342, 237.9163
661.0163, 237.6099
661.4984, 229.2958
661.9805, 206.0645
662.4626, 194.9821
662.9448, 228.7473
663.4269, 275.3961
663.9090, 290.3557
664.3911, 274.5341
664.8732, 251.2889
665.3553, 232.3181
665.8375, 218.2596
666.3196, 210.8911
666.8017, 211.3379
667.2838, 213.6188
667.7659, 219.4014
668.2480, 225.6309
668.7302, 231.1676
669.2123, 235.4873
669.6944, 236.8203
670.1765, 235.3438
670.6586, 233.5760
671.1407, 233.3425
671.6229, 230.8899
672.1050, 219.5496
672.5871, 202.8669
673.0692, 192.4990
673.5513, 193.4690
674.0334, 198.8907
674.5156, 198.0514
674.9977, 190.4426
675.4798, 184.0967
675.9619, 177.9219
676.4440, 175.8914
676.9261, 185.2948
677.4083, 197.1484
677.8904, 197.4895
678.3725, 184.4935
678.8546, 170.6105
679.3367, 150.6375
679.8188, 137.6996
680.3010, 150.5480
680.7831, 174.7699
681.2652, 180.8008
681.7473, 159.7664
682.2294, 133.6591
682.7115, 127.4318
683.1937, 138.3419
683.6758, 150.3915
684.1579, 164.1050
684.6400, 173.9226
685.1221, 177.8286
685.6042, 177.0503
686.0864, 172.5060
686.5685, 163.2056
687.0506, 152.3549
687.5327, 137.4188
688.0148, 124.6100
688.4969, 118.2307
688.9791, 114.2552
689.4612, 108.1840
689.9433, 98.76343
690.4254, 87.42053
690.9075, 73.32556
691.3896, 60.18115
691.8718, 58.18030
692.3539, 65.66296
692.8360, 63.28931
693.3181, 42.42725
693.8002, 21.88721
694.2823, 22.64832
694.7645, 43.79626
695.2466, 54.06995
695.7287, 40.93201
696.2108, 34.33020
696.6929, 43.35156
697.1750, 55.32690
697.6572, 61.85938
698.1393, 62.57434
698.6214, 59.66248
699.1035, 52.65027
699.5856, 44.54639
700.0677, 38.53406
700.5499, 33.18884
701.0320, 23.07117
701.5141, 8.562866
701.9962, 1.944702
702.4783, 14.15088
702.9604, 35.98340
703.4426, 35.41040
703.9247, 1.947144
704.4068, 16.65637
704.8889, 9.873901
705.3710, 4.651489
705.8531, 20.19397
706.3353, 34.93140
706.8174, 45.21399
707.2995, 51.19360
707.7816, 51.17542
708.2637, 41.92188
708.7458, 28.53003
709.2280, 10.69385
709.7101, 6.837891
710.1922, 11.14026
710.6743, 3.825806
711.1564, 22.27417
711.6385, 18.95398
712.1207, 2.576904
712.6028, 11.83411
713.0849, 6.701660
713.5670, 5.414185
714.0491, 24.09998
714.5313, 44.07336
715.0134, 56.31067
715.4955, 59.21216
715.9776, 60.01685
716.4597, 62.62268
716.9418, 59.01050
717.4240, 37.79480
717.9061, 13.48132
718.3882, 5.452148
718.8703, 15.57068
719.3524, 25.99939
719.8345, 19.11121
720.3167, 10.01355
720.7988, 23.23462
721.2809, 51.64319
721.7630, 71.38550
722.2451, 75.83032
722.7272, 71.81531
723.2094, 64.95764
723.6915, 56.03455
724.1736, 49.57458
724.6557, 42.66711
725.1378, 46.21545
725.6199, 71.63000
726.1021, 98.03162
726.5842, 112.1494
727.0663, 115.3821
727.5484, 112.2560
728.0305, 97.04626
728.5126, 86.30450
728.9948, 91.77783
729.4769, 100.6498
729.9590, 97.42371
730.4411, 85.27795
730.9232, 78.46960
731.4053, 84.58972
731.8874, 97.21130
732.3695, 108.2821
732.8516, 117.7194
733.3337, 126.9360
733.8159, 136.9662
734.2980, 136.3795
734.7801, 115.0710
735.2622, 86.14746
735.7443, 74.94385
736.2264, 87.02545
736.7086, 98.40552
737.1907, 114.3479
737.6728, 123.2003
738.1549, 113.3036
738.6370, 99.21344
739.1191, 99.42358
739.6013, 116.0710
740.0834, 131.6781
740.5655, 135.7936
741.0476, 135.8368
741.5297, 142.7106
742.0118, 150.3677
742.4940, 139.3588
742.9761, 108.0518
743.4582, 84.81195
743.9403, 97.24139
744.4224, 134.1908
744.9045, 156.0550
745.3867, 162.4980
745.8688, 156.6989
746.3509, 131.9789
746.8330, 109.8016
747.3151, 108.3161
747.7972, 123.2255
748.2794, 134.5366
748.7615, 139.6754
749.2436, 145.3061
749.7257, 155.9198
750.2078, 163.8785
750.6899, 158.4941
751.1721, 148.0309
751.6542, 149.2530
752.1363, 168.6818
752.6184, 195.0779
753.1005, 224.4810
753.5826, 251.3516
754.0648, 265.6155
754.5469, 268.6520
755.0290, 264.8652
755.5111, 255.5593
755.9932, 250.8090
756.4753, 266.0239
756.9575, 299.8077
757.4396, 317.7877
757.9217, 313.6998
758.4038, 313.5460
758.8859, 326.7473
759.3680, 343.6845
759.8502, 355.0507
760.3323, 362.0308
760.8144, 370.2981
761.2965, 386.5773
761.7786, 393.9755
762.2607, 386.7433
762.7429, 371.5809
763.2250, 349.1810
763.7071, 322.9998
764.1892, 302.4283
764.6713, 293.6241
765.1534, 283.3898
765.6356, 253.6226
766.1177, 212.8639
766.5998, 179.8564
767.0819, 155.6837
767.5640, 135.1738
768.0461, 116.6757
768.5283, 104.0803
769.0104, 103.1736
769.4925, 114.6716
769.9746, 118.2628
770.4567, 111.2201
770.9388, 104.6932
771.4210, 99.12775
771.9031, 98.52814
772.3852, 112.9318
772.8673, 141.0183
773.3494, 152.0303
773.8315, 128.0554
774.3137, 104.8284
774.7958, 93.50110
775.2779, 88.41827
775.7600, 85.69104
776.2421, 84.30096
776.7242, 83.19159
777.2064, 81.39008
777.6885, 79.00134
778.1706, 75.66974
778.6527, 73.58386
779.1348, 76.66687
779.6169, 83.17468
780.0991, 87.30579
780.5812, 86.60339
781.0633, 82.67316
781.5454, 76.66797
782.0275, 67.25671
782.5096, 67.22339
782.9918, 81.17609
783.4739, 95.74683
783.9560, 107.6398
784.4381, 113.9483
784.9202, 108.3201
785.4023, 90.29596
785.8845, 82.55444
786.3666, 94.85864
786.8487, 106.7131
787.3308, 113.3781
787.8129, 117.0077
788.2950, 116.8955
788.7772, 114.3918
789.2593, 115.6238
789.7414, 126.3043
790.2235, 134.1518
790.7056, 124.2787
791.1877, 106.3207
791.6699, 96.39636
792.1520, 94.27356
792.6341, 90.48572
793.1162, 80.15570
793.5983, 69.97913
794.0804, 71.64819
794.5626, 84.47913
795.0447, 94.93988
795.5268, 104.2950
796.0089, 103.0905
796.4910, 84.10620
796.9731, 61.33649
797.4553, 51.93140
797.9374, 55.90399
798.4195, 53.00854
798.9016, 35.68939
799.3837, 22.29767
799.8658, 11.73962
800.3480, 7.418213
800.8301, 13.40271
801.3122, 27.79913
801.7943, 46.22485
802.2764, 70.88458
802.7585, 89.42383
803.2407, 92.78894
803.7228, 89.77856
804.2049, 84.84821
804.6870, 77.95386
805.1691, 71.05469
805.6512, 65.72772
806.1334, 64.71112
806.6155, 74.48071
807.0976, 89.66064
807.5797, 95.40161
808.0618, 92.99377
808.5439, 84.32697
809.0261, 68.25549
809.5082, 58.51697
809.9903, 70.23175
810.4724, 98.16626
810.9545, 111.7203
811.4366, 105.9448
811.9188, 101.3982
812.4009, 102.4264
812.8830, 101.2638
813.3651, 86.02856
813.8472, 67.70642
814.3293, 72.46191
814.8115, 112.5122
815.2936, 135.4624
815.7757, 120.6770
816.2578, 99.94751
816.7399, 82.19873
817.2220, 73.30627
817.7042, 82.68469
818.1863, 108.6760
818.6684, 131.1248
819.1505, 140.1743
819.6326, 139.7404
820.1147, 125.5282
820.5969, 105.8314
821.0790, 99.19397
821.5611, 106.0027
822.0432, 110.9224
822.5253, 104.1979
823.0074, 91.56177
823.4896, 81.35254
823.9717, 74.14856
824.4538, 75.79041
824.9359, 87.87878
825.4180, 99.59460
825.9001, 106.6616
826.3823, 108.9136
826.8644, 105.9697
827.3465, 97.98926
827.8286, 87.97571
828.3107, 70.68372
828.7928, 59.91528
829.2749, 58.63501
829.7570, 64.32617
830.2391, 81.08057
830.7213, 103.8562
831.2034, 113.9825
831.6855, 101.1705
832.1676, 90.60107
832.6497, 90.32996
833.1318, 92.76978
833.6140, 94.48035
834.0961, 94.43066
834.5782, 91.65747
835.0603, 85.80640
835.5424, 76.25195
836.0245, 53.24231
836.5067, 33.92896
836.9888, 47.22583
837.4709, 77.19702
837.9530, 84.88550
838.4351, 65.26660
838.9172, 45.64966
839.3994, 46.75269
839.8815, 57.20728
840.3636, 50.84143
840.8457, 30.74402
841.3278, 25.73950
841.8099, 39.47058
842.2921, 54.11804
842.7742, 61.32434
843.2563, 62.63086
843.7384, 60.88037
844.2205, 56.49683
844.7026, 46.32703
845.1848, 23.12329
845.6669, 9.227051
846.1490, 12.67029
846.6311, 24.88208
847.1132, 44.64563
847.5953, 68.29785
848.0775, 76.64136
848.5596, 54.41138
849.0417, 38.92151
849.5238, 36.54675
850.0059, 41.16138
850.4880, 56.24585
850.9702, 72.82019
851.4523, 75.58936
851.9344, 60.98267
852.4165, 44.12195
852.8986, 31.74121
853.3807, 21.49146
853.8629, 10.44214
854.3450, 0.4735110
854.8271, 4.096680
855.3092, 3.529541
855.7913, 3.646362
856.2734, 9.067017
856.7556, 15.18591
857.2377, 13.59814
857.7198, 7.246948
858.2019, 6.768066
858.6840, 11.03149
859.1661, 2.739380
859.6483, 26.83130
860.1304, 53.45947
860.6125, 38.03979
861.0946, 13.17285
861.5767, 29.75024
862.0588, 5.494507
862.5410, 13.31689
863.0231, 15.49536
863.5052, 12.08337
863.9873, 12.47705
864.4694, 14.49646
864.9515, 8.377563
865.4337, 14.89929
865.9158, 28.28052
866.3979, 26.14233
866.8800, 20.96997
867.3621, 14.18396
867.8442, 8.787109
868.3264, 10.00354
868.8085, 18.54578
869.2906, 25.55444
869.7727, 26.64294
870.2548, 29.74524
870.7369, 39.44604
871.2191, 50.78711
871.7012, 63.54883
872.1833, 73.49805
872.6654, 69.21826
873.1475, 43.13904
873.6296, 21.85718
874.1118, 32.71338
874.5939, 48.60486
875.0760, 33.83533
875.5581, 3.995728
876.0402, 3.185425
876.5223, 19.55164
877.0045, 43.04346
877.4866, 42.92078
877.9687, 32.73938
878.4508, 35.26221
878.9329, 45.51611
879.4150, 49.01147
879.8972, 43.98755
880.3793, 32.63428
880.8614, 15.61963
881.3435, 0.9173580
881.8256, 5.000366
882.3077, 25.36023
882.7899, 28.92358
883.2720, 13.63708
883.7541, 6.804443
884.2362, 17.56738
884.7183, 34.01733
885.2004, 47.24841
885.6826, 55.76257
886.1647, 50.01074
886.6468, 20.40747
887.1289, 5.289551
887.6110, 15.78369
888.0931, 24.68408
888.5753, 15.45508
889.0574, 0.1699220
889.5395, 0.9316410
890.0216, 22.58789
890.5037, 23.26709
890.9858, 23.91821
891.4680, 55.63599
891.9501, 49.83423
892.4322, 32.74561
892.9143, 20.48608
893.3964, 13.25830
893.8785, 7.561523
894.3607, 1.874023
894.8428, 1.126465
895.3249, 12.84570
895.8070, 23.39307
896.2891, 21.20630
896.7712, 13.63550
897.2534, 11.98608
897.7355, 17.76978
898.2176, 24.74390
898.6997, 30.14819
899.1818, 34.50513
899.6639, 38.52588
900.1461, 41.89355
900.6282, 43.53442
901.1103, 44.13867
901.5924, 46.77124
902.0745, 52.32104
902.5566, 54.15820
903.0388, 39.21973
903.5209, 19.00513
904.0030, 13.86279
904.4851, 22.56592
904.9672, 47.51587
905.4493, 85.44067
905.9315, 108.1147
906.4136, 95.24316
906.8957, 64.04810
907.3778, 44.30273
907.8599, 35.33838
908.3420, 27.57007
908.8242, 20.58569
909.3063, 39.98511
909.7884, 98.35547
910.2705, 156.5469
910.7526, 170.9456
911.2347, 149.8130
911.7169, 136.8232
912.1990, 133.1780
912.6811, 132.3562
913.1632, 138.0205
913.6453, 131.6619
914.1274, 94.52759
914.6096, 51.87915
915.0917, 51.74170
915.5738, 101.4763
916.0559, 126.7571
916.5380, 110.0547
917.0201, 103.0110
917.5023, 126.8394
917.9844, 150.8984
918.4665, 146.5498
918.9486, 123.8628
919.4307, 122.0173
919.9128, 160.3982
920.3950, 178.3367
920.8771, 150.4285
921.3592, 128.0981
921.8413, 129.9978
922.3234, 146.0518
922.8055, 171.9438
923.2877, 203.1116
923.7698, 219.4028
924.2519, 205.5330
924.7340, 195.8723
925.2161, 202.9421
925.6982, 214.6887
926.1804, 222.6511
926.6625, 229.3694
927.1446, 242.8198
927.6267, 264.0801
928.1088, 278.0999
928.5909, 271.7483
929.0730, 262.3335
929.5551, 257.6877
930.0372, 257.5891
930.5193, 266.4595
931.0015, 280.3108
931.4836, 284.1978
931.9657, 270.3499
932.4478, 261.0896
932.9299, 283.7446
933.4120, 313.2671
933.8942, 316.5762
934.3763, 306.7109
934.8584, 312.7737
935.3405, 337.0833
935.8226, 359.3127
936.3047, 368.0137
936.7869, 365.8994
937.2690, 350.2114
937.7511, 330.1182
938.2332, 323.5779
938.7153, 328.7437
939.1974, 336.9382
939.6796, 344.6489
940.1617, 348.8447
940.6438, 346.4287
941.1259, 342.3606
941.6080, 345.7209
942.0901, 354.7578
942.5723, 365.5615
943.0544, 376.7949
943.5365, 379.1272
944.0186, 368.8933
944.5007, 361.5281
944.9828, 375.1458
945.4650, 404.1357
945.9471, 431.5056
946.4292, 457.1494
946.9113, 469.4807
947.3934, 466.0310
947.8755, 461.4482
948.3577, 464.8259
948.8398, 471.5430
949.3219, 471.7991
949.8040, 465.7837
950.2861, 465.8491
950.7682, 472.6184
951.2504, 483.4155
951.7325, 499.3579
952.2146, 511.0518
952.6967, 510.0439
953.1788, 502.2275
953.6609, 502.9351
954.1431, 513.3848
954.6252, 525.1323
955.1073, 538.5537
955.5894, 550.1177
956.0715, 555.4053
956.5536, 566.4233
957.0358, 598.6802
957.5179, 644.0249
958.0000, 663.7778
958.4821, 646.8301
958.9642, 636.2612
959.4464, 634.8877
959.9285, 635.7949
960.4106, 634.4526
960.8927, 636.9141
961.3748, 653.2842
961.8569, 681.6211
962.3391, 695.8965
962.8212, 680.0591
963.3033, 681.8926
963.7854, 719.4219
964.2675, 754.0586
964.7496, 768.1890
965.2318, 769.8623
965.7139, 768.0771
966.1960, 761.9531
966.6781, 759.0161
967.1602, 757.3633
967.6423, 762.3242
968.1245, 780.4600
968.6066, 798.3672
969.0887, 809.3105
969.5708, 814.9697
970.0529, 816.6074
970.5350, 812.3188
971.0172, 815.9292
971.4993, 839.7949
971.9814, 856.4678
972.4635, 851.1929
972.9456, 844.7700
973.4277, 851.4727
973.9099, 868.3418
974.3920, 889.9800
974.8741, 919.8164
975.3562, 937.4185
975.8383, 929.1660
976.3204, 920.6597
976.8026, 917.8843
977.2847, 921.2915
977.7668, 933.1821
978.2489, 951.6406
978.7310, 971.8599
979.2131, 995.5801
979.6953, 1012.764
980.1774, 1017.465
980.6595, 1019.569
981.1416, 1013.831
981.6237, 1014.831
982.1058, 1050.411
982.5880, 1107.446
983.0701, 1129.287
983.5522, 1084.047
984.0343, 1053.470
984.5164, 1084.847
984.9985, 1115.212
985.4807, 1095.003
985.9628, 1061.582
986.4449, 1064.095
986.9270, 1100.717
987.4091, 1133.913
987.8912, 1160.115
988.3734, 1165.218
988.8555, 1124.837
989.3376, 1080.988
989.8197, 1054.451
990.3018, 1047.139
990.7839, 1063.546
991.2661, 1099.141
991.7482, 1133.967
992.2303, 1171.128
992.7124, 1192.141
993.1945, 1168.129
993.6766, 1142.054
994.1588, 1142.750
994.6409, 1164.722
995.1230, 1203.477
995.6051, 1254.458
996.0872, 1294.658
996.5693, 1310.343
997.0515, 1322.544
997.5336, 1329.931
998.0157, 1347.692
998.4978, 1402.157
998.9799, 1468.350
999.4620, 1501.476
999.9442, 1498.919
1000.426, 1510.288
1000.908, 1575.772
1001.391, 1629.338
1001.873, 1631.230
1002.355, 1619.949
1002.837, 1618.153
1003.319, 1627.282
1003.801, 1651.669
1004.283, 1690.932
1004.765, 1722.377
1005.247, 1727.729
1005.730, 1736.266
1006.212, 1760.791
1006.694, 1796.801
1007.176, 1849.285
1007.658, 1901.431
1008.140, 1926.843
1008.622, 1923.035
1009.104, 1917.515
1009.586, 1915.883
1010.069, 1920.447
1010.551, 1939.660
1011.033, 1958.273
1011.515, 1957.403
1011.997, 1950.563
1012.479, 1967.587
1012.961, 2011.392
1013.443, 2032.820
1013.926, 1994.701
1014.408, 1966.267
1014.890, 1996.551
1015.372, 2033.860
1015.854, 2030.031
1016.336, 2001.693
1016.818, 1988.395
1017.300, 1997.333
1017.782, 1989.182
1018.265, 1925.770
1018.747, 1874.674
1019.229, 1877.538
1019.711, 1890.477
1020.193, 1871.357
1020.675, 1838.860
1021.157, 1841.765
1021.639, 1887.472
1022.122, 1895.721
1022.604, 1800.201
1023.086, 1718.301
1023.568, 1708.378
1024.050, 1711.007
1024.532, 1677.898
1025.014, 1628.320
1025.496, 1605.835
1025.978, 1616.475
1026.461, 1613.018
1026.943, 1563.797
1027.425, 1526.507
1027.907, 1533.663
1028.389, 1541.421
1028.871, 1522.475
1029.353, 1485.414
1029.835, 1440.531
1030.318, 1389.119
1030.800, 1348.463
1031.282, 1340.471
1031.764, 1316.856
1032.246, 1243.757
1032.728, 1178.022
1033.210, 1158.931
1033.692, 1165.250
1034.174, 1169.538
1034.656, 1170.447
1035.139, 1145.479
1035.621, 1069.071
1036.103, 1001.586
1036.585, 956.5850
1037.067, 915.0947
1037.549, 861.5400
1038.031, 809.6055
1038.513, 782.3477
1038.996, 779.6787
1039.478, 770.7256
1039.960, 755.2373
1040.442, 733.4629
1040.924, 710.8496
1041.406, 673.7793
1041.888, 600.6885
1042.370, 523.9941
1042.853, 485.6504
1043.335, 482.9434
1043.817, 476.0928
1044.299, 470.5107
1044.781, 446.4316
1045.263, 390.1699
1045.745, 340.6895
1046.227, 321.9512
1046.709, 304.4082
1047.192, 249.0898
1047.674, 166.4766
1048.156, 125.0801
1048.638, 145.1289
1049.120, 132.5566
1049.602, 69.74609
1050.084, 17.23438
1050.566, 2.279297
1051.048, 5.480469
1051.531, 6.167969
1052.013, 5.623047
1052.495, 8.212891
1052.977, 12.70898
1053.459, 27.18164
1053.941, 54.53906
1054.423, 80.72266
1054.905, 103.1133
1055.388, 118.9609
1055.870, 125.6426
1056.352, 129.7754
1056.834, 157.6953
1057.316, 207.6836
1057.798, 210.2500
1058.280, 164.5996
1058.762, 149.8613
1059.245, 185.8750
1059.727, 225.6797
1060.209, 234.5371
1060.691, 229.0879
1061.173, 238.8164
1061.655, 260.5195
1062.137, 270.5234
1062.619, 273.0605
1063.101, 305.7539
1063.583, 369.3008
1064.066, 398.2891
1064.548, 351.7910
1065.030, 283.3164
1065.512, 259.9648
1065.994, 265.6191
1066.476, 272.3926
1066.958, 273.6484
1067.440, 242.8672
1067.923, 186.3379
1068.405, 156.2480
1068.887, 173.8047
1069.369, 187.9844
1069.851, 153.7910
1070.333, 84.90234
1070.815, 21.58984
1071.297, 139.1953
1071.780, 219.5605
1072.262, 269.3965
1072.744, 323.8652
1073.226, 391.4570
1073.708, 450.5527
1074.190, 465.8320
1074.672, 493.6699
1075.154, 580.8594
1075.636, 701.2598
1076.119, 838.4238
1076.601, 987.1895
1077.083, 1149.326
1077.565, 1323.646
1078.047, 1489.068
1078.529, 1632.645
1079.011, 1777.486
1079.493, 1945.371
1079.975, 2105.184
1080.458, 2224.695
1080.940, 2331.246
1081.422, 2454.900
1081.904, 2598.291
1082.386, 2756.875
1082.868, 2944.281
1083.350, 3110.123
1083.832, 3219.756
1084.314, 3339.326
1084.797, 3470.246
1085.279, 3643.121
1085.761, 3908.699
1086.243, 4240.055
1086.725, 4556.238
1087.207, 4845.438
1087.689, 5158.836
1088.171, 5530.453
1088.654, 5861.512
1089.136, 6114.027
1089.618, 6355.723
1090.100, 6639.551
1090.582, 6935.363
1091.064, 7180.387
1091.546, 7374.070
1092.028, 7585.125
1092.510, 7811.520
1092.993, 8084.465
1093.475, 8419.129
1093.957, 8727.508
1094.439, 8960.938
1094.921, 9154.922
1095.403, 9336.672
1095.885, 9524.129
1096.367, 9796.777
1096.849, 10142.84
1097.332, 10457.63
1097.814, 10733.91
1098.296, 11034.13
1098.778, 11379.23
1099.260, 11735.23
1099.742, 12076.45
1100.224, 12411.25
1100.706, 12752.54
1101.189, 13101.37
1101.671, 13484.62
1102.153, 13876.14
1102.635, 14190.16
1103.117, 14430.16
1103.599, 14700.54
1104.081, 15060.65
1104.563, 15484.58
1105.046, 16014.48
1105.528, 16528.05
1106.010, 16856.52
1106.492, 17117.97
1106.974, 17475.77
1107.456, 17923.32
1107.938, 18376.21
1108.420, 18810.41
1108.902, 19232.11
1109.385, 19661.33
1109.867, 20049.39
1110.349, 20314.25
1110.831, 20582.77
1111.313, 20983.03
1111.795, 21442.16
1112.277, 21833.98
1112.759, 22148.67
1113.241, 22475.46
1113.724, 22869.66
1114.206, 23216.74
1114.688, 23461.91
1115.170, 23715.97
1115.652, 24060.03
1116.134, 24402.27
1116.616, 24641.31
1117.098, 24795.77
1117.581, 24934.11
1118.063, 25032.95
1118.545, 25250.99
1119.027, 25647.84
1119.509, 25913.02
1119.991, 25952.34
1120.473, 25929.33
1120.955, 25942.05
1121.438, 25983.54
1121.920, 26054.27
1122.402, 26154.24
1122.884, 26272.15
1123.366, 26397.28
1123.848, 26439.77
1124.330, 26397.21
1124.812, 26356.89
1125.294, 26359.56
1125.776, 26366.22
1126.259, 26342.81
1126.741, 26281.72
1127.223, 26164.29
1127.705, 26014.84
1128.187, 25875.63
1128.669, 25756.05
1129.151, 25677.69
1129.633, 25625.20
1130.116, 25497.68
1130.598, 25228.81
1131.080, 24934.03
1131.562, 24649.64
1132.044, 24405.73
1132.526, 24276.36
1133.008, 24180.33
1133.490, 24037.74
1133.973, 23824.27
1134.455, 23499.23
1134.937, 23028.81
1135.419, 22643.81
1135.901, 22535.59
1136.383, 22339.60
1136.865, 21871.37
1137.347, 21411.08
1137.829, 21147.70
1138.312, 20942.38
1138.794, 20617.27
1139.276, 20184.03
1139.758, 19756.92
1140.240, 19328.60
1140.722, 18944.37
1141.204, 18630.53
1141.686, 18237.52
1142.168, 17694.74
1142.651, 17193.72
1143.133, 16900.43
1143.615, 16695.94
1144.097, 16319.87
1144.579, 15811.24
1145.061, 15392.56
1145.543, 15060.08
1146.025, 14831.69
1146.508, 14683.15
1146.990, 14453.51
1147.472, 14075.23
1147.954, 13673.71
1148.436, 13360.70
1148.918, 13090.96
1149.400, 12797.04
1149.882, 12522.04
1150.365, 12370.62
1150.847, 12265.51
1151.329, 12043.77
1151.811, 11694.32
1152.293, 11334.43
1152.775, 10986.33
1153.257, 10699.11
1153.739, 10532.47
1154.221, 10381.70
1154.703, 10184.80
1155.186, 9990.984
1155.668, 9834.664
1156.150, 9718.930
1156.632, 9659.570
1157.114, 9665.164
1157.596, 9617.875
1158.078, 9480.500
1158.560, 9378.242
1159.043, 9348.727
1159.525, 9278.164
1160.007, 9098.312
1160.489, 8913.609
1160.971, 8833.391
1161.453, 8838.844
1161.935, 8913.164
1162.417, 9037.680
1162.900, 8930.516
1163.382, 8617.445
1163.864, 8364.141
1164.346, 8227.008
1164.828, 8147.492
1165.310, 8095.102
1165.792, 8040.422
1166.274, 7945.555
1166.756, 7835.305
1167.239, 7738.203
1167.721, 7646.367
1168.203, 7535.102
1168.685, 7422.023
1169.167, 7363.297
1169.649, 7357.688
1170.131, 7310.648
1170.613, 7181.133
1171.095, 7010.945
1171.578, 6760.484
1172.060, 6541.078
1172.542, 6483.188
1173.024, 6416.438
1173.506, 6136.164
1173.988, 5734.367
1174.470, 5444.805
1174.952, 5282.312
1175.434, 5099.578
1175.917, 4891.789
1176.399, 4682.734
1176.881, 4479.008
1177.363, 4256.812
1177.845, 4006.586
1178.327, 3723.805
1178.809, 3397.273
1179.291, 3050.508
1179.774, 2741.664
1180.256, 2462.938
1180.738, 2178.430
1181.220, 1896.594
1181.702, 1672.375
1182.184, 1496.633
1182.666, 1266.812
1183.148, 933.6406
1183.630, 620.3672
1184.113, 462.1406
1184.595, 322.8516
1185.077, 69.28125
1185.559, 196.2266
1186.041, 379.8203
1186.523, 500.2578
1187.005, 595.8047
1187.487, 672.3203
1187.969, 731.6562
1188.452, 784.6250
1188.934, 798.0547
1189.416, 726.7344
1189.898, 695.0469
1190.380, 784.4688
1190.862, 834.5156
1191.344, 740.0938
1191.826, 544.4609
1192.309, 304.4766
1192.791, 26.51562
1193.273, 219.7578
1193.755, 439.9141
1194.237, 715.8750
1194.719, 1060.930
1195.201, 1480.859
1195.683, 1974.797
1196.166, 2546.469
1196.648, 3204.219
1197.130, 3905.430
1197.612, 4592.242
1198.094, 5305.141
1198.576, 6099.570
1199.058, 6940.188
1199.540, 7780.266
1200.022, 8623.773
1200.505, 9480.703
1200.987, 10354.53
1201.469, 11235.70
1201.951, 12062.48
1202.433, 12990.93
1202.915, 14087.53
1203.397, 15243.08
1203.879, 16428.22
1204.361, 17645.48
1204.844, 18926.24
1205.326, 20212.29
1205.808, 21354.36
1206.290, 22356.01
1206.772, 23608.35
1207.254, 25122.28
1207.736, 26613.56
1208.218, 28058.89
1208.701, 29506.71
1209.183, 30966.52
1209.665, 32366.06
1210.147, 33628.25
1210.629, 34866.84
1211.111, 36233.44
1211.593, 37652.02
1212.075, 38984.75
1212.557, 40302.60
1213.040, 41752.95
1213.522, 43282.91
1214.004, 44729.50
1214.486, 46051.68
1214.968, 47335.18
1215.450, 48529.15
1215.932, 49739.07
1216.414, 51103.76
1216.896, 52325.39
1217.379, 53224.70
1217.861, 54059.08
1218.343, 55074.81
1218.825, 56162.91
1219.307, 57079.88
1219.789, 57828.02
1220.271, 58466.31
1220.753, 58995.09
1221.236, 59463.52
1221.718, 59879.80
1222.200, 60256.26
1222.682, 60591.98
1223.164, 60851.02
1223.646, 61018.11
1224.128, 61048.20
1224.610, 60798.36
1225.093, 60471.66
1225.575, 60369.62
1226.057, 60268.62
1226.539, 59848.66
1227.021, 59175.77
1227.503, 58504.69
1227.985, 57879.00
1228.467, 57124.09
1228.949, 56154.29
1229.432, 55070.03
1229.914, 53912.59
1230.396, 52670.45
1230.878, 51368.75
1231.360, 49956.86
1231.842, 48342.84
1232.324, 46760.70
1232.806, 45569.34
1233.288, 44599.02
1233.771, 43268.02
1234.253, 41648.95
1234.735, 40033.48
1235.217, 38452.97
1235.699, 36886.05
1236.181, 35321.31
1236.663, 33735.28
1237.145, 32117.95
1237.628, 30489.41
1238.110, 28854.64
1238.592, 27242.84
1239.074, 25677.73
1239.556, 24149.78
1240.038, 22657.41
1240.520, 21192.43
1241.002, 19749.12
1241.484, 18327.45
1241.967, 16922.68
1242.449, 15528.23
1242.931, 14144.10
1243.413, 12741.88
1243.895, 11545.92
1244.377, 10622.46
1244.859, 9716.453
1245.341, 8683.656
1245.823, 7633.328
1246.306, 6684.602
1246.788, 5801.836
1247.270, 4922.375
1247.752, 4078.367
1248.234, 3304.023
1248.716, 2619.469
1249.198, 2072.422
1249.680, 1644.609
1250.163, 1255.375
1250.645, 881.8281
1251.127, 558.0312
1251.609, 317.3125
1252.091, 96.40625
1252.573, 150.2031
1253.055, 338.2656
1253.537, 440.5156
1254.020, 451.0938
1254.502, 348.4844
1254.984, 180.7188
1255.466, 83.03125
1255.948, 33.37500
1256.430, 145.4844
1256.912, 425.2969
1257.394, 681.5469
1257.876, 911.3750
1258.359, 1201.438
1258.841, 1566.734
1259.323, 1920.359
1259.805, 2199.281
1260.287, 2503.641
1260.769, 2917.625
1261.251, 3351.516
1261.733, 3796.672
1262.215, 4146.766
1262.698, 4061.984
1263.180, 3690.516
1263.662, 3520.000
1264.144, 3560.875
1264.626, 3609.094
1265.108, 3564.141
1265.590, 3512.422
1266.072, 3435.750
1266.555, 3311.391
1267.037, 3121.281
1267.519, 2869.594
1268.001, 2634.672
1268.483, 2399.625
1268.965, 2141.016
1269.447, 1824.297
1269.929, 1411.328
1270.411, 977.2812
1270.894, 638.1250
1271.376, 314.9844
1271.858, 0.0000000E+00
##END=



