##NAMES=Lavinskyite
##RRUFFID=R141115
##IDEAL CHEMISTRY=K(LiCu^2+^)Cu^2+^_6_(Si_4_O_11_)_2_(OH)_4_
##LOCALITY=Wessels mine, South Africa
##OWNER=RRUFF
##SOURCE=Jaco and Tania Janse van Nieuwenhuizen
##DESCRIPTION=Greenish blue or light blue platy crystals, associated with dark blue scottyite (R141116) and blue wesselsite (with cleavage)
##STATUS=The identification of this mineral is confirmed by single-crystal X-ray diffraction and chemical analysis.
##URL=rruff.info/R141115
##MEASURED CHEMISTRY=(K_0.98_Sr_0.01_)_Σ=0.99_(Li_1.25_Cu_0.71_Na_0.08_)_Σ=2.04_Cu_6_(Si_4.03_O_11_)_2_(OH)_4_; (Lavinskyite is the dark grey material in the image, associated with light grey R141116 scottyite)
117.1121, 0.0000000E+00
117.5942, 1.359772
118.0763, 3.089508
118.5584, 5.138275
119.0406, 7.731262
119.5227, 6.178711
120.0048, 2.784668
120.4869, 0.1005250
120.9690, 0.4061890
121.4511, 0.7742310
121.9333, 2.118591
122.4154, 3.951477
122.8975, 5.928223
123.3796, 7.571625
123.8617, 8.912537
124.3438, 10.58224
124.8260, 14.49811
125.3081, 18.27048
125.7902, 19.52896
126.2723, 17.02637
126.7544, 12.67471
127.2365, 9.680298
127.7187, 7.912140
128.2008, 7.328186
128.6829, 8.248413
129.1650, 10.11230
129.6471, 12.54230
130.1292, 15.57478
130.6114, 18.99159
131.0935, 20.54269
131.5756, 17.76086
132.0577, 15.43095
132.5398, 15.06071
133.0219, 15.99231
133.5041, 16.85349
133.9862, 16.50397
134.4683, 14.70901
134.9504, 12.42465
135.4325, 8.546463
135.9146, 5.338226
136.3968, 3.896729
136.8789, 4.398209
137.3610, 6.149948
137.8431, 8.585037
138.3252, 12.06485
138.8073, 14.57027
139.2895, 15.37276
139.7716, 15.50433
140.2537, 15.88290
140.7358, 16.97411
141.2179, 18.28104
141.7000, 18.73590
142.1821, 18.18831
142.6643, 18.37459
143.1464, 21.28220
143.6285, 23.99190
144.1106, 25.14987
144.5927, 24.35619
145.0748, 22.83955
145.5570, 22.21129
146.0391, 21.98035
146.5212, 21.67519
147.0033, 21.61494
147.4854, 21.90517
147.9675, 22.54871
148.4497, 24.92175
148.9318, 27.12212
149.4139, 27.97273
149.8960, 27.11621
150.3781, 25.41714
150.8602, 24.22569
151.3424, 23.45312
151.8245, 23.28752
152.3066, 24.74187
152.7887, 26.32156
153.2708, 26.24046
153.7529, 24.04152
154.2351, 20.87622
154.7172, 19.47089
155.1993, 22.35736
155.6814, 24.13449
156.1635, 23.82251
156.6456, 22.45143
157.1278, 21.36633
157.6099, 21.29123
158.0920, 21.90324
158.5741, 21.72841
159.0562, 20.25175
159.5383, 18.71120
160.0205, 17.46629
160.5026, 16.43587
160.9847, 15.08249
161.4668, 12.99014
161.9489, 10.59573
162.4310, 9.673599
162.9131, 11.74533
163.3953, 13.72435
163.8774, 13.69519
164.3595, 11.81229
164.8416, 9.541672
165.3237, 7.427162
165.8058, 5.659401
166.2880, 4.650459
166.7701, 5.413254
167.2522, 6.177406
167.7343, 4.302048
168.2164, 0.9477690
168.6985, 5.304573
169.1807, 5.443771
169.6628, 3.403549
170.1449, 1.444115
170.6270, 0.4004060
171.1091, 3.3606999E-02
171.5912, 0.6745220
172.0734, 2.023163
172.5555, 2.591118
173.0376, 1.328743
173.5197, 0.8579330
174.0018, 2.674309
174.4839, 3.303955
174.9661, 2.222534
175.4482, 1.372192
175.9303, 0.8587340
176.4124, 0.4889220
176.8945, 0.4160230
177.3766, 0.4314040
177.8588, 0.1814580
178.3409, 0.6285250
178.8230, 2.000694
179.3051, 3.116982
179.7872, 4.092331
180.2693, 4.657097
180.7515, 4.326675
181.2336, 3.442322
181.7157, 2.835953
182.1978, 3.262482
182.6799, 4.866035
183.1620, 6.116600
183.6441, 6.487450
184.1263, 7.040222
184.6084, 8.593407
185.0905, 10.97267
185.5726, 13.23698
186.0547, 14.59949
186.5368, 14.95039
187.0190, 14.41034
187.5011, 11.51322
187.9832, 8.798027
188.4653, 8.603569
188.9474, 11.09140
189.4296, 13.89002
189.9117, 14.50251
190.3938, 12.99449
190.8759, 12.23299
191.3580, 12.83276
191.8401, 14.18098
192.3223, 15.96852
192.8044, 18.36870
193.2865, 20.09491
193.7686, 18.98621
194.2507, 15.94075
194.7328, 13.70943
195.2150, 13.30936
195.6971, 14.27331
196.1792, 15.82426
196.6613, 18.19453
197.1434, 20.47983
197.6255, 22.03239
198.1077, 23.00734
198.5898, 23.71336
199.0719, 24.38477
199.5540, 24.94049
200.0361, 24.85175
200.5182, 23.17153
201.0004, 22.19077
201.4825, 23.62025
201.9646, 26.68624
202.4467, 29.43673
202.9288, 30.04123
203.4109, 28.70599
203.8930, 29.09898
204.3752, 33.43473
204.8573, 37.28585
205.3394, 38.75848
205.8215, 38.35158
206.3036, 37.47366
206.7857, 37.20830
207.2679, 37.58248
207.7500, 38.07585
208.2321, 39.31918
208.7142, 40.09690
209.1963, 39.67393
209.6784, 38.37960
210.1606, 37.11303
210.6427, 36.68009
211.1248, 37.17797
211.6069, 37.56808
212.0890, 38.08260
212.5711, 38.30165
213.0533, 37.83973
213.5354, 36.87118
214.0175, 35.96901
214.4996, 35.72833
214.9817, 36.34226
215.4638, 36.31126
215.9460, 34.90970
216.4281, 33.63181
216.9102, 33.48164
217.3923, 34.28529
217.8744, 34.97219
218.3565, 34.50608
218.8387, 32.69391
219.3208, 31.34727
219.8029, 30.41730
220.2850, 29.91375
220.7671, 30.15824
221.2492, 31.02973
221.7314, 31.73887
222.2135, 31.53584
222.6956, 30.33007
223.1777, 29.39709
223.6598, 28.77865
224.1419, 28.41700
224.6240, 28.26049
225.1062, 28.29997
225.5883, 28.67425
226.0704, 29.74343
226.5525, 31.16455
227.0346, 31.34842
227.5167, 28.91686
227.9989, 26.20499
228.4810, 25.52400
228.9631, 26.99483
229.4452, 28.80536
229.9273, 29.71706
230.4094, 29.91914
230.8916, 30.00113
231.3737, 30.17403
231.8558, 30.08394
232.3379, 29.09649
232.8200, 27.11852
233.3021, 25.69991
233.7843, 26.83151
234.2664, 28.96321
234.7485, 29.55213
235.2306, 26.84575
235.7127, 23.28376
236.1948, 22.53620
236.6770, 25.30004
237.1591, 27.95920
237.6412, 28.65451
238.1233, 28.19103
238.6054, 27.18635
239.0875, 25.52346
239.5697, 23.83230
240.0518, 23.32406
240.5339, 24.45809
241.0160, 25.39069
241.4981, 25.04736
241.9802, 24.25063
242.4624, 23.78572
242.9445, 23.94356
243.4266, 24.48477
243.9087, 25.10565
244.3908, 26.00981
244.8729, 26.38352
245.3550, 25.73350
245.8372, 24.61417
246.3193, 23.42426
246.8014, 22.29786
247.2835, 21.32508
247.7656, 20.61506
248.2477, 20.15487
248.7299, 20.00647
249.2120, 21.00187
249.6941, 21.81307
250.1762, 21.03259
250.6583, 18.30128
251.1404, 15.03657
251.6226, 13.74700
252.1047, 15.62096
252.5868, 16.76161
253.0689, 16.32666
253.5510, 15.49613
254.0331, 15.08662
254.5153, 15.31261
254.9974, 15.84513
255.4795, 16.30449
255.9616, 17.11323
256.4437, 16.75289
256.9258, 13.95230
257.4080, 11.11697
257.8901, 9.960258
258.3722, 10.71159
258.8543, 12.26761
259.3364, 13.19005
259.8185, 13.32371
260.3007, 13.17348
260.7828, 12.75673
261.2649, 12.09222
261.7470, 10.80389
262.2291, 9.088585
262.7112, 7.873617
263.1934, 8.388813
263.6755, 11.47506
264.1576, 13.22759
264.6397, 13.10406
265.1218, 12.38898
265.6039, 11.68334
266.0861, 11.06533
266.5682, 10.31887
267.0503, 9.154876
267.5324, 7.387701
268.0145, 6.483478
268.4966, 7.116619
268.9788, 7.813358
269.4609, 7.742286
269.9430, 7.031136
270.4251, 6.422478
270.9072, 6.617928
271.3893, 7.682728
271.8715, 7.584451
272.3536, 4.964337
272.8357, 2.769265
273.3178, 2.577749
273.7999, 3.909463
274.2820, 5.303099
274.7642, 5.803144
275.2463, 5.475384
275.7284, 5.161088
276.2105, 4.742458
276.6926, 4.456949
277.1747, 4.584842
277.6568, 4.903898
278.1389, 4.828533
278.6211, 3.936389
279.1032, 2.566284
279.5853, 2.222676
280.0674, 4.144964
280.5495, 5.438931
281.0316, 4.691154
281.5138, 2.899678
281.9959, 1.928089
282.4780, 2.657260
282.9601, 4.401350
283.4422, 5.380578
283.9243, 5.388867
284.4065, 5.203702
284.8886, 4.946232
285.3707, 4.592678
285.8528, 4.049736
286.3349, 3.264847
286.8170, 2.439984
287.2992, 1.908087
287.7813, 1.733788
288.2634, 1.603080
288.7455, 1.333793
289.2276, 1.141505
289.7097, 1.343944
290.1919, 2.027137
290.6740, 2.917785
291.1561, 3.754230
291.6382, 4.550076
292.1203, 5.077888
292.6024, 5.362958
293.0846, 5.346292
293.5667, 4.800619
294.0488, 3.709271
294.5309, 2.653947
295.0130, 2.229465
295.4951, 2.452545
295.9773, 2.468800
296.4594, 2.255379
296.9415, 1.814900
297.4236, 0.8795340
297.9057, 0.4610320
298.3878, 1.335978
298.8700, 0.9536300
299.3521, 0.4744040
299.8342, 1.331794
300.3163, 1.297820
300.7984, 0.9993910
301.2805, 0.5883850
301.7627, 0.1567200
302.2448, 0.1122900
302.7269, 0.7750440
303.2090, 1.904253
303.6911, 2.800074
304.1732, 3.619074
304.6554, 3.955810
305.1375, 3.270691
305.6196, 1.994580
306.1017, 1.379094
306.5838, 2.109600
307.0659, 3.315785
307.5481, 3.133183
308.0302, 1.203283
308.5123, 0.3551180
308.9944, 0.5842460
309.4765, 6.0144000E-02
309.9586, 0.2817400
310.4408, 0.2427180
310.9229, 1.9585000E-02
311.4050, 0.2253110
311.8871, 0.5825770
312.3692, 0.9244750
312.8513, 1.387115
313.3335, 1.538048
313.8156, 0.5605530
314.2977, 1.713408
314.7798, 3.919864
315.2619, 4.692594
315.7440, 4.109647
316.2262, 3.739178
316.7083, 4.067459
317.1904, 4.399878
317.6725, 3.922756
318.1546, 2.696241
318.6367, 1.801825
319.1188, 2.070408
319.6010, 3.290762
320.0831, 4.521173
320.5652, 6.377311
321.0473, 7.761304
321.5294, 7.902179
322.0115, 7.022624
322.4937, 5.859564
322.9758, 4.663794
323.4579, 3.510715
323.9400, 2.522560
324.4221, 1.317003
324.9042, 1.134594
325.3864, 3.165236
325.8685, 5.998096
326.3506, 7.493919
326.8327, 6.802637
327.3148, 5.189257
327.7969, 4.667330
328.2791, 5.427197
328.7612, 5.888281
329.2433, 5.307493
329.7254, 4.508432
330.2075, 4.828688
330.6896, 6.464890
331.1718, 7.699833
331.6539, 6.321890
332.1360, 2.069054
332.6181, 6.7408003E-02
333.1002, 2.321501
333.5823, 5.499481
334.0645, 7.232668
334.5466, 7.518684
335.0287, 7.649689
335.5108, 8.663181
335.9929, 10.25373
336.4750, 10.35814
336.9572, 7.832930
337.4393, 5.211096
337.9214, 3.177694
338.4035, 1.845249
338.8856, 1.690718
339.3677, 3.143595
339.8499, 5.416710
340.3320, 6.286884
340.8141, 5.047581
341.2962, 3.940594
341.7783, 3.258280
342.2604, 2.978394
342.7426, 3.146671
343.2247, 3.771208
343.7068, 4.680462
344.1889, 5.719236
344.6710, 7.111406
345.1531, 7.868641
345.6353, 7.740452
346.1174, 7.136019
346.5995, 6.216997
347.0816, 5.076099
347.5637, 3.885555
348.0458, 2.725647
348.5280, 1.573362
349.0101, 1.311680
349.4922, 2.714016
349.9743, 4.067041
350.4564, 4.525158
350.9385, 4.347807
351.4207, 4.266678
351.9028, 4.739622
352.3849, 5.559425
352.8670, 5.825964
353.3491, 4.470600
353.8312, 3.892113
354.3134, 5.019217
354.7955, 6.819086
355.2776, 8.252600
355.7597, 8.925875
356.2418, 8.794046
356.7239, 7.712067
357.2061, 4.581238
357.6882, 2.819504
358.1703, 3.504023
358.6524, 4.607237
359.1345, 4.796862
359.6166, 3.953522
360.0987, 2.653675
360.5808, 1.352419
361.0630, 3.7177999E-02
361.5451, 0.5181690
362.0272, 0.6370160
362.5093, 1.877224
362.9914, 2.751575
363.4735, 3.321751
363.9557, 3.839378
364.4378, 4.490158
364.9199, 5.132683
365.4020, 5.134226
365.8841, 4.054239
366.3662, 2.863140
366.8484, 1.524929
367.3305, 0.2377740
367.8126, 1.011593
368.2947, 2.173462
368.7768, 2.848866
369.2589, 2.212498
369.7411, 0.4716000
370.2232, 2.444218
370.7053, 3.526758
371.1874, 4.009098
371.6695, 3.727552
372.1516, 2.896046
372.6338, 2.196026
373.1159, 2.260635
373.5980, 3.061485
374.0801, 3.937429
374.5622, 5.814869
375.0443, 6.525793
375.5265, 4.316244
376.0086, 0.7777710
376.4907, 1.668392
376.9728, 1.829708
377.4549, 0.3016740
377.9370, 1.963005
378.4192, 5.692522
378.9013, 8.052778
379.3834, 7.294569
379.8655, 5.477530
380.3476, 4.152336
380.8297, 3.620110
381.3119, 3.081951
381.7940, 1.111355
382.2761, 2.231327
382.7582, 3.270458
383.2403, 0.3387870
383.7224, 4.188110
384.2046, 5.131477
384.6867, 3.743103
385.1688, 2.211590
385.6509, 1.858650
386.1330, 2.159813
386.6151, 1.793686
387.0973, 0.5347710
387.5794, 0.5867160
388.0615, 1.005135
388.5436, 0.8937910
389.0257, 0.4146350
389.5078, 0.5128480
389.9900, 1.589291
390.4721, 2.822399
390.9542, 4.143574
391.4363, 4.641232
391.9184, 3.365032
392.4005, 1.934357
392.8827, 3.080536
393.3648, 7.071697
393.8469, 9.902571
394.3290, 9.099043
394.8111, 6.454315
395.2932, 4.722870
395.7754, 4.295498
396.2575, 4.535107
396.7396, 5.067230
397.2217, 5.864994
397.7038, 6.506916
398.1859, 7.324394
398.6681, 7.662174
399.1501, 6.650974
399.6323, 4.688271
400.1144, 3.244930
400.5965, 3.143295
401.0786, 3.895775
401.5607, 4.070183
402.0428, 3.212059
402.5250, 2.646137
403.0071, 2.675167
403.4892, 3.089813
403.9713, 3.718239
404.4534, 4.502014
404.9355, 5.379185
405.4177, 6.357399
405.8998, 7.608532
406.3819, 7.935993
406.8640, 6.612930
407.3461, 5.198967
407.8282, 4.329430
408.3104, 4.054718
408.7925, 4.203030
409.2746, 4.737118
409.7567, 5.641579
410.2388, 6.563004
410.7209, 7.958885
411.2031, 8.731525
411.6852, 8.486877
412.1673, 7.768017
412.6494, 6.914909
413.1315, 6.135132
413.6136, 5.563126
414.0958, 5.622715
414.5779, 6.470806
415.0600, 7.361828
415.5421, 8.740631
416.0242, 9.736328
416.5063, 9.870430
416.9885, 9.326996
417.4706, 8.559814
417.9527, 7.792152
418.4348, 7.069893
418.9169, 6.477795
419.3990, 5.898140
419.8812, 5.873116
420.3633, 6.978222
420.8454, 8.247646
421.3275, 8.839596
421.8096, 8.542831
422.2917, 8.008530
422.7739, 7.848816
423.2560, 8.051041
423.7381, 8.388454
424.2202, 8.963219
424.7023, 9.472614
425.1844, 9.718380
425.6666, 9.671394
426.1487, 9.378304
426.6308, 8.798416
427.1129, 8.124168
427.5950, 7.489040
428.0771, 6.737682
428.5593, 6.473698
429.0414, 7.205379
429.5235, 8.564327
430.0056, 9.692265
430.4877, 10.61463
430.9698, 11.25301
431.4520, 11.35801
431.9341, 11.17229
432.4162, 11.36224
432.8983, 12.17485
433.3804, 12.74325
433.8625, 11.66568
434.3447, 8.466530
434.8268, 7.162540
435.3089, 10.12037
435.7910, 13.24156
436.2731, 13.32871
436.7552, 11.05909
437.2374, 9.306465
437.7195, 9.827183
438.2016, 11.90454
438.6837, 12.85563
439.1658, 11.38823
439.6479, 10.43291
440.1301, 10.32315
440.6122, 10.59122
441.0943, 11.03346
441.5764, 11.35676
442.0585, 11.61185
442.5406, 11.86165
443.0227, 12.07690
443.5049, 12.47990
443.9870, 13.55920
444.4691, 14.31892
444.9512, 14.51171
445.4333, 14.10435
445.9154, 12.93245
446.3976, 10.79789
446.8797, 8.570610
447.3618, 8.515011
447.8439, 11.72668
448.3260, 13.71408
448.8081, 12.59900
449.2903, 10.76263
449.7724, 9.419537
450.2545, 8.742504
450.7366, 8.608356
451.2187, 9.385105
451.7008, 10.70914
452.1830, 10.89680
452.6651, 9.542606
453.1472, 7.998737
453.6293, 6.868382
454.1114, 6.079464
454.5935, 5.674034
455.0757, 5.921837
455.5578, 6.048447
456.0399, 5.150906
456.5220, 3.505436
457.0041, 2.341408
457.4862, 2.100433
457.9684, 2.252098
458.4505, 1.910519
458.9326, 1.032520
459.4147, 1.086082
459.8968, 3.536003
460.3789, 6.155109
460.8611, 6.799706
461.3432, 5.645329
461.8253, 4.285271
462.3074, 3.638378
462.7895, 3.577435
463.2716, 3.577816
463.7538, 4.353458
464.2359, 4.261608
464.7180, 2.034462
465.2001, 0.5664290
465.6822, 1.652611
466.1643, 0.9173850
466.6465, 0.6128230
467.1286, 1.866695
467.6107, 2.838089
468.0928, 3.678577
468.5749, 5.142159
469.0570, 5.643608
469.5392, 3.644260
470.0213, 0.7018360
470.5034, 0.7077750
470.9855, 0.5527990
471.4676, 2.972050
471.9497, 3.778442
472.4319, 2.526455
472.9140, 1.624203
473.3961, 1.823689
473.8782, 2.141235
474.3603, 1.928978
474.8424, 1.279263
475.3246, 0.6478230
475.8067, 0.3389930
476.2888, 0.2203220
476.7709, 0.1643710
477.2530, 0.9452360
477.7351, 1.068432
478.2173, 8.1501000E-02
478.6994, 2.066158
479.1815, 4.452480
479.6636, 7.644257
480.1457, 9.771740
480.6278, 8.947575
481.1100, 6.672405
481.5920, 5.677296
482.0742, 6.505482
482.5563, 7.292961
483.0384, 6.044250
483.5205, 2.848522
484.0026, 1.062946
484.4847, 1.283657
484.9669, 2.180222
485.4490, 3.881519
485.9311, 5.741325
486.4132, 6.656837
486.8953, 6.229519
487.3774, 4.960457
487.8596, 3.560555
488.3417, 1.563732
488.8238, 0.7518840
489.3059, 1.825012
489.7880, 3.208981
490.2701, 4.526276
490.7523, 5.529312
491.2344, 5.701767
491.7165, 4.601730
492.1986, 2.903282
492.6807, 2.726974
493.1628, 5.050968
493.6450, 6.187439
494.1271, 3.676758
494.6092, 0.9360660
495.0913, 0.5137480
495.5734, 2.384335
496.0555, 4.363407
496.5377, 4.591064
497.0198, 3.804832
497.5019, 4.191032
497.9840, 6.060818
498.4661, 7.859669
498.9482, 8.937790
499.4304, 9.299751
499.9125, 8.951447
500.3946, 7.605770
500.8767, 6.255356
501.3588, 5.265743
501.8409, 4.629887
502.3231, 4.361366
502.8052, 4.468674
503.2873, 4.807549
503.7694, 5.296650
504.2515, 5.946545
504.7336, 6.361103
505.2158, 6.662468
505.6979, 6.625031
506.1800, 5.881958
506.6621, 4.833851
507.1442, 4.045319
507.6263, 3.724739
508.1085, 3.772831
508.5906, 4.181332
509.0727, 5.341450
509.5548, 5.442593
510.0369, 2.876709
510.5190, 0.8606760
511.0012, 1.138893
511.4833, 2.796494
511.9654, 3.915802
512.4475, 3.434315
512.9296, 2.325554
513.4117, 2.646114
513.8939, 4.721783
514.3760, 5.637737
514.8581, 3.746304
515.3402, 1.509533
515.8223, 1.051052
516.3044, 2.168156
516.7866, 3.375874
517.2687, 4.329994
517.7508, 4.893887
518.2329, 4.626503
518.7150, 3.606014
519.1971, 2.846882
519.6793, 2.811302
520.1614, 3.342300
520.6435, 4.283894
521.1256, 6.109596
521.6077, 6.945518
522.0898, 5.485523
522.5720, 3.606812
523.0541, 3.030609
523.5362, 3.691608
524.0183, 4.484055
524.5004, 4.549976
524.9825, 4.023479
525.4647, 3.931393
525.9468, 4.716320
526.4289, 5.311821
526.9110, 5.642860
527.3931, 5.752525
527.8752, 5.634701
528.3574, 5.249100
528.8395, 4.809589
529.3216, 4.419922
529.8037, 4.018242
530.2858, 3.094872
530.7679, 1.143612
531.2501, 0.1466710
531.7322, 0.6580620
532.2143, 2.162189
532.6964, 3.005196
533.1785, 2.960197
533.6606, 2.451614
534.1428, 1.420288
534.6249, 7.4138999E-02
535.1070, 0.5915340
535.5891, 0.3410220
536.0712, 4.5795001E-02
536.5533, 0.7220120
537.0355, 2.037907
537.5176, 1.933971
537.9997, 1.560329
538.4818, 3.939995
538.9639, 2.832554
539.4460, 0.4222640
539.9282, 0.3858340
540.4103, 0.9056170
540.8924, 2.552380
541.3745, 2.667419
541.8566, 1.199402
542.3387, 0.3514400
542.8209, 0.1793330
543.3029, 0.4091640
543.7850, 1.636852
544.2672, 3.005527
544.7493, 3.250786
545.2314, 2.111813
545.7135, 1.017792
546.1956, 2.116272
546.6777, 5.099831
547.1599, 5.877697
547.6420, 2.952488
548.1241, 0.6927070
548.6062, 2.579605
549.0883, 6.383636
549.5704, 9.002151
550.0526, 9.647522
550.5347, 9.628162
551.0168, 9.689705
551.4989, 9.694790
551.9810, 9.219421
552.4631, 8.154011
552.9453, 7.149113
553.4274, 6.917362
553.9095, 7.463081
554.3916, 7.461712
554.8737, 5.939621
555.3558, 5.114639
555.8380, 6.273518
556.3201, 8.155548
556.8022, 9.339951
557.2843, 9.411026
557.7664, 8.597881
558.2485, 6.891365
558.7307, 4.230095
559.2128, 2.690590
559.6949, 2.962109
560.1770, 3.430351
560.6591, 3.493271
561.1412, 3.446568
561.6234, 3.710854
562.1055, 4.411930
562.5876, 5.094296
563.0697, 5.320744
563.5518, 5.202244
564.0339, 5.020626
564.5161, 4.739613
564.9982, 4.788895
565.4803, 5.648647
565.9624, 7.083549
566.4445, 8.019203
566.9266, 8.457619
567.4088, 8.404877
567.8909, 7.524410
568.3730, 6.306225
568.8551, 5.287003
569.3372, 4.609344
569.8193, 4.256218
570.3015, 4.180050
570.7836, 4.382927
571.2657, 5.209415
571.7478, 7.942154
572.2299, 9.540722
572.7120, 8.929012
573.1942, 7.411831
573.6763, 5.928905
574.1584, 4.761700
574.6405, 4.157135
575.1226, 4.689629
575.6047, 6.007614
576.0869, 6.668484
576.5690, 6.635418
577.0511, 6.054745
577.5332, 4.481525
578.0153, 2.698742
578.4974, 2.100327
578.9796, 3.047531
579.4617, 3.639038
579.9438, 2.476151
580.4259, 0.9880940
580.9080, 1.031033
581.3901, 2.537704
581.8723, 4.079418
582.3544, 4.778461
582.8365, 4.800892
583.3186, 4.725002
583.8007, 4.817253
584.2828, 4.366531
584.7650, 2.276989
585.2471, 0.5797230
585.7292, 1.096149
586.2113, 3.278290
586.6934, 5.110710
587.1755, 5.179020
587.6577, 4.251923
588.1398, 4.351948
588.6219, 5.714687
589.1040, 6.471390
589.5861, 6.220619
590.0682, 5.211025
590.5504, 3.124931
591.0325, 0.2698060
591.5146, 1.232124
591.9967, 6.0470998E-02
592.4788, 2.274887
592.9609, 4.246616
593.4431, 5.881435
593.9252, 6.789516
594.4073, 6.745766
594.8894, 5.991745
595.3715, 4.921143
595.8536, 3.477055
596.3358, 2.567261
596.8179, 2.568016
597.3000, 2.583973
597.7821, 2.420609
598.2642, 2.071350
598.7463, 1.260410
599.2285, 7.1957000E-02
599.7106, 1.248775
600.1927, 1.333668
600.6748, 0.3644450
601.1569, 0.5556490
601.6390, 1.353619
602.1212, 2.167252
602.6033, 3.377087
603.0854, 4.547218
603.5675, 4.978916
604.0496, 4.579861
604.5317, 3.518658
605.0139, 0.7727010
605.4960, 2.103695
605.9781, 2.370193
606.4602, 6.6878997E-02
606.9423, 2.712234
607.4244, 3.843094
607.9066, 3.665394
608.3887, 3.085144
608.8708, 1.376995
609.3529, 0.3220330
609.8350, 2.6737001E-02
610.3171, 0.2816350
610.7993, 1.836117
611.2814, 4.098885
611.7635, 5.432365
612.2456, 4.547657
612.7277, 2.526077
613.2098, 1.643162
613.6920, 1.981205
614.1741, 2.499531
614.6562, 3.154831
615.1383, 3.634762
615.6204, 3.376102
616.1025, 2.549179
616.5847, 2.256065
617.0668, 3.604889
617.5489, 4.679005
618.0310, 3.600300
618.5131, 1.470947
618.9952, 0.7226410
619.4774, 2.041531
619.9595, 3.957207
620.4416, 4.785103
620.9237, 4.483055
621.4058, 3.753937
621.8879, 1.517990
622.3701, 0.2135930
622.8522, 0.9876330
623.3343, 2.555897
623.8164, 3.593281
624.2985, 3.853180
624.7806, 4.021866
625.2628, 5.159664
625.7448, 6.558842
626.2269, 5.803452
626.7090, 2.606876
627.1912, 0.1806370
627.6733, 0.1431880
628.1554, 1.563152
628.6375, 2.907135
629.1196, 4.327927
629.6017, 5.057434
630.0839, 4.548214
630.5660, 3.704750
631.0481, 2.921295
631.5302, 2.336521
632.0123, 2.183796
632.4944, 2.571541
632.9766, 3.193356
633.4587, 3.537308
633.9408, 3.562382
634.4229, 3.523037
634.9050, 3.398190
635.3871, 3.237759
635.8693, 2.897980
636.3514, 2.590916
636.8335, 2.699017
637.3156, 3.380119
637.7977, 4.139885
638.2798, 4.494247
638.7620, 4.722290
639.2441, 5.708191
639.7262, 7.471550
640.2083, 8.257030
640.6904, 6.615891
641.1725, 3.507107
641.6547, 2.155140
642.1368, 4.931103
642.6189, 5.972816
643.1010, 3.713650
643.5831, 1.124542
644.0652, 0.2248340
644.5474, 0.3090320
645.0295, 0.5753590
645.5116, 2.423077
645.9937, 4.441643
646.4758, 5.293255
646.9579, 4.986080
647.4401, 4.407719
647.9222, 3.454529
648.4043, 2.751118
648.8864, 3.026531
649.3685, 3.855125
649.8506, 4.240673
650.3328, 3.444660
650.8149, 3.038696
651.2970, 4.456940
651.7791, 6.155312
652.2612, 5.876835
652.7433, 3.686417
653.2255, 1.654972
653.7076, 1.326839
654.1897, 2.318401
654.6718, 3.253258
655.1539, 4.171124
655.6360, 4.978233
656.1182, 5.629513
656.6003, 6.056274
657.0824, 6.187992
657.5645, 6.024567
658.0466, 5.790501
658.5287, 5.576710
659.0109, 5.407520
659.4930, 5.335388
659.9751, 5.317295
660.4572, 5.099716
660.9393, 4.612740
661.4214, 4.523685
661.9036, 5.610207
662.3857, 7.676399
662.8678, 8.578709
663.3499, 6.977146
663.8320, 5.776424
664.3141, 5.477657
664.7963, 5.618309
665.2784, 6.169243
665.7605, 6.934711
666.2426, 7.381836
666.7247, 6.893188
667.2068, 6.158470
667.6890, 6.719307
668.1711, 8.609272
668.6532, 9.784084
669.1353, 9.472157
669.6174, 9.087212
670.0995, 10.31964
670.5817, 13.03827
671.0638, 14.25940
671.5459, 12.32436
672.0280, 10.66370
672.5101, 10.46541
672.9922, 11.04510
673.4744, 11.68983
673.9565, 12.30048
674.4386, 13.19603
674.9207, 14.73422
675.4028, 16.67721
675.8849, 18.24277
676.3671, 19.35737
676.8492, 20.26340
677.3313, 21.04973
677.8134, 21.56126
678.2955, 21.50494
678.7776, 21.15428
679.2598, 21.17213
679.7419, 22.16055
680.2240, 22.72202
680.7061, 21.28321
681.1882, 19.30434
681.6703, 19.32877
682.1525, 21.60780
682.6346, 24.27954
683.1167, 25.94060
683.5988, 26.58213
684.0809, 25.99510
684.5630, 23.14578
685.0452, 21.36812
685.5273, 22.46247
686.0094, 23.46248
686.4915, 22.29622
686.9736, 19.61005
687.4557, 17.55552
687.9379, 17.26064
688.4200, 17.28209
688.9021, 15.98287
689.3842, 14.08877
689.8663, 13.73732
690.3484, 15.28971
690.8306, 16.40411
691.3127, 15.17468
691.7948, 12.03915
692.2769, 9.112434
692.7590, 5.481739
693.2411, 3.604206
693.7233, 4.476337
694.2054, 6.197968
694.6875, 8.343143
695.1696, 10.34427
695.6517, 10.98297
696.1339, 9.379128
696.6160, 7.344784
697.0981, 7.132927
697.5802, 8.205532
698.0623, 8.512299
698.5444, 7.686646
699.0266, 7.028931
699.5087, 7.574680
699.9908, 8.916542
700.4729, 9.494301
700.9550, 8.928917
701.4371, 8.141212
701.9193, 6.636013
702.4014, 5.350788
702.8835, 5.036381
703.3656, 5.371544
703.8477, 5.664864
704.3298, 5.622440
704.8120, 5.443481
705.2941, 5.485485
705.7762, 5.630630
706.2583, 5.110966
706.7404, 3.712498
707.2225, 2.683224
707.7046, 2.854828
708.1867, 3.800972
708.6688, 4.459927
709.1509, 4.764893
709.6331, 4.973473
710.1152, 5.364780
710.5973, 5.409954
711.0794, 4.610088
711.5615, 3.292000
712.0436, 1.902035
712.5258, 0.6155280
713.0079, 0.2191510
713.4900, 3.1440999E-02
713.9721, 1.001316
714.4542, 2.033115
714.9363, 3.124165
715.4185, 3.581284
715.9006, 2.729279
716.3827, 1.429352
716.8648, 1.323841
717.3469, 2.724102
717.8290, 3.324322
718.3112, 2.096569
718.7933, 0.9193840
719.2754, 0.7756770
719.7575, 1.251564
720.2396, 1.782661
720.7217, 2.178444
721.2039, 2.417030
721.6860, 2.538212
722.1681, 2.469925
722.6502, 1.758717
723.1323, 0.2722700
723.6144, 0.8200870
724.0966, 1.232952
724.5787, 0.9689030
725.0608, 0.3671990
725.5429, 2.745926
726.0250, 4.042377
726.5071, 3.884342
726.9893, 2.946537
727.4714, 0.3104590
727.9535, 2.293816
728.4356, 2.460106
728.9177, 0.3050350
729.3998, 1.814072
729.8820, 2.170502
730.3641, 1.373032
730.8462, 0.7967260
731.3283, 0.4586940
731.8104, 0.3036270
732.2925, 2.063263
732.7747, 3.206020
733.2568, 1.980053
733.7389, 1.080959
734.2210, 3.047253
734.7031, 3.912125
735.1852, 3.697018
735.6674, 1.196159
736.1495, 1.414841
736.6316, 2.359680
737.1137, 1.812973
737.5958, 0.6338620
738.0779, 0.8331640
738.5601, 2.049854
739.0422, 1.830296
739.5243, 0.4101450
740.0064, 0.3836440
740.4885, 2.378902
740.9706, 3.754490
741.4528, 2.688602
741.9349, 0.3173900
742.4170, 0.8801500
742.8991, 0.7645190
743.3812, 0.1234890
743.8633, 2.010757
744.3455, 3.585880
744.8276, 3.102760
745.3097, 1.506813
745.7918, 0.1216430
746.2739, 0.6103440
746.7560, 0.6971210
747.2382, 0.2149770
747.7203, 1.708858
748.2024, 2.468838
748.6845, 2.482426
749.1666, 2.232368
749.6487, 1.761833
750.1309, 1.387669
750.6130, 1.599735
751.0951, 2.456989
751.5772, 2.693981
752.0593, 1.809666
752.5414, 1.010590
753.0236, 0.1228520
753.5057, 0.2524640
753.9878, 1.008488
754.4699, 3.414040
754.9520, 4.910908
755.4341, 4.100060
755.9163, 2.346714
756.3984, 1.375954
756.8805, 1.102913
757.3626, 1.363239
757.8447, 2.182720
758.3268, 2.588387
758.8090, 1.606468
759.2911, 2.8027000E-02
759.7732, 0.2457660
760.2553, 4.730526
760.7374, 6.901876
761.2195, 4.531841
761.7017, 2.358311
762.1838, 3.154209
762.6659, 5.431984
763.1480, 6.592049
763.6301, 5.883732
764.1122, 4.979279
764.5944, 5.130270
765.0765, 5.859125
765.5586, 6.640390
766.0407, 7.351023
766.5228, 7.521025
767.0049, 6.966103
767.4871, 5.805653
767.9692, 3.925625
768.4513, 1.200176
768.9334, 0.9464380
769.4155, 5.761827
769.8976, 8.795828
770.3798, 7.025305
770.8619, 4.160259
771.3440, 3.147610
771.8261, 3.839821
772.3082, 4.403011
772.7903, 4.261478
773.2725, 3.740284
773.7546, 2.607666
774.2367, 1.440182
774.7188, 1.386951
775.2009, 2.395336
775.6830, 3.242828
776.1652, 3.111656
776.6473, 2.375801
777.1294, 1.905907
777.6115, 1.739208
778.0936, 1.470474
778.5757, 0.5192720
779.0579, 0.5242310
779.5400, 3.619511
780.0221, 7.695663
780.5042, 8.970858
780.9863, 6.716526
781.4684, 4.746304
781.9506, 4.243198
782.4327, 4.176664
782.9148, 3.922966
783.3969, 3.608883
783.8790, 3.617025
784.3611, 4.049994
784.8433, 4.822037
785.3254, 6.184614
785.8075, 7.466457
786.2896, 6.792053
786.7717, 4.266270
787.2538, 2.853069
787.7360, 3.541382
788.2181, 4.716251
788.7002, 4.927137
789.1823, 4.293312
789.6644, 3.790823
790.1465, 2.861790
790.6286, 2.700270
791.1107, 4.697271
791.5928, 6.617172
792.0750, 6.658197
792.5571, 5.372034
793.0392, 3.952074
793.5213, 2.737459
794.0034, 2.168882
794.4855, 3.288280
794.9677, 5.267817
795.4498, 6.622721
795.9319, 7.200342
796.4140, 6.632986
796.8961, 4.683823
797.3782, 2.609825
797.8604, 2.198715
798.3425, 3.524204
798.8246, 4.767767
799.3067, 5.957010
799.7888, 7.022680
800.2709, 8.415768
800.7531, 9.266020
801.2352, 8.414579
801.7173, 6.241079
802.1994, 4.762728
802.6815, 4.905077
803.1636, 5.265888
803.6458, 4.966150
804.1279, 4.563885
804.6100, 5.060482
805.0921, 6.225349
805.5742, 6.663021
806.0563, 5.572710
806.5385, 4.216204
807.0206, 4.956163
807.5027, 7.578831
807.9848, 9.006496
808.4669, 8.940371
808.9490, 8.568413
809.4312, 8.291655
809.9133, 8.143936
810.3954, 8.193937
810.8775, 8.470741
811.3596, 8.767214
811.8417, 9.448080
812.3239, 9.703899
812.8060, 9.082911
813.2881, 8.105961
813.7702, 6.887861
814.2523, 5.736259
814.7344, 5.626760
815.2166, 7.549074
815.6987, 9.619291
816.1808, 9.723732
816.6629, 8.517946
817.1450, 7.139629
817.6271, 5.853964
818.1093, 5.257542
818.5914, 5.689196
819.0735, 7.033072
819.5556, 9.386209
820.0377, 13.19922
820.5198, 15.12924
821.0020, 14.64645
821.4841, 13.28104
821.9662, 10.89465
822.4483, 8.394375
822.9304, 6.678852
823.4125, 5.755968
823.8947, 5.549849
824.3768, 6.704107
824.8589, 7.786720
825.3410, 7.948608
825.8231, 7.861856
826.3052, 8.344336
826.7874, 9.353479
827.2695, 10.41693
827.7516, 11.38356
828.2337, 11.76703
828.7158, 10.13873
829.1979, 7.258690
829.6801, 6.674288
830.1622, 8.707655
830.6443, 10.65380
831.1264, 11.17404
831.6085, 10.89888
832.0906, 10.88639
832.5728, 11.24526
833.0549, 11.07179
833.5370, 9.993565
834.0191, 8.913408
834.5012, 7.604864
834.9833, 6.716240
835.4655, 7.061945
835.9476, 8.392670
836.4297, 9.421255
836.9118, 9.910442
837.3939, 9.785341
837.8760, 8.219725
838.3582, 6.538696
838.8403, 6.564623
839.3224, 7.964312
839.8045, 9.259333
840.2866, 9.756207
840.7687, 9.514984
841.2509, 7.930342
841.7330, 5.508766
842.2151, 5.776730
842.6972, 9.008362
843.1793, 11.15851
843.6614, 10.55949
844.1436, 8.901636
844.6257, 7.987020
845.1078, 7.808613
845.5899, 8.185835
846.0720, 10.01583
846.5541, 11.07333
847.0363, 10.38605
847.5184, 9.632504
848.0005, 10.03905
848.4826, 11.16306
848.9647, 11.91270
849.4468, 11.99454
849.9290, 11.76431
850.4111, 11.11899
850.8932, 10.49082
851.3753, 10.66857
851.8574, 11.16253
852.3395, 10.59473
852.8217, 8.664249
853.3038, 6.665596
853.7859, 5.858875
854.2680, 5.991791
854.7501, 6.242624
855.2322, 6.600832
855.7144, 7.881735
856.1965, 10.67290
856.6786, 12.34740
857.1607, 10.29095
857.6428, 6.105988
858.1249, 5.131334
858.6071, 9.961004
859.0892, 12.41661
859.5713, 9.853207
860.0534, 8.024912
860.5355, 10.00484
861.0176, 13.20021
861.4998, 14.24905
861.9819, 12.82907
862.4640, 11.64541
862.9461, 12.65075
863.4282, 13.30997
863.9103, 11.02518
864.3925, 7.769388
864.8746, 6.364483
865.3567, 6.968872
865.8388, 8.307745
866.3209, 9.606167
866.8030, 10.67159
867.2852, 11.37238
867.7673, 11.60284
868.2494, 10.32602
868.7315, 7.403931
869.2136, 6.032623
869.6957, 7.845232
870.1779, 10.74295
870.6600, 12.06104
871.1421, 11.80017
871.6242, 10.26335
872.1063, 5.614403
872.5884, 3.236069
873.0705, 5.892368
873.5526, 9.058352
874.0347, 10.20007
874.5168, 9.878262
874.9990, 9.569283
875.4811, 9.610279
875.9632, 9.355602
876.4453, 8.083954
876.9274, 7.001509
877.4095, 7.452757
877.8917, 8.443903
878.3738, 7.736765
878.8559, 5.160492
879.3380, 3.568556
879.8201, 5.757357
880.3022, 9.481508
880.7844, 11.04830
881.2665, 11.08807
881.7486, 11.49237
882.2307, 12.42640
882.7128, 12.69267
883.1949, 11.46948
883.6771, 9.582796
884.1592, 8.505526
884.6413, 8.342451
885.1234, 8.178703
885.6055, 7.964869
886.0876, 7.878174
886.5698, 8.032455
887.0519, 8.286098
887.5340, 8.484816
888.0161, 8.633957
888.4982, 8.819744
888.9803, 9.888819
889.4625, 9.804142
889.9446, 6.759163
890.4267, 3.826752
890.9088, 3.488594
891.3909, 4.761169
891.8730, 5.442570
892.3552, 4.909605
892.8373, 4.275764
893.3194, 4.573999
893.8015, 4.868608
894.2836, 3.837017
894.7657, 2.112480
895.2479, 1.036240
895.7300, 0.8861690
896.2121, 1.189365
896.6942, 1.610207
897.1763, 2.220310
897.6584, 3.420292
898.1406, 5.077042
898.6227, 5.734945
899.1048, 5.180290
899.5869, 4.711180
900.0690, 5.062424
900.5511, 5.403013
901.0333, 4.223934
901.5154, 1.361767
901.9975, 0.8536190
902.4796, 4.767632
902.9617, 7.179728
903.4438, 5.838224
903.9260, 3.786522
904.4081, 3.029430
904.8902, 3.167313
905.3723, 3.083221
905.8544, 2.319309
906.3365, 2.315720
906.8187, 4.460461
907.3008, 6.363754
907.7829, 6.569139
908.2650, 5.645937
908.7471, 3.912422
909.2292, 1.803242
909.7114, 1.013237
910.1935, 3.615276
910.6756, 6.247862
911.1577, 4.301834
911.6398, 0.4284970
912.1219, 9.3310000E-03
912.6041, 2.860630
913.0862, 5.239319
913.5683, 5.374783
914.0504, 4.220264
914.5325, 2.771149
915.0146, 1.144169
915.4968, 0.2183070
915.9789, 1.347240
916.4610, 0.9869190
916.9431, 1.581562
917.4252, 3.780338
917.9073, 3.248745
918.3895, 0.8745540
918.8716, 2.0756001E-02
919.3537, 1.424408
919.8358, 2.110031
920.3179, 1.382763
920.8000, 0.8245090
921.2822, 1.596840
921.7643, 2.498032
922.2464, 1.980324
922.7285, 0.1047250
923.2106, 1.223263
923.6927, 1.582310
924.1749, 1.581787
924.6570, 1.275894
925.1391, 0.7715910
925.6212, 0.2138560
926.1033, 0.4920230
926.5854, 1.769676
927.0676, 3.774258
927.5497, 5.184902
928.0318, 5.166172
928.5139, 4.101746
928.9960, 1.406410
929.4781, 1.703819
929.9603, 2.787342
930.4424, 1.676933
930.9245, 1.7174000E-02
931.4066, 1.353935
931.8887, 2.258823
932.3708, 2.579060
932.8530, 2.355415
933.3351, 1.562366
933.8172, 0.2541580
934.2993, 0.7820820
934.7814, 1.270306
935.2635, 1.153973
935.7457, 0.3132740
936.2278, 1.155113
936.7099, 2.987896
937.1920, 5.770370
937.6741, 6.085623
938.1563, 2.363232
938.6384, 1.282955
939.1205, 2.921017
939.6026, 2.856499
940.0847, 1.347530
940.5668, 2.018497
941.0490, 4.373962
941.5311, 5.071606
942.0132, 5.694225
942.4953, 7.115995
942.9774, 8.042679
943.4595, 6.964100
943.9417, 4.696259
944.4238, 3.402859
944.9059, 3.646923
945.3880, 4.304874
945.8701, 5.805058
946.3522, 6.717964
946.8344, 5.463169
947.3165, 3.381733
947.7986, 2.314743
948.2807, 2.422718
948.7628, 2.649200
949.2449, 2.306416
949.7271, 2.205620
950.2092, 3.515202
950.6913, 5.340313
951.1734, 6.176353
951.6555, 6.232502
952.1376, 6.691347
952.6198, 7.901770
953.1019, 8.889271
953.5840, 8.441050
954.0661, 7.462393
954.5482, 8.570734
955.0303, 11.34615
955.5124, 13.00776
955.9945, 13.16873
956.4766, 12.52337
956.9587, 11.35285
957.4409, 10.08273
957.9230, 9.373014
958.4051, 9.243185
958.8872, 9.690704
959.3693, 10.90560
959.8514, 11.39403
960.3336, 10.70817
960.8157, 9.507288
961.2978, 7.789526
961.7799, 6.235765
962.2620, 7.018507
962.7441, 11.65144
963.2263, 13.94188
963.7084, 11.57241
964.1905, 9.908220
964.6726, 11.56146
965.1547, 13.50644
965.6368, 12.50425
966.1190, 9.364403
966.6011, 8.079948
967.0832, 10.15122
967.5653, 12.02511
968.0474, 13.00688
968.5295, 13.53236
969.0117, 13.51822
969.4938, 13.37977
969.9759, 13.84756
970.4580, 14.86127
970.9401, 15.30373
971.4222, 14.87733
971.9044, 13.44543
972.3865, 9.606703
972.8686, 5.744793
973.3507, 4.581652
973.8328, 5.455582
974.3149, 6.758833
974.7971, 7.964211
975.2792, 9.029139
975.7613, 10.01817
976.2434, 10.82385
976.7255, 11.30192
977.2076, 11.51546
977.6898, 11.62734
978.1719, 11.53583
978.6540, 10.49284
979.1361, 8.150913
979.6182, 5.834581
980.1003, 5.155268
980.5825, 5.804501
981.0646, 7.239571
981.5467, 9.310072
982.0288, 10.26291
982.5109, 9.763943
982.9930, 8.562565
983.4752, 7.006207
983.9573, 5.681379
984.4394, 5.950399
984.9215, 7.822195
985.4036, 8.319357
985.8857, 7.106972
986.3679, 6.546097
986.8500, 7.364927
987.3321, 8.534893
987.8142, 9.689623
988.2963, 10.59959
988.7784, 9.991510
989.2606, 7.022646
989.7427, 5.091623
990.2248, 4.376003
990.7069, 4.409575
991.1890, 5.476727
991.6711, 6.741262
992.1533, 7.473846
992.6354, 7.737041
993.1175, 7.745087
993.5996, 7.935452
994.0817, 7.255997
994.5638, 3.766382
995.0460, 1.479403
995.5281, 3.074097
996.0102, 5.931833
996.4923, 7.202663
996.9744, 6.920485
997.4565, 6.452732
997.9387, 6.218536
998.4208, 5.788410
998.9029, 4.296186
999.3850, 3.082867
999.8671, 3.135965
1000.349, 3.938444
1000.831, 5.031776
1001.313, 6.182278
1001.796, 6.414495
1002.278, 4.582479
1002.760, 2.870827
1003.242, 2.506588
1003.724, 2.769047
1004.206, 3.454853
1004.688, 4.074837
1005.170, 3.592808
1005.653, 1.909521
1006.135, 0.6298070
1006.617, 0.9704320
1007.099, 1.847359
1007.581, 2.195360
1008.063, 2.478195
1008.545, 3.512615
1009.027, 5.066128
1009.509, 6.449743
1009.992, 7.366915
1010.474, 7.526779
1010.956, 6.378391
1011.438, 4.646208
1011.920, 3.152763
1012.402, 2.011427
1012.884, 1.573622
1013.366, 1.780592
1013.849, 2.403475
1014.331, 3.314213
1014.813, 3.648619
1015.295, 1.969288
1015.777, 0.6330890
1016.259, 1.406099
1016.741, 0.6080720
1017.223, 0.9262350
1017.705, 2.852360
1018.188, 4.410925
1018.670, 5.294113
1019.152, 5.198832
1019.634, 3.192305
1020.116, 4.2229998E-03
1020.598, 0.5831470
1021.080, 1.352978
1021.562, 3.112848
1022.044, 4.248278
1022.527, 4.835861
1023.009, 4.856236
1023.491, 4.684841
1023.973, 5.040176
1024.455, 5.841072
1024.937, 5.564344
1025.419, 4.039053
1025.901, 2.793768
1026.384, 1.988235
1026.866, 2.186321
1027.348, 4.116838
1027.830, 6.431339
1028.312, 6.487808
1028.794, 4.168131
1029.276, 2.479702
1029.758, 1.393972
1030.240, 1.104204
1030.723, 1.952761
1031.205, 2.870386
1031.687, 3.104662
1032.169, 3.030985
1032.651, 3.552761
1033.133, 4.900427
1033.615, 4.719210
1034.097, 1.443678
1034.579, 0.1649360
1035.062, 2.954296
1035.544, 6.273314
1036.026, 7.907564
1036.508, 8.403717
1036.990, 8.861790
1037.472, 9.304443
1037.954, 9.586531
1038.436, 9.869878
1038.919, 9.722192
1039.401, 8.783794
1039.883, 7.707661
1040.365, 6.970385
1040.847, 6.369097
1041.329, 5.333504
1041.811, 3.595375
1042.293, 2.825043
1042.776, 3.528261
1043.258, 4.528269
1043.740, 6.766527
1044.222, 8.085836
1044.704, 6.274557
1045.186, 2.830048
1045.668, 0.5236320
1046.150, 0.4671520
1046.632, 0.2877410
1047.115, 2.170391
1047.597, 4.242634
1048.079, 4.897524
1048.561, 5.422754
1049.043, 7.217552
1049.525, 9.111027
1050.007, 8.327538
1050.489, 4.268862
1050.971, 1.149632
1051.454, 0.8662240
1051.936, 0.9357590
1052.418, 3.332832
1052.900, 7.539162
1053.382, 8.260885
1053.864, 6.736300
1054.346, 5.302034
1054.828, 4.277336
1055.311, 3.779543
1055.793, 4.272020
1056.275, 4.709658
1056.757, 4.734583
1057.239, 4.595867
1057.721, 4.625807
1058.203, 4.646652
1058.685, 3.803535
1059.167, 2.101219
1059.650, 1.001720
1060.132, 0.9518660
1060.614, 1.620686
1061.096, 3.802938
1061.578, 5.758631
1062.060, 5.877123
1062.542, 4.988714
1063.024, 4.415689
1063.506, 4.416496
1063.989, 4.909569
1064.471, 6.469322
1064.953, 7.713324
1065.435, 7.964642
1065.917, 7.799438
1066.399, 7.821762
1066.881, 7.658303
1067.363, 6.144373
1067.846, 3.425268
1068.328, 2.099575
1068.810, 3.931255
1069.292, 6.006073
1069.774, 7.076244
1070.256, 7.845822
1070.738, 9.506488
1071.220, 10.84745
1071.703, 9.322066
1072.185, 5.349918
1072.667, 3.303509
1073.149, 6.361140
1073.631, 8.093078
1074.113, 3.387962
1074.595, 1.318180
1075.077, 0.9090370
1075.559, 1.901461
1076.042, 3.338461
1076.524, 3.218006
1077.006, 3.589937
1077.488, 5.551470
1077.970, 6.889442
1078.452, 5.784777
1078.934, 4.691206
1079.416, 5.447063
1079.898, 6.946793
1080.380, 8.312539
1080.863, 9.076235
1081.345, 7.998849
1081.827, 4.037205
1082.309, 1.611961
1082.791, 4.381907
1083.273, 7.341169
1083.755, 7.425280
1084.237, 6.107166
1084.720, 4.618227
1085.202, 3.320677
1085.684, 2.450897
1086.166, 2.030397
1086.648, 2.498066
1087.130, 5.107651
1087.612, 7.323079
1088.094, 7.730832
1088.577, 7.241868
1089.059, 6.383366
1089.541, 5.445998
1090.023, 4.872789
1090.505, 4.754024
1090.987, 4.593163
1091.469, 4.215673
1091.951, 3.740927
1092.433, 2.646568
1092.916, 2.027433
1093.398, 3.416645
1093.880, 5.580085
1094.362, 6.104616
1094.844, 4.819215
1095.326, 4.444230
1095.808, 7.362867
1096.290, 9.048761
1096.772, 6.634825
1097.255, 4.022304
1097.737, 4.068317
1098.219, 5.191378
1098.701, 4.998193
1099.183, 3.513313
1099.665, 2.664303
1100.147, 3.281099
1100.629, 3.754640
1101.112, 3.367033
1101.594, 3.089674
1102.076, 3.678422
1102.558, 4.414937
1103.040, 4.342307
1103.522, 3.707926
1104.004, 3.784899
1104.486, 5.481076
1104.969, 5.671652
1105.451, 1.232931
1105.933, 1.469893
1106.415, 1.052717
1106.897, 4.994781
1107.379, 8.482579
1107.861, 10.69816
1108.343, 9.439176
1108.825, 3.548690
1109.307, 0.1800630
1109.790, 1.746414
1110.272, 2.981935
1110.754, 2.781295
1111.236, 2.238670
1111.718, 1.979736
1112.200, 1.818935
1112.682, 1.159710
1113.164, 9.0937003E-02
1113.647, 0.1415810
1114.129, 4.234925
1114.611, 5.794624
1115.093, 1.840084
1115.575, 1.195614
1116.057, 0.3032420
1116.539, 3.235454
1117.021, 3.917816
1117.504, 2.734966
1117.986, 2.599277
1118.468, 4.528352
1118.950, 5.008929
1119.432, 3.234430
1119.914, 1.526441
1120.396, 0.3147090
1120.878, 8.0250002E-02
1121.360, 1.011106
1121.843, 2.862599
1122.325, 3.227189
1122.807, 1.784132
1123.289, 0.7545930
1123.771, 0.1927010
1124.253, 0.1672100
1124.735, 0.4776880
1125.217, 0.2591570
1125.699, 0.9150690
1126.182, 2.565315
1126.664, 4.012280
1127.146, 5.198838
1127.628, 4.854660
1128.110, 2.765816
1128.592, 1.008459
1129.074, 0.1991370
1129.556, 0.5231930
1130.039, 0.3566790
1130.521, 1.156642
1131.003, 0.2099040
1131.485, 1.703976
1131.967, 1.858114
1132.449, 0.3874950
1132.931, 2.417931
1133.413, 6.455859
1133.896, 7.189938
1134.378, 3.261444
1134.860, 0.3167200
1135.342, 0.4625130
1135.824, 3.280590
1136.306, 3.826289
1136.788, 2.820986
1137.270, 3.376928
1137.752, 5.055070
1138.234, 5.189075
1138.717, 3.575246
1139.199, 2.746457
1139.681, 4.003990
1140.163, 5.438851
1140.645, 4.286771
1141.127, 2.488228
1141.609, 4.611041
1142.091, 8.456077
1142.574, 8.470024
1143.056, 5.459968
1143.538, 4.356234
1144.020, 6.483833
1144.502, 8.666500
1144.984, 8.847843
1145.466, 7.758820
1145.948, 4.909521
1146.431, 2.243199
1146.913, 2.701138
1147.395, 5.002846
1147.877, 6.760610
1148.359, 7.602747
1148.841, 8.320496
1149.323, 9.352173
1149.805, 9.746592
1150.287, 8.312319
1150.770, 6.713664
1151.252, 6.247235
1151.734, 6.177791
1152.216, 5.487288
1152.698, 4.552377
1153.180, 4.659866
1153.662, 6.065794
1154.144, 6.538232
1154.626, 3.949983
1155.109, 2.275844
1155.591, 3.913773
1156.073, 5.664836
1156.555, 5.482634
1157.037, 4.276781
1157.519, 2.989431
1158.001, 1.829826
1158.483, 1.569516
1158.966, 2.588094
1159.448, 3.838344
1159.930, 6.400437
1160.412, 7.595475
1160.894, 5.712483
1161.376, 3.349767
1161.858, 2.130842
1162.340, 1.947946
1162.822, 2.694596
1163.305, 4.483550
1163.787, 5.955359
1164.269, 7.609804
1164.751, 8.089942
1165.233, 7.126683
1165.715, 5.037698
1166.197, 1.374185
1166.679, 1.802685
1167.161, 1.974590
1167.644, 0.2808870
1168.126, 2.901996
1168.608, 5.953561
1169.090, 7.066191
1169.572, 6.087990
1170.054, 4.870160
1170.536, 3.899933
1171.018, 3.468266
1171.500, 3.992431
1171.983, 4.878391
1172.465, 5.812865
1172.947, 6.632979
1173.429, 6.229958
1173.911, 5.053260
1174.393, 3.998635
1174.875, 3.211720
1175.357, 2.709359
1175.840, 2.475821
1176.322, 2.229986
1176.804, 1.580616
1177.286, 1.124180
1177.768, 2.135289
1178.250, 3.455543
1178.732, 3.017257
1179.214, 1.716821
1179.697, 1.388855
1180.179, 2.232642
1180.661, 3.552001
1181.143, 5.143878
1181.625, 6.490819
1182.107, 7.290491
1182.589, 7.669644
1183.071, 7.643957
1183.553, 7.388429
1184.036, 7.065226
1184.518, 6.586727
1185.000, 5.525522
1185.482, 3.899131
1185.964, 3.082452
1186.446, 4.239292
1186.928, 4.813723
1187.410, 3.037969
1187.892, 2.335595
1188.375, 5.569394
1188.857, 9.143744
1189.339, 9.218658
1189.821, 7.142591
1190.303, 6.713729
1190.785, 8.366773
1191.267, 8.639483
1191.749, 6.975215
1192.232, 5.417629
1192.714, 4.049846
1193.196, 3.525373
1193.678, 4.241912
1194.160, 5.471934
1194.642, 6.499351
1195.124, 7.332895
1195.606, 7.963426
1196.089, 8.395759
1196.571, 8.733591
1197.053, 8.953182
1197.535, 8.477896
1198.017, 7.194483
1198.499, 5.715494
1198.981, 4.393135
1199.463, 3.430723
1199.945, 3.372299
1200.427, 3.640769
1200.910, 2.422482
1201.392, 0.8928920
1201.874, 2.492709
1202.356, 6.140355
1202.838, 7.349565
1203.320, 5.294168
1203.802, 3.928972
1204.284, 6.010582
1204.767, 8.061203
1205.249, 7.513011
1205.731, 5.765987
1206.213, 2.774799
1206.695, 0.1747400
1207.177, 0.4451720
1207.659, 2.577966
1208.141, 3.292432
1208.624, 1.802851
1209.106, 1.549511
1209.588, 5.140471
1210.070, 7.433557
1210.552, 5.976237
1211.034, 4.449430
1211.516, 4.859776
1211.998, 6.012533
1212.480, 6.980450
1212.963, 7.625248
1213.445, 7.263268
1213.927, 5.392287
1214.409, 5.236474
1214.891, 7.488320
1215.373, 8.541512
1215.855, 7.438356
1216.337, 6.453161
1216.819, 6.791715
1217.302, 7.840863
1217.784, 8.970178
1218.266, 10.00943
1218.748, 10.59316
1219.230, 10.60864
1219.712, 8.965606
1220.194, 6.112037
1220.676, 4.516502
1221.159, 4.655406
1221.641, 5.624757
1222.123, 6.977603
1222.605, 8.074277
1223.087, 8.451242
1223.569, 8.054213
1224.051, 6.081510
1224.533, 3.737009
1225.016, 2.907809
1225.498, 3.379802
1225.980, 4.314854
1226.462, 5.371519
1226.944, 6.029378
1227.426, 6.410960
1227.908, 5.506727
1228.390, 0.7978080
1228.872, 2.565662
1229.354, 1.278196
1229.837, 1.075879
1230.319, 1.810941
1230.801, 1.586372
1231.283, 1.706775
1231.765, 2.182298
1232.247, 2.498565
1232.729, 2.774333
1233.211, 2.412886
1233.694, 0.9840040
1234.176, 0.4008190
1234.658, 1.441075
1235.140, 2.485235
1235.622, 2.281120
1236.104, 1.734581
1236.586, 2.471760
1237.068, 4.138923
1237.551, 5.460741
1238.033, 6.275064
1238.515, 5.283874
1238.997, 2.961643
1239.479, 2.264956
1239.961, 3.807350
1240.443, 5.179384
1240.925, 4.843583
1241.407, 3.900703
1241.890, 2.910801
1242.372, 2.346527
1242.854, 3.253978
1243.336, 4.378085
1243.818, 3.614605
1244.300, 2.095753
1244.782, 2.929033
1245.264, 6.364629
1245.746, 8.467456
1246.229, 7.166353
1246.711, 6.378092
1247.193, 7.699368
1247.675, 8.193271
1248.157, 6.085091
1248.639, 3.708784
1249.121, 2.760470
1249.603, 2.521297
1250.085, 1.586699
1250.568, 5.2645002E-02
1251.050, 0.3810150
1251.532, 0.3652380
1252.014, 1.507174
1252.496, 3.020649
1252.978, 3.878286
1253.460, 3.777134
1253.942, 3.970222
1254.425, 5.384735
1254.907, 6.789968
1255.389, 6.144089
1255.871, 4.546442
1256.353, 3.922823
1256.835, 3.899191
1257.317, 3.277752
1257.799, 3.288609
1258.281, 4.057117
1258.764, 5.418464
1259.246, 5.563030
1259.728, 3.123959
1260.210, 1.516647
1260.692, 2.639055
1261.174, 4.412008
1261.656, 6.606037
1262.138, 8.261004
1262.620, 8.251974
1263.103, 7.524467
1263.585, 7.765658
1264.067, 8.751849
1264.549, 8.498820
1265.031, 6.538067
1265.513, 4.740282
1265.995, 3.081989
1266.477, 1.508957
1266.960, 9.0075999E-02
1267.442, 0.8488030
1267.924, 0.2945580
1268.406, 0.5736370
1268.888, 0.9627490
1269.370, 1.155382
1269.852, 2.308384
1270.334, 4.073908
1270.817, 6.009794
1271.299, 7.683434
1271.781, 7.896839
1272.263, 6.767002
1272.745, 5.398518
1273.227, 4.292280
1273.709, 3.579054
1274.191, 3.557716
1274.673, 3.612371
1275.156, 3.342344
1275.638, 3.140556
1276.120, 2.645741
1276.602, 1.972523
1277.084, 3.495068
1277.566, 5.950012
1278.048, 7.388783
1278.530, 7.690279
1279.012, 6.944847
1279.495, 4.744562
1279.977, 2.693979
1280.459, 0.6001590
1280.941, 1.252888
1281.423, 6.166698
1281.905, 9.687290
1282.387, 7.175446
1282.869, 2.066029
1283.352, 3.9301001E-02
1283.834, 0.1056580
1284.316, 0.3835960
1284.798, 0.0000000E+00
##END=



