##NAMES=Leucophanite
##RRUFFID=R060207
##IDEAL CHEMISTRY=NaCaBeSi_2_O_6_F
##LOCALITY=Mont Saint-Hilaire, Rouville County, Quebec, Canada
##OWNER=RRUFF
##SOURCE=Royal Ontario Museum
##DESCRIPTION=Pale yellow tabular crystal
##STATUS=The identification of this mineral is confirmed by single-crystal X-ray diffraction and chemical analysis.
##URL=rruff.info/R060207
##MEASURED CHEMISTRY=Na_1.00_Ca_1.00_Be_1.00_Si_2.00_O_6_(F_0.80_(OH)_0.20_)_Î£=1_; (OH)  estimated by charge balance; Be estimated by difference
91.82715, 0.0000000E+00
92.30927, 580.4883
92.79138, 973.6602
93.27350, 822.2461
93.75562, 524.7383
94.23773, 385.9336
94.71985, 363.7539
95.20197, 303.6406
95.68408, 183.1250
96.16620, 75.87109
96.64832, 23.08984
97.13043, 77.90039
97.61255, 202.8027
98.09467, 253.2617
98.57678, 253.7480
99.05890, 202.5430
99.54102, 144.6816
100.0231, 103.2227
100.5052, 113.8047
100.9874, 197.0645
101.4695, 333.8281
101.9516, 415.9355
102.4337, 266.3633
102.9158, 171.5684
103.3979, 261.7812
103.8801, 436.4395
104.3622, 603.6797
104.8443, 725.6094
105.3264, 824.8770
105.8085, 949.5234
106.2906, 986.9707
106.7728, 925.2402
107.2549, 869.5879
107.7370, 875.1523
108.2191, 964.9688
108.7012, 980.2832
109.1833, 1054.787
109.6655, 1047.988
110.1476, 956.4766
110.6297, 843.1289
111.1118, 718.5684
111.5939, 559.1973
112.0760, 424.8008
112.5582, 413.4902
113.0403, 497.8398
113.5224, 561.1660
114.0045, 506.8828
114.4866, 342.5137
114.9688, 242.8203
115.4509, 340.1602
115.9330, 457.2285
116.4151, 467.6035
116.8972, 354.4004
117.3793, 190.2090
117.8615, 61.48438
118.3436, 31.58203
118.8257, 98.21289
119.3078, 157.2871
119.7899, 191.3027
120.2720, 173.6250
120.7542, 92.55078
121.2363, 34.16211
121.7184, 152.8164
122.2005, 325.8750
122.6826, 396.1133
123.1647, 275.6582
123.6468, 64.57812
124.1290, 90.65625
124.6111, 99.44141
125.0932, 16.18164
125.5753, 51.83008
126.0574, 109.6660
126.5395, 214.2285
127.0217, 113.0566
127.5038, 154.8242
127.9859, 417.9043
128.4680, 560.1426
128.9501, 584.6211
129.4323, 590.2500
129.9144, 551.2266
130.3965, 516.3750
130.8786, 557.6250
131.3607, 697.4785
131.8428, 807.1348
132.3250, 737.4141
132.8071, 578.7559
133.2892, 492.4473
133.7713, 604.9102
134.2534, 851.0449
134.7355, 1002.029
135.2177, 1012.424
135.6998, 997.4746
136.1819, 981.3008
136.6640, 971.3711
137.1461, 992.6289
137.6282, 1103.119
138.1104, 1326.557
138.5925, 1420.283
139.0746, 1210.391
139.5567, 1018.801
140.0388, 982.1484
140.5209, 1096.957
141.0031, 1265.139
141.4852, 1377.240
141.9673, 1430.480
142.4494, 1426.211
142.9315, 1315.852
143.4136, 1192.113
143.8958, 1111.520
144.3779, 1089.227
144.8600, 1109.531
145.3421, 1148.852
145.8242, 1211.844
146.3063, 1289.699
146.7885, 1420.578
147.2706, 1554.980
147.7527, 1633.000
148.2348, 1634.387
148.7169, 1576.082
149.1990, 1481.355
149.6812, 1408.449
150.1633, 1334.707
150.6454, 1241.805
151.1275, 1152.965
151.6096, 1149.965
152.0917, 1293.879
152.5739, 1516.090
153.0560, 1711.922
153.5381, 1888.805
154.0202, 2015.434
154.5023, 2036.594
154.9844, 1947.164
155.4665, 1880.930
155.9487, 1923.453
156.4308, 1987.988
156.9129, 1993.516
157.3950, 1910.465
157.8771, 1792.508
158.3592, 1721.867
158.8414, 1724.641
159.3235, 1717.504
159.8056, 1698.543
160.2877, 1649.488
160.7698, 1534.605
161.2519, 1335.039
161.7341, 1102.305
162.2162, 980.1367
162.6983, 1087.297
163.1804, 1150.973
163.6625, 1106.105
164.1446, 1004.500
164.6268, 912.7344
165.1089, 870.3125
165.5910, 866.9492
166.0731, 824.6367
166.5552, 718.9922
167.0373, 600.5742
167.5195, 466.4648
168.0016, 327.8750
168.4837, 201.5898
168.9658, 97.53906
169.4479, 16.43750
169.9300, 39.61719
170.4122, 75.46875
170.8943, 85.02734
171.3764, 58.24219
171.8585, 1.585938
172.3406, 65.91797
172.8227, 141.6758
173.3049, 219.6953
173.7870, 257.2852
174.2691, 230.7031
174.7512, 178.2031
175.2333, 115.0703
175.7154, 39.62109
176.1976, 11.37891
176.6797, 21.12891
177.1618, 101.7695
177.6439, 139.9766
178.1260, 89.17188
178.6081, 4.050781
179.0903, 45.05859
179.5724, 67.55469
180.0545, 43.20703
180.5366, 53.23047
181.0187, 196.7070
181.5008, 357.1953
181.9830, 566.6250
182.4651, 780.8008
182.9472, 818.2031
183.4293, 511.3242
183.9114, 261.9258
184.3935, 286.6641
184.8757, 492.5820
185.3578, 705.0820
185.8399, 795.9180
186.3220, 782.4531
186.8041, 804.2734
187.2862, 915.0312
187.7684, 995.1523
188.2505, 966.1523
188.7326, 871.3008
189.2147, 798.6680
189.6968, 822.9297
190.1789, 952.7344
190.6611, 1103.703
191.1432, 1342.426
191.6253, 1532.395
192.1074, 1600.754
192.5895, 1574.316
193.0716, 1533.402
193.5538, 1544.758
194.0359, 1618.777
194.5180, 1664.484
195.0001, 1642.086
195.4822, 1636.074
195.9643, 1715.316
196.4465, 1860.035
196.9286, 1980.355
197.4107, 1986.062
197.8928, 1856.930
198.3749, 1775.770
198.8570, 1776.242
199.3392, 1794.086
199.8213, 1782.973
200.3034, 1741.266
200.7855, 1705.926
201.2676, 1726.793
201.7497, 1805.801
202.2319, 1807.531
202.7140, 1684.066
203.1961, 1506.848
203.6782, 1321.844
204.1603, 1131.535
204.6424, 979.2773
205.1246, 937.5273
205.6067, 979.4102
206.0888, 976.7227
206.5709, 867.7930
207.0530, 714.4062
207.5351, 604.2695
208.0173, 552.8359
208.4994, 508.8398
208.9815, 435.9375
209.4636, 341.4141
209.9457, 235.2812
210.4278, 104.4844
210.9100, 33.35938
211.3921, 133.3789
211.8742, 178.3242
212.3563, 223.3086
212.8384, 336.5234
213.3205, 472.6836
213.8027, 541.7539
214.2848, 464.2305
214.7669, 285.8906
215.2490, 177.7070
215.7311, 171.9531
216.2132, 191.5938
216.6954, 228.2773
217.1775, 261.3906
217.6596, 252.3320
218.1417, 164.8594
218.6238, 16.28906
219.1059, 88.42969
219.5881, 121.6367
220.0702, 139.4688
220.5523, 117.7148
221.0344, 98.08594
221.5165, 158.8867
221.9986, 372.5859
222.4808, 710.7695
222.9629, 901.4453
223.4450, 707.3438
223.9271, 608.4062
224.4092, 755.1250
224.8913, 1061.461
225.3735, 1372.137
225.8556, 1585.340
226.3377, 1710.438
226.8198, 1882.539
227.3019, 2228.164
227.7840, 2483.676
228.2662, 2517.383
228.7483, 2426.863
229.2304, 2383.832
229.7125, 2503.488
230.1946, 2767.832
230.6767, 2986.453
231.1589, 3197.215
231.6410, 3326.188
232.1231, 3288.477
232.6052, 3156.562
233.0873, 3086.531
233.5694, 3188.770
234.0516, 3417.898
234.5337, 3435.180
235.0158, 3062.906
235.4979, 2720.375
235.9800, 2558.164
236.4621, 2518.035
236.9443, 2467.363
237.4264, 2333.938
237.9085, 2137.277
238.3906, 1961.445
238.8727, 1860.352
239.3548, 1717.285
239.8370, 1450.816
240.3191, 1108.320
240.8012, 807.6719
241.2833, 610.0430
241.7654, 487.0938
242.2475, 355.1641
242.7297, 219.1211
243.2118, 70.18359
243.6939, 119.5352
244.1760, 330.7383
244.6581, 507.8672
245.1402, 636.4062
245.6224, 703.7734
246.1045, 682.9648
246.5866, 544.8242
247.0687, 412.9102
247.5508, 371.5938
248.0329, 392.7070
248.5151, 373.1602
248.9972, 272.5430
249.4793, 117.5781
249.9614, 35.45703
250.4435, 178.2227
250.9256, 369.0508
251.4078, 709.2422
251.8899, 1147.129
252.3720, 1460.691
252.8541, 1549.199
253.3362, 1539.984
253.8183, 1540.391
254.3005, 1549.438
254.7826, 1654.258
255.2647, 1984.945
255.7468, 2485.430
256.2289, 2863.172
256.7110, 3023.133
257.1931, 3099.930
257.6753, 3186.211
258.1574, 3286.727
258.6395, 3432.211
259.1216, 3680.094
259.6037, 4004.016
260.0858, 4258.867
260.5680, 4406.102
261.0501, 4510.180
261.5322, 4603.445
262.0143, 4691.367
262.4964, 4790.555
262.9785, 4945.133
263.4607, 5132.930
263.9428, 5211.492
264.4249, 5071.219
264.9070, 4976.828
265.3891, 5055.531
265.8712, 5266.086
266.3534, 5529.289
266.8355, 5831.242
267.3176, 6144.617
267.7997, 6348.906
268.2818, 6380.391
268.7639, 6390.844
269.2461, 6390.867
269.7282, 6417.336
270.2103, 6536.727
270.6924, 6807.289
271.1745, 7156.953
271.6566, 7341.875
272.1388, 7259.719
272.6209, 7208.617
273.1030, 7292.633
273.5851, 7425.609
274.0672, 7521.852
274.5493, 7547.203
275.0315, 7499.219
275.5136, 7361.227
275.9957, 7071.078
276.4778, 6818.781
276.9599, 6624.672
277.4420, 6476.789
277.9242, 6368.664
278.4063, 6297.680
278.8884, 6257.656
279.3705, 6252.031
279.8526, 6339.094
280.3347, 6334.422
280.8169, 6101.141
281.2990, 5857.648
281.7811, 5789.008
282.2632, 5931.867
282.7453, 6156.680
283.2274, 6255.305
283.7096, 6118.109
284.1917, 6135.109
284.6738, 6407.211
285.1559, 6741.305
285.6380, 7046.641
286.1201, 7300.219
286.6023, 7511.672
287.0844, 7668.422
287.5665, 7710.422
288.0486, 7937.594
288.5307, 8462.539
289.0128, 9051.086
289.4950, 9623.055
289.9771, 10166.69
290.4592, 10694.98
290.9413, 11224.10
291.4234, 11756.23
291.9055, 12240.99
292.3877, 12629.40
292.8698, 13021.89
293.3519, 13436.44
293.8340, 13881.12
294.3161, 14368.76
294.7982, 14912.59
295.2804, 15508.82
295.7625, 16070.22
296.2446, 16541.15
296.7267, 17038.97
297.2088, 17666.77
297.6909, 18318.73
298.1731, 18821.71
298.6552, 19073.91
299.1373, 19137.13
299.6194, 19246.68
300.1015, 19499.81
300.5836, 19676.57
301.0658, 19709.64
301.5479, 19670.05
302.0300, 19663.77
302.5121, 19732.13
302.9942, 19785.88
303.4763, 19624.54
303.9585, 18981.36
304.4406, 18546.59
304.9227, 18472.79
305.4048, 18501.41
305.8869, 18417.48
306.3690, 18182.48
306.8512, 17916.28
307.3333, 17779.16
307.8154, 17809.60
308.2975, 17865.03
308.7796, 17915.41
309.2617, 18025.14
309.7439, 18242.05
310.2260, 18561.72
310.7081, 18938.88
311.1902, 19320.70
311.6723, 19689.81
312.1544, 20128.85
312.6366, 20710.14
313.1187, 21321.01
313.6008, 21869.87
314.0829, 22384.46
314.5650, 22972.68
315.0471, 23727.03
315.5293, 24639.36
316.0114, 25520.30
316.4935, 26291.05
316.9756, 27110.08
317.4577, 28036.10
317.9398, 29020.73
318.4220, 29990.75
318.9041, 30904.88
319.3862, 31769.91
319.8683, 32629.43
320.3504, 33505.62
320.8326, 34334.27
321.3147, 35095.70
321.7968, 35806.47
322.2789, 36512.23
322.7610, 37216.35
323.2431, 37852.65
323.7253, 38287.62
324.2074, 38375.84
324.6895, 38525.66
325.1716, 38787.12
325.6537, 39063.10
326.1358, 39324.84
326.6180, 39556.41
327.1001, 39729.01
327.5822, 39808.52
328.0643, 39776.54
328.5464, 39743.83
329.0285, 39726.50
329.5107, 39693.67
329.9928, 39656.25
330.4749, 39594.77
330.9570, 39452.30
331.4391, 39170.34
331.9212, 38766.62
332.4034, 38507.33
332.8855, 38575.87
333.3676, 38596.76
333.8497, 38494.88
334.3318, 38303.09
334.8139, 38066.60
335.2961, 37807.57
335.7782, 37530.96
336.2603, 37252.94
336.7424, 36983.01
337.2245, 36695.98
337.7066, 36403.12
338.1888, 36086.77
338.6709, 35743.80
339.1530, 35368.42
339.6351, 34938.05
340.1172, 34420.55
340.5993, 33816.97
341.0815, 33116.68
341.5636, 32262.40
342.0457, 31375.45
342.5278, 30510.30
343.0099, 29674.59
343.4920, 28854.39
343.9742, 28033.23
344.4563, 27208.79
344.9384, 26424.72
345.4205, 25721.68
345.9026, 25021.30
346.3847, 24309.68
346.8669, 23585.62
347.3490, 22843.53
347.8311, 22076.84
348.3132, 21300.41
348.7953, 20586.07
349.2774, 19966.14
349.7596, 19355.91
350.2417, 18706.89
350.7238, 18072.60
351.2059, 17531.63
351.6880, 17107.70
352.1701, 16712.52
352.6523, 16184.59
353.1344, 15461.30
353.6165, 14798.39
354.0986, 14234.06
354.5807, 13725.72
355.0628, 13279.57
355.5450, 12881.13
356.0271, 12475.90
356.5092, 11978.38
356.9913, 11381.91
357.4734, 10924.50
357.9555, 10772.14
358.4377, 10578.08
358.9198, 10197.73
359.4019, 9672.727
359.8840, 9091.266
360.3661, 8485.992
360.8482, 7874.156
361.3304, 7303.383
361.8125, 6782.773
362.2946, 6288.992
362.7767, 5876.062
363.2588, 5455.969
363.7409, 4917.883
364.2231, 4215.641
364.7052, 3464.023
365.1873, 2819.633
365.6694, 2295.016
366.1515, 1742.320
366.6336, 1085.570
367.1158, 423.4609
367.5979, 192.5000
368.0800, 756.6562
368.5621, 1244.844
369.0442, 1569.977
369.5263, 1784.078
370.0085, 2164.594
370.4906, 2838.156
370.9727, 3486.664
371.4548, 3864.453
371.9369, 4059.719
372.4190, 4262.102
372.9012, 4563.609
373.3833, 4897.867
373.8654, 5169.984
374.3475, 5377.227
374.8296, 5547.461
375.3117, 5704.578
375.7939, 5823.414
376.2760, 5869.641
376.7581, 5831.203
377.2402, 5739.914
377.7223, 5619.453
378.2044, 5465.469
378.6866, 5258.102
379.1687, 4982.484
379.6508, 4659.812
380.1329, 4320.438
380.6150, 3970.930
381.0971, 3563.641
381.5793, 3054.688
382.0614, 2485.555
382.5435, 1912.375
383.0256, 1336.688
383.5077, 767.3516
383.9898, 216.8594
384.4720, 325.2969
384.9541, 945.2109
385.4362, 1612.398
385.9183, 2382.758
386.4004, 3341.039
386.8825, 4438.445
387.3647, 5532.398
387.8468, 6548.539
388.3289, 7519.867
388.8110, 8525.320
389.2931, 9567.711
389.7752, 10645.79
390.2574, 11695.95
390.7395, 12810.23
391.2216, 14156.34
391.7037, 15757.03
392.1858, 17390.31
392.6679, 18755.41
393.1501, 19751.34
393.6322, 21051.36
394.1143, 22872.67
394.5964, 24781.20
395.0785, 26498.59
395.5606, 28081.37
396.0428, 29709.44
396.5249, 31507.34
397.0070, 33451.21
397.4891, 35507.40
397.9712, 37699.17
398.4533, 39957.91
398.9355, 42268.33
399.4176, 44651.22
399.8997, 47160.38
400.3818, 49800.48
400.8639, 52531.89
401.3460, 55275.26
401.8282, 57935.24
402.3103, 60882.23
402.7924, 64212.50
403.2745, 67719.16
403.7566, 71346.84
404.2387, 75068.27
404.7209, 78834.52
405.2030, 82532.66
405.6851, 86246.86
406.1672, 90473.80
406.6493, 95555.48
407.1314, 100649.9
407.6136, 105465.0
408.0957, 110225.0
408.5778, 115158.8
409.0599, 120333.1
409.5420, 125741.6
410.0241, 131444.2
410.5063, 137451.8
410.9884, 143574.4
411.4705, 149793.4
411.9526, 156100.3
412.4347, 162453.9
412.9168, 168846.0
413.3990, 175330.7
413.8811, 181994.3
414.3632, 188761.2
414.8453, 195340.6
415.3274, 201700.3
415.8095, 207948.9
416.2917, 214250.6
416.7738, 220454.5
417.2559, 226335.4
417.7380, 231837.8
418.2201, 237022.0
418.7022, 241967.9
419.1844, 246675.7
419.6665, 251160.9
420.1486, 255439.4
420.6307, 259425.1
421.1128, 262995.9
421.5949, 266198.5
422.0771, 269076.8
422.5592, 271612.1
423.0413, 273843.2
423.5234, 275816.2
424.0055, 277521.2
424.4876, 279032.1
424.9698, 280390.9
425.4519, 281574.0
425.9340, 282560.5
426.4161, 283207.0
426.8982, 283831.2
427.3803, 284608.3
427.8625, 285454.6
428.3446, 286191.1
428.8267, 286766.0
429.3088, 287224.4
429.7909, 287618.9
430.2730, 287922.5
430.7552, 288222.0
431.2373, 288613.4
431.7194, 288928.6
432.2015, 289083.6
432.6836, 289053.5
433.1657, 288807.8
433.6479, 288299.9
434.1300, 287555.5
434.6121, 286858.8
435.0942, 286458.6
435.5763, 285817.2
436.0584, 284777.7
436.5406, 283487.2
437.0227, 282145.4
437.5048, 280816.2
437.9869, 279354.3
438.4690, 277495.8
438.9511, 275112.0
439.4333, 272769.2
439.9154, 270540.6
440.3975, 268288.2
440.8796, 265914.8
441.3617, 263459.8
441.8438, 261057.7
442.3260, 258852.8
442.8081, 256706.4
443.2902, 254227.2
443.7723, 251268.6
444.2544, 248318.2
444.7365, 245539.8
445.2187, 242840.9
445.7008, 240167.8
446.1829, 237510.7
446.6650, 234897.1
447.1471, 232349.8
447.6292, 229875.8
448.1114, 227496.2
448.5935, 225232.5
449.0756, 223038.7
449.5577, 220961.8
450.0398, 218939.8
450.5219, 216741.7
451.0041, 214270.0
451.4862, 211624.7
451.9683, 208936.5
452.4504, 206184.3
452.9325, 203245.6
453.4146, 200056.2
453.8968, 196661.5
454.3789, 193133.8
454.8610, 189509.8
455.3431, 185752.5
455.8252, 181855.9
456.3073, 177827.7
456.7895, 173576.8
457.2716, 169129.3
457.7537, 164707.6
458.2358, 160496.4
458.7179, 156489.3
459.2000, 152443.5
459.6822, 148414.4
460.1643, 144288.2
460.6464, 139904.1
461.1285, 135439.8
461.6106, 131199.1
462.0927, 127286.2
462.5748, 123518.8
463.0569, 119559.8
463.5391, 115270.6
464.0212, 111226.6
464.5033, 107640.6
464.9854, 104093.4
465.4675, 100360.6
465.9496, 96487.67
466.4318, 92626.11
466.9139, 88852.77
467.3960, 85177.59
467.8781, 81638.81
468.3602, 78287.38
468.8423, 74906.41
469.3245, 71303.84
469.8066, 67704.48
470.2887, 64301.00
470.7708, 61119.73
471.2529, 58057.22
471.7350, 55023.34
472.2172, 52034.03
472.6993, 49189.08
473.1814, 46484.30
473.6635, 43957.34
474.1456, 41693.28
474.6277, 39620.86
475.1099, 37624.59
475.5920, 35687.28
476.0741, 33832.55
476.5562, 32084.69
477.0383, 30441.50
477.5204, 28843.20
478.0026, 27273.16
478.4847, 25788.42
478.9668, 24487.12
479.4489, 23384.45
479.9310, 22401.62
480.4131, 21546.78
480.8953, 20806.72
481.3774, 20223.27
481.8595, 19758.41
482.3416, 19300.22
482.8237, 18775.36
483.3058, 18225.58
483.7880, 17789.34
484.2701, 17526.84
484.7522, 17303.83
485.2343, 17067.84
485.7164, 16899.64
486.1985, 16888.19
486.6807, 17022.30
487.1628, 17195.78
487.6449, 17303.48
488.1270, 17355.78
488.6091, 17507.11
489.0912, 17793.22
489.5734, 18126.34
490.0555, 18494.33
490.5376, 18881.12
491.0197, 19259.69
491.5018, 19620.06
491.9839, 20006.06
492.4661, 20474.02
492.9482, 21015.56
493.4303, 21552.33
493.9124, 22082.95
494.3945, 22587.91
494.8766, 22999.00
495.3588, 23365.69
495.8409, 23832.50
496.3230, 24567.86
496.8051, 25289.95
497.2872, 25727.88
497.7693, 25944.08
498.2515, 26181.67
498.7336, 26545.45
499.2157, 26922.61
499.6978, 27114.62
500.1799, 27052.64
500.6620, 27073.38
501.1442, 27323.92
501.6263, 27560.55
502.1084, 27590.17
502.5905, 27450.42
503.0726, 27311.23
503.5547, 27286.27
504.0369, 27312.81
504.5190, 27152.28
505.0011, 26608.22
505.4832, 26183.75
505.9653, 25987.91
506.4474, 25848.64
506.9296, 25586.97
507.4117, 25233.25
507.8938, 25002.88
508.3759, 25109.67
508.8580, 25490.97
509.3401, 25801.58
509.8223, 26052.64
510.3044, 26158.48
510.7865, 25957.38
511.2686, 25679.19
511.7507, 25557.73
512.2328, 25642.25
512.7150, 25763.72
513.1971, 25766.28
513.6792, 25714.95
514.1613, 25795.22
514.6434, 26035.55
515.1255, 26314.59
515.6077, 26595.38
516.0898, 26845.30
516.5719, 26944.72
517.0540, 26662.09
517.5361, 26504.53
518.0182, 26742.81
518.5004, 27248.00
518.9825, 27851.58
519.4646, 28500.91
519.9467, 29096.02
520.4288, 29493.28
520.9109, 29632.91
521.3931, 29968.53
521.8752, 30690.28
522.3573, 31388.45
522.8394, 31885.20
523.3215, 32242.08
523.8036, 32566.27
524.2858, 32915.66
524.7679, 33310.14
525.2500, 33773.05
525.7321, 34304.83
526.2142, 34884.52
526.6964, 35554.72
527.1785, 36224.45
527.6606, 36876.48
528.1427, 37472.97
528.6248, 37962.95
529.1069, 38323.36
529.5891, 38609.08
530.0712, 38854.23
530.5533, 39056.28
531.0354, 39308.94
531.5175, 39713.42
531.9996, 40070.11
532.4818, 40089.34
532.9639, 39806.05
533.4460, 39509.56
533.9281, 39287.67
534.4102, 39042.34
534.8923, 38695.23
535.3745, 38263.59
535.8566, 37765.41
536.3387, 37203.75
536.8208, 36625.64
537.3029, 36154.86
537.7850, 35951.83
538.2672, 35499.33
538.7493, 34622.28
539.2314, 33681.02
539.7135, 32894.09
540.1956, 32211.84
540.6777, 31440.20
541.1599, 30454.36
541.6420, 29344.12
542.1241, 28352.09
542.6062, 27528.98
543.0883, 26639.25
543.5704, 25596.67
544.0526, 24512.50
544.5347, 23435.66
545.0168, 22368.91
545.4989, 21347.91
545.9810, 20388.21
546.4631, 19474.20
546.9453, 18622.55
547.4274, 17827.41
547.9095, 16948.15
548.3916, 15892.42
548.8737, 14774.34
549.3558, 13815.39
549.8380, 13033.80
550.3201, 12257.12
550.8022, 11459.20
551.2843, 10660.41
551.7664, 9863.422
552.2485, 9078.516
552.7307, 8341.156
553.2128, 7669.586
553.6949, 7039.797
554.1770, 6376.344
554.6591, 5629.312
555.1412, 4942.461
555.6234, 4314.250
556.1055, 3738.266
556.5876, 3214.281
557.0697, 2732.867
557.5518, 2276.188
558.0339, 1819.133
558.5161, 1393.078
558.9982, 1099.680
559.4803, 975.1172
559.9624, 778.9844
560.4445, 402.5469
560.9266, 22.14844
561.4088, 379.0234
561.8909, 667.6875
562.3730, 916.9219
562.8551, 1103.031
563.3372, 1278.695
563.8193, 1505.109
564.3015, 1772.805
564.7836, 2026.539
565.2657, 2242.352
565.7478, 2433.391
566.2299, 2639.039
566.7120, 2922.539
567.1942, 3043.516
567.6763, 2848.500
568.1584, 2632.477
568.6405, 2557.695
569.1226, 2600.719
569.6047, 2675.008
570.0869, 2732.289
570.5690, 2806.859
571.0511, 2991.750
571.5332, 3355.883
572.0153, 3582.930
572.4974, 3560.367
572.9796, 3469.031
573.4617, 3392.969
573.9438, 3326.930
574.4259, 3244.719
574.9080, 3128.797
575.3901, 3002.172
575.8723, 2896.961
576.3544, 2806.172
576.8365, 2693.742
577.3186, 2546.281
577.8007, 2380.086
578.2828, 2193.938
578.7650, 1986.055
579.2471, 1862.594
579.7292, 1989.789
580.2113, 2030.453
580.6934, 1734.875
581.1755, 1272.734
581.6577, 928.6094
582.1398, 796.2891
582.6219, 766.9531
583.1040, 702.4688
583.5861, 602.1641
584.0682, 473.0625
584.5504, 364.2969
585.0325, 161.3750
585.5146, 266.3828
585.9967, 764.8516
586.4788, 1118.883
586.9609, 1262.859
587.4431, 1376.336
587.9252, 1638.320
588.4073, 2013.000
588.8894, 2365.508
589.3715, 2684.172
589.8536, 2972.547
590.3358, 3207.492
590.8179, 3418.938
591.3000, 3709.531
591.7821, 4140.914
592.2642, 4538.453
592.7463, 4802.133
593.2285, 5029.227
593.7106, 5337.945
594.1927, 5731.602
594.6748, 6130.188
595.1569, 6469.734
595.6390, 6761.148
596.1212, 7059.672
596.6033, 7343.086
597.0854, 7675.852
597.5675, 8141.070
598.0496, 8592.664
598.5317, 8931.109
599.0139, 9155.273
599.4960, 9308.266
599.9781, 9346.219
600.4602, 9384.336
600.9423, 9686.914
601.4244, 10257.48
601.9066, 10775.89
602.3887, 11120.20
602.8708, 11389.61
603.3529, 11714.70
603.8350, 12095.00
604.3171, 12466.60
604.7993, 12826.03
605.2814, 13169.96
605.7635, 13486.38
606.2456, 13787.65
606.7277, 14117.59
607.2098, 14490.26
607.6920, 14833.87
608.1741, 15009.90
608.6562, 14953.27
609.1383, 15086.12
609.6204, 15569.94
610.1025, 16065.15
610.5847, 16465.69
611.0668, 16815.81
611.5489, 17206.47
612.0310, 17670.12
612.5131, 18050.99
612.9952, 18083.47
613.4774, 17916.45
613.9595, 18064.64
614.4416, 18607.64
614.9237, 19222.65
615.4058, 19748.87
615.8879, 20186.50
616.3701, 20528.92
616.8522, 20668.77
617.3343, 20939.91
617.8164, 21535.09
618.2985, 22197.35
618.7806, 22678.52
619.2628, 22993.48
619.7449, 23315.14
620.2270, 23757.30
620.7091, 24266.12
621.1912, 24670.48
621.6733, 24907.98
622.1555, 25212.19
622.6376, 25643.95
623.1197, 26121.33
623.6018, 26650.61
624.0839, 27186.43
624.5660, 27607.12
625.0482, 27820.00
625.5303, 28013.70
626.0124, 28391.47
626.4945, 28888.75
626.9766, 29287.91
627.4587, 29533.74
627.9409, 29727.59
628.4230, 29962.03
628.9051, 30230.95
629.3872, 30498.63
629.8693, 30833.28
630.3514, 31104.02
630.8336, 31274.83
631.3157, 31380.95
631.7978, 31446.85
632.2799, 31482.91
632.7620, 31499.69
633.2441, 31482.97
633.7263, 31464.12
634.2084, 31593.93
634.6905, 31931.96
635.1726, 32191.75
635.6547, 32292.88
636.1368, 32272.83
636.6190, 32162.79
637.1011, 31961.98
637.5832, 31711.59
638.0653, 31430.36
638.5474, 31137.23
639.0295, 30844.77
639.5117, 30543.16
639.9938, 30191.45
640.4759, 29774.75
640.9580, 29376.99
641.4401, 29131.83
641.9222, 29078.07
642.4044, 28830.84
642.8865, 28207.34
643.3686, 27624.37
643.8507, 27196.61
644.3328, 26827.73
644.8149, 26419.23
645.2971, 25951.15
645.7792, 25444.36
646.2613, 24883.16
646.7434, 24304.38
647.2255, 23848.91
647.7076, 23527.16
648.1898, 23078.21
648.6719, 22343.80
649.1540, 21486.35
649.6361, 20794.24
650.1182, 20300.84
650.6003, 19760.13
651.0825, 19093.45
651.5646, 18431.28
652.0467, 17896.64
652.5288, 17408.65
653.0109, 16797.55
653.4930, 16008.97
653.9752, 15167.16
654.4573, 14459.76
654.9394, 13891.98
655.4215, 13210.20
655.9036, 12301.20
656.3857, 11499.61
656.8679, 11084.11
657.3500, 10801.23
657.8321, 10347.62
658.3142, 9672.031
658.7963, 9041.930
659.2784, 8609.797
659.7606, 8260.727
660.2427, 7879.000
660.7248, 7461.008
661.2069, 7012.227
661.6890, 6529.641
662.1711, 6059.281
662.6533, 5695.141
663.1354, 5492.352
663.6175, 5195.172
664.0996, 4658.836
664.5817, 4183.336
665.0638, 3895.047
665.5460, 3711.234
666.0281, 3510.039
666.5102, 3257.133
666.9923, 3032.398
667.4744, 2939.594
667.9565, 2918.602
668.4387, 2803.773
668.9208, 2585.125
669.4029, 2388.766
669.8850, 2276.195
670.3671, 2232.344
670.8492, 2227.695
671.3314, 2257.227
671.8135, 2345.703
672.2956, 2537.656
672.7777, 2744.523
673.2598, 2922.453
673.7419, 3080.859
674.2241, 3257.781
674.7062, 3464.125
675.1883, 3636.914
675.6704, 3672.531
676.1525, 3588.352
676.6346, 3577.734
677.1168, 3685.242
677.5989, 3731.672
678.0810, 3642.008
678.5631, 3426.156
679.0452, 3097.117
679.5273, 2628.195
680.0095, 2180.070
680.4916, 1816.203
680.9737, 1468.055
681.4558, 1046.266
681.9379, 602.9062
682.4200, 263.5078
682.9022, 79.59375
683.3843, 8.937500
683.8664, 84.50000
684.3485, 148.2031
684.8306, 170.1250
685.3127, 107.8516
685.7949, 79.00781
686.2770, 179.0859
686.7591, 311.4375
687.2412, 363.6875
687.7233, 319.5859
688.2054, 283.9766
688.6876, 340.2109
689.1697, 399.4453
689.6518, 407.1250
690.1339, 338.1562
690.6160, 86.72656
691.0981, 395.0156
691.5803, 911.7109
692.0624, 1171.734
692.5445, 1130.688
693.0266, 1199.320
693.5087, 1485.742
693.9908, 1735.219
694.4730, 1853.617
694.9551, 1921.523
695.4372, 2000.875
695.9193, 2106.125
696.4014, 2275.117
696.8835, 2588.609
697.3657, 2941.398
697.8478, 3172.031
698.3299, 3307.695
698.8120, 3508.930
699.2941, 3839.367
699.7762, 4176.609
700.2584, 4349.820
700.7405, 4338.281
701.2226, 4429.148
701.7047, 4732.242
702.1868, 5004.711
702.6689, 5171.734
703.1511, 5310.938
703.6332, 5498.336
704.1153, 5737.914
704.5974, 5984.312
705.0795, 6213.289
705.5616, 6425.820
706.0438, 6614.008
706.5259, 6782.188
707.0080, 6965.016
707.4901, 7175.258
707.9722, 7387.188
708.4543, 7586.688
708.9365, 7771.945
709.4186, 7860.266
709.9007, 7756.266
710.3828, 7686.352
710.8649, 7694.570
711.3470, 7741.727
711.8292, 7810.617
712.3113, 7888.062
712.7934, 7948.438
713.2755, 7970.969
713.7576, 7980.086
714.2397, 8033.219
714.7219, 8116.828
715.2040, 8102.703
715.6861, 7941.469
716.1682, 7816.984
716.6503, 7902.570
717.1324, 8151.234
717.6146, 8293.672
718.0967, 8241.781
718.5788, 8218.805
719.0609, 8278.281
719.5430, 8342.922
720.0251, 8333.430
720.5073, 8284.312
720.9894, 8289.609
721.4715, 8395.453
721.9536, 8559.367
722.4357, 8782.008
722.9178, 9030.438
723.4000, 9061.289
723.8821, 8808.273
724.3642, 8618.016
724.8463, 8725.539
725.3284, 9011.797
725.8105, 9175.875
726.2927, 9168.484
726.7748, 9165.930
727.2569, 9152.180
727.7390, 9169.609
728.2211, 9286.602
728.7032, 9436.859
729.1854, 9500.586
729.6675, 9442.195
730.1496, 9356.273
730.6317, 9346.469
731.1138, 9391.781
731.5959, 9409.828
732.0781, 9396.539
732.5602, 9395.523
733.0423, 9422.180
733.5244, 9471.773
734.0065, 9540.812
734.4886, 9633.406
734.9708, 9720.875
735.4529, 9857.664
735.9350, 9924.625
736.4171, 9792.523
736.8992, 9621.016
737.3813, 9581.641
737.8635, 9700.242
738.3456, 9901.664
738.8277, 10181.13
739.3098, 10456.41
739.7919, 10518.45
740.2740, 10384.52
740.7562, 10321.34
741.2383, 10400.29
741.7204, 10541.50
742.2025, 10688.52
742.6846, 10837.80
743.1667, 10943.45
743.6489, 11031.30
744.1310, 11042.31
744.6131, 10880.80
745.0952, 10715.49
745.5773, 10695.75
746.0594, 10782.02
746.5416, 10833.00
747.0237, 10778.73
747.5058, 10694.35
747.9879, 10652.30
748.4700, 10658.68
748.9521, 10761.36
749.4343, 10970.31
749.9164, 11122.56
750.3985, 11109.99
750.8806, 11000.91
751.3627, 10946.96
751.8448, 10962.69
752.3270, 10998.85
752.8091, 11140.17
753.2912, 11205.30
753.7733, 11060.37
754.2554, 10826.26
754.7375, 10657.95
755.2197, 10590.73
755.7018, 10568.87
756.1839, 10568.02
756.6660, 10578.34
757.1481, 10604.16
757.6302, 10633.81
758.1124, 10585.77
758.5945, 10424.88
759.0766, 10252.09
759.5587, 10178.51
760.0408, 10203.98
760.5229, 10255.43
761.0051, 10425.31
761.4872, 10477.22
761.9693, 10258.09
762.4514, 10024.06
762.9335, 9979.859
763.4156, 10086.70
763.8978, 10157.64
764.3799, 10091.39
764.8620, 10030.11
765.3441, 10115.81
765.8262, 10273.11
766.3083, 10370.45
766.7905, 10390.24
767.2726, 10370.41
767.7547, 10333.26
768.2368, 10273.80
768.7189, 10170.57
769.2010, 9982.309
769.6832, 9901.820
770.1653, 9971.555
770.6474, 10078.64
771.1295, 10212.62
771.6116, 10342.33
772.0938, 10434.48
772.5759, 10488.15
773.0580, 10490.36
773.5401, 10399.27
774.0222, 10283.67
774.5043, 10170.50
774.9865, 10084.62
775.4686, 10071.16
775.9507, 10137.21
776.4328, 10250.21
776.9149, 10405.69
777.3970, 10565.02
777.8792, 10505.79
778.3613, 10156.65
778.8434, 9966.469
779.3255, 10103.84
779.8076, 10302.22
780.2897, 10359.61
780.7719, 10296.52
781.2540, 10200.34
781.7361, 10054.78
782.2182, 9897.852
782.7003, 9688.887
783.1824, 9509.922
783.6646, 9466.457
784.1467, 9510.484
784.6288, 9513.473
785.1109, 9418.719
785.5930, 9273.859
786.0751, 9105.266
786.5573, 8934.438
787.0394, 8873.969
787.5215, 8936.062
788.0036, 8951.375
788.4857, 8851.348
788.9678, 8666.730
789.4500, 8429.758
789.9321, 8125.945
790.4142, 7877.023
790.8963, 7722.539
791.3784, 7568.938
791.8605, 7408.875
792.3427, 7232.277
792.8248, 6985.148
793.3069, 6701.227
793.7890, 6523.527
794.2711, 6577.562
794.7532, 6659.973
795.2354, 6577.285
795.7175, 6374.723
796.1996, 6130.043
796.6817, 5861.539
797.1638, 5612.969
797.6459, 5412.836
798.1281, 5236.141
798.6102, 5029.418
799.0923, 4784.852
799.5744, 4539.020
800.0565, 4261.422
800.5386, 4030.188
801.0208, 3934.504
801.5029, 3875.883
801.9850, 3733.137
802.4671, 3495.777
802.9492, 3285.715
803.4313, 3130.727
803.9135, 3022.289
804.3956, 3007.527
804.8777, 3012.535
805.3598, 2929.848
805.8419, 2748.016
806.3240, 2516.887
806.8062, 2256.855
807.2883, 2013.188
807.7704, 1909.074
808.2525, 1936.211
808.7346, 1939.883
809.2167, 1898.910
809.6989, 1823.539
810.1810, 1716.414
810.6631, 1583.949
811.1452, 1445.477
811.6273, 1289.406
812.1094, 1157.242
812.5916, 1086.883
813.0737, 998.6172
813.5558, 848.3711
814.0379, 669.0000
814.5200, 481.8906
815.0021, 300.6758
815.4843, 194.4375
815.9664, 277.2344
816.4485, 401.3984
816.9306, 377.8984
817.4127, 262.2227
817.8948, 207.2148
818.3770, 240.0234
818.8591, 267.1758
819.3412, 211.9336
819.8233, 99.22266
820.3054, 9.605469
820.7875, 53.73047
821.2697, 116.2578
821.7518, 189.6641
822.2339, 248.3359
822.7160, 275.5742
823.1981, 278.8750
823.6802, 264.1836
824.1624, 224.5234
824.6445, 200.2305
825.1266, 187.6484
825.6087, 203.5625
826.0908, 292.4648
826.5729, 398.1602
827.0551, 434.7344
827.5372, 394.9258
828.0193, 349.3438
828.5014, 342.5898
828.9835, 368.7734
829.4656, 437.0781
829.9478, 533.8164
830.4299, 589.5977
830.9120, 591.6680
831.3941, 577.2266
831.8762, 572.5625
832.3583, 568.4414
832.8404, 538.0586
833.3225, 465.3242
833.8046, 413.3242
834.2867, 390.2305
834.7689, 377.5586
835.2510, 411.0820
835.7331, 426.2617
836.2152, 320.8828
836.6973, 90.15625
837.1794, 86.45312
837.6616, 133.3281
838.1437, 129.1133
838.6258, 69.50391
839.1079, 16.42188
839.5900, 78.76562
840.0721, 242.5352
840.5543, 381.8086
841.0364, 415.8125
841.5185, 389.9023
842.0006, 355.9531
842.4827, 323.5703
842.9648, 373.3398
843.4470, 520.0117
843.9291, 649.5195
844.4112, 691.9336
844.8933, 716.5898
845.3754, 854.6328
845.8575, 1143.195
846.3397, 1308.508
846.8218, 1220.016
847.3039, 1185.008
847.7860, 1294.168
848.2681, 1452.250
848.7502, 1593.336
849.2324, 1712.504
849.7145, 1817.031
850.1966, 1909.480
850.6787, 1987.133
851.1608, 2038.406
851.6429, 2081.012
852.1251, 2117.398
852.6072, 2163.801
853.0893, 2271.617
853.5714, 2461.008
854.0535, 2659.570
854.5356, 2762.824
855.0178, 2796.838
855.4999, 2893.020
855.9820, 3053.834
856.4641, 3173.930
856.9462, 3214.385
857.4283, 3233.801
857.9105, 3284.340
858.3926, 3365.895
858.8747, 3477.766
859.3568, 3647.059
859.8389, 3799.494
860.3210, 3959.922
860.8032, 4073.805
861.2853, 4052.344
861.7674, 3988.990
862.2495, 4073.494
862.7316, 4363.803
863.2137, 4548.611
863.6959, 4369.793
864.1780, 4161.938
864.6601, 4175.037
865.1422, 4340.879
865.6243, 4554.137
866.1064, 4782.188
866.5886, 5015.926
867.0707, 5259.193
867.5528, 5475.129
868.0349, 5560.730
868.5170, 5545.180
868.9991, 5629.857
869.4813, 5843.020
869.9634, 6044.168
870.4455, 6159.766
870.9276, 6215.072
871.4097, 6249.789
871.8918, 6256.234
872.3740, 6298.045
872.8561, 6385.777
873.3382, 6494.299
873.8203, 6610.834
874.3024, 6753.096
874.7845, 6970.371
875.2667, 7233.674
875.7488, 7410.924
876.2309, 7435.932
876.7130, 7442.102
877.1951, 7466.529
877.6772, 7498.172
878.1594, 7490.803
878.6415, 7488.527
879.1236, 7621.750
879.6057, 7920.504
880.0878, 8181.771
880.5699, 8167.199
881.0521, 8022.020
881.5342, 8031.500
882.0163, 8151.564
882.4984, 8161.938
882.9805, 8021.164
883.4626, 7929.004
883.9448, 8055.062
884.4269, 8314.213
884.9090, 8445.645
885.3911, 8430.588
885.8732, 8441.566
886.3553, 8505.152
886.8375, 8532.582
887.3196, 8467.465
887.8017, 8355.271
888.2838, 8266.562
888.7659, 8205.629
889.2480, 8154.428
889.7302, 8079.895
890.2123, 8045.312
890.6944, 8128.283
891.1765, 8212.789
891.6586, 8192.818
892.1407, 8090.426
892.6229, 7985.682
893.1050, 7898.051
893.5871, 7832.699
894.0692, 7825.748
894.5513, 7838.496
895.0334, 7813.695
895.5156, 7753.570
895.9977, 7678.582
896.4798, 7598.973
896.9619, 7538.771
897.4440, 7544.227
897.9261, 7563.096
898.4083, 7418.734
898.8904, 7125.055
899.3725, 6936.711
899.8546, 6901.029
900.3367, 6850.410
900.8188, 6680.988
901.3010, 6464.238
901.7831, 6343.031
902.2652, 6339.027
902.7473, 6231.805
903.2294, 5895.740
903.7115, 5688.705
904.1937, 5819.301
904.6758, 6011.371
905.1579, 6045.457
905.6400, 5946.025
906.1221, 5816.184
906.6042, 5671.738
907.0864, 5493.412
907.5685, 5233.662
908.0506, 4982.289
908.5327, 4814.809
909.0148, 4692.230
909.4969, 4527.516
909.9791, 4310.426
910.4612, 4150.154
910.9433, 4178.996
911.4254, 4240.355
911.9075, 4143.221
912.3896, 3962.270
912.8718, 3863.693
913.3539, 3850.689
913.8360, 3787.742
914.3181, 3595.771
914.8002, 3351.729
915.2823, 3167.236
915.7645, 3041.023
916.2466, 2976.844
916.7287, 2980.047
917.2108, 2920.994
917.6929, 2739.410
918.1750, 2568.996
918.6572, 2560.154
919.1393, 2669.654
919.6214, 2637.168
920.1035, 2385.236
920.5856, 2178.928
921.0677, 2027.910
921.5499, 1929.207
922.0320, 1953.861
922.5141, 1992.162
922.9962, 1863.096
923.4783, 1547.695
923.9604, 1340.662
924.4426, 1399.793
924.9247, 1417.551
925.4068, 1224.461
925.8889, 1004.467
926.3710, 932.7832
926.8531, 972.0938
927.3353, 988.2383
927.8174, 933.3066
928.2995, 878.5469
928.7816, 885.3848
929.2637, 843.8906
929.7458, 880.4941
930.2280, 829.6230
930.7101, 821.8770
931.1922, 856.7148
931.6743, 826.0918
932.1564, 626.9062
932.6385, 399.8145
933.1207, 433.1855
933.6028, 654.6895
934.0849, 754.7559
934.5670, 710.2344
935.0491, 600.2773
935.5313, 451.9277
936.0134, 305.1699
936.4955, 211.8613
936.9776, 168.1992
937.4597, 128.8789
937.9418, 91.61133
938.4240, 75.69922
938.9061, 106.2441
939.3882, 105.6777
939.8703, 24.07812
940.3524, 184.9512
940.8345, 134.1016
941.3167, 240.5527
941.7988, 399.9316
942.2809, 163.3906
942.7630, 41.42188
943.2451, 110.2891
943.7272, 112.8672
944.2094, 65.56055
944.6915, 2.306641
945.1736, 25.51562
945.6557, 202.3164
946.1378, 345.5059
946.6199, 397.5410
947.1021, 379.8008
947.5842, 264.8887
948.0663, 113.7637
948.5484, 5.443359
949.0305, 45.77930
949.5126, 71.16797
949.9948, 90.11328
950.4769, 89.37695
950.9590, 27.37305
951.4411, 48.62891
951.9232, 34.55469
952.4053, 42.28906
952.8875, 51.22852
953.3696, 53.95898
953.8517, 182.1230
954.3338, 246.6523
954.8159, 255.0215
955.2980, 232.6172
955.7802, 174.0098
956.2623, 1.136719
956.7444, 306.3457
957.2265, 499.2520
957.7086, 424.7754
958.1907, 204.2051
958.6729, 31.52148
959.1550, 95.36914
959.6371, 24.08984
960.1192, 325.7305
960.6013, 527.1895
961.0834, 420.5977
961.5656, 251.1133
962.0477, 202.8379
962.5298, 257.6816
963.0119, 360.9785
963.4940, 570.3242
963.9761, 681.9004
964.4583, 635.8887
964.9404, 571.9688
965.4225, 483.4160
965.9046, 433.3047
966.3867, 515.4570
966.8688, 702.8945
967.3510, 824.8047
967.8331, 823.3008
968.3152, 818.6055
968.7973, 859.0234
969.2794, 879.4766
969.7615, 839.4980
970.2437, 755.2852
970.7258, 622.9297
971.2079, 458.5840
971.6900, 371.2441
972.1721, 455.2930
972.6542, 569.4082
973.1364, 651.4785
973.6185, 695.6699
974.1006, 678.2832
974.5827, 621.1816
975.0648, 577.9375
975.5469, 564.3809
976.0291, 540.9707
976.5112, 446.6465
976.9933, 349.5566
977.4754, 341.9902
977.9575, 403.7422
978.4396, 509.3965
978.9218, 641.4141
979.4039, 756.2500
979.8860, 833.3926
980.3681, 858.7227
980.8502, 773.5898
981.3323, 626.9082
981.8145, 622.8652
982.2966, 742.5781
982.7787, 806.6309
983.2608, 774.2207
983.7429, 745.7344
984.2250, 793.8574
984.7072, 874.3652
985.1893, 896.9102
985.6714, 859.4609
986.1535, 796.5859
986.6356, 698.4727
987.1177, 632.8164
987.5999, 617.0195
988.0820, 649.2266
988.5641, 746.0000
989.0462, 874.2070
989.5283, 909.3711
990.0104, 794.8477
990.4926, 769.7109
990.9747, 906.5156
991.4568, 993.2070
991.9389, 899.9336
992.4210, 792.2930
992.9031, 862.6641
993.3853, 1076.910
993.8674, 1203.230
994.3495, 1212.664
994.8316, 1184.715
995.3137, 1084.379
995.7958, 990.4062
996.2780, 932.1133
996.7601, 898.1445
997.2422, 866.7305
997.7243, 840.6133
998.2064, 859.0625
998.6885, 980.1445
999.1707, 1091.691
999.6528, 1176.422
1000.135, 1215.441
1000.617, 1162.824
1001.099, 1074.945
1001.581, 1017.578
1002.063, 1007.320
1002.545, 1069.129
1003.028, 1326.695
1003.510, 1480.113
1003.992, 1255.828
1004.474, 956.5039
1004.956, 869.1641
1005.438, 937.6641
1005.920, 1014.430
1006.402, 1053.590
1006.885, 1049.734
1007.367, 952.1250
1007.849, 869.4453
1008.331, 930.7188
1008.813, 1055.223
1009.295, 1144.371
1009.777, 1190.492
1010.259, 1191.047
1010.741, 1150.242
1011.224, 1147.453
1011.706, 1298.746
1012.188, 1477.645
1012.670, 1476.117
1013.152, 1357.805
1013.634, 1226.355
1014.116, 1124.473
1014.598, 1170.465
1015.081, 1412.777
1015.563, 1666.676
1016.045, 1717.113
1016.527, 1635.379
1017.009, 1575.461
1017.491, 1543.211
1017.973, 1561.145
1018.455, 1626.707
1018.937, 1680.445
1019.420, 1690.613
1019.902, 1711.824
1020.384, 1826.543
1020.866, 2015.703
1021.348, 2194.992
1021.830, 2362.945
1022.312, 2485.895
1022.794, 2554.941
1023.276, 2684.836
1023.759, 2955.035
1024.241, 3255.434
1024.723, 3407.602
1025.205, 3421.512
1025.687, 3452.328
1026.169, 3518.383
1026.651, 3433.133
1027.133, 3135.855
1027.616, 2809.066
1028.098, 2565.578
1028.580, 2347.781
1029.062, 2038.941
1029.544, 1632.445
1030.026, 1388.965
1030.508, 1341.387
1030.990, 1345.852
1031.473, 1423.406
1031.955, 1437.668
1032.437, 1270.109
1032.919, 1022.355
1033.401, 883.1953
1033.883, 858.3203
1034.365, 889.2773
1034.847, 1029.926
1035.329, 1103.430
1035.812, 1019.801
1036.294, 959.1211
1036.776, 1071.695
1037.258, 1256.000
1037.740, 1297.039
1038.222, 1158.242
1038.704, 1124.414
1039.186, 1360.281
1039.668, 1427.008
1040.151, 1049.480
1040.633, 716.4102
1041.115, 790.0547
1041.597, 1088.270
1042.079, 1257.137
1042.561, 1270.828
1043.043, 1334.332
1043.525, 1510.852
1044.008, 1653.883
1044.490, 1765.602
1044.972, 1809.844
1045.454, 1722.133
1045.936, 1568.059
1046.418, 1449.531
1046.900, 1368.051
1047.382, 1376.738
1047.865, 1535.180
1048.347, 1707.004
1048.829, 1903.312
1049.311, 2064.523
1049.793, 2140.305
1050.275, 2161.016
1050.757, 2175.828
1051.239, 2188.785
1051.721, 2201.371
1052.203, 2234.492
1052.686, 2234.465
1053.168, 2167.516
1053.650, 2081.492
1054.132, 2016.168
1054.614, 1924.496
1055.096, 1861.062
1055.578, 1722.031
1056.060, 1609.730
1056.543, 1486.789
1057.025, 1478.227
1057.507, 1750.531
1057.989, 2008.379
1058.471, 2033.168
1058.953, 1940.629
1059.435, 1873.910
1059.917, 1852.328
1060.400, 1870.516
1060.882, 1980.543
1061.364, 2084.441
1061.846, 2086.453
1062.328, 2133.945
1062.810, 2442.375
1063.292, 2794.574
1063.774, 2793.008
1064.256, 2433.180
1064.739, 2182.277
1065.221, 2266.785
1065.703, 2396.871
1066.185, 2520.785
1066.667, 2585.738
1067.149, 2495.277
1067.631, 2364.480
1068.113, 2370.074
1068.595, 2503.109
1069.078, 2563.664
1069.560, 2444.125
1070.042, 2330.957
1070.524, 2274.707
1071.006, 2285.848
1071.488, 2441.367
1071.970, 2629.281
1072.452, 2704.445
1072.935, 2665.461
1073.417, 2601.680
1073.899, 2523.746
1074.381, 2477.684
1074.863, 2514.129
1075.345, 2560.172
1075.827, 2553.340
1076.309, 2536.086
1076.792, 2591.766
1077.274, 2690.867
1077.756, 2687.582
1078.238, 2502.852
1078.720, 2377.688
1079.202, 2477.543
1079.684, 2611.391
1080.166, 2660.102
1080.648, 2676.887
1081.130, 2719.105
1081.613, 2785.207
1082.095, 2859.633
1082.577, 2943.344
1083.059, 2986.688
1083.541, 2948.309
1084.023, 2885.117
1084.505, 2789.438
1084.987, 2720.789
1085.469, 2765.355
1085.952, 2874.457
1086.434, 2909.688
1086.916, 2837.180
1087.398, 2847.039
1087.880, 3176.270
1088.362, 3403.305
1088.844, 3262.770
1089.326, 2990.805
1089.809, 2710.711
1090.291, 2486.469
1090.773, 2411.000
1091.255, 2490.945
1091.737, 2576.113
1092.219, 2641.984
1092.701, 2661.992
1093.183, 2591.980
1093.666, 2510.055
1094.148, 2485.703
1094.630, 2476.367
1095.112, 2410.102
1095.594, 2287.191
1096.076, 2172.320
1096.558, 2077.363
1097.040, 2012.137
1097.522, 1966.777
1098.005, 1962.168
1098.487, 2038.852
1098.969, 2147.781
1099.451, 2262.719
1099.933, 2354.340
1100.415, 2340.320
1100.897, 2158.586
1101.379, 2003.934
1101.861, 1926.441
1102.344, 1881.602
1102.826, 1882.734
1103.308, 1882.480
1103.790, 1824.172
1104.272, 1729.668
1104.754, 1675.516
1105.236, 1692.492
1105.718, 1652.566
1106.201, 1508.977
1106.683, 1341.164
1107.165, 1124.031
1107.647, 935.3750
1108.129, 805.5977
1108.611, 753.4062
1109.093, 837.4375
1109.575, 1074.508
1110.057, 1228.082
1110.540, 1321.586
1111.022, 1260.043
1111.504, 835.8633
1111.986, 471.0352
1112.468, 454.7656
1112.950, 567.5156
1113.432, 487.0391
1113.914, 230.2266
1114.396, 128.6523
1114.879, 444.2266
1115.361, 458.6562
1115.843, 177.1953
1116.325, 619.9883
1116.807, 429.1680
1117.289, 85.17969
1117.771, 13.03516
1118.253, 162.9688
1118.736, 350.0273
1119.218, 596.9453
1119.700, 812.0469
1120.182, 895.5156
1120.664, 845.7891
1121.146, 583.4922
1121.628, 269.4141
1122.110, 2.203125
1122.593, 217.2812
1123.075, 403.6094
1123.557, 565.3672
1124.039, 523.0625
1124.521, 182.0859
1125.003, 3.171875
1125.485, 61.14062
1125.967, 192.1484
1126.449, 309.3359
1126.932, 421.0703
1127.414, 533.6016
1127.896, 654.2188
1128.378, 870.2344
1128.860, 1211.406
1129.342, 1367.586
1129.824, 1289.047
1130.306, 1235.023
1130.788, 1291.727
1131.271, 1437.055
1131.753, 1672.531
1132.235, 1924.016
1132.717, 1947.359
1133.199, 1771.406
1133.681, 1818.258
1134.163, 2086.461
1134.645, 2251.445
1135.128, 2238.141
1135.610, 2186.148
1136.092, 2186.602
1136.574, 2195.109
1137.056, 2118.672
1137.538, 2198.102
1138.020, 2094.453
1138.502, 2318.211
1138.984, 2473.578
1139.467, 2528.055
1139.949, 2471.641
1140.431, 2314.039
1140.913, 2232.242
1141.395, 2436.023
1141.877, 2739.609
1142.359, 2819.672
1142.841, 2775.336
1143.323, 2837.125
1143.806, 2981.375
1144.288, 3004.680
1144.770, 2859.883
1145.252, 2754.852
1145.734, 2785.805
1146.216, 2938.875
1146.698, 3357.211
1147.180, 3591.750
1147.663, 3392.133
1148.145, 2869.938
1148.627, 2356.883
1149.109, 1976.188
1149.591, 1881.141
1150.073, 2101.398
1150.555, 2272.055
1151.037, 2020.648
1151.520, 1724.117
1152.002, 1798.133
1152.484, 1990.469
1152.966, 2134.477
1153.448, 2200.352
1153.930, 2083.344
1154.412, 1807.805
1154.894, 1596.750
1155.376, 1529.789
1155.859, 1452.922
1156.341, 1232.711
1156.823, 1098.875
1157.305, 1288.180
1157.787, 1540.188
1158.269, 1593.734
1158.751, 1488.141
1159.233, 1403.734
1159.715, 1413.227
1160.198, 1364.773
1160.680, 1118.672
1161.162, 991.7344
1161.644, 1135.969
1162.126, 1309.641
1162.608, 1415.531
1163.090, 1408.617
1163.572, 1258.609
1164.055, 993.9688
1164.537, 891.5469
1165.019, 1048.523
1165.501, 1124.523
1165.983, 1044.641
1166.465, 949.2891
1166.947, 903.7969
1167.429, 832.5312
1167.911, 688.4922
1168.394, 492.4297
1168.876, 372.9688
1169.358, 312.3516
1169.840, 308.5859
1170.322, 364.4922
1170.804, 348.1172
1171.286, 246.4531
1171.768, 162.8984
1172.250, 127.2031
1172.733, 113.7969
1173.215, 61.34375
1173.697, 15.13281
1174.179, 67.48438
1174.661, 159.7031
1175.143, 202.0781
1175.625, 184.9297
1176.107, 112.2344
1176.590, 3.875000
1177.072, 0.0000000E+00
##END=



