##NAMES=Libethenite
##RRUFFID=R050613
##IDEAL CHEMISTRY=Cu^2+^_2_PO_4_(OH)
##LOCALITY=Libethen, Banskobystricky, Slovakia
##OWNER=RRUFF
##SOURCE=University of Arizona Mineral Museum
##DESCRIPTION=Dark green wedge-shaped prismatic crystals
##STATUS=The identification of this mineral has been confirmed by X-ray diffraction and chemical analysis
##URL=rruff.info/R050613
##MEASURED CHEMISTRY=(Cu_0.98_Zn_0.02_)_2_(P_1.00_O_4_)((OH)_0.94_F_0.06_)
149.9194, 0.0000000E+00
150.4015, 0.4281230
150.8836, 0.6300660
151.3657, 0.6261710
151.8479, 0.5135970
152.3300, 0.3406220
152.8121, 7.1277998E-02
153.2942, 5.9100002E-04
153.7763, 0.3271370
154.2584, 0.6591220
154.7406, 0.9464070
155.2227, 0.8729060
155.7048, 0.6906030
156.1869, 0.5105060
156.6690, 0.3331810
157.1511, 0.2113480
157.6333, 0.1828610
158.1154, 0.1874660
158.5975, 0.1289690
159.0796, 1.6798001E-02
159.5617, 0.1123090
160.0438, 0.1047380
160.5260, 0.6606410
161.0081, 1.043751
161.4902, 1.055304
161.9723, 0.8310030
162.4544, 0.5922810
162.9365, 0.3552170
163.4187, 0.1975440
163.9008, 0.2307510
164.3829, 0.4436000
164.8650, 0.6360820
165.3471, 0.6369440
165.8292, 0.4891200
166.3113, 0.4872740
166.7935, 0.8350510
167.2756, 1.214598
167.7577, 1.354794
168.2398, 1.251894
168.7219, 1.123980
169.2040, 1.175110
169.6862, 1.425409
170.1683, 1.712950
170.6504, 2.184425
171.1325, 2.567892
171.6146, 2.685646
172.0967, 2.510090
172.5789, 2.197231
173.0610, 1.860750
173.5431, 1.311754
174.0252, 1.102846
174.5073, 1.512093
174.9894, 2.071503
175.4716, 2.413862
175.9537, 2.482733
176.4358, 2.517996
176.9179, 2.586977
177.4000, 3.169062
177.8821, 3.549488
178.3643, 3.415892
178.8464, 3.121792
179.3285, 3.006315
179.8106, 3.203705
180.2927, 3.563602
180.7748, 3.682980
181.2570, 3.299511
181.7391, 3.011827
182.2212, 2.982943
182.7033, 3.067583
183.1854, 2.990112
183.6675, 2.594639
184.1497, 2.028227
184.6318, 1.762371
185.1139, 1.934914
185.5960, 2.128735
186.0781, 2.189899
186.5602, 2.169588
187.0423, 2.158648
187.5245, 2.048944
188.0066, 1.907251
188.4887, 1.927284
188.9708, 2.214386
189.4529, 2.476368
189.9350, 2.520201
190.4172, 2.345173
190.8993, 2.105310
191.3814, 1.762903
191.8635, 1.438965
192.3456, 1.350910
192.8277, 1.635986
193.3099, 1.915119
193.7920, 1.733728
194.2741, 1.015995
194.7562, 0.3863330
195.2383, 0.1194990
195.7204, 7.2622001E-02
196.2026, 0.2043080
196.6847, 0.5504210
197.1668, 0.9283500
197.6489, 1.034006
198.1310, 0.7650590
198.6131, 0.5119710
199.0953, 0.3590220
199.5774, 0.2822670
200.0595, 0.3071960
200.5416, 0.4579810
201.0237, 0.6245120
201.5058, 0.5174920
201.9880, 0.1627460
202.4701, 0.5663700
202.9522, 0.3508930
203.4343, 8.9974999E-02
203.9164, 0.3503890
204.3985, 0.2426990
204.8807, 9.4319999E-02
205.3628, 0.2425310
205.8449, 4.2986002E-02
206.3270, 0.1593690
206.8091, 0.3604970
207.2912, 0.5318720
207.7733, 0.6460490
208.2555, 0.6661590
208.7376, 0.6241590
209.2197, 0.6394390
209.7018, 0.8393000
210.1839, 0.9533310
210.6660, 0.9276660
211.1482, 0.8045010
211.6303, 0.6110250
212.1124, 0.3472100
212.5945, 7.0055000E-02
213.0766, 2.5467001E-02
213.5587, 0.4463920
214.0409, 0.8041990
214.5230, 0.9494670
215.0051, 0.9646430
215.4872, 1.021612
215.9693, 1.226086
216.4514, 1.499519
216.9336, 1.522436
217.4157, 1.130360
217.8978, 0.7723640
218.3799, 0.6137220
218.8620, 0.5907730
219.3441, 0.5326920
219.8263, 0.3351460
220.3084, 7.9429999E-02
220.7905, 9.1880001E-03
221.2726, 0.1633800
221.7547, 0.3180540
222.2368, 0.2971610
222.7190, 0.1351380
223.2011, 4.0114999E-02
223.6832, 0.2240560
224.1653, 0.3370000
224.6474, 0.2374230
225.1295, 0.1665120
225.6117, 0.5600240
226.0938, 0.7084640
226.5759, 0.6383250
227.0580, 0.5742240
227.5401, 0.6297800
228.0222, 0.7033790
228.5043, 0.6384010
228.9865, 0.3832070
229.4686, 0.1693670
229.9507, 0.2760090
230.4328, 0.6993140
230.9149, 0.9502220
231.3970, 0.6682190
231.8792, 0.3058010
232.3613, 0.3020060
232.8434, 0.7305830
233.3255, 1.198606
233.8076, 1.265713
234.2897, 0.8869880
234.7719, 0.6306060
235.2540, 0.7745740
235.7361, 0.9839020
236.2182, 1.047289
236.7003, 0.9367220
237.1824, 0.7708020
237.6646, 0.6390910
238.1467, 0.5198690
238.6288, 0.5577410
239.1109, 1.026728
239.5930, 1.481251
240.0751, 1.634127
240.5573, 1.474964
241.0394, 1.256754
241.5215, 1.327709
242.0036, 1.820999
242.4857, 2.055206
242.9678, 1.708172
243.4500, 1.323151
243.9321, 1.161648
244.4142, 1.249208
244.8963, 1.456213
245.3784, 1.666195
245.8605, 1.916471
246.3427, 2.025711
246.8248, 1.862110
247.3069, 1.678549
247.7890, 1.599432
248.2711, 1.627350
248.7532, 1.686907
249.2354, 1.694599
249.7175, 1.628044
250.1996, 1.607920
250.6817, 1.676878
251.1638, 1.749096
251.6459, 1.779732
252.1281, 1.771706
252.6102, 1.749010
253.0923, 1.726341
253.5744, 1.688469
254.0565, 1.780731
254.5386, 2.155067
255.0208, 2.495060
255.5029, 2.656605
255.9850, 2.648081
256.4671, 2.554436
256.9492, 2.438847
257.4313, 2.296762
257.9135, 2.199469
258.3956, 2.228628
258.8777, 2.216404
259.3598, 2.013315
259.8419, 1.670151
260.3240, 1.393763
260.8062, 1.392376
261.2883, 1.677479
261.7704, 1.947109
262.2525, 2.334885
262.7346, 2.564627
263.2167, 2.432667
263.6989, 2.065842
264.1810, 1.751049
264.6631, 1.681772
265.1452, 1.818323
265.6273, 1.811050
266.1094, 1.402693
266.5916, 1.154602
267.0737, 1.403511
267.5558, 1.973574
268.0379, 2.452631
268.5200, 2.620869
269.0021, 2.523808
269.4843, 2.344393
269.9664, 1.947899
270.4485, 1.643539
270.9306, 1.580114
271.4127, 1.688742
271.8948, 1.820087
272.3770, 1.932047
272.8591, 2.006380
273.3412, 1.956812
273.8233, 1.721035
274.3054, 1.536285
274.7875, 1.427298
275.2697, 1.423155
275.7518, 1.633501
276.2339, 2.150854
276.7160, 2.758606
277.1981, 2.992783
277.6802, 2.798351
278.1623, 2.640091
278.6444, 2.717798
279.1266, 2.908884
279.6087, 2.965071
280.0908, 2.798499
280.5729, 2.576015
281.0550, 2.546527
281.5371, 2.712782
282.0193, 2.844858
282.5014, 2.937473
282.9835, 2.986902
283.4656, 2.877461
283.9477, 2.549461
284.4298, 2.301701
284.9120, 2.591125
285.3941, 3.324209
285.8762, 3.793054
286.3583, 3.617586
286.8404, 3.214413
287.3225, 3.138245
287.8047, 3.475119
288.2868, 3.821618
288.7689, 3.808051
289.2510, 3.525185
289.7331, 3.300825
290.2152, 3.230007
290.6974, 3.220498
291.1795, 3.182514
291.6616, 3.113465
292.1437, 3.029168
292.6258, 2.907650
293.1079, 2.788520
293.5901, 2.754135
294.0722, 2.833171
294.5543, 2.988805
295.0364, 3.282519
295.5185, 3.708941
296.0006, 3.924400
296.4828, 3.663475
296.9649, 3.148204
297.4470, 2.785849
297.9291, 2.620116
298.4112, 2.534550
298.8933, 2.454235
299.3755, 2.384453
299.8576, 2.372382
300.3397, 2.496505
300.8218, 2.614553
301.3039, 2.521761
301.7860, 1.939615
302.2682, 2.217295
302.7503, 2.358255
303.2324, 2.369841
303.7145, 1.864547
304.1966, 2.026695
304.6787, 1.921360
305.1609, 1.805054
305.6430, 2.061138
306.1251, 1.631026
306.6072, 1.881204
307.0893, 1.859825
307.5714, 1.962729
308.0536, 1.796498
308.5357, 1.713398
309.0178, 1.899517
309.4999, 1.936566
309.9820, 1.739360
310.4641, 1.599005
310.9463, 1.877781
311.4284, 2.019836
311.9105, 2.032516
312.3926, 1.528317
312.8747, 1.691560
313.3568, 1.587320
313.8390, 1.472109
314.3211, 1.729288
314.8032, 1.300270
315.2853, 1.551543
315.7674, 1.531258
316.2495, 1.635256
316.7317, 1.272388
317.2138, 1.161653
317.6959, 1.103684
318.1780, 1.109098
318.6601, 1.138185
319.1422, 1.188386
319.6243, 1.249560
320.1064, 1.241997
320.5886, 1.103585
321.0707, 0.9266770
321.5528, 0.8522980
322.0349, 0.8923810
322.5170, 0.8687990
322.9991, 0.5952360
323.4813, 0.1802930
323.9634, 5.4412000E-02
324.4455, 8.3889998E-03
324.9276, 0.1390890
325.4097, 0.2418840
325.8918, 0.3030290
326.3740, 0.3080830
326.8561, 0.1909280
327.3382, 3.5117000E-02
327.8203, 9.6700003E-04
328.3024, 0.1278050
328.7845, 0.2309410
329.2667, 9.5242999E-02
329.7488, 0.1716190
330.2309, 0.2960750
330.7130, 0.1218870
331.1951, 0.1394310
331.6772, 0.2907810
332.1594, 0.3331610
332.6415, 0.3256880
333.1236, 0.2678620
333.6057, 0.1919900
334.0878, 0.1731180
334.5699, 0.2525100
335.0521, 0.3206950
335.5342, 0.2650890
336.0163, 0.1233030
336.4984, 8.4996998E-02
336.9805, 0.2778840
337.4626, 0.5144000
337.9448, 0.4546390
338.4269, 4.5841999E-02
338.9090, 0.2493750
339.3911, 0.1243100
339.8732, 0.2165020
340.3553, 0.3663750
340.8375, 0.2186370
341.3196, 1.8191000E-02
341.8017, 0.1374120
342.2838, 0.1489380
342.7659, 8.8861004E-02
343.2480, 0.1502560
343.7302, 0.3955900
344.2123, 0.4178400
344.6944, 0.1850700
345.1765, 3.1991001E-02
345.6586, 3.6040999E-02
346.1407, 0.1573690
346.6229, 0.3465450
347.1050, 0.6189070
347.5871, 0.8060690
348.0692, 0.7088090
348.5513, 0.4123970
349.0334, 0.2858460
349.5156, 0.5700760
349.9977, 1.041233
350.4798, 1.059732
350.9619, 0.3581580
351.4440, 0.1826400
351.9261, 0.1913720
352.4083, 0.1254320
352.8904, 0.4621340
353.3725, 0.7136750
353.8546, 0.8646390
354.3367, 0.8465490
354.8188, 0.6062090
355.3010, 0.4255330
355.7831, 0.3308440
356.2652, 0.3053830
356.7473, 0.3454170
357.2294, 0.4464760
357.7115, 0.5891740
358.1937, 0.7787530
358.6758, 1.016889
359.1579, 1.121814
359.6400, 1.001895
360.1221, 0.8527860
360.6042, 0.7183740
361.0863, 0.6279610
361.5685, 0.6514570
362.0506, 0.8387190
362.5327, 1.149691
363.0148, 1.421760
363.4969, 1.673238
363.9790, 1.866273
364.4612, 1.985800
364.9433, 2.053237
365.4254, 2.047720
365.9075, 1.970898
366.3896, 1.909169
366.8717, 2.014520
367.3539, 2.429520
367.8360, 2.686553
368.3181, 2.645194
368.8002, 2.563649
369.2823, 2.645212
369.7644, 2.877691
370.2466, 3.093906
370.7287, 3.141976
371.2108, 3.013841
371.6929, 2.841411
372.1750, 2.470728
372.6571, 2.221897
373.1393, 2.268474
373.6214, 2.490215
374.1035, 2.683934
374.5856, 2.738478
375.0677, 2.683176
375.5498, 2.603898
376.0320, 2.430493
376.5141, 2.343903
376.9962, 2.449105
377.4783, 2.587819
377.9604, 2.624685
378.4425, 2.526012
378.9247, 2.347124
379.4068, 2.130587
379.8889, 1.817960
380.3710, 1.676800
380.8531, 1.975234
381.3352, 2.203456
381.8174, 2.069379
382.2995, 1.667354
382.7816, 1.274069
383.2637, 1.099107
383.7458, 1.118002
384.2279, 1.093230
384.7101, 0.9720470
385.1922, 0.8875730
385.6743, 0.9464190
386.1564, 1.036435
386.6385, 0.9818020
387.1206, 0.6875930
387.6028, 0.3553720
388.0849, 0.4009350
388.5670, 0.9755470
389.0491, 1.301711
389.5312, 0.9020750
390.0133, 0.3954920
390.4955, 0.2053180
390.9776, 0.3510650
391.4597, 0.5388290
391.9418, 0.5019570
392.4239, 0.2934060
392.9060, 0.2448400
393.3882, 0.4689070
393.8703, 0.6920630
394.3524, 0.6909790
394.8345, 0.5605860
395.3166, 0.5067130
395.7987, 0.6665010
396.2809, 0.8894860
396.7630, 0.9560920
397.2451, 0.8810520
397.7272, 0.7688110
398.2093, 0.6168660
398.6914, 0.4748220
399.1736, 0.4388370
399.6557, 0.5568630
400.1378, 0.6183500
400.6199, 0.4064870
401.1020, 4.2560000E-02
401.5841, 0.1287720
402.0662, 4.3040002E-03
402.5483, 0.2432760
403.0305, 0.3691390
403.5126, 0.3918570
403.9947, 0.3965100
404.4768, 0.4280050
404.9589, 0.4249880
405.4410, 0.2891750
405.9232, 3.4589998E-02
406.4053, 0.1909990
406.8874, 0.3062340
407.3695, 0.3057390
407.8516, 0.1880610
408.3337, 0.2724420
408.8159, 0.5730870
409.2980, 0.3712100
409.7801, 4.8903000E-02
410.2622, 0.2007330
410.7443, 7.0993997E-02
411.2264, 0.5090340
411.7086, 0.7029300
412.1907, 0.5306620
412.6728, 0.3934850
413.1549, 0.2616770
413.6370, 0.1856670
414.1191, 0.1963820
414.6013, 0.2962240
415.0834, 0.4903230
415.5655, 0.8027560
416.0476, 1.218912
416.5297, 1.459480
417.0118, 1.411242
417.4940, 1.307784
417.9761, 1.124879
418.4582, 0.9299070
418.9403, 0.8187980
419.4224, 0.8247700
419.9045, 0.8729150
420.3867, 0.8305520
420.8688, 0.6696930
421.3509, 0.4917140
421.8330, 0.1859400
422.3151, 3.7404001E-02
422.7972, 1.2670000E-02
423.2794, 0.2730560
423.7615, 0.4870290
424.2436, 0.4011530
424.7257, 8.7402999E-02
425.2078, 6.1438002E-02
425.6899, 0.5411140
426.1721, 0.9277640
426.6542, 0.9168270
427.1363, 0.7419820
427.6184, 0.7063940
428.1005, 0.9313330
428.5826, 1.179015
429.0648, 1.093154
429.5469, 0.6665480
430.0290, 0.4224640
430.5111, 0.6082940
430.9932, 0.8653740
431.4753, 0.8351170
431.9575, 0.5560840
432.4396, 0.3463340
432.9217, 0.4180340
433.4038, 0.6344030
433.8859, 0.7541880
434.3680, 0.7552160
434.8502, 0.7609560
435.3323, 0.8459990
435.8144, 0.9956350
436.2965, 1.167275
436.7786, 1.440000
437.2607, 1.613226
437.7429, 1.564198
438.2250, 1.335591
438.7071, 0.9569480
439.1892, 0.3977070
439.6713, 9.1595002E-02
440.1534, 0.1052840
440.6356, 0.5063780
441.1177, 0.9179780
441.5998, 0.9494230
442.0819, 0.8754520
442.5640, 0.9017650
443.0461, 1.011876
443.5282, 1.052226
444.0103, 0.9023760
444.4925, 0.6167970
444.9746, 0.5025430
445.4567, 0.8074010
445.9388, 0.9757180
446.4209, 0.8325830
446.9030, 0.5865300
447.3852, 0.4587360
447.8673, 0.4876310
448.3494, 0.5722010
448.8315, 0.5733890
449.3136, 0.4654570
449.7957, 0.4034390
450.2779, 0.3291520
450.7600, 0.3606450
451.2421, 0.6825800
451.7242, 1.126149
452.2063, 1.359485
452.6884, 1.168088
453.1706, 0.7486570
453.6527, 0.5750200
454.1348, 0.7161540
454.6169, 0.8936020
455.0990, 1.077662
455.5811, 1.240279
456.0633, 1.366288
456.5454, 1.452024
457.0275, 1.487745
457.5096, 1.436901
457.9917, 1.327442
458.4738, 1.248075
458.9560, 1.187861
459.4381, 1.192910
459.9202, 1.449814
460.4023, 1.802844
460.8844, 1.909832
461.3665, 1.517018
461.8487, 1.118532
462.3308, 1.186795
462.8129, 1.603072
463.2950, 1.824222
463.7771, 1.677677
464.2592, 1.363301
464.7414, 1.188037
465.2235, 1.138894
465.7056, 1.161877
466.1877, 1.338414
466.6698, 1.502941
467.1519, 1.558792
467.6341, 1.482259
468.1162, 1.367254
468.5983, 1.286860
469.0804, 1.227065
469.5625, 1.178357
470.0446, 1.237790
470.5268, 1.180733
471.0089, 0.8535330
471.4910, 0.4813220
471.9731, 0.2804350
472.4552, 0.2853570
472.9373, 0.3932960
473.4195, 0.4974190
473.9016, 0.5954270
474.3837, 0.7173250
474.8658, 0.9568730
475.3479, 1.110990
475.8300, 1.061485
476.3122, 0.9113040
476.7943, 0.8167810
477.2764, 0.8501670
477.7585, 0.9127710
478.2406, 0.8090170
478.7227, 0.5040530
479.2049, 0.3645390
479.6870, 0.6198110
480.1691, 0.8854210
480.6512, 0.8573590
481.1333, 0.5886590
481.6154, 0.3539950
482.0976, 0.2895010
482.5797, 0.3331700
483.0618, 0.3780890
483.5439, 0.4229910
484.0260, 0.5772240
484.5081, 0.9976940
484.9902, 1.488769
485.4724, 1.616102
485.9545, 1.248011
486.4366, 0.9340270
486.9187, 0.9169310
487.4008, 1.038312
487.8829, 1.102267
488.3651, 1.075621
488.8472, 0.9886590
489.3293, 0.8504090
489.8114, 0.6611700
490.2935, 0.5842730
490.7756, 0.7505730
491.2578, 0.8567450
491.7399, 0.7556200
492.2220, 0.5676280
492.7041, 0.4725090
493.1862, 0.5256250
493.6683, 0.6135640
494.1505, 0.5565170
494.6326, 0.2962880
495.1147, 0.1230090
495.5968, 0.1038820
496.0789, 0.1096650
496.5610, 6.0343999E-02
497.0432, 6.4639999E-03
497.5253, 6.4460002E-02
498.0074, 0.3386400
498.4895, 0.6817840
498.9716, 0.7536050
499.4537, 0.5020110
499.9359, 0.3110520
500.4180, 0.3176290
500.9001, 0.3731720
501.3822, 0.3330600
501.8643, 0.2090860
502.3464, 0.1399430
502.8286, 0.2804800
503.3107, 0.4743060
503.7928, 0.4121690
504.2749, 8.5910998E-02
504.7570, 8.9992002E-02
505.2391, 0.1741940
505.7213, 0.6864450
506.2034, 0.9193770
506.6855, 0.7490980
507.1676, 0.6285770
507.6497, 0.8058390
508.1318, 1.025912
508.6140, 0.9392650
509.0961, 0.5318870
509.5782, 0.1266750
510.0603, 1.6687000E-02
510.5424, 0.1833750
511.0245, 0.2500500
511.5067, 6.7309998E-02
511.9888, 3.4708999E-02
512.4709, 5.3863999E-02
512.9530, 0.2226060
513.4351, 0.3588040
513.9172, 0.4301610
514.3994, 0.4656950
514.8815, 0.5104020
515.3636, 0.5710260
515.8457, 0.5490390
516.3278, 0.3967510
516.8099, 0.2211430
517.2921, 1.5884001E-02
517.7742, 0.1677880
518.2563, 0.2335900
518.7384, 0.1217010
519.2205, 1.9167000E-02
519.7026, 4.3499000E-02
520.1848, 0.3004690
520.6669, 2.6489001E-02
521.1490, 0.2139130
521.6311, 0.2693190
522.1132, 0.2026190
522.5953, 6.4229998E-03
523.0775, 5.7395998E-02
523.5596, 0.1323920
524.0417, 0.1724620
524.5238, 0.2228570
525.0059, 7.5802997E-02
525.4880, 9.7378001E-02
525.9702, 0.2458270
526.4523, 0.1196400
526.9344, 7.8252003E-02
527.4165, 0.3115370
527.8986, 0.3926920
528.3807, 0.2348100
528.8629, 0.3912010
529.3450, 1.3883000E-02
529.8271, 7.3274001E-02
530.3092, 0.3730340
530.7913, 0.2289270
531.2734, 0.3902930
531.7556, 0.3473710
532.2377, 0.5058300
532.7198, 0.5650920
533.2019, 0.3534470
533.6840, 0.1737660
534.1661, 0.2446240
534.6483, 0.5177480
535.1304, 0.7513950
535.6125, 0.8091970
536.0946, 0.7428610
536.5767, 0.6174600
537.0588, 0.4282830
537.5410, 0.2779610
538.0231, 0.2110110
538.5052, 0.2013080
538.9873, 0.2142440
539.4694, 0.2571700
539.9515, 0.2942710
540.4337, 0.3229800
540.9158, 0.3235710
541.3979, 0.2687230
541.8800, 0.1688690
542.3621, 7.4118003E-02
542.8442, 1.1315000E-02
543.3264, 1.5711000E-02
543.8085, 7.1959998E-03
544.2906, 0.1429900
544.7726, 0.2419170
545.2548, 0.2606780
545.7369, 0.2741740
546.2190, 0.3602650
546.7011, 0.5004330
547.1832, 0.6046740
547.6653, 0.5990810
548.1475, 0.5085560
548.6296, 0.4118290
549.1117, 0.2604060
549.5938, 0.2304390
550.0759, 0.4828780
550.5580, 0.8075320
551.0402, 1.123573
551.5223, 1.404431
552.0044, 1.470999
552.4865, 0.8939860
552.9686, 0.1493300
553.4507, 0.2930030
553.9329, 0.8717090
554.4150, 1.059603
554.8971, 1.100867
555.3792, 1.011137
555.8613, 0.3951770
556.3434, 0.7073930
556.8256, 0.6985560
557.3077, 0.8514580
557.7898, 1.044582
558.2719, 1.188034
558.7540, 1.265958
559.2361, 1.274327
559.7183, 1.205191
560.2004, 1.074596
560.6825, 0.9471850
561.1646, 0.8277470
561.6467, 0.7033300
562.1288, 0.5086200
562.6110, 0.3508060
563.0931, 0.3475120
563.5752, 0.4757750
564.0573, 0.6213300
564.5394, 0.7165320
565.0215, 0.7665390
565.5037, 0.7675170
565.9858, 0.7063670
566.4679, 0.6798560
566.9500, 0.7101560
567.4321, 0.8074020
567.9142, 1.047216
568.3964, 1.457119
568.8785, 1.643633
569.3606, 1.254629
569.8427, 0.7259930
570.3248, 0.5171020
570.8069, 0.6061120
571.2891, 0.7561450
571.7712, 0.8485990
572.2533, 0.8914970
572.7354, 0.9020020
573.2175, 0.8531310
573.6996, 0.8183920
574.1818, 0.7661120
574.6639, 0.7543000
575.1460, 0.8577240
575.6281, 1.021678
576.1102, 1.143348
576.5923, 1.172211
577.0745, 1.124996
577.5566, 0.9875860
578.0387, 0.6875840
578.5208, 0.5825380
579.0029, 0.8925470
579.4850, 1.216847
579.9672, 1.219435
580.4493, 0.9833380
580.9314, 0.7414710
581.4135, 0.5683690
581.8956, 0.4544840
582.3777, 0.3524760
582.8599, 0.2946490
583.3420, 0.2781230
583.8241, 0.3092580
584.3062, 0.3778280
584.7883, 0.4902850
585.2704, 0.6815470
585.7526, 0.7297940
586.2347, 0.4834590
586.7168, 0.2823040
587.1989, 0.2716660
587.6810, 0.3714490
588.1631, 0.3991370
588.6453, 0.2905150
589.1274, 0.1581410
589.6095, 0.1777830
590.0916, 0.3706100
590.5737, 0.5181940
591.0558, 0.6011210
591.5380, 0.6623030
592.0201, 0.7398150
592.5022, 0.8052320
592.9843, 0.8068140
593.4664, 0.7180320
593.9485, 0.6177940
594.4307, 0.5951020
594.9128, 0.6076810
595.3949, 0.5116720
595.8770, 0.2871260
596.3591, 6.1177000E-02
596.8412, 8.4307000E-02
597.3234, 0.1480560
597.8055, 0.1129680
598.2876, 4.5364000E-02
598.7697, 0.2528290
599.2518, 0.6424390
599.7339, 0.9829390
600.2161, 0.9929910
600.6982, 0.6955390
601.1803, 0.3805100
601.6624, 0.2884620
602.1445, 0.3652300
602.6266, 0.3477410
603.1088, 0.1569460
603.5909, 7.7737004E-02
604.0730, 0.3197410
604.5551, 0.6015930
605.0372, 0.7223370
605.5193, 0.6800360
606.0015, 0.5754190
606.4836, 0.3579490
606.9657, 0.1661420
607.4478, 0.2641780
607.9299, 0.5875500
608.4120, 0.7046160
608.8942, 0.3965170
609.3763, 3.0657999E-02
609.8584, 7.6177999E-02
610.3405, 0.4419330
610.8226, 0.6645970
611.3047, 0.3976760
611.7869, 0.1176670
612.2690, 0.3278130
612.7511, 0.6337980
613.2332, 0.8077830
613.7153, 0.4543600
614.1974, 0.7820060
614.6796, 0.8367380
615.1617, 0.5006430
615.6438, 0.3206620
616.1259, 0.3604440
616.6080, 0.4125210
617.0901, 0.3540410
617.5723, 0.2468710
618.0544, 0.1752770
618.5365, 0.1527900
619.0186, 0.1662450
619.5007, 0.2279740
619.9828, 0.3130110
620.4650, 0.3719560
620.9471, 0.4060320
621.4292, 0.4848160
621.9113, 0.6503280
622.3934, 0.8513400
622.8755, 0.9636730
623.3577, 0.9618860
623.8398, 0.9335600
624.3219, 0.8628760
624.8040, 0.7815830
625.2861, 0.7053320
625.7682, 0.6374790
626.2504, 0.5740390
626.7325, 0.5077020
627.2145, 0.4591590
627.6967, 0.4861640
628.1788, 0.5937470
628.6609, 0.6475110
629.1430, 0.5802050
629.6251, 0.5175890
630.1072, 0.6428840
630.5894, 0.8847290
631.0715, 0.9661250
631.5536, 0.6560410
632.0357, 0.3848570
632.5178, 0.4702450
632.9999, 0.7011980
633.4821, 0.7076830
633.9642, 0.4266600
634.4463, 0.1022550
634.9284, 4.5444999E-02
635.4105, 1.9638000E-02
635.8926, 0.1571910
636.3748, 0.6870840
636.8569, 1.040208
637.3390, 1.057792
637.8211, 0.9343670
638.3032, 0.7910870
638.7853, 0.6540100
639.2675, 0.5389350
639.7496, 0.4345410
640.2317, 0.3718910
640.7138, 0.4190850
641.1959, 0.5689190
641.6780, 0.7589850
642.1602, 1.018391
642.6423, 1.174251
643.1244, 0.9204580
643.6065, 0.1361340
644.0886, 0.2228270
644.5707, 0.1979160
645.0529, 0.5930310
645.5350, 0.6124110
646.0171, 0.4550080
646.4992, 0.4322490
646.9813, 0.6218970
647.4634, 0.8516720
647.9456, 0.9361290
648.4277, 0.8916910
648.9098, 0.8680020
649.3919, 0.8485840
649.8740, 0.8529510
650.3561, 1.007222
650.8383, 1.127133
651.3204, 0.9248000
651.8025, 0.3627570
652.2846, 1.0132000E-02
652.7667, 0.1970020
653.2488, 0.5512990
653.7310, 0.6145590
654.2131, 0.4479100
654.6952, 0.3055830
655.1773, 0.2951480
655.6594, 0.3936310
656.1415, 0.5976900
656.6237, 0.9727860
657.1058, 1.114605
657.5879, 0.6987580
658.0700, 0.4031170
658.5521, 0.5291930
659.0342, 0.8216120
659.5164, 0.9422490
659.9985, 0.8125100
660.4806, 0.6491740
660.9627, 0.6603220
661.4448, 0.7597110
661.9269, 0.6783140
662.4091, 0.4020800
662.8912, 0.3403780
663.3733, 0.6006100
663.8554, 0.9187520
664.3375, 1.097368
664.8196, 1.143968
665.3018, 0.6631490
665.7839, 0.8633340
666.2660, 0.7905790
666.7481, 0.7066180
667.2302, 1.001616
667.7123, 0.7260440
668.1945, 0.5386710
668.6766, 0.3424520
669.1587, 0.3393170
669.6408, 0.5066010
670.1229, 0.5904810
670.6050, 0.5465640
671.0872, 0.5136590
671.5693, 0.5774580
672.0514, 0.6651780
672.5335, 0.6631320
673.0156, 0.5516380
673.4977, 0.4408570
673.9799, 0.3499270
674.4620, 0.2996730
674.9441, 0.2904830
675.4262, 0.2875380
675.9083, 0.3022820
676.3904, 0.3302820
676.8726, 0.3454820
677.3547, 0.3031620
677.8368, 0.1963000
678.3189, 6.8360001E-02
678.8010, 0.1791350
679.2831, 0.3004880
679.7653, 0.1092310
680.2474, 0.2067750
680.7295, 0.4195190
681.2116, 0.4882560
681.6937, 0.5220110
682.1758, 0.5984480
682.6580, 0.6631740
683.1401, 0.6239300
683.6222, 0.4977560
684.1043, 0.3832300
684.5864, 0.3029170
685.0685, 0.2882460
685.5507, 0.4070560
686.0328, 0.7467030
686.5149, 0.8687020
686.9970, 0.4938910
687.4791, 0.2129490
687.9612, 0.2690790
688.4434, 0.4816180
688.9255, 0.6546090
689.4076, 0.7381710
689.8897, 0.7045220
690.3718, 0.1870960
690.8539, 0.5144580
691.3361, 0.7023020
691.8182, 0.7581050
692.3003, 0.2864400
692.7824, 0.4918510
693.2645, 0.4259170
693.7466, 0.3511620
694.2288, 0.6563480
694.7109, 0.2613560
695.1930, 0.5604840
695.6751, 0.5825030
696.1572, 0.7313210
696.6393, 0.6055130
697.1215, 0.8135430
697.6036, 0.7955660
698.0857, 0.6981680
698.5678, 0.6664710
699.0499, 0.6838240
699.5320, 0.7439790
700.0142, 0.8551030
700.4963, 0.7743700
700.9784, 0.3136380
701.4605, 0.2019430
701.9426, 0.3101370
702.4247, 9.4887003E-02
702.9069, 0.3708310
703.3890, 0.4887500
703.8711, 0.5011630
704.3532, 0.3644360
704.8353, 0.1663420
705.3174, 2.6387000E-02
705.7996, 0.1787030
706.2817, 0.2247060
706.7638, 7.6729000E-02
707.2459, 0.2061170
707.7280, 0.4670060
708.2101, 0.7171710
708.6923, 0.8082580
709.1743, 0.5997110
709.6564, 0.3693280
710.1385, 0.5105150
710.6207, 0.9837880
711.1028, 1.137143
711.5849, 0.5972530
712.0670, 0.1236980
712.5491, 3.7248001E-02
713.0313, 0.1506870
713.5134, 0.2928070
713.9955, 0.4108060
714.4776, 0.4601510
714.9597, 0.3860440
715.4418, 0.2613330
715.9240, 0.3169210
716.4061, 0.5844670
716.8882, 0.7383600
717.3703, 0.6446310
717.8524, 0.5392030
718.3345, 0.6934110
718.8167, 1.003629
719.2988, 1.100366
719.7809, 0.8087500
720.2630, 0.5228170
720.7451, 0.3366320
721.2272, 0.2461770
721.7094, 0.2872020
722.1915, 0.4261760
722.6736, 0.5554830
723.1557, 0.6099800
723.6378, 0.6252380
724.1199, 0.6747770
724.6021, 0.7629580
725.0842, 0.8415760
725.5663, 0.9329310
726.0484, 0.9603110
726.5305, 0.8562930
727.0126, 0.6596170
727.4948, 0.4314220
727.9769, 0.1242410
728.4590, 6.4107999E-02
728.9411, 5.7658002E-02
729.4232, 7.5271003E-02
729.9053, 0.4387250
730.3875, 0.8665510
730.8696, 0.9144740
731.3517, 0.4021720
731.8338, 0.2289760
732.3159, 0.3227660
732.7980, 0.1201900
733.2802, 0.4752920
733.7623, 0.7395830
734.2444, 0.9401120
734.7265, 1.116755
735.2086, 1.184758
735.6907, 0.9887170
736.1729, 0.5032650
736.6550, 0.1946830
737.1371, 0.3249740
737.6192, 0.5085410
738.1013, 0.4557810
738.5834, 0.2951610
739.0656, 0.3173610
739.5477, 0.5629230
740.0298, 0.7452870
740.5119, 0.5403520
740.9940, 7.5028002E-02
741.4761, 9.3854003E-02
741.9583, 8.4435001E-02
742.4404, 0.2761440
742.9225, 0.4154870
743.4046, 0.5133540
743.8867, 0.5574050
744.3688, 0.5607900
744.8510, 0.6005780
745.3331, 0.7774030
745.8152, 0.8729420
746.2973, 0.7553460
746.7794, 0.5630350
747.2615, 0.3910500
747.7437, 0.2802720
748.2258, 0.3115410
748.7079, 0.5600360
749.1900, 0.8561980
749.6721, 0.8231770
750.1542, 0.4693360
750.6364, 0.3420320
751.1185, 0.5655000
751.6006, 0.8195250
752.0827, 0.9089910
752.5648, 0.8856270
753.0469, 0.9036110
753.5291, 1.019917
754.0112, 1.025133
754.4933, 0.7640610
754.9754, 0.5096580
755.4575, 0.4318680
755.9396, 0.4817990
756.4218, 0.5807230
756.9039, 0.6958180
757.3860, 0.7586860
757.8681, 0.6222080
758.3502, 0.3761820
758.8323, 0.3910190
759.3145, 0.6634980
759.7966, 0.8440860
760.2787, 0.8039850
760.7608, 0.6858440
761.2429, 0.7272920
761.7250, 0.9601870
762.2072, 0.9613400
762.6893, 0.4221300
763.1714, 5.9905000E-02
763.6535, 0.1533760
764.1356, 0.4186640
764.6177, 0.6804010
765.0999, 0.8726870
765.5820, 0.8931790
766.0641, 0.6266550
766.5462, 0.2810050
767.0283, 0.1091710
767.5104, 8.9080997E-02
767.9926, 0.1847310
768.4747, 0.3939280
768.9568, 0.5160200
769.4389, 0.3691090
769.9210, 8.0964997E-02
770.4031, 9.2932999E-02
770.8853, 0.7097630
771.3674, 1.039121
771.8495, 0.8407680
772.3316, 0.6269940
772.8137, 0.6494090
773.2958, 0.7799750
773.7780, 0.7918990
774.2601, 0.6266140
774.7422, 0.4879080
775.2243, 0.5494240
775.7064, 0.6800500
776.1885, 0.7010470
776.6707, 0.6386560
777.1528, 0.6283950
777.6349, 0.7172560
778.1170, 0.7894290
778.5991, 0.6896040
779.0812, 0.4307410
779.5634, 0.2783500
780.0455, 0.2170630
780.5276, 0.3038780
781.0097, 0.7714670
781.4918, 1.193010
781.9739, 1.130746
782.4561, 0.7174900
782.9382, 0.5262140
783.4203, 0.8360110
783.9024, 1.166763
784.3845, 1.328421
784.8666, 1.364174
785.3488, 1.273119
785.8309, 1.098301
786.3130, 0.9682980
786.7951, 0.9700130
787.2772, 0.9914220
787.7593, 0.7770480
788.2415, 0.3368810
788.7236, 8.4421001E-02
789.2057, 7.9838999E-02
789.6878, 0.1010100
790.1699, 8.7847002E-02
790.6520, 5.6279000E-02
791.1342, 6.5155998E-02
791.6162, 0.3131160
792.0983, 0.4264480
792.5804, 0.2663030
793.0626, 0.1147340
793.5447, 0.1684770
794.0268, 0.2396830
794.5089, 2.9639000E-02
794.9910, 0.4372290
795.4731, 0.7783640
795.9553, 0.6838410
796.4374, 0.4058300
796.9195, 0.3221420
797.4016, 0.3940850
797.8837, 0.4594490
798.3658, 0.4890360
798.8480, 0.4852610
799.3301, 0.4310840
799.8122, 0.3680860
800.2943, 0.3769100
800.7764, 0.4335990
801.2585, 0.6134500
801.7407, 1.184515
802.2228, 1.587445
802.7049, 1.518659
803.1870, 1.190179
803.6691, 0.8556200
804.1512, 0.5527390
804.6334, 0.3951440
805.1155, 0.6031490
805.5976, 0.8428110
806.0797, 0.6838070
806.5618, 0.3373190
807.0439, 0.3353550
807.5261, 0.7871470
808.0082, 1.266574
808.4903, 1.370454
808.9724, 1.185649
809.4545, 1.022607
809.9366, 0.8780130
810.4188, 0.7656910
810.9009, 0.6608950
811.3830, 0.6458920
811.8651, 0.8290870
812.3472, 1.148636
812.8293, 1.391919
813.3115, 1.620538
813.7936, 1.644422
814.2757, 1.240291
814.7578, 0.8181340
815.2399, 0.5770740
815.7220, 0.5157180
816.2042, 0.6225070
816.6863, 0.8849220
817.1684, 1.205212
817.6505, 1.591360
818.1326, 1.932908
818.6147, 1.983264
819.0969, 1.784801
819.5790, 1.543025
820.0611, 1.310502
820.5432, 1.169370
821.0253, 1.215442
821.5074, 1.415587
821.9896, 1.551318
822.4717, 1.618012
822.9538, 1.632031
823.4359, 1.582625
823.9180, 1.492249
824.4001, 1.321002
824.8823, 1.132319
825.3644, 1.045051
825.8465, 1.080817
826.3286, 1.203937
826.8107, 1.527141
827.2928, 1.819347
827.7750, 1.854228
828.2571, 1.722581
828.7392, 1.595876
829.2213, 1.532574
829.7034, 1.537165
830.1855, 1.639089
830.6677, 1.793435
831.1498, 1.884213
831.6319, 1.910806
832.1140, 1.826740
832.5961, 1.581566
833.0782, 1.412325
833.5604, 1.552515
834.0425, 1.907216
834.5246, 2.071389
835.0067, 1.958803
835.4888, 1.795211
835.9709, 1.429738
836.4531, 1.182627
836.9352, 1.309335
837.4173, 1.590425
837.8994, 1.681815
838.3815, 1.516645
838.8636, 1.367135
839.3458, 1.426545
839.8279, 1.513459
840.3100, 1.414063
840.7921, 1.224471
841.2742, 1.151098
841.7563, 1.227052
842.2385, 1.335095
842.7206, 1.389928
843.2027, 1.153829
843.6848, 1.451858
844.1669, 1.610440
844.6490, 1.637069
845.1312, 1.136345
845.6133, 1.316688
846.0954, 1.224137
846.5775, 1.120433
847.0596, 1.396735
847.5417, 0.9729750
848.0239, 1.243484
848.5060, 1.264439
848.9881, 1.429405
849.4702, 1.834069
849.9523, 2.214829
850.4344, 2.279781
850.9166, 2.039017
851.3987, 1.720747
851.8808, 1.281200
852.3629, 0.9869840
852.8450, 1.172721
853.3271, 1.552540
853.8093, 1.634220
854.2914, 1.416012
854.7735, 1.201315
855.2556, 1.159691
855.7377, 1.243724
856.2198, 1.381250
856.7020, 1.577462
857.1841, 1.642865
857.6662, 1.541347
858.1483, 1.494115
858.6304, 1.600672
859.1125, 1.766199
859.5947, 1.906401
860.0768, 2.021380
860.5589, 1.989137
861.0410, 1.684200
861.5231, 1.419570
862.0052, 1.202164
862.4874, 1.059083
862.9695, 1.064898
863.4516, 1.144534
863.9337, 1.122839
864.4158, 0.9169350
864.8979, 0.7572830
865.3801, 0.8354650
865.8622, 0.9929830
866.3443, 1.066248
866.8264, 1.087053
867.3085, 1.171789
867.7906, 1.341906
868.2728, 1.475653
868.7549, 1.457968
869.2370, 1.320334
869.7191, 1.100589
870.2012, 0.8012330
870.6833, 0.6689060
871.1655, 0.7472570
871.6476, 1.008245
872.1297, 1.517763
872.6118, 2.099767
873.0939, 2.291658
873.5760, 1.931687
874.0581, 1.660623
874.5402, 1.540445
875.0223, 1.438772
875.5045, 1.279374
875.9866, 1.149782
876.4687, 1.148285
876.9508, 1.270711
877.4329, 1.424035
877.9150, 1.685645
878.3972, 1.839226
878.8793, 1.707005
879.3614, 1.443077
879.8435, 1.157910
880.3256, 0.9139340
880.8077, 0.7580920
881.2899, 0.7109100
881.7720, 0.7718180
882.2541, 1.021935
882.7362, 1.346229
883.2183, 1.320666
883.7004, 0.9776090
884.1826, 0.6994450
884.6647, 0.6032260
885.1468, 0.6284810
885.6289, 0.7610880
886.1110, 0.9635950
886.5931, 1.063734
887.0753, 1.089471
887.5574, 1.084879
888.0395, 1.028414
888.5216, 0.9801190
889.0037, 1.003011
889.4858, 1.041451
889.9680, 0.9862270
890.4501, 0.8110010
890.9322, 0.6980420
891.4143, 0.6732900
891.8964, 0.7146350
892.3785, 0.9447860
892.8607, 1.145557
893.3428, 1.008770
893.8249, 0.6077880
894.3070, 0.3355710
894.7891, 0.4164910
895.2712, 0.5504330
895.7534, 0.4520100
896.2355, 0.2421920
896.7176, 6.9900997E-02
897.1997, 3.4189999E-02
897.6818, 2.9910000E-03
898.1639, 0.1830750
898.6461, 0.3919280
899.1282, 0.4792930
899.6103, 0.4607630
900.0924, 0.3818650
900.5745, 0.2377400
901.0566, 0.1353400
901.5388, 7.9044998E-02
902.0209, 0.1530870
902.5030, 0.4802670
902.9851, 0.9221930
903.4672, 1.074479
903.9493, 0.8098100
904.4315, 0.6158080
904.9136, 0.5581800
905.3957, 0.4866100
905.8778, 0.3328910
906.3599, 0.1612200
906.8420, 3.8438998E-02
907.3242, 3.7227001E-02
907.8063, 0.1169450
908.2884, 0.3387030
908.7705, 0.3944600
909.2526, 5.6146000E-02
909.7347, 0.5349710
910.2169, 0.5684210
910.6990, 0.2939240
911.1811, 9.3824998E-02
911.6632, 9.7202003E-02
912.1453, 0.1317160
912.6274, 2.4366001E-02
913.1096, 0.1856420
913.5917, 2.1400999E-02
914.0738, 0.4516620
914.5559, 0.6498630
915.0380, 0.5433730
915.5201, 0.4397760
916.0023, 0.5738810
916.4844, 0.7877820
916.9665, 0.6984170
917.4486, 0.3091230
917.9307, 5.1142000E-02
918.4128, 5.1475000E-02
918.8950, 3.5199001E-02
919.3771, 0.1321330
919.8592, 0.3037300
920.3413, 0.2807880
920.8234, 6.9282003E-02
921.3055, 5.4037001E-02
921.7877, 5.6961000E-02
922.2698, 2.8975001E-02
922.7519, 5.5730000E-02
923.2340, 2.7259000E-02
923.7161, 0.4939360
924.1982, 1.064576
924.6804, 1.186811
925.1625, 0.7245090
925.6446, 0.3670700
926.1267, 0.3356520
926.6088, 0.3874190
927.0909, 0.4335200
927.5731, 0.4766590
928.0552, 0.5520050
928.5373, 0.6365030
929.0194, 0.6263150
929.5015, 0.4343580
929.9836, 0.2828870
930.4658, 0.4411690
930.9479, 0.7060970
931.4300, 0.7677500
931.9121, 0.6730760
932.3942, 0.6418260
932.8763, 0.7306150
933.3585, 0.7667680
933.8406, 0.5674110
934.3227, 0.2379430
934.8048, 3.9836001E-02
935.2869, 3.9742000E-02
935.7690, 0.1484690
936.2512, 0.3121970
936.7333, 0.3135950
937.2154, 6.1169998E-03
937.6975, 0.4011500
938.1796, 0.4279170
938.6617, 6.0649998E-02
939.1439, 7.2575003E-02
939.6260, 0.1125690
940.1081, 0.3068310
940.5902, 0.4877980
941.0723, 0.5960340
941.5544, 0.5909720
942.0366, 0.4767450
942.5187, 0.2279090
943.0008, 0.3825300
943.4829, 0.5779300
943.9650, 0.1357040
944.4471, 0.7107440
944.9293, 0.5541430
945.4114, 0.2041980
945.8935, 0.3019320
946.3756, 0.8057350
946.8577, 1.130147
947.3398, 1.015504
947.8220, 0.8346370
948.3041, 0.7783650
948.7862, 0.7224880
949.2683, 0.4736600
949.7504, 0.1631650
950.2325, 9.4561003E-02
950.7147, 0.3271540
951.1968, 0.5574600
951.6789, 0.5521220
952.1610, 0.4368490
952.6431, 0.2608550
953.1252, 0.1300600
953.6074, 0.3469440
954.0895, 0.8748140
954.5716, 1.374514
955.0537, 1.676152
955.5358, 1.780300
956.0179, 1.581959
956.5000, 1.182775
956.9821, 1.070367
957.4642, 1.235209
957.9464, 1.485584
958.4285, 1.790700
958.9106, 1.985593
959.3927, 1.909043
959.8748, 1.713490
960.3569, 1.847898
960.8391, 2.420061
961.3212, 2.706812
961.8033, 2.602712
962.2854, 2.518080
962.7675, 2.633156
963.2496, 2.757932
963.7318, 2.668704
964.2139, 2.405365
964.6960, 2.268564
965.1781, 2.280824
965.6602, 2.375070
966.1423, 2.630501
966.6245, 2.862071
967.1066, 3.062338
967.5887, 3.174791
968.0708, 3.135617
968.5529, 2.950274
969.0350, 2.779404
969.5172, 2.602097
969.9993, 2.516891
970.4814, 2.657597
970.9635, 2.794771
971.4456, 2.740003
971.9277, 2.574184
972.4099, 2.504128
972.8920, 2.579476
973.3741, 2.631814
973.8562, 2.527220
974.3383, 2.405899
974.8204, 2.424994
975.3026, 2.468553
975.7847, 2.362217
976.2668, 2.116378
976.7489, 1.831862
977.2310, 1.552046
977.7131, 1.370584
978.1953, 1.454831
978.6774, 1.661996
979.1595, 1.804639
979.6416, 1.853623
980.1237, 1.660176
980.6058, 1.229439
981.0880, 0.8230880
981.5701, 0.5944250
982.0522, 0.5356800
982.5343, 0.7154450
983.0164, 1.072349
983.4985, 1.256429
983.9807, 1.264140
984.4628, 1.236060
984.9449, 1.208281
985.4270, 1.235073
985.9091, 1.383214
986.3912, 1.579588
986.8734, 1.606273
987.3555, 1.454279
987.8376, 1.142844
988.3197, 0.5618190
988.8018, 0.3095080
989.2839, 0.7526510
989.7661, 1.291266
990.2482, 1.207742
990.7303, 0.6270490
991.2124, 0.5041630
991.6945, 1.209127
992.1766, 1.478031
992.6588, 0.8794780
993.1409, 0.4057960
993.6230, 0.6043570
994.1051, 1.062943
994.5872, 1.303396
995.0693, 1.346791
995.5515, 1.263703
996.0336, 0.7957530
996.5157, 0.5763290
996.9978, 0.9532350
997.4799, 1.300811
997.9620, 1.102820
998.4442, 0.7329240
998.9263, 0.8364600
999.4084, 1.474198
999.8905, 1.883142
1000.373, 1.811596
1000.855, 0.9836670
1001.337, 1.216432
1001.819, 1.349425
1002.301, 1.350412
1002.783, 0.8240250
1003.265, 0.9786650
1003.747, 0.8630930
1004.230, 0.7335450
1004.712, 1.414355
1005.194, 1.490450
1005.676, 1.363348
1006.158, 1.187361
1006.640, 1.111526
1007.122, 1.150926
1007.604, 1.316749
1008.086, 1.611869
1008.569, 1.856248
1009.051, 1.902602
1009.533, 1.834839
1010.015, 1.647270
1010.497, 1.455926
1010.979, 1.537046
1011.461, 1.828330
1011.943, 1.982180
1012.426, 1.809520
1012.908, 1.524883
1013.390, 1.414536
1013.872, 1.382532
1014.354, 1.215619
1014.836, 0.9796270
1015.318, 0.9034950
1015.800, 0.9951110
1016.282, 1.019095
1016.765, 0.8361820
1017.247, 0.6292810
1017.729, 0.6830030
1018.211, 0.9223850
1018.693, 1.115825
1019.175, 1.253016
1019.657, 1.257507
1020.139, 1.118242
1020.622, 0.9562020
1021.104, 0.8498110
1021.586, 0.7714040
1022.068, 0.6560080
1022.550, 0.5137620
1023.032, 0.4577740
1023.514, 0.4887190
1023.996, 0.6069470
1024.478, 0.8302880
1024.961, 0.9461210
1025.443, 0.7810800
1025.925, 0.4657040
1026.407, 0.2686680
1026.889, 0.1882720
1027.371, 0.3403200
1027.853, 0.8102670
1028.335, 0.9871600
1028.818, 0.6454000
1029.300, 0.2062710
1029.782, 2.5115000E-02
1030.264, 8.6772002E-02
1030.746, 7.2319999E-02
1031.228, 1.3789000E-02
1031.710, 0.2311670
1032.192, 0.7085440
1032.674, 0.9151720
1033.156, 0.5880430
1033.639, 0.1898320
1034.121, 9.6235000E-02
1034.603, 0.2081230
1035.085, 0.2333570
1035.567, 0.1343480
1036.049, 8.5910998E-02
1036.531, 5.5075001E-02
1037.013, 0.1529370
1037.496, 0.5638130
1037.978, 0.9078690
1038.460, 0.8002550
1038.942, 0.4049510
1039.424, 0.2404210
1039.906, 0.3972510
1040.388, 0.5120330
1040.870, 0.5078880
1041.353, 0.5728440
1041.835, 0.8737850
1042.317, 1.148276
1042.799, 1.182338
1043.281, 1.030281
1043.763, 0.8299480
1044.245, 0.5215900
1044.727, 0.3530270
1045.209, 0.4197290
1045.692, 0.5136090
1046.174, 0.6479560
1046.656, 0.7281140
1047.138, 0.6497730
1047.620, 0.4621540
1048.102, 0.2916150
1048.584, 0.1340400
1049.066, 4.9438000E-02
1049.548, 6.7267999E-02
1050.031, 0.1316880
1050.513, 0.2457590
1050.995, 0.3859630
1051.477, 0.6129700
1051.959, 0.8451440
1052.441, 0.8548170
1052.923, 0.5571730
1053.405, 0.3096930
1053.888, 0.1190090
1054.370, 7.2371997E-02
1054.852, 0.3785010
1055.334, 0.7050450
1055.816, 0.6372180
1056.298, 0.3563160
1056.780, 0.2969220
1057.262, 0.5716590
1057.745, 0.7740550
1058.227, 0.7384240
1058.709, 0.6959920
1059.191, 0.8166330
1059.673, 0.8891430
1060.155, 0.6083300
1060.637, 0.1543680
1061.119, 5.7792999E-02
1061.601, 6.4273998E-02
1062.083, 0.2307550
1062.566, 0.4165430
1063.048, 0.5314670
1063.530, 0.4448470
1064.012, 0.3529090
1064.494, 0.4567110
1064.976, 0.6754730
1065.458, 0.8134290
1065.940, 0.8323080
1066.423, 0.8950440
1066.905, 1.235820
1067.387, 1.411716
1067.869, 1.131984
1068.351, 0.6841450
1068.833, 0.1420170
1069.315, 0.3145740
1069.797, 0.3581880
1070.280, 4.7162998E-02
1070.762, 0.4327600
1071.244, 0.6924690
1071.726, 0.7760950
1072.208, 0.5123650
1072.690, 0.2063630
1073.172, 9.5953003E-02
1073.654, 0.1236810
1074.136, 0.1746440
1074.619, 0.2246630
1075.101, 0.2791060
1075.583, 0.3287070
1076.065, 0.4029740
1076.547, 0.5792970
1077.029, 0.7217350
1077.511, 0.7218130
1077.993, 0.6187470
1078.475, 0.4064520
1078.958, 0.1397520
1079.440, 9.2243001E-02
1079.922, 0.5076630
1080.404, 0.8321900
1080.886, 0.7353920
1081.368, 0.5257300
1081.850, 0.2920790
1082.332, 0.1608940
1082.814, 0.4435850
1083.297, 1.018682
1083.779, 1.259036
1084.261, 0.8570370
1084.743, 0.4426430
1085.225, 0.2218000
1085.707, 0.1601360
1086.189, 0.4188940
1086.671, 0.7023460
1087.154, 0.5619370
1087.636, 0.1392200
1088.118, 3.5618000E-02
1088.600, 0.4977330
1089.082, 0.8645400
1089.564, 0.7941140
1090.046, 0.6351910
1090.528, 0.5250300
1091.010, 0.4688930
1091.493, 0.5165280
1091.975, 0.6048440
1092.457, 0.5757260
1092.939, 0.3838480
1093.421, 0.2169590
1093.903, 7.4180998E-02
1094.385, 6.3024998E-02
1094.867, 0.3707970
1095.349, 0.6978550
1095.832, 0.7995830
1096.314, 0.7288190
1096.796, 0.5664510
1097.278, 0.3334050
1097.760, 0.2569800
1098.242, 0.5915440
1098.724, 0.8328020
1099.206, 0.7043610
1099.689, 0.5444370
1100.171, 0.5891430
1100.653, 0.7483510
1101.135, 0.9257580
1101.617, 1.087728
1102.099, 1.073703
1102.581, 0.6669530
1103.063, 0.3908610
1103.546, 0.4866540
1104.028, 0.6018840
1104.510, 0.4759650
1104.992, 0.3269030
1105.474, 0.5003370
1105.956, 0.9026470
1106.438, 1.015474
1106.920, 0.6279130
1107.402, 0.2913510
1107.885, 0.1266460
1108.367, 1.9820999E-02
1108.849, 0.3390470
1109.331, 0.5464590
1109.813, 0.2965640
1110.295, 0.2509090
1110.777, 0.6744970
1111.259, 0.9894620
1111.741, 0.9970710
1112.224, 0.1701530
1112.706, 0.2404230
1113.188, 0.5058440
1113.670, 1.247694
1114.152, 1.167219
1114.634, 0.6215130
1115.116, 0.1823760
1115.598, 0.1720770
1116.081, 0.2120890
1116.563, 0.3195460
1117.045, 0.7298970
1117.527, 0.9724420
1118.009, 1.055685
1118.491, 0.8738300
1118.973, 0.6381120
1119.455, 0.6599140
1119.938, 0.8967580
1120.420, 0.9236780
1120.902, 0.5658140
1121.384, 0.4120740
1121.866, 0.5832080
1122.348, 0.7324390
1122.830, 0.7501380
1123.312, 0.6859150
1123.794, 0.5516340
1124.276, 0.3968320
1124.759, 0.3970230
1125.241, 0.6019380
1125.723, 0.6711230
1126.205, 0.5768640
1126.687, 0.4388750
1127.169, 0.2318790
1127.651, 0.1006590
1128.133, 0.1730160
1128.616, 0.3361350
1129.098, 0.4294790
1129.580, 0.4564380
1130.062, 0.4656790
1130.544, 0.4485840
1131.026, 0.5637910
1131.508, 0.8616500
1131.990, 0.9612720
1132.473, 0.6555700
1132.955, 0.2770040
1133.437, 0.2228210
1133.919, 0.4004930
1134.401, 0.5166960
1134.883, 0.5724510
1135.365, 0.5331080
1135.847, 0.4086040
1136.329, 0.4336270
1136.812, 0.6759130
1137.294, 0.8549280
1137.776, 0.7433620
1138.258, 0.4772240
1138.740, 0.1839890
1139.222, 3.8741998E-02
1139.704, 0.3287750
1140.186, 1.080131
1140.668, 1.252722
1141.151, 0.7566750
1141.633, 0.2312630
1142.115, 1.0140000E-03
1142.597, 3.5720000E-03
1143.079, 0.2805500
1143.561, 0.6323180
1144.043, 0.6528500
1144.525, 0.4808730
1145.008, 0.3519640
1145.490, 0.3048810
1145.972, 0.3658610
1146.454, 0.5309310
1146.936, 0.6968820
1147.418, 0.7999690
1147.900, 0.8619550
1148.382, 0.9478280
1148.865, 0.9672290
1149.347, 0.7460590
1149.829, 0.4119110
1150.311, 0.1680470
1150.793, 4.7772001E-02
1151.275, 3.7370001E-03
1151.757, 2.0579999E-02
1152.239, 9.3626998E-02
1152.721, 0.6086850
1153.203, 1.019671
1153.686, 0.9150670
1154.168, 0.6084020
1154.650, 0.3182950
1155.132, 0.1332830
1155.614, 0.2286830
1156.096, 0.6399040
1156.578, 0.8701950
1157.060, 0.6108240
1157.543, 0.3939620
1158.025, 0.3934700
1158.507, 0.4450220
1158.989, 0.4954970
1159.471, 0.5140560
1159.953, 0.3913300
1160.435, 0.1772070
1160.917, 0.2439700
1161.400, 0.8953230
1161.882, 1.213960
1162.364, 0.9284350
1162.846, 0.7206680
1163.328, 0.8584090
1163.810, 0.9921470
1164.292, 0.7783920
1164.774, 0.4584520
1165.256, 0.5941080
1165.739, 1.230528
1166.221, 1.486511
1166.703, 1.270820
1167.185, 0.9113520
1167.667, 0.3965540
1168.149, 6.7268997E-02
1168.631, 5.4230999E-02
1169.113, 0.2843630
1169.595, 0.7366180
1170.078, 1.276181
1170.560, 1.393101
1171.042, 1.135087
1171.524, 0.7389960
1172.006, 0.2266220
1172.488, 5.1114999E-02
1172.970, 7.1029998E-03
1173.452, 0.2149020
1173.934, 0.5643380
1174.417, 0.8625130
1174.899, 0.7197860
1175.381, 0.3314500
1175.863, 0.2601070
1176.345, 0.3809220
1176.827, 0.2576540
1177.309, 6.2788002E-02
1177.791, 0.1262010
1178.274, 0.1950520
1178.756, 0.5135710
1179.238, 0.5036450
1179.720, 0.4553180
1180.202, 0.7675740
1180.684, 1.156085
1181.166, 1.270512
1181.648, 1.183229
1182.130, 1.017903
1182.613, 0.8149100
1183.095, 0.5709070
1183.577, 0.2655720
1184.059, 9.9278003E-02
1184.541, 0.2692270
1185.023, 0.4887000
1185.505, 0.6267370
1185.987, 0.7258740
1186.469, 0.8667080
1186.952, 0.9749080
1187.434, 0.8853060
1187.916, 0.6009500
1188.398, 0.3985710
1188.880, 0.3224660
1189.362, 0.3255020
1189.844, 0.5315230
1190.326, 0.6419380
1190.809, 0.3868990
1191.291, 0.1994800
1191.773, 0.5762560
1192.255, 1.189267
1192.737, 1.205560
1193.219, 0.5430330
1193.701, 0.2097540
1194.183, 0.2991140
1194.666, 0.3645690
1195.148, 0.3325980
1195.630, 0.3493800
1196.112, 0.5058780
1196.594, 0.6107980
1197.076, 0.4076250
1197.558, 9.0527996E-02
1198.040, 0.2929290
1198.522, 0.9155390
1199.005, 1.024827
1199.487, 0.6614210
1199.969, 0.4331530
1200.451, 0.4617240
1200.933, 0.4751940
1201.415, 0.3161540
1201.897, 0.2246880
1202.379, 0.5330900
1202.861, 0.9096690
1203.344, 0.6774640
1203.826, 0.2180280
1204.308, 0.2988030
1204.790, 0.7120250
1205.272, 0.7310250
1205.754, 0.2842900
1206.236, 2.8475000E-02
1206.718, 0.3503910
1207.201, 0.6682360
1207.683, 0.5806080
1208.165, 0.4183940
1208.647, 0.3807520
1209.129, 0.4002120
1209.611, 0.3831210
1210.093, 0.3746870
1210.575, 0.5069790
1211.057, 0.8001830
1211.540, 0.9693610
1212.022, 0.9589600
1212.504, 0.8525440
1212.986, 0.4453170
1213.468, 0.2140700
1213.950, 0.4183650
1214.432, 0.7554870
1214.914, 1.002173
1215.396, 1.140791
1215.879, 1.110054
1216.361, 0.8977200
1216.843, 0.6470080
1217.325, 0.3194630
1217.807, 0.2475220
1218.289, 0.5046140
1218.771, 0.8219060
1219.253, 1.096103
1219.736, 1.156441
1220.218, 0.7756820
1220.700, 0.2055790
1221.182, 2.3266001E-02
1221.664, 2.5122000E-02
1222.146, 0.2161690
1222.628, 0.4828480
1223.110, 0.6255160
1223.593, 0.6312730
1224.075, 0.6205050
1224.557, 0.6474650
1225.039, 0.7108290
1225.521, 0.8568110
1226.003, 0.9760110
1226.485, 0.9944250
1226.967, 0.9159840
1227.449, 0.5761710
1227.932, 0.2370580
1228.414, 0.4226170
1228.896, 1.028748
1229.378, 1.329082
1229.860, 1.073449
1230.342, 0.7724700
1230.824, 0.3744980
1231.306, 0.1657180
1231.788, 0.4102480
1232.271, 0.6495890
1232.753, 0.6303250
1233.235, 0.4894430
1233.717, 0.4000810
1234.199, 0.3652170
1234.681, 0.4205820
1235.163, 0.6062070
1235.645, 0.6945610
1236.128, 0.6832610
1236.610, 0.5442880
1237.092, 0.2540970
1237.574, 6.8120002E-03
1238.056, 8.1836998E-02
1238.538, 7.4859999E-02
1239.020, 6.7721002E-02
1239.502, 1.1032000E-02
1239.984, 0.2922950
1240.467, 0.7294200
1240.949, 0.9700920
1241.431, 1.042260
1241.913, 1.124846
1242.395, 1.244745
1242.877, 1.289264
1243.359, 1.192405
1243.841, 1.109655
1244.323, 1.305144
1244.806, 1.377237
1245.288, 0.7279220
1245.770, 9.9684000E-02
1246.252, 0.3169030
1246.734, 0.9816730
1247.216, 1.463251
1247.698, 1.686440
1248.180, 1.738638
1248.662, 1.532828
1249.145, 1.405381
1249.627, 1.558258
1250.109, 1.468516
1250.591, 0.8461190
1251.073, 0.2895970
1251.555, 0.1262290
1252.037, 0.2485580
1252.519, 0.5639010
1253.002, 0.9918560
1253.484, 1.127975
1253.966, 0.9774130
1254.448, 0.8586640
1254.930, 0.7919240
1255.412, 0.8996850
1255.894, 1.183786
1256.376, 1.394696
1256.859, 1.398268
1257.341, 1.266583
1257.823, 1.062839
1258.305, 0.7809670
1258.787, 0.2165840
1259.269, 0.2705800
1259.751, 5.6577001E-02
1260.233, 0.5305060
1260.715, 0.8977450
1261.198, 0.9918760
1261.680, 1.065014
1262.162, 1.205113
1262.644, 1.171516
1263.126, 0.7727240
1263.608, 0.4565420
1264.090, 0.2883100
1264.572, 0.2834230
1265.054, 0.5568480
1265.537, 0.8921760
1266.019, 1.112063
1266.501, 1.183577
1266.983, 0.9482200
1267.465, 0.3481400
1267.947, 0.1160830
1268.429, 0.2936090
1268.911, 0.3156620
1269.394, 9.1959998E-02
1269.876, 4.2966001E-02
1270.358, 4.7068000E-02
1270.840, 0.3420380
1271.322, 0.8858790
1271.804, 1.375680
1272.286, 1.212901
1272.768, 0.7833520
1273.250, 0.6242560
1273.733, 0.8085050
1274.215, 1.035069
1274.697, 1.190085
1275.179, 1.031487
1275.661, 0.5360570
1276.143, 0.1733110
1276.625, 0.1865260
1277.107, 0.2377750
1277.589, 0.1743820
1278.072, 0.1706280
1278.554, 0.3254610
1279.036, 0.5538120
1279.518, 0.6551550
1280.000, 0.6693080
1280.482, 0.6476430
1280.964, 0.5906610
1281.446, 0.5283550
1281.929, 0.4406640
1282.411, 0.5975960
1282.893, 1.050341
1283.375, 1.101506
1283.857, 0.5871190
1284.339, 0.1018390
1284.821, 6.9439998E-03
1285.303, 7.2405003E-02
1285.786, 5.1785000E-02
1286.268, 0.0000000E+00
##END=



