##NAMES=Libethenite
##RRUFFID=R050147
##IDEAL CHEMISTRY=Cu^2+^_2_PO_4_(OH)
##LOCALITY=Los Azules mine, Copiapo, Chile
##OWNER=RRUFF
##SOURCE=Jim McGlasson
##DESCRIPTION=Dark green prismatic crystals, associated with smaller lighter green pseudomalachite
##STATUS=The identification of this mineral is confirmed by single-crystal X-ray diffraction and chemical analysis.
##URL=rruff.info/R050147
##MEASURED CHEMISTRY=Cu_2.00_(P_1.00_O_4_)((OH)_0.89_F_0.11_)_Î£=1_
140.2321, 0.0000000E+00
140.7142, 0.5216870
141.1963, 1.163036
141.6785, 1.536282
142.1606, 1.556572
142.6427, 1.419346
143.1248, 1.153831
143.6069, 0.7445790
144.0890, 0.4244160
144.5712, 8.2934998E-02
145.0533, 0.1234740
145.5354, 2.7756000E-02
146.0175, 0.3980870
146.4996, 0.9781000
146.9817, 1.405861
147.4639, 1.650249
147.9460, 1.760696
148.4281, 1.596531
148.9102, 1.340427
149.3923, 1.266479
149.8744, 1.510803
150.3566, 1.874626
150.8387, 1.827282
151.3208, 1.172165
151.8029, 0.6846310
152.2850, 0.7798880
152.7671, 1.301537
153.2493, 1.738750
153.7314, 1.852222
154.2135, 1.789307
154.6956, 1.835278
155.1777, 2.013573
155.6598, 2.245361
156.1420, 2.539097
156.6241, 2.916439
157.1062, 3.113499
157.5883, 2.790752
158.0704, 2.334366
158.5525, 2.060040
159.0347, 2.043018
159.5168, 2.237305
159.9989, 2.634884
160.4810, 3.364574
160.9631, 3.956619
161.4452, 4.280624
161.9274, 4.426003
162.4095, 4.445831
162.8916, 4.350731
163.3737, 4.178520
163.8558, 4.052979
164.3379, 4.007980
164.8201, 3.970665
165.3022, 3.937244
165.7843, 3.901608
166.2664, 3.847519
166.7485, 3.759548
167.2306, 3.651699
167.7128, 3.641682
168.1949, 3.824104
168.6770, 4.003048
169.1591, 4.116543
169.6412, 4.193310
170.1233, 4.310810
170.6055, 4.536327
171.0876, 4.865837
171.5697, 5.039768
172.0518, 5.089832
172.5339, 5.249130
173.0160, 5.091312
173.4982, 4.660324
173.9803, 4.397823
174.4624, 4.579517
174.9445, 5.247334
175.4266, 5.712982
175.9087, 5.881088
176.3909, 5.950542
176.8730, 6.014248
177.3551, 6.069225
177.8372, 6.226498
178.3193, 6.801949
178.8014, 7.637840
179.2836, 8.121635
179.7657, 7.344425
180.2478, 6.173199
180.7299, 5.787647
181.2120, 6.439007
181.6941, 7.043377
182.1763, 6.787624
182.6584, 6.058720
183.1405, 5.465496
183.6226, 5.428154
184.1047, 5.737915
184.5868, 5.839817
185.0690, 5.704567
185.5511, 5.509659
186.0332, 5.401924
186.5153, 5.302757
186.9974, 5.060406
187.4795, 4.481976
187.9617, 3.612324
188.4438, 3.133743
188.9259, 3.615627
189.4080, 3.915154
189.8901, 3.503075
190.3722, 2.607174
190.8544, 1.752857
191.3365, 1.371719
191.8186, 1.488174
192.3007, 1.713032
192.7828, 2.322544
193.2649, 2.784199
193.7471, 2.877041
194.2292, 2.645790
194.7113, 2.247429
195.1934, 1.795471
195.6755, 1.234749
196.1576, 0.9887920
196.6398, 1.244007
197.1219, 1.569706
197.6040, 1.806789
198.0861, 1.931133
198.5682, 1.945438
199.0503, 1.845455
199.5325, 1.606308
200.0146, 1.367271
200.4967, 1.110733
200.9788, 0.8660160
201.4609, 0.6614380
201.9430, 0.4961200
202.4252, 0.3386420
202.9073, 0.1621060
203.3894, 3.0857000E-02
203.8715, 0.2700920
204.3536, 0.8643420
204.8357, 1.334595
205.3179, 1.070374
205.8000, 3.8318999E-02
206.2821, 1.240715
206.7642, 1.847572
207.2463, 1.921379
207.7284, 1.749870
208.2106, 1.147224
208.6927, 0.4159890
209.1748, 3.2333001E-02
209.6569, 0.1437380
210.1390, 4.1065000E-02
210.6211, 0.3549230
211.1033, 0.9104190
211.5854, 1.264282
212.0675, 1.154778
212.5496, 0.7666970
213.0317, 0.5051080
213.5138, 0.3986320
213.9960, 0.4005430
214.4781, 0.5515400
214.9602, 0.7792930
215.4423, 0.9340860
215.9244, 0.9643140
216.4065, 0.8626330
216.8886, 0.5336110
217.3708, 0.3738860
217.8529, 0.9492720
218.3350, 0.5499420
218.8171, 0.4167940
219.2992, 1.179886
219.7813, 1.197998
220.2635, 0.5902440
220.7456, 0.1497000
221.2277, 0.1636280
221.7098, 0.2167630
222.1919, 0.2807270
222.6740, 1.031277
223.1562, 1.518295
223.6383, 1.329979
224.1204, 0.5370180
224.6025, 1.4511000E-02
225.0846, 3.1555001E-02
225.5667, 7.0648000E-02
226.0489, 1.5591000E-02
226.5310, 0.1636390
227.0131, 0.2545050
227.4952, 0.2132150
227.9773, 4.0114999E-02
228.4594, 0.2777140
228.9416, 1.129150
229.4237, 1.722725
229.9058, 1.751621
230.3879, 1.388947
230.8700, 0.9306450
231.3521, 0.5501480
231.8343, 0.2604830
232.3164, 0.2970620
232.7985, 1.012386
233.2806, 1.646477
233.7627, 2.048805
234.2448, 2.220078
234.7270, 2.151569
235.2091, 1.798042
235.6912, 1.218918
236.1733, 1.004601
236.6554, 1.316460
237.1375, 1.734013
237.6197, 2.200603
238.1018, 2.677753
238.5839, 3.128601
239.0660, 3.558098
239.5481, 3.920227
240.0302, 3.952782
240.5124, 3.366730
240.9945, 2.835964
241.4766, 2.684582
241.9587, 2.781181
242.4408, 2.742050
242.9229, 2.285900
243.4051, 1.642166
243.8872, 1.584290
244.3693, 2.477631
244.8514, 3.334450
245.3335, 3.676575
245.8156, 3.632759
246.2978, 3.571915
246.7799, 3.607132
247.2620, 3.779678
247.7441, 4.231766
248.2262, 5.227520
248.7083, 5.898518
249.1905, 5.545601
249.6726, 4.439896
250.1547, 3.567783
250.6368, 3.311340
251.1189, 3.439159
251.6010, 3.519402
252.0832, 3.506557
252.5653, 3.644131
253.0474, 4.266434
253.5295, 5.219925
254.0116, 5.793762
254.4937, 5.613655
254.9759, 5.181149
255.4580, 5.156158
255.9401, 5.556969
256.4222, 5.842541
256.9043, 5.555347
257.3864, 4.817909
257.8686, 4.227848
258.3507, 3.766678
258.8328, 3.693626
259.3149, 4.416809
259.7970, 5.821041
260.2791, 6.926449
260.7613, 6.849049
261.2434, 5.821114
261.7255, 5.217201
262.2076, 5.390400
262.6897, 5.720390
263.1718, 5.894257
263.6540, 5.969418
264.1361, 5.912453
264.6182, 5.573524
265.1003, 5.043671
265.5824, 4.887726
266.0645, 5.289337
266.5467, 5.849613
267.0288, 6.526978
267.5109, 7.189602
267.9930, 7.533623
268.4751, 7.201904
268.9572, 6.388992
269.4394, 6.070107
269.9215, 6.602760
270.4036, 7.114079
270.8857, 7.198521
271.3678, 7.052456
271.8499, 6.994526
272.3321, 7.227463
272.8142, 7.643684
273.2963, 7.858429
273.7784, 7.768616
274.2605, 7.631874
274.7426, 7.375732
275.2248, 7.133789
275.7069, 7.118248
276.1890, 7.498787
276.6711, 8.203552
277.1532, 9.011303
277.6353, 10.21132
278.1175, 10.93426
278.5996, 10.84756
279.0817, 10.37555
279.5638, 9.866020
280.0459, 9.481300
280.5280, 9.211918
281.0102, 9.059536
281.4923, 9.013462
281.9744, 9.195259
282.4565, 9.698689
282.9386, 10.30386
283.4207, 10.88159
283.9029, 11.36817
284.3850, 11.70747
284.8671, 11.87545
285.3492, 11.93783
285.8313, 11.68249
286.3134, 10.63820
286.7956, 9.660088
287.2777, 9.414986
287.7598, 9.901501
288.2419, 10.50195
288.7240, 10.40862
289.2061, 9.281269
289.6883, 8.713627
290.1704, 9.422253
290.6525, 10.02644
291.1346, 9.668022
291.6167, 8.511307
292.0988, 7.398323
292.5810, 7.161549
293.0631, 7.908970
293.5452, 8.377048
294.0273, 8.409168
294.5094, 8.323349
294.9915, 8.176682
295.4737, 7.993137
295.9558, 7.797802
296.4379, 7.615162
296.9200, 7.438423
297.4021, 7.171619
297.8842, 6.500584
298.3664, 6.077011
298.8485, 6.293015
299.3306, 6.796684
299.8127, 7.008137
300.2948, 6.580685
300.7769, 5.722313
301.2591, 5.287277
301.7412, 5.887787
302.2233, 6.194927
302.7054, 5.937557
303.1875, 5.388512
303.6696, 4.823830
304.1518, 4.360176
304.6339, 3.984859
305.1160, 3.659576
305.5981, 3.315781
306.0802, 3.151691
306.5623, 3.295399
307.0445, 3.528938
307.5266, 3.703239
308.0087, 3.770683
308.4908, 3.742653
308.9729, 3.641117
309.4550, 3.498959
309.9372, 3.176586
310.4193, 2.374218
310.9014, 1.654991
311.3835, 1.398987
311.8656, 1.601871
312.3477, 2.013142
312.8299, 2.404915
313.3120, 2.803852
313.7941, 3.011440
314.2762, 3.101280
314.7583, 2.965523
315.2404, 2.292652
315.7226, 1.330437
316.2047, 0.6714170
316.6868, 0.7923580
317.1689, 1.632648
317.6510, 2.237194
318.1331, 2.566963
318.6153, 2.706081
319.0974, 2.558537
319.5795, 2.249660
320.0616, 1.964615
320.5437, 1.802032
321.0258, 1.710873
321.5080, 1.515118
321.9901, 1.011763
322.4722, 0.6644080
322.9543, 0.5807360
323.4364, 0.6225220
323.9185, 0.6661130
324.4007, 0.6668130
324.8828, 0.6378960
325.3649, 0.5923630
325.8470, 0.4501510
326.3291, 0.4572470
326.8112, 0.8132250
327.2934, 1.152605
327.7755, 1.155680
328.2576, 0.8262540
328.7397, 0.4584540
329.2218, 0.3720970
329.7039, 0.6086370
330.1861, 0.9438570
330.6682, 1.611820
331.1503, 2.145363
331.6324, 2.290915
332.1145, 2.124392
332.5966, 1.865213
333.0788, 1.664000
333.5609, 1.523909
334.0430, 1.502317
334.5251, 2.031284
335.0072, 2.239620
335.4893, 1.519472
335.9715, 0.4056850
336.4536, 0.2046810
336.9357, 0.1750580
337.4178, 1.139044
337.8999, 1.435938
338.3820, 0.4589820
338.8642, 0.3155560
339.3463, 0.7994330
339.8284, 1.038757
340.3105, 1.053482
340.7926, 0.8581680
341.2747, 0.4900530
341.7568, 3.6329001E-02
342.2390, 0.8752230
342.7211, 1.520529
343.2032, 1.946377
343.6853, 2.137106
344.1674, 1.954109
344.6495, 1.474859
345.1317, 0.9728890
345.6138, 0.6886160
346.0959, 0.6345410
346.5780, 0.7218800
347.0601, 1.190332
347.5422, 1.550808
348.0244, 1.538387
348.5065, 1.340868
348.9886, 1.308975
349.4707, 1.683130
349.9528, 2.334694
350.4349, 2.744080
350.9171, 2.881569
351.3992, 2.791626
351.8813, 2.284998
352.3634, 1.694229
352.8455, 1.344856
353.3276, 1.307068
353.8098, 1.484570
354.2919, 1.715977
354.7740, 2.046139
355.2561, 2.294918
355.7382, 2.539568
356.2203, 2.628529
356.7025, 2.344439
357.1846, 1.739258
357.6667, 1.167526
358.1488, 1.052197
358.6309, 1.419958
359.1130, 1.502996
359.5952, 0.8393780
360.0773, 0.4155580
360.5594, 0.8487320
361.0415, 1.805302
361.5236, 2.585964
362.0057, 2.740049
362.4879, 2.467398
362.9700, 2.417707
363.4521, 2.764822
363.9342, 2.916679
364.4163, 2.374552
364.8984, 1.676315
365.3806, 1.391720
365.8627, 1.709541
366.3448, 2.342833
366.8269, 3.130140
367.3090, 4.162960
367.7911, 4.497551
368.2733, 3.210094
368.7554, 1.707516
369.2375, 0.9127040
369.7196, 0.8737750
370.2017, 1.337942
370.6838, 2.529129
371.1660, 4.188063
371.6481, 4.969715
372.1302, 4.435535
372.6123, 3.661810
373.0944, 3.206240
373.5765, 2.986666
374.0587, 2.861525
374.5408, 2.741491
375.0229, 2.706289
375.5050, 2.995995
375.9871, 3.676210
376.4692, 4.091665
376.9514, 3.665518
377.4335, 2.901760
377.9156, 2.576797
378.3977, 2.902956
378.8798, 3.282272
379.3619, 3.154482
379.8441, 2.674084
380.3262, 2.603098
380.8083, 3.375570
381.2904, 4.238350
381.7725, 4.082973
382.2546, 2.953754
382.7368, 2.078001
383.2189, 2.019285
383.7010, 2.393549
384.1831, 2.587034
384.6652, 2.557800
385.1473, 2.533628
385.6295, 2.802010
386.1116, 3.252806
386.5937, 3.234514
387.0758, 2.132952
387.5579, 1.097582
388.0400, 0.9446620
388.5222, 1.468468
389.0043, 1.978275
389.4864, 2.186352
389.9685, 2.131332
390.4506, 1.864645
390.9327, 1.310463
391.4149, 0.7625010
391.8970, 0.1075120
392.3791, 0.4328820
392.8612, 0.5216980
393.3433, 0.1004370
393.8254, 0.5084610
394.3076, 0.9542920
394.7897, 1.243464
395.2718, 1.378529
395.7539, 1.190704
396.2360, 1.012114
396.7181, 1.024889
397.2003, 1.178181
397.6824, 1.382917
398.1645, 1.620089
398.6466, 1.831129
399.1287, 1.654015
399.6108, 0.2643070
400.0930, 0.5229020
400.5751, 3.6009999E-03
401.0572, 0.9643670
401.5393, 1.446831
402.0214, 1.167116
402.5035, 0.5219750
402.9857, 7.8198999E-02
403.4678, 0.1261020
403.9499, 0.2257880
404.4320, 0.2160640
404.9141, 0.1226310
405.3962, 8.6240999E-02
405.8784, 0.3738290
406.3605, 0.6595820
406.8426, 0.8889480
407.3247, 1.061636
407.8068, 1.175310
408.2889, 1.324381
408.7711, 1.255369
409.2532, 0.6192530
409.7353, 0.1089990
410.2174, 0.3531060
410.6995, 8.9498997E-02
411.1816, 0.7890340
411.6638, 1.131348
412.1459, 1.059223
412.6280, 0.9317610
413.1101, 0.7087140
413.5922, 0.5151650
414.0743, 0.4088340
414.5565, 0.3930230
415.0386, 0.4580270
415.5207, 0.6617490
416.0028, 0.9440690
416.4849, 1.068714
416.9670, 0.9779420
417.4492, 0.8731840
417.9313, 0.9315990
418.4134, 1.018452
418.8955, 0.9136160
419.3776, 0.4762550
419.8597, 4.4527002E-02
420.3419, 3.5980001E-02
420.8240, 0.2041550
421.3061, 0.5002400
421.7882, 0.8345170
422.2703, 1.118328
422.7524, 1.261051
423.2346, 1.271608
423.7167, 1.154377
424.1988, 0.7708780
424.6809, 0.3249740
425.1630, 0.1038530
425.6451, 0.1362270
426.1273, 0.2532040
426.6094, 0.3113900
427.0915, 0.3586120
427.5736, 0.6104150
428.0557, 1.610571
428.5378, 2.232004
429.0200, 1.547958
429.5021, 0.1677990
429.9842, 0.6072120
430.4663, 0.2831760
430.9484, 0.6036090
431.4305, 1.187296
431.9127, 1.315298
432.3948, 1.483685
432.8769, 1.885384
433.3590, 2.182531
433.8411, 1.997210
434.3232, 1.425959
434.8054, 0.9600830
435.2875, 1.009588
435.7696, 1.506712
436.2517, 1.740629
436.7338, 1.460821
437.2159, 1.146093
437.6981, 0.7521570
438.1802, 0.4267980
438.6623, 0.4194050
439.1444, 0.7836930
439.6265, 1.197680
440.1086, 1.071899
440.5908, 6.5009996E-02
441.0729, 0.3488670
441.5550, 0.5539470
442.0371, 1.382948
442.5192, 1.424244
443.0013, 0.8889880
443.4835, 0.4043460
443.9656, 0.3649370
444.4477, 0.6668660
444.9298, 1.019684
445.4119, 1.477953
445.8940, 1.850298
446.3762, 2.170401
446.8583, 2.325451
447.3404, 2.072615
447.8225, 1.354118
448.3046, 0.7483830
448.7867, 0.8853950
449.2689, 1.633154
449.7510, 2.245461
450.2331, 2.516649
450.7152, 2.525635
451.1973, 2.115646
451.6794, 1.480202
452.1616, 1.161947
452.6437, 1.639174
453.1258, 2.224131
453.6079, 2.148527
454.0900, 1.522371
454.5721, 1.095554
455.0543, 1.250004
455.5364, 1.695988
456.0185, 1.808832
456.5006, 1.477163
456.9827, 1.321280
457.4648, 1.638533
457.9470, 2.069736
458.4291, 2.312649
458.9112, 2.310200
459.3933, 2.296814
459.8754, 2.480652
460.3575, 2.861048
460.8397, 3.165016
461.3218, 3.441153
461.8039, 3.567997
462.2860, 3.462938
462.7681, 3.218266
463.2502, 2.905119
463.7324, 2.548576
464.2145, 2.251083
464.6966, 2.207314
465.1787, 2.571119
465.6608, 2.726574
466.1429, 2.555824
466.6251, 2.295780
467.1072, 1.968256
467.5893, 1.639793
468.0714, 1.435551
468.5535, 1.497213
469.0356, 1.744667
469.5178, 1.914333
469.9999, 1.928015
470.4820, 1.861485
470.9641, 1.601517
471.4462, 1.347122
471.9283, 1.243435
472.4105, 1.311930
472.8926, 1.503441
473.3747, 1.817152
473.8568, 2.207422
474.3389, 2.465168
474.8210, 2.593618
475.3032, 2.539803
475.7853, 2.119179
476.2674, 1.511183
476.7495, 1.065861
477.2316, 0.8802740
477.7137, 0.8045370
478.1959, 0.7632370
478.6780, 0.7610400
479.1601, 0.7667560
479.6422, 0.7649150
480.1243, 0.7944490
480.6064, 0.9036250
481.0886, 1.098829
481.5707, 1.353451
482.0528, 1.758326
482.5349, 2.140348
483.0170, 2.464212
483.4991, 2.675053
483.9813, 2.580681
484.4634, 2.032761
484.9455, 1.263681
485.4276, 0.9706540
485.9097, 1.591478
486.3918, 2.072760
486.8740, 2.501165
487.3561, 2.715576
487.8382, 2.428061
488.3203, 1.783539
488.8024, 1.193260
489.2845, 0.9971710
489.7667, 1.149467
490.2488, 1.197617
490.7309, 1.083326
491.2130, 0.9567240
491.6951, 0.9095630
492.1772, 0.8471550
492.6594, 0.6062980
493.1415, 0.1464960
493.6236, 0.2350920
494.1057, 0.1791880
494.5878, 0.2623180
495.0699, 0.6548100
495.5521, 0.9631390
496.0342, 1.191313
496.5163, 1.386520
496.9984, 1.509369
497.4805, 1.417595
497.9626, 0.8291030
498.4448, 0.2930260
498.9269, 0.3978670
499.4090, 1.002388
499.8911, 1.358932
500.3732, 1.187145
500.8553, 0.7877860
501.3375, 0.5833150
501.8196, 0.6171820
502.3017, 0.6394460
502.7838, 0.5539630
503.2659, 0.5211260
503.7480, 0.7037620
504.2302, 1.038536
504.7123, 1.378910
505.1944, 1.664190
505.6765, 1.798149
506.1586, 1.445442
506.6407, 0.1938270
507.1228, 0.9928760
507.6049, 0.2333980
508.0871, 0.7732520
508.5692, 1.091705
509.0513, 0.7525580
509.5334, 0.3759840
510.0155, 0.4500830
510.4977, 0.8800640
510.9798, 1.219093
511.4619, 1.490849
511.9440, 1.616808
512.4261, 1.526011
512.9083, 1.308352
513.3904, 0.9361670
513.8725, 0.4046960
514.3546, 8.9960001E-02
514.8367, 0.4968910
515.3188, 1.324430
515.8010, 1.692574
516.2831, 1.469175
516.7652, 1.033710
517.2473, 0.4468500
517.7294, 0.1228330
518.2115, 0.1499580
518.6937, 0.8838480
519.1758, 1.720398
519.6579, 1.505356
520.1400, 0.8120840
520.6221, 0.6981540
521.1042, 1.399267
521.5864, 2.116859
522.0685, 1.926399
522.5506, 0.6961840
523.0327, 4.5655999E-02
523.5148, 0.2265680
523.9969, 9.7120002E-02
524.4791, 0.6952740
524.9612, 1.599321
525.4433, 1.725538
525.9254, 0.7966560
526.4075, 0.4310020
526.8896, 0.7622620
527.3718, 1.0147000E-02
527.8539, 0.6014820
528.3360, 1.063328
528.8181, 1.239275
529.3002, 0.8080200
529.7823, 9.8806001E-02
530.2645, 0.2589170
530.7466, 6.3920997E-02
531.2287, 0.6271230
531.7108, 0.8887940
532.1929, 0.8642650
532.6750, 0.7676120
533.1572, 0.5601920
533.6393, 0.4441740
534.1214, 0.8278850
534.6035, 1.609203
535.0856, 1.985151
535.5677, 1.347702
536.0499, 0.6170290
536.5320, 0.5555760
537.0141, 0.9867000
537.4962, 1.322628
537.9783, 1.316578
538.4604, 1.106619
538.9426, 0.9153670
539.4247, 0.6968610
539.9068, 0.6142850
540.3889, 0.6374030
540.8710, 0.8123510
541.3531, 1.376526
541.8353, 2.098997
542.3174, 2.430620
542.7995, 2.035765
543.2816, 1.319334
543.7637, 1.283937
544.2458, 2.234219
544.7280, 2.861616
545.2101, 2.756676
545.6922, 2.431210
546.1743, 1.987989
546.6564, 1.547876
547.1385, 1.474607
547.6207, 2.259813
548.1028, 3.261597
548.5849, 3.250380
549.0670, 2.243053
549.5491, 1.636093
550.0313, 2.066759
550.5134, 2.889669
550.9955, 3.136108
551.4776, 2.791412
551.9597, 2.418352
552.4418, 2.001373
552.9240, 1.693264
553.4061, 1.720415
553.8882, 1.980124
554.3703, 2.157356
554.8524, 2.094805
555.3345, 1.839428
555.8167, 1.457352
556.2988, 0.5739610
556.7809, 0.3286800
557.2630, 1.329742
557.7451, 2.318611
558.2272, 2.477716
558.7094, 2.048470
559.1915, 1.793919
559.6736, 2.191952
560.1557, 2.876551
560.6378, 3.081921
561.1199, 2.753185
561.6021, 2.266453
562.0842, 1.463638
562.5663, 0.7847960
563.0484, 0.5430580
563.5305, 0.7162780
564.0126, 1.164642
564.4948, 2.134655
564.9769, 3.073931
565.4590, 3.497477
565.9411, 3.463953
566.4232, 3.400673
566.9053, 3.492306
567.3875, 3.557791
567.8696, 3.260576
568.3517, 2.362471
568.8338, 1.958620
569.3159, 2.662912
569.7980, 3.260006
570.2802, 2.885025
570.7623, 1.953138
571.2444, 1.385429
571.7265, 1.607758
572.2086, 2.200121
572.6907, 2.342779
573.1729, 1.823984
573.6550, 1.727226
574.1371, 2.663301
574.6192, 3.429974
575.1013, 3.360714
575.5834, 2.738304
576.0656, 2.162024
576.5477, 1.838186
577.0298, 1.708591
577.5119, 1.802053
577.9940, 2.071791
578.4761, 2.271338
578.9583, 2.340900
579.4404, 2.351248
579.9225, 2.355886
580.4046, 2.356205
580.8867, 2.372139
581.3688, 2.531866
581.8510, 2.574970
582.3331, 2.265539
582.8152, 1.796816
583.2973, 1.489912
583.7794, 1.426407
584.2615, 1.376846
584.7437, 1.095634
585.2258, 0.6278130
585.7079, 0.3652630
586.1900, 0.4248940
586.6721, 0.5467300
587.1542, 0.7518010
587.6363, 0.9377420
588.1184, 0.8972660
588.6005, 0.6340240
589.0826, 0.5214940
589.5648, 1.219707
590.0469, 2.379650
590.5290, 2.562420
591.0111, 1.502478
591.4932, 0.4022390
591.9753, 0.1413690
592.4575, 0.2065700
592.9396, 3.2440000E-03
593.4217, 0.6399500
593.9038, 1.101620
594.3859, 1.111465
594.8680, 0.8948060
595.3502, 0.5362850
595.8323, 0.1394840
596.3144, 5.6178998E-02
596.7965, 0.5747180
597.2786, 1.479364
597.7607, 1.988308
598.2429, 2.013603
598.7250, 1.783289
599.2071, 0.9430600
599.6892, 0.2035260
600.1713, 0.1700080
600.6534, 0.6556530
601.1356, 0.9466840
601.6177, 0.5104770
602.0998, 0.1701220
602.5819, 0.1424620
603.0640, 0.5938090
603.5461, 1.056683
604.0283, 0.9237440
604.5104, 0.5286480
604.9925, 6.3588999E-02
605.4746, 0.4271180
605.9567, 0.4202180
606.4388, 0.7805860
606.9210, 1.835686
607.4031, 1.705797
607.8852, 0.9379140
608.3673, 0.6322940
608.8494, 1.119658
609.3315, 1.873301
609.8137, 2.225220
610.2958, 2.136295
610.7779, 2.052382
611.2600, 1.953598
611.7421, 1.886021
612.2242, 1.896877
612.7064, 1.925730
613.1885, 1.854454
613.6706, 1.668196
614.1527, 1.590546
614.6348, 1.987484
615.1169, 2.642586
615.5991, 2.803097
616.0812, 2.371141
616.5633, 1.985321
617.0454, 2.078745
617.5275, 2.401165
618.0096, 2.416168
618.4918, 2.053219
618.9739, 1.665462
619.4560, 1.099363
619.9381, 0.7028350
620.4202, 0.9966220
620.9023, 1.739485
621.3845, 2.116627
621.8666, 1.676458
622.3487, 0.8737010
622.8308, 0.6427100
623.3129, 1.100513
623.7950, 1.564365
624.2772, 2.212599
624.7593, 2.741154
625.2414, 3.031036
625.7235, 3.091597
626.2056, 2.901737
626.6877, 2.361446
627.1699, 1.844099
627.6520, 1.754992
628.1341, 1.986702
628.6162, 2.238897
629.0983, 2.482574
629.5804, 2.576054
630.0626, 2.321993
630.5447, 1.815384
631.0268, 1.808765
631.5089, 2.860910
631.9910, 3.580006
632.4731, 3.657749
632.9553, 3.383255
633.4374, 2.893305
633.9195, 2.293753
634.4016, 1.768614
634.8837, 1.431828
635.3658, 1.305916
635.8480, 1.583128
636.3301, 2.452587
636.8122, 2.893076
637.2943, 2.357445
637.7764, 1.661560
638.2585, 1.463959
638.7407, 1.681780
639.2228, 1.919125
639.7049, 2.090298
640.1870, 2.208021
640.6691, 2.277319
641.1512, 2.294130
641.6334, 2.225670
642.1155, 2.065088
642.5976, 1.937119
643.0797, 1.998098
643.5618, 2.246607
644.0439, 2.310387
644.5261, 1.945837
645.0082, 1.721821
645.4903, 1.820442
645.9724, 1.959713
646.4545, 2.045700
646.9366, 2.051529
647.4188, 1.898838
647.9009, 1.298977
648.3830, 0.6283740
648.8651, 0.9749600
649.3472, 2.370295
649.8293, 3.245955
650.3115, 2.939552
650.7936, 2.156668
651.2757, 1.708424
651.7578, 1.596033
652.2399, 1.695204
652.7220, 2.410322
653.2042, 2.902550
653.6863, 2.512815
654.1684, 1.707382
654.6505, 1.217619
655.1326, 1.237333
655.6147, 1.473965
656.0969, 1.641382
656.5790, 1.736580
657.0611, 1.659828
657.5432, 1.206621
658.0253, 1.011543
658.5074, 1.755680
658.9896, 2.565767
659.4717, 2.510494
659.9538, 1.551273
660.4359, 0.8560910
660.9180, 1.327589
661.4001, 2.017097
661.8823, 1.822582
662.3644, 0.9631790
662.8465, 0.2746300
663.3286, 4.2886999E-02
663.8107, 0.1504100
664.2928, 0.4586120
664.7750, 0.9759560
665.2571, 1.400526
665.7392, 1.837337
666.2213, 2.054300
666.7034, 1.838758
667.1855, 1.461498
667.6677, 1.190821
668.1498, 1.084177
668.6319, 1.089655
669.1140, 1.155159
669.5961, 1.288012
670.0782, 1.577808
670.5604, 2.024572
671.0425, 2.168556
671.5246, 1.708874
672.0067, 1.075991
672.4888, 0.9999430
672.9709, 1.690565
673.4531, 1.804207
673.9352, 0.6143130
674.4173, 0.3928740
674.8994, 0.5964980
675.3815, 0.1890180
675.8636, 0.7436490
676.3458, 2.073339
676.8279, 3.177397
677.3100, 3.358141
677.7921, 2.726892
678.2742, 1.953821
678.7563, 0.9558750
679.2385, 9.9880002E-02
679.7206, 0.6101000
680.2027, 0.9889720
680.6848, 0.7518180
681.1669, 0.1079100
681.6490, 1.008961
682.1312, 2.146605
682.6133, 2.916071
683.0954, 2.537813
683.5775, 1.566561
684.0596, 1.167414
684.5417, 1.660315
685.0239, 2.252878
685.5060, 1.952782
685.9881, 0.8060800
686.4702, 0.3309690
686.9523, 0.9758640
687.4344, 1.429976
687.9166, 1.028772
688.3987, 0.4792060
688.8808, 0.3574050
689.3629, 0.6810820
689.8450, 1.124287
690.3271, 1.827492
690.8093, 2.358303
691.2914, 2.096199
691.7735, 1.316990
692.2556, 0.7982290
692.7377, 0.7739720
693.2198, 0.9430330
693.7020, 0.9650920
694.1841, 0.8431020
694.6662, 0.9539050
695.1483, 1.709984
695.6304, 2.089222
696.1125, 1.655716
696.5947, 1.009100
697.0768, 0.5556390
697.5589, 0.3545280
698.0410, 0.3603550
698.5231, 0.6038400
699.0052, 0.9803830
699.4874, 1.455130
699.9695, 1.962437
700.4516, 2.286968
700.9337, 2.401634
701.4158, 2.164654
701.8979, 1.297340
702.3801, 0.1219120
702.8622, 0.7703230
703.3443, 1.3260000E-02
703.8264, 0.6991710
704.3085, 1.451509
704.7906, 1.942932
705.2728, 1.696899
705.7549, 0.9516410
706.2370, 0.5743540
706.7191, 1.226408
707.2012, 2.108364
707.6833, 1.955721
708.1655, 0.9719660
708.6476, 0.2641700
709.1297, 3.2963000E-02
709.6118, 0.1489720
710.0939, 0.6445080
710.5760, 1.391792
711.0582, 1.668615
711.5403, 0.9485760
712.0224, 0.5439280
712.5045, 0.8080830
712.9866, 1.193115
713.4688, 1.356451
713.9509, 1.308826
714.4330, 1.153444
714.9151, 0.9219800
715.3972, 0.7167660
715.8793, 0.6654090
716.3615, 0.7600920
716.8436, 0.9870240
717.3257, 1.372295
717.8078, 1.733185
718.2899, 1.970318
718.7720, 2.096014
719.2542, 2.146597
719.7363, 2.161793
720.2184, 2.013409
720.7005, 1.458630
721.1826, 0.9439510
721.6647, 0.8143080
722.1469, 0.9181210
722.6290, 0.8970870
723.1111, 0.6258490
723.5932, 0.3951490
724.0753, 0.7085210
724.5574, 1.393570
725.0396, 1.381632
725.5217, 0.5103930
726.0038, 3.5618000E-02
726.4859, 0.3879700
726.9680, 1.258114
727.4501, 1.755396
727.9323, 1.845083
728.4144, 1.810715
728.8965, 1.576765
729.3786, 1.322805
729.8607, 1.064053
730.3428, 0.8641410
730.8250, 0.8659060
731.3071, 1.058878
731.7892, 1.186197
732.2713, 0.9288390
732.7534, 0.4521030
733.2355, 0.1454810
733.7177, 1.3283000E-02
734.1998, 0.1095100
734.6819, 0.5308130
735.1640, 1.046171
735.6461, 1.456305
736.1282, 1.753344
736.6104, 1.894791
737.0925, 1.935946
737.5746, 1.690449
738.0567, 0.9129940
738.5388, 5.3383000E-02
739.0209, 0.5836910
739.5031, 0.9463620
739.9852, 0.9145890
740.4673, 0.3239560
740.9494, 0.4285740
741.4315, 0.6047950
741.9136, 0.2637940
742.3958, 0.1013300
742.8779, 0.2505840
743.3600, 0.4320090
743.8421, 0.4290640
744.3242, 0.3193130
744.8063, 0.4127200
745.2885, 0.8177640
745.7706, 1.160442
746.2527, 1.545158
746.7348, 1.725788
747.2169, 1.388775
747.6990, 0.7861940
748.1812, 0.3967930
748.6633, 0.3895970
749.1454, 0.4972080
749.6275, 0.4518760
750.1096, 0.2921500
750.5917, 0.1145920
751.0739, 8.2139999E-02
751.5560, 0.1602190
752.0381, 4.9578000E-02
752.5202, 0.1854990
753.0023, 0.5089210
753.4844, 0.9898110
753.9666, 1.083473
754.4487, 0.3956550
754.9308, 0.1581000
755.4129, 0.2179130
755.8950, 9.0692997E-02
756.3771, 0.1665040
756.8593, 0.4287550
757.3414, 0.4656850
757.8235, 0.1130920
758.3056, 0.8975940
758.7877, 1.289577
759.2698, 1.344788
759.7520, 1.281511
760.2341, 1.111191
760.7162, 0.9103740
761.1983, 0.8343600
761.6804, 0.8515300
762.1625, 0.9512480
762.6447, 1.406584
763.1268, 1.485697
763.6089, 0.6571600
764.0910, 1.4591000E-02
764.5731, 0.2462500
765.0552, 1.022665
765.5374, 1.487640
766.0195, 1.377083
766.5016, 1.020399
766.9837, 0.4603600
767.4658, 7.9708003E-02
767.9479, 0.2131020
768.4301, 2.7698999E-02
768.9122, 0.3886360
769.3943, 0.7753110
769.8764, 1.063032
770.3585, 1.017653
770.8406, 0.5834350
771.3228, 0.4201070
771.8049, 0.8110030
772.2870, 1.022371
772.7691, 0.5380540
773.2512, 3.3094000E-02
773.7333, 0.2095720
774.2155, 1.003801
774.6976, 1.652719
775.1797, 1.748379
775.6618, 1.736132
776.1439, 2.015686
776.6260, 2.360567
777.1082, 2.339270
777.5903, 1.935591
778.0724, 1.543228
778.5545, 1.457573
779.0366, 1.537191
779.5187, 1.332541
780.0009, 0.7321260
780.4830, 0.5997140
780.9651, 1.353783
781.4472, 1.972876
781.9293, 1.604292
782.4114, 0.7775190
782.8936, 0.5720040
783.3757, 1.254023
783.8578, 1.664190
784.3399, 1.250055
784.8220, 0.7657490
785.3041, 0.6979960
785.7863, 0.9363190
786.2684, 1.322258
786.7505, 1.768539
787.2326, 2.029737
787.7147, 1.744455
788.1968, 1.138639
788.6790, 0.9596080
789.1611, 1.214035
789.6432, 1.579760
790.1253, 2.054790
790.6074, 2.357338
791.0895, 2.128178
791.5717, 1.430864
792.0538, 1.043335
792.5359, 1.306887
793.0180, 1.375450
793.5001, 0.9359040
793.9822, 0.4953940
794.4644, 0.3601760
794.9465, 0.5030210
795.4286, 0.8430310
795.9107, 1.392082
796.3928, 1.838499
796.8749, 1.827641
797.3571, 1.527847
797.8392, 1.197603
798.3213, 0.9085790
798.8034, 0.7914890
799.2855, 0.8997630
799.7676, 1.175350
800.2498, 1.583385
800.7319, 2.147909
801.2140, 2.341501
801.6961, 1.889585
802.1782, 1.562391
802.6603, 1.650221
803.1425, 1.867586
803.6246, 2.101952
804.1067, 2.300007
804.5888, 2.232569
805.0709, 1.451771
805.5530, 0.9413070
806.0352, 1.542898
806.5173, 2.488791
806.9994, 2.850323
807.4815, 2.648144
807.9636, 2.419867
808.4457, 2.455896
808.9279, 2.322590
809.4100, 2.548162
809.8921, 2.341434
810.3742, 2.320204
810.8563, 2.512260
811.3384, 2.860168
811.8206, 3.521282
812.3027, 4.067806
812.7848, 3.706160
813.2669, 2.213583
813.7490, 1.444960
814.2311, 2.041128
814.7133, 2.513895
815.1954, 2.242397
815.6775, 1.865290
816.1596, 2.065004
816.6417, 2.742676
817.1238, 3.233822
817.6060, 3.154886
818.0881, 2.893419
818.5702, 2.824936
819.0523, 2.880875
819.5344, 2.920740
820.0165, 2.927746
820.4987, 2.902327
820.9808, 2.832195
821.4629, 2.816101
821.9450, 3.095585
822.4271, 3.765253
822.9092, 4.030617
823.3914, 3.706951
823.8735, 3.328690
824.3556, 2.871485
824.8377, 2.605940
825.3198, 3.029228
825.8019, 4.060545
826.2841, 4.562698
826.7662, 3.844156
827.2483, 3.116898
827.7304, 2.727610
828.2125, 2.699396
828.6946, 3.332474
829.1768, 4.363369
829.6589, 4.967627
830.1410, 4.678204
830.6231, 3.951326
831.1052, 3.212189
831.5873, 2.550837
832.0695, 2.466059
832.5516, 2.996590
833.0337, 3.359604
833.5158, 3.160248
833.9979, 2.749949
834.4800, 2.648489
834.9622, 2.884220
835.4443, 3.121716
835.9264, 3.387951
836.4085, 3.612438
836.8906, 3.743593
837.3727, 3.862535
837.8549, 4.067850
838.3370, 4.320377
838.8191, 4.465912
839.3012, 4.425053
839.7833, 4.344248
840.2654, 4.315836
840.7476, 4.281097
841.2297, 4.153812
841.7118, 3.960443
842.1939, 3.746517
842.6760, 3.537569
843.1581, 3.494423
843.6403, 4.010874
844.1224, 4.893631
844.6045, 4.995741
845.0866, 4.257328
845.5687, 3.772787
846.0508, 3.958351
846.5330, 4.236038
847.0151, 3.913647
847.4972, 4.282455
847.9793, 4.681715
848.4614, 4.523779
848.9435, 5.417076
849.4257, 5.304455
849.9078, 4.851288
850.3899, 4.302710
850.8720, 3.719152
851.3541, 3.073332
851.8362, 2.305933
852.3184, 1.968056
852.8005, 2.650389
853.2826, 3.573385
853.7647, 4.129841
854.2468, 4.339766
854.7289, 4.252146
855.2111, 3.918638
855.6932, 3.509607
856.1753, 3.112093
856.6574, 2.849680
857.1395, 3.214762
857.6216, 4.224369
858.1038, 4.761421
858.5859, 4.544878
859.0680, 4.269316
859.5501, 4.436821
860.0322, 4.852537
860.5143, 4.959526
860.9965, 4.528635
861.4786, 4.402935
861.9607, 5.149895
862.4428, 5.460373
862.9249, 4.437471
863.4070, 3.217413
863.8892, 3.000217
864.3713, 3.742290
864.8534, 4.435255
865.3355, 4.707621
865.8176, 4.786055
866.2997, 4.753464
866.7819, 4.663593
867.2640, 4.474562
867.7461, 4.257692
868.2282, 4.222210
868.7103, 4.469130
869.1924, 4.865696
869.6746, 5.314272
870.1567, 5.726622
870.6388, 5.705156
871.1209, 5.270700
871.6030, 4.623068
872.0851, 3.733706
872.5673, 3.008011
873.0494, 2.978964
873.5315, 3.526024
874.0136, 3.427660
874.4957, 1.887197
874.9778, 1.172188
875.4600, 2.340359
875.9421, 3.481821
876.4242, 3.488047
876.9063, 2.932137
877.3884, 2.888992
877.8705, 3.603569
878.3527, 4.101593
878.8348, 3.875134
879.3169, 3.503992
879.7990, 3.339514
880.2811, 3.293690
880.7632, 3.231354
881.2454, 3.123487
881.7275, 2.969374
882.2096, 2.723949
882.6917, 2.556789
883.1738, 2.791983
883.6559, 3.308992
884.1381, 3.793816
884.6202, 4.190962
885.1023, 4.183794
885.5844, 3.566227
886.0665, 2.805897
886.5486, 2.658787
887.0308, 3.141119
887.5129, 3.414774
887.9950, 3.554646
888.4771, 3.375284
888.9592, 2.595093
889.4413, 1.751520
889.9235, 1.166250
890.4056, 0.8689310
890.8877, 1.006008
891.3698, 2.004238
891.8519, 2.604593
892.3340, 2.325687
892.8162, 1.915661
893.2983, 1.763823
893.7804, 1.767447
894.2625, 1.740078
894.7446, 1.646963
895.2267, 1.574486
895.7089, 1.619238
896.1910, 1.662598
896.6731, 1.585272
897.1552, 1.425158
897.6373, 1.207790
898.1194, 0.9681740
898.6016, 0.8460100
899.0837, 0.9314040
899.5658, 1.039068
900.0479, 0.7863200
900.5300, 0.2450080
901.0121, 2.1000000E-02
901.4943, 0.1392270
901.9764, 0.4184060
902.4585, 0.8233780
902.9406, 1.280390
903.4227, 1.720242
903.9048, 2.142693
904.3870, 2.555428
904.8691, 3.171444
905.3512, 3.340202
905.8333, 2.615988
906.3154, 1.884714
906.7975, 1.591885
907.2797, 1.551023
907.7618, 1.540516
908.2439, 1.566513
908.7260, 1.351259
909.2081, 0.4306140
909.6902, 0.2777480
910.1724, 0.2283540
910.6545, 0.1938760
911.1366, 0.7259410
911.6187, 1.219116
912.1008, 1.409245
912.5829, 1.128883
913.0651, 0.7322520
913.5472, 0.5672070
914.0293, 0.4905490
914.5114, 0.1847690
914.9935, 0.2616920
915.4756, 0.4202540
915.9578, 0.1754910
916.4398, 3.7390001E-02
916.9219, 0.2546840
917.4041, 0.8560560
917.8862, 1.158535
918.3683, 1.161001
918.8504, 0.9146480
919.3325, 0.3522010
919.8146, 2.7512001E-02
920.2968, 0.1638360
920.7789, 0.5291790
921.2610, 0.2775080
921.7431, 0.7376400
922.2252, 1.467093
922.7073, 2.025669
923.1895, 2.111595
923.6716, 1.015446
924.1537, 2.2725999E-02
924.6358, 0.1842920
925.1179, 1.200584
925.6000, 1.519636
926.0822, 0.6093370
926.5643, 0.1481320
927.0464, 0.5269740
927.5285, 0.5338000
928.0106, 0.1001400
928.4927, 0.9650140
928.9749, 1.511629
929.4570, 1.659658
929.9391, 1.660248
930.4212, 1.606297
930.9033, 1.533451
931.3854, 1.522560
931.8676, 1.489428
932.3497, 1.181273
932.8318, 0.7038780
933.3139, 0.5544660
933.7960, 0.9411960
934.2781, 1.444710
934.7603, 1.582542
935.2424, 1.433744
935.7245, 1.185061
936.2066, 0.8582250
936.6887, 0.7187650
937.1708, 0.8273280
937.6530, 1.113363
938.1351, 1.583330
938.6172, 2.066099
939.0993, 2.083866
939.5814, 1.502562
940.0635, 1.058035
940.5457, 0.7008190
941.0278, 0.6231120
941.5099, 1.109413
941.9920, 1.624487
942.4741, 1.516567
942.9562, 0.8750000
943.4384, 0.6058390
943.9205, 1.280664
944.4026, 1.438770
944.8847, 0.3668590
945.3668, 0.5257130
945.8489, 0.3958870
946.3311, 0.2523540
946.8132, 0.6949960
947.2953, 0.8526000
947.7774, 1.129620
948.2595, 1.952539
948.7416, 2.578764
949.2238, 2.310946
949.7059, 1.904404
950.1880, 2.289032
950.6701, 3.198126
951.1522, 3.743896
951.6343, 3.606415
952.1165, 3.249161
952.5986, 2.821466
953.0807, 2.568701
953.5628, 3.033052
954.0449, 3.893587
954.5270, 4.375425
955.0092, 4.366631
955.4913, 4.188635
955.9734, 4.026226
956.4555, 3.949976
956.9376, 4.220810
957.4197, 4.704624
957.9019, 4.496477
958.3840, 3.600466
958.8661, 3.334978
959.3482, 4.172176
959.8303, 5.191193
960.3124, 5.527010
960.7946, 5.328566
961.2767, 5.119549
961.7588, 4.825253
962.2409, 4.971018
962.7230, 5.842493
963.2051, 6.450699
963.6873, 6.165236
964.1694, 5.667927
964.6515, 5.979912
965.1336, 7.099775
965.6157, 7.426361
966.0978, 6.101377
966.5800, 5.328890
967.0621, 5.702427
967.5442, 6.167095
968.0263, 6.208458
968.5084, 6.050798
968.9905, 6.065523
969.4727, 6.308834
969.9548, 6.339226
970.4369, 5.972860
970.9190, 5.491632
971.4011, 4.877251
971.8832, 4.300583
972.3654, 3.912466
972.8475, 3.663698
973.3296, 3.478769
973.8117, 3.363651
974.2938, 3.258867
974.7759, 3.119505
975.2581, 2.908518
975.7402, 2.581537
976.2223, 2.236639
976.7044, 1.917742
977.1865, 1.726063
977.6686, 1.977419
978.1508, 2.879812
978.6329, 3.661856
979.1150, 3.370249
979.5971, 2.539934
980.0792, 1.978943
980.5613, 1.716688
981.0435, 1.825619
981.5256, 2.257572
982.0077, 2.479881
982.4898, 2.072582
982.9719, 2.321690
983.4540, 1.458422
983.9362, 1.987049
984.4183, 1.917204
984.9004, 1.206892
985.3825, 0.7134400
985.8646, 0.7793220
986.3467, 1.086502
986.8289, 1.353956
987.3110, 1.573719
987.7931, 1.710575
988.2752, 1.778494
988.7573, 1.583994
989.2394, 0.9838710
989.7216, 0.6415730
990.2037, 0.9695850
990.6858, 1.443338
991.1679, 1.344639
991.6500, 0.7287920
992.1321, 0.5511260
992.6143, 1.057184
993.0964, 1.566196
993.5785, 2.247736
994.0606, 2.583136
994.5427, 2.126482
995.0248, 1.280128
995.5070, 0.5355170
995.9891, 0.1353910
996.4712, 0.2642290
996.9533, 0.8714120
997.4354, 1.529066
997.9175, 0.9231240
998.3997, 0.3023890
998.8818, 0.5857010
999.3639, 1.296917
999.8460, 1.561607
1000.328, 1.251631
1000.810, 0.9152790
1001.292, 0.5552290
1001.774, 0.3614980
1002.257, 0.4346350
1002.739, 0.6812690
1003.221, 1.168631
1003.703, 1.727528
1004.185, 1.844282
1004.667, 1.321247
1005.149, 0.9537510
1005.631, 1.350451
1006.114, 1.809414
1006.596, 1.847815
1007.078, 1.667372
1007.560, 1.414024
1008.042, 1.198568
1008.524, 1.273598
1009.006, 1.753094
1009.488, 2.143417
1009.970, 2.034710
1010.453, 1.650873
1010.935, 0.9711480
1011.417, 0.3392220
1011.899, 0.5710740
1012.381, 1.527697
1012.863, 2.167166
1013.345, 1.953747
1013.827, 1.462975
1014.310, 1.241247
1014.792, 1.233372
1015.274, 1.427948
1015.756, 1.734377
1016.238, 1.879627
1016.720, 1.827654
1017.202, 1.773424
1017.684, 1.846977
1018.166, 1.835886
1018.649, 1.152014
1019.131, 1.480915
1019.613, 0.3869590
1020.095, 1.653313
1020.577, 2.508280
1021.059, 2.617359
1021.541, 2.246014
1022.023, 1.517401
1022.505, 0.7683580
1022.988, 0.7069570
1023.470, 1.271378
1023.952, 1.787352
1024.434, 2.261078
1024.916, 2.076523
1025.398, 0.9882240
1025.880, 8.9993998E-02
1026.362, 0.2466980
1026.845, 0.9987050
1027.327, 1.199089
1027.809, 0.7938800
1028.291, 0.6348610
1028.773, 0.7517430
1029.255, 0.9650440
1029.737, 1.268017
1030.219, 1.499352
1030.702, 1.495075
1031.184, 1.363033
1031.666, 1.432802
1032.148, 1.411663
1032.630, 1.326008
1033.112, 1.495039
1033.594, 1.263845
1034.076, 1.354843
1034.558, 1.490013
1035.041, 1.391348
1035.523, 1.180986
1036.005, 1.251829
1036.487, 1.709459
1036.969, 2.094412
1037.451, 2.618555
1037.933, 2.624069
1038.415, 1.399435
1038.897, 0.3121130
1039.380, 0.7633570
1039.862, 2.149584
1040.344, 2.365349
1040.826, 0.6751730
1041.308, 0.1016980
1041.790, 1.837183
1042.272, 2.824615
1042.754, 1.520878
1043.237, 2.6869001E-02
1043.719, 0.1571850
1044.201, 0.7121730
1044.683, 1.428358
1045.165, 2.074141
1045.647, 2.242081
1046.129, 1.395952
1046.611, 0.7683620
1047.094, 0.9928820
1047.576, 1.264042
1048.058, 0.7096370
1048.540, 0.2738610
1049.022, 0.5486390
1049.504, 0.1621930
1049.986, 0.8283080
1050.468, 1.508797
1050.950, 1.873632
1051.432, 1.595276
1051.915, 1.165813
1052.397, 0.9536510
1052.879, 0.9117980
1053.361, 0.8067300
1053.843, 0.5267580
1054.325, 0.6202490
1054.807, 1.873945
1055.289, 2.683714
1055.772, 2.051138
1056.254, 1.129969
1056.736, 0.8732800
1057.218, 1.071524
1057.700, 1.069342
1058.182, 0.7121720
1058.664, 0.6064620
1059.146, 1.255846
1059.629, 1.751894
1060.111, 1.632732
1060.593, 1.303835
1061.075, 0.9524230
1061.557, 0.7052230
1062.039, 0.8548890
1062.521, 1.475147
1063.003, 1.795515
1063.485, 1.172480
1063.968, 0.6979680
1064.450, 0.9673250
1064.932, 1.458815
1065.414, 1.984533
1065.896, 2.315813
1066.378, 1.897774
1066.860, 0.6839240
1067.342, 0.1174910
1067.824, 0.1915970
1068.307, 0.7013990
1068.789, 1.137030
1069.271, 1.483440
1069.753, 1.793264
1070.235, 1.989658
1070.717, 1.875818
1071.199, 1.455818
1071.681, 1.124502
1072.164, 1.059380
1072.646, 1.081720
1073.128, 1.297083
1073.610, 1.389153
1074.092, 0.9043240
1074.574, 0.2316670
1075.056, 3.4318998E-02
1075.538, 0.3579350
1076.021, 0.5905110
1076.503, 0.4702640
1076.985, 0.3563690
1077.467, 0.4327980
1077.949, 0.5633810
1078.431, 0.6773280
1078.913, 0.7630180
1079.395, 0.8433070
1079.877, 0.8953820
1080.359, 0.8048520
1080.842, 0.4753530
1081.324, 0.1609290
1081.806, 3.2717001E-02
1082.288, 0.1568550
1082.770, 0.3248650
1083.252, 0.3925150
1083.734, 5.2521002E-02
1084.216, 0.5607510
1084.698, 0.8676720
1085.181, 0.5969450
1085.663, 0.4698370
1086.145, 1.051296
1086.627, 1.598555
1087.109, 1.609194
1087.591, 1.391401
1088.073, 1.206747
1088.555, 1.114620
1089.038, 1.225813
1089.520, 1.618845
1090.002, 1.694431
1090.484, 0.6518780
1090.966, 5.4234002E-02
1091.448, 0.7630900
1091.930, 1.870420
1092.412, 2.144447
1092.895, 1.805929
1093.377, 1.474245
1093.859, 1.269407
1094.341, 1.134504
1094.823, 1.202848
1095.305, 1.127439
1095.787, 0.4790840
1096.269, 8.1382997E-02
1096.751, 0.3016870
1097.234, 1.011009
1097.716, 0.8740160
1098.198, 0.1675400
1098.680, 0.8312090
1099.162, 0.7342130
1099.644, 0.2214150
1100.126, 1.321671
1100.608, 2.459558
1101.090, 1.803604
1101.573, 0.5657250
1102.055, 0.4498810
1102.537, 1.337883
1103.019, 1.650799
1103.501, 0.6107620
1103.983, 8.4995002E-02
1104.465, 0.8167970
1104.947, 1.623039
1105.430, 2.272097
1105.912, 2.611370
1106.394, 2.348677
1106.876, 1.659971
1107.358, 1.160067
1107.840, 0.9145640
1108.322, 0.7171480
1108.804, 0.3036120
1109.286, 0.2461090
1109.769, 1.252710
1110.251, 2.167456
1110.733, 1.952312
1111.215, 1.070789
1111.697, 0.4256860
1112.179, 4.6041001E-02
1112.661, 0.1468890
1113.143, 1.365894
1113.625, 2.146975
1114.108, 1.990982
1114.590, 1.655806
1115.072, 1.497662
1115.554, 1.423565
1116.036, 1.247807
1116.518, 0.9803220
1117.000, 1.004951
1117.482, 1.717875
1117.965, 1.993294
1118.447, 1.435688
1118.929, 0.9799540
1119.411, 1.027328
1119.893, 1.252977
1120.375, 1.316578
1120.857, 1.286795
1121.339, 1.514034
1121.822, 2.319271
1122.304, 2.288864
1122.786, 0.7660390
1123.268, 1.3691000E-02
1123.750, 0.9609530
1124.232, 1.972298
1124.714, 1.661129
1125.196, 0.6083910
1125.678, 6.4222001E-02
1126.161, 4.2424999E-02
1126.643, 0.3234830
1127.125, 1.037014
1127.607, 1.526995
1128.089, 1.700159
1128.571, 1.530344
1129.053, 0.8591730
1129.535, 0.2647500
1130.017, 0.6284310
1130.500, 1.747614
1130.982, 2.362541
1131.464, 2.469492
1131.946, 1.905107
1132.428, 0.5578500
1132.910, 0.2155570
1133.392, 0.1382290
1133.874, 0.8432140
1134.357, 1.218731
1134.839, 1.319544
1135.321, 1.208988
1135.803, 0.9219190
1136.285, 0.8288040
1136.767, 0.9244140
1137.249, 1.005590
1137.731, 1.025675
1138.214, 1.040800
1138.696, 1.086437
1139.178, 1.134315
1139.660, 1.137747
1140.142, 1.109079
1140.624, 1.078438
1141.106, 1.065187
1141.588, 1.165632
1142.070, 1.351500
1142.552, 1.519850
1143.035, 1.628401
1143.517, 1.655987
1143.999, 1.580399
1144.481, 1.426294
1144.963, 1.227879
1145.445, 0.9749030
1145.927, 0.5375920
1146.409, 5.7123002E-02
1146.892, 5.9204001E-02
1147.374, 0.2164170
1147.856, 0.4601820
1148.338, 0.4144740
1148.820, 0.3790800
1149.302, 0.8129390
1149.784, 1.238474
1150.266, 0.8666610
1150.749, 0.3473830
1151.231, 1.023640
1151.713, 2.416983
1152.195, 2.626776
1152.677, 1.061367
1153.159, 0.2191600
1153.641, 0.1880680
1154.123, 0.8028130
1154.605, 0.9102820
1155.088, 0.7971530
1155.570, 0.5701540
1156.052, 0.3619580
1156.534, 0.3965660
1157.016, 0.7017270
1157.498, 0.9067960
1157.980, 0.7890570
1158.462, 0.7614400
1158.944, 1.081923
1159.427, 1.323723
1159.909, 1.390051
1160.391, 1.217932
1160.873, 0.4169180
1161.355, 0.6340750
1161.837, 0.7653450
1162.319, 0.3501450
1162.801, 1.218536
1163.284, 2.043306
1163.766, 2.233482
1164.248, 1.104143
1164.730, 0.2392770
1165.212, 0.6919400
1165.694, 1.604214
1166.176, 1.810045
1166.658, 1.377312
1167.141, 0.8856320
1167.623, 0.1995320
1168.105, 0.1550220
1168.587, 0.9841560
1169.069, 1.473730
1169.551, 1.182436
1170.033, 0.7685070
1170.515, 0.7548730
1170.997, 1.002386
1171.479, 1.228836
1171.962, 1.433607
1172.444, 1.678024
1172.926, 1.946751
1173.408, 1.763144
1173.890, 1.086245
1174.372, 0.7202150
1174.854, 1.042658
1175.336, 1.607668
1175.819, 2.022861
1176.301, 2.203552
1176.783, 1.794353
1177.265, 1.075001
1177.747, 0.8149530
1178.229, 0.9268380
1178.711, 0.8511140
1179.193, 0.5447270
1179.676, 0.6341710
1180.158, 1.534498
1180.640, 2.371054
1181.122, 2.161352
1181.604, 1.601416
1182.086, 1.368618
1182.568, 1.289984
1183.050, 1.127100
1183.532, 0.9313530
1184.015, 0.8747160
1184.497, 1.002651
1184.979, 1.241344
1185.461, 1.748587
1185.943, 2.032532
1186.425, 1.702909
1186.907, 1.261189
1187.389, 0.9426780
1187.871, 0.7689910
1188.354, 0.8498950
1188.836, 1.068998
1189.318, 0.9573990
1189.800, 1.144703
1190.282, 1.498573
1190.764, 1.232374
1191.246, 2.023043
1191.728, 1.920826
1192.211, 1.560362
1192.693, 1.067812
1193.175, 0.7308410
1193.657, 1.057203
1194.139, 1.934782
1194.621, 2.271133
1195.103, 1.858965
1195.585, 1.837679
1196.068, 2.359619
1196.550, 2.745047
1197.032, 2.792189
1197.514, 2.641418
1197.996, 2.358965
1198.478, 2.098902
1198.960, 2.211836
1199.442, 2.570072
1199.924, 2.487270
1200.406, 2.016336
1200.889, 1.361265
1201.371, 0.6219560
1201.853, 0.2930260
1202.335, 0.5215380
1202.817, 0.7498800
1203.299, 0.4553240
1203.781, 0.2289730
1204.263, 1.219534
1204.746, 2.499733
1205.228, 2.561470
1205.710, 1.906864
1206.192, 1.485037
1206.674, 1.417486
1207.156, 1.552032
1207.638, 1.832899
1208.120, 1.933964
1208.603, 1.543324
1209.085, 1.091246
1209.567, 0.6598830
1210.049, 0.3984430
1210.531, 0.6179940
1211.013, 0.9300250
1211.495, 0.7660200
1211.977, 0.2250820
1212.459, 0.1142370
1212.942, 0.7581900
1213.424, 1.175028
1213.906, 1.156630
1214.388, 1.103065
1214.870, 1.034277
1215.352, 1.037050
1215.834, 1.275442
1216.316, 1.481951
1216.798, 1.126297
1217.281, 0.3435100
1217.763, 1.1946000E-02
1218.245, 0.1636260
1218.727, 0.5206390
1219.209, 1.044991
1219.691, 1.598814
1220.173, 2.205574
1220.655, 2.458603
1221.138, 2.087116
1221.620, 1.514212
1222.102, 1.359846
1222.584, 1.451345
1223.066, 1.370855
1223.548, 1.153837
1224.030, 0.8558290
1224.512, 0.5135730
1224.995, 9.2248999E-02
1225.477, 0.3345600
1225.959, 0.2220880
1226.441, 0.9212650
1226.923, 1.895035
1227.405, 1.463326
1227.887, 0.7483710
1228.369, 0.6013050
1228.851, 0.7596000
1229.333, 1.088978
1229.816, 1.379177
1230.298, 1.153488
1230.780, 0.3728600
1231.262, 3.2692000E-02
1231.744, 0.8107590
1232.226, 1.319498
1232.708, 1.189400
1233.190, 1.006266
1233.673, 0.8883860
1234.155, 0.8927270
1234.637, 1.131252
1235.119, 1.454109
1235.601, 1.517689
1236.083, 1.668922
1236.565, 1.374725
1237.047, 1.733221
1237.530, 1.892052
1238.012, 1.805479
1238.494, 1.330135
1238.976, 0.3887580
1239.458, 0.2949890
1239.940, 0.1202200
1240.422, 0.5166550
1240.904, 1.093033
1241.386, 1.567179
1241.869, 1.844049
1242.351, 1.939001
1242.833, 1.853563
1243.315, 1.628963
1243.797, 1.326033
1244.279, 0.9901240
1244.761, 0.7933390
1245.243, 0.8757530
1245.725, 1.020580
1246.208, 1.211018
1246.690, 1.289598
1247.172, 0.9506440
1247.654, 0.6135480
1248.136, 0.7774640
1248.618, 1.270067
1249.100, 1.702229
1249.582, 2.054741
1250.065, 2.047747
1250.547, 1.406246
1251.029, 0.9242270
1251.511, 0.5819630
1251.993, 0.5377560
1252.475, 0.9606020
1252.957, 1.403677
1253.439, 1.542198
1253.922, 1.508554
1254.404, 1.607393
1254.886, 1.769194
1255.368, 1.339993
1255.850, 1.345270
1256.332, 1.320478
1256.814, 0.8193930
1257.296, 1.146053
1257.778, 0.9249630
1258.260, 0.6655290
1258.743, 0.6828560
1259.225, 0.8848720
1259.707, 1.413891
1260.189, 1.839413
1260.671, 1.434076
1261.153, 1.686016
1261.635, 0.8626460
1262.117, 1.279453
1262.600, 1.206373
1263.082, 0.6241130
1263.564, 0.4301800
1264.046, 1.286331
1264.528, 1.767914
1265.010, 1.051266
1265.492, 0.6384350
1265.974, 1.264767
1266.457, 1.911869
1266.939, 2.029779
1267.421, 1.771362
1267.903, 1.220865
1268.385, 0.5305140
1268.867, 0.6488530
1269.349, 1.628939
1269.831, 2.449577
1270.313, 3.071871
1270.796, 2.970156
1271.278, 2.077513
1271.760, 1.228186
1272.242, 0.8491570
1272.724, 0.6079900
1273.206, 8.9363001E-02
1273.688, 0.3294430
1274.170, 4.5968998E-02
1274.652, 0.7061750
1275.135, 0.9737470
1275.617, 0.9981250
1276.099, 1.144640
1276.581, 1.374168
1277.063, 1.383675
1277.545, 1.085619
1278.027, 0.7747920
1278.509, 0.4496190
1278.992, 0.2614900
1279.474, 0.3601110
1279.956, 0.4530960
1280.438, 0.3453160
1280.920, 2.4170000E-03
1281.402, 3.8277000E-02
1281.884, 0.2145250
1282.366, 0.5746780
1282.849, 0.5044380
1283.331, 1.054670
1283.813, 0.4708350
1284.295, 6.7371003E-02
1284.777, 6.7300000E-04
1285.259, 0.3390870
1285.741, 1.004826
1286.223, 1.333929
1286.705, 1.000917
1287.188, 0.0000000E+00
##END=



