##NAMES=Likasite
##RRUFFID=R090009
##IDEAL CHEMISTRY=Cu^2+^_3_N^5+^O_3_(OH)_5_&#183;2H_2_O
##LOCALITY=Likasi Mine, Jadotville, Katanga, Zaire
##OWNER=RRUFF
##SOURCE=William W. Pinch
##DESCRIPTION=Electric blue acicular crystals in a vug on cuprite matrix.
##STATUS=The identification of this mineral has been confirmed by single-crystal X-ray diffraction.
##URL=rruff.info/R090009
159.3912, 0.0000000E+00
159.8733, 0.7660370
160.3554, 0.8540420
160.8375, 0.3930050
161.3196, 0.4150240
161.8017, 1.183365
162.2839, 3.476097
162.7660, 4.341934
163.2481, 4.420586
163.7302, 4.039703
164.2123, 2.476746
164.6944, 0.6375120
165.1766, 0.2950550
165.6587, 0.3773350
166.1408, 2.360207
166.6229, 3.784943
167.1050, 4.992287
167.5871, 5.391869
168.0693, 4.952129
168.5514, 4.053909
169.0335, 3.739948
169.5156, 4.806908
169.9977, 7.093636
170.4798, 7.956745
170.9620, 5.648716
171.4441, 3.813938
171.9262, 4.975197
172.4083, 8.468575
172.8904, 10.81531
173.3725, 8.937294
173.8547, 3.374176
174.3368, 1.9653000E-02
174.8189, 0.2059970
175.3010, 1.671280
175.7831, 2.252651
176.2652, 1.989719
176.7474, 2.119377
177.2295, 3.515095
177.7116, 5.683311
178.1937, 7.002983
178.6758, 7.468559
179.1579, 7.106445
179.6401, 5.750214
180.1222, 4.049660
180.6043, 2.720890
181.0864, 2.458862
181.5685, 2.841961
182.0506, 3.269505
182.5328, 3.209141
183.0149, 2.847736
183.4970, 2.909477
183.9791, 3.784569
184.4612, 4.570549
184.9433, 4.815151
185.4255, 4.705185
185.9076, 4.651585
186.3897, 5.073460
186.8718, 5.849888
187.3539, 5.804104
187.8360, 3.708965
188.3182, 2.018845
188.8003, 1.789345
189.2824, 2.544380
189.7645, 3.198479
190.2466, 2.752113
190.7287, 1.104919
191.2109, 0.8056980
191.6930, 4.124569
192.1751, 6.618145
192.6572, 6.061386
193.1393, 3.263889
193.6214, 0.5459140
194.1036, 1.1375000E-02
194.5857, 1.898457
195.0678, 3.622883
195.5499, 6.272083
196.0320, 7.853352
196.5141, 6.673962
196.9963, 3.220985
197.4784, 0.3939970
197.9605, 2.322777
198.4426, 2.360115
198.9247, 1.091881
199.4068, 3.263306
199.8890, 7.452614
200.3711, 9.070740
200.8532, 8.033318
201.3353, 6.229416
201.8174, 5.389690
202.2995, 5.579029
202.7817, 5.172878
203.2638, 3.452427
203.7459, 1.491783
204.2280, 0.2826540
204.7101, 6.0879000E-02
205.1922, 2.8835000E-02
205.6744, 0.2543180
206.1565, 0.6132850
206.6386, 1.118080
207.1207, 1.946354
207.6028, 2.855400
208.0849, 3.584480
208.5671, 4.174091
209.0492, 4.393730
209.5313, 3.608543
210.0134, 2.280319
210.4955, 1.435791
210.9776, 1.878197
211.4598, 3.007904
211.9419, 3.372471
212.4240, 2.527721
212.9061, 1.822430
213.3882, 2.473827
213.8703, 3.807129
214.3525, 4.522556
214.8346, 3.401356
215.3167, 1.152916
215.7988, 0.5662920
216.2809, 2.902199
216.7630, 4.989281
217.2451, 5.429070
217.7273, 4.729389
218.2094, 3.856945
218.6915, 3.299297
219.1736, 3.054195
219.6557, 3.150570
220.1378, 3.922726
220.6200, 4.633511
221.1021, 5.035622
221.5842, 5.229702
222.0663, 5.456703
222.5484, 5.955219
223.0305, 6.592693
223.5127, 6.333855
223.9948, 3.400093
224.4769, 1.397182
224.9590, 1.607517
225.4411, 3.222088
225.9232, 4.860676
226.4054, 5.630424
226.8875, 5.585602
227.3696, 5.379654
227.8517, 5.042934
228.3338, 4.504620
228.8159, 3.173153
229.2981, 1.664608
229.7802, 1.192787
230.2623, 2.667622
230.7444, 5.816696
231.2265, 7.473412
231.7086, 6.664658
232.1908, 5.534725
232.6729, 4.354298
233.1550, 3.305264
233.6371, 2.616024
234.1192, 2.453648
234.6013, 2.754921
235.0835, 3.073494
235.5656, 3.192234
236.0477, 3.544334
236.5298, 4.623104
237.0119, 6.040257
237.4940, 6.860931
237.9762, 6.421448
238.4583, 5.114754
238.9404, 4.835052
239.4225, 4.927666
239.9046, 8.183006
240.3867, 5.960670
240.8689, 8.336376
241.3510, 9.674072
241.8331, 10.03296
242.3152, 6.470451
242.7973, 7.974350
243.2794, 7.447151
243.7616, 6.836224
244.2437, 9.051811
244.7258, 6.057587
245.2079, 8.227375
245.6900, 8.333073
246.1721, 9.374405
246.6543, 8.370514
247.1364, 8.001858
247.6185, 9.679398
248.1006, 10.22305
248.5827, 8.976971
249.0648, 10.06529
249.5470, 6.994980
250.0291, 7.590515
250.5112, 9.767559
250.9933, 8.636295
251.4754, 9.758213
251.9576, 9.995602
252.4397, 6.341057
252.9218, 9.534523
253.4039, 9.759079
253.8860, 6.945099
254.3681, 9.893063
254.8503, 7.495522
255.3324, 6.948063
255.8145, 7.715225
256.2966, 6.983971
256.7787, 8.691772
257.2608, 8.295170
257.7430, 7.770065
258.2251, 8.092709
258.7072, 7.491703
259.1893, 8.160740
259.6714, 7.341042
260.1535, 8.102699
260.6357, 9.222389
261.1178, 7.596241
261.5999, 8.869125
262.0820, 5.624409
262.5641, 6.141212
263.0462, 6.257038
263.5284, 8.787224
264.0105, 5.567253
264.4926, 5.995697
264.9747, 7.979061
265.4568, 7.794506
265.9389, 8.517639
266.4211, 6.552673
266.9032, 7.112041
267.3853, 6.975006
267.8674, 9.240211
268.3495, 9.603004
268.8316, 7.677666
269.3138, 5.765121
269.7959, 8.203598
270.2780, 6.516670
270.7601, 7.051483
271.2422, 5.290638
271.7243, 5.514004
272.2065, 5.705425
272.6886, 6.913521
273.1707, 6.737141
273.6528, 7.146564
274.1349, 6.957417
274.6170, 7.072544
275.0992, 7.035007
275.5813, 6.943794
276.0634, 6.637630
276.5455, 5.914249
277.0276, 5.366463
277.5097, 5.333412
277.9919, 5.389881
278.4740, 4.982231
278.9561, 3.919186
279.4382, 2.778397
279.9203, 2.842934
280.4024, 5.249928
280.8846, 6.395382
281.3667, 4.922039
281.8488, 2.907249
282.3309, 1.829411
282.8130, 2.071953
283.2951, 3.089123
283.7773, 4.209351
284.2594, 5.733627
284.7415, 6.507919
285.2236, 6.021267
285.7057, 5.276649
286.1878, 4.895454
286.6700, 4.951725
287.1521, 5.043285
287.6342, 4.655651
288.1163, 3.693474
288.5984, 2.803211
289.0805, 1.530102
289.5627, 0.7169800
290.0448, 1.054928
290.5269, 2.311703
291.0090, 3.627617
291.4911, 4.200939
291.9732, 3.962738
292.4554, 3.849937
292.9375, 4.301792
293.4196, 4.441608
293.9017, 3.572147
294.3838, 2.149197
294.8659, 1.139965
295.3481, 1.250793
295.8302, 2.412010
296.3123, 3.677658
296.7944, 6.279430
297.2765, 7.630138
297.7586, 6.219795
298.2408, 3.421322
298.7229, 1.252335
299.2050, 0.8415950
299.6871, 1.811752
300.1692, 2.738678
300.6513, 3.929184
301.1335, 4.657707
301.6156, 4.603661
302.0977, 4.164047
302.5798, 3.748196
303.0619, 3.520912
303.5440, 3.391834
304.0262, 3.167351
304.5083, 2.799450
304.9904, 2.398071
305.4725, 1.634850
305.9546, 1.038792
306.4367, 1.220150
306.9189, 2.273472
307.4010, 3.571510
307.8831, 4.225147
308.3652, 4.098705
308.8473, 3.465763
309.3294, 1.393497
309.8116, 0.3594360
310.2937, 0.3414080
310.7758, 1.259151
311.2579, 2.971272
311.7400, 3.269547
312.2221, 1.881062
312.7043, 1.028511
313.1864, 1.395859
313.6685, 1.549042
314.1506, 0.4117050
314.6327, 1.459927
315.1148, 2.642418
315.5970, 2.034630
316.0791, 3.401956
316.5612, 2.234913
317.0433, 4.578777
317.5254, 6.019657
318.0075, 5.873932
318.4897, 4.783321
318.9718, 3.601696
319.4539, 2.752544
319.9360, 2.251606
320.4181, 2.156326
320.9002, 2.971928
321.3824, 3.578342
321.8645, 4.051727
322.3466, 4.231045
322.8287, 3.713924
323.3108, 2.438393
323.7929, 1.078941
324.2751, 0.9054150
324.7572, 3.128899
325.2393, 4.184975
325.7214, 3.283512
326.2035, 1.977592
326.6856, 1.172234
327.1678, 1.055027
327.6499, 1.446449
328.1320, 2.234692
328.6141, 3.598869
329.0962, 4.457520
329.5783, 4.642620
330.0605, 4.562302
330.5426, 4.235649
331.0247, 3.772423
331.5068, 3.420132
331.9889, 3.421856
332.4710, 3.724464
332.9532, 3.454712
333.4353, 1.130013
333.9174, 0.1580700
334.3995, 1.123135
334.8816, 3.581100
335.3637, 5.214233
335.8459, 4.993023
336.3280, 3.501186
336.8101, 2.452251
337.2922, 1.913071
337.7743, 1.784260
338.2564, 2.627735
338.7386, 3.531868
339.2206, 3.543400
339.7028, 2.429657
340.1849, 0.8975600
340.6670, 4.5485999E-02
341.1491, 0.2784730
341.6312, 0.1707690
342.1133, 0.8101500
342.5955, 0.5709052
343.0776, 1.465527
343.5597, 0.4827650
344.0418, 0.4945530
344.5239, 0.6688770
345.0060, 5.7179998E-03
345.4882, 0.6700670
345.9703, 1.165638
346.4524, 1.815140
346.9345, 3.058849
347.4166, 4.486794
347.8987, 5.316055
348.3809, 4.981937
348.8630, 3.833584
349.3451, 3.308468
349.8272, 3.707249
350.3093, 4.313766
350.7914, 5.604752
351.2736, 6.720947
351.7557, 6.531845
352.2378, 4.665588
352.7199, 2.319664
353.2020, 1.456921
353.6841, 2.507145
354.1663, 3.191338
354.6484, 2.907356
355.1305, 2.470821
355.6126, 2.271862
356.0947, 2.378094
356.5768, 2.722919
357.0590, 3.488251
357.5411, 4.719627
358.0232, 5.033199
358.5053, 3.358063
358.9874, 1.931694
359.4695, 1.811909
359.9517, 2.625072
360.4338, 3.585064
360.9159, 4.349270
361.3980, 4.861431
361.8801, 4.949642
362.3622, 4.571781
362.8444, 3.835918
363.3265, 2.351288
363.8086, 0.7493130
364.2907, 0.3688620
364.7728, 0.8489530
365.2549, 0.7162510
365.7371, 1.604152
366.2192, 1.926224
366.7013, 3.670425
367.1834, 5.690533
367.6655, 6.953400
368.1476, 6.230846
368.6298, 3.651230
369.1119, 1.428898
369.5940, 1.581417
370.0761, 3.581635
370.5582, 4.909012
371.0403, 5.221123
371.5225, 5.139870
372.0046, 5.075603
372.4867, 4.802696
372.9688, 3.986237
373.4509, 2.057816
373.9330, 0.1084250
374.4152, 0.3354000
374.8973, 0.8537180
375.3794, 2.530388
375.8615, 4.754509
376.3436, 6.816582
376.8257, 7.570293
377.3079, 6.651978
377.7900, 5.499229
378.2721, 4.920269
378.7542, 4.963646
379.2363, 4.910610
379.7184, 4.572201
380.2006, 4.046471
380.6827, 3.299671
381.1648, 2.322041
381.6469, 1.772499
382.1290, 2.157127
382.6111, 2.972027
383.0933, 3.585621
383.5754, 3.933384
384.0575, 3.963902
384.5396, 3.428993
385.0217, 2.547916
385.5038, 2.182034
385.9860, 3.259396
386.4681, 4.197731
386.9502, 3.693115
387.4323, 2.158672
387.9144, 1.044552
388.3965, 1.070187
388.8787, 1.897659
389.3608, 2.766933
389.8429, 4.102112
390.3250, 4.652390
390.8071, 3.319031
391.2892, 1.429150
391.7714, 0.6664540
392.2535, 1.405712
392.7356, 2.734688
393.2177, 3.669910
393.6998, 4.187256
394.1819, 4.241051
394.6641, 3.577892
395.1462, 2.723747
395.6283, 1.563423
396.1104, 0.4232750
396.5925, 0.2524720
397.0746, 1.879684
397.5568, 4.758797
398.0389, 5.840240
398.5210, 2.487236
399.0031, 0.4688990
399.4852, 1.550117
399.9673, 3.812603
400.4495, 4.986214
400.9316, 4.428364
401.4137, 3.170685
401.8958, 2.826969
402.3779, 4.004604
402.8600, 4.540863
403.3422, 3.864956
403.8243, 3.099144
404.3064, 2.769936
404.7885, 2.860428
405.2706, 3.122532
405.7527, 3.391956
406.2349, 3.661354
406.7170, 3.849091
407.1991, 3.823677
407.6812, 3.908535
408.1633, 4.763737
408.6454, 5.512791
409.1276, 4.839600
409.6097, 2.229649
410.0918, 0.7286800
410.5739, 1.467430
411.0560, 0.4934690
411.5381, 2.126621
412.0203, 3.047588
412.5024, 3.428177
412.9845, 3.065357
413.4666, 2.134121
413.9487, 1.348717
414.4308, 1.422565
414.9130, 2.034805
415.3951, 2.305683
415.8772, 2.161434
416.3593, 2.091450
416.8414, 2.463879
417.3235, 3.046307
417.8057, 3.527885
418.2878, 3.793964
418.7699, 4.020874
419.2520, 4.643597
419.7341, 5.552608
420.2162, 5.517376
420.6984, 3.581146
421.1805, 1.321720
421.6626, 1.105682
422.1447, 2.913433
422.6268, 3.968349
423.1089, 2.413567
423.5911, 3.2879999E-03
424.0732, 0.9632340
424.5553, 0.2337680
425.0374, 1.327904
425.5195, 3.530575
426.0016, 6.057674
426.4838, 7.104179
426.9659, 5.763409
427.4480, 3.957756
427.9301, 2.123634
428.4122, 0.4883580
428.8943, 0.5271260
429.3765, 0.7824710
429.8586, 0.2479100
430.3407, 1.241203
430.8228, 4.555637
431.3049, 6.897617
431.7870, 7.996399
432.2692, 8.263371
432.7513, 8.057682
433.2334, 7.359802
433.7155, 5.750950
434.1976, 2.565155
434.6797, 1.891804
435.1619, 3.078693
435.6440, 3.610828
436.1261, 8.313828
436.6082, 8.323509
437.0903, 5.970806
437.5724, 3.774071
438.0546, 2.674866
438.5367, 2.380062
439.0188, 2.538681
439.5009, 3.345310
439.9830, 3.975616
440.4651, 4.948788
440.9473, 5.254017
441.4294, 3.549858
441.9115, 0.6706200
442.3936, 1.041420
442.8757, 0.4062770
443.3578, 3.895115
443.8400, 5.514107
444.3221, 4.644550
444.8042, 3.449837
445.2863, 2.199055
445.7684, 1.247368
446.2505, 1.107430
446.7327, 1.926182
447.2148, 2.937092
447.6969, 3.401340
448.1790, 3.442219
448.6611, 3.805180
449.1432, 4.747665
449.6254, 5.733463
450.1075, 6.553535
450.5896, 7.107967
451.0717, 6.918533
451.5538, 5.292244
452.0359, 3.270691
452.5181, 1.588936
453.0002, 0.3054280
453.4823, 9.0919003E-02
453.9644, 0.8493350
454.4465, 2.524139
454.9286, 3.695896
455.4108, 4.532101
455.8929, 4.530079
456.3750, 2.517166
456.8571, 0.1659620
457.3392, 0.3348620
457.8214, 1.161682
458.3035, 2.759293
458.7856, 2.691650
459.2677, 0.9298900
459.7498, 9.0453997E-02
460.2319, 0.5250470
460.7141, 1.310020
461.1962, 2.736267
461.6783, 4.182804
462.1604, 4.631973
462.6425, 3.729603
463.1246, 2.292664
463.6068, 1.807777
464.0889, 2.932198
464.5710, 3.262966
465.0531, 1.641514
465.5352, 0.3486670
466.0173, 0.9171680
466.4995, 2.764015
466.9816, 4.107864
467.4637, 3.553307
467.9458, 1.874432
468.4279, 2.107624
468.9100, 5.520508
469.3922, 8.025078
469.8743, 8.337669
470.3564, 7.325668
470.8385, 4.932823
471.3206, 1.224625
471.8027, 1.607990
472.2849, 1.272865
472.7670, 1.426727
473.2491, 3.459999
473.7312, 4.497379
474.2133, 5.037968
474.6954, 5.213631
475.1776, 5.162334
475.6597, 5.208122
476.1418, 5.590282
476.6239, 5.848824
477.1060, 5.591366
477.5881, 4.945713
478.0703, 4.298996
478.5524, 3.800522
479.0345, 3.262196
479.5166, 2.245132
479.9987, 0.4216840
480.4808, 0.2040290
480.9630, 1.715836
481.4451, 3.805759
481.9272, 4.107307
482.4093, 3.161507
482.8914, 2.867512
483.3735, 4.454842
483.8557, 7.115829
484.3378, 7.920486
484.8199, 4.564766
485.3020, 2.615379
485.7841, 3.571896
486.2662, 5.032200
486.7484, 4.641518
487.2305, 2.518162
487.7126, 0.9369890
488.1947, 2.341438
488.6768, 6.388302
489.1589, 8.062309
489.6411, 5.707146
490.1232, 3.552887
490.6053, 3.202507
491.0874, 3.614349
491.5695, 3.399956
492.0516, 2.096432
492.5338, 0.9943430
493.0159, 2.238007
493.4980, 5.750835
493.9801, 7.875195
494.4622, 7.748043
494.9443, 6.863209
495.4265, 6.245018
495.9086, 5.832947
496.3907, 5.494267
496.8728, 5.031158
497.3549, 4.776386
497.8370, 5.352882
498.3192, 6.454224
498.8013, 6.869396
499.2834, 6.057701
499.7655, 4.562065
500.2476, 3.008297
500.7297, 1.259857
501.2119, 0.6812290
501.6940, 2.393269
502.1761, 4.452316
502.6582, 5.431644
503.1403, 5.502716
503.6224, 5.750004
504.1045, 6.927864
504.5866, 8.526833
505.0688, 8.608150
505.5509, 5.109787
506.0330, 3.378113
506.5151, 5.355526
506.9972, 7.823711
507.4793, 8.199150
507.9615, 6.504875
508.4436, 4.634567
508.9257, 4.168594
509.4078, 4.891037
509.8899, 5.543457
510.3720, 6.207207
510.8542, 6.619438
511.3363, 6.491936
511.8184, 6.181496
512.3005, 5.968941
512.7827, 5.906151
513.2648, 5.946609
513.7469, 6.189003
514.2290, 6.506908
514.7111, 6.401951
515.1932, 5.663059
515.6754, 5.181904
516.1575, 5.993305
516.6396, 7.609646
517.1217, 7.811272
517.6038, 4.772568
518.0859, 2.340626
518.5681, 2.794418
519.0502, 4.864506
519.5323, 6.574970
520.0144, 7.361881
520.4965, 7.351143
520.9786, 6.559494
521.4608, 4.726868
521.9429, 3.719475
522.4250, 4.064194
522.9071, 4.510384
523.3892, 4.779411
523.8713, 4.812405
524.3535, 4.469536
524.8356, 1.455654
525.3177, 4.233475
525.7998, 5.790630
526.2819, 6.192951
526.7640, 1.979069
527.2462, 3.726421
527.7283, 3.084972
528.2104, 2.345703
528.6925, 4.932468
529.1746, 1.390724
529.6567, 3.835823
530.1389, 3.883114
530.6210, 5.228004
531.1031, 4.220028
531.5852, 3.938328
532.0673, 5.995857
532.5494, 6.627449
533.0316, 5.166927
533.5137, 6.457493
533.9958, 2.833080
534.4779, 3.521843
534.9600, 6.071621
535.4421, 4.732548
535.9243, 6.067642
536.4064, 6.384438
536.8885, 2.073044
537.3706, 5.810871
537.8527, 6.067852
538.3348, 2.747173
538.8170, 6.209557
539.2991, 3.385574
539.7812, 2.806023
540.2633, 3.915497
540.7454, 3.264671
541.2275, 5.389694
541.7097, 4.841434
542.1918, 4.054848
542.6739, 4.310940
543.1560, 3.605671
543.6381, 4.395679
544.1202, 3.434814
544.6024, 4.335297
545.0845, 5.658043
545.5666, 3.751263
546.0487, 5.313595
546.5308, 1.536465
547.0129, 2.183655
547.4951, 2.353184
547.9772, 5.358768
548.4593, 1.595242
548.9414, 2.120457
549.4235, 4.493282
549.9056, 4.293682
550.3878, 5.158936
550.8699, 2.863308
551.3520, 3.538158
551.8341, 3.394360
552.3162, 6.079926
552.7983, 6.532707
553.2805, 4.292530
553.7626, 0.3431700
554.2447, 2.886524
554.7268, 3.020477
555.2089, 4.240211
555.6910, 3.056347
556.1732, 2.614986
556.6553, 4.578201
557.1374, 5.210121
557.6195, 3.749939
558.1016, 5.041161
558.5837, 1.417408
559.0659, 2.106789
559.5480, 4.657158
560.0301, 3.318653
560.5122, 4.654285
560.9943, 4.971577
561.4764, 0.6606480
561.9586, 4.398884
562.4407, 4.656250
562.9228, 1.339493
563.4049, 4.802193
563.8870, 1.978348
564.3691, 1.398514
564.8513, 2.507473
565.3334, 1.856094
565.8155, 3.980312
566.2976, 3.430737
566.7797, 2.642349
567.2618, 2.896603
567.7440, 2.189457
568.2261, 2.977539
568.7082, 2.014679
569.1903, 2.912952
569.6724, 4.233105
570.1545, 2.323505
570.6367, 3.833317
571.1188, 4.0607002E-02
571.6009, 0.6848340
572.0830, 0.8513600
572.5651, 3.853912
573.0472, 8.7429002E-02
573.5294, 0.6087720
574.0115, 2.955845
574.4936, 2.748455
574.9757, 3.609180
575.4578, 1.308060
575.9399, 1.977383
576.4221, 1.827999
576.9042, 4.507923
577.3863, 4.954334
577.8684, 2.707150
578.3505, 0.4714360
578.8326, 3.355167
579.3148, 1.386791
579.7969, 2.036900
580.2790, 1.6052000E-02
580.7611, 0.2653620
581.2432, 0.5098040
581.7253, 1.950924
582.2075, 2.990959
582.6896, 2.345745
583.1717, 1.337246
583.6538, 1.432735
584.1359, 2.855293
584.6180, 3.787247
585.1002, 4.087048
585.5823, 4.031956
586.0643, 3.794235
586.5464, 3.235901
587.0286, 1.959164
587.5107, 0.2236440
587.9928, 2.208714
588.4749, 3.008804
588.9570, 2.743317
589.4391, 1.696026
589.9213, 2.646061
590.4034, 2.244534
590.8855, 3.607441
591.3676, 4.423866
591.8497, 5.025917
592.3318, 5.615108
592.8140, 5.673687
593.2961, 4.717712
593.7782, 3.329185
594.2603, 1.944672
594.7424, 0.7485350
595.2245, 0.1386380
595.7067, 0.5515670
596.1888, 1.722153
596.6709, 2.066463
597.1530, 0.7661630
597.6351, 6.5033004E-02
598.1172, 0.5872340
598.5994, 1.521626
599.0815, 2.263481
599.5636, 2.747257
600.0457, 3.252598
600.5278, 4.427620
601.0099, 5.669243
601.4921, 5.713470
601.9742, 4.547115
602.4563, 3.014683
602.9384, 0.9538420
603.4205, 0.7190550
603.9026, 0.1244620
604.3848, 2.846375
604.8669, 4.476158
605.3490, 3.262417
605.8311, 1.499416
606.3132, 0.2698330
606.7953, 0.1696400
607.2775, 0.1371960
607.7596, 1.421650
608.2417, 3.067509
608.7238, 4.118309
609.2059, 4.492321
609.6880, 4.691841
610.1702, 5.220070
610.6523, 5.101631
611.1344, 2.862110
611.6165, 0.2629850
612.0986, 2.8709000E-02
612.5807, 2.911953
613.0629, 6.018208
613.5450, 6.041279
614.0271, 3.932014
614.5092, 2.925228
614.9913, 1.248047
615.4734, 4.060493
615.9556, 5.651711
616.4377, 6.087345
616.9198, 1.906521
617.4019, 3.686707
617.8840, 3.077873
618.3661, 2.370983
618.8483, 4.989918
619.3304, 1.480106
619.8125, 4.046104
620.2946, 4.186630
620.7767, 5.437096
621.2589, 4.283791
621.7410, 3.872810
622.2231, 5.866199
622.7052, 6.528122
623.1873, 5.097744
623.6694, 6.418228
624.1516, 2.823833
624.6337, 3.542377
625.1158, 6.121727
625.5979, 4.812012
626.0800, 6.176239
626.5621, 6.521942
627.0443, 2.239239
627.5264, 6.005531
628.0085, 6.290756
628.4906, 3.001682
628.9727, 6.491810
629.4548, 3.695271
629.9370, 3.142551
630.4191, 4.278450
630.9012, 3.653801
631.3833, 5.804558
631.8654, 5.281361
632.3475, 4.519154
632.8297, 4.799381
633.3118, 4.118027
633.7939, 4.931725
634.2760, 3.994274
634.7581, 4.917694
635.2402, 6.262806
635.7224, 4.377979
636.2045, 5.912373
636.6866, 2.158955
637.1687, 2.989449
637.6508, 3.287865
638.1329, 6.314899
638.6151, 2.571892
639.0972, 3.116512
639.5793, 5.486664
640.0614, 5.302139
640.5435, 6.185539
641.0256, 3.906887
641.5078, 4.598473
641.9899, 4.471157
642.4720, 7.172939
642.9541, 7.641018
643.4362, 5.415298
643.9183, 3.200855
644.4005, 6.105667
644.8826, 4.158108
645.3647, 4.822166
645.8468, 2.662819
646.3289, 2.786991
646.8110, 2.890270
647.2932, 4.255424
647.7753, 4.028107
648.2574, 4.624458
648.7395, 4.441792
649.2216, 5.060349
649.7037, 5.589634
650.1859, 5.928596
650.6680, 5.396400
651.1501, 6.493637
651.6322, 4.117050
652.1143, 3.058376
652.5964, 2.936527
653.0786, 2.498039
653.5607, 7.426178
654.0428, 2.702877
654.5249, 4.680435
655.0070, 3.527905
655.4891, 1.268879
655.9713, 0.2560620
656.4534, 1.153931
656.9355, 1.111221
657.4176, 1.119499
657.8997, 3.889202
658.3818, 5.193813
658.8640, 4.698093
659.3461, 3.798985
659.8282, 2.691921
660.3103, 1.787132
660.7924, 1.570412
661.2745, 1.951134
661.7567, 2.962048
662.2388, 4.667950
662.7209, 6.101025
663.2030, 5.136738
663.6851, 0.2254750
664.1672, 2.006039
664.6494, 1.010883
665.1315, 3.952553
665.6136, 5.495014
666.0957, 5.677917
666.5778, 4.179546
667.0599, 0.8162230
667.5421, 1.980198
668.0242, 1.644260
668.5063, 0.7354890
668.9884, 2.612350
669.4705, 3.800755
669.9526, 4.684406
670.4348, 5.602795
670.9169, 6.202301
671.3990, 5.566479
671.8811, 2.419510
672.3632, 1.256226
672.8453, 4.291752
673.3275, 7.216682
673.8096, 7.507698
674.2917, 6.065308
674.7738, 4.528038
675.2559, 3.549606
675.7380, 3.188808
676.2202, 3.817005
676.7023, 5.294758
677.1844, 6.263165
677.6665, 6.732235
678.1486, 6.425735
678.6307, 4.481384
679.1129, 2.079205
679.5950, 1.633450
680.0771, 3.710976
680.5592, 5.146065
681.0413, 4.799461
681.5234, 3.916916
682.0056, 2.945374
682.4877, 2.160004
682.9698, 1.880554
683.4519, 2.240501
683.9340, 2.982082
684.4161, 3.923218
684.8983, 5.160751
685.3804, 5.297688
685.8625, 3.511032
686.3446, 2.071098
686.8267, 2.401592
687.3088, 3.375610
687.7910, 3.561012
688.2731, 2.698147
688.7552, 2.446144
689.2373, 4.325932
689.7194, 6.599613
690.2015, 7.486336
690.6837, 7.117008
691.1658, 6.066502
691.6479, 4.545269
692.1300, 3.142086
692.6121, 2.908306
693.0942, 4.203758
693.5764, 4.022251
694.0585, 0.3278960
694.5406, 2.084438
695.0227, 1.224014
695.5048, 1.114243
695.9869, 3.253498
696.4691, 4.898529
696.9512, 6.121887
697.4333, 7.199535
697.9154, 7.742393
698.3975, 6.758869
698.8796, 4.611942
699.3618, 3.112213
699.8439, 2.930592
700.3260, 3.586437
700.8081, 4.563667
701.2902, 5.947933
701.7723, 6.839371
702.2545, 7.567848
702.7366, 7.359150
703.2187, 4.827469
703.7008, 2.074657
704.1829, 1.470474
704.6650, 3.021072
705.1472, 4.415852
705.6293, 3.658943
706.1114, 2.184437
706.5935, 2.572372
707.0756, 4.497284
707.5577, 5.774067
708.0399, 5.805820
708.5220, 5.310238
709.0041, 5.013912
709.4862, 5.009911
709.9683, 5.301552
710.4504, 6.637508
710.9326, 7.273369
711.4147, 6.372112
711.8968, 5.058334
712.3789, 4.123013
712.8610, 3.713146
713.3431, 3.933636
713.8253, 5.065022
714.3074, 6.265892
714.7895, 5.927471
715.2716, 4.393639
715.7537, 3.844318
716.2358, 5.001026
716.7180, 6.376484
717.2001, 6.775967
717.6822, 6.315269
718.1643, 5.739025
718.6464, 4.641766
719.1285, 4.011528
719.6107, 4.373497
720.0928, 4.867229
720.5749, 4.949013
721.0570, 4.616241
721.5391, 3.939240
722.0212, 2.761311
722.5034, 1.883018
722.9855, 2.080017
723.4676, 3.117054
723.9497, 3.475262
724.4318, 2.873737
724.9139, 2.300640
725.3961, 2.112530
725.8782, 2.483162
726.3603, 3.665009
726.8424, 6.444439
727.3245, 7.798283
727.8066, 6.228535
728.2888, 4.530380
728.7709, 4.429131
729.2530, 5.284294
729.7351, 5.799870
730.2172, 5.533909
730.6993, 5.059052
731.1815, 4.836620
731.6636, 4.863262
732.1457, 5.110733
732.6278, 5.609261
733.1099, 5.830818
733.5920, 5.435501
734.0742, 4.848328
734.5563, 4.835602
735.0384, 5.664089
735.5205, 5.626404
736.0026, 3.693268
736.4847, 2.112625
736.9669, 2.185036
737.4490, 0.9398807
737.9311, 2.126999
738.4132, 0.2845880
738.8953, 0.7529560
739.3774, 1.129364
739.8596, 4.344444
740.3417, 5.551392
740.8238, 4.848244
741.3059, 3.534557
741.7880, 1.680515
742.2701, 0.2954060
742.7523, 0.5421600
743.2344, 2.282883
743.7165, 3.379471
744.1986, 3.639095
744.6807, 3.573078
745.1628, 2.586308
745.6450, 1.835995
746.1271, 2.396976
746.6092, 3.983139
747.0913, 5.742710
747.5734, 7.455391
748.0555, 8.387981
748.5377, 6.909286
749.0198, 3.810650
749.5019, 2.130928
749.9840, 2.252403
750.4661, 3.158344
750.9482, 4.406570
751.4304, 5.806976
751.9125, 6.963154
752.3946, 8.210083
752.8767, 8.096302
753.3588, 5.119968
753.8409, 2.557220
754.3231, 2.046642
754.8052, 2.702278
755.2873, 3.230995
755.7694, 3.321663
756.2515, 3.502045
756.7336, 4.632381
757.2158, 5.873447
757.6979, 5.382908
758.1800, 3.500740
758.6621, 2.460484
759.1442, 3.084610
759.6263, 4.311729
760.1085, 4.980072
760.5906, 5.087757
761.0727, 4.621456
761.5548, 2.638336
762.0369, 1.502445
762.5190, 2.047649
763.0012, 3.112057
763.4833, 4.421272
763.9654, 5.548996
764.4475, 5.145981
764.9296, 1.573128
765.4117, 1.728012
765.8939, 1.567497
766.3760, 0.7200200
766.8581, 3.030624
767.3402, 4.933151
767.8223, 6.095242
768.3044, 6.302551
768.7866, 5.677254
769.2687, 4.396347
769.7508, 2.149357
770.2329, 0.3615420
770.7150, 0.9444500
771.1971, 1.765667
771.6793, 2.196487
772.1614, 2.124523
772.6435, 1.259590
773.1256, 0.4988630
773.6077, 2.322342
774.0898, 4.448891
774.5720, 6.009296
775.0541, 5.985180
775.5362, 4.918518
776.0183, 3.810524
776.5004, 3.002171
776.9825, 2.478355
777.4647, 2.233864
777.9468, 2.256638
778.4289, 2.592407
778.9110, 3.377274
779.3931, 3.725632
779.8752, 3.223770
780.3574, 2.539421
780.8395, 2.373642
781.3216, 2.570362
781.8037, 2.319500
782.2858, 0.8463550
782.7679, 4.7699999E-04
783.2501, 0.8026050
783.7322, 1.934601
784.2143, 2.252029
784.6964, 1.939976
785.1785, 1.865955
785.6606, 2.448006
786.1428, 2.977798
786.6249, 2.327507
787.1070, 0.8483160
787.5891, 0.2079470
788.0712, 0.7991410
788.5533, 2.6154000E-02
789.0355, 3.235443
789.5176, 6.879570
789.9997, 7.828201
790.4818, 5.597038
790.9639, 3.710686
791.4460, 1.676994
791.9282, 0.5941620
792.4103, 1.764996
792.8924, 3.231781
793.3745, 2.757332
793.8566, 0.6356580
794.3387, 0.5734600
794.8209, 0.7948110
795.3030, 2.939133
795.7851, 4.387951
796.2672, 5.225300
796.7493, 5.565403
797.2314, 5.561604
797.7136, 5.020401
798.1957, 3.784039
798.6778, 2.258076
799.1599, 1.415298
799.6420, 1.294979
800.1241, 1.759758
800.6063, 3.310516
801.0884, 4.663433
801.5705, 5.348297
802.0526, 5.430737
802.5347, 4.548775
803.0168, 2.523270
803.4990, 1.754879
803.9811, 4.266422
804.4632, 6.832535
804.9453, 7.341587
805.4274, 6.628365
805.9095, 5.912388
806.3917, 5.486378
806.8738, 5.094563
807.3559, 4.500496
807.8380, 3.880798
808.3201, 3.597916
808.8022, 3.650158
809.2844, 4.216419
809.7665, 5.526077
810.2486, 6.427334
810.7307, 5.984585
811.2128, 4.623341
811.6949, 3.623665
812.1771, 2.840271
812.6592, 2.764965
813.1413, 4.219341
813.6234, 5.458107
814.1055, 5.667343
814.5876, 5.223198
815.0698, 4.562416
815.5519, 3.804134
816.0340, 3.158951
816.5161, 2.572273
816.9982, 2.314659
817.4803, 2.909637
817.9625, 4.075954
818.4446, 5.209534
818.9267, 6.127247
819.4088, 6.509415
819.8909, 6.000572
820.3730, 4.908291
820.8552, 4.397568
821.3373, 4.671391
821.8194, 4.585506
822.3015, 3.770313
822.7836, 2.993649
823.2657, 2.673878
823.7479, 2.700863
824.2300, 2.658512
824.7121, 2.283470
825.1942, 2.364971
825.6763, 3.668026
826.1584, 4.826569
826.6406, 4.769325
827.1227, 4.197563
827.6048, 4.184391
828.0869, 4.921284
828.5690, 5.830379
829.0511, 6.795712
829.5333, 7.391510
830.0154, 6.475471
830.4975, 4.468258
830.9796, 3.231762
831.4617, 3.064072
831.9438, 3.376228
832.4260, 3.821480
832.9081, 4.294128
833.3902, 4.478355
833.8723, 4.118095
834.3544, 3.966129
834.8365, 4.270992
835.3187, 4.470165
835.8008, 4.110851
836.2829, 3.656158
836.7650, 3.880886
837.2471, 4.873135
837.7292, 5.252609
838.2114, 3.903122
838.6935, 2.523052
839.1756, 2.362804
839.6577, 2.747593
840.1398, 2.637802
840.6219, 1.973400
841.1041, 1.402866
841.5862, 1.316509
842.0683, 1.698025
842.5504, 3.031662
843.0325, 5.010586
843.5146, 5.043068
843.9968, 2.395466
844.4789, 0.5828510
844.9610, 1.803955
845.4431, 4.325069
845.9252, 4.872978
846.4073, 3.062927
846.8895, 2.392963
847.3716, 3.279415
847.8537, 4.304188
848.3358, 6.277725
848.8179, 7.676865
849.3000, 6.452202
849.7822, 3.190094
850.2643, 1.205544
850.7464, 2.135750
851.2285, 3.604477
851.7106, 4.654991
852.1927, 5.220863
852.6749, 5.013542
853.1570, 4.285427
853.6391, 3.874020
854.1212, 4.164761
854.6033, 4.644623
855.0854, 4.810097
855.5676, 4.610382
856.0497, 3.466122
856.5318, 1.321270
857.0139, 0.1203160
857.4960, 0.6338580
857.9781, 1.772877
858.4603, 2.427429
858.9424, 2.641003
859.4245, 2.953407
859.9066, 3.455872
860.3887, 3.869747
860.8708, 4.331291
861.3530, 4.543831
861.8351, 4.194569
862.3172, 3.535984
862.7993, 2.931488
863.2814, 2.369064
863.7635, 2.334969
864.2457, 3.633381
864.7278, 4.965630
865.2099, 5.241837
865.6920, 4.835468
866.1741, 4.351200
866.6563, 3.978016
867.1384, 3.726910
867.6205, 3.532314
868.1026, 3.607006
868.5847, 4.695644
869.0668, 6.660633
869.5490, 7.830456
870.0311, 7.887836
870.5132, 6.970921
870.9953, 4.840363
871.4774, 2.361118
871.9595, 1.329597
872.4417, 2.032593
872.9238, 2.600426
873.4059, 2.756542
873.8880, 3.223091
874.3701, 4.896496
874.8522, 6.442429
875.3344, 6.647453
875.8165, 5.653515
876.2986, 4.438313
876.7807, 2.518757
877.2628, 1.399345
877.7449, 2.201679
878.2271, 3.534035
878.7092, 4.371117
879.1913, 4.686760
879.6734, 4.549923
880.1555, 4.010353
880.6376, 3.793846
881.1198, 5.288147
881.6019, 7.206573
882.0840, 6.622578
882.5661, 4.187672
883.0482, 2.935501
883.5303, 3.620743
884.0125, 4.730049
884.4946, 5.003635
884.9767, 4.682274
885.4588, 4.616764
885.9409, 4.940525
886.4230, 4.725914
886.9052, 3.687840
887.3873, 2.578510
887.8694, 1.487183
888.3515, 0.7433050
888.8336, 1.213715
889.3157, 0.8787556
889.7979, 0.5201487
890.2800, 1.281883
890.7621, 0.4863510
891.2442, 0.2526740
891.7263, 1.701851
892.2084, 2.432003
892.6906, 2.475765
893.1727, 2.447926
893.6548, 2.607433
894.1369, 2.585297
894.6190, 1.681992
895.1011, 0.8011440
895.5833, 1.144531
896.0654, 2.416523
896.5475, 3.917854
897.0296, 5.337017
897.5117, 6.223415
897.9938, 6.036621
898.4760, 5.136379
898.9581, 4.691338
899.4402, 4.579453
899.9223, 3.118538
900.4044, 0.1080020
900.8865, 2.104549
901.3687, 0.5540620
901.8508, 2.699165
902.3329, 3.746006
902.8150, 2.270725
903.2971, 0.6052970
903.7792, 2.121220
904.2614, 3.526382
904.7435, 2.090649
905.2256, 0.3031430
905.7077, 2.212029
906.1898, 3.618416
906.6719, 4.486568
907.1541, 4.537411
907.6362, 4.482681
908.1183, 4.362942
908.6004, 4.319790
909.0825, 4.704460
909.5646, 5.145756
910.0468, 4.807201
910.5289, 3.540787
911.0110, 2.611279
911.4931, 3.263985
911.9752, 4.335159
912.4573, 4.884285
912.9395, 5.033264
913.4216, 5.003407
913.9037, 4.858032
914.3858, 4.707703
914.8679, 4.644814
915.3500, 4.386673
915.8321, 3.049736
916.3142, 0.9235570
916.7963, 0.3581470
917.2784, 1.475964
917.7606, 3.318100
918.2427, 5.834061
918.7248, 7.791298
919.2069, 7.752701
919.6890, 5.989697
920.1711, 4.555748
920.6533, 3.401676
921.1354, 2.708458
921.6175, 2.724075
922.0996, 2.893787
922.5817, 3.010544
923.0638, 3.068142
923.5460, 3.012573
924.0281, 2.812962
924.5102, 2.778847
924.9923, 2.245301
925.4744, 2.076462
925.9565, 1.285339
926.4387, 1.381977
926.9208, 1.311390
927.4029, 0.8490370
927.8850, 2.604881
928.3671, 3.082325
928.8492, 2.977947
929.3314, 2.108135
929.8135, 1.432388
930.2956, 2.434818
930.7777, 4.397270
931.2598, 5.668823
931.7419, 5.885124
932.2241, 5.728046
932.7062, 5.700897
933.1883, 5.699032
933.6704, 5.536274
934.1525, 5.230545
934.6346, 4.799541
935.1168, 4.248707
935.5989, 3.925110
936.0810, 4.031212
936.5631, 4.071140
937.0452, 3.164726
937.5273, 1.456783
938.0095, 1.508667
938.4916, 3.864372
938.9737, 5.803955
939.4558, 6.991829
939.9379, 7.333431
940.4200, 6.529724
940.9022, 4.954075
941.3843, 3.460285
941.8664, 1.742538
942.3485, 1.046535
942.8306, 2.489918
943.3127, 3.477287
943.7949, 2.790947
944.2770, 1.784649
944.7591, 1.829685
945.2412, 2.679291
945.7233, 3.004604
946.2054, 2.161106
946.6876, 1.547546
947.1697, 1.840519
947.6518, 2.378483
948.1339, 2.672817
948.6160, 2.841980
949.0981, 3.483788
949.5803, 4.523830
950.0624, 4.856026
950.5445, 2.827370
951.0266, 0.8027110
951.5087, 1.456333
951.9908, 3.442657
952.4730, 4.585152
952.9551, 4.805191
953.4372, 4.959465
953.9193, 5.395824
954.4014, 5.578621
954.8835, 4.848324
955.3657, 3.438976
955.8478, 1.617943
956.3299, 0.3947530
956.8120, 0.8266180
957.2941, 0.6824950
957.7762, 1.801907
958.2584, 0.8834690
958.7405, 0.9787370
959.2226, 1.034859
959.7047, 0.8062170
960.1868, 2.073689
960.6689, 2.656868
961.1511, 3.142834
961.6332, 3.627739
962.1153, 3.848732
962.5974, 3.487373
963.0795, 4.052082
963.5616, 2.943417
964.0438, 4.373848
964.5259, 5.078999
965.0080, 4.742958
965.4901, 4.081829
965.9722, 2.623768
966.4543, 1.470608
966.9365, 2.487255
967.4186, 1.411320
967.9007, 0.9144757
968.3828, 1.653225
968.8649, 0.8751180
969.3470, 2.154095
969.8292, 1.622965
970.3113, 4.662693
970.7934, 2.159477
971.2755, 1.870003
971.7576, 4.329426
972.2397, 6.044445
972.7219, 4.251328
973.2040, 2.479122
973.6861, 3.649616
974.1682, 5.591988
974.6503, 5.769199
975.1324, 4.452469
975.6146, 2.907784
976.0967, 1.615067
976.5788, 0.8047030
977.0609, 0.8689960
977.5430, 1.384418
978.0251, 1.681473
978.5073, 1.978287
978.9894, 3.192612
979.4715, 5.134327
979.9536, 5.948143
980.4357, 4.574505
980.9178, 2.587006
981.4000, 2.286098
981.8821, 3.236946
982.3642, 3.851685
982.8463, 4.139385
983.3284, 4.358093
983.8105, 4.570839
984.2927, 4.302048
984.7748, 3.312206
985.2569, 2.192268
985.7390, 2.145603
986.2211, 3.268581
986.7032, 3.334167
987.1854, 2.092949
987.6675, 1.010754
988.1496, 0.4667660
988.6317, 0.4843900
989.1138, 1.273335
989.5959, 2.531090
990.0781, 2.897293
990.5602, 2.008732
991.0423, 1.211792
991.5244, 8.0387004E-02
992.0065, 8.1290998E-02
992.4886, 1.753445
992.9708, 4.260338
993.4529, 6.427605
993.9350, 8.132893
994.4171, 7.903652
994.8992, 3.429882
995.3813, 0.6190990
995.8635, 0.6068650
996.3456, 1.207729
996.8277, 1.689125
997.3098, 2.110260
997.7919, 2.644669
998.2740, 3.276234
998.7562, 3.658634
999.2383, 3.170498
999.7204, 3.205605
1000.203, 4.910534
1000.685, 6.476192
1001.167, 6.435028
1001.649, 5.504715
1002.131, 4.958431
1002.613, 4.986130
1003.095, 4.825966
1003.577, 3.637585
1004.059, 2.798771
1004.542, 3.621796
1005.024, 4.710075
1005.506, 4.812656
1005.988, 3.981525
1006.470, 2.231094
1006.952, 0.2915230
1007.434, 1.760132
1007.916, 3.1539999E-02
1008.398, 2.465660
1008.881, 3.117893
1009.363, 2.734989
1009.845, 2.258476
1010.327, 1.826752
1010.809, 1.316319
1011.291, 0.6890750
1011.773, 0.1316180
1012.255, 0.3433690
1012.738, 0.5080220
1013.220, 0.3433610
1013.702, 1.700771
1014.184, 2.032108
1014.666, 1.437744
1015.148, 1.433281
1015.630, 2.630230
1016.112, 4.454033
1016.594, 6.848793
1017.077, 8.983059
1017.559, 7.787178
1018.041, 3.923878
1018.523, 0.9435120
1019.005, 0.5115700
1019.487, 0.8255730
1019.969, 0.1558000
1020.451, 0.8751450
1020.934, 1.224899
1021.416, 1.102497
1021.898, 1.819176
1022.380, 3.354870
1022.862, 5.175766
1023.344, 7.259777
1023.826, 8.109806
1024.308, 6.598240
1024.791, 4.036667
1025.273, 3.033993
1025.755, 3.529819
1026.237, 3.241211
1026.719, 1.869759
1027.201, 1.804470
1027.683, 3.769478
1028.165, 5.822929
1028.647, 6.364040
1029.130, 5.769547
1029.612, 5.039806
1030.094, 4.105537
1030.576, 4.058819
1031.058, 5.335693
1031.540, 5.896389
1032.022, 4.886059
1032.504, 4.054943
1032.986, 4.848370
1033.469, 6.427830
1033.951, 6.822884
1034.433, 5.744244
1034.915, 5.257221
1035.397, 5.236912
1035.879, 5.948341
1036.361, 7.849792
1036.843, 9.910316
1037.326, 11.38739
1037.808, 12.51222
1038.290, 13.82285
1038.772, 15.39375
1039.254, 16.84439
1039.736, 18.18458
1040.218, 19.43878
1040.700, 20.42645
1041.182, 21.32652
1041.665, 22.27396
1042.147, 23.19604
1042.629, 23.94807
1043.111, 24.58618
1043.593, 24.81591
1044.075, 23.94494
1044.557, 23.61151
1045.039, 24.16286
1045.521, 25.33342
1046.004, 27.29667
1046.486, 29.65004
1046.968, 31.75187
1047.450, 33.74017
1047.932, 34.38256
1048.414, 33.53592
1048.896, 31.35227
1049.378, 26.53555
1049.861, 21.67845
1050.343, 18.81060
1050.825, 17.17328
1051.307, 15.00974
1051.789, 12.00757
1052.271, 9.608501
1052.753, 7.943687
1053.235, 7.130157
1053.718, 8.079380
1054.200, 9.079845
1054.682, 8.713200
1055.164, 7.521408
1055.646, 6.783302
1056.128, 6.737644
1056.610, 6.008305
1057.092, 3.002388
1057.574, 0.9099240
1058.057, 1.293823
1058.539, 2.577751
1059.021, 3.808834
1059.503, 4.939724
1059.985, 6.403183
1060.467, 8.248074
1060.949, 8.682934
1061.431, 5.583454
1061.913, 3.051769
1062.396, 2.935501
1062.878, 3.784584
1063.360, 5.108204
1063.842, 6.273964
1064.324, 6.206169
1064.806, 4.786057
1065.288, 3.092464
1065.770, 1.041889
1066.253, 0.1336020
1066.735, 0.9101220
1067.217, 2.254395
1067.699, 2.107418
1068.181, 1.410030
1068.663, 2.048248
1069.145, 4.099243
1069.627, 5.522480
1070.109, 5.315056
1070.592, 4.720203
1071.074, 4.022350
1071.556, 3.470375
1072.038, 3.567974
1072.520, 3.838753
1073.002, 3.337521
1073.484, 2.166348
1073.966, 1.719181
1074.448, 2.828541
1074.931, 4.005081
1075.413, 5.099319
1075.895, 5.420486
1076.377, 3.387024
1076.859, 0.9204370
1077.341, 0.9412880
1077.823, 3.267441
1078.305, 5.105835
1078.788, 5.391262
1079.270, 5.497414
1079.752, 6.964657
1080.234, 7.482361
1080.716, 3.888241
1081.198, 0.4192620
1081.680, 0.8395040
1082.162, 1.916840
1082.644, 3.570763
1083.127, 2.531101
1083.609, 1.768578
1084.091, 3.916313
1084.573, 5.226574
1085.055, 1.576130
1085.537, 2.662811
1086.019, 2.191982
1086.501, 1.717995
1086.984, 4.737709
1087.466, 5.780731
1087.948, 5.614059
1088.430, 3.293797
1088.912, 1.420845
1089.394, 1.809689
1089.876, 2.859814
1090.358, 3.386398
1090.840, 3.276287
1091.323, 2.230160
1091.805, 0.1973230
1092.287, 0.5561640
1092.769, 1.241978
1093.251, 3.713848
1093.733, 7.791080
1094.215, 10.76979
1094.697, 9.441597
1095.179, 6.066765
1095.662, 4.784019
1096.144, 3.578456
1096.626, 1.956212
1097.108, 1.921188
1097.590, 0.9206620
1098.072, 0.1229520
1098.554, 1.422337
1099.036, 2.270710
1099.519, 2.542122
1100.001, 2.301277
1100.483, 1.654118
1100.965, 1.656731
1101.447, 2.902176
1101.929, 4.002068
1102.411, 4.738911
1102.893, 5.081245
1103.375, 4.822681
1103.858, 4.316051
1104.340, 3.799561
1104.822, 3.354069
1105.304, 3.237522
1105.786, 3.763943
1106.268, 3.631641
1106.750, 1.239830
1107.232, 3.3248998E-02
1107.714, 2.186893
1108.197, 4.771603
1108.679, 5.117813
1109.161, 3.986580
1109.643, 3.309883
1110.125, 3.278564
1110.607, 3.326149
1111.089, 3.462429
1111.571, 3.588531
1112.054, 3.613850
1112.536, 3.700855
1113.018, 3.620846
1113.500, 3.825153
1113.982, 5.508842
1114.464, 8.722214
1114.946, 9.958725
1115.428, 7.428135
1115.911, 5.918629
1116.393, 6.574482
1116.875, 7.026230
1117.357, 6.256348
1117.839, 4.896141
1118.321, 3.489883
1118.803, 2.078564
1119.285, 0.8566400
1119.767, 0.5413250
1120.250, 0.7940830
1120.732, 0.5158960
1121.214, 2.222031
1121.696, 4.628807
1122.178, 6.184025
1122.660, 5.121639
1123.142, 2.704128
1123.624, 2.385983
1124.106, 4.588730
1124.589, 5.545418
1125.071, 4.873745
1125.553, 4.266769
1126.035, 4.143810
1126.517, 3.793663
1126.999, 2.684986
1127.481, 1.316563
1127.963, 0.3305090
1128.446, 0.1917420
1128.928, 1.105824
1129.410, 4.605648
1129.892, 6.262058
1130.374, 5.408154
1130.856, 4.356258
1131.338, 4.010647
1131.820, 4.274578
1132.302, 5.153847
1132.785, 6.361477
1133.267, 7.132092
1133.749, 7.440937
1134.231, 6.484470
1134.713, 4.299160
1135.195, 3.184254
1135.677, 3.775780
1136.159, 5.349472
1136.641, 7.603691
1137.124, 9.190659
1137.606, 6.839645
1138.088, 2.049461
1138.570, 0.9324380
1139.052, 2.637043
1139.534, 3.003716
1140.016, 1.692196
1140.498, 1.154797
1140.981, 2.549301
1141.463, 4.304996
1141.945, 4.854858
1142.427, 4.590996
1142.909, 3.893166
1143.391, 2.879318
1143.873, 2.351868
1144.355, 2.385773
1144.838, 2.574329
1145.320, 2.833054
1145.802, 3.252037
1146.284, 3.979141
1146.766, 4.606728
1147.248, 4.811481
1147.730, 4.608604
1148.212, 3.951942
1148.694, 2.932327
1149.177, 1.179531
1149.659, 0.8187830
1150.141, 1.152332
1150.623, 1.198711
1151.105, 3.080200
1151.587, 1.571785
1152.069, 0.1071090
1152.551, 2.035965
1153.033, 0.4302493
1153.516, 3.211342
1153.998, 0.2564280
1154.480, 0.4866680
1154.962, 1.589497
1155.444, 3.163372
1155.926, 3.308357
1156.408, 2.778450
1156.890, 0.4915200
1157.373, 0.7157550
1157.855, 1.802063
1158.337, 5.418423
1158.819, 6.956104
1159.301, 6.561504
1159.783, 5.877605
1160.265, 4.921181
1160.747, 4.018852
1161.229, 3.106987
1161.712, 2.355286
1162.194, 1.216122
1162.676, 0.9640810
1163.158, 3.256542
1163.640, 6.401497
1164.122, 7.301094
1164.604, 5.904774
1165.086, 4.060574
1165.568, 1.045689
1166.051, 1.4759000E-02
1166.533, 1.785416
1167.015, 3.815186
1167.497, 5.210522
1167.979, 5.734642
1168.461, 4.975952
1168.943, 3.392750
1169.425, 2.467148
1169.908, 2.225117
1170.390, 1.738148
1170.872, 0.9740830
1171.354, 0.8579140
1171.836, 1.615410
1172.318, 2.406948
1172.800, 2.710384
1173.282, 2.992210
1173.765, 4.219154
1174.247, 5.691036
1174.729, 4.842922
1175.211, 2.462723
1175.693, 1.271629
1176.175, 1.485600
1176.657, 2.667130
1177.139, 4.445774
1177.621, 5.346382
1178.104, 4.124184
1178.586, 2.301315
1179.068, 1.383804
1179.550, 1.004944
1180.032, 0.8054620
1180.514, 0.7899930
1180.996, 1.056179
1181.478, 1.609673
1181.960, 2.238102
1182.443, 2.952515
1182.925, 3.595711
1183.407, 3.793293
1183.889, 4.244122
1184.371, 6.308079
1184.853, 7.915539
1185.335, 6.659492
1185.817, 4.003742
1186.300, 2.172802
1186.782, 1.507202
1187.264, 1.733013
1187.746, 3.630539
1188.228, 4.644760
1188.710, 3.062462
1189.192, 2.190243
1189.674, 4.297424
1190.156, 6.519764
1190.639, 6.396919
1191.121, 4.860523
1191.603, 3.831329
1192.085, 3.316620
1192.567, 3.226070
1193.049, 3.616165
1193.531, 4.385288
1194.013, 5.893055
1194.495, 6.563080
1194.978, 5.547073
1195.460, 3.985241
1195.942, 2.964298
1196.424, 2.458664
1196.906, 2.480263
1197.388, 3.003914
1197.870, 3.715321
1198.352, 4.542610
1198.835, 4.064598
1199.317, 2.139160
1199.799, 1.217670
1200.281, 2.602520
1200.763, 4.279884
1201.245, 3.652100
1201.727, 4.928219
1202.209, 3.098972
1202.692, 4.966110
1203.174, 4.522541
1203.656, 2.535843
1204.138, 1.807308
1204.620, 2.739403
1205.102, 3.510181
1205.584, 3.076096
1206.066, 2.917816
1206.548, 5.006805
1207.031, 6.765320
1207.513, 5.378357
1207.995, 3.228271
1208.477, 3.261116
1208.959, 4.503159
1209.441, 4.410114
1209.923, 2.662376
1210.405, 1.797276
1210.887, 3.511475
1211.370, 4.395504
1211.852, 2.936573
1212.334, 1.769489
1212.816, 3.047047
1213.298, 4.070541
1213.780, 1.810783
1214.262, 1.955727
1214.744, 2.525909
1215.227, 0.4622380
1215.709, 2.087608
1216.191, 1.810368
1216.673, 2.304333
1217.155, 4.160858
1217.637, 5.550957
1218.119, 5.668854
1218.601, 5.026367
1219.083, 4.024181
1219.566, 2.961651
1220.048, 2.769936
1220.530, 1.995728
1221.012, 1.579094
1221.494, 1.485535
1221.976, 1.099197
1222.458, 1.616123
1222.940, 2.005692
1223.422, 1.820301
1223.905, 1.856289
1224.387, 3.114334
1224.869, 4.372746
1225.351, 3.944988
1225.833, 3.060459
1226.315, 3.482552
1226.797, 4.374893
1227.279, 3.743801
1227.762, 1.962223
1228.244, 1.679993
1228.726, 3.989140
1229.208, 6.108295
1229.690, 7.106571
1230.172, 7.689388
1230.654, 8.468983
1231.136, 8.496368
1231.619, 6.633461
1232.101, 3.985409
1232.583, 1.809010
1233.065, 0.1601180
1233.547, 0.6321260
1234.029, 0.5707280
1234.511, 0.6645010
1234.993, 3.888012
1235.475, 4.831242
1235.958, 1.862514
1236.440, 2.7229000E-02
1236.922, 2.601986
1237.404, 0.5382200
1237.886, 4.574791
1238.368, 0.5328560
1238.850, 0.5080950
1239.332, 0.8540500
1239.814, 2.817608
1240.297, 4.816902
1240.779, 4.997868
1241.261, 3.286186
1241.743, 1.698429
1242.225, 1.273129
1242.707, 1.368935
1243.189, 1.478985
1243.671, 1.781338
1244.154, 2.699490
1244.636, 3.663322
1245.118, 4.035423
1245.600, 4.013729
1246.082, 3.806374
1246.564, 3.586338
1247.046, 4.066551
1247.528, 5.932663
1248.010, 6.948154
1248.493, 6.278870
1248.975, 5.369682
1249.457, 4.127258
1249.939, 3.337955
1250.421, 3.308334
1250.903, 3.811081
1251.385, 4.883247
1251.867, 6.052311
1252.349, 6.114498
1252.832, 6.449120
1253.314, 6.206966
1253.796, 5.486996
1254.278, 5.142670
1254.760, 3.219971
1255.242, 2.649406
1255.724, 5.074627
1256.206, 7.225082
1256.689, 4.704048
1257.171, 0.8413430
1257.653, 1.713131
1258.135, 4.722412
1258.617, 5.475739
1259.099, 4.691940
1259.581, 4.560886
1260.063, 5.034370
1260.546, 4.886330
1261.028, 3.654663
1261.510, 2.728989
1261.992, 3.045525
1262.474, 3.628777
1262.956, 4.858574
1263.438, 5.438980
1263.920, 3.204712
1264.402, 0.4456710
1264.885, 0.2517700
1265.367, 1.812355
1265.849, 2.097027
1266.331, 0.8320690
1266.813, 4.9683001E-02
1267.295, 0.2117610
1267.777, 0.2031480
1268.259, 1.0490000E-02
1268.741, 0.9043310
1269.224, 2.746288
1269.706, 4.278385
1270.188, 4.283073
1270.670, 3.388977
1271.152, 2.151958
1271.634, 1.230015
1272.116, 3.204418
1272.598, 6.363937
1273.081, 6.017326
1273.563, 2.902115
1274.045, 1.118401
1274.527, 1.747669
1275.009, 2.411110
1275.491, 1.807621
1275.973, 1.142441
1276.455, 0.9289590
1276.938, 0.7509880
1277.420, 0.8068500
1277.902, 1.120010
1278.384, 1.218620
1278.866, 1.315529
1279.348, 2.095490
1279.830, 3.479736
1280.312, 3.275265
1280.794, 0.7151340
1281.276, 0.2153700
1281.759, 0.9923250
1282.241, 1.651100
1282.723, 0.9157680
1283.205, 0.5251120
1283.687, 1.571003
1284.169, 2.328957
1284.651, 2.472515
1285.133, 1.672958
1285.616, 0.8559190
1286.098, 0.0000000E+00
##END=



