##NAMES=Lillianite
##RRUFFID=R110141
##IDEAL CHEMISTRY=Pb^2+^_3-2x_Ag^1+^_x_Bi^3+^_2+x_S^2-^_6_
##LOCALITY=Pedro claim, King County, Washington, USA
##OWNER=RRUFF
##SOURCE=Rob Lavinsky
##DESCRIPTION=Elongated prismatic silver gray metallic crystal, with severe exterior corrosion associated with aikinite, galena, neyite, and gustavite
##STATUS=The identification of this mineral is confirmed by single-crystal X-ray diffraction and chemical analysis.
##URL=rruff.info/R110141
##MEASURED CHEMISTRY=Pb_1.82_Ag_0.62_Cu_0.04_(Bi_2.66_Sb_0.01_)_âˆ‘=2.67_S_6_
154.1316, 0.0000000E+00
154.6137, 0.7420080
155.0958, 1.957344
155.5779, 3.307327
156.0601, 1.951649
156.5422, 2.210175
157.0243, 2.733547
157.5064, 2.090912
157.9885, 1.332745
158.4706, 0.2007750
158.9528, 1.426929
159.4349, 1.883400
159.9170, 1.548370
160.3991, 0.4012370
160.8812, 1.612267
161.3633, 4.432137
161.8455, 7.917152
162.3276, 12.99753
162.8097, 18.07641
163.2918, 22.24725
163.7739, 24.72565
164.2560, 26.94902
164.7382, 29.42953
165.2203, 32.13065
165.7024, 34.92391
166.1845, 37.97753
166.6666, 41.00635
167.1487, 43.70300
167.6309, 45.97796
168.1130, 47.96704
168.5951, 49.80939
169.0772, 51.46761
169.5593, 52.62732
170.0414, 52.17509
170.5236, 51.39113
171.0057, 51.81931
171.4878, 55.03853
171.9699, 58.85873
172.4520, 61.33252
172.9341, 62.56500
173.4163, 63.66364
173.8984, 64.89750
174.3805, 66.61950
174.8626, 69.31864
175.3447, 73.34834
175.8268, 78.40373
176.3090, 84.48818
176.7911, 91.54966
177.2732, 98.70933
177.7553, 104.7609
178.2374, 109.3186
178.7195, 112.5433
179.2017, 113.6039
179.6838, 113.8173
180.1659, 115.1038
180.6480, 117.5177
181.1301, 120.5454
181.6122, 124.4258
182.0944, 128.7432
182.5765, 131.9853
183.0586, 132.9817
183.5407, 132.5602
184.0228, 132.3922
184.5049, 132.4550
184.9871, 133.0584
185.4692, 135.1182
185.9513, 138.3195
186.4334, 140.8137
186.9155, 141.4882
187.3976, 140.7710
187.8798, 140.0113
188.3619, 139.2203
188.8440, 138.5212
189.3261, 138.1755
189.8082, 138.1543
190.2903, 138.0762
190.7725, 137.3541
191.2546, 136.2472
191.7367, 136.5400
192.2188, 138.6359
192.7009, 141.2902
193.1830, 142.2183
193.6652, 141.4129
194.1473, 140.6140
194.6294, 140.9350
195.1115, 142.2617
195.5936, 143.0874
196.0757, 143.2039
196.5579, 143.0014
197.0400, 143.3213
197.5221, 144.2263
198.0042, 144.9833
198.4863, 144.8291
198.9684, 143.7392
199.4506, 144.0011
199.9327, 146.1789
200.4148, 149.2453
200.8969, 150.8824
201.3790, 150.9294
201.8611, 150.5549
202.3433, 150.3856
202.8254, 150.4406
203.3075, 150.5009
203.7896, 150.5756
204.2717, 150.6210
204.7538, 150.5016
205.2360, 150.1845
205.7181, 149.8058
206.2002, 149.2418
206.6823, 148.3185
207.1644, 148.4852
207.6465, 150.4584
208.1287, 153.2560
208.6108, 153.7001
209.0929, 151.0543
209.5750, 148.0929
210.0571, 146.6870
210.5392, 147.2635
211.0214, 147.2454
211.5035, 146.0919
211.9856, 143.8722
212.4677, 142.8608
212.9498, 143.4841
213.4319, 144.3791
213.9140, 144.8243
214.3962, 144.8442
214.8783, 144.2824
215.3604, 142.9600
215.8425, 141.0794
216.3246, 139.4906
216.8067, 138.2702
217.2889, 137.1856
217.7710, 136.0561
218.2531, 134.7646
218.7352, 133.7842
219.2173, 133.3088
219.6994, 133.1595
220.1816, 132.4311
220.6637, 130.6982
221.1458, 129.0915
221.6279, 128.5064
222.1100, 129.6567
222.5921, 129.8602
223.0743, 128.4987
223.5564, 126.0112
224.0385, 124.4182
224.5206, 124.0121
225.0027, 124.0842
225.4848, 124.3658
225.9670, 125.3122
226.4491, 125.3156
226.9312, 123.8383
227.4133, 121.2933
227.8954, 119.6129
228.3775, 119.0870
228.8597, 119.0425
229.3418, 119.1956
229.8239, 119.9003
230.3060, 119.9175
230.7881, 118.7466
231.2702, 116.7591
231.7524, 115.9584
232.2345, 117.4105
232.7166, 118.5385
233.1987, 117.5912
233.6808, 113.0653
234.1629, 109.8180
234.6451, 108.4982
235.1272, 108.6947
235.6093, 108.5778
236.0914, 107.9250
236.5735, 107.2658
237.0556, 106.9474
237.5378, 107.3046
238.0199, 107.2545
238.5020, 106.5235
238.9841, 105.3427
239.4662, 104.7256
239.9483, 105.1469
240.4305, 105.4991
240.9126, 105.1509
241.3947, 103.6944
241.8768, 102.4524
242.3589, 101.5322
242.8410, 100.8690
243.3232, 100.1948
243.8053, 99.39143
244.2874, 98.74182
244.7695, 98.40845
245.2516, 98.50275
245.7337, 98.65631
246.2159, 98.95421
246.6980, 99.28314
247.1801, 99.30063
247.6622, 99.00159
248.1443, 98.38892
248.6264, 97.40428
249.1086, 95.75966
249.5907, 94.37849
250.0728, 93.11476
250.5549, 92.19304
251.0370, 92.34067
251.5191, 94.42693
252.0013, 96.14438
252.4834, 96.36459
252.9655, 94.36073
253.4476, 92.80878
253.9297, 91.79240
254.4118, 91.17159
254.8940, 90.64923
255.3761, 90.28094
255.8582, 89.89548
256.3403, 89.43715
256.8224, 88.91353
257.3046, 88.29419
257.7867, 87.44051
258.2688, 86.59581
258.7509, 86.34773
259.2330, 87.12236
259.7151, 87.52017
260.1973, 86.77481
260.6794, 84.42609
261.1615, 83.26804
261.6436, 83.96170
262.1257, 85.32098
262.6078, 85.19977
263.0900, 82.97861
263.5721, 80.85556
264.0542, 79.62997
264.5363, 79.40651
265.0184, 79.15939
265.5005, 78.88994
265.9827, 78.52753
266.4648, 77.96068
266.9469, 77.19847
267.4290, 76.19283
267.9111, 74.81418
268.3932, 73.01265
268.8754, 71.92630
269.3575, 71.62628
269.8396, 71.70297
270.3217, 71.75278
270.8038, 71.88562
271.2859, 71.68924
271.7681, 71.00038
272.2502, 69.83298
272.7323, 68.77811
273.2144, 67.68059
273.6965, 66.77570
274.1786, 66.49602
274.6608, 67.04324
275.1429, 67.34061
275.6250, 67.02466
276.1071, 66.16322
276.5892, 65.29787
277.0714, 64.46983
277.5535, 63.58884
278.0356, 62.43758
278.5177, 60.96126
278.9998, 60.09235
279.4819, 60.33449
279.9641, 61.23882
280.4462, 60.86961
280.9283, 58.98038
281.4104, 56.58456
281.8925, 54.41426
282.3746, 52.49625
282.8568, 50.62715
283.3389, 48.69572
283.8210, 46.85066
284.3031, 45.69617
284.7852, 45.29160
285.2673, 44.83206
285.7495, 43.66166
286.2316, 41.84923
286.7137, 40.12759
287.1958, 38.61106
287.6779, 37.22176
288.1600, 35.83557
288.6422, 34.43624
289.1243, 32.92618
289.6064, 31.21140
290.0885, 29.37722
290.5706, 27.80404
291.0527, 26.60228
291.5349, 25.52781
292.0170, 24.07550
292.4991, 22.29680
292.9812, 20.64434
293.4633, 19.48985
293.9454, 18.69817
294.4276, 17.77437
294.9097, 16.63161
295.3918, 15.53590
295.8739, 14.96936
296.3560, 14.84550
296.8381, 14.64648
297.3203, 14.11452
297.8024, 13.35764
298.2845, 12.57123
298.7666, 11.74911
299.2487, 10.86328
299.7308, 9.778107
300.2130, 8.576836
300.6951, 7.515350
301.1772, 6.675865
301.6593, 6.047798
302.1414, 5.736870
302.6235, 5.738724
303.1057, 5.605125
303.5878, 4.744324
304.0699, 3.511925
304.5520, 2.610985
305.0341, 2.540016
305.5162, 2.655281
305.9984, 2.276009
306.4805, 1.450027
306.9626, 0.4714510
307.4447, 0.9300610
307.9268, 2.198212
308.4089, 2.441574
308.8911, 0.7626950
309.3732, 0.9401090
309.8553, 0.9160840
310.3374, 0.4132310
310.8195, 1.661934
311.3016, 2.078674
311.7838, 2.020645
312.2659, 1.722992
312.7480, 1.073158
313.2301, 0.6179280
313.7122, 0.7484050
314.1943, 1.294083
314.6765, 1.902206
315.1586, 2.790108
315.6407, 3.423782
316.1228, 3.366585
316.6049, 2.413971
317.0870, 1.465210
317.5692, 0.7292400
318.0513, 0.2584460
318.5334, 0.1432340
319.0155, 0.5151750
319.4976, 1.152489
319.9797, 2.092590
320.4619, 3.384743
320.9440, 4.446449
321.4261, 5.138062
321.9082, 5.483734
322.3903, 5.497528
322.8724, 5.008804
323.3546, 4.378227
323.8367, 3.475655
324.3188, 2.328598
324.8009, 1.727844
325.2830, 2.558990
325.7651, 3.503510
326.2473, 3.707535
326.7294, 2.080444
327.2115, 0.8840100
327.6936, 0.3621750
328.1757, 0.4412380
328.6578, 0.7859650
329.1400, 2.112968
329.6221, 3.130539
330.1042, 3.212250
330.5863, 1.237854
331.0684, 0.1870500
331.5505, 0.6312410
332.0327, 1.896439
332.5148, 2.473862
332.9969, 1.992088
333.4790, 1.300896
333.9611, 0.6058810
334.4432, 0.1854860
334.9254, 0.4735720
335.4075, 7.2623998E-02
335.8896, 0.6739200
336.3717, 1.388924
336.8538, 2.288109
337.3359, 2.551392
337.8180, 1.686768
338.3001, 0.2489320
338.7823, 1.302605
339.2644, 1.291374
339.7465, 0.8043440
340.2286, 0.2605900
340.7107, 0.4227600
341.1928, 0.6340480
341.6750, 9.7457998E-02
342.1571, 0.9680250
342.6392, 1.745872
343.1213, 2.227821
343.6034, 2.448181
344.0855, 2.294029
344.5677, 1.796646
345.0498, 1.567459
345.5319, 1.639862
346.0140, 2.085327
346.4961, 3.436226
346.9782, 5.632233
347.4604, 7.258255
347.9425, 7.005333
348.4246, 5.438904
348.9067, 4.805374
349.3888, 5.378525
349.8709, 6.128319
350.3531, 5.606949
350.8352, 4.139503
351.3173, 2.939064
351.7994, 2.426842
352.2815, 2.529930
352.7636, 3.419991
353.2458, 5.091454
353.7279, 6.541656
354.2100, 6.668159
354.6921, 6.030373
355.1742, 5.604721
355.6563, 5.693764
356.1385, 6.075386
356.6206, 6.710590
357.1027, 7.531643
357.5848, 8.196671
358.0669, 8.462601
358.5490, 8.501041
359.0312, 8.451027
359.5133, 8.240532
359.9954, 8.086262
360.4775, 8.252460
360.9596, 8.582428
361.4417, 8.743557
361.9239, 8.501411
362.4060, 8.131752
362.8881, 7.699619
363.3702, 7.144825
363.8523, 6.897438
364.3344, 7.399490
364.8166, 8.177242
365.2987, 8.682533
365.7808, 8.373894
366.2629, 8.181671
366.7450, 8.473976
367.2271, 9.230907
367.7093, 9.838722
368.1914, 10.29723
368.6735, 10.52061
369.1556, 10.45985
369.6377, 9.373795
370.1198, 8.973251
370.6020, 9.781963
371.0841, 11.38667
371.5662, 12.29202
372.0483, 12.13074
372.5304, 11.67984
373.0125, 11.14023
373.4947, 10.25542
373.9768, 10.16105
374.4589, 11.36234
374.9410, 13.00593
375.4231, 13.62970
375.9052, 12.87497
376.3874, 12.06862
376.8695, 11.52102
377.3516, 11.21823
377.8337, 11.42074
378.3158, 12.32086
378.7979, 13.12070
379.2801, 12.81502
379.7622, 11.35424
380.2443, 10.47160
380.7264, 10.73600
381.2085, 11.60888
381.6906, 11.55476
382.1728, 10.57085
382.6549, 9.542339
383.1370, 8.996532
383.6191, 8.841774
384.1012, 8.874348
384.5833, 9.225677
385.0655, 9.623905
385.5476, 9.430809
386.0297, 8.859367
386.5118, 8.792831
386.9939, 10.32166
387.4760, 12.28628
387.9582, 12.93383
388.4403, 12.33740
388.9224, 11.43360
389.4045, 10.94069
389.8866, 10.53270
390.3687, 9.810669
390.8509, 8.208420
391.3330, 6.853466
391.8151, 6.661766
392.2972, 7.440617
392.7793, 8.340382
393.2614, 9.428944
393.7436, 10.10468
394.2257, 9.767750
394.7078, 7.669304
395.1899, 6.148460
395.6720, 6.717239
396.1541, 8.397301
396.6363, 9.455421
397.1184, 8.620289
397.6005, 7.779903
398.0826, 7.747864
398.5647, 8.713413
399.0468, 9.103523
399.5290, 8.106049
400.0111, 6.937744
400.4932, 6.540916
400.9753, 7.664772
401.4574, 8.521072
401.9395, 8.984035
402.4217, 9.041462
402.9038, 8.637131
403.3859, 7.441074
403.8680, 6.316624
404.3501, 5.676754
404.8322, 5.559227
405.3144, 5.863167
405.7965, 6.799503
406.2786, 7.872780
406.7607, 8.228596
407.2428, 7.758831
407.7249, 7.349091
408.2071, 7.320656
408.6892, 7.561077
409.1713, 7.456059
409.6534, 6.959999
410.1355, 6.549564
410.6176, 7.010212
411.0998, 8.119579
411.5819, 8.292225
412.0640, 6.840137
412.5461, 4.868076
413.0282, 4.179600
413.5103, 4.651558
413.9925, 5.453487
414.4746, 6.636673
414.9567, 7.675865
415.4388, 7.395729
415.9209, 5.529846
416.4030, 3.875286
416.8852, 4.269753
417.3673, 5.815708
417.8494, 7.048599
418.3315, 7.274284
418.8136, 7.133854
419.2957, 6.923691
419.7779, 6.660065
420.2600, 6.446911
420.7421, 6.346592
421.2242, 6.301167
421.7063, 6.290939
422.1884, 6.368412
422.6706, 6.432880
423.1527, 6.487930
423.6348, 6.489529
424.1169, 6.370449
424.5990, 6.091858
425.0811, 5.752628
425.5633, 5.241325
426.0454, 4.452030
426.5275, 4.242756
427.0096, 5.155392
427.4917, 6.195335
427.9738, 6.527794
428.4560, 5.771534
428.9381, 5.182472
429.4202, 4.925079
429.9023, 4.907719
430.3844, 4.829700
430.8665, 4.679455
431.3487, 4.493797
431.8308, 4.168789
432.3129, 3.683716
432.7950, 3.994804
433.2771, 5.372906
433.7592, 6.810017
434.2414, 6.819714
434.7235, 5.520813
435.2056, 4.363434
435.6877, 3.911133
436.1698, 3.831554
436.6519, 3.215630
437.1341, 2.108891
437.6162, 1.361530
438.0983, 1.969921
438.5804, 3.283005
439.0625, 4.141342
439.5446, 4.284966
440.0268, 4.154362
440.5089, 3.932297
440.9910, 3.734005
441.4731, 3.790516
441.9552, 4.607548
442.4373, 5.399330
442.9195, 5.476177
443.4016, 4.839943
443.8837, 4.528267
444.3658, 5.548031
444.8479, 6.773964
445.3300, 7.271645
445.8122, 6.169926
446.2943, 5.228313
446.7764, 4.789684
447.2585, 4.720524
447.7406, 4.680218
448.2227, 4.795086
448.7049, 4.768631
449.1870, 4.433231
449.6691, 3.708073
450.1512, 3.339909
450.6333, 3.408054
451.1154, 3.761463
451.5976, 4.377689
452.0797, 5.496784
452.5618, 5.994678
453.0439, 5.521156
453.5260, 4.435886
454.0081, 3.694546
454.4903, 3.288799
454.9724, 3.157455
455.4545, 3.322456
455.9366, 3.758926
456.4187, 4.384174
456.9008, 5.259396
457.3830, 5.898685
457.8651, 5.326405
458.3472, 3.965279
458.8293, 3.247810
459.3114, 3.976807
459.7935, 5.192390
460.2757, 5.859734
460.7578, 5.993176
461.2399, 5.695751
461.7220, 4.537060
462.2041, 3.236172
462.6862, 2.568062
463.1684, 2.763508
463.6505, 3.087029
464.1326, 2.984524
464.6147, 2.804649
465.0968, 3.099640
465.5789, 5.225780
466.0611, 6.641430
466.5432, 5.954414
467.0253, 3.444927
467.5074, 2.128548
467.9895, 3.854630
468.4716, 5.668442
468.9538, 6.104897
469.4359, 4.332298
469.9180, 2.993370
470.4001, 2.120651
470.8822, 1.629337
471.3643, 1.434555
471.8465, 1.624268
472.3286, 1.858536
472.8107, 2.061909
473.2928, 2.231140
473.7749, 2.324615
474.2570, 2.305351
474.7392, 2.353527
475.2213, 2.760254
475.7034, 3.410088
476.1855, 3.496414
476.6676, 2.804798
477.1497, 1.994904
477.6319, 2.133671
478.1140, 2.937759
478.5961, 3.481606
479.0782, 3.276966
479.5603, 2.656124
480.0424, 1.706375
480.5246, 0.5173340
481.0067, 0.1416210
481.4888, 0.7745590
481.9709, 2.118073
482.4530, 2.826618
482.9352, 2.455200
483.4173, 2.042477
483.8994, 2.006279
484.3815, 2.181091
484.8636, 2.318756
485.3457, 2.392120
485.8279, 2.382660
486.3100, 2.196098
486.7921, 1.835556
487.2742, 1.733028
487.7563, 2.080948
488.2384, 2.502007
488.7206, 2.784286
489.2027, 2.916901
489.6848, 2.875900
490.1669, 2.477024
490.6490, 2.107887
491.1311, 2.575356
491.6133, 4.062798
492.0954, 5.066185
492.5775, 4.970535
493.0596, 4.075699
493.5417, 3.509193
494.0238, 3.277538
494.5060, 3.048225
494.9881, 2.316166
495.4702, 1.403584
495.9523, 1.284977
496.4344, 2.255428
496.9165, 3.240913
497.3987, 2.922783
497.8808, 1.880157
498.3629, 1.212410
498.8450, 1.725574
499.3271, 2.469093
499.8092, 2.816437
500.2914, 2.837540
500.7735, 2.918640
501.2556, 3.284981
501.7377, 3.704983
502.2198, 4.094151
502.7019, 4.582073
503.1841, 4.681515
503.6662, 3.949463
504.1483, 2.956928
504.6304, 2.404984
505.1125, 2.834206
505.5946, 2.831562
506.0768, 1.861092
506.5589, 0.2359890
507.0410, 0.4711000
507.5231, 2.4707999E-02
508.0052, 0.6748500
508.4873, 1.257252
508.9695, 1.712799
509.4516, 1.829323
509.9337, 1.535076
510.4158, 1.195332
510.8979, 1.319489
511.3800, 1.792629
511.8622, 2.048088
512.3443, 1.751350
512.8264, 1.440300
513.3085, 2.112232
513.7906, 3.464863
514.2728, 4.409893
514.7549, 4.084000
515.2370, 3.246460
515.7191, 2.407280
516.2012, 1.591454
516.6833, 1.103428
517.1655, 1.549709
517.6476, 2.131668
518.1297, 2.154953
518.6118, 0.5813600
519.0939, 0.4447100
519.5760, 8.1974000E-02
520.0582, 1.029411
520.5403, 1.305626
521.0224, 0.3129270
521.5045, 1.259995
521.9866, 0.4246900
522.4688, 2.190884
522.9509, 3.011414
523.4330, 1.435425
523.9151, 0.5079770
524.3972, 1.192829
524.8793, 0.6027260
525.3615, 3.0525001E-02
525.8436, 0.5825230
526.3257, 1.010193
526.8078, 1.377396
527.2899, 1.660267
527.7720, 1.683163
528.2542, 1.118004
528.7363, 0.4647790
529.2184, 0.5029490
529.7005, 1.115589
530.1826, 1.740635
530.6647, 2.232292
531.1469, 2.439903
531.6290, 2.084305
532.1111, 0.9654880
532.5932, 0.1186640
533.0753, 0.1779630
533.5574, 0.6575810
534.0396, 0.9573290
534.5217, 0.8494640
535.0038, 0.7165410
535.4859, 0.5739060
535.9680, 0.4456940
536.4501, 0.3633800
536.9323, 0.2171330
537.4144, 0.2992590
537.8965, 0.8153950
538.3786, 1.780647
538.8607, 2.431454
539.3428, 2.767155
539.8250, 2.800980
540.3071, 2.384739
540.7892, 1.590050
541.2713, 1.041740
541.7534, 0.8538060
542.2355, 0.8967700
542.7177, 1.169827
543.1998, 1.554977
543.6819, 1.669601
544.1640, 1.063641
544.6461, 0.3020100
545.1282, 0.2061540
545.6104, 0.4411390
546.0925, 0.3165250
546.5746, 0.6401670
547.0567, 1.671146
547.5388, 2.234707
548.0209, 2.105476
548.5031, 2.009907
548.9852, 2.216534
549.4673, 2.477436
549.9494, 2.528923
550.4315, 2.295403
550.9136, 1.933414
551.3958, 1.261082
551.8779, 0.5174600
552.3600, 0.5566480
552.8421, 1.660057
553.3242, 2.557793
553.8063, 2.631767
554.2885, 1.996471
554.7706, 1.550098
555.2527, 1.303741
555.7348, 1.129799
556.2169, 0.7169300
556.6990, 0.2979660
557.1812, 0.6493530
557.6633, 2.120373
558.1454, 3.488155
558.6275, 3.254757
559.1096, 2.141830
559.5917, 1.414562
560.0739, 2.103863
560.5560, 2.818008
561.0381, 2.868828
561.5202, 2.352333
562.0023, 1.723354
562.4844, 0.4598350
562.9666, 0.3180160
563.4487, 0.1703570
563.9308, 2.442650
564.4129, 3.466930
564.8950, 2.427818
565.3771, 1.033718
565.8593, 0.8067250
566.3414, 2.154755
566.8235, 2.860542
567.3056, 2.568359
567.7877, 1.774860
568.2698, 1.326736
568.7520, 1.210510
569.2341, 1.255753
569.7162, 1.534405
570.1983, 1.842339
570.6804, 1.714428
571.1625, 1.213341
571.6447, 0.7687030
572.1268, 0.7059750
572.6089, 0.8092270
573.0910, 0.8847010
573.5731, 0.9090160
574.0552, 0.9158630
574.5374, 0.7793010
575.0195, 0.7016300
575.5016, 0.8729780
575.9837, 1.911530
576.4658, 2.474396
576.9479, 2.100410
577.4301, 1.260582
577.9122, 0.8456730
578.3943, 0.9993820
578.8764, 1.301533
579.3585, 1.770420
579.8406, 2.356678
580.3228, 2.194527
580.8049, 1.181599
581.2870, 5.2627999E-02
581.7691, 0.9266970
582.2512, 1.673279
582.7333, 1.684620
583.2155, 0.9013790
583.6975, 0.2019000
584.1796, 1.754112
584.6617, 3.213192
585.1439, 3.591141
585.6260, 2.083084
586.1081, 0.4125060
586.5902, 0.5629840
587.0723, 0.9381640
587.5544, 0.8857460
588.0366, 0.1429630
588.5187, 0.6933780
589.0008, 1.708729
589.4829, 2.824673
589.9650, 2.955593
590.4471, 1.075665
590.9293, 0.4500050
591.4114, 0.1942060
591.8935, 2.283661
592.3756, 3.163757
592.8577, 2.041306
593.3398, 0.5138090
593.8220, 0.4466820
594.3041, 1.667522
594.7862, 2.567841
595.2683, 2.804661
595.7504, 2.679924
596.2325, 2.537914
596.7147, 2.389851
597.1968, 2.218620
597.6789, 2.029053
598.1610, 1.787697
598.6431, 1.380524
599.1252, 0.8733440
599.6074, 0.5562480
600.0895, 0.6600490
600.5716, 0.8654790
601.0537, 1.013248
601.5358, 1.058784
602.0179, 1.200802
602.5001, 1.495140
602.9822, 1.824448
603.4643, 2.128654
603.9464, 2.462814
604.4285, 2.645939
604.9106, 2.671539
605.3928, 2.507210
605.8749, 1.952263
606.3570, 1.052307
606.8391, 0.4451450
607.3212, 0.3928030
607.8033, 0.6450120
608.2855, 0.8565100
608.7676, 1.047970
609.2497, 1.302711
609.7318, 1.729111
610.2139, 2.187233
610.6960, 2.636749
611.1782, 3.060429
611.6603, 3.237631
612.1424, 2.826529
612.6245, 2.337706
613.1066, 2.108383
613.5887, 2.328217
614.0709, 2.387512
614.5530, 2.080402
615.0351, 1.809481
615.5172, 2.101135
615.9993, 3.173773
616.4814, 3.746647
616.9636, 3.512936
617.4457, 2.885983
617.9278, 2.787453
618.4099, 3.134270
618.8920, 3.063831
619.3741, 1.734978
619.8563, 0.1346910
620.3384, 0.1080530
620.8205, 0.7699300
621.3026, 1.691891
621.7847, 2.116192
622.2668, 2.247345
622.7490, 2.111469
623.2311, 1.670784
623.7132, 1.495100
624.1953, 2.101271
624.6774, 2.750164
625.1595, 2.904434
625.6417, 2.111319
626.1238, 1.714014
626.6059, 1.843721
627.0880, 2.230572
627.5701, 2.580507
628.0522, 2.910564
628.5344, 3.008099
629.0165, 2.749121
629.4986, 2.339235
629.9807, 2.225662
630.4628, 2.353540
630.9449, 2.414665
631.4271, 2.040705
631.9092, 1.660019
632.3913, 1.907907
632.8734, 2.664883
633.3555, 3.166899
633.8376, 2.646551
634.3198, 2.059889
634.8019, 2.139080
635.2840, 3.196871
635.7661, 3.596674
636.2482, 2.453691
636.7303, 1.207878
637.2125, 0.8720490
637.6946, 1.786791
638.1767, 2.675013
638.6588, 3.576912
639.1409, 4.277536
639.6230, 4.335159
640.1052, 3.798553
640.5873, 3.175768
641.0694, 2.516741
641.5515, 2.098967
642.0336, 2.543139
642.5157, 3.541586
642.9979, 4.221121
643.4800, 3.841770
643.9621, 3.235500
644.4442, 3.024916
644.9263, 3.135191
645.4084, 2.986708
645.8906, 1.689703
646.3727, 0.7532140
646.8548, 1.178806
647.3369, 3.256365
647.8190, 4.362856
648.3011, 4.276360
648.7833, 3.491159
649.2654, 2.194736
649.7475, 0.2770480
650.2296, 0.6787930
650.7117, 0.4422150
651.1938, 0.1727010
651.6760, 0.1284560
652.1581, 0.3545760
652.6402, 0.5966510
653.1223, 0.3382630
653.6044, 3.9310001E-02
654.0865, 0.1034260
654.5687, 5.1743001E-02
655.0508, 0.2631440
655.5329, 1.329838
656.0150, 2.221664
656.4971, 2.494705
656.9792, 2.249660
657.4614, 1.969885
657.9435, 1.397299
658.4256, 1.196861
658.9077, 1.717073
659.3898, 2.914892
659.8719, 3.771065
660.3541, 4.289295
660.8362, 4.452293
661.3183, 3.992048
661.8004, 3.133627
662.2825, 2.878977
662.7646, 3.319460
663.2468, 3.710232
663.7289, 3.180620
664.2110, 2.285721
664.6931, 1.773588
665.1752, 1.922255
665.6573, 2.173538
666.1395, 2.452183
666.6216, 2.628237
667.1037, 2.541119
667.5858, 1.553509
668.0679, 1.136097
668.5500, 1.806534
669.0322, 3.012487
669.5143, 3.069365
669.9964, 1.702335
670.4785, 0.7261200
670.9606, 0.8565410
671.4427, 1.624500
671.9249, 1.577747
672.4070, 0.8376140
672.8891, 0.3880880
673.3712, 1.044291
673.8533, 2.172029
674.3354, 3.312304
674.8176, 4.382193
675.2997, 4.735874
675.7818, 3.283854
676.2639, 1.592871
676.7460, 0.6323950
677.2281, 0.6866280
677.7103, 0.8327140
678.1924, 1.071749
678.6745, 1.406496
679.1566, 1.895161
679.6387, 2.711508
680.1208, 2.654934
680.6030, 1.380266
681.0851, 6.5400000E-03
681.5672, 0.1715280
682.0493, 1.540438
682.5314, 2.620752
683.0135, 3.020203
683.4957, 3.072006
683.9778, 3.126787
684.4599, 3.080137
684.9420, 2.735254
685.4241, 1.459404
685.9063, 0.4573000
686.3884, 0.2091060
686.8705, 0.5964070
687.3526, 1.202423
687.8347, 2.274950
688.3168, 3.169975
688.7990, 3.724396
689.2811, 3.959686
689.7632, 3.883820
690.2453, 3.446735
690.7274, 3.068501
691.2095, 3.065758
691.6917, 3.305983
692.1738, 3.349083
692.6559, 3.202627
693.1380, 3.140965
693.6201, 3.615009
694.1022, 4.121790
694.5844, 4.096855
695.0665, 3.384968
695.5486, 2.733341
696.0307, 2.358078
696.5128, 2.164515
696.9949, 2.065477
697.4771, 1.961760
697.9592, 2.202969
698.4413, 3.059656
698.9234, 3.910709
699.4055, 3.888107
699.8876, 2.974403
700.3698, 2.187799
700.8519, 1.706345
701.3340, 1.452702
701.8161, 1.286558
702.2982, 1.171995
702.7803, 1.206131
703.2625, 1.489281
703.7446, 1.839499
704.2267, 2.236021
704.7088, 2.607683
705.1909, 2.771172
705.6730, 2.598625
706.1552, 2.288797
706.6373, 1.741222
707.1194, 1.074589
707.6015, 0.8772320
708.0836, 1.237709
708.5657, 1.686705
709.0479, 2.023483
709.5300, 2.258768
710.0121, 2.724480
710.4942, 3.407274
710.9763, 3.689096
711.4584, 2.623087
711.9406, 1.179127
712.4227, 0.7650930
712.9048, 1.422039
713.3869, 1.860647
713.8690, 0.8743150
714.3511, 0.1239720
714.8333, 8.0926999E-02
715.3154, 1.634489
715.7975, 2.694317
716.2796, 2.932823
716.7617, 2.718071
717.2438, 2.174650
717.7260, 1.229954
718.2081, 0.8796900
718.6902, 1.284718
719.1723, 1.877689
719.6544, 1.851065
720.1365, 1.492878
720.6187, 1.668631
721.1008, 2.844063
721.5829, 3.746700
722.0650, 2.827339
722.5471, 1.258553
723.0292, 0.5962100
723.5114, 2.404861
723.9935, 3.794449
724.4756, 4.488600
724.9577, 4.455320
725.4398, 3.324327
725.9219, 0.3145240
726.4041, 1.309343
726.8862, 0.4708350
727.3683, 1.771727
727.8504, 2.991850
728.3325, 3.276209
728.8146, 3.198118
729.2968, 2.882462
729.7789, 2.441946
730.2610, 1.852783
730.7431, 1.220259
731.2252, 0.8967780
731.7073, 1.422245
732.1895, 1.905418
732.6716, 1.934105
733.1537, 1.524860
733.6358, 1.140938
734.1179, 0.4877970
734.6000, 0.1780030
735.0822, 0.7499680
735.5643, 2.054003
736.0464, 2.497822
736.5285, 2.052031
737.0106, 1.335587
737.4927, 0.4791130
737.9749, 0.2394100
738.4570, 0.1465230
738.9391, 0.7482490
739.4212, 1.486343
739.9033, 1.167423
740.3854, 0.7020550
740.8676, 0.8643680
741.3497, 2.045092
741.8318, 2.595411
742.3139, 1.987804
742.7960, 1.214333
743.2781, 0.9748290
743.7603, 1.361744
744.2424, 1.651751
744.7245, 1.823620
745.2066, 1.929110
745.6887, 1.894621
746.1708, 1.843332
746.6530, 2.228991
747.1351, 3.260231
747.6172, 4.023123
748.0993, 3.540024
748.5814, 2.551672
749.0635, 1.891584
749.5457, 1.900513
750.0278, 1.996897
750.5099, 2.186996
750.9920, 2.373466
751.4741, 2.453888
751.9562, 2.435488
752.4384, 2.209158
752.9205, 1.641693
753.4026, 1.128866
753.8847, 1.486921
754.3668, 2.480793
754.8489, 3.110777
755.3311, 2.903261
755.8132, 2.548233
756.2953, 2.892076
756.7774, 3.468386
757.2595, 3.452450
757.7416, 1.831190
758.2238, 0.4754640
758.7059, 0.3656790
759.1880, 0.6350990
759.6701, 4.6976000E-02
760.1522, 2.270681
760.6343, 3.464279
761.1165, 2.625370
761.5986, 0.7305580
762.0807, 0.1430470
762.5628, 0.7049520
763.0449, 1.506149
763.5270, 2.374390
764.0092, 3.062918
764.4913, 3.291719
764.9734, 3.143541
765.4555, 2.882023
765.9376, 2.645025
766.4197, 2.276304
766.9019, 1.466406
767.3840, 0.4148600
767.8661, 9.8999001E-02
768.3482, 0.7677480
768.8303, 1.442741
769.3124, 1.566532
769.7946, 1.420387
770.2767, 2.276243
770.7588, 3.979893
771.2409, 5.083298
771.7230, 4.105713
772.2051, 2.517437
772.6873, 1.777428
773.1694, 1.832874
773.6515, 1.937799
774.1336, 1.884771
774.6157, 1.772600
775.0978, 1.661915
775.5800, 1.550354
776.0621, 1.230436
776.5442, 0.5259550
777.0263, 0.1184220
777.5084, 0.5612320
777.9905, 1.632147
778.4727, 2.273661
778.9548, 2.500736
779.4369, 2.612309
779.9190, 2.908875
780.4011, 3.134686
780.8832, 3.017387
781.3654, 2.543505
781.8475, 1.952572
782.3296, 0.7278290
782.8117, 3.1961001E-02
783.2938, 0.3940050
783.7759, 2.177504
784.2581, 2.960693
784.7402, 2.607534
785.2223, 2.197187
785.7044, 2.748951
786.1865, 3.868731
786.6686, 3.826876
787.1508, 2.587284
787.6329, 1.287062
788.1150, 0.6678700
788.5971, 0.4496040
789.0792, 0.5030310
789.5613, 0.8666760
790.0435, 0.9282800
790.5256, 6.3703999E-02
791.0077, 0.8553600
791.4898, 0.6895350
791.9719, 0.6232110
792.4540, 1.558672
792.9362, 2.092279
793.4183, 2.300949
793.9004, 2.045513
794.3825, 1.523985
794.8646, 1.321987
795.3467, 1.480663
795.8289, 1.717913
796.3110, 2.085520
796.7931, 2.328695
797.2752, 2.149818
797.7573, 1.395456
798.2394, 0.7493900
798.7216, 0.2409920
799.2037, 9.0075999E-02
799.6858, 0.2068040
800.1679, 9.9671997E-02
800.6500, 0.2137550
801.1321, 0.7785950
801.6143, 1.294510
802.0964, 1.343355
802.5785, 1.190641
803.0606, 1.502810
803.5427, 2.401123
804.0248, 2.928699
804.5070, 1.954916
804.9891, 0.7802280
805.4712, 0.4643100
805.9533, 1.507757
806.4354, 2.222660
806.9175, 2.481266
807.3997, 2.560637
807.8818, 2.734932
808.3639, 2.991652
808.8460, 2.648106
809.3281, 1.634186
809.8102, 0.6062700
810.2924, 2.4139000E-02
810.7745, 8.9538999E-02
811.2566, 0.4188940
811.7387, 1.644753
812.2208, 2.463400
812.7029, 2.109095
813.1851, 1.432138
813.6672, 0.9787770
814.1493, 0.7474460
814.6314, 0.8334240
815.1135, 1.330103
815.5956, 1.909542
816.0778, 2.448027
816.5599, 2.841692
817.0420, 2.499249
817.5241, 1.427292
818.0062, 0.6040290
818.4883, 1.297842
818.9705, 2.322142
819.4526, 2.349321
819.9347, 1.025955
820.4168, 0.2124120
820.8989, 0.6419280
821.3810, 1.377270
821.8632, 2.103228
822.3453, 2.897345
822.8274, 2.657160
823.3095, 1.186720
823.7916, 5.6628998E-02
824.2737, 0.6806910
824.7559, 2.332926
825.2380, 2.469902
825.7201, 1.001266
826.2022, 0.1707120
826.6843, 0.3986260
827.1664, 1.428072
827.6486, 2.143490
828.1307, 2.467194
828.6128, 2.412233
829.0949, 1.711634
829.5770, 1.097528
830.0591, 0.9966770
830.5413, 1.367855
831.0234, 1.821398
831.5055, 2.383612
831.9876, 2.755304
832.4697, 2.567644
832.9518, 2.211287
833.4340, 2.198969
833.9161, 2.514008
834.3982, 2.513556
834.8803, 1.455519
835.3624, 0.5516590
835.8445, 0.3667700
836.3267, 0.8673480
836.8088, 1.342686
837.2909, 1.829319
837.7730, 2.105034
838.2551, 1.879421
838.7372, 1.404776
839.2194, 1.349186
839.7015, 1.644773
840.1836, 2.023884
840.6657, 2.676552
841.1478, 3.102671
841.6299, 2.788504
842.1121, 1.831146
842.5942, 1.219446
843.0763, 1.128609
843.5584, 1.164415
844.0405, 1.225826
844.5226, 1.312664
845.0048, 1.399548
845.4869, 1.492701
845.9690, 1.698181
846.4511, 2.330721
846.9332, 2.878929
847.4153, 2.529755
847.8975, 1.619516
848.3796, 1.093807
848.8617, 1.681997
849.3438, 2.208029
849.8259, 2.251852
850.3080, 2.006397
850.7902, 2.179173
851.2723, 2.898117
851.7544, 3.230120
852.2365, 2.816866
852.7186, 2.024055
853.2007, 1.301325
853.6829, 0.7284450
854.1650, 0.5187990
854.6471, 0.9366070
855.1292, 1.498127
855.6113, 2.289595
856.0934, 2.989258
856.5756, 2.955372
857.0577, 1.554279
857.5398, 0.7171440
858.0219, 0.7814660
858.5040, 1.311844
858.9861, 1.738422
859.4683, 2.034668
859.9504, 1.986971
860.4325, 1.441431
860.9146, 0.8878670
861.3967, 0.9034020
861.8788, 1.121986
862.3610, 1.072548
862.8431, 0.3496760
863.3252, 0.1060810
863.8073, 0.1391010
864.2894, 3.2320000E-02
864.7715, 0.1950780
865.2537, 0.3427100
865.7358, 0.7429790
866.2179, 1.500124
866.7000, 1.962580
867.1821, 1.028006
867.6642, 0.4333610
868.1464, 1.156919
868.6285, 0.9167540
869.1106, 0.2619630
869.5927, 1.256302
870.0748, 2.541197
870.5569, 2.752363
871.0391, 1.645950
871.5212, 1.242161
872.0033, 1.717075
872.4854, 2.198172
872.9675, 1.832809
873.4496, 1.024445
873.9318, 0.8123660
874.4139, 1.182539
874.8960, 1.554049
875.3781, 1.719934
875.8602, 1.661886
876.3423, 1.150417
876.8245, 0.2148630
877.3066, 8.1059998E-03
877.7887, 0.8543820
878.2708, 1.713106
878.7529, 2.272577
879.2350, 2.488667
879.7172, 1.894320
880.1993, 0.6696910
880.6814, 7.2059996E-02
881.1635, 0.7586440
881.6456, 1.896690
882.1277, 2.425838
882.6099, 2.416380
883.0920, 2.218304
883.5741, 1.458290
884.0562, 1.145952
884.5383, 1.690720
885.0204, 2.607136
885.5026, 2.795130
885.9847, 2.304926
886.4668, 1.932261
886.9489, 2.006508
887.4310, 2.045929
887.9131, 1.288174
888.3953, 0.2203350
888.8774, 0.4279170
889.3595, 0.2877350
889.8416, 5.5652998E-02
890.3237, 0.7092060
890.8058, 1.363420
891.2880, 1.672943
891.7701, 1.606977
892.2522, 1.586824
892.7343, 1.663225
893.2164, 1.693274
893.6985, 1.390520
894.1807, 1.004967
894.6628, 1.006134
895.1449, 1.562487
895.6270, 1.769730
896.1091, 0.6826530
896.5912, 0.3034740
897.0734, 0.2585980
897.5555, 0.9379770
898.0376, 1.679615
898.5197, 1.940823
899.0018, 1.872108
899.4839, 1.244360
899.9661, 0.4911440
900.4482, 0.5500790
900.9303, 1.319683
901.4124, 2.042088
901.8945, 2.353024
902.3766, 2.528997
902.8588, 2.759741
903.3409, 2.981606
903.8230, 2.823092
904.3051, 2.155315
904.7872, 1.606436
905.2693, 1.390455
905.7515, 1.398525
906.2336, 1.438606
906.7157, 1.531012
907.1978, 1.659643
907.6799, 1.863216
908.1620, 2.096537
908.6442, 2.421772
909.1263, 2.736143
909.6084, 2.872423
910.0905, 2.774582
910.5726, 2.657421
911.0547, 2.559271
911.5369, 2.399307
912.0190, 1.830223
912.5011, 1.122318
912.9832, 1.257524
913.4653, 2.582905
913.9474, 3.530067
914.4296, 2.563524
914.9117, 1.149635
915.3938, 0.5988100
915.8759, 1.254166
916.3580, 1.641445
916.8401, 1.715096
917.3223, 1.631824
917.8044, 1.358793
918.2865, 1.017384
918.7686, 1.139183
919.2507, 1.680084
919.7328, 2.199137
920.2150, 2.415380
920.6971, 2.528015
921.1792, 2.697428
921.6613, 2.896900
922.1434, 2.847160
922.6255, 2.381172
923.1077, 2.033997
923.5898, 1.987337
924.0719, 2.102741
924.5540, 1.992378
925.0361, 1.731003
925.5182, 1.612432
926.0004, 1.899090
926.4825, 2.148348
926.9646, 1.979584
927.4467, 1.609818
927.9288, 1.380527
928.4109, 1.369150
928.8931, 1.356216
929.3752, 1.249763
929.8573, 1.309017
930.3394, 2.173613
930.8215, 3.471539
931.3036, 3.726377
931.7858, 2.704973
932.2679, 1.612661
932.7500, 1.092791
933.2321, 0.9808140
933.7142, 1.230379
934.1964, 1.895203
934.6785, 2.453289
935.1606, 2.869179
935.6427, 3.146772
936.1248, 3.337755
936.6069, 3.401659
937.0891, 3.216528
937.5712, 2.779438
938.0533, 2.080397
938.5354, 0.4680180
939.0175, 0.7617210
939.4996, 0.5921880
939.9818, 0.5312920
940.4639, 1.265387
940.9460, 1.344040
941.4281, 1.643044
941.9102, 2.431921
942.3923, 3.272821
942.8745, 3.365942
943.3566, 2.926943
943.8387, 2.596926
944.3208, 2.588173
944.8029, 2.498096
945.2850, 1.859116
945.7672, 1.183033
946.2493, 0.9918370
946.7314, 1.405914
947.2135, 1.741972
947.6956, 2.034584
948.1777, 2.163816
948.6599, 1.985178
949.1420, 1.597507
949.6241, 1.109337
950.1062, 0.5760670
950.5883, 0.3707940
951.0704, 1.002632
951.5526, 1.712034
952.0347, 2.261467
952.5168, 2.577967
952.9989, 2.225418
953.4810, 0.9761910
953.9631, 0.1646920
954.4453, 0.2527140
954.9274, 0.7885910
955.4095, 1.189743
955.8916, 1.403315
956.3737, 1.322184
956.8558, 0.6146370
957.3380, 0.1748940
957.8201, 0.5918030
958.3022, 1.224937
958.7843, 1.425293
959.2664, 1.049328
959.7485, 1.164263
960.2307, 1.878954
960.7128, 2.502846
961.1949, 2.082666
961.6770, 1.363710
962.1591, 1.744669
962.6412, 3.204063
963.1234, 3.790520
963.6055, 1.394026
964.0876, 0.3587360
964.5697, 0.1874900
965.0518, 2.351290
965.5339, 3.025084
966.0161, 2.208729
966.4982, 1.302711
966.9803, 0.6556950
967.4624, 0.4630850
967.9445, 1.502613
968.4266, 3.066219
968.9088, 3.861994
969.3909, 2.655106
969.8730, 1.780745
970.3551, 1.432980
970.8372, 1.447016
971.3193, 1.781216
971.8015, 2.377768
972.2836, 2.708731
972.7657, 2.729948
973.2478, 2.561098
973.7299, 2.164280
974.2120, 1.715462
974.6942, 1.301859
975.1763, 0.9392950
975.6584, 0.8424190
976.1405, 1.055960
976.6226, 1.455235
977.1047, 2.077223
977.5869, 2.786564
978.0690, 3.375536
978.5511, 3.738281
979.0332, 3.452061
979.5153, 1.714251
979.9974, 0.2043700
980.4796, 0.1051670
980.9617, 0.3343220
981.4438, 0.9309440
981.9259, 1.917969
982.4080, 2.171076
982.8901, 1.455505
983.3723, 0.7101610
983.8544, 1.048220
984.3365, 1.966860
984.8186, 2.617815
985.3007, 2.920269
985.7828, 2.837627
986.2650, 1.872427
986.7471, 1.040010
987.2292, 0.7237220
987.7113, 0.8687530
988.1934, 1.443823
988.6755, 2.491016
989.1577, 2.908981
989.6398, 2.004559
990.1219, 0.7255100
990.6040, 0.1189900
991.0861, 3.6924001E-02
991.5682, 0.1205310
992.0504, 0.4532300
992.5325, 0.3276180
993.0146, 0.6278990
993.4967, 1.611551
993.9788, 1.816490
994.4609, 1.332611
994.9431, 0.8382150
995.4252, 0.3709200
995.9073, 0.2182850
996.3894, 1.041508
996.8715, 1.834402
997.3536, 1.774780
997.8358, 0.9412630
998.3179, 0.5983540
998.8000, 0.9488980
999.2821, 1.328783
999.7642, 1.506252
1000.246, 1.622103
1000.728, 2.154642
1001.211, 2.858021
1001.693, 2.879156
1002.175, 1.503874
1002.657, 0.4177550
1003.139, 0.6568550
1003.621, 1.301968
1004.103, 1.463972
1004.585, 0.9808920
1005.068, 1.066900
1005.550, 1.791573
1006.032, 2.409370
1006.514, 2.110449
1006.996, 1.541439
1007.478, 1.564207
1007.960, 2.100559
1008.442, 2.526630
1008.924, 2.456692
1009.407, 2.570307
1009.889, 3.166380
1010.371, 3.870352
1010.853, 3.820255
1011.335, 3.122694
1011.817, 2.446154
1012.299, 1.897854
1012.781, 1.587919
1013.263, 1.851553
1013.746, 2.230551
1014.228, 2.222530
1014.710, 1.675329
1015.192, 1.415920
1015.674, 1.487598
1016.156, 1.719790
1016.638, 2.200327
1017.120, 2.679708
1017.603, 2.403439
1018.085, 1.607855
1018.567, 1.137186
1019.049, 2.011404
1019.531, 2.462233
1020.013, 1.524700
1020.495, 0.1706640
1020.977, 0.1031700
1021.459, 0.7318950
1021.942, 1.426775
1022.424, 1.881390
1022.906, 2.015251
1023.388, 1.563494
1023.870, 0.9122520
1024.352, 0.4579520
1024.834, 0.2210710
1025.316, 0.1475750
1025.799, 0.9810520
1026.281, 1.268499
1026.763, 0.3366260
1027.245, 1.184595
1027.727, 1.560875
1028.209, 1.111698
1028.691, 0.9111270
1029.173, 1.553553
1029.656, 2.249542
1030.138, 2.853119
1030.620, 3.172380
1031.102, 2.937677
1031.584, 1.974781
1032.066, 1.461439
1032.548, 1.446585
1033.030, 1.610620
1033.512, 1.767048
1033.995, 1.902176
1034.477, 2.034529
1034.959, 2.142818
1035.441, 2.099272
1035.923, 1.783663
1036.405, 1.441887
1036.887, 1.097116
1037.369, 0.7784980
1037.851, 0.4212530
1038.334, 0.1176930
1038.816, 0.3582610
1039.298, 1.421448
1039.780, 2.215445
1040.262, 1.672052
1040.744, 0.8974460
1041.226, 0.8148590
1041.708, 1.478228
1042.191, 2.132248
1042.673, 2.852919
1043.155, 2.969730
1043.637, 1.493483
1044.119, 0.2454660
1044.601, 0.1649110
1045.083, 1.078566
1045.565, 1.961321
1046.047, 1.708595
1046.530, 1.556295
1047.012, 1.671827
1047.494, 1.829103
1047.976, 1.785837
1048.458, 1.566639
1048.940, 1.176374
1049.422, 0.6291620
1049.904, 0.2852150
1050.386, 0.3268090
1050.869, 0.7594830
1051.351, 1.965714
1051.833, 3.583574
1052.315, 4.066940
1052.797, 3.272867
1053.279, 2.365248
1053.761, 1.553020
1054.243, 1.001074
1054.726, 1.231308
1055.208, 1.715406
1055.690, 1.613180
1056.172, 0.3824860
1056.654, 0.1473100
1057.136, 0.5874200
1057.618, 1.235815
1058.100, 0.7234750
1058.583, 0.4789350
1059.065, 0.3678610
1059.547, 0.8132500
1060.029, 1.945358
1060.511, 2.575338
1060.993, 2.868736
1061.475, 2.784189
1061.957, 2.441648
1062.439, 1.878031
1062.922, 1.001230
1063.404, 0.8668710
1063.886, 1.632311
1064.368, 2.420637
1064.850, 2.394787
1065.332, 2.047747
1065.814, 1.830471
1066.296, 1.772612
1066.778, 1.755024
1067.261, 1.753084
1067.743, 1.839188
1068.225, 2.150490
1068.707, 2.404081
1069.189, 1.868570
1069.671, 0.9709840
1070.153, 0.7363490
1070.635, 1.604637
1071.118, 2.425232
1071.600, 2.751219
1072.082, 2.857407
1072.564, 2.925310
1073.046, 2.931543
1073.528, 2.363413
1074.010, 1.291002
1074.492, 0.6657140
1074.974, 1.467182
1075.457, 2.371469
1075.939, 2.236929
1076.421, 1.595932
1076.903, 1.380116
1077.385, 1.821571
1077.867, 2.114250
1078.349, 2.210861
1078.831, 2.196997
1079.313, 2.274704
1079.796, 2.249680
1080.278, 1.665863
1080.760, 0.6176090
1081.242, 0.1043660
1081.724, 0.3633500
1082.206, 1.3539999E-03
1082.688, 1.373999
1083.170, 2.922834
1083.652, 2.839716
1084.135, 1.571938
1084.617, 0.7639450
1085.099, 0.7079200
1085.581, 0.8055460
1086.063, 0.5775850
1086.545, 0.5480980
1087.027, 1.228390
1087.509, 2.482433
1087.992, 2.876072
1088.474, 2.401781
1088.956, 1.684122
1089.438, 0.7400340
1089.920, 6.9329999E-02
1090.402, 0.2456680
1090.884, 0.9541150
1091.366, 1.859724
1091.849, 3.387735
1092.331, 3.645105
1092.813, 2.252769
1093.295, 0.8736250
1093.777, 0.9274690
1094.259, 1.727058
1094.741, 1.990276
1095.223, 1.850386
1095.705, 1.829412
1096.188, 2.453072
1096.670, 2.729002
1097.152, 2.402702
1097.634, 1.808889
1098.116, 1.323883
1098.598, 0.9400120
1099.080, 0.5979310
1099.562, 0.2926810
1100.044, 0.1851390
1100.527, 0.7109580
1101.009, 1.116941
1101.491, 0.8201500
1101.973, 9.7157001E-02
1102.455, 0.1090200
1102.937, 0.2566990
1103.419, 0.9704550
1103.901, 1.980570
1104.384, 2.629471
1104.866, 1.539814
1105.348, 0.1284330
1105.830, 5.9882998E-02
1106.312, 1.307411
1106.794, 2.365126
1107.276, 3.162773
1107.758, 3.418234
1108.240, 2.756418
1108.723, 1.792589
1109.205, 1.431616
1109.687, 1.504919
1110.169, 1.685705
1110.651, 1.940430
1111.133, 2.208981
1111.615, 2.530949
1112.097, 2.839333
1112.579, 3.038298
1113.062, 3.073376
1113.544, 2.573002
1114.026, 1.683880
1114.508, 1.125410
1114.990, 1.383579
1115.472, 1.926176
1115.954, 2.955706
1116.436, 3.833702
1116.919, 3.587965
1117.401, 2.344290
1117.883, 1.707720
1118.365, 1.821196
1118.847, 2.010897
1119.329, 1.777987
1119.811, 1.475201
1120.293, 1.291325
1120.776, 1.234602
1121.258, 1.384546
1121.740, 1.792204
1122.222, 1.826038
1122.704, 1.276131
1123.186, 0.7356410
1123.668, 1.183710
1124.150, 1.794046
1124.632, 1.519020
1125.115, 0.1536390
1125.597, 0.5055830
1126.079, 0.3607580
1126.561, 0.2740020
1127.043, 1.575216
1127.525, 2.815245
1128.007, 2.317770
1128.489, 1.063120
1128.971, 0.8788190
1129.454, 3.001001
1129.936, 3.920288
1130.418, 2.714348
1130.900, 1.474504
1131.382, 1.655914
1131.864, 2.686508
1132.346, 2.827965
1132.828, 2.284359
1133.311, 1.728935
1133.793, 1.264284
1134.275, 1.089329
1134.757, 1.393463
1135.239, 1.820936
1135.721, 2.064890
1136.203, 2.135695
1136.685, 2.160452
1137.167, 2.130892
1137.650, 1.924553
1138.132, 1.258472
1138.614, 0.6283340
1139.096, 0.2042010
1139.578, 1.3138000E-02
1140.060, 0.1284770
1140.542, 0.6228280
1141.024, 0.7667180
1141.506, 0.4542370
1141.989, 0.4334620
1142.471, 1.890392
1142.953, 3.352171
1143.435, 3.490124
1143.917, 2.581305
1144.399, 2.285646
1144.881, 2.736116
1145.363, 2.890060
1145.846, 2.480072
1146.328, 1.883127
1146.810, 1.343969
1147.292, 0.9523370
1147.774, 0.7888370
1148.256, 0.8820650
1148.738, 1.297966
1149.220, 2.208096
1149.703, 2.792246
1150.185, 2.679564
1150.667, 2.269577
1151.149, 2.106052
1151.631, 2.068516
1152.113, 1.939150
1152.595, 1.590229
1153.077, 1.489122
1153.559, 1.789862
1154.042, 2.020233
1154.524, 1.820332
1155.006, 1.482748
1155.488, 1.791845
1155.970, 2.471117
1156.452, 2.845808
1156.934, 2.506744
1157.416, 2.193045
1157.898, 1.974297
1158.381, 1.845404
1158.863, 2.013525
1159.345, 2.259081
1159.827, 1.209337
1160.309, 0.6814000
1160.791, 1.526026
1161.273, 0.9767610
1161.755, 2.689684
1162.238, 2.092907
1162.720, 0.8579040
1163.202, 0.8635330
1163.684, 1.859570
1164.166, 2.234816
1164.648, 1.959127
1165.130, 1.507977
1165.612, 0.6508670
1166.094, 0.2745020
1166.577, 1.129721
1167.059, 2.429283
1167.541, 3.057209
1168.023, 3.024096
1168.505, 2.191828
1168.987, 0.5386300
1169.469, 0.7053200
1169.951, 0.3099120
1170.433, 0.3878610
1170.916, 0.6230370
1171.398, 0.5368670
1171.880, 0.4386580
1172.362, 0.3299770
1172.844, 0.4337710
1173.326, 0.8068790
1173.808, 1.287645
1174.290, 1.970356
1174.773, 2.512476
1175.255, 2.553915
1175.737, 2.191814
1176.219, 1.862673
1176.701, 1.562494
1177.183, 1.334082
1177.665, 1.196381
1178.147, 1.099037
1178.630, 1.093493
1179.112, 1.035057
1179.594, 0.5856490
1180.076, 0.2556060
1180.558, 7.3188998E-02
1181.040, 1.774668
1181.522, 2.587263
1182.004, 1.208872
1182.486, 0.4575630
1182.969, 0.2783530
1183.451, 0.7209400
1183.933, 1.438536
1184.415, 1.758373
1184.897, 1.821529
1185.379, 1.590370
1185.861, 1.329470
1186.343, 1.085754
1186.825, 0.9966390
1187.308, 1.388903
1187.790, 1.985044
1188.272, 2.345797
1188.754, 2.390989
1189.236, 2.229006
1189.718, 1.820570
1190.200, 1.413376
1190.682, 1.089233
1191.165, 0.9220280
1191.647, 1.230082
1192.129, 1.719143
1192.611, 1.771156
1193.093, 0.6304340
1193.575, 0.4397370
1194.057, 1.422596
1194.539, 2.564020
1195.021, 3.358154
1195.504, 3.642136
1195.986, 2.648104
1196.468, 0.9686010
1196.950, 0.4354440
1197.432, 2.052277
1197.914, 2.880167
1198.396, 2.611464
1198.878, 2.010595
1199.360, 1.594273
1199.843, 1.432333
1200.325, 1.741547
1200.807, 2.420622
1201.289, 3.093412
1201.771, 4.092175
1202.253, 4.019203
1202.735, 2.384644
1203.217, 0.7431830
1203.700, 1.185192
1204.182, 2.500135
1204.664, 2.983547
1205.146, 2.622877
1205.628, 2.155313
1206.110, 1.532093
1206.592, 1.203846
1207.074, 1.277401
1207.557, 1.552980
1208.039, 1.854893
1208.521, 2.154222
1209.003, 2.400326
1209.485, 2.594095
1209.967, 2.851479
1210.449, 3.475863
1210.931, 3.416601
1211.413, 2.259962
1211.896, 0.8605980
1212.378, 0.2006340
1212.860, 0.1096780
1213.342, 0.5133570
1213.824, 1.397800
1214.306, 1.951618
1214.788, 1.936823
1215.270, 2.074600
1215.752, 2.639427
1216.235, 3.221472
1216.717, 3.252169
1217.199, 2.913380
1217.681, 2.345093
1218.163, 1.482330
1218.645, 1.068792
1219.127, 1.380348
1219.609, 1.938011
1220.092, 2.703848
1220.574, 3.436941
1221.056, 4.042019
1221.538, 4.294230
1222.020, 3.616882
1222.502, 1.715557
1222.984, 0.8884470
1223.466, 1.612139
1223.948, 2.032955
1224.431, 1.278534
1224.913, 0.3043900
1225.395, 0.5619280
1225.877, 1.463902
1226.359, 2.265398
1226.841, 2.866985
1227.323, 3.099173
1227.805, 3.044153
1228.287, 2.609430
1228.770, 1.524395
1229.252, 0.4037080
1229.734, 0.2214260
1230.216, 0.4774250
1230.698, 0.4225290
1231.180, 0.5785870
1231.662, 1.059938
1232.144, 0.9691720
1232.627, 1.909214
1233.109, 2.256870
1233.591, 2.244516
1234.073, 1.789076
1234.555, 1.334566
1235.037, 1.639166
1235.519, 3.000271
1236.001, 3.495380
1236.484, 3.033178
1236.966, 2.491375
1237.448, 2.317719
1237.930, 2.224527
1238.412, 1.857416
1238.894, 1.491373
1239.376, 1.577433
1239.858, 2.193378
1240.340, 2.739632
1240.823, 3.270632
1241.305, 3.351723
1241.787, 2.412451
1242.269, 1.339060
1242.751, 0.6363200
1243.233, 0.4180150
1243.715, 0.9656410
1244.197, 2.433064
1244.679, 2.808298
1245.162, 2.115339
1245.644, 1.342268
1246.126, 0.8177430
1246.608, 0.6670510
1247.090, 1.299133
1247.572, 2.148361
1248.054, 2.641041
1248.536, 2.792076
1249.019, 2.042103
1249.501, 0.5181960
1249.983, 0.4082340
1250.465, 0.6217250
1250.947, 1.696888
1251.429, 1.723845
1251.911, 1.411140
1252.393, 1.515604
1252.875, 1.981951
1253.358, 1.419962
1253.840, 4.0856998E-02
1254.322, 0.7592120
1254.804, 0.2906460
1255.286, 1.347488
1255.768, 1.843964
1256.250, 2.029076
1256.732, 1.942503
1257.214, 1.681244
1257.697, 1.929411
1258.179, 2.575556
1258.661, 3.149055
1259.143, 3.705761
1259.625, 3.705338
1260.107, 2.822807
1260.589, 1.793459
1261.071, 1.114744
1261.554, 0.8115060
1262.036, 1.191551
1262.518, 2.040380
1263.000, 2.643559
1263.482, 2.607944
1263.964, 2.476969
1264.446, 2.282364
1264.928, 2.048002
1265.411, 1.582495
1265.893, 1.189419
1266.375, 1.718727
1266.857, 2.794062
1267.339, 3.393326
1267.821, 2.863535
1268.303, 2.511978
1268.785, 2.344828
1269.267, 2.443378
1269.750, 3.293310
1270.232, 4.121216
1270.714, 3.700108
1271.196, 2.506794
1271.678, 1.651798
1272.160, 1.214708
1272.642, 1.235680
1273.124, 1.772175
1273.606, 2.276546
1274.089, 2.490316
1274.571, 2.372519
1275.053, 1.629673
1275.535, 0.6283170
1276.017, 1.6348001E-02
1276.499, 0.2661740
1276.981, 0.3917100
1277.463, 0.2613010
1277.946, 2.8322000E-02
1278.428, 0.6427670
1278.910, 1.063042
1279.392, 1.306034
1279.874, 1.373957
1280.356, 1.402496
1280.838, 1.392357
1281.320, 1.359655
1281.802, 1.311459
1282.285, 1.301563
1282.767, 1.211521
1283.249, 1.374319
1283.731, 2.264055
1284.213, 3.066620
1284.695, 2.905861
1285.177, 2.026968
1285.659, 1.597136
1286.141, 1.538315
1286.624, 1.500154
1287.106, 1.240429
1287.588, 1.137796
1288.070, 1.251907
1288.552, 1.484192
1289.034, 1.899174
1289.516, 2.300537
1289.998, 1.870659
1290.481, 1.898155
1290.963, 1.947678
1291.445, 1.716070
1291.927, 2.026560
1292.409, 1.460564
1292.891, 0.9760630
1293.373, 1.509672
1293.855, 2.310938
1294.338, 2.451002
1294.820, 2.149017
1295.302, 1.784817
1295.784, 1.347055
1296.266, 1.044384
1296.748, 0.8833540
1297.230, 0.8897150
1297.712, 1.092167
1298.194, 1.368971
1298.677, 1.921062
1299.159, 2.274817
1299.641, 1.716219
1300.123, 0.2019730
1300.605, 4.7237001E-02
1301.087, 0.8211630
1301.569, 1.472088
1302.051, 0.6289230
1302.533, 2.6098000E-02
1303.016, 0.0000000E+00
##END=



