##NAMES=Lithiophorite
##RRUFFID=R070083
##IDEAL CHEMISTRY=(Al,Li)Mn^4+^O_2_(OH)_2_
##LOCALITY=Sausalito Road Quarry, Sausalito, Marine County, California, USA
##OWNER=RRUFF
##SOURCE=James Shigley
##DESCRIPTION=Aggregates of shiny black spheres
##STATUS=The identification of this mineral is not yet confirmed.
##URL=rruff.info/R070083
158.3766, 0.0000000E+00
158.8587, 6.537376
159.3408, 14.89814
159.8230, 24.94357
160.3051, 15.33119
160.7872, 3.973885
161.2693, 1.129120
161.7514, 7.736031
162.2335, 16.92730
162.7157, 18.09645
163.1978, 9.930290
163.6799, 3.453407
164.1620, 5.497421
164.6441, 12.41589
165.1262, 18.76429
165.6084, 20.85163
166.0905, 22.51615
166.5726, 27.71635
167.0547, 38.38008
167.5368, 46.10783
168.0189, 42.55481
168.5011, 31.63556
168.9832, 22.44117
169.4653, 20.87231
169.9474, 22.45276
170.4295, 22.85190
170.9116, 20.78666
171.3938, 18.71943
171.8759, 19.19521
172.3580, 21.62828
172.8401, 23.92619
173.3222, 24.18086
173.8043, 23.63181
174.2865, 24.18617
174.7686, 26.98013
175.2507, 30.06219
175.7328, 30.63719
176.2149, 29.04646
176.6970, 27.92818
177.1792, 28.65293
177.6613, 31.31347
178.1434, 36.67831
178.6255, 48.78209
179.1076, 62.10993
179.5897, 67.17191
180.0719, 55.20244
180.5540, 40.64012
181.0361, 32.24667
181.5182, 28.95801
182.0003, 26.67929
182.4824, 22.69642
182.9646, 19.14682
183.4467, 22.90757
183.9288, 34.84769
184.4109, 46.60000
184.8930, 47.94096
185.3751, 40.17195
185.8573, 31.84525
186.3394, 24.74589
186.8215, 19.54485
187.3036, 20.24161
187.7857, 27.92273
188.2678, 37.42665
188.7500, 41.51656
189.2321, 40.42815
189.7142, 38.79720
190.1963, 39.36605
190.6784, 41.62760
191.1605, 41.61976
191.6427, 38.91986
192.1248, 34.60375
192.6069, 29.72960
193.0890, 24.19311
193.5711, 20.27316
194.0532, 19.84061
194.5354, 22.79552
195.0175, 24.39020
195.4996, 24.12883
195.9817, 22.63255
196.4638, 20.63108
196.9460, 17.82390
197.4281, 16.46465
197.9102, 20.59663
198.3923, 30.88495
198.8744, 31.43475
199.3565, 16.89212
199.8387, 5.764458
200.3208, 15.95467
200.8029, 12.13171
201.2850, 0.8793870
201.7671, 15.28436
202.2492, 36.61226
202.7314, 49.01408
203.2135, 48.62771
203.6956, 38.43969
204.1777, 29.61509
204.6598, 22.49411
205.1419, 17.62001
205.6241, 15.59241
206.1062, 16.67442
206.5883, 19.69448
207.0704, 25.75092
207.5525, 33.96387
208.0346, 37.25449
208.5168, 34.62144
208.9989, 28.95038
209.4810, 21.67448
209.9631, 11.22321
210.4452, 4.930946
210.9273, 5.268845
211.4095, 11.92596
211.8916, 16.72491
212.3737, 18.87888
212.8558, 20.32812
213.3379, 23.80969
213.8200, 31.20502
214.3022, 35.06812
214.7843, 32.06882
215.2664, 21.80484
215.7485, 17.37567
216.2306, 21.43811
216.7127, 28.43961
217.1949, 32.14943
217.6770, 31.37444
218.1591, 29.98004
218.6412, 29.13791
219.1233, 29.04413
219.6054, 26.63192
220.0876, 20.01014
220.5697, 12.45876
221.0518, 8.573753
221.5339, 10.24387
222.0160, 11.75493
222.4981, 10.65299
222.9803, 5.613396
223.4624, 5.953079
223.9445, 14.66861
224.4266, 26.56049
224.9087, 33.66068
225.3908, 34.77444
225.8730, 33.22974
226.3551, 29.66280
226.8372, 23.51374
227.3193, 17.23804
227.8014, 9.205551
228.2835, 1.968956
228.7657, 0.1725920
229.2478, 6.503448
229.7299, 13.95138
230.2120, 20.57725
230.6941, 27.16838
231.1762, 30.44761
231.6584, 28.91499
232.1405, 24.79020
232.6226, 22.46503
233.1047, 23.02013
233.5868, 23.68437
234.0689, 23.16945
234.5511, 20.36193
235.0332, 19.76804
235.5153, 22.74405
235.9974, 27.41170
236.4795, 29.77351
236.9616, 29.57922
237.4438, 27.37672
237.9259, 22.61228
238.4080, 12.33665
238.8901, 7.389069
239.3722, 9.945549
239.8543, 17.21629
240.3365, 22.70081
240.8186, 25.31429
241.3007, 27.73187
241.7828, 32.10486
242.2649, 43.21730
242.7470, 44.06170
243.2292, 28.64484
243.7113, 4.555496
244.1934, 9.050995
244.6755, 9.627800
245.1576, 3.448853
245.6397, 9.361992
246.1219, 37.86521
246.6040, 50.04575
247.0861, 38.78158
247.5682, 13.15718
248.0503, 2.521500
248.5324, 4.401031
249.0146, 1.988289
249.4967, 0.7960660
249.9788, 3.839233
250.4609, 7.605469
250.9430, 12.52849
251.4251, 18.05842
251.9073, 23.15450
252.3894, 28.85291
252.8715, 32.47530
253.3536, 32.50381
253.8357, 27.02817
254.3178, 22.18465
254.8000, 18.05444
255.2821, 14.57655
255.7642, 11.24694
256.2463, 6.514618
256.7284, 4.533562
257.2105, 8.359734
257.6927, 21.60443
258.1748, 29.01063
258.6569, 30.46313
259.1390, 27.62550
259.6211, 22.38452
260.1032, 11.89358
260.5854, 3.918045
261.0675, 2.827545
261.5496, 11.57047
262.0317, 18.40707
262.5138, 23.48548
262.9959, 26.32686
263.4781, 24.97789
263.9602, 17.34603
264.4423, 10.13303
264.9244, 6.423218
265.4065, 6.290718
265.8886, 9.717781
266.3708, 18.84501
266.8529, 30.03815
267.3350, 33.72133
267.8171, 27.32211
268.2992, 20.18439
268.7813, 16.86427
269.2635, 18.11002
269.7456, 19.67878
270.2277, 21.79471
270.7098, 23.89423
271.1919, 24.64987
271.6740, 23.88670
272.1562, 22.39025
272.6383, 19.26679
273.1204, 13.53291
273.6025, 14.82977
274.0846, 27.13369
274.5667, 42.27615
275.0489, 41.68992
275.5310, 21.32681
276.0131, 3.756668
276.4952, 2.144630
276.9773, 18.23766
277.4594, 25.94586
277.9416, 22.72377
278.4237, 14.35332
278.9058, 10.36318
279.3879, 11.07619
279.8700, 13.67143
280.3521, 18.67515
280.8343, 26.09055
281.3164, 27.03547
281.7985, 19.85381
282.2806, 9.437607
282.7627, 2.762352
283.2448, 0.2144550
283.7270, 0.3801730
284.2091, 6.356186
284.6912, 17.03058
285.1733, 24.50933
285.6554, 28.32597
286.1375, 30.10567
286.6197, 32.82337
287.1018, 36.38826
287.5839, 36.74944
288.0660, 29.40901
288.5481, 16.63947
289.0303, 9.875183
289.5124, 9.583244
289.9945, 13.42278
290.4766, 21.79667
290.9587, 33.54943
291.4409, 39.84431
291.9230, 33.67288
292.4051, 19.48753
292.8872, 9.822617
293.3693, 4.783821
293.8514, 3.297676
294.3336, 5.530388
294.8157, 10.70976
295.2978, 15.86511
295.7799, 21.37681
296.2620, 25.60329
296.7441, 23.53638
297.2263, 14.96231
297.7084, 6.456184
298.1905, 3.965210
298.6726, 6.472069
299.1547, 11.86134
299.6368, 22.46796
300.1190, 33.61192
300.6011, 38.49785
301.0832, 37.26437
301.5653, 31.84743
302.0474, 18.91010
302.5295, 3.402481
303.0117, 6.359344
303.4938, 6.394028
303.9759, 1.473557
304.4580, 4.029243
304.9401, 10.24494
305.4222, 17.76534
305.9044, 31.39367
306.3865, 45.20882
306.8686, 51.01447
307.3507, 41.73322
307.8328, 29.98299
308.3149, 27.96088
308.7971, 33.28669
309.2792, 35.35973
309.7613, 22.39965
310.2434, 5.650200
310.7255, 3.331352
311.2076, 1.352341
311.6898, 8.656303
312.1719, 11.66256
312.6540, 11.84274
313.1361, 13.51008
313.6182, 22.52454
314.1003, 31.58343
314.5825, 34.77345
315.0646, 28.95775
315.5467, 22.19878
316.0288, 17.46741
316.5109, 14.25739
316.9930, 11.42650
317.4752, 7.577553
317.9573, 4.708969
318.4394, 3.867775
318.9215, 5.220284
319.4036, 8.428955
319.8857, 17.85513
320.3679, 28.28151
320.8500, 31.71217
321.3321, 15.38009
321.8142, 0.8883130
322.2963, 1.916367
322.7784, 10.94809
323.2606, 21.45533
323.7427, 26.73291
324.2248, 28.17629
324.7069, 27.47904
325.1890, 23.59764
325.6711, 18.91263
326.1533, 13.01849
326.6354, 5.230103
327.1175, 1.129005
327.5996, 4.527328
328.0817, 9.759392
328.5638, 11.72604
329.0460, 4.958458
329.5281, 1.977249
330.0102, 7.602646
330.4923, 21.56164
330.9744, 26.18919
331.4565, 12.39654
331.9387, 1.965164
332.4208, 2.207672
332.9029, 24.09470
333.3850, 39.60689
333.8671, 35.57857
334.3492, 16.65401
334.8314, 8.701622
335.3135, 17.16177
335.7956, 27.36926
336.2777, 29.29333
336.7598, 19.08468
337.2419, 15.03058
337.7241, 21.10062
338.2062, 32.59129
338.6883, 35.00780
339.1704, 26.06517
339.6525, 16.55357
340.1346, 12.60713
340.6168, 14.58987
341.0989, 14.00297
341.5810, 9.063576
342.0631, 4.356796
342.5452, 10.35522
343.0273, 27.77893
343.5095, 42.43766
343.9916, 47.65943
344.4737, 44.30175
344.9558, 37.29932
345.4379, 25.57382
345.9200, 14.87170
346.4022, 14.77078
346.8843, 23.34956
347.3664, 30.58733
347.8485, 35.03235
348.3306, 36.61322
348.8127, 32.36947
349.2949, 22.04239
349.7770, 12.87097
350.2591, 13.70959
350.7412, 20.99504
351.2233, 25.86189
351.7054, 23.25549
352.1876, 19.08931
352.6697, 23.08852
353.1518, 33.94191
353.6339, 41.62112
354.1160, 34.85806
354.5981, 21.96970
355.0803, 13.86605
355.5624, 14.16627
356.0445, 17.84043
356.5266, 23.81434
357.0087, 30.50517
357.4908, 33.05080
357.9730, 22.84660
358.4551, 11.06911
358.9372, 7.114243
359.4193, 14.80439
359.9014, 23.40240
360.3835, 28.05441
360.8657, 29.95388
361.3478, 31.78261
361.8299, 35.57898
362.3120, 38.71535
362.7941, 40.01814
363.2762, 39.21049
363.7584, 37.63383
364.2405, 35.60946
364.7226, 32.97089
365.2047, 29.62563
365.6868, 24.74857
366.1689, 19.98580
366.6511, 15.31653
367.1332, 10.67927
367.6153, 7.684822
368.0974, 5.480110
368.5795, 5.472900
369.0616, 9.158676
369.5438, 24.34071
370.0259, 31.72764
370.5080, 24.74574
370.9901, 7.399094
371.4722, 1.335396
371.9543, 13.93092
372.4365, 27.67362
372.9186, 32.95184
373.4007, 26.36699
373.8828, 20.91369
374.3649, 16.86760
374.8470, 14.24352
375.3292, 13.57246
375.8113, 15.47668
376.2934, 17.19862
376.7755, 17.04032
377.2576, 14.87968
377.7397, 15.78362
378.2219, 20.99953
378.7040, 26.06381
379.1861, 24.43068
379.6682, 16.11253
380.1503, 6.917923
380.6324, 3.012360
381.1146, 11.99030
381.5967, 13.75105
382.0788, 7.977730
382.5609, 0.4873660
383.0430, 8.721527
383.5251, 16.29067
384.0073, 21.60047
384.4894, 22.97699
384.9715, 23.58570
385.4536, 30.77048
385.9357, 42.55607
386.4178, 49.20048
386.9000, 37.28679
387.3821, 18.97986
387.8642, 10.94717
388.3463, 17.95831
388.8284, 28.59164
389.3105, 36.80275
389.7927, 41.90697
390.2748, 43.01315
390.7569, 35.84418
391.2390, 27.36047
391.7211, 21.97034
392.2032, 20.09384
392.6854, 20.43759
393.1675, 23.51801
393.6496, 28.10859
394.1317, 32.90373
394.6138, 42.80883
395.0959, 47.64808
395.5781, 41.27216
396.0602, 24.75408
396.5423, 11.74487
397.0244, 4.099632
397.5065, 0.9432070
397.9886, 1.818100
398.4708, 10.11576
398.9529, 18.22487
399.4350, 27.53763
399.9171, 36.61360
400.3992, 41.27907
400.8813, 38.90426
401.3635, 35.58132
401.8456, 34.58649
402.3277, 38.49245
402.8098, 33.02007
403.2919, 11.67268
403.7740, 12.25108
404.2562, 18.64776
404.7383, 2.624344
405.2204, 13.35005
405.7025, 23.61475
406.1846, 28.59180
406.6667, 31.98540
407.1489, 33.65395
407.6310, 34.33635
408.1131, 34.20242
408.5952, 33.37011
409.0773, 33.74355
409.5594, 36.62780
410.0416, 39.84169
410.5237, 37.07222
411.0058, 28.89349
411.4879, 21.81586
411.9700, 21.08994
412.4521, 24.00012
412.9343, 25.00371
413.4164, 23.62170
413.8985, 21.54739
414.3806, 18.18097
414.8628, 14.66256
415.3449, 12.91038
415.8270, 15.03188
416.3091, 18.38545
416.7912, 21.59507
417.2733, 24.58011
417.7555, 25.78834
418.2376, 19.60229
418.7197, 12.35596
419.2018, 10.15680
419.6839, 21.91157
420.1660, 30.58002
420.6482, 27.24094
421.1303, 15.49944
421.6124, 7.820755
422.0945, 10.16811
422.5766, 14.59889
423.0587, 17.46078
423.5409, 17.26795
424.0230, 18.25933
424.5051, 20.14442
424.9872, 23.47661
425.4693, 29.36318
425.9514, 41.35522
426.4336, 50.50621
426.9157, 54.62144
427.3978, 53.66920
427.8799, 50.40761
428.3620, 43.90034
428.8441, 36.58180
429.3263, 29.87963
429.8084, 23.84882
430.2905, 20.68619
430.7726, 21.37878
431.2547, 25.16126
431.7368, 30.62392
432.2190, 37.98667
432.7011, 43.79642
433.1832, 45.06583
433.6653, 42.72353
434.1474, 42.14372
434.6295, 44.03501
435.1117, 45.15678
435.5938, 39.07704
436.0759, 28.57568
436.5580, 22.64902
437.0401, 29.57912
437.5222, 40.81574
438.0044, 41.23520
438.4865, 31.55772
438.9686, 23.37806
439.4507, 27.52198
439.9328, 36.84158
440.4149, 43.17572
440.8971, 42.99519
441.3792, 41.38754
441.8613, 41.36508
442.3434, 41.91121
442.8255, 40.84733
443.3076, 35.76135
443.7898, 30.31668
444.2719, 25.39810
444.7540, 20.54723
445.2361, 19.27295
445.7182, 25.89728
446.2003, 34.55862
446.6825, 39.76857
447.1646, 41.49123
447.6467, 39.46798
448.1288, 30.52658
448.6109, 16.77969
449.0930, 11.96748
449.5752, 20.78167
450.0573, 30.88069
450.5394, 36.10584
451.0215, 36.10783
451.5036, 31.46545
451.9857, 19.29441
452.4679, 6.840881
452.9500, 7.885544
453.4321, 23.37282
453.9142, 36.28453
454.3963, 39.01248
454.8784, 34.65276
455.3606, 34.98877
455.8427, 40.32330
456.3248, 45.51227
456.8069, 44.82791
457.2890, 40.37746
457.7711, 37.54378
458.2533, 38.42953
458.7354, 39.25337
459.2175, 34.73433
459.6996, 26.66281
460.1817, 20.05721
460.6638, 18.05732
461.1460, 18.38496
461.6281, 18.82259
462.1102, 20.00664
462.5923, 21.49016
463.0744, 22.48396
463.5565, 22.20139
464.0387, 20.16611
464.5208, 13.99699
465.0029, 9.807907
465.4850, 11.24638
465.9671, 16.84532
466.4492, 18.26622
466.9314, 6.974174
467.4135, 1.383652
467.8956, 0.8554530
468.3777, 21.08436
468.8598, 32.17535
469.3419, 31.46186
469.8241, 23.86845
470.3062, 14.16106
470.7883, 0.2469020
471.2704, 6.861092
471.7525, 0.5704880
472.2346, 18.91787
472.7168, 31.38036
473.1989, 37.93518
473.6810, 38.06407
474.1631, 26.21758
474.6452, 5.856262
475.1273, 4.203941
475.6095, 0.1971280
476.0916, 10.14323
476.5737, 14.18080
477.0558, 13.90578
477.5379, 14.68674
478.0201, 21.23420
478.5022, 28.84795
478.9843, 32.26532
479.4664, 31.46973
479.9485, 29.82161
480.4306, 26.55140
480.9128, 24.72713
481.3949, 27.83253
481.8770, 42.64731
482.3591, 53.63266
482.8412, 54.52560
483.3233, 47.80938
483.8055, 40.22350
484.2876, 32.72411
484.7697, 26.00558
485.2518, 20.42482
485.7339, 16.20345
486.2160, 11.24735
486.6982, 1.301765
487.1803, 5.477844
487.6624, 0.2595290
488.1445, 23.75427
488.6266, 40.66792
489.1087, 45.34158
489.5909, 41.75502
490.0730, 41.41872
490.5551, 44.97978
491.0372, 47.80125
491.5193, 46.38167
492.0014, 41.67102
492.4836, 41.88287
492.9657, 48.36647
493.4478, 51.40868
493.9299, 33.84145
494.4120, 4.285561
494.8941, 13.70956
495.3763, 7.480408
495.8584, 6.786728
496.3405, 12.83181
496.8226, 12.25313
497.3047, 10.20377
497.7868, 8.461319
498.2690, 7.010574
498.7511, 5.627396
499.2332, 4.047394
499.7153, 3.764267
500.1974, 6.722702
500.6795, 10.66914
501.1617, 13.19627
501.6438, 11.77905
502.1259, 11.31286
502.6080, 13.27071
503.0901, 16.99963
503.5722, 19.58090
504.0544, 21.10576
504.5365, 21.23683
505.0186, 19.42418
505.5007, 14.98325
505.9828, 12.27194
506.4649, 11.96609
506.9471, 11.92711
507.4292, 9.221756
507.9113, 3.715340
508.3934, 2.811562
508.8755, 10.57939
509.3576, 22.06490
509.8398, 25.70616
510.3219, 22.04632
510.8040, 17.16169
511.2861, 13.38368
511.7682, 11.43640
512.2504, 13.53488
512.7325, 20.03378
513.2146, 26.40244
513.6967, 30.32863
514.1788, 31.69750
514.6609, 30.37548
515.1431, 19.92236
515.6252, 13.10424
516.1073, 20.49787
516.5894, 37.56071
517.0715, 45.16174
517.5536, 28.31741
518.0358, 10.13945
518.5179, 1.692680
519.0000, 7.710449
519.4821, 8.866951
519.9642, 0.4971010
520.4464, 8.825714
520.9285, 9.110443
521.4106, 3.387390
521.8927, 13.45882
522.3748, 18.72357
522.8569, 19.67806
523.3391, 16.62305
523.8212, 9.006340
524.3033, 2.882935
524.7854, 2.272110
525.2675, 5.733788
525.7496, 11.01934
526.2318, 18.21812
526.7139, 22.66191
527.1960, 15.13679
527.6781, 2.264885
528.1602, 3.149780
528.6423, 8.082916
529.1245, 19.86499
529.6066, 19.90923
530.0887, 11.44978
530.5708, 4.278099
531.0529, 0.8229680
531.5350, 1.218491
532.0172, 7.958809
532.4993, 23.18108
532.9814, 31.08076
533.4635, 21.94646
533.9456, 10.45181
534.4277, 8.097870
534.9099, 23.19708
535.3920, 32.65984
535.8741, 33.64499
536.3562, 28.59421
536.8383, 22.04117
537.3204, 12.81189
537.8026, 7.196655
538.2847, 10.68462
538.7668, 20.75978
539.2489, 18.60567
539.7310, 2.856766
540.2131, 11.96880
540.6953, 11.05014
541.1774, 0.4423980
541.6595, 8.986359
542.1416, 11.66884
542.6237, 12.22249
543.1058, 13.88947
543.5880, 16.13448
544.0701, 17.89630
544.5522, 19.58745
545.0343, 19.44424
545.5164, 16.12798
545.9985, 9.900116
546.4807, 5.708191
546.9628, 6.104111
547.4449, 8.149933
547.9270, 10.32733
548.4091, 12.97702
548.8912, 14.92603
549.3734, 16.80437
549.8555, 17.56134
550.3376, 15.21436
550.8197, 8.100540
551.3018, 2.855591
551.7839, 1.072144
552.2661, 2.153198
552.7482, 3.140732
553.2303, 5.400269
553.7124, 9.253036
554.1945, 16.66010
554.6766, 25.15869
555.1588, 25.41190
555.6409, 16.25513
556.1230, 7.313354
556.6051, 8.814529
557.0872, 15.96176
557.5693, 21.21573
558.0515, 21.48906
558.5336, 20.54297
559.0157, 21.64467
559.4978, 23.24135
559.9799, 21.66905
560.4620, 8.660568
560.9442, 1.117172
561.4263, 1.030136
561.9084, 17.74899
562.3905, 23.85521
562.8726, 10.43532
563.3547, 4.958115
563.8369, 10.50276
564.3190, 2.900543
564.8011, 3.919739
565.2832, 9.768356
565.7653, 13.95041
566.2474, 14.17871
566.7296, 10.38438
567.2117, 9.064529
567.6938, 14.90865
568.1759, 22.73581
568.6580, 18.75928
569.1401, 4.679428
569.6223, 6.083984
570.1044, 0.6607510
570.5865, 13.23833
571.0686, 16.43707
571.5507, 6.962494
572.0328, 1.063293
572.5150, 4.891495
572.9971, 16.15541
573.4792, 22.60649
573.9613, 24.50340
574.4434, 8.200760
574.9255, 15.40329
575.4077, 13.18880
575.8898, 10.58980
576.3719, 21.10428
576.8540, 7.458374
577.3361, 17.77057
577.8182, 18.48851
578.3004, 23.07066
578.7825, 18.16447
579.2646, 16.75153
579.7467, 10.93666
580.2288, 11.50546
580.7109, 14.41632
581.1931, 20.27130
581.6752, 24.27582
582.1573, 16.55721
582.6394, 2.506241
583.1215, 5.224503
583.6036, 4.026978
584.0858, 15.79584
584.5679, 17.78177
585.0500, 12.64450
585.5321, 10.29910
586.0142, 19.13701
586.4963, 28.06168
586.9785, 29.55667
587.4606, 11.84132
587.9427, 25.27841
588.4248, 33.42291
588.9069, 36.53349
589.3890, 20.96448
589.8712, 28.42111
590.3533, 25.98053
590.8354, 22.67871
591.3175, 32.01353
591.7996, 16.70633
592.2817, 24.87759
592.7639, 23.00710
593.2460, 25.03630
593.7281, 17.10999
594.2102, 10.84863
594.6923, 11.68379
595.1744, 15.26811
595.6566, 24.95462
596.1387, 34.20024
596.6208, 33.91922
597.1029, 21.56206
597.5850, 12.61505
598.0671, 17.70886
598.5493, 27.96414
599.0314, 34.97147
599.5135, 34.36086
599.9956, 32.62181
600.4777, 27.83057
600.9598, 22.90727
601.4420, 25.06540
601.9241, 39.50789
602.4062, 48.53976
602.8883, 44.84117
603.3704, 31.28601
603.8525, 25.19054
604.3347, 27.12875
604.8168, 31.39459
605.2989, 36.85316
605.7810, 41.48947
606.2631, 36.54898
606.7452, 20.29175
607.2274, 7.330200
607.7095, 16.27496
608.1916, 35.05972
608.6737, 46.41031
609.1558, 40.81038
609.6379, 34.05344
610.1201, 33.70773
610.6022, 37.07573
611.0843, 38.56108
611.5664, 33.98972
612.0485, 30.78897
612.5306, 32.12411
613.0128, 37.33472
613.4949, 37.08813
613.9770, 27.99876
614.4591, 20.47626
614.9412, 21.78654
615.4233, 32.18608
615.9055, 39.11179
616.3876, 41.90132
616.8697, 41.59691
617.3518, 36.74352
617.8339, 29.76968
618.3160, 27.90170
618.7982, 34.28847
619.2803, 42.72514
619.7624, 49.90277
620.2445, 54.63922
620.7266, 54.58832
621.2087, 41.94408
621.6909, 30.65894
622.1730, 27.60350
622.6551, 31.88434
623.1372, 37.00641
623.6193, 47.92154
624.1014, 53.54863
624.5836, 46.61006
625.0657, 22.93256
625.5478, 15.25226
626.0299, 28.34320
626.5120, 46.17938
626.9941, 53.93130
627.4763, 52.02115
627.9584, 48.31129
628.4405, 42.95103
628.9226, 38.20880
629.4047, 37.16429
629.8868, 39.14574
630.3690, 42.59195
630.8511, 50.21863
631.3332, 55.90727
631.8153, 52.63246
632.2974, 43.19882
632.7795, 37.49876
633.2617, 42.20618
633.7438, 48.34850
634.2259, 52.27547
634.7080, 53.58221
635.1901, 55.27002
635.6722, 58.97505
636.1544, 61.19511
636.6365, 58.70564
637.1186, 42.79231
637.6007, 55.82849
638.0828, 63.35730
638.5649, 65.63541
639.0471, 49.71394
639.5292, 57.29774
640.0113, 55.46428
640.4934, 53.24648
640.9755, 64.04515
641.4576, 50.78015
641.9398, 61.47327
642.4219, 62.60507
642.9040, 68.11545
643.3861, 64.15031
643.8682, 62.25938
644.3503, 51.03801
644.8325, 43.58276
645.3146, 42.55952
645.7967, 45.61368
646.2788, 53.52635
646.7609, 68.33151
647.2430, 74.82213
647.7252, 70.48779
648.2073, 63.67355
648.6894, 61.90639
649.1715, 64.74106
649.6536, 66.97716
650.1357, 68.36591
650.6179, 67.55057
651.1000, 60.63898
651.5821, 50.24414
652.0642, 42.64993
652.5463, 41.54253
653.0284, 42.24072
653.5106, 43.01874
653.9927, 43.36324
654.4748, 41.87299
654.9569, 34.70789
655.4390, 29.02003
655.9211, 27.75278
656.4033, 30.69670
656.8854, 34.31375
657.3675, 40.16254
657.8496, 43.94293
658.3317, 41.91472
658.8138, 33.76506
659.2960, 29.64070
659.7781, 29.90237
660.2602, 32.64551
660.7423, 38.10545
661.2244, 44.41679
661.7065, 46.62965
662.1887, 42.82620
662.6708, 37.61361
663.1529, 33.92386
663.6350, 31.47205
664.1171, 29.82058
664.5992, 28.42879
665.0814, 28.02518
665.5635, 30.64285
666.0456, 34.60011
666.5277, 33.78709
667.0098, 23.43781
667.4919, 16.32733
667.9741, 17.42450
668.4562, 25.53872
668.9383, 30.29770
669.4204, 31.32491
669.9025, 32.31655
670.3846, 39.03030
670.8668, 47.40505
671.3489, 44.08186
671.8310, 28.15601
672.3131, 11.34373
672.7952, 0.9552150
673.2773, 7.389664
673.7595, 4.889542
674.2416, 12.47867
674.7237, 25.98474
675.2058, 24.30281
675.6879, 17.29733
676.1700, 17.77997
676.6522, 34.74275
677.1343, 43.87414
677.6164, 39.55981
678.0985, 27.75648
678.5806, 22.78801
679.0627, 25.44579
679.5449, 27.12192
680.0270, 23.06500
680.5091, 17.25052
680.9912, 21.12620
681.4733, 32.79906
681.9554, 40.75638
682.4376, 31.81943
682.9197, 20.37732
683.4018, 21.82564
683.8839, 36.98900
684.3660, 45.56004
684.8481, 32.97887
685.3303, 17.16159
685.8124, 9.917488
686.2945, 16.16355
686.7766, 18.19778
687.2587, 14.05300
687.7408, 9.352951
688.2230, 9.194778
688.7051, 14.28472
689.1872, 15.09165
689.6693, 9.173378
690.1514, 1.973457
690.6335, 2.723381
691.1157, 8.448944
691.5978, 11.33102
692.0799, 6.832222
692.5620, 0.7160720
693.0441, 2.678749
693.5262, 4.446922
694.0084, 7.215027
694.4905, 18.39580
694.9726, 22.72883
695.4547, 11.41072
695.9368, 12.25778
696.4189, 24.23329
696.9011, 19.68622
697.3832, 14.15665
697.8653, 15.47449
698.3474, 22.73569
698.8295, 25.21644
699.3116, 22.66182
699.7938, 21.25135
700.2759, 29.59639
700.7580, 41.19736
701.2401, 43.67978
701.7222, 34.48083
702.2043, 26.74174
702.6865, 32.10364
703.1686, 40.70888
703.6507, 43.25563
704.1328, 34.77274
704.6149, 25.14080
705.0970, 10.33337
705.5792, 2.248238
706.0613, 0.3084180
706.5434, 22.13399
707.0255, 33.29645
707.5076, 24.15173
707.9897, 6.714821
708.4719, 7.122147
708.9540, 22.11623
709.4361, 32.77399
709.9182, 27.28142
710.4003, 17.29050
710.8824, 16.02303
711.3646, 20.90057
711.8467, 23.38175
712.3288, 15.57502
712.8109, 8.494522
713.2930, 7.953285
713.7751, 14.23260
714.2573, 18.99094
714.7394, 21.51213
715.2215, 23.52573
715.7036, 25.89330
716.1857, 28.68487
716.6678, 30.38113
717.1500, 30.93074
717.6321, 30.82352
718.1142, 30.73593
718.5963, 30.25691
719.0784, 28.52844
719.5605, 25.44471
720.0427, 21.12863
720.5248, 12.46741
721.0070, 4.177200
721.4891, 1.542236
721.9712, 8.891800
722.4533, 16.54276
722.9354, 25.07302
723.4175, 32.86961
723.8997, 38.38621
724.3818, 42.51213
724.8639, 40.45367
725.3460, 29.20289
725.8281, 15.05925
726.3102, 10.16665
726.7924, 13.37991
727.2745, 17.11874
727.7566, 18.58369
728.2387, 19.25478
728.7208, 19.84479
729.2029, 20.84752
729.6851, 23.88410
730.1672, 33.45768
730.6493, 41.48159
731.1314, 44.31873
731.6135, 42.35425
732.0956, 38.73817
732.5778, 32.34564
733.0599, 25.76939
733.5420, 19.65437
734.0241, 14.09490
734.5062, 10.29472
734.9883, 8.318001
735.4705, 6.984497
735.9526, 4.624962
736.4347, 2.637497
736.9168, 4.300293
737.3989, 9.851105
737.8810, 14.59285
738.3632, 14.03725
738.8453, 13.05878
739.3274, 16.41676
739.8095, 28.53002
740.2916, 34.00610
740.7737, 29.30520
741.2559, 20.13239
741.7380, 10.26438
742.2201, 1.645523
742.7022, 2.916943
743.1843, 10.45306
743.6664, 25.10111
744.1486, 18.82360
744.6307, 0.7315830
745.1128, 9.787735
745.5949, 0.1595610
746.0770, 15.20962
746.5591, 30.02625
747.0413, 42.76941
747.5234, 50.40478
748.0055, 48.04964
748.4876, 45.14045
748.9697, 43.08086
749.4518, 41.63332
749.9340, 41.43444
750.4161, 44.70883
750.8982, 40.14468
751.3803, 20.80412
751.8624, 4.500965
752.3445, 11.91728
752.8267, 3.936203
753.3088, 7.007603
753.7909, 16.43403
754.2730, 23.15315
754.7551, 26.64059
755.2372, 27.03905
755.7194, 25.10181
756.2015, 17.63618
756.6836, 11.25158
757.1657, 8.952774
757.6478, 10.50224
758.1299, 12.92290
758.6121, 16.77270
759.0942, 20.12831
759.5763, 21.15449
760.0584, 20.52394
760.5405, 23.60576
761.0226, 30.35018
761.5048, 35.47043
761.9869, 33.46667
762.4690, 28.28519
762.9511, 24.89482
763.4332, 23.68466
763.9153, 22.25840
764.3975, 16.46476
764.8796, 12.22825
765.3617, 14.64239
765.8438, 27.29556
766.3259, 34.32137
766.8080, 34.35750
767.2902, 31.24648
767.7723, 27.08647
768.2544, 22.27487
768.7365, 21.17868
769.2186, 24.62453
769.7007, 29.23524
770.1829, 34.35656
770.6650, 37.49567
771.1471, 33.73900
771.6292, 17.94367
772.1113, 6.833981
772.5934, 5.643444
773.0756, 10.99517
773.5577, 18.77817
774.0398, 33.57090
774.5219, 40.38893
775.0040, 36.14298
775.4861, 26.53825
775.9683, 17.34595
776.4504, 9.178703
776.9325, 11.90603
777.4146, 33.09559
777.8967, 53.24706
778.3788, 42.11642
778.8610, 14.26086
779.3431, 3.687344
779.8252, 7.338482
780.3073, 19.88824
780.7894, 25.26283
781.2715, 25.92973
781.7537, 28.07480
782.2358, 34.28644
782.7179, 35.86499
783.2000, 29.15364
783.6821, 18.49918
784.1642, 16.66850
784.6464, 22.56390
785.1285, 25.05986
785.6106, 15.11797
786.0927, 3.956173
786.5748, 6.008045
787.0569, 17.49164
787.5391, 28.10863
788.0212, 33.44685
788.5033, 37.34708
788.9854, 42.65608
789.4675, 48.02803
789.9496, 45.82548
790.4318, 31.56712
790.9139, 21.75249
791.3960, 24.57152
791.8781, 35.28984
792.3602, 37.29063
792.8423, 31.15619
793.3245, 22.47332
793.8066, 10.93479
794.2887, 1.087532
794.7708, 1.549885
795.2529, 2.294262
795.7350, 7.522938
796.2172, 17.75785
796.6993, 23.47014
797.1814, 17.62885
797.6635, 1.465649
798.1456, 2.388180
798.6277, 9.881096
799.1099, 21.19495
799.5920, 18.87867
800.0741, 7.924301
800.5562, 11.75107
801.0383, 29.36993
801.5204, 40.43808
802.0026, 22.03877
802.4847, 1.585247
802.9668, 9.885418
803.4489, 0.1214640
803.9310, 10.64697
804.4131, 20.69144
804.8953, 26.87100
805.3774, 25.55968
805.8595, 16.21583
806.3416, 17.78105
806.8237, 32.33502
807.3058, 45.31755
807.7880, 44.89834
808.2701, 35.08536
808.7522, 22.18163
809.2343, 6.840057
809.7164, 2.248207
810.1985, 8.867012
810.6807, 23.70718
811.1628, 28.63245
811.6449, 19.30497
812.1270, 14.02824
812.6091, 15.82232
813.0912, 18.81075
813.5734, 19.71175
814.0555, 18.49238
814.5376, 16.11873
815.0197, 12.50840
815.5018, 8.938011
815.9839, 4.650085
816.4661, 1.910240
816.9482, 6.421120
817.4303, 19.40861
817.9124, 26.98447
818.3945, 14.38663
818.8766, 0.2315370
819.3588, 0.8273200
819.8409, 15.24018
820.3230, 26.13391
820.8051, 30.94417
821.2872, 32.63981
821.7693, 32.48661
822.2515, 30.93674
822.7336, 31.47161
823.2157, 34.44173
823.6978, 35.44290
824.1799, 28.32985
824.6620, 18.89412
825.1442, 12.70428
825.6263, 10.83176
826.1084, 10.99104
826.5905, 14.89274
827.0726, 18.85663
827.5547, 21.51660
828.0369, 24.00150
828.5190, 17.22257
829.0011, 1.602997
829.4832, 15.31451
829.9653, 1.126396
830.4474, 27.90701
830.9296, 41.29700
831.4117, 35.49373
831.8938, 27.25850
832.3759, 28.10186
832.8580, 29.98164
833.3401, 26.44807
833.8223, 10.81379
834.3044, 4.844257
834.7865, 16.17555
835.2686, 28.80910
835.7507, 28.78050
836.2328, 17.21670
836.7150, 16.69026
837.1971, 28.06066
837.6792, 39.99629
838.1613, 40.28328
838.6434, 35.61640
839.1255, 35.14734
839.6077, 40.77187
840.0898, 42.35613
840.5719, 29.49775
841.0540, 17.70145
841.5361, 16.84310
842.0182, 29.35862
842.5004, 37.81718
842.9825, 42.14191
843.4646, 42.71428
843.9467, 38.27606
844.4288, 30.61837
844.9109, 22.81350
845.3931, 15.11791
845.8752, 11.47561
846.3573, 16.64018
846.8394, 25.24789
847.3215, 35.40411
847.8036, 48.47240
848.2858, 51.10616
848.7679, 36.49892
849.2500, 22.19836
849.7321, 20.29247
850.2142, 29.68260
850.6964, 29.93681
851.1785, 20.99124
851.6606, 12.40720
852.1427, 11.42548
852.6248, 14.24251
853.1069, 17.10974
853.5891, 19.62830
854.0712, 23.71809
854.5533, 33.28324
855.0354, 41.32005
855.5175, 44.74653
855.9996, 43.50080
856.4818, 38.07315
856.9639, 26.72545
857.4460, 19.33061
857.9281, 27.51201
858.4102, 42.24073
858.8923, 42.41158
859.3745, 29.75351
859.8566, 17.54283
860.3387, 10.58603
860.8208, 7.797955
861.3029, 12.22137
861.7850, 22.83425
862.2672, 28.19427
862.7493, 26.66457
863.2314, 23.16630
863.7135, 18.59938
864.1956, 13.91323
864.6777, 13.37887
865.1599, 16.66265
865.6420, 20.87453
866.1241, 25.98621
866.6062, 30.03032
867.0883, 29.68304
867.5704, 26.20035
868.0526, 25.99149
868.5347, 36.19378
869.0168, 42.31591
869.4989, 39.89782
869.9810, 31.38935
870.4631, 23.47279
870.9453, 15.98653
871.4274, 15.45813
871.9095, 29.29375
872.3916, 45.60345
872.8737, 48.10440
873.3558, 40.21579
873.8380, 30.65024
874.3201, 18.90029
874.8022, 10.41636
875.2843, 8.198132
875.7664, 9.927841
876.2485, 11.32974
876.7307, 11.82970
877.2128, 14.96009
877.6949, 23.04646
878.1770, 31.27820
878.6591, 28.05947
879.1412, 18.79110
879.6234, 18.23932
880.1055, 39.62112
880.5876, 56.63468
881.0697, 51.70007
881.5518, 36.19264
882.0339, 26.62469
882.5161, 26.08550
882.9982, 26.72297
883.4803, 29.52563
883.9624, 30.44682
884.4445, 20.20211
884.9266, 2.527290
885.4088, 5.967751
885.8909, 1.031906
886.3730, 7.247093
886.8551, 12.65154
887.3372, 15.40881
887.8193, 18.34612
888.3015, 21.29730
888.7836, 22.55197
889.2657, 23.57735
889.7478, 20.83558
890.2299, 6.076180
890.7120, 18.91686
891.1942, 21.04255
891.6763, 2.404633
892.1584, 26.02309
892.6405, 24.35941
893.1226, 13.82461
893.6047, 12.72720
894.0869, 24.08745
894.5690, 33.30143
895.0511, 36.22073
895.5332, 37.12341
896.0153, 38.06725
896.4974, 38.95421
896.9796, 32.80363
897.4617, 18.96733
897.9438, 9.615063
898.4259, 18.67070
898.9080, 33.58600
899.3901, 37.64980
899.8723, 31.54188
900.3544, 23.30498
900.8365, 11.00360
901.3186, 2.498802
901.8007, 1.306793
902.2828, 6.142551
902.7650, 10.54850
903.2471, 14.53434
903.7292, 18.63075
904.2113, 24.50157
904.6934, 29.09809
905.1755, 23.49149
905.6577, 12.21533
906.1398, 7.213249
906.6219, 23.32463
907.1040, 35.79578
907.5861, 32.90655
908.0682, 21.64471
908.5504, 13.63852
909.0325, 7.972786
909.5146, 10.86509
909.9967, 26.08879
910.4788, 43.87334
910.9609, 47.47020
911.4431, 41.92943
911.9252, 39.20823
912.4073, 45.63592
912.8894, 47.79561
913.3715, 32.90209
913.8536, 14.08952
914.3358, 5.690357
914.8179, 11.59715
915.3000, 18.17612
915.7821, 26.25636
916.2642, 31.67738
916.7463, 27.07921
917.2285, 16.93718
917.7106, 13.31147
918.1927, 17.72420
918.6748, 22.80268
919.1569, 23.72421
919.6390, 24.34156
920.1212, 28.07765
920.6033, 36.29266
921.0854, 38.25558
921.5675, 32.05440
922.0496, 25.11120
922.5317, 20.86082
923.0139, 19.30327
923.4960, 22.34963
923.9781, 28.96440
924.4602, 32.85677
924.9423, 28.17233
925.4244, 21.76759
925.9066, 17.59798
926.3887, 15.29367
926.8708, 11.77909
927.3529, 5.209568
927.8350, 2.599949
928.3171, 7.322548
928.7993, 15.29123
929.2814, 15.94817
929.7635, 12.00935
930.2456, 13.22243
930.7277, 27.29919
931.2098, 41.14838
931.6920, 49.52861
932.1741, 52.19713
932.6562, 47.94893
933.1383, 31.75292
933.6204, 21.98672
934.1025, 21.46898
934.5847, 24.55199
935.0668, 22.53650
935.5489, 17.59817
936.0310, 15.45251
936.5131, 16.99946
936.9952, 20.79874
937.4774, 28.15910
937.9595, 35.80489
938.4416, 42.03794
938.9237, 47.94225
939.4058, 43.62337
939.8879, 24.12656
940.3701, 7.728851
940.8522, 9.814308
941.3343, 24.04330
941.8164, 30.25938
942.2985, 29.27060
942.7806, 26.99159
943.2628, 24.46703
943.7449, 23.90306
944.2270, 28.24929
944.7091, 35.65646
945.1912, 35.74690
945.6733, 24.76469
946.1555, 18.56453
946.6376, 24.26178
947.1197, 33.44162
947.6018, 24.99007
948.0839, 6.077187
948.5660, 4.094513
949.0482, 12.20382
949.5303, 26.46055
950.0124, 19.06991
950.4945, 1.948925
950.9766, 9.439491
951.4587, 15.58436
951.9409, 12.44622
952.4230, 2.605965
952.9051, 18.84024
953.3872, 22.08475
953.8693, 18.33878
954.3514, 22.22055
954.8336, 36.51916
955.3157, 44.95676
955.7978, 29.73858
956.2799, 14.98914
956.7620, 18.72059
957.2441, 41.45705
957.7263, 47.84727
958.2084, 35.72167
958.6905, 20.98469
959.1726, 10.06835
959.6547, 3.850967
960.1368, 5.780704
960.6190, 13.81647
961.1011, 20.80508
961.5832, 24.39485
962.0653, 25.44127
962.5474, 22.29268
963.0295, 17.60279
963.5117, 17.09318
963.9938, 21.24694
964.4759, 23.92918
964.9580, 23.28495
965.4401, 22.44215
965.9222, 27.64965
966.4044, 34.47384
966.8865, 35.34758
967.3686, 25.30547
967.8507, 17.87975
968.3329, 15.91631
968.8150, 17.14543
969.2971, 21.26258
969.7792, 28.41688
970.2614, 31.66768
970.7435, 30.79215
971.2256, 27.75231
971.7077, 23.97730
972.1898, 20.74361
972.6719, 20.08494
973.1541, 21.70635
973.6362, 21.44312
974.1183, 16.97953
974.6004, 12.98046
975.0825, 11.13694
975.5646, 10.28241
976.0468, 5.156147
976.5289, 2.916229
977.0110, 5.277580
977.4931, 5.312954
977.9752, 15.96632
978.4573, 13.76743
978.9395, 6.671452
979.4216, 6.694149
979.9037, 20.60652
980.3858, 31.16330
980.8679, 38.40381
981.3500, 41.03956
981.8322, 35.29972
982.3143, 23.96531
982.7964, 14.88526
983.2785, 8.791752
983.7606, 6.344044
984.2427, 10.93594
984.7249, 16.71446
985.2070, 18.84578
985.6891, 17.66162
986.1712, 22.48104
986.6533, 35.81361
987.1354, 42.83224
987.6176, 33.71688
988.0997, 17.49706
988.5818, 8.522423
989.0639, 6.070602
989.5460, 8.008774
990.0281, 22.88646
990.5103, 30.26104
990.9924, 18.18825
991.4745, 0.3199580
991.9566, 5.930058
992.4387, 0.1280140
992.9208, 9.276760
993.4030, 21.40434
993.8851, 29.69892
994.3672, 21.29902
994.8493, 8.695168
995.3314, 9.148449
995.8135, 27.27462
996.2957, 35.23361
996.7778, 21.19416
997.2599, 8.206841
997.7420, 7.174984
998.2241, 15.58169
998.7062, 22.37450
999.1884, 27.56343
999.6705, 30.80931
1000.153, 30.60246
1000.635, 29.74058
1001.117, 29.96223
1001.599, 30.88086
1002.081, 31.73559
1002.563, 33.01979
1003.045, 32.46899
1003.527, 28.87678
1004.010, 25.73588
1004.492, 31.54877
1004.974, 40.50511
1005.456, 36.97794
1005.938, 16.80065
1006.420, 0.2228620
1006.902, 1.712749
1007.384, 6.981697
1007.866, 6.220329
1008.349, 0.3052640
1008.831, 3.402462
1009.313, 18.62329
1009.795, 30.18389
1010.277, 28.18541
1010.759, 19.26883
1011.241, 9.352158
1011.723, 0.2966160
1012.206, 3.416245
1012.688, 6.065430
1013.170, 12.06954
1013.652, 11.08830
1014.134, 7.707829
1014.616, 8.463940
1015.098, 12.78558
1015.580, 17.48912
1016.062, 22.49880
1016.545, 24.23993
1017.027, 15.24986
1017.509, 5.400814
1017.991, 3.598225
1018.473, 11.22182
1018.955, 16.89697
1019.437, 20.94022
1019.919, 21.93342
1020.401, 17.77086
1020.884, 11.20354
1021.366, 6.743320
1021.848, 5.413898
1022.330, 7.905521
1022.812, 19.96036
1023.294, 26.53377
1023.776, 17.73145
1024.258, 5.285019
1024.740, 4.866821
1025.223, 16.97255
1025.705, 25.96843
1026.187, 30.56074
1026.669, 29.14277
1027.151, 12.75779
1027.633, 5.210403
1028.115, 9.872137
1028.597, 0.9945030
1029.080, 8.181084
1029.562, 7.884205
1030.044, 9.674667
1030.526, 17.52658
1031.008, 27.37937
1031.490, 27.79173
1031.972, 21.24603
1032.454, 16.86270
1032.937, 21.85203
1033.419, 24.81364
1033.901, 15.96071
1034.383, 5.040035
1034.865, 5.189812
1035.347, 20.18937
1035.829, 25.74751
1036.311, 19.68187
1036.793, 11.91799
1037.276, 11.02531
1037.758, 13.84377
1038.240, 18.24335
1038.722, 23.61454
1039.204, 25.03066
1039.686, 19.06446
1040.168, 12.41088
1040.650, 5.599575
1041.132, 0.3228610
1041.615, 1.862740
1042.097, 8.731030
1042.579, 14.85209
1043.061, 19.08936
1043.543, 20.47622
1044.025, 14.22378
1044.507, 7.553226
1044.989, 8.802261
1045.472, 20.81810
1045.954, 26.44248
1046.436, 24.93384
1046.918, 21.59650
1047.400, 18.72162
1047.882, 17.39419
1048.364, 21.37849
1048.846, 28.86520
1049.328, 31.83858
1049.811, 22.78833
1050.293, 15.31832
1050.775, 10.30013
1051.257, 8.763908
1051.739, 15.83623
1052.221, 28.75573
1052.703, 34.71136
1053.185, 30.51588
1053.667, 22.84322
1054.150, 11.05446
1054.632, 1.457096
1055.114, 0.3723110
1055.596, 5.705765
1056.078, 14.95308
1056.560, 28.49528
1057.042, 36.99068
1057.524, 32.87595
1058.007, 23.25704
1058.489, 15.36838
1058.971, 10.01420
1059.453, 9.127300
1059.935, 17.68694
1060.417, 24.69473
1060.899, 29.74771
1061.381, 32.16815
1061.864, 29.96011
1062.346, 24.30734
1062.828, 20.80054
1063.310, 19.87520
1063.792, 18.58692
1064.274, 14.04194
1064.756, 9.572010
1065.238, 6.235992
1065.720, 4.529758
1066.203, 8.143906
1066.685, 17.96575
1067.167, 25.09568
1067.649, 26.42952
1068.131, 25.12650
1068.613, 24.75845
1069.095, 24.27541
1069.577, 22.03639
1070.059, 16.18721
1070.542, 11.86460
1071.024, 8.817188
1071.506, 7.684437
1071.988, 10.67809
1072.470, 15.79089
1072.952, 15.16536
1073.434, 9.873249
1073.916, 5.678642
1074.399, 3.157814
1074.881, 5.144958
1075.363, 16.36301
1075.845, 30.59550
1076.327, 37.24182
1076.809, 36.24715
1077.291, 37.48191
1077.773, 43.33447
1078.255, 43.37496
1078.738, 17.30161
1079.220, 11.15011
1079.702, 18.46762
1080.184, 1.087070
1080.666, 11.57487
1081.148, 19.46527
1081.630, 21.57705
1082.112, 13.90739
1082.594, 5.104752
1083.077, 16.43154
1083.559, 37.73037
1084.041, 46.43531
1084.523, 22.16107
1085.005, 11.24044
1085.487, 33.90429
1085.969, 55.74313
1086.451, 44.45216
1086.934, 5.422523
1087.416, 12.55590
1087.898, 10.01190
1088.380, 2.855068
1088.862, 2.282097
1089.344, 1.469620
1089.826, 21.10836
1090.308, 46.22920
1090.791, 49.94246
1091.273, 28.07598
1091.755, 16.83458
1092.237, 23.54196
1092.719, 34.25873
1093.201, 35.84055
1093.683, 32.71561
1094.165, 28.61920
1094.647, 23.75719
1095.130, 23.26016
1095.612, 30.56209
1096.094, 34.29626
1096.576, 28.45135
1097.058, 17.99522
1097.540, 12.20729
1098.022, 10.44385
1098.504, 11.33707
1098.987, 15.82298
1099.469, 20.24946
1099.951, 25.21841
1100.433, 28.07305
1100.915, 26.29072
1101.397, 19.74174
1101.879, 12.69080
1102.361, 5.560921
1102.844, 3.231571
1103.326, 12.98886
1103.808, 24.22351
1104.290, 32.57452
1104.772, 37.32674
1105.254, 35.61079
1105.736, 25.20157
1106.218, 25.26662
1106.700, 40.17840
1107.182, 55.74510
1107.665, 53.59952
1108.147, 43.97998
1108.629, 36.08806
1109.111, 30.97847
1109.593, 30.74515
1110.075, 38.04083
1110.557, 43.47834
1111.039, 44.59959
1111.522, 41.04367
1112.004, 27.03044
1112.486, 8.839775
1112.968, 0.1714290
1113.450, 7.463970
1113.932, 14.75119
1114.414, 17.44019
1114.896, 19.39849
1115.379, 23.96463
1115.861, 29.95707
1116.343, 27.67965
1116.825, 19.11845
1117.307, 15.99487
1117.789, 35.19763
1118.271, 49.10395
1118.753, 39.20757
1119.235, 20.11140
1119.718, 11.28926
1120.200, 13.51737
1120.682, 12.62316
1121.164, 7.277615
1121.646, 4.546665
1122.128, 14.77924
1122.610, 26.05830
1123.092, 26.80220
1123.574, 18.71016
1124.057, 16.85603
1124.539, 23.40707
1125.021, 27.79882
1125.503, 27.56023
1125.985, 24.85629
1126.467, 19.88147
1126.949, 15.43190
1127.431, 16.47715
1127.914, 25.27623
1128.396, 29.76866
1128.878, 28.45834
1129.360, 23.56644
1129.842, 13.11540
1130.324, 2.479908
1130.806, 8.097115
1131.288, 23.63995
1131.771, 32.39973
1132.253, 23.51224
1132.735, 17.49908
1133.217, 21.05326
1133.699, 26.12652
1134.181, 26.23919
1134.663, 22.29218
1135.145, 23.18407
1135.627, 27.76610
1136.109, 27.77327
1136.592, 9.195259
1137.074, 5.190897
1137.556, 2.299892
1138.038, 18.67279
1138.520, 21.82804
1139.002, 11.49519
1139.484, 4.433685
1139.966, 2.260708
1140.449, 4.596882
1140.931, 16.70961
1141.413, 28.46069
1141.895, 30.31878
1142.377, 24.29813
1142.859, 24.69382
1143.341, 34.74472
1143.823, 36.46835
1144.306, 23.06155
1144.788, 9.062340
1145.270, 10.83522
1145.752, 19.76311
1146.234, 25.47909
1146.716, 26.56875
1147.198, 26.15348
1147.680, 24.35325
1148.162, 24.80218
1148.645, 29.34368
1149.127, 36.65793
1149.609, 48.03875
1150.091, 59.67886
1150.573, 64.09055
1151.055, 56.64080
1151.537, 46.06042
1152.019, 29.87250
1152.501, 17.35716
1152.984, 18.07136
1153.466, 26.97152
1153.948, 28.89165
1154.430, 26.17863
1154.912, 25.47005
1155.394, 34.86804
1155.876, 40.38976
1156.358, 40.17339
1156.841, 34.90467
1157.323, 21.58166
1157.805, 3.425831
1158.287, 3.386873
1158.769, 1.298216
1159.251, 7.704556
1159.733, 11.37618
1160.215, 14.77261
1160.698, 19.69138
1161.180, 24.45111
1161.662, 24.35594
1162.144, 20.25632
1162.626, 21.77850
1163.108, 31.49699
1163.590, 35.25381
1164.072, 8.755381
1164.554, 13.42599
1165.036, 3.008806
1165.519, 31.64733
1166.001, 50.82762
1166.483, 54.70689
1166.965, 49.58280
1167.447, 33.68848
1167.929, 20.59467
1168.411, 27.36144
1168.893, 38.53048
1169.376, 36.31173
1169.858, 19.81560
1170.340, 14.66983
1170.822, 21.67343
1171.304, 27.39793
1171.786, 22.65473
1172.268, 17.60972
1172.750, 26.86790
1173.233, 40.74537
1173.715, 43.70889
1174.197, 30.23191
1174.679, 22.50299
1175.161, 21.36630
1175.643, 20.93746
1176.125, 14.61653
1176.607, 8.562019
1177.089, 11.84729
1177.572, 21.15840
1178.054, 27.45997
1178.536, 27.93085
1179.018, 30.07685
1179.500, 35.14147
1179.982, 38.93490
1180.464, 36.89035
1180.946, 31.25166
1181.428, 23.41165
1181.911, 14.33563
1182.393, 8.597324
1182.875, 6.883747
1183.357, 8.688229
1183.839, 14.80366
1184.321, 22.22255
1184.803, 28.05957
1185.285, 32.28070
1185.768, 34.62735
1186.250, 35.09096
1186.732, 34.78159
1187.214, 31.83629
1187.696, 32.44167
1188.178, 39.77188
1188.660, 49.01732
1189.142, 53.13366
1189.625, 52.20115
1190.107, 45.37890
1190.589, 29.76590
1191.071, 17.96988
1191.553, 11.92278
1192.035, 11.04741
1192.517, 16.68446
1192.999, 25.92834
1193.481, 34.79162
1193.964, 41.01369
1194.446, 37.03994
1194.928, 12.61243
1195.410, 5.4524999E-02
1195.892, 11.94598
1196.374, 27.29907
1196.856, 35.58947
1197.338, 37.25592
1197.820, 29.83296
1198.303, 16.82838
1198.785, 9.844805
1199.267, 23.86973
1199.749, 27.26281
1200.231, 3.399858
1200.713, 19.29429
1201.195, 13.83641
1201.677, 12.99125
1202.160, 33.25312
1202.642, 45.70173
1203.124, 44.97280
1203.606, 5.857424
1204.088, 15.16045
1204.570, 4.940117
1205.052, 35.81496
1205.534, 41.26317
1206.016, 27.80041
1206.499, 27.29933
1206.981, 39.47062
1207.463, 47.63588
1207.945, 36.94094
1208.427, 28.79967
1208.909, 31.84501
1209.391, 39.20142
1209.873, 39.44561
1210.355, 32.64493
1210.838, 20.13810
1211.320, 2.595345
1211.802, 4.240297
1212.284, 21.13898
1212.766, 43.51238
1213.248, 50.33090
1213.730, 45.81672
1214.212, 34.13912
1214.695, 17.96885
1215.177, 8.788635
1215.659, 8.629124
1216.141, 12.50138
1216.623, 20.55862
1217.105, 30.31483
1217.587, 43.34212
1218.069, 55.56001
1218.552, 52.72960
1219.034, 38.93067
1219.516, 30.97360
1219.998, 34.55311
1220.480, 35.68834
1220.962, 20.79755
1221.444, 9.987442
1221.926, 15.53838
1222.408, 30.35241
1222.891, 31.53998
1223.373, 22.61250
1223.855, 19.86071
1224.337, 31.50194
1224.819, 40.08883
1225.301, 32.12479
1225.783, 26.01861
1226.265, 33.96266
1226.747, 51.01676
1227.230, 55.64862
1227.712, 49.44848
1228.194, 37.80831
1228.676, 15.93429
1229.158, 2.594971
1229.640, 9.786236
1230.122, 19.87657
1230.604, 21.13177
1231.087, 15.77633
1231.569, 13.77080
1232.051, 14.54940
1232.533, 16.11899
1233.015, 20.16223
1233.497, 20.82865
1233.979, 14.50622
1234.461, 7.999046
1234.943, 6.552038
1235.426, 9.627234
1235.908, 16.52454
1236.390, 26.35292
1236.872, 35.52172
1237.354, 47.83916
1237.836, 50.32347
1238.318, 36.95639
1238.800, 21.05692
1239.282, 17.07578
1239.765, 20.57158
1240.247, 17.76746
1240.729, 9.916210
1241.211, 5.258635
1241.693, 9.950199
1242.175, 13.99203
1242.657, 15.27988
1243.139, 16.75924
1243.622, 24.33345
1244.104, 33.68305
1244.586, 32.82302
1245.068, 23.18612
1245.550, 18.15252
1246.032, 30.72980
1246.514, 31.99381
1246.996, 12.26889
1247.479, 6.128769
1247.961, 15.64630
1248.443, 52.37125
1248.925, 54.20974
1249.407, 22.66076
1249.889, 9.459095
1250.371, 37.57857
1250.853, 51.08860
1251.335, 36.56916
1251.818, 14.30244
1252.300, 7.176535
1252.782, 10.09174
1253.264, 19.22935
1253.746, 33.28460
1254.228, 39.28759
1254.710, 33.59848
1255.192, 29.31346
1255.674, 29.18881
1256.157, 31.94469
1256.639, 36.83434
1257.121, 42.21207
1257.603, 47.36773
1258.085, 51.59898
1258.567, 45.29641
1259.049, 27.06383
1259.531, 16.42328
1260.014, 18.74767
1260.496, 23.97682
1260.978, 19.94415
1261.460, 13.29467
1261.942, 15.61896
1262.424, 25.40144
1262.906, 29.59247
1263.388, 27.84423
1263.870, 24.94118
1264.353, 21.69518
1264.835, 19.58521
1265.317, 24.46157
1265.799, 27.48281
1266.281, 14.76838
1266.763, 9.552967
1267.245, 11.68014
1267.727, 7.060310
1268.209, 22.84721
1268.692, 28.10731
1269.174, 29.42582
1269.656, 27.56906
1270.138, 27.35344
1270.620, 34.23203
1271.102, 45.41127
1271.584, 43.21656
1272.066, 30.01341
1272.549, 19.28243
1273.031, 15.86368
1273.513, 13.91440
1273.995, 8.326164
1274.477, 6.069084
1274.959, 12.31249
1275.441, 24.13454
1275.923, 31.71121
1276.406, 35.25196
1276.888, 35.26080
1277.370, 30.32590
1277.852, 26.16489
1278.334, 24.23066
1278.816, 23.45983
1279.298, 23.93041
1279.780, 24.69787
1280.262, 23.01752
1280.745, 19.77339
1281.227, 17.18973
1281.709, 16.84290
1282.191, 13.66427
1282.673, 4.332344
1283.155, 0.4561390
1283.637, 10.18874
1284.119, 26.59026
1284.601, 35.48944
1285.084, 38.07519
1285.566, 35.59822
1286.048, 24.04310
1286.530, 21.97073
1287.012, 31.33457
1287.494, 39.70004
1287.976, 38.64361
1288.458, 35.27781
1288.941, 40.07698
1289.423, 46.66936
1289.905, 44.36071
1290.387, 30.98299
1290.869, 22.50766
1291.351, 18.96787
1291.833, 19.25864
1292.315, 25.07973
1292.797, 28.12480
1293.280, 31.27303
1293.762, 32.37014
1294.244, 33.12204
1294.726, 33.53329
1295.208, 27.80324
1295.690, 16.97541
1296.172, 10.53059
1296.654, 15.74934
1297.136, 22.24771
1297.619, 28.09058
1298.101, 30.97674
1298.583, 27.45538
1299.065, 19.21038
1299.547, 15.74178
1300.029, 16.39820
1300.511, 19.14612
1300.993, 26.37289
1301.476, 30.31957
1301.958, 30.22543
1302.440, 25.97782
1302.922, 13.18310
1303.404, 1.481710
1303.886, 2.000498
1304.368, 7.956217
1304.850, 19.72719
1305.333, 34.67459
1305.815, 44.89014
1306.297, 50.84740
1306.779, 49.84961
1307.261, 33.56646
1307.743, 15.31330
1308.225, 12.63512
1308.707, 19.31886
1309.189, 24.27722
1309.672, 25.86427
1310.154, 28.90075
1310.636, 33.38947
1311.118, 36.31657
1311.600, 48.51213
1312.082, 53.83262
1312.564, 32.07333
1313.046, 4.659126
1313.528, 2.393385
1314.011, 11.00766
1314.493, 17.74969
1314.975, 19.12187
1315.457, 21.31653
1315.939, 23.72829
1316.421, 27.31245
1316.903, 14.72787
1317.385, 2.732151
1317.868, 0.0000000E+00
##END=



