##NAMES=Litidionite
##RRUFFID=R130088
##IDEAL CHEMISTRY=KNaCu^2+^Si_4_O_10_
##LOCALITY=Mt Vesuvius, Napoli, Italy
##OWNER=RRUFF
##SOURCE=Rock Currier
##DESCRIPTION=Blue to green glassy, massive. The two larger fragments are from the 1880 eruption. The smaller fragment is from 1873.
##STATUS=The identification of this mineral has been confirmed by single-crystal X-ray diffraction.
##URL=rruff.info/R130088
198.2294, 0.0000000E+00
198.7115, 4.4979998E-03
199.1936, 0.1382680
199.6758, 0.2526890
200.1579, 0.3038220
200.6400, 0.3431660
201.1221, 0.3815380
201.6042, 0.4260290
202.0863, 0.5015370
202.5685, 0.6558070
203.0506, 0.8776170
203.5327, 0.9936450
204.0148, 0.8917050
204.4969, 0.7941060
204.9790, 0.8166690
205.4612, 0.9169390
205.9433, 1.011421
206.4254, 0.9490200
206.9075, 0.7127570
207.3896, 0.5681950
207.8717, 0.4919170
208.3539, 0.4472690
208.8360, 0.4053540
209.3181, 0.3767090
209.8002, 0.3941500
210.2823, 0.4917220
210.7644, 0.6743850
211.2466, 0.8694650
211.7287, 1.304585
212.2108, 1.545753
212.6929, 1.223854
213.1750, 0.4962840
213.6571, 0.1159710
214.1393, 8.6966999E-02
214.6214, 0.7411270
215.1035, 1.080536
215.5856, 0.4524690
216.0677, 0.1256100
216.5498, 1.3481000E-02
217.0320, 0.6943240
217.5141, 1.364941
217.9962, 1.367645
218.4783, 0.5807110
218.9604, 0.3076930
219.4425, 1.129723
219.9247, 1.929924
220.4068, 1.865406
220.8889, 0.9921990
221.3710, 0.1332440
221.8531, 3.7098002E-02
222.3352, 0.7693370
222.8174, 1.217964
223.2995, 1.179710
223.7816, 1.012020
224.2637, 0.9802400
224.7458, 1.096085
225.2279, 1.217651
225.7100, 1.233704
226.1922, 1.153404
226.6743, 1.072617
227.1564, 0.8665890
227.6385, 0.7032240
228.1206, 0.8006900
228.6027, 1.183769
229.0849, 1.575665
229.5670, 1.763317
230.0491, 1.801628
230.5312, 1.846008
231.0133, 1.847858
231.4954, 1.907227
231.9776, 2.177361
232.4597, 2.689209
232.9418, 3.217381
233.4239, 3.723404
233.9060, 4.128384
234.3881, 4.283947
234.8703, 4.010651
235.3524, 3.609634
235.8345, 3.458065
236.3166, 3.564060
236.7987, 3.872837
237.2808, 4.646294
237.7630, 5.508018
238.2451, 6.022606
238.7272, 6.073078
239.2093, 5.700924
239.6914, 5.294178
240.1735, 4.808350
240.6557, 4.511578
241.1378, 4.469624
241.6199, 4.593555
242.1020, 4.788910
242.5841, 4.890945
243.0662, 5.072128
243.5484, 5.291229
244.0305, 5.610733
244.5126, 5.779816
244.9947, 5.764805
245.4768, 5.561226
245.9589, 5.093796
246.4410, 4.336895
246.9232, 3.496185
247.4053, 3.087738
247.8874, 3.364391
248.3695, 3.464752
248.8516, 3.099628
249.3337, 2.617970
249.8159, 2.290604
250.2980, 2.208309
250.7801, 2.241249
251.2622, 2.149269
251.7443, 1.885700
252.2264, 1.612133
252.7086, 1.334190
253.1907, 1.062622
253.6728, 0.7677960
254.1549, 0.4584010
254.6370, 0.1996150
255.1191, 7.5305998E-02
255.6013, 0.1345560
256.0834, 0.2550930
256.5655, 0.3838500
257.0476, 0.5812150
257.5297, 0.9938850
258.0118, 1.594536
258.4940, 2.118626
258.9761, 2.162571
259.4582, 1.406910
259.9403, 0.9777830
260.4224, 1.055496
260.9045, 1.244106
261.3867, 1.272579
261.8688, 1.130592
262.3509, 1.024826
262.8330, 1.232498
263.3151, 1.948235
263.7972, 2.248756
264.2794, 1.905704
264.7615, 1.428635
265.2436, 1.039318
265.7257, 0.7769320
266.2078, 0.6093900
266.6899, 0.5155640
267.1721, 0.5117260
267.6542, 0.4818230
268.1363, 0.3177490
268.6184, 0.2283020
269.1005, 0.3709410
269.5826, 0.6993290
270.0648, 1.042477
270.5469, 1.274357
271.0290, 1.394726
271.5111, 1.347939
271.9932, 0.9542350
272.4753, 0.6171650
272.9575, 0.5571900
273.4396, 0.7020190
273.9217, 0.8174670
274.4038, 0.7432170
274.8859, 0.5024910
275.3680, 0.4442370
275.8501, 0.7495160
276.3322, 0.9952890
276.8144, 1.049976
277.2965, 0.9380650
277.7786, 0.6734500
278.2607, 0.2150990
278.7428, 0.3212970
279.2249, 0.4018060
279.7071, 0.3472180
280.1892, 1.015076
280.6713, 1.454880
281.1534, 1.652618
281.6355, 1.493359
282.1176, 0.8694040
282.5998, 4.8634000E-02
283.0819, 0.2139170
283.5640, 0.4606510
284.0461, 0.8858870
284.5282, 0.5738870
285.0103, 6.6615999E-02
285.4925, 0.3928760
285.9746, 0.1699910
286.4567, 0.2665440
286.9388, 0.3081550
287.4209, 0.2156260
287.9030, 0.5198440
288.3852, 0.3499150
288.8673, 5.1720001E-02
289.3494, 0.4483070
289.8315, 0.7931670
290.3136, 1.007324
290.7957, 0.9198420
291.2779, 0.4657550
291.7600, 0.2347150
292.2421, 0.5505560
292.7242, 0.9664500
293.2063, 0.9432450
293.6884, 0.4220120
294.1706, 4.8721001E-02
294.6527, 0.1236270
295.1348, 0.9453320
295.6169, 1.400333
296.0990, 1.124447
296.5811, 0.7093850
297.0633, 0.6779860
297.5454, 1.014469
298.0275, 1.265305
298.5096, 1.061089
298.9917, 0.4857600
299.4738, 0.1475110
299.9560, 0.1345250
300.4381, 0.2732930
300.9202, 0.5743100
301.4023, 0.9810030
301.8844, 1.222549
302.3665, 1.088779
302.8487, 0.7416530
303.3308, 0.6835940
303.8129, 1.102673
304.2950, 1.480042
304.7771, 1.572731
305.2592, 1.420872
305.7414, 1.247211
306.2235, 1.127728
306.7056, 1.036133
307.1877, 0.8878330
307.6698, 0.6158370
308.1519, 0.5238380
308.6341, 0.9356730
309.1162, 1.543571
309.5983, 1.747456
310.0804, 1.335644
310.5625, 0.7599330
311.0446, 0.6571920
311.5268, 1.033302
312.0089, 1.361256
312.4910, 1.527351
312.9731, 1.592106
313.4552, 1.634377
313.9373, 1.665508
314.4195, 1.656662
314.9016, 1.559166
315.3837, 1.380325
315.8658, 1.244247
316.3479, 1.099300
316.8300, 1.041798
317.3121, 1.232365
317.7943, 1.651936
318.2764, 2.021011
318.7585, 2.188683
319.2406, 2.127720
319.7227, 1.858315
320.2048, 0.9455450
320.6870, 0.2605740
321.1691, 0.5169180
321.6512, 1.459587
322.1333, 2.168129
322.6154, 2.163345
323.0975, 1.721191
323.5797, 1.553253
324.0618, 1.781467
324.5439, 1.980587
325.0260, 1.938156
325.5081, 1.761513
325.9902, 1.678944
326.4724, 1.783699
326.9545, 1.927383
327.4366, 1.839363
327.9187, 1.472183
328.4008, 1.195820
328.8829, 1.126930
329.3651, 1.158810
329.8472, 1.179287
330.3293, 1.167892
330.8114, 1.144817
331.2935, 1.131367
331.7756, 1.128136
332.2578, 1.103973
332.7399, 1.002602
333.2220, 0.9219510
333.7041, 0.9689870
334.1862, 1.126389
334.6683, 1.247757
335.1505, 1.207493
335.6326, 1.042816
336.1147, 1.024830
336.5968, 1.272049
337.0789, 1.496395
337.5610, 1.613968
338.0432, 1.618473
338.5253, 1.554043
339.0074, 1.430607
339.4895, 1.281979
339.9716, 1.204906
340.4537, 1.171642
340.9359, 1.158939
341.4180, 1.241905
341.9001, 1.349171
342.3822, 1.407089
342.8643, 1.382214
343.3464, 1.307178
343.8286, 1.268078
344.3107, 1.276951
344.7928, 1.291016
345.2749, 1.365253
345.7570, 1.371273
346.2391, 1.188904
346.7213, 0.8493540
347.2034, 0.5074040
347.6855, 0.3061070
348.1676, 0.2457810
348.6497, 0.3231740
349.1318, 0.6868930
349.6140, 1.008842
350.0961, 1.118195
350.5782, 1.075939
351.0603, 1.049419
351.5424, 1.142059
352.0245, 1.295761
352.5067, 1.317707
352.9888, 1.074436
353.4709, 0.8543780
353.9530, 0.6433870
354.4351, 0.4900440
354.9172, 0.4803500
355.3994, 0.6406480
355.8815, 0.8721390
356.3636, 1.009865
356.8457, 1.024281
357.3278, 0.9829140
357.8099, 0.8452070
358.2920, 0.6966440
358.7741, 0.5762020
359.2563, 0.4963720
359.7384, 0.4815180
360.2205, 0.5809400
360.7026, 0.8310240
361.1847, 0.8329120
361.6668, 0.1235010
362.1490, 0.3371390
362.6311, 2.3300000E-04
363.1132, 0.8049160
363.5953, 1.433605
364.0774, 1.488178
364.5595, 1.092674
365.0417, 0.7620350
365.5238, 0.4286580
366.0059, 0.2756230
366.4880, 0.4387700
366.9701, 0.7238960
367.4522, 0.9846650
367.9344, 1.162560
368.4165, 1.217949
368.8986, 1.034576
369.3807, 0.4223180
369.8628, 0.1083150
370.3449, 0.3083380
370.8271, 0.6281930
371.3092, 0.9623150
371.7913, 1.244987
372.2734, 1.362541
372.7555, 1.139721
373.2376, 0.5945470
373.7198, 0.3325500
374.2019, 0.6650700
374.6840, 0.9034270
375.1661, 0.6553420
375.6482, 0.2066080
376.1303, 3.7822999E-02
376.6125, 0.4323770
377.0946, 1.112919
377.5767, 1.450127
378.0588, 1.333393
378.5409, 1.174797
379.0230, 1.132801
379.5052, 1.078598
379.9873, 0.8731420
380.4694, 0.4943470
380.9515, 0.1182020
381.4336, 0.1156160
381.9157, 0.1908950
382.3979, 7.9585999E-02
382.8800, 0.3862760
383.3621, 0.8470610
383.8442, 1.082611
384.3263, 1.116688
384.8084, 1.046909
385.2906, 0.7984960
385.7727, 0.5042650
386.2548, 0.5270080
386.7369, 0.9696160
387.2190, 1.357998
387.7011, 1.343533
388.1833, 1.124931
388.6654, 0.9795070
389.1475, 0.9973410
389.6296, 1.028473
390.1117, 0.9088480
390.5938, 0.6654550
391.0760, 0.4955560
391.5581, 0.4497220
392.0402, 0.5080720
392.5223, 0.6950000
393.0044, 1.035480
393.4865, 1.249672
393.9687, 1.127522
394.4508, 0.8468090
394.9329, 0.7196240
395.4150, 0.8201260
395.8971, 0.8795510
396.3792, 0.5922510
396.8614, 2.3506001E-02
397.3435, 0.1883240
397.8256, 0.2664220
398.3077, 0.8361320
398.7898, 1.201210
399.2719, 1.380276
399.7540, 1.482555
400.2361, 1.566601
400.7183, 1.602432
401.2004, 1.480995
401.6825, 1.070190
402.1646, 0.7581630
402.6467, 0.7090110
403.1288, 0.7484130
403.6110, 0.6589510
404.0931, 0.3976290
404.5752, 0.1011660
405.0573, 7.5882003E-02
405.5394, 0.1171300
406.0215, 8.5529000E-02
406.5037, 5.9429999E-03
406.9858, 0.1743320
407.4679, 0.5533940
407.9500, 1.020134
408.4321, 1.273228
408.9142, 1.106262
409.3964, 0.6254350
409.8785, 0.3210070
410.3606, 0.3629150
410.8427, 0.3722110
411.3248, 0.2648890
411.8069, 0.1386870
412.2891, 9.0426996E-02
412.7712, 0.1443480
413.2533, 0.2548560
413.7354, 0.3710520
414.2175, 0.5042530
414.6996, 0.5951270
415.1818, 0.5880700
415.6639, 0.5890080
416.1460, 0.6836430
416.6281, 0.8215100
417.1102, 0.8755380
417.5923, 0.7487030
418.0745, 0.4961850
418.5566, 0.3027420
419.0387, 0.1445620
419.5208, 4.1710000E-02
420.0029, 3.0804001E-02
420.4850, 1.2218000E-02
420.9672, 0.1522640
421.4493, 0.4828190
421.9314, 0.7754590
422.4135, 0.7508810
422.8956, 0.4295230
423.3777, 0.2700420
423.8599, 0.4078790
424.3420, 0.6369630
424.8241, 0.8391270
425.3062, 1.003193
425.7883, 1.085365
426.2704, 1.039745
426.7526, 0.9145660
427.2347, 0.7348820
427.7168, 0.4912190
428.1989, 0.3652690
428.6810, 0.5049290
429.1631, 0.8044590
429.6453, 1.014702
430.1274, 1.116737
430.6095, 1.171070
431.0916, 1.225979
431.5737, 1.249935
432.0558, 1.156746
432.5380, 0.9117320
433.0201, 0.6331630
433.5022, 0.4560470
433.9843, 0.3930700
434.4664, 0.3599430
434.9485, 0.4094200
435.4307, 0.4406810
435.9128, 0.3769340
436.3949, 0.2347220
436.8770, 6.3091002E-02
437.3591, 0.1236500
437.8412, 0.2902110
438.3234, 0.2972370
438.8055, 8.1669003E-02
439.2876, 0.3249470
439.7697, 0.2774470
440.2518, 0.1645660
440.7339, 0.2247510
441.2160, 0.4802090
441.6982, 0.7329370
442.1803, 0.7375030
442.6624, 0.4415510
443.1445, 0.2822690
443.6266, 0.3784140
444.1087, 0.4897960
444.5909, 0.5590020
445.0730, 0.5909270
445.5551, 0.6168860
446.0372, 0.6578940
446.5193, 0.6728820
447.0014, 0.5433160
447.4836, 0.1907730
447.9657, 7.1387999E-02
448.4478, 0.1807670
448.9299, 0.1858790
449.4120, 0.1041560
449.8941, 6.0940001E-02
450.3763, 0.3056830
450.8584, 0.7941740
451.3405, 1.392265
451.8226, 1.401375
452.3047, 0.5276220
452.7868, 0.2291680
453.2690, 9.3258001E-02
453.7511, 0.4896280
454.2332, 0.9071920
454.7153, 0.9747280
455.1974, 0.9460530
455.6795, 1.089073
456.1617, 1.344379
456.6438, 1.500404
457.1259, 1.493008
457.6080, 1.376438
458.0901, 1.182480
458.5722, 0.9108050
459.0544, 0.6878090
459.5365, 0.4579240
460.0186, 0.3439560
460.5007, 0.5854840
460.9828, 1.102066
461.4649, 1.424755
461.9471, 1.220837
462.4292, 0.6492840
462.9113, 0.3662450
463.3934, 0.6221280
463.8755, 0.8271900
464.3576, 0.9249150
464.8398, 0.9372290
465.3219, 0.8261260
465.8040, 0.6145250
466.2861, 0.4805030
466.7682, 0.6606180
467.2503, 1.219452
467.7325, 1.468636
468.2146, 1.064007
468.6967, 0.7165370
469.1788, 0.6360740
469.6609, 0.7242700
470.1430, 0.8397330
470.6252, 0.9236220
471.1073, 0.9625470
471.5894, 0.9071540
472.0715, 0.7181630
472.5536, 0.6103970
473.0357, 0.7157440
473.5179, 0.8248520
474.0000, 0.8374060
474.4821, 0.7507820
474.9642, 0.5838580
475.4463, 0.1999280
475.9284, 0.2048300
476.4106, 7.9681002E-02
476.8927, 0.6895560
477.3748, 1.261776
477.8569, 1.105213
478.3390, 0.5828510
478.8211, 0.2466770
479.3033, 0.1132280
479.7854, 0.1838720
480.2675, 0.6583710
480.7496, 1.286442
481.2317, 1.572071
481.7138, 1.419079
482.1959, 1.165451
482.6780, 1.097687
483.1602, 1.218140
483.6423, 1.330479
484.1244, 1.542995
484.6065, 1.631287
485.0886, 1.370377
485.5707, 0.9504010
486.0529, 0.7332760
486.5350, 0.8523030
487.0171, 1.103821
487.4992, 1.130966
487.9813, 0.7636150
488.4634, 0.6352690
488.9456, 1.067322
489.4277, 1.391911
489.9098, 1.132839
490.3919, 0.5080110
490.8740, 4.8556998E-02
491.3561, 8.4251001E-02
491.8383, 0.4675520
492.3204, 0.8217430
492.8025, 1.184181
493.2846, 1.411968
493.7667, 1.389915
494.2488, 1.280842
494.7310, 1.136295
495.2131, 0.9767190
495.6952, 0.8990330
496.1773, 1.056023
496.6594, 1.370239
497.1415, 1.574635
497.6237, 1.665657
498.1058, 1.628086
498.5879, 1.322754
499.0700, 0.9351390
499.5521, 0.8408160
500.0342, 1.165092
500.5164, 1.517017
500.9985, 1.677593
501.4806, 1.735401
501.9627, 1.882950
502.4448, 2.159439
502.9269, 2.372242
503.4091, 2.313427
503.8912, 1.969967
504.3733, 1.742298
504.8554, 1.771801
505.3375, 1.744576
505.8196, 1.447071
506.3018, 1.046505
506.7839, 0.8296850
507.2660, 0.8984180
507.7481, 1.095234
508.2302, 1.174141
508.7123, 1.100365
509.1945, 1.034019
509.6766, 0.9689560
510.1587, 0.9185450
510.6408, 0.8730620
511.1229, 0.8585010
511.6050, 0.8575290
512.0872, 0.8600350
512.5693, 0.8970830
513.0514, 1.092762
513.5335, 1.500351
514.0156, 1.641525
514.4977, 1.213249
514.9799, 0.6802900
515.4620, 0.4359440
515.9441, 0.4487950
516.4262, 0.4794810
516.9083, 0.3758320
517.3904, 0.2677800
517.8726, 0.3950270
518.3547, 0.7433890
518.8368, 0.9813230
519.3189, 0.9236410
519.8010, 0.6967510
520.2831, 0.5960730
520.7653, 0.6801570
521.2474, 0.6908760
521.7295, 0.4761960
522.2116, 0.2458570
522.6937, 0.1738240
523.1758, 0.2706220
523.6580, 0.5061610
524.1401, 0.8961720
524.6222, 1.355202
525.1043, 1.421646
525.5864, 0.5842670
526.0685, 8.5674003E-02
526.5507, 0.2674370
527.0328, 0.6469190
527.5149, 0.8580060
527.9970, 0.8470190
528.4791, 0.7465780
528.9612, 0.6314740
529.4434, 0.5213660
529.9255, 0.5656930
530.4076, 0.8587070
530.8897, 1.086765
531.3718, 1.042004
531.8539, 0.8977740
532.3361, 0.8530010
532.8182, 0.9604380
533.3003, 0.9988330
533.7824, 0.7205120
534.2645, 0.2968670
534.7466, 5.6343000E-02
535.2288, 4.2068001E-02
535.7109, 0.1340290
536.1930, 0.2777820
536.6751, 0.4534870
537.1572, 0.5465130
537.6393, 0.4674490
538.1215, 0.4253770
538.6036, 0.5508080
539.0857, 0.7113270
539.5678, 0.7093540
540.0499, 0.5204510
540.5320, 0.3158070
541.0142, 0.2852630
541.4963, 0.4360280
541.9784, 0.5102350
542.4604, 0.4732210
542.9426, 0.3936310
543.4247, 0.2308270
543.9068, 5.8708001E-02
544.3889, 4.3823000E-02
544.8710, 5.5817001E-02
545.3531, 5.9170001E-03
545.8353, 8.6868003E-02
546.3174, 0.2200930
546.7995, 0.3796200
547.2816, 0.6178670
547.7637, 0.7691840
548.2458, 0.6332890
548.7280, 0.3602220
549.2101, 0.1934430
549.6922, 0.1994900
550.1743, 0.2647090
550.6564, 0.3731650
551.1385, 0.4660490
551.6207, 0.4647180
552.1028, 0.3483160
552.5849, 0.2104950
553.0670, 0.1265030
553.5491, 9.7057000E-02
554.0313, 0.1580050
554.5134, 0.4617500
554.9955, 0.6604040
555.4776, 0.6368900
555.9597, 0.4664460
556.4418, 0.1780850
556.9240, 0.1911960
557.4061, 0.4799730
557.8882, 0.4808120
558.3703, 0.1830020
558.8524, 8.9630000E-02
559.3345, 0.3298570
559.8167, 0.5497890
560.2988, 0.7835270
560.7809, 0.9891850
561.2630, 1.130333
561.7451, 1.200783
562.2272, 1.164310
562.7094, 0.8817480
563.1915, 0.4570390
563.6736, 0.2904360
564.1557, 0.4740750
564.6378, 0.6762280
565.1199, 0.6367570
565.6021, 0.4225580
566.0842, 0.3378260
566.5663, 0.5272060
567.0484, 0.6232220
567.5305, 0.3544580
568.0126, 8.0720000E-03
568.4948, 7.2159000E-02
568.9769, 0.2003750
569.4590, 0.4965860
569.9411, 0.5105060
570.4232, 0.2628900
570.9053, 0.1528020
571.3875, 0.2424240
571.8696, 0.4026070
572.3517, 0.8136250
572.8338, 1.164539
573.3159, 1.055763
573.7980, 0.4671360
574.2802, 7.3642999E-02
574.7623, 4.0100001E-02
575.2444, 0.4381180
575.7265, 0.8480490
576.2086, 1.204823
576.6907, 1.425655
577.1729, 1.412262
577.6550, 1.264576
578.1371, 1.134907
578.6192, 1.013142
579.1013, 0.9748500
579.5834, 1.084911
580.0656, 1.271385
580.5477, 1.474266
581.0298, 1.679779
581.5119, 1.860645
581.9940, 1.994888
582.4761, 2.100468
582.9583, 2.239399
583.4404, 2.586983
583.9225, 2.686859
584.4046, 2.214684
584.8867, 1.776398
585.3688, 1.836731
585.8510, 2.304337
586.3331, 2.788628
586.8152, 3.069393
587.2973, 3.180347
587.7794, 3.149101
588.2615, 2.942650
588.7437, 2.825996
589.2258, 2.900314
589.7079, 3.047169
590.1900, 3.179989
590.6721, 3.293705
591.1542, 3.348171
591.6364, 3.321983
592.1185, 3.241226
592.6006, 3.102192
593.0827, 2.929600
593.5648, 2.759258
594.0469, 2.597233
594.5291, 2.530609
595.0112, 2.724743
595.4933, 3.317963
595.9754, 3.531872
596.4575, 3.166954
596.9396, 2.706161
597.4218, 2.201267
597.9039, 1.748371
598.3860, 1.492649
598.8681, 1.476830
599.3502, 1.529545
599.8323, 1.423389
600.3145, 1.165890
600.7966, 0.9725800
601.2787, 0.8274690
601.7608, 0.7993930
602.2429, 1.102398
602.7250, 1.494919
603.2072, 1.566750
603.6893, 1.161465
604.1714, 0.7519650
604.6535, 0.5392000
605.1356, 0.4837070
605.6177, 0.6238710
606.0999, 0.9235420
606.5820, 1.059151
607.0641, 0.7487750
607.5462, 0.1395340
608.0283, 0.1007800
608.5104, 0.4220350
608.9926, 0.7618480
609.4747, 0.7923970
609.9568, 0.7087780
610.4389, 0.5696030
610.9210, 0.4356730
611.4031, 0.4354360
611.8853, 0.6868630
612.3674, 1.061985
612.8495, 1.300594
613.3316, 1.398315
613.8137, 1.418030
614.2958, 1.350883
614.7780, 1.227577
615.2601, 1.045460
615.7422, 0.8391110
616.2243, 0.7503660
616.7064, 0.9137690
617.1885, 1.069256
617.6707, 1.063663
618.1528, 0.9336470
618.6349, 0.7154200
619.1170, 0.4291500
619.5991, 0.1755750
620.0812, 7.6747999E-02
620.5634, 0.1402930
621.0455, 0.2404250
621.5276, 0.5235440
622.0097, 0.6566390
622.4918, 0.3953820
622.9739, 5.1410999E-02
623.4561, 1.8363999E-02
623.9382, 0.2381360
624.4203, 0.5295980
624.9023, 0.6258130
625.3845, 0.5748370
625.8666, 0.4817580
626.3487, 0.3420830
626.8308, 0.2255630
627.3129, 0.1166530
627.7950, 7.5370997E-02
628.2772, 0.3099250
628.7593, 0.9520760
629.2414, 1.223003
629.7235, 0.6643330
630.2056, 6.9160000E-03
630.6877, 0.2595630
631.1699, 0.2083890
631.6520, 8.8340998E-02
632.1341, 2.2320000E-02
632.6162, 1.4362000E-02
633.0983, 4.4571001E-02
633.5804, 5.7068001E-02
634.0626, 7.8097999E-02
634.5447, 6.9374003E-02
635.0268, 0.1237220
635.5089, 0.3421290
635.9910, 0.6224750
636.4731, 0.8005330
636.9553, 0.8202480
637.4374, 0.8124500
637.9195, 0.9397350
638.4016, 1.082169
638.8837, 0.9355890
639.3658, 0.4813270
639.8480, 0.1217960
640.3301, 0.1450160
640.8122, 0.4258190
641.2943, 0.5452190
641.7764, 0.3575630
642.2585, 0.2367820
642.7407, 0.1460380
643.2228, 8.9863002E-02
643.7049, 0.2051890
644.1870, 0.4159510
644.6691, 0.5229340
645.1512, 0.4042850
645.6334, 0.2165720
646.1155, 0.2450680
646.5976, 0.4874380
647.0797, 0.6379050
647.5618, 0.6414110
648.0439, 0.5642130
648.5261, 0.3486980
649.0082, 9.1732003E-02
649.4903, 0.1179810
649.9724, 0.6806910
650.4545, 1.174740
650.9366, 1.371265
651.4188, 1.374908
651.9009, 1.228233
652.3830, 0.9622990
652.8651, 0.7200090
653.3472, 0.6062930
653.8293, 0.6317860
654.3115, 0.8886600
654.7936, 1.606747
655.2757, 1.994511
655.7578, 1.599174
656.2399, 1.136208
656.7220, 0.9712450
657.2042, 1.063732
657.6863, 1.246948
658.1684, 1.548065
658.6505, 1.771866
659.1326, 1.666306
659.6147, 1.345882
660.0969, 1.087391
660.5790, 0.9494360
661.0611, 0.9224590
661.5432, 1.022224
662.0253, 1.230576
662.5074, 1.354553
662.9896, 1.295975
663.4717, 1.275021
663.9538, 1.378544
664.4359, 1.471489
664.9180, 1.395077
665.4001, 1.186161
665.8823, 1.032589
666.3644, 1.122261
666.8465, 1.292553
667.3286, 1.244389
667.8107, 0.9938740
668.2928, 0.7443920
668.7750, 0.4872130
669.2571, 0.3784870
669.7392, 0.6861230
670.2213, 1.341072
670.7034, 1.641296
671.1855, 1.182308
671.6677, 0.8520050
672.1498, 1.059578
672.6319, 1.461082
673.1140, 1.759441
673.5961, 1.868862
674.0782, 1.714951
674.5604, 1.174393
675.0425, 0.4432140
675.5246, 0.1942980
676.0067, 0.5237270
676.4888, 0.9080540
676.9709, 1.409534
677.4531, 1.751766
677.9352, 1.615231
678.4173, 1.138439
678.8994, 0.8064230
679.3815, 0.7741090
679.8636, 0.8339000
680.3458, 0.8501240
680.8279, 0.8784750
681.3100, 1.045353
681.7921, 1.362812
682.2742, 1.683491
682.7563, 1.897659
683.2385, 2.009510
683.7206, 2.045139
684.2027, 2.019791
684.6848, 1.883591
685.1669, 1.517807
685.6490, 1.136410
686.1312, 0.8241650
686.6133, 0.5984880
687.0954, 0.4998740
687.5775, 0.5965920
688.0596, 0.7272760
688.5417, 0.7329520
689.0239, 0.6763880
689.5060, 0.6571240
689.9881, 0.6898000
690.4702, 0.7531590
690.9523, 0.8319130
691.4344, 0.9265140
691.9166, 1.049572
692.3987, 1.299961
692.8808, 1.415234
693.3629, 1.311321
693.8450, 1.143177
694.3271, 0.9303590
694.8093, 0.7357140
695.2914, 0.6985280
695.7735, 0.9135590
696.2556, 1.201595
696.7377, 1.420422
697.2198, 1.552715
697.7020, 1.534744
698.1841, 1.357269
698.6662, 1.020523
699.1483, 0.4306790
699.6304, 0.2631420
700.1125, 0.4779620
700.5947, 0.2887540
701.0768, 0.7672270
701.5589, 0.7206500
702.0410, 0.5936160
702.5231, 0.6866570
703.0052, 0.9100880
703.4874, 0.9998090
703.9695, 0.8292050
704.4516, 0.6258810
704.9337, 0.7227750
705.4158, 1.045242
705.8979, 1.228630
706.3801, 1.235641
706.8622, 1.121754
707.3442, 0.8977240
707.8264, 0.5991440
708.3085, 0.2992100
708.7906, 7.4211001E-02
709.2727, 0.2643320
709.7548, 0.1112980
710.2369, 9.5871001E-02
710.7191, 0.1646540
711.2012, 0.1674310
711.6833, 0.2653160
712.1654, 0.5141220
712.6475, 0.7693180
713.1296, 0.8871840
713.6118, 0.8708800
714.0939, 0.6956980
714.5760, 0.3251880
715.0581, 2.3750000E-02
715.5402, 0.1064830
716.0223, 7.9806998E-02
716.5045, 0.1460570
716.9866, 0.6372950
717.4687, 0.9130330
717.9508, 0.8190570
718.4329, 0.6215020
718.9150, 0.3784220
719.3972, 0.1464080
719.8793, 4.7207002E-02
720.3614, 0.1767880
720.8435, 0.1354030
721.3256, 0.3123250
721.8077, 0.9879460
722.2899, 1.111973
722.7720, 0.6123120
723.2541, 0.1488110
723.7362, 0.1173440
724.2183, 0.1909900
724.7004, 2.2182001E-02
725.1826, 0.5101740
725.6647, 0.7636380
726.1468, 0.5649720
726.6289, 0.3579410
727.1110, 0.2778470
727.5931, 0.2881970
728.0753, 0.3959920
728.5574, 0.5628280
729.0395, 0.6531070
729.5216, 0.5526240
730.0037, 0.3388020
730.4858, 0.1826170
730.9680, 8.5879996E-02
731.4501, 2.8949999E-03
731.9322, 0.1106530
732.4143, 0.1732940
732.8964, 0.1386570
733.3785, 1.2806000E-02
733.8607, 0.1711500
734.3428, 0.5945170
734.8249, 0.7900700
735.3070, 0.4320110
735.7891, 3.9019999E-03
736.2712, 0.1072850
736.7534, 6.2412001E-02
737.2355, 0.2322390
737.7176, 0.2697680
738.1997, 0.2339820
738.6818, 0.2011760
739.1639, 0.1715580
739.6461, 0.1438100
740.1282, 0.1145170
740.6103, 9.6859001E-02
741.0924, 6.8797998E-02
741.5745, 7.8403004E-02
742.0566, 0.2774280
742.5388, 0.7876820
743.0209, 1.056923
743.5030, 0.7888790
743.9851, 0.5314560
744.4672, 0.6908490
744.9493, 1.006760
745.4315, 0.9988860
745.9136, 0.5611150
746.3957, 0.1129530
746.8778, 0.1101260
747.3599, 0.4047280
747.8420, 0.5269810
748.3242, 0.4717640
748.8063, 0.4582180
749.2884, 0.5528300
749.7705, 0.7408640
750.2526, 1.084198
750.7347, 1.607655
751.2169, 1.697620
751.6990, 0.9595150
752.1811, 0.3388060
752.6632, 4.3166999E-02
753.1453, 5.0274000E-02
753.6274, 7.4040000E-03
754.1096, 0.1285820
754.5917, 0.2859840
755.0738, 0.4431420
755.5559, 0.5642090
756.0380, 0.5582200
756.5201, 0.4648590
757.0023, 0.4844280
757.4844, 0.6366310
757.9665, 0.7383920
758.4486, 0.6849820
758.9307, 0.5099750
759.4128, 0.4480060
759.8950, 0.6150890
760.3771, 0.6834720
760.8592, 0.6252590
761.3413, 0.5047990
761.8234, 0.2635920
762.3055, 1.2096000E-02
762.7877, 4.6115998E-02
763.2698, 0.1541020
763.7519, 0.3272970
764.2340, 0.1668850
764.7161, 0.1044310
765.1982, 6.8278998E-02
765.6804, 0.2190740
766.1625, 0.3371240
766.6446, 0.1037980
767.1267, 0.2202490
767.6088, 0.2758330
768.0909, 5.4717999E-02
768.5731, 0.2717700
769.0552, 0.9437450
769.5373, 1.321651
770.0194, 1.007271
770.5015, 0.5651360
770.9836, 0.4280930
771.4658, 0.5734560
771.9479, 0.7460900
772.4300, 0.9282880
772.9121, 1.013371
773.3942, 0.8308830
773.8763, 0.5502130
774.3585, 0.4389270
774.8406, 0.5080220
775.3227, 0.6243440
775.8048, 0.7074280
776.2869, 0.7488860
776.7690, 0.7245100
777.2512, 0.6282040
777.7333, 0.4889640
778.2154, 0.2436030
778.6975, 8.5266002E-02
779.1796, 0.2127000
779.6617, 0.4495160
780.1439, 0.5096890
780.6260, 0.3514560
781.1081, 0.1873510
781.5902, 3.8245998E-02
782.0723, 0.1609190
782.5544, 4.4647001E-02
783.0366, 0.3905600
783.5187, 0.5480840
784.0008, 0.4518590
784.4829, 0.3464090
784.9650, 0.4810790
785.4471, 0.7633210
785.9293, 0.9271160
786.4114, 0.9713630
786.8935, 0.8883360
787.3756, 0.6040880
787.8577, 0.4220500
788.3398, 0.7048570
788.8220, 1.367241
789.3040, 1.671238
789.7861, 1.337284
790.2682, 1.060131
790.7504, 0.8990290
791.2325, 0.8162960
791.7146, 0.8109970
792.1967, 0.8489070
792.6788, 0.8696210
793.1609, 0.8488310
793.6431, 0.8302540
794.1252, 0.8485640
794.6073, 0.9032630
795.0894, 0.9852140
795.5715, 1.084530
796.0536, 1.149872
796.5358, 1.162209
797.0179, 1.102421
797.5000, 0.9050750
797.9821, 0.5512540
798.4642, 0.5423970
798.9464, 1.194504
799.4285, 1.618732
799.9106, 1.451801
800.3927, 1.088837
800.8748, 0.6908530
801.3569, 0.3230210
801.8391, 0.2463490
802.3212, 0.8225670
802.8033, 1.273899
803.2854, 1.003761
803.7675, 0.5080340
804.2496, 0.3661120
804.7318, 0.5801050
805.2139, 0.8943330
805.6960, 1.176968
806.1781, 1.400730
806.6602, 1.532738
807.1423, 1.571178
807.6245, 1.448936
808.1066, 1.123375
808.5887, 0.8349910
809.0708, 0.6745910
809.5529, 0.6289560
810.0350, 0.7073520
810.5172, 0.9429510
810.9993, 1.078999
811.4814, 1.098633
811.9635, 1.046410
812.4456, 0.8181110
812.9277, 0.6064830
813.4099, 0.6528820
813.8920, 0.9071080
814.3741, 1.069923
814.8562, 0.9439770
815.3383, 0.7732050
815.8204, 0.8429760
816.3026, 1.051849
816.7847, 1.164860
817.2668, 1.164417
817.7489, 1.177471
818.2310, 1.277256
818.7131, 1.426727
819.1953, 1.559856
819.6774, 1.679131
820.1595, 1.766586
820.6416, 1.825214
821.1237, 1.845802
821.6058, 1.812710
822.0880, 1.745342
822.5701, 1.655594
823.0522, 1.547604
823.5343, 1.450710
824.0164, 1.340130
824.4985, 1.276520
824.9807, 1.284954
825.4628, 1.349598
825.9449, 1.504578
826.4270, 1.702950
826.9091, 1.802608
827.3912, 1.705124
827.8734, 1.568691
828.3555, 1.685047
828.8376, 1.963104
829.3197, 1.946533
829.8018, 1.593586
830.2839, 1.410526
830.7661, 1.693001
831.2482, 2.144276
831.7303, 2.258442
832.2124, 1.966801
832.6945, 1.840889
833.1766, 2.075825
833.6588, 2.195042
834.1409, 1.944176
834.6230, 1.661083
835.1051, 1.672958
835.5872, 1.923279
836.0693, 2.054245
836.5515, 1.839939
837.0336, 1.674393
837.5157, 1.861069
837.9978, 2.152657
838.4799, 2.284012
838.9620, 2.245129
839.4442, 2.097095
839.9263, 1.866470
840.4084, 1.647251
840.8905, 1.566566
841.3726, 1.607227
841.8547, 1.690960
842.3369, 1.821178
842.8190, 1.921101
843.3011, 1.977615
843.7832, 1.946487
844.2653, 1.749210
844.7474, 1.391483
845.2296, 1.154644
845.7117, 0.9386060
846.1938, 0.9401740
846.6759, 1.329666
847.1580, 1.813354
847.6401, 2.337471
848.1223, 2.791309
848.6044, 2.935413
849.0865, 2.616875
849.5686, 2.308800
850.0507, 2.309162
850.5328, 2.415947
851.0150, 2.429367
851.4971, 2.376354
851.9792, 2.377754
852.4613, 2.457859
852.9434, 2.475372
853.4255, 2.258472
853.9077, 1.901646
854.3898, 1.682259
854.8719, 1.599564
855.3540, 1.698772
855.8361, 2.037514
856.3182, 2.346428
856.8004, 2.372536
857.2825, 2.222996
857.7646, 2.235718
858.2467, 2.559391
858.7288, 2.720818
859.2109, 2.661610
859.6931, 2.513481
860.1752, 2.205505
860.6573, 1.899574
861.1394, 1.858250
861.6215, 2.085659
862.1036, 2.151165
862.5858, 1.678936
863.0679, 1.209248
863.5500, 1.107193
864.0321, 1.232670
864.5142, 1.442211
864.9963, 1.677727
865.4785, 1.871304
865.9606, 1.996880
866.4427, 2.005184
866.9248, 1.729984
867.4069, 1.256981
867.8890, 1.024105
868.3712, 1.064133
868.8533, 1.075031
869.3354, 0.9043310
869.8175, 0.7562140
870.2996, 0.9527170
870.7817, 1.500015
871.2639, 1.666401
871.7459, 1.077255
872.2280, 0.7671050
872.7101, 1.190739
873.1923, 1.676865
873.6744, 1.810947
874.1565, 1.700157
874.6386, 1.626839
875.1207, 1.640583
875.6028, 1.679016
876.0850, 1.822891
876.5671, 1.913498
877.0492, 1.705868
877.5313, 1.363899
878.0134, 1.208305
878.4955, 1.296253
878.9777, 1.395775
879.4598, 1.322075
879.9419, 1.146679
880.4240, 0.9535330
880.9061, 0.7899930
881.3882, 0.7414360
881.8704, 0.8100430
882.3525, 0.8755530
882.8346, 0.8339540
883.3167, 0.7752040
883.7988, 0.9350930
884.2809, 1.383228
884.7631, 1.504288
885.2452, 1.140030
885.7273, 0.8302730
886.2094, 0.7780340
886.6915, 0.8444250
887.1736, 0.8781620
887.6558, 0.8798370
888.1379, 0.9371760
888.6200, 1.177898
889.1021, 1.307808
889.5842, 1.170509
890.0663, 1.007092
890.5485, 1.044899
891.0306, 1.164803
891.5127, 1.076733
891.9948, 0.6901250
892.4769, 0.3526610
892.9590, 0.2942770
893.4412, 0.3929750
893.9233, 0.5684890
894.4054, 0.7755850
894.8875, 0.9711380
895.3696, 1.146191
895.8517, 1.250454
896.3339, 1.242863
896.8160, 1.152348
897.2981, 1.010544
897.7802, 0.8275300
898.2623, 0.7036820
898.7444, 0.6513670
899.2266, 0.6109310
899.7087, 0.5398030
900.1908, 0.5196950
900.6729, 0.7234000
901.1550, 1.172470
901.6371, 1.149660
902.1193, 0.2429710
902.6014, 0.3655030
903.0835, 0.2871820
903.5656, 8.6610001E-03
904.0477, 0.2480640
904.5298, 0.4368310
905.0120, 0.4075980
905.4941, 1.6577000E-02
905.9762, 0.2201190
906.4583, 0.1103360
906.9404, 0.1232910
907.4225, 0.4965130
907.9047, 0.8308260
908.3868, 0.8485130
908.8689, 0.5572200
909.3510, 0.3081150
909.8331, 0.3417610
910.3152, 0.4510570
910.7974, 0.3862040
911.2795, 0.2617240
911.7616, 0.3705430
912.2437, 0.6588610
912.7258, 0.7006930
913.2079, 0.2933860
913.6901, 0.1575570
914.1722, 2.1938000E-02
914.6543, 0.5462320
915.1364, 0.6340580
915.6185, 0.2184490
916.1006, 6.3487999E-02
916.5828, 0.4164600
917.0649, 0.8096410
917.5470, 0.8612900
918.0291, 0.6466960
918.5112, 0.5013640
918.9933, 0.4780690
919.4755, 0.3923700
919.9576, 0.1434670
920.4397, 2.1729000E-02
920.9218, 8.8352002E-02
921.4039, 0.2685550
921.8860, 0.2845000
922.3682, 0.1401180
922.8503, 2.1040000E-02
923.3324, 9.8739997E-02
923.8145, 0.1208480
924.2966, 6.7837000E-02
924.7787, 0.2888340
925.2609, 0.3991280
925.7430, 0.4307310
926.2251, 0.4942250
926.7072, 0.6249750
927.1893, 0.6733530
927.6714, 0.4239290
928.1536, 0.1479420
928.6357, 0.1384870
929.1178, 0.3024690
929.5999, 0.4879420
930.0820, 0.6433540
930.5641, 0.7116580
931.0463, 0.6470390
931.5284, 0.5311300
932.0105, 0.5413250
932.4926, 0.6141610
932.9747, 0.4176670
933.4568, 4.1995998E-02
933.9390, 0.3704830
934.4211, 0.4189360
934.9032, 0.2927470
935.3853, 8.3567001E-02
935.8674, 0.1867560
936.3495, 0.4207120
936.8317, 0.6749480
937.3138, 0.5852030
937.7959, 0.1376060
938.2780, 0.6464330
938.7601, 0.3660620
939.2422, 0.3236050
939.7244, 0.7831750
940.2065, 1.012135
940.6886, 1.007902
941.1707, 0.5097660
941.6528, 0.1428930
942.1349, 0.1015910
942.6171, 0.1609020
943.0992, 0.1801680
943.5813, 0.1624740
944.0634, 0.1238690
944.5455, 3.0448999E-02
945.0276, 5.9858002E-02
945.5098, 0.4803140
945.9919, 0.8273330
946.4740, 0.6738070
946.9561, 0.3218120
947.4382, 0.2118170
947.9203, 0.3677600
948.4025, 0.4966200
948.8846, 0.4353900
949.3667, 0.3112580
949.8488, 0.2366450
950.3309, 0.1826670
950.8130, 5.0510000E-02
951.2952, 0.1036640
951.7773, 4.5471001E-02
952.2594, 0.2836300
952.7415, 0.6006770
953.2236, 0.6178490
953.7057, 0.4521310
954.1878, 0.3591290
954.6699, 0.3394600
955.1520, 0.4440920
955.6342, 0.6792660
956.1163, 0.7910610
956.5984, 0.6293370
957.0805, 0.3456130
957.5626, 0.1591240
958.0447, 7.0216998E-02
958.5269, 0.2071930
959.0090, 0.6664830
959.4911, 0.9137970
959.9732, 0.7338470
960.4553, 0.5439410
960.9374, 0.7683280
961.4196, 1.203119
961.9017, 1.207735
962.3838, 0.5521140
962.8659, 0.1881240
963.3480, 0.3242440
963.8301, 0.4270320
964.3123, 0.2699950
964.7944, 0.1166990
965.2765, 0.2646790
965.7586, 0.6287360
966.2407, 0.7847420
966.7228, 0.4847740
967.2050, 0.3747880
967.6871, 0.8578620
968.1692, 1.279932
968.6513, 1.201105
969.1334, 0.8713340
969.6155, 0.6212390
970.0977, 0.4955330
970.5798, 0.3784410
971.0619, 0.1503770
971.5440, 4.0091999E-02
972.0261, 0.2669260
972.5082, 0.6045720
972.9904, 0.9302230
973.4725, 1.144075
973.9546, 0.9925790
974.4367, 0.4474450
974.9188, 4.9040001E-03
975.4009, 0.1483610
975.8831, 0.5098630
976.3652, 0.6223600
976.8473, 0.5685120
977.3294, 0.4472980
977.8115, 0.3270890
978.2936, 0.4782050
978.7758, 1.033894
979.2579, 1.570587
979.7400, 1.471806
980.2221, 0.9670390
980.7042, 0.8780990
981.1863, 1.138641
981.6685, 1.210657
982.1506, 1.001236
982.6327, 0.8176750
983.1148, 0.8769680
983.5969, 1.032270
984.0790, 0.9756090
984.5612, 0.7182870
985.0433, 0.6525920
985.5254, 0.8478430
986.0075, 0.8792100
986.4896, 0.5547370
986.9717, 0.3151530
987.4539, 0.5815580
987.9360, 1.147642
988.4181, 1.343613
988.9002, 1.024300
989.3823, 0.8482990
989.8644, 0.8731120
990.3466, 0.9327350
990.8287, 1.002617
991.3108, 1.047953
991.7929, 0.9796540
992.2750, 0.8559020
992.7571, 0.9403230
993.2393, 1.527651
993.7214, 1.808895
994.2035, 1.534088
994.6856, 1.231096
995.1677, 0.9776360
995.6498, 0.8377380
996.1320, 0.9967590
996.6141, 1.437494
997.0962, 1.667238
997.5783, 1.265831
998.0604, 1.112936
998.5425, 1.736528
999.0247, 2.351742
999.5068, 2.482738
999.9889, 2.279274
1000.471, 1.924238
1000.953, 1.477823
1001.435, 1.106335
1001.917, 0.8242740
1002.399, 0.7134720
1002.882, 1.007563
1003.364, 1.350189
1003.846, 1.359488
1004.328, 1.160753
1004.810, 1.044966
1005.292, 1.077087
1005.774, 1.099413
1006.256, 0.9668620
1006.739, 0.8433000
1007.221, 0.9300140
1007.703, 1.092625
1008.185, 1.156502
1008.667, 1.112862
1009.149, 0.9767380
1009.631, 0.7813890
1010.113, 0.6672400
1010.595, 0.8103290
1011.078, 1.012712
1011.560, 0.9551910
1012.042, 0.7285060
1012.524, 0.4840760
1013.006, 0.2788830
1013.488, 0.2607140
1013.970, 0.4900280
1014.452, 0.7909850
1014.935, 0.9814400
1015.417, 1.083052
1015.899, 1.128605
1016.381, 1.143787
1016.863, 1.214195
1017.345, 1.348448
1017.827, 1.570709
1018.309, 1.916473
1018.791, 2.062517
1019.274, 1.398754
1019.756, 0.1978570
1020.238, 0.1170460
1020.720, 0.4171100
1021.202, 0.8470760
1021.684, 1.005795
1022.166, 1.058043
1022.648, 1.086632
1023.130, 1.114553
1023.613, 1.173975
1024.095, 1.259777
1024.577, 1.293591
1025.059, 1.271364
1025.541, 1.227661
1026.023, 1.166988
1026.505, 1.101063
1026.987, 1.058098
1027.469, 0.9621070
1027.952, 0.6327570
1028.434, 4.6739999E-02
1028.916, 0.2204840
1029.398, 8.9634001E-02
1029.880, 9.6658997E-02
1030.362, 0.3116820
1030.844, 0.4581530
1031.326, 0.4523600
1031.809, 0.3581850
1032.291, 0.2908130
1032.773, 0.2296200
1033.255, 0.3126350
1033.737, 0.6435600
1034.219, 0.8797150
1034.701, 0.9304980
1035.183, 0.9118480
1035.666, 0.8635670
1036.148, 0.8204750
1036.630, 0.8885780
1037.112, 1.137388
1037.594, 1.094170
1038.076, 0.3611280
1038.558, 2.1721000E-02
1039.040, 0.3322370
1039.522, 0.8599510
1040.005, 1.427805
1040.487, 1.845991
1040.969, 1.568371
1041.451, 0.3317450
1041.933, 0.2106440
1042.415, 0.6829930
1042.897, 1.271307
1043.379, 0.9870590
1043.861, 0.5499190
1044.344, 0.3342490
1044.826, 0.3247570
1045.308, 0.5264800
1045.790, 0.9902040
1046.272, 1.290020
1046.754, 1.354412
1047.236, 1.287584
1047.718, 1.045630
1048.201, 0.7477150
1048.683, 0.3800930
1049.165, 4.8726998E-02
1049.647, 1.3229000E-02
1050.129, 0.2541830
1050.611, 0.3760340
1051.093, 9.7174004E-02
1051.575, 0.1165540
1052.057, 0.2645530
1052.540, 0.1670550
1053.022, 0.6730190
1053.504, 1.705679
1053.986, 1.820019
1054.468, 0.8350770
1054.950, 9.4662003E-02
1055.432, 5.9953999E-02
1055.914, 0.1798930
1056.396, 0.3550010
1056.879, 0.5306950
1057.361, 0.6552050
1057.843, 0.7584320
1058.325, 0.9715400
1058.807, 1.301989
1059.289, 1.323441
1059.771, 0.5375800
1060.253, 9.4798997E-02
1060.736, 0.1289900
1061.218, 4.5248002E-02
1061.700, 0.2255570
1062.182, 0.3594040
1062.664, 0.3739380
1063.146, 0.2723670
1063.628, 0.2309680
1064.110, 0.4090560
1064.593, 0.5229610
1065.075, 0.2989030
1065.557, 0.1221350
1066.039, 0.4192870
1066.521, 0.8969520
1067.003, 1.031790
1067.485, 0.7918660
1067.967, 0.6610550
1068.449, 0.9695700
1068.932, 1.155430
1069.414, 0.8129080
1069.896, 0.4114270
1070.378, 0.3007490
1070.860, 0.3635290
1071.342, 0.4200550
1071.824, 0.4395580
1072.306, 0.4489420
1072.788, 0.4884760
1073.271, 0.4531290
1073.753, 0.1834200
1074.235, 6.3515000E-02
1074.717, 0.1053920
1075.199, 3.6430000E-03
1075.681, 0.1928600
1076.163, 0.4292620
1076.645, 0.6062260
1077.127, 0.6995750
1077.610, 0.6913390
1078.092, 0.5071010
1078.574, 0.3337940
1079.056, 0.2617440
1079.538, 0.2641030
1080.020, 0.3339560
1080.502, 0.4393250
1080.984, 0.4953750
1081.467, 0.4668940
1081.949, 0.4394420
1082.431, 0.4162270
1082.913, 0.4465120
1083.395, 0.6643070
1083.877, 0.8708880
1084.359, 0.8115330
1084.841, 0.5615160
1085.323, 0.3350510
1085.806, 0.1711120
1086.288, 0.2117080
1086.770, 0.7909740
1087.252, 1.249048
1087.734, 1.129896
1088.216, 0.8423180
1088.698, 0.7675700
1089.180, 0.8309940
1089.662, 0.7500550
1090.145, 0.4648460
1090.627, 0.4094410
1091.109, 1.077274
1091.591, 1.568031
1092.073, 1.262619
1092.555, 0.8584310
1093.037, 0.9536710
1093.519, 1.320694
1094.002, 1.545233
1094.484, 1.562799
1094.966, 1.483768
1095.448, 1.204744
1095.930, 1.039154
1096.412, 1.123688
1096.894, 1.313570
1097.376, 1.672033
1097.859, 2.031857
1098.341, 2.189491
1098.823, 2.093231
1099.305, 1.957354
1099.787, 1.801760
1100.269, 1.643707
1100.751, 1.370424
1101.233, 1.198629
1101.715, 1.315123
1102.198, 1.520113
1102.680, 1.608620
1103.162, 1.597450
1103.644, 1.596855
1104.126, 1.590694
1104.608, 1.699305
1105.090, 2.142344
1105.572, 2.445547
1106.054, 2.315023
1106.537, 2.097454
1107.019, 2.074999
1107.501, 2.186419
1107.983, 2.257408
1108.465, 2.265114
1108.947, 2.279169
1109.429, 2.343582
1109.911, 2.344677
1110.394, 2.128431
1110.876, 2.013128
1111.358, 2.300070
1111.840, 2.742651
1112.322, 2.927624
1112.804, 2.837599
1113.286, 2.739111
1113.768, 2.731236
1114.250, 2.546053
1114.733, 1.931295
1115.215, 1.458031
1115.697, 1.426727
1116.179, 1.604589
1116.661, 1.760094
1117.143, 1.889631
1117.625, 1.968613
1118.107, 2.018024
1118.589, 1.944849
1119.072, 1.669346
1119.554, 1.458874
1120.036, 1.457432
1120.518, 1.441212
1121.000, 1.161512
1121.482, 0.7601830
1121.964, 0.6817260
1122.446, 1.004240
1122.929, 1.180056
1123.411, 1.203434
1123.893, 1.065090
1124.375, 0.6737170
1124.857, 0.4129350
1125.339, 0.5946980
1125.821, 0.8916700
1126.303, 0.6657830
1126.786, 2.5165999E-02
1127.268, 1.6027000E-02
1127.750, 0.9291110
1128.232, 1.230093
1128.714, 0.5864850
1129.196, 0.2046830
1129.678, 0.6713770
1130.160, 1.354925
1130.642, 1.564610
1131.125, 1.366613
1131.607, 0.8646470
1132.089, 9.4127998E-02
1132.571, 0.1857950
1133.053, 5.7700999E-02
1133.535, 0.1648250
1134.017, 6.5183997E-02
1134.499, 0.2296940
1134.981, 4.8750001E-03
1135.464, 0.3796650
1135.946, 0.3867990
1136.428, 0.1361900
1136.910, 3.0586001E-02
1137.392, 6.5071002E-02
1137.874, 0.2255480
1138.356, 0.4803050
1138.838, 0.6288910
1139.321, 0.5684950
1139.803, 0.5091670
1140.285, 0.7675150
1140.767, 1.110674
1141.249, 1.048782
1141.731, 0.7536430
1142.213, 0.6457080
1142.695, 0.6814690
1143.177, 0.4831200
1143.660, 2.1617999E-02
1144.142, 0.3697740
1144.624, 0.1822410
1145.106, 0.1656570
1145.588, 0.2643490
1146.070, 0.3108620
1146.552, 0.6737820
1147.034, 1.119051
1147.516, 1.120956
1147.999, 0.7108780
1148.481, 0.4254630
1148.963, 0.5124840
1149.445, 0.6081700
1149.927, 0.4396380
1150.409, 0.2451590
1150.891, 0.1334340
1151.373, 0.1383930
1151.856, 0.4547880
1152.338, 0.8655930
1152.820, 0.8006820
1153.302, 0.1451530
1153.784, 0.2447590
1154.266, 0.2558100
1154.748, 0.5844760
1155.230, 1.9090000E-03
1155.713, 0.4311920
1156.195, 0.3036630
1156.677, 1.344425
1157.159, 1.468382
1157.641, 0.7516560
1158.123, 0.2418520
1158.605, 1.9993000E-02
1159.087, 3.6591001E-02
1159.569, 0.4923900
1160.052, 0.9109940
1160.534, 1.259809
1161.016, 1.424900
1161.498, 1.247303
1161.980, 0.8651280
1162.462, 0.5516340
1162.944, 0.2917160
1163.426, 0.2724190
1163.908, 0.5936830
1164.391, 0.8758580
1164.873, 1.091261
1165.355, 1.196337
1165.837, 1.167593
1166.319, 1.005415
1166.801, 0.6476000
1167.283, 0.2212540
1167.765, 0.3356950
1168.247, 1.019306
1168.730, 1.382153
1169.212, 1.367544
1169.694, 1.255199
1170.176, 1.152523
1170.658, 1.129930
1171.140, 1.243521
1171.622, 1.413803
1172.104, 1.576948
1172.587, 1.669313
1173.069, 1.369627
1173.551, 0.8131260
1174.033, 0.4752960
1174.515, 0.4173090
1174.997, 0.6543480
1175.479, 1.154192
1175.961, 1.471140
1176.443, 1.128632
1176.926, 0.6767430
1177.408, 0.8939190
1177.890, 1.367895
1178.372, 1.464382
1178.854, 1.356039
1179.336, 1.556288
1179.818, 2.016291
1180.300, 2.107103
1180.782, 1.508724
1181.265, 1.026482
1181.747, 1.388390
1182.229, 1.740946
1182.711, 1.352028
1183.193, 0.8440720
1183.675, 0.9812600
1184.157, 1.395390
1184.639, 1.176737
1185.122, 0.2605570
1185.604, 0.1576730
1186.086, 0.5627310
1186.568, 1.202450
1187.050, 1.655838
1187.532, 1.839619
1188.014, 1.480686
1188.496, 1.060318
1188.979, 1.006014
1189.461, 1.240658
1189.943, 1.598400
1190.425, 2.168934
1190.907, 2.241383
1191.389, 1.508121
1191.871, 1.115129
1192.353, 1.359377
1192.835, 1.624182
1193.318, 1.583712
1193.800, 1.378057
1194.282, 1.160576
1194.764, 0.9692570
1195.246, 0.8215240
1195.728, 0.6822300
1196.210, 0.9098170
1196.692, 1.483681
1197.174, 1.506376
1197.657, 0.7884430
1198.139, 0.1516550
1198.621, 0.1082570
1199.103, 0.3615760
1199.585, 0.6159860
1200.067, 0.8148690
1200.549, 0.8084870
1201.031, 0.6741680
1201.514, 0.5259040
1201.996, 0.3989790
1202.478, 0.4574790
1202.960, 0.7061310
1203.442, 0.9093700
1203.924, 0.9214990
1204.406, 0.8980770
1204.888, 0.9959320
1205.370, 1.061907
1205.853, 0.9066910
1206.335, 0.6911160
1206.817, 0.6009480
1207.299, 0.6265600
1207.781, 0.6965030
1208.263, 0.7993680
1208.745, 0.8841080
1209.227, 0.9299430
1209.709, 0.9696060
1210.192, 0.9315130
1210.674, 0.9798450
1211.156, 1.340267
1211.638, 1.684158
1212.120, 1.719311
1212.602, 1.493025
1213.084, 1.225225
1213.566, 0.8608130
1214.049, 0.6456340
1214.531, 0.5722060
1215.013, 0.5365470
1215.495, 0.5143570
1215.977, 0.5571440
1216.459, 0.6978000
1216.941, 0.8963530
1217.423, 1.118992
1217.906, 1.328798
1218.388, 1.391853
1218.870, 1.338615
1219.352, 1.361538
1219.834, 1.427902
1220.316, 1.256577
1220.798, 0.8355790
1221.280, 0.5219520
1221.762, 0.5080640
1222.245, 0.6597120
1222.727, 0.9835360
1223.209, 1.254168
1223.691, 1.152189
1224.173, 0.9017090
1224.655, 0.8393690
1225.137, 0.8433070
1225.619, 0.4763260
1226.101, 0.1899470
1226.584, 0.3073940
1227.066, 0.6691610
1227.548, 1.495956
1228.030, 1.759047
1228.512, 1.775545
1228.994, 1.580250
1229.476, 1.283669
1229.958, 0.8836420
1230.441, 0.4834000
1230.923, 0.2584880
1231.405, 0.2051030
1231.887, 0.2045080
1232.369, 0.1995370
1232.851, 0.4654880
1233.333, 1.147078
1233.815, 1.625992
1234.297, 1.705664
1234.780, 1.565933
1235.262, 1.295511
1235.744, 1.017706
1236.226, 0.8532430
1236.708, 0.8051470
1237.190, 0.9455680
1237.672, 1.212891
1238.154, 1.363390
1238.636, 1.363581
1239.119, 1.116890
1239.601, 0.6595080
1240.083, 0.4434780
1240.565, 0.8082290
1241.047, 1.232862
1241.529, 1.214577
1242.011, 1.014219
1242.493, 0.8255350
1242.975, 0.6278650
1243.458, 0.2866100
1243.940, 4.7141999E-02
1244.422, 5.2731000E-02
1244.904, 0.3052620
1245.386, 0.7436640
1245.868, 1.402807
1246.350, 1.739637
1246.832, 1.489700
1247.315, 1.130064
1247.797, 0.6062620
1248.279, 0.2982850
1248.761, 0.6094610
1249.243, 1.175241
1249.725, 1.327929
1250.207, 1.091753
1250.689, 0.9033110
1251.172, 0.7780000
1251.654, 0.4105430
1252.136, 0.2454280
1252.618, 0.4317190
1253.100, 7.4381001E-02
1253.582, 0.7009530
1254.064, 1.056553
1254.546, 1.231573
1255.028, 1.319298
1255.510, 1.242800
1255.993, 1.133945
1256.475, 0.9870610
1256.957, 0.9419060
1257.439, 0.9960250
1257.921, 1.138090
1258.403, 1.341938
1258.885, 1.488979
1259.367, 1.525553
1259.850, 1.459160
1260.332, 1.208933
1260.814, 0.9691870
1261.296, 0.7267320
1261.778, 0.6361310
1262.260, 0.9954700
1262.742, 1.478247
1263.224, 1.514513
1263.707, 1.159618
1264.189, 0.8673150
1264.671, 0.6928200
1265.153, 0.5700550
1265.635, 0.4350950
1266.117, 0.4453600
1266.599, 0.6531580
1267.081, 0.8726270
1267.563, 0.9863660
1268.046, 1.004032
1268.528, 0.6990720
1269.010, 0.5660690
1269.492, 0.6222590
1269.974, 0.8008920
1270.456, 1.070656
1270.938, 1.341852
1271.420, 1.369753
1271.902, 1.172180
1272.385, 0.9898010
1272.867, 0.9142170
1273.349, 0.8069040
1273.831, 0.4039610
1274.313, 0.2099910
1274.795, 0.7139380
1275.277, 1.228296
1275.759, 1.272648
1276.242, 1.137642
1276.724, 1.229681
1277.206, 1.449594
1277.688, 1.474365
1278.170, 1.294409
1278.652, 0.9776250
1279.134, 0.4326990
1279.616, 6.7828998E-02
1280.099, 4.3081000E-02
1280.581, 1.8704999E-02
1281.063, 0.2366050
1281.545, 0.5505310
1282.027, 0.8936000
1282.509, 0.9272710
1282.991, 0.8220620
1283.473, 0.4553970
1283.955, 0.0000000E+00
##END=



