##NAMES=Lollingite
##RRUFFID=R060668
##IDEAL CHEMISTRY=FeAs_2_
##LOCALITY=Aghbar near Bou-Azzer, Morocco
##OWNER=RRUFF
##SOURCE=Michael Scott
##DESCRIPTION=Gray metallic spears radiating in spherical aggregates, associated with arsenopyrite and skutterudite
##STATUS=The identification of this mineral is confirmed by single-crystal X-ray diffraction and chemical analysis.
##URL=rruff.info/R060668
##MEASURED CHEMISTRY=(Fe_0.80_Co_0.20_)_Σ=1_(As_1.85_S_0.15_)_Σ=2_
94.93475, 0.0000000E+00
95.41687, 1.350769
95.89898, 2.908997
96.38110, 5.345337
96.86321, 8.038635
97.34533, 9.149841
97.82745, 6.097534
98.30956, 3.366638
98.79168, 1.964722
99.27380, 5.039368
99.75591, 6.833984
100.2380, 8.945313
100.7201, 10.37732
101.2023, 10.59528
101.6844, 9.726624
102.1665, 7.629028
102.6486, 2.779541
103.1307, 0.6386720
103.6128, 0.8102420
104.0950, 2.019043
104.5771, 5.612610
105.0592, 7.525696
105.5413, 8.545044
106.0234, 9.759644
106.5055, 11.86572
106.9877, 14.75055
107.4698, 17.59802
107.9519, 21.06281
108.4340, 23.28760
108.9161, 24.23376
109.3982, 23.94595
109.8804, 21.84082
110.3625, 16.61682
110.8446, 7.387939
111.3267, 1.748749
111.8088, 1.605927
112.2909, 2.630402
112.7731, 3.041473
113.2552, 2.586853
113.7373, 1.919678
114.2194, 1.928528
114.7015, 3.233368
115.1836, 4.273621
115.6658, 4.826965
116.1479, 5.204651
116.6300, 5.578125
117.1121, 5.945251
117.5942, 6.176453
118.0763, 5.967499
118.5584, 5.416809
119.0406, 4.579834
119.5227, 3.080048
120.0048, 1.226135
120.4869, 0.1387330
120.9690, 0.6369320
121.4511, 0.1757200
121.9333, 0.7557680
122.4154, 2.307526
122.8975, 4.438904
123.3796, 7.406067
123.8617, 10.88901
124.3438, 13.58066
124.8260, 15.49741
125.3081, 16.48480
125.7902, 16.03662
126.2723, 13.63705
126.7544, 10.40912
127.2365, 8.693176
127.7187, 9.217072
128.2008, 10.13510
128.6829, 10.96573
129.1650, 11.73877
129.6471, 12.52982
130.1292, 13.42465
130.6114, 14.38748
131.0935, 14.89758
131.5756, 14.42279
132.0577, 13.92261
132.5398, 13.76526
133.0219, 13.79996
133.5041, 13.63547
133.9862, 12.87491
134.4683, 11.32065
134.9504, 10.80957
135.4325, 12.29260
135.9146, 13.82126
136.3968, 14.08588
136.8789, 13.04004
137.3610, 11.73172
137.8431, 11.37140
138.3252, 12.16330
138.8073, 13.08206
139.2895, 14.35135
139.7716, 15.59433
140.2537, 16.45276
140.7358, 16.89969
141.2179, 16.82135
141.7000, 15.83932
142.1821, 14.04578
142.6643, 12.19614
143.1464, 10.49496
143.6285, 8.956909
144.1106, 7.628815
144.5927, 6.540497
145.0748, 5.704926
145.5570, 5.177765
146.0391, 4.964447
146.5212, 4.692169
147.0033, 3.882111
147.4854, 2.437378
147.9675, 1.447571
148.4497, 1.734253
148.9318, 2.137695
149.4139, 2.052734
149.8960, 1.379425
150.3781, 0.2995300
150.8602, 0.9621890
151.3424, 2.584900
151.8245, 3.993652
152.3066, 5.206299
152.7887, 4.371582
153.2708, 3.447388
153.7529, 2.416077
154.2351, 1.296967
154.7172, 0.1557310
155.1993, 0.6744080
155.6814, 2.007050
156.1635, 4.686401
156.6456, 7.655579
157.1278, 9.576752
157.6099, 9.771271
158.0920, 8.668457
158.5741, 8.029205
159.0562, 8.132690
159.5383, 8.292664
160.0205, 8.234497
160.5026, 8.066864
160.9847, 8.096130
161.4668, 8.715546
161.9489, 9.867004
162.4310, 10.67334
162.9131, 10.96313
163.3953, 11.06961
163.8774, 11.14349
164.3595, 11.19455
164.8416, 11.27020
165.3237, 11.46722
165.8058, 11.68445
166.2880, 11.68036
166.7701, 11.12830
167.2522, 10.57803
167.7343, 10.80859
168.2164, 12.00092
168.6985, 13.00806
169.1807, 12.80652
169.6628, 12.17545
170.1449, 12.03583
170.6270, 12.90158
171.1091, 14.33395
171.5912, 15.42197
172.0734, 16.29193
172.5555, 16.56808
173.0376, 15.76462
173.5197, 14.42822
174.0018, 13.33118
174.4839, 12.95743
174.9661, 13.19783
175.4482, 13.40279
175.9303, 13.51286
176.4124, 13.64580
176.8945, 13.82925
177.3766, 14.04498
177.8588, 14.26801
178.3409, 14.47766
178.8230, 14.70103
179.3051, 14.90689
179.7872, 15.10683
180.2693, 15.30397
180.7515, 15.61494
181.2336, 15.92371
181.7157, 15.94354
182.1978, 15.37344
182.6799, 14.10181
183.1620, 13.35876
183.6441, 13.26540
184.1263, 13.42416
184.6084, 13.80878
185.0905, 14.34254
185.5726, 14.77359
186.0547, 14.84033
186.5368, 14.47836
187.0190, 14.17110
187.5011, 13.88147
187.9832, 13.67778
188.4653, 13.65967
188.9474, 13.82547
189.4296, 13.99861
189.9117, 13.97705
190.3938, 13.77481
190.8759, 13.70856
191.3580, 13.81082
191.8401, 14.06311
192.3223, 14.49475
192.8044, 15.15089
193.2865, 15.84166
193.7686, 16.41341
194.2507, 16.86531
194.7328, 17.13568
195.2150, 17.18388
195.6971, 17.04195
196.1792, 16.68950
196.6613, 15.95992
197.1434, 15.38138
197.6255, 15.43393
198.1077, 15.93222
198.5898, 16.44424
199.0719, 16.80560
199.5540, 17.00674
200.0361, 17.00101
200.5182, 16.66028
201.0004, 16.27397
201.4825, 15.81197
201.9646, 15.40582
202.4467, 15.39294
202.9288, 16.27141
203.4109, 17.95804
203.8930, 18.92816
204.3752, 18.51375
204.8573, 18.01190
205.3394, 17.95786
205.8215, 18.22437
206.3036, 18.45393
206.7857, 18.32372
207.2679, 17.80609
207.7500, 17.29420
208.2321, 16.54622
208.7142, 15.94341
209.1963, 15.69678
209.6784, 15.72833
210.1606, 15.80505
210.6427, 15.85306
211.1248, 15.89082
211.6069, 15.77194
212.0890, 15.16898
212.5711, 14.74826
213.0533, 14.92377
213.5354, 15.52702
214.0175, 16.00955
214.4996, 15.82074
214.9817, 14.78752
215.4638, 14.22272
215.9460, 14.39961
216.4281, 14.67157
216.9102, 14.70026
217.3923, 14.50764
217.8744, 14.34264
218.3565, 14.45245
218.8387, 14.88858
219.3208, 15.17931
219.8029, 15.23082
220.2850, 15.23241
220.7671, 15.35219
221.2492, 15.56897
221.7314, 15.64795
222.2135, 15.29742
222.6956, 14.49889
223.1777, 14.21143
223.6598, 14.97247
224.1419, 15.84367
224.6240, 16.01836
225.1062, 15.48326
225.5883, 14.93338
226.0704, 14.92972
226.5525, 15.44664
227.0346, 16.01407
227.5167, 16.70535
227.9989, 17.35942
228.4810, 17.81598
228.9631, 18.06906
229.4452, 18.24263
229.9273, 18.38074
230.4094, 18.50516
230.8916, 18.67549
231.3737, 18.89131
231.8558, 19.16190
232.3379, 19.53676
232.8200, 20.03882
233.3021, 20.49574
233.7843, 20.68649
234.2664, 20.79163
234.7485, 21.08186
235.2306, 21.62025
235.7127, 22.33452
236.1948, 23.19891
236.6770, 24.28317
237.1591, 25.25638
237.6412, 25.92259
238.1233, 26.38243
238.6054, 26.70189
239.0875, 26.82718
239.5697, 26.92627
240.0518, 27.29420
240.5339, 28.01189
241.0160, 28.73763
241.4981, 29.60326
241.9802, 30.30824
242.4624, 30.47954
242.9445, 29.92650
243.4266, 28.98622
243.9087, 28.27875
244.3908, 27.99146
244.8729, 27.41019
245.3550, 25.91078
245.8372, 24.27335
246.3193, 23.26709
246.8014, 23.18672
247.2835, 23.48100
247.7656, 23.19760
248.2477, 22.22467
248.7299, 20.85744
249.2120, 18.61992
249.6941, 16.38437
250.1762, 14.88780
250.6583, 14.34869
251.1404, 14.34616
251.6226, 14.20042
252.1047, 13.91223
252.5868, 13.44640
253.0689, 12.53072
253.5510, 11.63901
254.0331, 11.16902
254.5153, 11.19704
254.9974, 11.41905
255.4795, 11.36299
255.9616, 10.87538
256.4437, 10.44447
256.9258, 9.967392
257.4080, 9.615417
257.8901, 9.614456
258.3722, 9.948151
258.8543, 10.29497
259.3364, 10.15933
259.8185, 9.137711
260.3007, 8.682358
260.7828, 9.251648
261.2649, 9.934433
261.7470, 10.10966
262.2291, 9.714767
262.7112, 9.139648
263.1934, 8.831345
263.6755, 8.930313
264.1576, 8.778229
264.6397, 8.181763
265.1218, 7.543091
265.6039, 7.099716
266.0861, 6.847763
266.5682, 6.625717
267.0503, 6.265335
267.5324, 5.725449
268.0145, 5.344772
268.4966, 5.289551
268.9788, 5.209076
269.4609, 4.871033
269.9430, 4.328522
270.4251, 3.841354
270.9072, 3.658188
271.3893, 3.804947
271.8715, 3.585907
272.3536, 2.654602
272.8357, 1.772232
273.3178, 1.264633
273.7999, 1.084152
274.2820, 1.051636
274.7642, 1.062714
275.2463, 1.110535
275.7284, 1.101761
276.2105, 0.9719540
276.6926, 0.8715970
277.1747, 0.8619690
277.6568, 0.9172820
278.1389, 0.9931490
278.6211, 1.077393
279.1032, 1.151123
279.5853, 1.111938
280.0674, 0.8833010
280.5495, 0.6520230
281.0316, 0.4319150
281.5138, 0.2552340
281.9959, 0.2062530
282.4780, 0.3388370
282.9601, 0.5336610
283.4422, 0.4575200
283.9243, 8.9736998E-02
284.4065, 0.4775850
284.8886, 0.5323490
285.3707, 0.3631900
285.8528, 8.8927999E-02
286.3349, 0.2693330
286.8170, 0.6206820
287.2992, 0.7985840
287.7813, 0.7693630
288.2634, 0.7054600
288.7455, 0.5884550
289.2276, 0.4707640
289.7097, 0.4713750
290.1919, 0.6255490
290.6740, 0.7211910
291.1561, 0.3931430
291.6382, 0.4588780
292.1203, 0.8946990
292.6024, 0.4281310
293.0846, 0.2736360
293.5667, 0.5154880
294.0488, 0.2139740
294.5309, 0.1799320
295.0130, 0.2535250
295.4951, 7.3090000E-03
295.9773, 0.2135160
296.4594, 0.3742370
296.9415, 0.4711000
297.4236, 0.4441990
297.9057, 0.3159480
298.3878, 0.2236630
298.8700, 0.2670140
299.3521, 0.4438480
299.8342, 0.6261600
300.3163, 0.9529570
300.7984, 1.164597
301.2805, 1.022079
301.7627, 0.5988920
302.2448, 0.2383420
302.7269, 0.1639100
303.2090, 0.2582400
303.6911, 0.1518710
304.1732, 0.3501130
304.6554, 0.7466130
305.1375, 0.7083280
305.6196, 0.3673710
306.1017, 5.0919000E-02
306.5838, 0.1461640
307.0659, 0.2151640
307.5481, 9.6221998E-02
308.0302, 0.2698670
308.5123, 0.5676880
308.9944, 0.6620480
309.4765, 0.6280820
309.9586, 0.5732270
310.4408, 0.5187070
310.9229, 0.4696200
311.4050, 0.4514010
311.8871, 0.4719540
312.3692, 0.4198460
312.8513, 0.2206730
313.3335, 4.0603999E-02
313.8156, 0.2998960
314.2977, 0.5390630
314.7798, 0.6717380
315.2619, 0.5635830
315.7440, 0.2480010
316.2262, 0.1801150
316.7083, 0.6926880
317.1904, 1.150925
317.6725, 0.9473110
318.1546, 0.1412660
318.6367, 0.5196380
319.1188, 0.4820400
319.6010, 0.1168060
320.0831, 0.4851680
320.5652, 0.4400180
321.0473, 0.3619690
321.5294, 0.4946290
322.0115, 0.7820130
322.4937, 1.016739
322.9758, 1.095276
323.4579, 1.065063
323.9400, 1.051270
324.4221, 1.051544
324.9042, 1.058731
325.3864, 1.077835
325.8685, 1.106506
326.3506, 1.134308
326.8327, 1.106064
327.3148, 1.082016
327.7969, 1.235825
328.2791, 1.625519
328.7612, 1.864334
329.2433, 1.838287
329.7254, 1.659027
330.2075, 1.349655
330.6896, 0.8819580
331.1718, 0.5249630
331.6539, 0.6045680
332.1360, 1.168121
332.6181, 1.528473
333.1002, 1.563309
333.5823, 1.450287
334.0645, 1.223495
334.5466, 0.9289090
335.0287, 0.7841950
335.5108, 0.9860380
335.9929, 1.470978
336.4750, 1.757843
336.9572, 1.878693
337.4393, 1.798294
337.9214, 1.319382
338.4035, 0.6301730
338.8856, 0.1698000
339.3677, 0.1108090
339.8499, 0.3342900
340.3320, 0.6245570
340.8141, 1.092667
341.2962, 1.431808
341.7783, 1.486740
342.2604, 1.413101
342.7426, 1.424911
343.2247, 1.585144
343.7068, 1.803452
344.1889, 1.976730
344.6710, 2.148819
345.1531, 2.065765
345.6353, 1.423630
346.1174, 0.7414400
346.5995, 0.4473880
347.0816, 0.5665280
347.5637, 0.8394170
348.0458, 0.9983830
348.5280, 0.9929660
349.0101, 1.027802
349.4922, 1.167877
349.9743, 1.279205
350.4564, 1.372452
350.9385, 1.409439
351.4207, 1.278687
351.9028, 0.8890380
352.3849, 0.3504790
352.8670, 0.1379550
353.3491, 0.7406920
353.8312, 1.063263
354.3134, 0.7156520
354.7955, 0.1274410
355.2776, 0.2207790
355.7597, 0.1621550
356.2418, 0.1751860
356.7239, 0.6049190
357.2061, 1.322784
357.6882, 1.726166
358.1703, 1.718048
358.6524, 1.482224
359.1345, 1.014359
359.6166, 0.3941960
360.0987, 0.1306150
360.5808, 0.3519440
361.0630, 0.2772220
361.5451, 9.0590999E-02
362.0272, 0.3977510
362.5093, 0.7749630
362.9914, 0.9182430
363.4735, 0.8749690
363.9557, 0.7053830
364.4378, 0.4265140
364.9199, 9.0561002E-02
365.4020, 7.4509002E-02
365.8841, 2.1317000E-02
366.3662, 0.1769260
366.8484, 0.4250030
367.3305, 0.6863100
367.8126, 0.8811040
368.2947, 0.9839020
368.7768, 1.026260
369.2589, 1.075226
369.7411, 1.199341
370.2232, 1.132736
370.7053, 0.5749820
371.1874, 8.1375003E-02
371.6695, 5.5588000E-02
372.1516, 0.4157100
372.6338, 0.6907500
373.1159, 0.3528440
373.5980, 0.5644840
374.0801, 0.8974910
374.5622, 0.1183170
375.0443, 0.6294400
375.5265, 0.9349980
376.0086, 0.9667210
376.4907, 1.005142
376.9728, 1.240540
377.4549, 1.526962
377.9370, 1.432144
378.4192, 0.7829900
378.9013, 0.2427370
379.3834, 1.2970000E-02
379.8655, 5.1453002E-02
380.3476, 5.2567001E-02
380.8297, 3.9059999E-03
381.3119, 0.1469730
381.7940, 0.5847780
382.2761, 1.307648
382.7582, 1.540253
383.2403, 0.7196040
383.7224, 5.7983000E-02
384.2046, 9.3062997E-02
384.6867, 0.9385680
385.1688, 1.614365
385.6509, 1.548416
386.1330, 1.009369
386.6151, 0.5327450
387.0973, 6.4560004E-02
387.5794, 0.1357880
388.0615, 0.4053650
388.5436, 1.217682
389.0257, 1.581085
389.5078, 1.127808
389.9900, 0.6293950
390.4721, 0.9291840
390.9542, 1.901276
391.4363, 2.518738
391.9184, 2.327744
392.4005, 1.776627
392.8827, 1.490433
393.3648, 1.482269
393.8469, 1.494110
394.3290, 1.509399
394.8111, 1.457001
395.2932, 1.116104
395.7754, 0.4129330
396.2575, 0.1490170
396.7396, 2.0676000E-02
397.2217, 0.7346340
397.7038, 1.210159
398.1859, 1.237030
398.6681, 1.088959
399.1501, 0.8624270
399.6323, 0.5940250
400.1144, 0.3874050
400.5965, 0.2905120
401.0786, 0.2970730
401.5607, 0.4073030
402.0428, 0.6771090
402.5250, 0.9280850
403.0071, 1.280838
403.4892, 1.532166
403.9713, 1.303482
404.4534, 0.5511630
404.9355, 0.2074130
405.4177, 0.3297880
405.8998, 0.3700560
406.3819, 0.7964630
406.8640, 0.7343290
407.3461, 0.6413570
407.8282, 0.7910000
408.3104, 1.099930
408.7925, 1.306976
409.2746, 1.237610
409.7567, 0.9638980
410.2388, 0.8234410
410.7209, 0.9969330
411.2031, 1.078888
411.6852, 0.9350280
412.1673, 0.7295230
412.6494, 0.6333310
413.1315, 0.6768800
413.6136, 0.7586980
414.0958, 0.6820220
414.5779, 0.3150790
415.0600, 0.2818150
415.5421, 1.203201
416.0242, 1.876953
416.5063, 1.628372
416.9885, 0.7373500
417.4706, 8.8454999E-02
417.9527, 0.4450070
418.4348, 0.3894040
418.9169, 7.5057998E-02
419.3990, 0.6724090
419.8812, 1.316544
420.3633, 1.651764
420.8454, 1.810730
421.3275, 1.917007
421.8096, 2.001801
422.2917, 1.971634
422.7739, 1.576248
423.2560, 0.8526310
423.7381, 0.5594790
424.2202, 1.048355
424.7023, 1.670380
425.1844, 1.963486
425.6666, 1.970261
426.1487, 1.839996
426.6308, 1.474136
427.1129, 1.078812
427.5950, 0.9886020
428.0771, 1.215897
428.5593, 1.536331
429.0414, 1.936829
429.5235, 2.293015
430.0056, 2.320328
430.4877, 1.810150
430.9698, 1.412109
431.4520, 1.593689
431.9341, 2.076385
432.4162, 2.253326
432.8983, 1.905121
433.3804, 1.457626
433.8625, 1.491608
434.3447, 2.105759
434.8268, 2.338882
435.3089, 1.744568
435.7910, 1.111038
436.2731, 1.065613
436.7552, 1.455582
437.2374, 1.660995
437.7195, 1.288010
438.2016, 0.5480350
438.6837, 0.2461550
439.1658, 0.9145660
439.6479, 1.358932
440.1301, 1.317734
440.6122, 1.107742
441.0943, 1.008469
441.5764, 1.060822
442.0585, 1.213837
442.5406, 1.408813
443.0227, 1.662827
443.5049, 1.711838
443.9870, 1.299545
444.4691, 0.9404450
444.9512, 0.7841190
445.4333, 0.7847290
445.9154, 0.8715520
446.3976, 0.9761510
446.8797, 1.118500
447.3618, 1.412735
447.8439, 1.995361
448.3260, 2.316559
448.8081, 2.021317
449.2903, 1.612610
449.7724, 1.360229
450.2545, 1.294983
450.7366, 1.357330
451.2187, 1.580765
451.7008, 1.910233
452.1830, 2.083176
452.6651, 2.024719
453.1472, 1.979568
453.6293, 2.211731
454.1114, 2.494186
454.5935, 2.503860
455.0757, 2.038528
455.5578, 1.567261
456.0399, 1.593521
456.5220, 1.985916
457.0041, 2.138519
457.4862, 1.812943
457.9684, 1.322433
458.4505, 1.021439
458.9326, 0.8942870
459.4147, 1.016876
459.8968, 1.723755
460.3789, 2.460648
460.8611, 2.687256
461.3432, 2.449493
461.8253, 2.165329
462.3074, 2.075378
462.7895, 2.109512
463.2716, 2.087799
463.7538, 1.968201
464.2359, 1.923935
464.7180, 2.087799
465.2001, 2.257797
465.6822, 2.170517
466.1643, 1.811676
466.6465, 1.454437
467.1286, 1.405701
467.6107, 1.718643
468.0928, 1.861267
468.5749, 1.520737
469.0570, 1.352310
469.5392, 1.764496
470.0213, 2.392838
470.5034, 2.669510
470.9855, 2.338181
471.4676, 1.696075
471.9497, 1.227692
472.4319, 0.9369510
472.9140, 0.8288120
473.3961, 1.025131
473.8782, 1.314621
474.3603, 1.610519
474.8424, 1.890976
475.3246, 2.113419
475.8067, 2.335693
476.2888, 2.498672
476.7709, 2.331406
477.2530, 1.761017
477.7351, 1.394669
478.2173, 1.753967
478.6994, 2.356201
479.1815, 2.383453
479.6636, 1.631256
480.1457, 0.9445340
480.6278, 0.7381440
481.1100, 0.8787230
481.5920, 1.200851
482.0742, 1.718079
482.5563, 2.177826
483.0384, 2.333359
483.5205, 2.183838
484.0026, 2.107727
484.4847, 2.093414
484.9669, 2.154755
485.4490, 2.375336
485.9311, 2.665146
486.4132, 2.867004
486.8953, 2.923004
487.3774, 2.872208
487.8596, 2.774963
488.3417, 2.614487
488.8238, 2.444016
489.3059, 2.179367
489.7880, 1.998917
490.2701, 2.050385
490.7523, 2.246826
491.2344, 2.380249
491.7165, 2.322586
492.1986, 2.140991
492.6807, 2.002228
493.1628, 1.903809
493.6450, 1.848969
494.1271, 1.883652
494.6092, 1.941208
495.0913, 2.003464
495.5734, 2.054977
496.0555, 2.022385
496.5377, 1.839386
497.0198, 1.564392
497.5019, 1.220734
497.9840, 0.7383270
498.4661, 0.5236210
498.9482, 1.057953
499.4304, 1.909653
499.9125, 2.215134
500.3946, 1.722137
500.8767, 1.198792
501.3588, 1.067261
501.8409, 1.146439
502.3231, 1.065521
502.8052, 0.7469180
503.2873, 0.5066680
503.7694, 0.6942750
504.2515, 1.331985
504.7336, 1.679291
505.2158, 1.553436
505.6979, 1.379044
506.1800, 1.285263
506.6621, 1.246445
507.1442, 1.217148
507.6263, 1.178787
508.1085, 1.125122
508.5906, 1.033966
509.0727, 0.8660280
509.5548, 0.8061680
510.0369, 0.9830470
510.5190, 1.137833
511.0012, 1.144730
511.4833, 1.060104
511.9654, 0.9845430
512.4475, 0.9504550
512.9296, 1.007706
513.4117, 1.359482
513.8939, 2.095871
514.3760, 2.427155
514.8581, 1.859695
515.3402, 1.155624
515.8223, 0.9969940
516.3044, 1.310211
516.7866, 1.566971
517.2687, 1.469925
517.7508, 1.245239
518.2329, 1.184448
518.7150, 1.280106
519.1971, 1.366547
519.6793, 1.346710
520.1614, 1.295547
520.6435, 1.433029
521.1256, 1.904739
521.6077, 2.111725
522.0898, 1.815430
522.5720, 1.312439
523.0541, 0.6655270
523.5362, 1.2085000E-02
524.0183, 0.1925960
524.5004, 0.4591670
524.9825, 1.727310
525.4647, 2.420151
525.9468, 2.206421
526.4289, 1.845139
526.9110, 1.246536
527.3931, 0.6549990
527.8752, 0.3024290
528.3574, 0.1757050
528.8395, 8.2732998E-02
529.3216, 0.2077790
529.8037, 0.6155240
530.2858, 0.5866090
530.7679, 0.1410680
531.2501, 0.7152100
531.7322, 0.4962460
532.2143, 1.9043000E-02
532.6964, 6.3385002E-02
533.1785, 0.4069520
533.6606, 0.8494570
534.1428, 0.6779790
534.6249, 0.2398990
535.1070, 0.4873500
535.5891, 1.609528
536.0712, 2.500839
536.5533, 2.222031
537.0355, 0.9760130
537.5176, 0.1323850
537.9997, 0.2632750
538.4818, 0.3593900
538.9639, 2.4307000E-02
539.4460, 0.5798030
539.9282, 0.9330750
540.4103, 1.007751
540.8924, 0.9439240
541.3745, 0.8592530
541.8566, 0.7470860
542.3387, 0.8127590
542.8209, 1.383957
543.3029, 1.739746
543.7850, 1.572769
544.2672, 1.197449
544.7493, 1.003960
545.2314, 1.084694
545.7135, 1.165443
546.1956, 0.8270190
546.6777, 0.1435010
547.1599, 5.6373999E-02
547.6420, 0.4452510
548.1241, 0.9789280
548.6062, 1.139847
549.0883, 1.066925
549.5704, 0.9336090
550.0526, 0.6867830
550.5347, 0.5610580
551.0168, 0.8585050
551.4989, 1.357353
551.9810, 1.507584
552.4631, 1.180359
552.9453, 0.8848570
553.4274, 1.159073
553.9095, 2.007133
554.3916, 2.424973
554.8737, 2.149582
555.3558, 1.828362
555.8380, 1.551346
556.3201, 1.373009
556.8022, 1.416306
557.2843, 1.627731
557.7664, 1.839119
558.2485, 1.829346
558.7307, 1.591454
559.2128, 1.338158
559.6949, 0.9494480
560.1770, 0.7392120
560.6591, 0.8692470
561.1412, 1.176918
561.6234, 1.529785
562.1055, 1.914162
562.5876, 2.112999
563.0697, 1.793037
563.5518, 1.127419
564.0339, 0.6917720
564.5161, 0.5619810
564.9982, 0.6059270
565.4803, 0.7862010
565.9624, 1.066704
566.4445, 1.275871
566.9266, 1.427101
567.4088, 1.491714
567.8909, 1.314293
568.3730, 1.110336
568.8551, 1.266846
569.3372, 1.791862
569.8193, 2.201759
570.3015, 1.989685
570.7836, 1.205040
571.2657, 0.8015670
571.7478, 1.172333
572.2299, 1.404465
572.7120, 1.229691
573.1942, 0.9393540
573.6763, 0.8328630
574.1584, 0.9411320
574.6405, 1.041466
575.1226, 0.8608550
575.6047, 0.5004960
576.0869, 0.4023590
576.5690, 0.6127780
577.0511, 0.9120480
577.5332, 1.313019
578.0153, 1.660240
578.4974, 1.687920
578.9796, 1.324005
579.4617, 0.9506300
579.9438, 0.7228930
580.4259, 0.5526500
580.9080, 0.3007970
581.3901, 1.9424001E-02
581.8723, 0.2517550
582.3544, 0.2802280
582.8365, 0.1406170
583.3186, 7.9696998E-02
583.8007, 0.6422880
584.2828, 0.8743130
584.7650, 0.3683850
585.2471, 0.1173250
585.7292, 5.1994000E-02
586.2113, 0.7134930
586.6934, 1.229393
587.1755, 1.180504
587.6577, 0.7415540
588.1398, 0.2860490
588.6219, 0.2057800
589.1040, 0.3477860
589.5861, 0.2438350
590.0682, 0.8921890
590.5504, 0.8765640
591.0325, 0.3159640
591.5146, 6.6063002E-02
591.9967, 1.8501000E-02
592.4788, 0.3053740
592.9609, 0.6975400
593.4431, 1.118446
593.9252, 1.338234
594.4073, 1.268082
594.8894, 1.038727
595.3715, 0.7993010
595.8536, 0.4906460
596.3358, 0.4227520
596.8179, 0.9021070
597.3000, 1.277390
597.7821, 1.223694
598.2642, 0.9566500
598.7463, 0.8013150
599.2285, 0.8668590
599.7106, 1.005676
600.1927, 1.070717
600.6748, 1.061127
601.1569, 0.9123310
601.6390, 0.5350650
602.1212, 0.2033840
602.6033, 0.1486210
603.0854, 0.2173000
603.5675, 0.1507800
604.0496, 0.1710210
604.5317, 0.3685680
605.0139, 0.1430890
605.4960, 0.2882080
605.9781, 0.6271210
606.4602, 0.8270030
606.9423, 0.8994140
607.4244, 0.8386840
607.9066, 0.6714480
608.3887, 0.5125890
608.8708, 0.2560810
609.3529, 0.1772610
609.8350, 0.4158250
610.3171, 0.7225800
610.7993, 0.9495240
611.2814, 1.084938
611.7635, 1.180565
612.2456, 1.303246
612.7277, 1.349663
613.2098, 0.9503170
613.6920, 2.6497001E-02
614.1741, 0.3811650
614.6562, 0.2502980
615.1383, 1.124657
615.6204, 1.461739
616.1025, 1.335815
616.5847, 1.119766
617.0668, 0.5979460
617.5489, 0.2954410
618.0310, 0.7988130
618.5131, 1.723068
618.9952, 2.303703
619.4774, 2.319611
619.9595, 1.996712
620.4416, 1.547424
620.9237, 0.9383770
621.4058, 0.5308380
621.8879, 0.3720550
622.3701, 0.3891750
622.8522, 0.7830430
623.3343, 1.223175
623.8164, 1.305901
624.2985, 0.9809880
624.7806, 0.6547930
625.2628, 0.7503130
625.7448, 1.083740
626.2269, 1.078796
626.7090, 0.6826780
627.1912, 0.4928590
627.6733, 0.8993070
628.1554, 1.556572
628.6375, 1.761826
629.1196, 1.409920
629.6017, 1.201073
630.0839, 1.068352
630.5660, 1.255791
631.0481, 2.395531
631.5302, 3.958427
632.0123, 4.669472
632.4944, 3.939919
632.9766, 2.477409
633.4587, 1.393692
633.9408, 0.6820530
634.4229, 0.3999710
634.9050, 0.9171070
635.3871, 1.387863
635.8693, 1.362793
636.3514, 1.088760
636.8335, 0.9911420
637.3156, 1.120781
637.7977, 1.281105
638.2798, 1.394928
638.7620, 1.484138
639.2441, 1.519852
639.7262, 1.496826
640.2083, 1.568100
640.6904, 1.884872
641.1725, 2.318199
641.6547, 2.434944
642.1368, 1.870422
642.6189, 1.521301
643.1010, 1.469276
643.5831, 1.514862
644.0652, 1.601448
644.5474, 1.682777
645.0295, 1.689301
645.5116, 1.574585
645.9937, 1.433350
646.4758, 1.343292
646.9579, 1.284317
647.4401, 1.419212
647.9222, 1.890663
648.4043, 2.243820
648.8864, 2.001793
649.3685, 1.350517
649.8506, 0.9105380
650.3328, 0.7531970
650.8149, 0.7840420
651.2970, 1.162758
651.7791, 1.578362
652.2612, 1.632866
652.7433, 1.332382
653.2255, 0.9940410
653.7076, 0.8461610
654.1897, 0.8564530
654.6718, 0.9191440
655.1539, 1.079010
655.6360, 1.200676
656.1182, 1.065941
656.6003, 0.9838030
657.0824, 1.249382
657.5645, 1.742371
658.0466, 2.093956
658.5287, 2.050850
659.0109, 1.904549
659.4930, 1.950424
659.9751, 2.122612
660.4572, 2.281609
660.9393, 2.400230
661.4214, 2.386551
661.9036, 2.101318
662.3857, 1.589455
662.8678, 1.373383
663.3499, 1.850464
663.8320, 2.086342
664.3141, 1.786995
664.7963, 1.380402
665.2784, 1.221611
665.7605, 1.288757
666.2426, 1.323273
666.7247, 1.122421
667.2068, 0.8645170
667.6890, 0.9309080
668.1711, 1.307831
668.6532, 1.557358
669.1353, 1.573303
669.6174, 1.452408
670.0995, 1.193100
670.5817, 0.8363420
671.0638, 0.7524490
671.5459, 1.316956
672.0280, 1.664810
672.5101, 1.362198
672.9922, 0.8638690
673.4744, 0.7041240
673.9565, 0.9193420
674.4386, 1.206879
674.9207, 1.362900
675.4028, 1.370491
675.8849, 1.133217
676.3671, 0.5669400
676.8492, 0.1561740
677.3313, 3.5530001E-02
677.8134, 6.2737003E-02
678.2955, 6.4400002E-02
678.7776, 0.3180540
679.2598, 0.6096420
679.7419, 1.000290
680.2240, 1.323822
680.7061, 1.456581
681.1882, 1.470825
681.6703, 1.491959
682.1525, 1.534584
682.6346, 1.497231
683.1167, 1.271675
683.5988, 0.9333880
684.0809, 0.8711780
684.5630, 1.290749
685.0452, 1.573997
685.5273, 1.525398
686.0094, 1.426003
686.4915, 1.477379
686.9736, 1.606140
687.4557, 1.560287
687.9379, 1.144180
688.4200, 0.7021940
688.9021, 0.5117950
689.3842, 0.5317690
689.8663, 0.7499390
690.3484, 1.154495
690.8306, 1.433838
691.3127, 1.305885
691.7948, 0.8785100
692.2769, 0.7213290
692.7590, 1.335022
693.2411, 1.434685
693.7233, 0.3550190
694.2054, 0.6708220
694.6875, 0.8016970
695.1696, 0.2674480
695.6517, 0.2253800
696.1339, 0.3719560
696.6160, 0.3583370
697.0981, 0.3508530
697.5802, 0.3538360
698.0623, 0.4067150
698.5444, 0.5225680
699.0266, 0.5511550
699.5087, 0.3174670
699.9908, 4.3632999E-02
700.4729, 5.3630001E-03
700.9550, 0.9942550
701.4371, 1.526718
701.9193, 1.307175
702.4014, 0.8795850
702.8835, 0.3673780
703.3656, 7.1381003E-02
703.8477, 0.1806870
704.3298, 0.1793900
704.8120, 0.6316150
705.2941, 0.6562040
705.7762, 0.3542100
706.2583, 0.2875370
706.7404, 0.5610050
707.2225, 0.7429350
707.7046, 0.5172580
708.1867, 7.4638002E-02
708.6688, 9.2009999E-02
709.1509, 0.1161580
709.6331, 0.3309780
710.1152, 0.5352250
710.5973, 0.7329100
711.0794, 1.054459
711.5615, 1.333961
712.0436, 1.177780
712.5258, 0.4577560
713.0079, 0.2533420
713.4900, 0.1049190
713.9721, 0.6723860
714.4542, 0.8249660
714.9363, 0.2113650
715.4185, 0.3340000
715.9006, 0.4334790
716.3827, 0.2525020
716.8648, 3.5500001E-02
717.3469, 0.2271650
717.8290, 0.4657440
718.3112, 0.6917110
718.7933, 0.8659130
719.2754, 0.9695970
719.7575, 1.015930
720.2396, 1.012863
720.7217, 0.9679340
721.2039, 0.9153980
721.6860, 0.9126130
722.1681, 0.9239270
722.6502, 0.7609940
723.1323, 0.3850480
723.6144, 0.1652830
724.0966, 0.2815930
724.5787, 0.5066070
725.0608, 0.5548100
725.5429, 0.4328230
726.0250, 0.4283220
726.5071, 0.7234950
726.9893, 0.9399720
727.4714, 0.8806380
727.9535, 0.7077640
728.4356, 0.5815810
728.9177, 0.5356900
729.3998, 0.5595470
729.8820, 0.6681520
730.3641, 0.7949680
730.8462, 0.7415770
731.3283, 0.4963300
731.8104, 0.4265370
732.2925, 0.7081600
732.7747, 0.9212950
733.2568, 0.6105580
733.7389, 8.1375003E-02
734.2210, 0.3936000
734.7031, 0.1476670
735.1852, 0.1732710
735.6674, 0.4995420
736.1495, 0.8672180
736.6316, 1.466118
737.1137, 2.122063
737.5958, 2.348961
738.0779, 1.881516
738.5601, 1.157806
739.0422, 0.8065190
739.5243, 0.7972720
740.0064, 0.8906710
740.4885, 1.134705
740.9706, 1.133690
741.4528, 0.4257130
741.9349, 0.4938130
742.4170, 0.3666990
742.8991, 1.305740
743.3812, 2.217422
743.8633, 1.470459
744.3455, 0.6636510
744.8276, 0.7300800
745.3097, 1.258476
745.7918, 1.573822
746.2739, 1.478722
746.7560, 1.186417
747.2382, 0.7889790
747.7203, 0.3763730
748.2024, 0.3132170
748.6845, 0.6123350
749.1666, 0.6862260
749.6487, 0.2428890
750.1309, 0.2584530
750.6130, 0.2343060
751.0951, 0.3563460
751.5772, 0.6948700
752.0593, 0.4572980
752.5414, 0.3307110
753.0236, 0.7038040
753.5057, 1.130997
753.9878, 1.109299
754.4699, 0.6994860
754.9520, 0.3593520
755.4341, 0.3568570
755.9163, 0.5238650
756.3984, 0.6595310
756.8805, 0.7628170
757.3626, 0.8682710
757.8447, 0.9796370
758.3268, 0.8978200
758.8090, 0.3981480
759.2911, 0.3308940
759.7732, 0.5998000
760.2553, 3.4545999E-02
760.7374, 0.3168410
761.2195, 0.4080730
761.7017, 0.3313670
762.1838, 2.7077001E-02
762.6659, 0.4504010
763.1480, 0.5662000
763.6301, 0.2614360
764.1122, 0.1240310
764.5944, 0.3963550
765.0765, 0.5646290
765.5586, 0.6024320
766.0407, 0.5287170
766.5228, 0.4850620
767.0049, 0.5462570
767.4871, 0.6694110
767.9692, 0.8132780
768.4513, 0.9832150
768.9334, 1.023712
769.4155, 0.9205700
769.8976, 0.7031940
770.3798, 2.6787000E-02
770.8619, 0.5083310
771.3440, 0.1680910
771.8261, 0.8819810
772.3082, 1.643936
772.7903, 1.701355
773.2725, 1.443581
773.7546, 1.059570
774.2367, 0.6377490
774.7188, 0.1985860
775.2009, 0.1946720
775.6830, 0.2553560
776.1652, 0.2456130
776.6473, 1.042175
777.1294, 1.512444
777.6115, 1.627304
778.0936, 1.603462
778.5757, 1.368118
779.0579, 1.154472
779.5400, 1.107422
780.0221, 1.154289
780.5042, 1.162659
780.9863, 1.105232
781.4684, 1.126060
781.9506, 1.401558
782.4327, 1.625946
782.9148, 1.548660
783.3969, 1.304192
783.8790, 1.067024
784.3611, 0.9127810
784.8433, 0.9594500
785.3254, 1.405434
785.8075, 2.079041
786.2896, 2.487366
786.7717, 2.628311
787.2538, 2.466393
787.7360, 1.849289
788.2181, 1.380920
788.7002, 1.762779
789.1823, 2.839867
789.6644, 3.277473
790.1465, 2.456909
790.6286, 1.920494
791.1107, 1.972000
791.5928, 2.157951
792.0750, 2.156380
792.5571, 2.084206
793.0392, 2.248322
793.5213, 2.793198
794.0034, 3.193687
794.4855, 2.792152
794.9677, 2.013573
795.4498, 1.615227
795.9319, 1.621033
796.4140, 1.900177
796.8961, 2.417984
797.3782, 2.983231
797.8604, 3.340126
798.3425, 3.485695
798.8246, 3.503662
799.3067, 3.351410
799.7888, 3.124161
800.2709, 2.721344
800.7531, 2.417358
801.2352, 2.501434
801.7173, 2.880058
802.1994, 3.079147
802.6815, 2.853592
803.1636, 2.602097
803.6458, 2.506966
804.1279, 2.515289
804.6100, 2.555885
805.0921, 2.636658
805.5742, 2.862488
806.0563, 3.302475
806.5385, 3.733147
807.0206, 3.690880
807.5027, 3.230103
807.9848, 3.162628
808.4669, 3.625732
808.9490, 4.013550
809.4312, 4.041962
809.9133, 3.853806
810.3954, 3.626572
810.8775, 3.337997
811.3596, 3.169327
811.8417, 3.158440
812.3239, 3.217323
812.8060, 3.414703
813.2881, 3.605469
813.7702, 3.576660
814.2523, 3.392754
814.7344, 3.396736
815.2166, 3.871094
815.6987, 4.359810
816.1808, 4.307480
816.6629, 3.927628
817.1450, 3.651268
817.6271, 3.535255
818.1093, 3.558937
818.5914, 3.684502
819.0735, 3.877907
819.5556, 4.078697
820.0377, 4.285881
820.5198, 4.486961
821.0020, 4.685707
821.4841, 4.910728
821.9662, 5.385010
822.4483, 5.714279
822.9304, 5.193893
823.4125, 3.876740
823.8947, 3.358330
824.3768, 4.870300
824.8589, 6.144249
825.3410, 5.897087
825.8231, 5.093208
826.3052, 4.801048
826.7874, 5.054192
827.2695, 5.310989
827.7516, 5.260971
828.2337, 5.121521
828.7158, 5.273849
829.1979, 5.620285
829.6801, 5.549767
830.1622, 5.004829
830.6443, 4.727081
831.1264, 5.162148
831.6085, 5.820419
832.0906, 5.838287
832.5728, 5.058502
833.0549, 4.785172
833.5370, 5.409630
834.0191, 5.991814
834.5012, 6.457756
834.9833, 6.686279
835.4655, 6.377068
835.9476, 5.688225
836.4297, 5.376457
836.9118, 5.904259
837.3939, 6.479836
837.8760, 6.715103
838.3582, 6.739693
838.8403, 6.585098
839.3224, 6.360977
839.8045, 6.384735
840.2866, 6.808853
840.7687, 7.268227
841.2509, 7.208366
841.7330, 6.724571
842.2151, 6.343941
842.6972, 6.075584
843.1793, 5.943680
843.6614, 5.999496
844.1436, 6.070930
844.6257, 5.910286
845.1078, 5.528160
845.5899, 5.485992
846.0720, 6.060486
846.5541, 6.573158
847.0363, 6.894798
847.5184, 7.204521
848.0005, 7.801292
848.4826, 8.441154
848.9647, 8.521858
849.4468, 7.768364
849.9290, 7.003159
850.4111, 6.583427
850.8932, 6.435738
851.3753, 6.671692
851.8574, 7.079979
852.3395, 7.132805
852.8217, 6.710556
853.3038, 6.294243
853.7859, 6.396164
854.2680, 6.836105
854.7501, 7.048584
855.2322, 7.034760
855.7144, 7.020416
856.1965, 7.066551
856.6786, 7.022644
857.1607, 6.734207
857.6428, 6.307716
858.1249, 6.071327
858.6071, 6.135063
859.0892, 6.150513
859.5713, 5.940887
860.0534, 5.910736
860.5355, 6.421852
861.0176, 6.999817
861.4998, 6.967987
861.9819, 6.300354
862.4640, 5.961891
862.9461, 6.727486
863.4282, 7.529373
863.9103, 7.581863
864.3925, 7.245842
864.8746, 6.987305
865.3567, 6.884346
865.8388, 6.856491
866.3209, 6.855034
866.8030, 6.798416
867.2852, 6.477997
867.7673, 5.975670
868.2494, 5.746498
868.7315, 5.831039
869.2136, 5.681946
869.6957, 4.961517
870.1779, 4.304543
870.6600, 4.672348
871.1421, 6.112030
871.6242, 6.802017
872.1063, 6.318550
872.5884, 5.781197
873.0705, 5.183403
873.5526, 4.757149
874.0347, 4.842041
874.5168, 5.183769
874.9990, 5.094894
875.4811, 4.230164
875.9632, 3.664375
876.4453, 4.067833
876.9274, 4.637711
877.4095, 4.807068
877.8917, 4.682594
878.3738, 4.456093
878.8559, 4.224899
879.3380, 4.125664
879.8201, 4.324440
880.3022, 4.643188
880.7844, 4.858665
881.2665, 4.922722
881.7486, 4.532288
882.2307, 3.673958
882.7128, 3.047600
883.1949, 3.120682
883.6771, 3.604057
884.1592, 3.915222
884.6413, 4.035965
885.1234, 4.241447
885.6055, 4.672127
886.0876, 4.870575
886.5698, 4.506325
887.0519, 4.003510
887.5340, 3.864853
888.0161, 4.059547
888.4982, 4.095177
888.9803, 3.937134
889.4625, 3.675583
889.9446, 3.140251
890.4267, 2.653282
890.9088, 2.493645
891.3909, 2.550720
891.8730, 2.568451
892.3552, 2.473122
892.8373, 2.412819
893.3194, 2.597893
893.8015, 2.769302
894.2836, 2.611679
894.7657, 2.236565
895.2479, 1.854393
895.7300, 1.535675
896.2121, 1.299492
896.6942, 1.161522
897.1763, 1.139641
897.6584, 1.338593
898.1406, 1.721153
898.6227, 1.894791
899.1048, 1.811943
899.5869, 1.679276
900.0690, 1.611961
900.5511, 1.482788
901.0333, 1.046028
901.5154, 0.2575610
901.9975, 3.8445000E-02
902.4796, 0.4224850
902.9617, 0.9263610
903.4438, 1.522011
903.9260, 1.945427
904.4081, 1.983284
904.8902, 1.718590
905.3723, 1.309189
905.8544, 0.6051940
906.3365, 0.2605290
906.8187, 0.7778700
907.3008, 1.288857
907.7829, 1.210304
908.2650, 0.8812710
908.7471, 0.8616030
909.2292, 1.178391
909.7114, 1.303825
910.1935, 0.7904210
910.6756, 0.1735690
911.1577, 4.7363002E-02
911.6398, 0.1875920
912.1219, 0.1912310
912.6041, 1.9783000E-02
913.0862, 0.1588520
913.5683, 0.2484970
914.0504, 0.1931610
914.5325, 0.1720960
915.0146, 0.7549970
915.4968, 1.057480
915.9789, 1.079529
916.4610, 0.7874980
916.9431, 7.8414999E-02
917.4252, 0.4929280
917.9073, 0.4356840
918.3895, 5.7755001E-02
918.8716, 0.3878100
919.3537, 0.4952770
919.8358, 0.6310420
920.3179, 0.9017410
920.8000, 1.002335
921.2822, 0.7023090
921.7643, 0.2639470
922.2464, 7.5180002E-02
922.7285, 0.3068160
923.2106, 0.3767240
923.6927, 9.1826998E-02
924.1749, 0.1033940
924.6570, 5.4504000E-02
925.1391, 0.2204740
925.6212, 9.5261000E-02
926.1033, 0.2191850
926.5854, 0.5637510
927.0676, 0.9008640
927.5497, 0.9696430
928.0318, 0.2638850
928.5139, 0.4920880
928.9960, 0.4622570
929.4781, 3.1447999E-02
929.9603, 0.3746340
930.4424, 0.4584810
930.9245, 0.4386670
931.4066, 0.3968730
931.8887, 0.4040830
932.3708, 0.7060010
932.8530, 1.159119
933.3351, 1.062294
933.8172, 0.4134450
934.2993, 0.1646960
934.7814, 0.4507980
935.2635, 0.4486620
935.7457, 9.2453003E-02
936.2278, 0.5082470
936.7099, 0.6701350
937.1920, 0.2793960
937.6741, 9.6778996E-02
938.1563, 0.4485020
938.6384, 0.6561430
939.1205, 0.6193080
939.6026, 0.4348680
940.0847, 0.2830280
940.5668, 0.1838990
941.0490, 2.1130000E-03
941.5311, 0.5425490
942.0132, 0.8035510
942.4953, 0.3667760
942.9774, 0.1179730
943.4595, 0.1392140
943.9417, 0.1712570
944.4238, 0.4443740
944.9059, 0.6462020
945.3880, 0.6669310
945.8701, 0.2748410
946.3522, 0.1061550
946.8344, 0.2034840
947.3165, 0.1083600
947.7986, 8.3015002E-02
948.2807, 0.3237460
948.7628, 0.5408480
949.2449, 0.7129590
949.7271, 0.8013530
950.2092, 0.7066420
950.6913, 0.5405350
951.1734, 0.5046230
951.6555, 0.5588910
952.1376, 0.4920650
952.6198, 0.2478560
953.1019, 4.8546001E-02
953.5840, 0.1227800
954.0661, 0.3725890
954.5482, 0.6107640
955.0303, 0.8189470
955.5124, 0.8321610
955.9945, 0.6279140
956.4766, 0.4832610
956.9587, 0.5623320
957.4409, 0.6848070
957.9230, 0.5189510
958.4051, 7.3738001E-02
958.8872, 9.5600002E-03
959.3693, 0.4525380
959.8514, 0.7215270
960.3336, 0.6190410
960.8157, 0.4296800
961.2978, 0.3525010
961.7799, 0.3549580
962.2620, 0.3521800
962.7441, 0.3660740
963.2263, 0.3037720
963.7084, 4.9529999E-02
964.1905, 0.1836470
964.6726, 0.2091370
965.1547, 0.7289430
965.6368, 1.057831
966.1190, 1.214256
966.6011, 1.330376
967.0832, 1.444695
967.5653, 1.475273
968.0474, 1.455841
968.5295, 1.292213
969.0117, 0.6395720
969.4938, 2.5047000E-02
969.9759, 0.1020200
970.4580, 0.9770740
970.9401, 1.522179
971.4222, 1.046486
971.9044, 0.4862900
972.3865, 0.4412770
972.8686, 0.5982210
973.3507, 0.7098080
973.8328, 0.7279820
974.3149, 0.5498500
974.7971, 0.1822430
975.2792, 3.3813000E-02
975.7613, 0.4155650
976.2434, 0.9936520
976.7255, 0.7310870
977.2076, 7.9666004E-02
977.6898, 9.4108999E-02
978.1719, 0.7727890
978.6540, 1.417282
979.1361, 1.697250
979.6182, 1.733910
980.1003, 1.608604
980.5825, 1.373520
981.0646, 1.298492
981.5467, 1.364731
982.0288, 1.139664
982.5109, 0.5347370
982.9930, 0.2363970
983.4752, 0.7696300
983.9573, 1.618309
984.4394, 1.740974
984.9215, 1.131493
985.4036, 0.7632290
985.8857, 0.6605990
986.3679, 0.6415710
986.8500, 0.7224500
987.3321, 0.8781740
987.8142, 1.071884
988.2963, 1.246613
988.7784, 1.207176
989.2606, 0.8575440
989.7427, 0.6225130
990.2248, 0.4456410
990.7069, 0.5061340
991.1890, 1.041580
991.6711, 1.640121
992.1533, 1.942490
992.6354, 1.953575
993.1175, 1.710297
993.5996, 0.8491290
994.0817, 0.4438250
994.5638, 0.9387130
995.0460, 1.348053
995.5281, 0.9858550
996.0102, 0.5298610
996.4923, 0.9699860
996.9744, 2.164436
997.4565, 2.698616
997.9387, 1.821510
998.4208, 1.065079
998.9029, 0.8493500
999.3850, 0.8433840
999.8671, 0.8777540
1000.349, 0.9595180
1000.831, 1.162880
1001.313, 1.481857
1001.796, 1.664085
1002.278, 1.500740
1002.760, 1.287537
1003.242, 1.186264
1003.724, 1.108459
1004.206, 0.8655400
1004.688, 0.6087040
1005.170, 0.6943280
1005.653, 1.169357
1006.135, 1.573334
1006.617, 1.568420
1007.099, 1.427437
1007.581, 1.340607
1008.063, 1.320999
1008.545, 1.491142
1009.027, 1.736832
1009.509, 1.667046
1009.992, 1.178192
1010.474, 0.7584690
1010.956, 0.9022670
1011.438, 1.303001
1011.920, 1.544785
1012.402, 1.651863
1012.884, 1.605400
1013.366, 1.473251
1013.849, 1.606483
1014.331, 2.147408
1014.813, 2.608566
1015.295, 2.335297
1015.777, 1.658165
1016.259, 1.380562
1016.741, 1.452332
1017.223, 1.699409
1017.705, 2.051811
1018.188, 2.254463
1018.670, 2.170403
1019.152, 1.968719
1019.634, 1.883781
1020.116, 1.883217
1020.598, 1.795296
1021.080, 1.622932
1021.562, 1.459442
1022.044, 1.328163
1022.527, 1.270905
1023.009, 1.275406
1023.491, 1.377464
1023.973, 1.689636
1024.455, 2.186684
1024.937, 2.419800
1025.419, 2.361641
1025.901, 2.235336
1026.384, 2.037727
1026.866, 2.003662
1027.348, 2.339050
1027.830, 2.766754
1028.312, 2.675751
1028.794, 2.014519
1029.276, 1.791130
1029.758, 2.154076
1030.240, 2.426048
1030.723, 2.498459
1031.205, 2.408524
1031.687, 2.098785
1032.169, 1.730057
1032.651, 1.644096
1033.133, 1.883492
1033.615, 2.047638
1034.097, 2.061546
1034.579, 2.118736
1035.062, 2.241074
1035.544, 2.428909
1036.026, 2.758095
1036.508, 3.109909
1036.990, 3.208191
1037.472, 2.981819
1037.954, 2.860909
1038.436, 3.019516
1038.919, 3.000450
1039.401, 2.453880
1039.883, 2.009041
1040.365, 2.260963
1040.847, 2.828880
1041.329, 2.871353
1041.811, 2.233994
1042.293, 1.867424
1042.776, 1.930077
1043.258, 2.065018
1043.740, 2.289314
1044.222, 2.504105
1044.704, 2.591911
1045.186, 2.604843
1045.668, 2.715660
1046.150, 2.976494
1046.632, 3.055313
1047.115, 2.665291
1047.597, 2.446373
1048.079, 2.733910
1048.561, 3.068771
1049.043, 3.213577
1049.525, 3.151184
1050.007, 2.774216
1050.489, 2.025024
1050.971, 1.600616
1051.454, 1.924225
1051.936, 2.196304
1052.418, 2.118073
1052.900, 1.972855
1053.382, 1.964134
1053.864, 2.039307
1054.346, 2.079536
1054.828, 2.065582
1055.311, 2.092628
1055.793, 2.231857
1056.275, 2.349396
1056.757, 2.371933
1057.239, 2.382736
1057.721, 2.430092
1058.203, 2.546570
1058.685, 2.773888
1059.167, 3.136948
1059.650, 3.159935
1060.132, 2.285454
1060.614, 1.598778
1061.096, 1.631462
1061.578, 1.851578
1062.060, 1.840439
1062.542, 1.731544
1063.024, 1.852020
1063.506, 2.224159
1063.989, 2.426765
1064.471, 2.209602
1064.953, 1.931404
1065.435, 1.646187
1065.917, 1.446281
1066.399, 1.544952
1066.881, 1.705994
1067.363, 1.433823
1067.846, 0.7515490
1068.328, 0.4509200
1068.810, 1.139679
1069.292, 1.715042
1069.774, 1.465668
1070.256, 1.151604
1070.738, 1.470673
1071.220, 2.014191
1071.703, 2.078346
1072.185, 1.657990
1072.667, 1.385216
1073.149, 1.583031
1073.631, 1.743790
1074.113, 1.616959
1074.595, 1.388245
1075.077, 1.041901
1075.559, 0.7694850
1076.042, 0.8856120
1076.524, 1.328270
1077.006, 1.689163
1077.488, 1.862167
1077.970, 1.834732
1078.452, 1.379921
1078.934, 0.9650270
1079.416, 1.004562
1079.898, 1.195572
1080.380, 1.099419
1080.863, 0.8035810
1081.345, 0.7481690
1081.827, 1.112587
1082.309, 1.416504
1082.791, 1.432556
1083.273, 1.362953
1083.755, 1.339050
1084.237, 1.286438
1084.720, 1.034348
1085.202, 0.6930770
1085.684, 0.5980530
1086.166, 0.8584980
1086.648, 1.052284
1087.130, 0.9482270
1087.612, 0.7980500
1088.094, 0.7157670
1088.577, 0.6609040
1089.059, 0.5539320
1089.541, 0.4543000
1090.023, 0.5232090
1090.505, 0.7945710
1090.987, 1.001083
1091.469, 1.109634
1091.951, 1.047020
1092.433, 0.6399840
1092.916, 0.1910780
1093.398, 0.1291580
1093.880, 0.2896880
1094.362, 0.2464070
1094.844, 4.3870001E-03
1095.326, 0.2958910
1095.808, 0.8332140
1096.290, 1.087524
1096.772, 0.5440600
1097.255, 4.0245000E-02
1097.737, 0.2154310
1098.219, 0.6848600
1098.701, 0.9240800
1099.183, 0.9082720
1099.665, 0.9309540
1100.147, 1.161995
1100.629, 1.116852
1101.112, 0.3796920
1101.594, 0.2504200
1102.076, 0.2980960
1102.558, 0.1036380
1103.040, 6.8099998E-02
1103.522, 0.1346210
1104.004, 7.2333999E-02
1104.486, 0.7998120
1104.969, 1.189804
1105.451, 0.8560640
1105.933, 0.4634480
1106.415, 9.9403001E-02
1106.897, 0.1004260
1107.379, 9.0117998E-02
1107.861, 0.4938430
1108.343, 0.6496960
1108.825, 0.4478070
1109.307, 0.4504620
1109.790, 0.9081420
1110.272, 1.275124
1110.754, 1.564560
1111.236, 1.609619
1111.718, 1.091965
1112.200, 0.3691020
1112.682, 3.5805002E-02
1113.164, 0.1164250
1113.647, 0.2311250
1114.129, 0.5766680
1114.611, 0.6195300
1115.093, 7.4928001E-02
1115.575, 0.5220870
1116.057, 4.2252000E-02
1116.539, 0.6463930
1117.021, 0.6500700
1117.504, 8.6654998E-02
1117.986, 0.1689220
1118.468, 2.8664000E-02
1118.950, 0.2328410
1119.432, 0.7867130
1119.914, 1.101799
1120.396, 0.9246900
1120.878, 0.5842820
1121.360, 0.2979050
1121.843, 0.1134190
1122.325, 0.2103120
1122.807, 0.6822050
1123.289, 0.8323590
1123.771, 0.5564800
1124.253, 0.3125380
1124.735, 0.1877370
1125.217, 0.1546710
1125.699, 0.2302700
1126.182, 0.3098070
1126.664, 0.1830670
1127.146, 0.1282040
1127.628, 0.1773910
1128.110, 7.6370001E-02
1128.592, 0.2083360
1129.074, 0.1446690
1129.556, 7.4363999E-02
1130.039, 6.0738001E-02
1130.521, 0.2282870
1131.003, 0.7896960
1131.485, 1.539268
1131.967, 1.685394
1132.449, 1.266319
1132.931, 0.9637450
1133.413, 0.8137440
1133.896, 0.6560970
1134.378, 0.4417340
1134.860, 0.2858280
1135.342, 0.2842180
1135.824, 0.3708800
1136.306, 0.4650960
1136.788, 0.5309830
1137.270, 0.3785320
1137.752, 6.3346997E-02
1138.234, 0.1745300
1138.717, 0.2759700
1139.199, 0.1509090
1139.681, 0.2496030
1140.163, 0.6300130
1140.645, 0.6304400
1141.127, 0.4180680
1141.609, 0.2608110
1142.091, 0.1506270
1142.574, 4.1542001E-02
1143.056, 3.8185000E-02
1143.538, 3.9145999E-02
1144.020, 0.2948300
1144.502, 0.5549010
1144.984, 0.7010650
1145.466, 0.7916720
1145.948, 0.8897930
1146.431, 0.9664080
1146.913, 0.9425740
1147.395, 0.8876040
1147.877, 0.9823530
1148.359, 1.192665
1148.841, 1.250076
1149.323, 1.023750
1149.805, 0.7493130
1150.287, 0.4860460
1150.770, 0.3235400
1151.252, 0.4151540
1151.734, 0.5637050
1152.216, 0.5152740
1152.698, 0.3842850
1153.180, 0.5125730
1153.662, 0.9708250
1154.144, 1.203270
1154.626, 0.7417220
1155.109, 0.4261170
1155.591, 0.8487090
1156.073, 1.163116
1156.555, 0.5426250
1157.037, 0.3055500
1157.519, 0.3748170
1158.001, 0.2678530
1158.483, 0.7464220
1158.966, 1.021004
1159.448, 1.029205
1159.930, 0.4255220
1160.412, 7.3067002E-02
1160.894, 0.3837280
1161.376, 0.7784880
1161.858, 0.8177030
1162.340, 0.6646420
1162.822, 0.7009580
1163.305, 0.9613800
1163.787, 1.004539
1164.269, 0.6832430
1164.751, 0.6178510
1165.233, 1.064194
1165.715, 1.253784
1166.197, 0.6987150
1166.679, 5.4389998E-02
1167.161, 0.1394880
1167.644, 0.7480320
1168.126, 1.011963
1168.608, 0.9175720
1169.090, 0.9045490
1169.572, 0.9944230
1170.054, 1.047493
1170.536, 1.024292
1171.018, 1.052185
1171.500, 1.225761
1171.983, 1.450188
1172.465, 1.586273
1172.947, 1.633934
1173.429, 1.588158
1173.911, 1.509308
1174.393, 1.320183
1174.875, 1.062202
1175.357, 1.025246
1175.840, 1.285652
1176.322, 1.460999
1176.804, 1.152939
1177.286, 0.7400970
1177.768, 0.7584610
1178.250, 0.9206310
1178.732, 0.7198100
1179.214, 0.3686830
1179.697, 0.3679960
1180.179, 0.7299420
1180.661, 1.112877
1181.143, 1.395691
1181.625, 1.481461
1182.107, 1.165161
1182.589, 0.8061520
1183.071, 0.5429380
1183.553, 0.4354480
1184.036, 0.6368260
1184.518, 0.9808650
1185.000, 1.160011
1185.482, 1.143372
1185.964, 1.139503
1186.446, 1.184387
1186.928, 1.239571
1187.410, 1.303284
1187.892, 1.357826
1188.375, 1.435112
1188.857, 1.470169
1189.339, 1.372696
1189.821, 1.192337
1190.303, 1.064011
1190.785, 0.9773860
1191.267, 1.045021
1191.749, 1.453720
1192.232, 1.417656
1192.714, 0.5783620
1193.196, 1.9043000E-02
1193.678, 0.3357010
1194.160, 0.9674990
1194.642, 1.306183
1195.124, 1.395233
1195.606, 1.394402
1196.089, 1.292793
1196.571, 1.026840
1197.053, 0.6258540
1197.535, 0.4036790
1198.017, 0.4199830
1198.499, 0.6897660
1198.981, 1.246208
1199.463, 1.759651
1199.945, 1.701645
1200.427, 1.360382
1200.910, 1.310196
1201.392, 1.433929
1201.874, 1.461113
1202.356, 1.397835
1202.838, 1.343025
1203.320, 1.334229
1203.802, 1.419220
1204.284, 1.689407
1204.767, 1.864113
1205.249, 1.670464
1205.731, 1.358681
1206.213, 1.076698
1206.695, 0.8465650
1207.177, 0.5925830
1207.659, 0.4085690
1208.141, 0.6368260
1208.624, 1.385689
1209.106, 1.794876
1209.588, 1.336197
1210.070, 1.000710
1210.552, 1.103333
1211.034, 1.244408
1211.516, 1.149490
1211.998, 1.067619
1212.480, 1.358780
1212.963, 1.850639
1213.445, 1.856529
1213.927, 1.232063
1214.409, 0.8158040
1214.891, 0.5658110
1215.373, 0.7101290
1215.855, 1.460144
1216.337, 1.826958
1216.819, 1.212051
1217.302, 0.4362720
1217.784, 0.5243150
1218.266, 1.207367
1218.748, 1.824425
1219.230, 2.291039
1219.712, 1.862900
1220.194, 0.8010410
1220.676, 0.8446120
1221.159, 2.130814
1221.641, 2.799095
1222.123, 1.822075
1222.605, 0.5529170
1223.087, 0.2858660
1223.569, 0.5240020
1224.051, 1.016457
1224.533, 1.419014
1225.016, 1.107277
1225.498, 0.4284130
1225.980, 0.1080630
1226.462, 0.2332000
1226.944, 0.4014590
1227.426, 0.4782940
1227.908, 0.5882490
1228.390, 0.7858430
1228.872, 0.9685360
1229.354, 1.165314
1229.837, 1.259842
1230.319, 1.086227
1230.801, 0.7865140
1231.283, 0.6070940
1231.765, 0.5461270
1232.247, 0.5135730
1232.729, 0.4935610
1233.211, 0.5899120
1233.694, 0.8758240
1234.176, 1.002510
1234.658, 0.8340230
1235.140, 0.6462100
1235.622, 0.6436460
1236.104, 0.6797640
1236.586, 0.4741820
1237.068, 0.1074520
1237.551, 9.6657000E-02
1238.033, 0.1555630
1238.515, 0.1612320
1238.997, 0.1088180
1239.479, 0.1394040
1239.961, 0.5942990
1240.443, 0.8587650
1240.925, 0.6046600
1241.407, 0.5161210
1241.890, 1.828140
1242.372, 3.039116
1242.854, 2.328598
1243.336, 0.9094920
1243.818, 0.1399150
1244.300, 1.2550000E-02
1244.782, 7.5684004E-02
1245.264, 0.3206100
1245.746, 0.6452480
1246.229, 1.225349
1246.711, 1.512886
1247.193, 1.207619
1247.675, 0.8889390
1248.157, 0.7252580
1248.639, 0.6539080
1249.121, 0.7044140
1249.603, 0.7398450
1250.085, 0.4483950
1250.568, 0.1244510
1251.050, 0.2507630
1251.532, 9.7411998E-02
1252.014, 0.5764010
1252.496, 1.166664
1252.978, 1.551422
1253.460, 1.637367
1253.942, 1.369980
1254.425, 0.6733320
1254.907, 3.9299000E-02
1255.389, 0.3011400
1255.871, 0.9420930
1256.353, 1.017128
1256.835, 0.7663190
1257.317, 0.5234530
1257.799, 0.3853760
1258.281, 0.4837800
1258.764, 0.8127060
1259.246, 1.217842
1259.728, 1.719315
1260.210, 1.972916
1260.692, 1.515114
1261.174, 1.172043
1261.656, 1.549278
1262.138, 1.935059
1262.620, 1.763870
1263.103, 1.249763
1263.585, 0.7266310
1264.067, 0.2474140
1264.549, 0.2168120
1265.031, 0.7740100
1265.513, 1.333687
1265.995, 1.943008
1266.477, 2.192184
1266.960, 1.945946
1267.442, 1.571762
1267.924, 1.194237
1268.406, 0.9559020
1268.888, 1.199486
1269.370, 1.632271
1269.852, 1.854317
1270.334, 1.808907
1270.817, 1.349846
1271.299, 0.6251530
1271.781, 0.1121140
1272.263, 8.5372999E-02
1272.745, 7.9802997E-02
1273.227, 9.0225004E-02
1273.709, 0.3873900
1274.191, 0.9898910
1274.673, 1.404572
1275.156, 1.269775
1275.638, 1.082436
1276.120, 1.272766
1276.602, 1.453102
1277.084, 0.9807510
1277.566, 0.1391980
1278.048, 3.8001999E-02
1278.530, 0.5148240
1279.012, 0.5404280
1279.495, 7.1456999E-02
1279.977, 0.5653690
1280.459, 2.458183
1280.941, 3.463242
1281.423, 2.621773
1281.905, 1.254578
1282.387, 0.7173770
1282.869, 0.6110150
1283.352, 0.4515230
1283.834, 0.3027800
1284.316, 0.1386340
1284.798, 0.0000000E+00
##END=



