##NAMES=Ludwigite
##RRUFFID=R060844
##IDEAL CHEMISTRY=Mg_2_Fe^3+^O_2_(BO_3_)
##LOCALITY=Crestmore, California, USA
##OWNER=RRUFF
##SOURCE=Bob Jenkins
##DESCRIPTION=Black elongated prismatic crystals
##STATUS=The identification of this mineral has been confirmed only by single crystal X-ray diffraction.
##URL=rruff.info/R060844
218.4329, 0.0000000E+00
218.9150, 1.648926
219.3971, 2.546387
219.8792, 2.510254
220.3614, 3.285645
220.8435, 28.07910
221.3256, 56.59082
221.8077, 78.00879
222.2898, 92.15918
222.7719, 101.3706
223.2541, 104.7197
223.7362, 103.4150
224.2183, 103.8047
224.7004, 104.5933
225.1825, 110.5889
225.6646, 126.5586
226.1468, 150.9741
226.6289, 176.1421
227.1110, 194.9736
227.5931, 210.8467
228.0752, 238.7109
228.5573, 293.2637
229.0395, 331.8774
229.5216, 306.0537
230.0037, 234.5708
230.4858, 179.5381
230.9679, 179.9385
231.4500, 214.7163
231.9322, 232.0449
232.4143, 222.4517
232.8964, 210.6372
233.3785, 216.2134
233.8606, 235.3228
234.3427, 258.2944
234.8249, 281.8960
235.3070, 300.7861
235.7891, 314.7373
236.2712, 326.0723
236.7533, 335.2476
237.2354, 338.7686
237.7176, 337.5605
238.1997, 325.9302
238.6818, 290.2549
239.1639, 253.4434
239.6460, 242.7603
240.1281, 259.0649
240.6103, 274.3408
241.0924, 269.6426
241.5745, 253.0508
242.0566, 244.0327
242.5387, 251.1064
243.0208, 255.7612
243.5030, 247.1006
243.9851, 220.0649
244.4672, 200.3838
244.9493, 209.7251
245.4314, 228.6191
245.9135, 244.9648
246.3957, 272.2666
246.8778, 304.3364
247.3599, 312.6035
247.8420, 304.5962
248.3241, 279.7002
248.8062, 232.4951
249.2884, 175.5591
249.7705, 130.6641
250.2526, 96.37256
250.7347, 75.65283
251.2168, 78.57520
251.6989, 92.04199
252.1811, 96.21484
252.6632, 84.44141
253.1453, 63.81152
253.6274, 42.89648
254.1095, 17.26074
254.5916, 4.094238
255.0738, 15.63623
255.5559, 36.66113
256.0380, 50.78613
256.5201, 54.45996
257.0022, 54.34912
257.4843, 59.23633
257.9665, 72.73633
258.4486, 79.91162
258.9307, 78.62793
259.4128, 72.43213
259.8949, 61.26123
260.3770, 46.42334
260.8592, 31.91650
261.3413, 20.89453
261.8234, 13.48242
262.3055, 12.66211
262.7876, 23.28809
263.2697, 35.85010
263.7519, 46.29199
264.2340, 54.42383
264.7161, 58.35254
265.1982, 56.18213
265.6803, 48.93799
266.1624, 51.02344
266.6446, 83.59033
267.1267, 101.5376
267.6088, 76.59277
268.0909, 28.75635
268.5730, 3.985352
269.0551, 1.857422
269.5373, 35.82764
270.0194, 49.66602
270.5015, 9.659180
270.9836, 13.57666
271.4657, 1.135254
271.9478, 27.21045
272.4300, 50.94824
272.9121, 61.62451
273.3942, 58.92822
273.8763, 39.22705
274.3584, 21.68994
274.8405, 56.54736
275.3227, 45.95850
275.8048, 21.68701
276.2869, 1.679688
276.7690, 2.187500
277.2511, 1.485352
277.7332, 12.39355
278.2154, 39.18066
278.6975, 63.63037
279.1796, 86.85254
279.6617, 106.3984
280.1438, 120.7134
280.6259, 129.8940
281.1081, 135.0894
281.5902, 136.6787
282.0723, 134.5840
282.5544, 131.3369
283.0365, 117.9966
283.5186, 114.3467
284.0008, 136.2397
284.4829, 173.7134
284.9650, 204.4639
285.4471, 213.6514
285.9292, 206.4141
286.4113, 199.5400
286.8935, 191.9731
287.3756, 187.2148
287.8577, 185.4380
288.3398, 187.4951
288.8219, 196.3340
289.3040, 217.0659
289.7862, 238.6055
290.2683, 239.8257
290.7504, 216.2451
291.2325, 207.0073
291.7146, 242.6738
292.1967, 292.3809
292.6789, 320.9292
293.1610, 321.1851
293.6431, 310.5625
294.1252, 295.8799
294.6073, 279.2681
295.0894, 275.0537
295.5716, 293.9731
296.0537, 317.6582
296.5358, 319.7510
297.0179, 298.6982
297.5000, 281.3970
297.9821, 284.3730
298.4643, 296.4976
298.9464, 295.4556
299.4285, 274.9912
299.9106, 255.5200
300.3927, 261.8506
300.8748, 294.5010
301.3570, 317.6660
301.8391, 319.5981
302.3212, 315.0288
302.8033, 319.4673
303.2854, 332.6885
303.7675, 338.8818
304.2497, 322.8003
304.7318, 286.9429
305.2139, 271.4731
305.6960, 298.3359
306.1781, 319.7104
306.6602, 309.7617
307.1424, 280.9624
307.6245, 261.2427
308.1066, 266.1655
308.5887, 286.1138
309.0708, 291.4580
309.5529, 256.1235
310.0351, 236.2144
310.5172, 251.6367
310.9993, 275.8120
311.4814, 280.7783
311.9635, 260.8130
312.4456, 231.2251
312.9278, 214.3037
313.4099, 215.9951
313.8920, 212.8086
314.3741, 195.9976
314.8562, 182.9702
315.3383, 187.5732
315.8205, 207.5679
316.3026, 228.2285
316.7847, 235.7383
317.2668, 229.8740
317.7489, 226.8198
318.2310, 231.6133
318.7132, 233.0312
319.1953, 225.3013
319.6774, 212.6631
320.1595, 202.1797
320.6416, 197.6099
321.1237, 198.3301
321.6059, 203.2695
322.0880, 213.3657
322.5701, 222.4219
323.0522, 227.5435
323.5343, 232.1514
324.0164, 238.0571
324.4986, 245.2007
324.9807, 256.2456
325.4628, 276.4463
325.9449, 304.3740
326.4270, 325.5879
326.9091, 333.6841
327.3913, 339.5942
327.8734, 355.7212
328.3555, 381.0278
328.8376, 400.1382
329.3197, 407.5469
329.8018, 406.6519
330.2840, 399.4585
330.7661, 384.8911
331.2482, 376.3472
331.7303, 391.1445
332.2124, 424.1006
332.6945, 433.2510
333.1767, 392.9429
333.6588, 353.3779
334.1409, 354.7334
334.6230, 387.7593
335.1051, 413.5317
335.5872, 409.8325
336.0694, 385.7290
336.5515, 376.6577
337.0336, 391.5869
337.5157, 407.7593
337.9979, 424.6094
338.4800, 439.4375
338.9621, 447.4121
339.4442, 447.2881
339.9263, 445.0410
340.4084, 451.0923
340.8906, 475.3506
341.3727, 483.1890
341.8548, 461.1309
342.3369, 436.9277
342.8190, 428.5107
343.3011, 434.0044
343.7833, 439.1040
344.2654, 430.8521
344.7475, 409.8633
345.2296, 395.4360
345.7117, 391.4297
346.1938, 389.7158
346.6760, 390.1162
347.1581, 390.7319
347.6402, 389.4180
348.1223, 385.5366
348.6044, 377.9355
349.0865, 362.4248
349.5687, 335.8911
350.0508, 316.2065
350.5329, 317.7690
351.0150, 321.7373
351.4971, 310.6479
351.9792, 282.1025
352.4614, 255.1484
352.9435, 248.4458
353.4256, 255.6416
353.9077, 251.7905
354.3898, 230.7207
354.8719, 203.8965
355.3541, 178.6934
355.8362, 155.7007
356.3183, 138.9707
356.8004, 137.6973
357.2825, 137.4297
357.7646, 119.4868
358.2468, 86.25830
358.7289, 62.10742
359.2110, 64.18604
359.6931, 84.55322
360.1752, 89.26855
360.6573, 63.90723
361.1395, 43.46094
361.6216, 41.02051
362.1037, 47.31885
362.5858, 49.78320
363.0679, 44.38965
363.5500, 34.76953
364.0322, 26.18945
364.5143, 20.31201
364.9964, 10.97559
365.4785, 11.06299
365.9606, 28.25098
366.4427, 27.16943
366.9249, 11.42627
367.4070, 5.797363
367.8891, 15.59912
368.3712, 17.83154
368.8533, 7.762207
369.3354, 33.26318
369.8176, 59.52783
370.2997, 53.04248
370.7818, 30.00293
371.2639, 6.941406
371.7460, 10.96924
372.2281, 21.97900
372.7103, 21.51270
373.1924, 8.575684
373.6745, 1.398438
374.1566, 4.888184
374.6387, 4.791504
375.1208, 2.203125
375.6030, 2.512207
376.0851, 4.809082
376.5672, 3.309570
377.0493, 2.406738
377.5314, 15.99316
378.0135, 38.98047
378.4957, 57.56396
378.9778, 58.64404
379.4599, 46.37158
379.9420, 44.01221
380.4241, 62.45996
380.9063, 80.15723
381.3884, 85.13867
381.8705, 81.51562
382.3526, 79.53662
382.8347, 83.83740
383.3168, 87.46094
383.7990, 76.50732
384.2811, 32.77295
384.7632, 8.628418
385.2453, 20.51318
385.7274, 39.07373
386.2095, 41.62451
386.6917, 28.71338
387.1738, 17.14502
387.6559, 23.65479
388.1380, 46.80664
388.6201, 50.66162
389.1022, 11.12744
389.5844, 18.00879
390.0665, 12.37012
390.5486, 5.925293
391.0307, 6.057129
391.5128, 25.19238
391.9949, 64.83740
392.4771, 73.54639
392.9592, 46.23779
393.4413, 41.49512
393.9234, 87.75879
394.4055, 144.0776
394.8876, 172.8521
395.3698, 176.9014
395.8519, 190.0796
396.3340, 239.1157
396.8161, 303.7949
397.2982, 351.5483
397.7803, 380.1357
398.2625, 396.8696
398.7446, 402.3481
399.2267, 399.6992
399.7088, 403.4204
400.1909, 409.6743
400.6730, 426.2788
401.1552, 465.0308
401.6373, 514.1108
402.1194, 552.9688
402.6015, 574.7158
403.0836, 590.3560
403.5657, 616.5342
404.0479, 661.3467
404.5300, 693.9688
405.0121, 708.3755
405.4942, 718.2681
405.9763, 724.8643
406.4584, 733.0425
406.9406, 752.8545
407.4227, 792.9380
407.9048, 847.3169
408.3869, 891.0015
408.8690, 916.7935
409.3511, 946.3652
409.8333, 993.3965
410.3154, 1041.074
410.7975, 1071.669
411.2796, 1081.591
411.7617, 1089.921
412.2438, 1113.709
412.7260, 1150.774
413.2081, 1192.473
413.6902, 1243.733
414.1723, 1285.461
414.6544, 1288.398
415.1365, 1265.992
415.6187, 1261.600
416.1008, 1294.706
416.5829, 1338.458
417.0650, 1381.290
417.5471, 1420.193
418.0292, 1441.345
418.5114, 1435.979
418.9935, 1415.933
419.4756, 1406.938
419.9577, 1417.966
420.4398, 1424.664
420.9219, 1424.133
421.4041, 1420.189
421.8862, 1412.076
422.3683, 1402.464
422.8504, 1400.001
423.3325, 1413.521
423.8146, 1440.993
424.2968, 1455.535
424.7789, 1451.184
425.2610, 1443.508
425.7431, 1433.810
426.2252, 1423.071
426.7073, 1411.901
427.1895, 1398.803
427.6716, 1384.788
428.1537, 1372.733
428.6358, 1363.412
429.1179, 1353.405
429.6000, 1340.708
430.0822, 1328.375
430.5643, 1318.524
431.0464, 1310.428
431.5285, 1303.680
432.0106, 1297.309
432.4927, 1293.671
432.9749, 1298.808
433.4570, 1310.030
433.9391, 1314.168
434.4212, 1304.477
434.9033, 1285.070
435.3854, 1264.615
435.8676, 1237.494
436.3497, 1218.767
436.8318, 1216.498
437.3139, 1220.141
437.7960, 1220.213
438.2781, 1215.263
438.7603, 1211.188
439.2424, 1214.801
439.7245, 1224.932
440.2066, 1224.212
440.6887, 1202.313
441.1708, 1183.921
441.6530, 1176.755
442.1351, 1177.353
442.6172, 1178.905
443.0993, 1178.320
443.5814, 1178.728
444.0635, 1189.642
444.5457, 1208.493
445.0278, 1209.044
445.5099, 1178.815
445.9920, 1146.937
446.4741, 1144.938
446.9562, 1165.346
447.4384, 1176.222
447.9205, 1173.281
448.4026, 1158.076
448.8847, 1121.335
449.3668, 1072.888
449.8489, 1040.746
450.3311, 1036.887
450.8132, 1047.729
451.2953, 1050.062
451.7774, 1040.977
452.2595, 1029.610
452.7416, 1014.398
453.2238, 998.7646
453.7059, 978.3276
454.1880, 958.7637
454.6701, 955.7939
455.1522, 983.2256
455.6343, 1027.931
456.1165, 1044.701
456.5986, 1019.731
457.0807, 1002.614
457.5628, 1002.906
458.0449, 1017.878
458.5270, 1052.527
459.0092, 1106.220
459.4913, 1156.374
459.9734, 1186.017
460.4555, 1202.781
460.9376, 1221.906
461.4197, 1244.309
461.9019, 1268.500
462.3840, 1292.269
462.8661, 1317.137
463.3482, 1349.340
463.8303, 1394.973
464.3124, 1439.260
464.7946, 1475.729
465.2767, 1509.663
465.7588, 1548.740
466.2409, 1594.231
466.7230, 1639.137
467.2051, 1674.414
467.6873, 1698.562
468.1694, 1734.431
468.6515, 1794.888
469.1336, 1852.911
469.6157, 1902.284
470.0978, 1945.098
470.5800, 1987.150
471.0621, 2031.302
471.5442, 2066.873
472.0263, 2074.076
472.5084, 2055.538
472.9905, 2054.561
473.4727, 2090.183
473.9548, 2122.001
474.4369, 2102.384
474.9190, 2045.130
475.4011, 2002.728
475.8832, 1993.737
476.3654, 1994.061
476.8475, 1991.799
477.3296, 1985.854
477.8117, 1975.615
478.2938, 1961.199
478.7759, 1938.891
479.2581, 1901.347
479.7402, 1839.671
480.2223, 1785.965
480.7044, 1743.553
481.1865, 1705.250
481.6686, 1673.243
482.1508, 1642.293
482.6329, 1601.173
483.1150, 1541.859
483.5971, 1474.434
484.0792, 1418.781
484.5613, 1376.461
485.0435, 1337.555
485.5256, 1301.315
486.0077, 1266.354
486.4898, 1230.896
486.9719, 1194.998
487.4540, 1160.839
487.9362, 1135.567
488.4183, 1108.154
488.9004, 1064.053
489.3825, 1005.445
489.8646, 945.0830
490.3467, 887.1562
490.8289, 835.3018
491.3110, 798.5010
491.7931, 792.1680
492.2752, 775.6914
492.7573, 740.7383
493.2394, 702.4600
493.7216, 671.0527
494.2037, 645.9482
494.6858, 621.8945
495.1679, 595.5850
495.6500, 567.1992
496.1321, 536.2041
496.6143, 500.9551
497.0964, 469.5127
497.5785, 449.2739
498.0606, 430.0547
498.5427, 399.3594
499.0248, 357.2124
499.5070, 324.7393
499.9891, 322.1367
500.4712, 329.1602
500.9533, 317.3145
501.4355, 287.1729
501.9176, 257.4004
502.3997, 237.4863
502.8818, 226.3755
503.3639, 221.5210
503.8460, 235.3286
504.3282, 236.8931
504.8103, 218.8594
505.2924, 193.5884
505.7745, 162.2354
506.2566, 130.7910
506.7387, 115.1948
507.2209, 130.3008
507.7030, 165.8882
508.1851, 187.9487
508.6672, 194.8955
509.1493, 192.9395
509.6314, 171.1694
510.1136, 150.6650
510.5957, 152.0532
511.0778, 176.5928
511.5599, 206.9985
512.0420, 241.4829
512.5241, 274.1123
513.0062, 290.1279
513.4883, 291.6494
513.9705, 306.5576
514.4526, 353.0493
514.9347, 418.3813
515.4168, 462.7041
515.8989, 455.4429
516.3810, 469.3398
516.8632, 517.4795
517.3453, 577.4912
517.8274, 637.7188
518.3095, 695.6523
518.7916, 752.8281
519.2737, 810.9351
519.7559, 866.1934
520.2380, 908.0845
520.7201, 934.3906
521.2022, 959.1172
521.6843, 985.2969
522.1664, 1012.726
522.6486, 1041.003
523.1307, 1069.450
523.6128, 1095.979
524.0949, 1115.278
524.5770, 1135.636
525.0591, 1171.993
525.5413, 1218.530
526.0234, 1248.460
526.5055, 1246.815
526.9876, 1227.803
527.4697, 1218.162
527.9518, 1218.878
528.4340, 1227.818
528.9161, 1265.984
529.3982, 1291.565
529.8803, 1278.677
530.3624, 1237.012
530.8445, 1189.242
531.3267, 1143.273
531.8088, 1104.035
532.2909, 1085.704
532.7730, 1087.426
533.2551, 1077.865
533.7372, 1047.606
534.2194, 1008.659
534.7015, 968.7300
535.1836, 928.4829
535.6657, 901.6763
536.1478, 906.6318
536.6299, 907.8560
537.1121, 878.6875
537.5942, 834.0078
538.0763, 805.0215
538.5584, 801.6357
539.0405, 802.1812
539.5226, 773.0195
540.0048, 707.1470
540.4869, 662.3628
540.9690, 659.5444
541.4511, 652.1113
541.9332, 621.5449
542.4153, 577.2061
542.8975, 530.7710
543.3796, 483.8984
543.8617, 442.7041
544.3438, 414.5283
544.8259, 395.6738
545.3080, 376.4438
545.7902, 355.1382
546.2723, 332.9224
546.7544, 311.3843
547.2365, 289.9893
547.7186, 264.6396
548.2007, 224.7593
548.6829, 193.1001
549.1650, 172.4053
549.6471, 161.0708
550.1292, 165.0547
550.6113, 180.4761
551.0934, 187.7988
551.5756, 166.2231
552.0577, 125.2681
552.5398, 103.0869
553.0219, 103.5527
553.5040, 105.4517
553.9861, 105.9390
554.4683, 101.9209
554.9504, 85.69238
555.4325, 55.14990
555.9146, 37.07471
556.3967, 49.03223
556.8788, 69.32568
557.3610, 82.55713
557.8431, 87.82520
558.3252, 84.79053
558.8073, 72.93115
559.2894, 57.82617
559.7715, 52.14014
560.2537, 62.58154
560.7358, 66.52148
561.2179, 57.71240
561.7000, 47.18652
562.1821, 36.71240
562.6642, 28.36865
563.1464, 26.57471
563.6285, 35.85742
564.1106, 44.37988
564.5927, 37.38379
565.0748, 19.49902
565.5569, 7.812500
566.0391, 6.078125
566.5212, 5.403809
567.0033, 1.444336
567.4854, 14.17334
567.9675, 29.63330
568.4496, 52.61279
568.9318, 71.86768
569.4139, 93.97803
569.8960, 105.8984
570.3781, 82.49658
570.8602, 27.58350
571.3423, 15.63477
571.8245, 0.2099610
572.3066, 55.50635
572.7887, 72.16992
573.2708, 41.42090
573.7529, 16.32471
574.2350, 18.93359
574.7172, 35.16553
575.1993, 46.31836
575.6814, 52.61621
576.1635, 53.81787
576.6456, 47.34473
577.1277, 37.96729
577.6099, 25.95801
578.0920, 14.15430
578.5741, 10.73828
579.0562, 19.60400
579.5383, 30.92725
580.0204, 25.56152
580.5026, 1.669922
580.9847, 20.25342
581.4668, 29.86963
581.9489, 29.61670
582.4310, 8.319824
582.9132, 19.58740
583.3953, 26.22070
583.8774, 1.936035
584.3596, 31.97070
584.8417, 39.47168
585.3238, 35.51465
585.8059, 42.47852
586.2880, 62.13818
586.7701, 74.20898
587.2523, 61.59131
587.7344, 30.44531
588.2165, 11.13672
588.6986, 0.5039060
589.1807, 7.866211
589.6628, 64.82910
590.1450, 117.3599
590.6271, 124.7188
591.1092, 93.02148
591.5913, 57.98389
592.0734, 35.62305
592.5555, 23.53564
593.0377, 22.03467
593.5198, 29.09473
594.0019, 32.64111
594.4840, 29.16162
594.9661, 21.66016
595.4482, 12.00293
595.9304, 0.9204100
596.4125, 3.898438
596.8946, 12.63379
597.3767, 26.20850
597.8588, 30.72266
598.3409, 28.96680
598.8231, 22.31006
599.3052, 12.09131
599.7873, 3.674805
600.2694, 5.491699
600.7515, 12.80176
601.2336, 5.875977
601.7158, 17.44922
602.1979, 35.06738
602.6800, 36.28076
603.1621, 28.71338
603.6442, 24.17236
604.1263, 22.27832
604.6085, 24.27344
605.0906, 39.45654
605.5727, 49.57812
606.0548, 39.42432
606.5369, 17.47119
607.0190, 0.2700200
607.5012, 7.434082
607.9833, 7.982422
608.4654, 5.197754
608.9475, 0.7377930
609.4296, 3.543457
609.9117, 4.471680
610.3939, 1.940430
610.8760, 26.24219
611.3581, 57.10010
611.8402, 70.25098
612.3223, 57.79834
612.8044, 48.42578
613.2866, 51.14111
613.7687, 59.73486
614.2508, 74.90576
614.7329, 91.34570
615.2150, 93.16846
615.6971, 70.44971
616.1793, 38.26270
616.6614, 29.50928
617.1435, 48.86426
617.6256, 59.90088
618.1077, 52.56445
618.5898, 46.78906
619.0720, 60.23096
619.5541, 83.94629
620.0362, 98.48438
620.5183, 96.24463
621.0004, 93.61670
621.4825, 99.54297
621.9647, 108.5171
622.4468, 111.3618
622.9289, 109.0928
623.4110, 112.9653
623.8931, 131.7065
624.3752, 159.4370
624.8574, 178.7412
625.3395, 189.3799
625.8216, 191.0273
626.3037, 174.1616
626.7858, 157.8164
627.2679, 154.9717
627.7501, 162.9150
628.2322, 173.4233
628.7143, 188.0356
629.1964, 200.2207
629.6785, 201.9507
630.1606, 199.0513
630.6428, 204.6187
631.1249, 221.6128
631.6070, 241.8579
632.0891, 258.9658
632.5712, 271.6694
633.0533, 274.9224
633.5355, 263.4824
634.0176, 256.9014
634.4997, 264.0327
634.9818, 272.8574
635.4639, 273.2441
635.9460, 267.9663
636.4282, 268.4141
636.9103, 282.3184
637.3924, 296.6855
637.8745, 299.5928
638.3566, 299.3584
638.8387, 312.1475
639.3209, 339.7417
639.8030, 365.1724
640.2851, 373.4956
640.7672, 365.2739
641.2493, 347.0859
641.7314, 307.6577
642.2136, 288.1543
642.6957, 316.0952
643.1778, 350.9922
643.6599, 363.2949
644.1420, 355.7588
644.6241, 348.8003
645.1063, 352.9482
645.5884, 356.1484
646.0705, 347.4502
646.5526, 332.4868
647.0347, 321.2075
647.5168, 316.1714
647.9990, 318.7915
648.4811, 332.0142
648.9632, 353.5444
649.4453, 367.8740
649.9274, 374.3057
650.4095, 376.4624
650.8917, 370.9971
651.3738, 365.2505
651.8559, 362.4116
652.3380, 363.3086
652.8201, 372.3706
653.3022, 405.4590
653.7844, 430.7695
654.2665, 421.3921
654.7486, 395.2456
655.2307, 377.4062
655.7128, 373.7241
656.1949, 380.8062
656.6771, 396.9712
657.1592, 419.8408
657.6413, 439.1709
658.1234, 456.3682
658.6055, 468.0615
659.0876, 476.2061
659.5698, 473.2583
660.0519, 447.3325
660.5340, 404.5947
661.0161, 375.5518
661.4982, 374.0303
661.9803, 378.3418
662.4625, 382.2432
662.9446, 381.9819
663.4267, 370.9492
663.9088, 351.5776
664.3909, 336.6465
664.8730, 336.6338
665.3552, 346.6768
665.8373, 351.7378
666.3194, 350.4727
666.8015, 350.4404
667.2836, 356.4248
667.7657, 360.6636
668.2479, 354.8237
668.7300, 341.6978
669.2121, 331.0840
669.6942, 317.9741
670.1763, 312.4854
670.6584, 326.1289
671.1406, 344.1738
671.6227, 350.3467
672.1048, 345.0142
672.5869, 339.7607
673.0690, 342.8223
673.5511, 348.6694
674.0333, 344.2891
674.5154, 330.2705
674.9975, 320.4219
675.4796, 318.5630
675.9617, 314.8735
676.4438, 297.4038
676.9260, 271.3364
677.4081, 267.1118
677.8902, 314.1880
678.3723, 339.3325
678.8544, 317.9839
679.3365, 283.7271
679.8187, 257.3765
680.3008, 241.0312
680.7829, 231.5806
681.2650, 228.3174
681.7471, 229.5278
682.2292, 236.7061
682.7114, 246.6553
683.1935, 245.2378
683.6756, 230.0269
684.1577, 212.8008
684.6398, 200.6699
685.1219, 192.3955
685.6041, 185.0278
686.0862, 185.2563
686.5683, 175.0269
687.0504, 137.1470
687.5325, 107.2646
688.0146, 109.7124
688.4968, 130.6865
688.9789, 146.6265
689.4610, 150.6514
689.9431, 147.1753
690.4252, 134.2988
690.9073, 118.5605
691.3895, 115.0908
691.8716, 121.7842
692.3537, 117.3311
692.8358, 89.23389
693.3179, 53.21777
693.8000, 39.41992
694.2822, 53.13086
694.7643, 65.93066
695.2464, 81.23291
695.7285, 90.40332
696.2106, 85.38184
696.6927, 74.81152
697.1749, 70.13965
697.6570, 73.28271
698.1391, 73.78027
698.6212, 67.10352
699.1033, 56.89697
699.5854, 43.79785
700.0676, 29.96826
700.5497, 18.57568
701.0318, 10.97949
701.5139, 9.157715
701.9960, 18.17041
702.4781, 35.52734
702.9603, 41.66260
703.4424, 34.35107
703.9245, 26.48291
704.4066, 21.21240
704.8887, 18.46826
705.3708, 16.99561
705.8530, 16.61914
706.3351, 24.02344
706.8172, 56.00342
707.2993, 75.74756
707.7814, 60.89209
708.2635, 33.85742
708.7457, 17.28125
709.2278, 13.92725
709.7099, 14.61328
710.1920, 10.98193
710.6741, 10.96875
711.1563, 36.77051
711.6384, 80.31787
712.1205, 96.00488
712.6026, 72.24463
713.0847, 40.94238
713.5668, 27.12061
714.0490, 28.93604
714.5311, 35.76709
715.0132, 49.74365
715.4953, 63.98193
715.9774, 84.47998
716.4595, 99.20166
716.9417, 99.80811
717.4238, 89.80469
717.9059, 76.75098
718.3880, 60.65283
718.8701, 47.98096
719.3522, 39.48828
719.8344, 38.90137
720.3165, 59.16260
720.7986, 92.76270
721.2807, 110.4800
721.7628, 97.54590
722.2449, 69.37207
722.7271, 47.94336
723.2092, 33.04443
723.6913, 36.09521
724.1734, 65.50537
724.6555, 87.47021
725.1376, 83.73242
725.6198, 66.66357
726.1019, 55.68213
726.5840, 51.81738
727.0661, 45.70752
727.5482, 27.16846
728.0303, 17.04590
728.5125, 38.50830
728.9946, 66.45264
729.4767, 64.74170
729.9588, 29.95068
730.4409, 4.581543
730.9230, 16.23682
731.4052, 10.98486
731.8873, 7.149414
732.3694, 34.70508
732.8515, 54.80518
733.3336, 63.10352
733.8157, 65.74658
734.2979, 68.34277
734.7800, 70.22070
735.2621, 66.46191
735.7442, 53.10254
736.2263, 42.49023
736.7084, 34.70801
737.1906, 31.20020
737.6727, 34.64697
738.1548, 42.97217
738.6369, 51.23999
739.1190, 60.00537
739.6011, 65.41040
740.0833, 66.24268
740.5654, 62.60498
741.0475, 47.58740
741.5296, 30.54272
742.0117, 32.84082
742.4938, 64.47266
742.9760, 98.65015
743.4581, 97.00952
743.9402, 65.54541
744.4223, 34.34448
744.9044, 2.125977
745.3865, 12.76782
745.8687, 1.413574
746.3508, 32.35278
746.8329, 62.26709
747.3150, 92.45483
747.7971, 111.7749
748.2792, 110.1270
748.7614, 110.4536
749.2435, 121.7546
749.7256, 134.2490
750.2077, 138.1072
750.6898, 133.3577
751.1719, 127.4702
751.6541, 122.3511
752.1362, 119.5591
752.6183, 124.4424
753.1004, 130.5713
753.5825, 122.6746
754.0646, 102.0220
754.5468, 89.38403
755.0289, 100.6882
755.5110, 122.6531
755.9931, 123.8345
756.4752, 103.3667
756.9573, 89.63696
757.4395, 86.88574
757.9216, 85.47607
758.4037, 78.00952
758.8858, 69.59985
759.3679, 75.33960
759.8500, 107.2910
760.3322, 123.9670
760.8143, 118.1692
761.2964, 104.3457
761.7785, 81.06201
762.2606, 56.78174
762.7427, 40.95557
763.2249, 35.30151
763.7070, 36.25757
764.1891, 44.88867
764.6712, 56.95142
765.1533, 71.35986
765.6354, 84.09546
766.1176, 84.15259
766.5997, 70.52051
767.0818, 56.53613
767.5639, 54.50293
768.0460, 58.61353
768.5281, 45.01807
769.0103, 9.515869
769.4924, 4.554199
769.9745, 52.24365
770.4566, 93.12427
770.9387, 77.93335
771.4208, 28.31812
771.9030, 14.64233
772.3851, 64.28638
772.8672, 92.99365
773.3493, 81.19873
773.8314, 65.60229
774.3135, 62.41968
774.7957, 67.17529
775.2778, 75.46216
775.7599, 85.93408
776.2420, 84.79810
776.7241, 45.01904
777.2062, 4.376953
777.6884, 12.20703
778.1705, 51.27637
778.6526, 82.21729
779.1347, 93.73022
779.6168, 87.24268
780.0989, 59.13794
780.5811, 20.90210
781.0632, 17.70508
781.5453, 53.66724
782.0274, 64.56763
782.5095, 30.52661
782.9916, 2.836426
783.4738, 0.8952640
783.9559, 25.75415
784.4380, 40.63062
784.9201, 34.82227
785.4022, 33.28223
785.8843, 40.96680
786.3665, 47.68311
786.8486, 49.32153
787.3307, 46.55322
787.8128, 37.16382
788.2949, 20.42822
788.7770, 14.00659
789.2592, 39.83643
789.7413, 69.37915
790.2234, 75.12915
790.7055, 67.02637
791.1876, 66.31445
791.6697, 75.98340
792.1519, 79.58057
792.6340, 60.79492
793.1161, 32.93945
793.5982, 28.25586
794.0803, 44.88159
794.5624, 60.98291
795.0446, 74.09009
795.5267, 79.24194
796.0088, 71.44434
796.4909, 55.89966
796.9730, 47.80933
797.4551, 55.79150
797.9373, 46.28198
798.4194, 3.833496
798.9015, 41.48633
799.3836, 38.99292
799.8657, 19.14746
800.3478, 6.760986
800.8300, 3.916748
801.3121, 7.861328
801.7942, 32.84961
802.2763, 47.77173
802.7584, 26.97363
803.2405, 6.666260
803.7227, 28.24072
804.2048, 35.26392
804.6869, 40.62988
805.1690, 53.09521
805.6511, 63.51636
806.1332, 55.29004
806.6154, 36.88281
807.0975, 33.53979
807.5796, 45.79688
808.0617, 51.43994
808.5438, 37.88574
809.0259, 20.72363
809.5081, 29.70386
809.9902, 66.90747
810.4723, 83.75220
810.9544, 75.09644
811.4365, 62.21899
811.9186, 49.34058
812.4008, 38.70654
812.8829, 33.02686
813.3650, 32.35425
813.8471, 33.66553
814.3292, 46.50903
814.8113, 47.82788
815.2935, 16.19385
815.7756, 11.59595
816.2577, 6.017334
816.7398, 23.43921
817.2219, 51.77075
817.7040, 73.30200
818.1862, 86.80200
818.6683, 90.18311
819.1504, 86.23267
819.6325, 70.26245
820.1146, 50.85693
820.5967, 48.54834
821.0789, 68.23267
821.5610, 91.01392
822.0431, 98.83716
822.5252, 96.88257
823.0073, 96.63647
823.4894, 97.96313
823.9716, 100.5278
824.4537, 104.3523
824.9358, 106.2446
825.4179, 103.4851
825.9000, 97.66553
826.3821, 94.03931
826.8643, 93.80420
827.3464, 89.87500
827.8285, 78.65137
828.3106, 70.84106
828.7927, 75.45972
829.2748, 83.58960
829.7570, 78.60010
830.2391, 58.40625
830.7212, 50.02368
831.2033, 66.13184
831.6854, 80.51050
832.1675, 83.94385
832.6497, 82.91016
833.1318, 85.06055
833.6139, 88.82495
834.0960, 83.85938
834.5781, 57.83716
835.0602, 41.42212
835.5424, 72.53296
836.0245, 114.1780
836.5066, 114.6028
836.9887, 84.67065
837.4708, 67.79199
837.9529, 80.01074
838.4351, 97.87305
838.9172, 92.87305
839.3993, 75.31909
839.8814, 72.92578
840.3635, 84.09619
840.8456, 94.31665
841.3278, 100.4751
841.8099, 102.0820
842.2920, 97.96997
842.7741, 89.38086
843.2562, 80.15259
843.7383, 69.21729
844.2205, 63.05542
844.7026, 62.60400
845.1847, 66.23413
845.6668, 76.55273
846.1489, 87.96045
846.6310, 90.65991
847.1132, 83.31226
847.5953, 73.61597
848.0774, 50.03101
848.5595, 38.50073
849.0416, 57.63379
849.5237, 82.24878
850.0059, 90.84229
850.4880, 84.35376
850.9701, 74.08105
851.4522, 60.33301
851.9343, 49.99951
852.4164, 47.53906
852.8986, 49.15283
853.3807, 51.68677
853.8628, 55.36890
854.3449, 64.00684
854.8270, 78.37646
855.3091, 86.68188
855.7913, 69.63452
856.2734, 44.88647
856.7555, 42.07568
857.2376, 55.93872
857.7197, 64.38965
858.2018, 62.32324
858.6840, 56.75073
859.1661, 52.64282
859.6482, 48.17017
860.1303, 39.98853
860.6124, 30.80225
861.0945, 42.56396
861.5767, 79.25513
862.0588, 104.8311
862.5409, 101.9744
863.0230, 85.76709
863.5051, 76.87842
863.9872, 73.95239
864.4694, 66.32349
864.9515, 48.34595
865.4336, 37.98633
865.9157, 45.66138
866.3978, 53.87280
866.8799, 47.80420
867.3621, 33.88672
867.8442, 30.49170
868.3263, 41.62134
868.8084, 54.48706
869.2905, 77.08765
869.7726, 90.96753
870.2548, 80.07251
870.7369, 59.16895
871.2190, 47.54028
871.7011, 46.74561
872.1832, 43.26440
872.6653, 23.16235
873.1475, 8.146484
873.6296, 16.91016
874.1117, 34.43896
874.5938, 44.74341
875.0759, 46.37671
875.5580, 41.21094
876.0402, 29.63086
876.5223, 21.06641
877.0044, 27.79858
877.4865, 41.82007
877.9686, 50.70410
878.4507, 54.38745
878.9329, 53.55078
879.4150, 48.69263
879.8971, 41.82202
880.3792, 33.86011
880.8613, 27.00293
881.3434, 27.92017
881.8256, 35.83057
882.3077, 39.37769
882.7898, 36.87720
883.2719, 42.51489
883.7540, 66.42065
884.2361, 89.41821
884.7183, 80.37305
885.2004, 39.11353
885.6825, 11.21460
886.1646, 1.716553
886.6467, 4.843018
887.1288, 6.374268
887.6110, 17.39575
888.0931, 13.52588
888.5752, 1.253662
889.0573, 4.289063
889.5394, 37.96509
890.0215, 54.21509
890.5037, 37.37598
890.9858, 22.55762
891.4679, 24.96387
891.9500, 33.21484
892.4321, 33.70483
892.9142, 26.67554
893.3964, 24.78271
893.8785, 36.14209
894.3606, 45.52588
894.8427, 52.70703
895.3248, 52.16650
895.8069, 30.40918
896.2891, 0.2700200
896.7712, 11.46436
897.2533, 3.057861
897.7354, 19.99780
898.2175, 26.58423
898.6996, 29.06714
899.1818, 30.43994
899.6639, 32.33960
900.1460, 37.23071
900.6281, 45.02759
901.1102, 55.46851
901.5923, 70.53418
902.0745, 78.23657
902.5566, 56.30518
903.0387, 21.87134
903.5208, 5.303467
904.0029, 6.521240
904.4850, 19.49146
904.9672, 41.08447
905.4493, 61.18652
905.9314, 71.22192
906.4135, 71.29907
906.8956, 56.11792
907.3777, 29.07764
907.8599, 15.52417
908.3420, 18.64478
908.8241, 26.26050
909.3062, 32.01929
909.7883, 38.83716
910.2704, 55.85107
910.7526, 81.21167
911.2347, 73.86328
911.7168, 26.29492
912.1990, 5.881592
912.6811, 7.511963
913.1632, 2.553711
913.6453, 12.43555
914.1274, 20.49561
914.6096, 20.63867
915.0917, 8.406494
915.5738, 2.734619
916.0559, 7.026855
916.5380, 11.59399
917.0201, 14.28955
917.5023, 14.49683
917.9844, 9.657715
918.4665, 0.3542480
918.9486, 2.488770
919.4307, 11.50537
919.9128, 16.27319
920.3950, 5.265381
920.8771, 19.17236
921.3592, 4.576172
921.8413, 40.22705
922.3234, 43.33154
922.8055, 7.587891
923.2877, 10.27856
923.7698, 24.23877
924.2519, 47.40137
924.7340, 24.29858
925.2161, 7.031006
925.6982, 17.46411
926.1804, 8.875244
926.6625, 10.29126
927.1446, 41.80029
927.6267, 60.27148
928.1088, 41.54053
928.5909, 19.65137
929.0731, 21.19751
929.5552, 32.20972
930.0373, 30.72168
930.5194, 17.82739
931.0015, 13.21631
931.4836, 28.68237
931.9658, 46.43066
932.4479, 53.75562
932.9300, 55.18164
933.4121, 55.95581
933.8942, 56.60620
934.3763, 54.70508
934.8585, 50.74365
935.3406, 52.50854
935.8227, 70.55005
936.3048, 86.63940
936.7869, 69.96631
937.2690, 37.55908
937.7512, 24.34668
938.2333, 29.27393
938.7154, 32.25830
939.1975, 25.28076
939.6796, 17.81104
940.1617, 22.00903
940.6439, 30.94482
941.1260, 24.25195
941.6081, 8.085205
942.0902, 9.308594
942.5723, 30.48096
943.0544, 52.24146
943.5366, 63.85840
944.0187, 70.97168
944.5008, 82.42163
944.9829, 97.34790
945.4650, 110.4587
945.9471, 121.4011
946.4293, 119.9624
946.9114, 102.9675
947.3935, 98.72900
947.8756, 132.0427
948.3577, 179.2925
948.8398, 181.4316
949.3220, 137.7898
949.8041, 107.3850
950.2862, 91.98804
950.7683, 86.22217
951.2504, 90.12354
951.7325, 95.51636
952.2147, 94.80859
952.6968, 89.12915
953.1789, 81.26953
953.6610, 68.55957
954.1431, 69.81421
954.6252, 89.04907
955.1074, 113.0103
955.5895, 142.3345
956.0716, 158.6628
956.5537, 134.4280
957.0358, 75.10596
957.5179, 45.20898
958.0001, 52.67090
958.4822, 68.33130
958.9643, 97.50684
959.4464, 119.1001
959.9285, 121.5664
960.4106, 111.4929
960.8928, 96.49951
961.3749, 76.08081
961.8570, 63.22729
962.3391, 62.87988
962.8212, 60.58911
963.3033, 49.25293
963.7855, 42.51270
964.2676, 51.79517
964.7497, 69.32080
965.2318, 82.90869
965.7139, 95.26343
966.1960, 88.92920
966.6782, 43.19434
967.1603, 7.661865
967.6424, 9.258057
968.1245, 13.77441
968.6066, 5.001953
969.0887, 12.08936
969.5709, 26.15601
970.0530, 36.01001
970.5351, 44.63208
971.0172, 51.42017
971.4993, 58.75415
971.9814, 73.05444
972.4636, 83.29419
972.9457, 76.90234
973.4278, 59.13794
973.9099, 47.19678
974.3920, 46.16187
974.8741, 41.44434
975.3563, 19.46802
975.8384, 7.310059
976.3205, 25.87427
976.8026, 51.04224
977.2847, 57.34106
977.7668, 48.66406
978.2490, 48.45215
978.7311, 66.99683
979.2132, 79.37866
979.6953, 70.79419
980.1774, 62.28662
980.6595, 69.38867
981.1417, 78.23413
981.6238, 71.73071
982.1059, 51.67578
982.5880, 37.26025
983.0701, 29.21997
983.5522, 34.19287
984.0344, 74.84692
984.5165, 108.7114
984.9986, 103.4766
985.4807, 79.48047
985.9628, 59.74072
986.4449, 48.21265
986.9271, 46.82837
987.4092, 67.68677
987.8913, 77.76196
988.3734, 56.34961
988.8555, 28.51685
989.3376, 3.620605
989.8198, 12.43066
990.3019, 7.322510
990.7840, 16.61938
991.2661, 29.90259
991.7482, 16.12354
992.2303, 0.8149410
992.7125, 15.01367
993.1946, 24.42310
993.6767, 26.65918
994.1588, 23.41431
994.6409, 16.62598
995.1230, 6.943848
995.6052, 3.695313
996.0873, 17.19458
996.5694, 27.50586
997.0515, 30.90601
997.5336, 30.93481
998.0157, 24.67896
998.4979, 19.63550
998.9800, 32.36182
999.4621, 63.27734
999.9442, 83.24927
1000.426, 66.52441
1000.908, 53.98169
1001.391, 72.32544
1001.873, 96.24683
1002.355, 106.9885
1002.837, 106.6697
1003.319, 101.5515
1003.801, 93.09546
1004.283, 81.52075
1004.765, 54.82397
1005.247, 40.71021
1005.730, 70.35034
1006.212, 101.7722
1006.694, 92.67822
1007.176, 61.55591
1007.658, 44.89990
1008.140, 49.73633
1008.622, 59.53857
1009.104, 75.77002
1009.587, 84.62329
1010.069, 71.58081
1010.551, 55.06323
1011.033, 53.05615
1011.515, 57.91846
1011.997, 50.14453
1012.479, 27.47925
1012.961, 18.34521
1013.443, 47.58862
1013.926, 74.92896
1014.408, 81.53540
1014.890, 80.09106
1015.372, 81.20874
1015.854, 81.67578
1016.336, 71.49365
1016.818, 49.82764
1017.300, 35.82666
1017.783, 40.22192
1018.265, 48.32935
1018.747, 61.73291
1019.229, 69.46094
1019.711, 57.68262
1020.193, 36.96582
1020.675, 25.09644
1021.157, 24.57153
1021.639, 25.75342
1022.122, 27.37793
1022.604, 27.87964
1023.086, 26.83203
1023.568, 24.43555
1024.050, 10.11792
1024.532, 7.3199999E-04
1025.014, 30.66724
1025.496, 101.0425
1025.979, 135.2034
1026.461, 74.28931
1026.943, 33.23999
1027.425, 66.36597
1027.907, 100.7117
1028.389, 81.87549
1028.871, 42.51392
1029.353, 33.42529
1029.835, 57.02808
1030.318, 75.76978
1030.800, 81.64380
1031.282, 84.44873
1031.764, 91.33691
1032.246, 89.37256
1032.728, 61.50146
1033.210, 27.32812
1033.692, 12.26562
1034.174, 16.34375
1034.657, 22.85132
1035.139, 28.79468
1035.621, 39.37769
1036.103, 67.83252
1036.585, 85.78198
1037.067, 68.23779
1037.549, 43.17529
1038.031, 44.58862
1038.514, 69.51221
1038.996, 85.55713
1039.478, 85.74731
1039.960, 88.88550
1040.442, 100.0503
1040.924, 107.0364
1041.406, 105.8240
1041.888, 98.43921
1042.370, 85.15503
1042.853, 67.21655
1043.335, 50.52441
1043.817, 28.90210
1044.299, 25.12451
1044.781, 50.40015
1045.263, 71.84033
1045.745, 79.95239
1046.227, 79.96924
1046.709, 74.90625
1047.192, 66.17627
1047.674, 56.63843
1048.156, 44.83472
1048.638, 45.51050
1049.120, 63.28198
1049.602, 77.83228
1050.084, 84.04175
1050.566, 84.03662
1051.049, 78.23047
1051.531, 71.13013
1052.013, 75.14062
1052.495, 92.36255
1052.977, 89.23340
1053.459, 61.37866
1053.941, 40.82593
1054.423, 34.47656
1054.906, 37.36841
1055.388, 48.11255
1055.870, 59.74976
1056.352, 57.74609
1056.834, 44.63501
1057.316, 50.35352
1057.798, 74.69019
1058.280, 84.06372
1058.762, 72.81616
1059.245, 61.05908
1059.727, 59.12354
1060.209, 62.77319
1060.691, 67.08813
1061.173, 71.98755
1061.655, 78.85352
1062.137, 86.21704
1062.619, 84.52954
1063.101, 73.89209
1063.584, 63.93799
1064.066, 58.58984
1064.548, 57.85986
1065.030, 63.37451
1065.512, 66.14429
1065.994, 38.80273
1066.476, 2.002441
1066.958, 11.95093
1067.441, 5.070313
1067.923, 22.33618
1068.405, 31.03320
1068.887, 34.51270
1069.369, 34.36743
1069.851, 33.99951
1070.333, 38.97437
1070.815, 44.95532
1071.297, 44.23315
1071.780, 39.85718
1072.262, 40.03638
1072.744, 44.90723
1073.226, 45.56812
1073.708, 35.03833
1074.190, 29.38281
1074.672, 46.96777
1075.154, 68.17603
1075.636, 80.41968
1076.119, 82.23560
1076.601, 60.72656
1077.083, 28.51489
1077.565, 31.58960
1078.047, 92.77271
1078.529, 134.4731
1079.011, 105.4885
1079.494, 68.83252
1079.976, 52.33130
1080.458, 46.48364
1080.940, 44.92505
1081.422, 45.81470
1081.904, 49.28491
1082.386, 56.23682
1082.868, 53.48926
1083.350, 21.42090
1083.833, 3.732910
1084.315, 23.09888
1084.797, 45.01318
1085.279, 46.39966
1085.761, 40.16577
1086.243, 49.62256
1086.725, 74.05176
1087.207, 79.76904
1087.689, 56.04053
1088.172, 35.05054
1088.654, 16.57861
1089.136, 4.494141
1089.618, 1.487061
1090.100, 3.072510
1090.582, 4.296631
1091.064, 6.578125
1091.546, 13.66040
1092.029, 22.41650
1092.511, 63.99292
1092.993, 151.7754
1093.475, 191.4172
1093.957, 151.8064
1094.439, 92.59058
1094.921, 54.20508
1095.403, 33.99170
1095.885, 32.25000
1096.368, 45.19067
1096.850, 40.06738
1097.332, 19.89551
1097.814, 6.594727
1098.296, 4.571777
1098.778, 7.660889
1099.260, 13.09717
1099.742, 24.18774
1100.224, 49.39185
1100.707, 75.65356
1101.189, 71.78809
1101.671, 51.61108
1102.153, 45.21899
1102.635, 52.28955
1103.117, 61.17993
1103.599, 67.53491
1104.081, 65.48975
1104.564, 46.76147
1105.046, 28.30444
1105.528, 28.73047
1106.010, 35.70020
1106.492, 32.34863
1106.974, 27.70459
1107.456, 42.35840
1107.938, 73.16357
1108.421, 94.62305
1108.903, 98.04102
1109.385, 93.58789
1109.867, 81.12305
1110.349, 66.01172
1110.831, 41.93677
1111.313, 23.63794
1111.795, 33.65674
1112.277, 58.48901
1112.760, 62.66113
1113.242, 39.01538
1113.724, 27.17114
1114.206, 34.52319
1114.688, 46.99756
1115.170, 73.12109
1115.652, 91.96167
1116.134, 92.85425
1116.616, 81.90674
1117.099, 64.35229
1117.581, 41.93530
1118.063, 26.02148
1118.545, 15.96948
1119.027, 16.50317
1119.509, 30.55371
1119.991, 44.42554
1120.473, 55.85547
1120.956, 54.02881
1121.438, 26.15723
1121.920, 6.802979
1122.402, 5.626465
1122.884, 55.06836
1123.366, 80.34839
1123.848, 82.60474
1124.330, 63.07300
1124.813, 25.79883
1125.295, 9.5458999E-02
1125.777, 0.6789550
1126.259, 13.16357
1126.741, 37.81885
1127.223, 61.50732
1127.705, 64.63867
1128.187, 55.02954
1128.669, 40.89502
1129.151, 27.46924
1129.634, 25.63770
1130.116, 35.74951
1130.598, 43.31396
1131.080, 40.12134
1131.562, 35.41162
1132.044, 34.07300
1132.526, 34.24976
1133.008, 33.49463
1133.491, 34.41528
1133.973, 45.30762
1134.455, 59.81128
1134.937, 54.58716
1135.419, 18.50049
1135.901, 7.837891
1136.383, 60.85718
1136.865, 96.62549
1137.348, 93.03320
1137.830, 74.64429
1138.312, 45.89966
1138.794, 15.84888
1139.276, 5.648438
1139.758, 17.85889
1140.240, 12.41235
1140.722, 16.48877
1141.204, 34.16357
1141.687, 36.89233
1142.169, 42.07056
1142.651, 56.13672
1143.133, 63.61597
1143.615, 50.98901
1144.097, 32.66675
1144.579, 40.82617
1145.061, 65.67969
1145.543, 57.60815
1146.026, 27.05396
1146.508, 20.88452
1146.990, 40.46875
1147.472, 56.49341
1147.954, 57.16309
1148.436, 47.76514
1148.918, 28.00024
1149.400, 8.591309
1149.883, 0.1708980
1150.365, 0.7946780
1150.847, 4.634766
1151.329, 12.82397
1151.811, 18.80322
1152.293, 22.02661
1152.775, 25.00464
1153.257, 30.29565
1153.740, 28.41113
1154.222, 3.964600
1154.704, 11.99878
1155.186, 3.707520
1155.668, 21.44873
1156.150, 15.78345
1156.632, 2.167236
1157.114, 12.71533
1157.596, 15.91479
1158.078, 10.75952
1158.561, 9.566162
1159.043, 16.17969
1159.525, 1.705078
1160.007, 7.156494
1160.489, 0.4074710
1160.971, 11.61255
1161.453, 20.22021
1161.935, 27.74487
1162.418, 43.01587
1162.900, 62.41553
1163.382, 61.78101
1163.864, 44.17627
1164.346, 22.03247
1164.828, 0.3825680
1165.310, 10.32764
1165.792, 3.332031
1166.275, 2.330322
1166.757, 12.50806
1167.239, 29.38208
1167.721, 28.62329
1168.203, 18.62134
1168.685, 3.992676
1169.167, 9.949463
1169.649, 15.57666
1170.131, 13.11401
1170.614, 7.060547
1171.096, 4.337402
1171.578, 6.271240
1172.060, 16.05786
1172.542, 33.79395
1173.024, 30.01489
1173.506, 27.27539
1173.988, 47.04468
1174.470, 70.73779
1174.953, 68.25854
1175.435, 43.90967
1175.917, 43.25732
1176.399, 73.72192
1176.881, 90.83130
1177.363, 91.76221
1177.845, 83.86646
1178.327, 68.00293
1178.810, 60.51807
1179.292, 74.41797
1179.774, 91.21069
1180.256, 81.63794
1180.738, 56.43872
1181.220, 38.61841
1181.702, 31.28833
1182.184, 51.44824
1182.667, 88.61719
1183.149, 104.8955
1183.631, 92.58643
1184.113, 81.99292
1184.595, 91.35693
1185.077, 101.6670
1185.559, 98.51733
1186.041, 94.59741
1186.523, 100.0193
1187.005, 107.9951
1187.488, 110.4036
1187.970, 109.5244
1188.452, 112.7783
1188.934, 121.4502
1189.416, 127.8774
1189.898, 129.1240
1190.380, 135.4746
1190.862, 155.5166
1191.345, 159.9712
1191.827, 133.5107
1192.309, 100.2544
1192.791, 80.62329
1193.273, 73.38159
1193.755, 80.29248
1194.237, 98.44775
1194.719, 104.0364
1195.202, 99.70410
1195.684, 100.0862
1196.166, 105.8003
1196.648, 105.2688
1197.130, 94.67432
1197.612, 90.77686
1198.094, 113.2581
1198.576, 136.0049
1199.058, 128.6470
1199.541, 114.0908
1200.023, 115.9956
1200.505, 122.7051
1200.987, 106.8955
1201.469, 82.06177
1201.951, 103.4434
1202.433, 193.6230
1202.915, 233.2034
1203.397, 163.3662
1203.880, 114.5693
1204.362, 106.5662
1204.844, 107.2573
1205.326, 107.0234
1205.808, 102.6340
1206.290, 89.97607
1206.772, 72.60205
1207.254, 58.66577
1207.737, 48.77344
1208.219, 51.61963
1208.701, 66.36987
1209.183, 89.22046
1209.665, 116.6196
1210.147, 132.6550
1210.629, 131.8381
1211.111, 125.9746
1211.594, 128.6987
1212.076, 130.7063
1212.558, 117.9470
1213.040, 108.0178
1213.522, 112.4905
1214.004, 126.1509
1214.486, 152.9116
1214.968, 184.5667
1215.450, 204.3108
1215.932, 208.8127
1216.415, 201.8667
1216.897, 177.0981
1217.379, 156.8479
1217.861, 144.1921
1218.343, 147.4272
1218.825, 171.5349
1219.307, 190.2261
1219.789, 180.7800
1220.272, 160.0457
1220.754, 162.6863
1221.236, 183.0586
1221.718, 186.2090
1222.200, 177.6379
1222.682, 181.0181
1223.164, 195.9714
1223.646, 206.1682
1224.129, 207.5647
1224.611, 213.0920
1225.093, 233.8755
1225.575, 252.4023
1226.057, 255.7739
1226.539, 252.8970
1227.021, 245.5991
1227.503, 239.1497
1227.985, 237.8152
1228.468, 241.2476
1228.950, 248.1606
1229.432, 258.4890
1229.914, 272.3765
1230.396, 290.8347
1230.878, 312.5342
1231.360, 343.7161
1231.842, 345.8643
1232.324, 302.4802
1232.807, 278.6353
1233.289, 318.9072
1233.771, 375.5681
1234.253, 381.5012
1234.735, 358.4456
1235.217, 348.9568
1235.699, 349.1260
1236.181, 357.3970
1236.664, 366.2681
1237.146, 354.5049
1237.628, 326.0447
1238.110, 315.1404
1238.592, 336.8767
1239.074, 358.9106
1239.556, 376.3845
1240.038, 381.3464
1240.521, 358.9141
1241.003, 337.9753
1241.485, 335.2595
1241.967, 340.1187
1242.449, 344.2322
1242.931, 344.7307
1243.413, 330.2068
1243.895, 300.4434
1244.377, 269.2231
1244.859, 237.9531
1245.342, 238.8074
1245.824, 269.7583
1246.306, 271.7854
1246.788, 225.8550
1247.270, 183.8411
1247.752, 186.8254
1248.234, 199.9160
1248.716, 196.9990
1249.199, 181.9126
1249.681, 150.1223
1250.163, 114.6921
1250.645, 83.98560
1251.127, 62.66309
1251.609, 62.72607
1252.091, 84.84009
1252.573, 89.06519
1253.056, 66.24976
1253.538, 47.30542
1254.020, 31.68115
1254.502, 25.09058
1254.984, 29.88794
1255.466, 38.39502
1255.948, 46.51587
1256.430, 53.13599
1256.912, 58.01465
1257.395, 58.67578
1257.877, 46.19507
1258.359, 28.95264
1258.841, 23.03491
1259.323, 23.82568
1259.805, 20.47974
1260.287, 12.95361
1260.769, 7.135986
1261.251, 4.552734
1261.734, 3.939941
1262.216, 8.229492
1262.698, 9.197754
1263.180, 1.051025
1263.662, 3.670166
1264.144, 0.1000980
1264.626, 7.285889
1265.108, 14.94287
1265.591, 15.97412
1266.073, 14.59351
1266.555, 8.287354
1267.037, 0.0000000E+00
##END=



