##NAMES=Luzonite
##RRUFFID=R060390
##IDEAL CHEMISTRY=Cu_3_AsS^2-^_4_
##LOCALITY=Bern-Shan Pit, Chinkuashi mine, Taipei, Taiwan, Republic of China
##OWNER=RRUFF
##SOURCE=Michael Scott
##DESCRIPTION=Black coarse massive with two directions of obvious cleavage
##STATUS=The identification of this mineral is confirmed by single-crystal X-ray diffraction and chemical analysis.
##URL=rruff.info/R060390
##MEASURED CHEMISTRY=Cu_3.01_(As_0.85_Sb_0.15_)_Î£=1.00_S_4_
91.53320, 0.0000000E+00
92.01532, 1.259964
92.49744, 2.317360
92.97955, 3.639179
93.46167, 4.624313
93.94379, 5.111736
94.42590, 5.961765
94.90802, 6.623127
95.39014, 6.193562
95.87225, 4.419716
96.35437, 2.964352
96.83649, 2.708160
97.31860, 5.524296
97.80072, 6.291229
98.28284, 6.992439
98.76495, 7.910969
99.24707, 8.202221
99.72919, 7.901287
100.2113, 7.415947
100.6934, 6.726727
101.1755, 6.233524
101.6577, 5.327393
102.1398, 3.197769
102.6219, 0.4639090
103.1040, 1.829605
103.5861, 0.6419680
104.0682, 3.722832
104.5504, 5.626297
105.0325, 5.448635
105.5146, 4.488300
105.9967, 4.379635
106.4788, 5.660934
106.9609, 6.249603
107.4431, 5.629017
107.9252, 4.060474
108.4073, 3.154823
108.8894, 3.850571
109.3715, 5.098316
109.8536, 4.742413
110.3358, 2.348759
110.8179, 0.3624230
111.3000, 0.3654440
111.7821, 1.849407
112.2642, 3.365616
112.7463, 4.560982
113.2285, 5.358894
113.7106, 5.712513
114.1927, 5.620064
114.6748, 5.146118
115.1569, 4.291965
115.6390, 2.886703
116.1212, 1.696484
116.6033, 0.6310770
117.0854, 0.1060300
117.5675, 0.1174810
118.0496, 0.8934520
118.5317, 2.650333
119.0139, 3.766251
119.4960, 3.232418
119.9781, 3.000889
120.4602, 4.041405
120.9423, 5.621536
121.4244, 6.370770
121.9066, 5.153316
122.3887, 1.747604
122.8708, 0.2555430
123.3529, 0.5456310
123.8350, 4.2254999E-02
124.3171, 1.235504
124.7993, 2.919552
125.2814, 4.430872
125.7635, 5.167940
126.2456, 4.960640
126.7277, 4.666719
127.2098, 4.098427
127.6920, 3.559765
128.1741, 3.514938
128.6562, 4.159199
129.1383, 4.748428
129.6204, 3.855583
130.1025, 1.618605
130.5847, 7.9239003E-02
131.0668, 0.4853230
131.5489, 2.288212
132.0310, 3.739079
132.5131, 4.238895
132.9952, 4.417881
133.4774, 4.936886
133.9595, 5.803131
134.4416, 6.591145
134.9237, 6.922310
135.4058, 6.737568
135.8879, 6.288998
136.3701, 4.973705
136.8522, 3.822470
137.3343, 3.622374
137.8164, 4.554024
138.2985, 6.026716
138.7806, 6.913513
139.2628, 6.443211
139.7449, 5.896826
140.2270, 5.148024
140.7091, 4.523598
141.1912, 4.416351
141.6733, 5.001429
142.1555, 6.023615
142.6376, 6.629608
143.1197, 6.466125
143.6018, 6.041988
144.0839, 5.286224
144.5660, 4.369780
145.0482, 3.488775
145.5303, 2.707102
146.0124, 2.087667
146.4945, 2.063009
146.9766, 3.351444
147.4587, 4.396606
147.9409, 4.332462
148.4230, 3.352564
148.9051, 2.370253
149.3872, 2.082909
149.8693, 2.490988
150.3514, 3.306355
150.8336, 5.089958
151.3157, 6.793964
151.7978, 7.300192
152.2799, 6.466820
152.7620, 5.599861
153.2441, 6.104294
153.7263, 7.254360
154.2084, 7.786758
154.6905, 7.001572
155.1726, 5.477116
155.6547, 3.832096
156.1368, 1.726658
156.6190, 0.4599380
157.1011, 0.8138450
157.5832, 2.346008
158.0653, 4.284185
158.5474, 6.621828
159.0295, 9.215302
159.5117, 10.09797
159.9938, 7.201826
160.4759, 4.446753
160.9580, 3.421581
161.4401, 4.010660
161.9222, 4.982376
162.4044, 5.297440
162.8865, 4.811174
163.3686, 4.470560
163.8507, 4.216743
164.3328, 4.150717
164.8149, 4.539785
165.2971, 5.258759
165.7792, 5.787214
166.2613, 5.412243
166.7434, 3.414911
167.2255, 2.784424
167.7076, 4.994545
168.1898, 7.347750
168.6719, 7.605625
169.1540, 5.463081
169.6361, 2.658144
170.1182, 1.658653
170.6003, 3.530937
171.0825, 4.538027
171.5646, 3.613058
172.0467, 2.088558
172.5288, 1.568462
173.0109, 2.567953
173.4930, 4.251965
173.9752, 5.331551
174.4573, 5.806053
174.9394, 6.071972
175.4215, 6.455526
175.9036, 6.774466
176.3857, 6.375290
176.8679, 4.669559
177.3500, 2.775082
177.8321, 2.268612
178.3142, 3.233694
178.7963, 4.354733
179.2784, 4.924067
179.7606, 4.974348
180.2427, 4.739426
180.7248, 3.908699
181.2069, 3.127459
181.6890, 3.125076
182.1711, 3.978848
182.6533, 4.842363
183.1354, 4.901989
183.6175, 4.082487
184.0996, 3.019053
184.5817, 1.074553
185.0638, 0.5894130
185.5460, 1.280039
186.0281, 0.8439940
186.5102, 0.4749390
186.9923, 2.529615
187.4744, 5.766872
187.9565, 8.505215
188.4387, 11.31079
188.9208, 13.20070
189.4029, 12.93058
189.8850, 10.21945
190.3671, 6.467373
190.8492, 4.414618
191.3314, 5.759533
191.8135, 6.114504
192.2956, 4.437099
192.7777, 2.161123
193.2598, 0.4273910
193.7419, 0.2962910
194.2241, 0.1484260
194.7062, 0.5514300
195.1883, 2.504374
195.6704, 4.265707
196.1525, 6.323540
196.6346, 7.998730
197.1168, 8.183979
197.5989, 6.331684
198.0810, 3.379520
198.5631, 2.102406
199.0452, 4.108097
199.5273, 5.549696
200.0095, 5.419750
200.4916, 4.388765
200.9737, 3.538332
201.4558, 3.348097
201.9379, 3.627005
202.4200, 3.873713
202.9022, 4.056374
203.3843, 4.264198
203.8664, 4.750656
204.3485, 5.322927
204.8306, 5.435177
205.3127, 4.817762
205.7949, 3.587507
206.2770, 1.986382
206.7591, 0.4033830
207.2412, 2.289206
207.7233, 2.732475
208.2054, 1.910748
208.6876, 0.8997480
209.1697, 0.1195810
209.6518, 0.6342770
210.1339, 1.876728
210.6160, 4.008204
211.0981, 5.502178
211.5803, 4.311863
212.0624, 0.4262640
212.5445, 2.068363
213.0266, 0.4368550
213.5087, 2.514164
213.9908, 4.205441
214.4730, 4.164066
214.9551, 3.370016
215.4372, 2.704784
215.9193, 2.138769
216.4014, 1.809324
216.8836, 2.016720
217.3657, 2.322432
217.8478, 2.302116
218.3299, 1.835394
218.8120, 1.479628
219.2941, 2.303787
219.7763, 5.002071
220.2584, 6.547157
220.7405, 5.637934
221.2226, 3.936621
221.7047, 2.273201
222.1868, 0.9223060
222.6690, 0.1327900
223.1511, 0.5248280
223.6332, 3.034782
224.1153, 4.558723
224.5974, 4.360191
225.0795, 3.518150
225.5617, 2.596025
226.0438, 1.806932
226.5259, 1.319431
227.0080, 1.535618
227.4901, 3.222160
227.9722, 4.159433
228.4544, 3.958435
228.9365, 3.310837
229.4186, 2.686562
229.9007, 2.237240
230.3828, 1.871887
230.8649, 1.416231
231.3471, 0.5267490
231.8292, 0.1458910
232.3113, 0.6290090
232.7934, 1.359802
233.2755, 1.865435
233.7576, 2.005459
234.2398, 1.907677
234.7219, 1.752180
235.2040, 1.234213
235.6861, 1.258257
236.1682, 2.395327
236.6503, 3.764326
237.1325, 4.594254
237.6146, 4.675098
238.0967, 4.230947
238.5788, 3.482117
239.0609, 1.927059
239.5430, 1.370600
240.0252, 2.696356
240.5073, 4.651144
240.9894, 6.092442
241.4715, 6.751823
241.9536, 6.809542
242.4357, 6.374317
242.9179, 5.222527
243.4000, 4.324585
243.8821, 3.898251
244.3642, 3.857864
244.8463, 4.075642
245.3284, 4.545513
245.8106, 5.095184
246.2927, 5.723629
246.7748, 6.479675
247.2569, 6.330931
247.7390, 4.070232
248.2211, 1.274204
248.7033, 3.5710000E-03
249.1854, 0.6613830
249.6675, 1.885904
250.1496, 2.337769
250.6317, 2.124861
251.1138, 1.904024
251.5960, 1.607534
252.0781, 1.466509
252.5602, 1.890705
253.0423, 3.001583
253.5244, 4.057110
254.0065, 4.216587
254.4887, 3.773251
254.9708, 3.511192
255.4529, 3.790800
255.9350, 4.293507
256.4171, 4.697634
256.8992, 5.082153
257.3813, 5.002537
257.8635, 3.246515
258.3456, 0.8593810
258.8277, 0.2643320
259.3098, 1.131742
259.7919, 3.659405
260.2740, 5.500191
260.7562, 6.658117
261.2383, 7.107183
261.7204, 6.294403
262.2025, 4.880987
262.6846, 3.576267
263.1667, 2.445902
263.6489, 1.676800
264.1310, 1.605026
264.6131, 2.310072
265.0952, 3.105988
265.5773, 4.377529
266.0594, 5.543461
266.5416, 5.818682
267.0237, 4.783167
267.5058, 3.255669
267.9879, 2.340797
268.4700, 2.127327
268.9521, 2.109867
269.4343, 2.245188
269.9164, 2.442125
270.3985, 2.441360
270.8806, 2.414598
271.3627, 2.613295
271.8448, 3.819910
272.3270, 6.500732
272.8091, 7.770729
273.2912, 5.236851
273.7733, 2.111286
274.2554, 0.2950120
274.7375, 0.1105310
275.2197, 0.7460420
275.7018, 1.525776
276.1839, 2.551594
276.6660, 3.044367
277.1481, 2.312458
277.6302, 1.417450
278.1124, 0.7871800
278.5945, 0.4878600
279.0766, 0.4634040
279.5587, 0.7848910
280.0408, 1.526043
280.5229, 1.947289
281.0051, 1.683018
281.4872, 1.381382
281.9693, 1.071667
282.4514, 0.9185010
282.9335, 1.319672
283.4156, 3.063725
283.8978, 6.216179
284.3799, 7.592873
284.8620, 5.453838
285.3441, 3.155613
285.8262, 1.481489
286.3083, 0.5429400
286.7905, 0.4157790
287.2726, 1.347078
287.7547, 3.183052
288.2368, 4.426823
288.7189, 4.844585
289.2010, 4.865368
289.6832, 4.379837
290.1653, 3.639189
290.6474, 2.906136
291.1295, 2.267538
291.6116, 1.861723
292.0938, 2.361280
292.5759, 4.855169
293.0580, 6.685951
293.5401, 6.989677
294.0222, 6.555779
294.5043, 6.232384
294.9865, 6.396149
295.4686, 6.886120
295.9507, 7.318937
296.4328, 7.656162
296.9149, 8.037178
297.3970, 8.461880
297.8792, 8.877579
298.3613, 9.199650
298.8434, 9.443796
299.3255, 9.825750
299.8076, 10.84564
300.2897, 13.18146
300.7719, 14.57697
301.2540, 14.15233
301.7361, 13.47584
302.2182, 13.47356
302.7003, 14.32401
303.1824, 15.69628
303.6646, 17.34546
304.1467, 19.53607
304.6288, 20.99174
305.1109, 20.97230
305.5930, 20.91851
306.0751, 21.60131
306.5573, 22.91769
307.0394, 24.22586
307.5215, 24.88642
308.0036, 24.83311
308.4857, 25.16673
308.9678, 26.54378
309.4500, 27.67460
309.9321, 27.89777
310.4142, 27.59130
310.8963, 27.59035
311.3784, 28.52125
311.8605, 30.22206
312.3427, 31.39210
312.8248, 31.49538
313.3069, 31.70092
313.7890, 32.39252
314.2711, 33.14991
314.7532, 33.69365
315.2354, 33.85674
315.7175, 33.61652
316.1996, 32.84056
316.6817, 30.87574
317.1638, 29.41153
317.6459, 28.66388
318.1281, 28.40723
318.6102, 28.61191
319.0923, 29.22151
319.5744, 29.88255
320.0565, 30.07621
320.5386, 29.94677
321.0208, 28.93514
321.5029, 26.41403
321.9850, 23.60911
322.4671, 21.10416
322.9492, 19.05134
323.4313, 17.46555
323.9135, 16.51864
324.3956, 16.49574
324.8777, 15.63801
325.3598, 13.08410
325.8419, 10.48890
326.3240, 8.175087
326.8062, 6.323145
327.2883, 5.170811
327.7704, 5.012743
328.2525, 5.782293
328.7346, 6.267675
329.2167, 6.504097
329.6989, 6.365211
330.1810, 5.651550
330.6631, 4.599735
331.1452, 3.550768
331.6273, 2.605486
332.1094, 1.709473
332.5916, 0.9487760
333.0737, 0.1774220
333.5558, 0.1098690
334.0379, 0.6308080
334.5200, 1.576529
335.0021, 1.853746
335.4843, 1.197859
335.9664, 0.2050950
336.4485, 7.6912001E-02
336.9306, 0.7367320
337.4127, 1.102186
337.8948, 0.1482560
338.3770, 0.7282620
338.8591, 0.5314180
339.3412, 0.7226140
339.8233, 2.154564
340.3055, 2.896429
340.7876, 2.888626
341.2697, 2.767445
341.7518, 2.553185
342.2339, 2.224094
342.7160, 1.508419
343.1982, 0.5739100
343.6803, 4.3198001E-02
344.1624, 0.1357710
344.6445, 0.9223250
345.1266, 1.319847
345.6087, 0.9186920
346.0909, 0.8074860
346.5730, 1.617344
347.0551, 2.783159
347.5372, 3.537603
348.0193, 3.512539
348.5014, 3.161268
348.9836, 3.494032
349.4657, 4.940681
349.9478, 5.611938
350.4299, 4.175241
350.9120, 2.288065
351.3941, 1.167818
351.8763, 1.037678
352.3584, 1.213455
352.8405, 1.004196
353.3226, 0.3963450
353.8047, 0.1671540
354.2868, 0.9077340
354.7690, 1.264269
355.2511, 0.6335930
355.7332, 0.7578510
356.2153, 1.948709
356.6974, 2.070505
357.1795, 1.450167
357.6617, 1.446375
358.1438, 2.428654
358.6259, 3.484970
359.1080, 4.166368
359.5901, 4.472977
360.0722, 4.300188
360.5544, 3.137867
361.0365, 1.992182
361.5186, 2.713648
362.0007, 5.629463
362.4828, 7.778683
362.9649, 7.408287
363.4471, 5.921312
363.9292, 4.821922
364.4113, 4.248783
364.8934, 4.119753
365.3755, 4.636908
365.8576, 5.615198
366.3398, 6.250256
366.8219, 6.319294
367.3040, 6.078623
367.7861, 5.874275
368.2682, 5.706764
368.7503, 5.246214
369.2325, 4.027929
369.7146, 2.441950
370.1967, 0.9150410
370.6788, 0.6425080
371.1609, 1.313629
371.6430, 0.5151370
372.1252, 3.885170
372.6073, 5.532930
373.0894, 3.177155
373.5715, 0.4357050
374.0536, 0.5674950
374.5357, 3.103437
375.0179, 5.259277
375.5000, 5.677765
375.9821, 4.856636
376.4642, 3.932081
376.9463, 2.626102
377.4284, 1.844269
377.9106, 2.530100
378.3927, 3.831131
378.8748, 4.053268
379.3569, 2.641403
379.8390, 0.9327350
380.3211, 0.7977100
380.8033, 2.632662
381.2854, 3.716805
381.7675, 3.424202
382.2496, 2.624010
382.7317, 1.818449
383.2138, 1.109819
383.6960, 0.6301960
384.1781, 0.4772000
384.6602, 0.6470360
385.1423, 1.048920
385.6244, 2.200603
386.1065, 2.968742
386.5887, 2.831966
387.0708, 2.086699
387.5529, 1.116022
388.0350, 6.1012000E-02
388.5171, 0.8449970
388.9992, 1.082588
389.4814, 8.2987003E-02
389.9635, 0.7617320
390.4456, 1.329428
390.9277, 1.826614
391.4098, 2.590502
391.8919, 3.568506
392.3741, 4.215513
392.8562, 3.888531
393.3383, 2.400480
393.8204, 1.578964
394.3025, 2.015760
394.7846, 2.429070
395.2668, 2.330378
395.7489, 1.897223
396.2310, 1.499315
396.7131, 1.387417
397.1952, 1.497021
397.6773, 1.602222
398.1595, 1.908709
398.6416, 1.839148
399.1237, 0.8338200
399.6058, 0.2373280
400.0879, 0.5655060
400.5700, 5.8519999E-03
401.0522, 0.9340420
401.5343, 1.459295
402.0164, 1.404755
402.4985, 2.028000
402.9806, 4.382772
403.4627, 6.469400
403.9449, 7.521603
404.4270, 7.608765
404.9091, 6.992773
405.3912, 5.514381
405.8733, 3.607494
406.3554, 2.697504
406.8376, 3.068371
407.3197, 3.725571
407.8018, 4.744251
408.2839, 5.628117
408.7660, 5.697981
409.2481, 4.673580
409.7303, 3.491385
410.2124, 3.184700
410.6945, 3.690805
411.1766, 3.957731
411.6587, 3.525021
412.1408, 3.075504
412.6230, 3.609457
413.1051, 4.975159
413.5872, 5.617458
414.0693, 4.359114
414.5514, 2.147570
415.0335, 0.2609060
415.5157, 1.302633
415.9978, 1.928564
416.4799, 0.5428710
416.9620, 2.101269
417.4441, 3.562973
417.9262, 3.108850
418.4084, 2.320850
418.8905, 1.736073
419.3726, 1.495123
419.8547, 2.325880
420.3368, 4.844976
420.8189, 7.451662
421.3011, 7.259680
421.7832, 3.434168
422.2653, 0.7036420
422.7474, 4.5067001E-02
423.2295, 0.3629300
423.7116, 1.085749
424.1938, 1.988428
424.6759, 2.457144
425.1580, 1.892302
425.6401, 0.3885710
426.1222, 0.2857990
426.6043, 0.3400420
427.0865, 1.106894
427.5686, 1.963486
428.0507, 2.717924
428.5328, 3.016094
429.0149, 2.741575
429.4970, 2.323906
429.9792, 2.255123
430.4613, 2.722786
430.9434, 3.144396
431.4255, 3.390039
431.9076, 3.709810
432.3897, 4.519775
432.8719, 5.588009
433.3540, 6.134218
433.8361, 5.383381
434.3182, 3.610680
434.8003, 2.856613
435.2824, 3.790462
435.7646, 4.769201
436.2467, 5.538275
436.7288, 6.064352
437.2109, 6.223026
437.6930, 5.970688
438.1751, 5.647621
438.6573, 5.705490
439.1394, 6.172913
439.6215, 6.672455
440.1036, 7.552334
440.5857, 7.974236
441.0678, 7.161093
441.5500, 5.404268
442.0321, 3.813732
442.5142, 2.918232
442.9963, 2.549515
443.4784, 2.406445
443.9605, 2.483910
444.4427, 2.867178
444.9248, 3.987036
445.4069, 5.235756
445.8890, 5.435251
446.3711, 4.021231
446.8532, 2.872095
447.3354, 3.619240
447.8175, 5.334967
448.2996, 6.030706
448.7817, 5.216253
449.2638, 3.669271
449.7459, 1.983971
450.2281, 0.1053770
450.7102, 0.8613530
451.1923, 0.5187110
451.6744, 0.4667680
452.1565, 2.250671
452.6386, 4.395895
453.1208, 5.638290
453.6029, 5.243393
454.0850, 3.802057
454.5671, 2.947330
455.0492, 2.937277
455.5313, 3.221754
456.0135, 4.354696
456.4956, 5.403706
456.9777, 5.376982
457.4598, 4.279709
457.9419, 3.158598
458.4240, 3.113321
458.9062, 4.152088
459.3883, 4.720469
459.8704, 4.366753
460.3525, 4.025505
460.8346, 3.750309
461.3167, 3.655970
461.7989, 3.881180
462.2810, 4.481424
462.7631, 5.354797
463.2452, 6.704548
463.7273, 8.876493
464.2094, 9.391829
464.6916, 6.169123
465.1737, 2.858458
465.6558, 1.752859
466.1379, 2.448887
466.6200, 3.145929
467.1021, 2.631783
467.5843, 1.589733
468.0664, 1.415028
468.5485, 2.187906
469.0306, 3.307817
469.5127, 5.067198
469.9948, 6.658762
470.4770, 6.769684
470.9591, 5.025206
471.4412, 3.054104
471.9233, 1.251791
472.4054, 0.1309170
472.8875, 0.4596600
473.3697, 0.3432220
473.8518, 1.485809
474.3339, 2.426954
474.8160, 3.118881
475.2981, 3.514742
475.7802, 3.803982
476.2624, 3.611319
476.7445, 2.251812
477.2266, 0.3696730
477.7087, 0.8189280
478.1908, 0.8376710
478.6729, 9.0760998E-02
479.1551, 0.7196140
479.6372, 1.655445
480.1193, 2.506283
480.6014, 3.435316
481.0835, 4.164865
481.5656, 4.381138
482.0478, 4.180185
482.5299, 4.038448
483.0120, 4.288294
483.4941, 4.742859
483.9762, 4.704044
484.4583, 3.973392
484.9405, 3.354179
485.4226, 3.075027
485.9047, 2.883095
486.3868, 2.522472
486.8689, 1.988182
487.3510, 1.594965
487.8332, 1.693190
488.3153, 2.181185
488.7974, 2.536270
489.2795, 2.652740
489.7616, 2.854252
490.2437, 3.591194
490.7259, 4.476461
491.2080, 4.880640
491.6901, 4.507269
492.1722, 3.997274
492.6543, 3.791603
493.1364, 3.815857
493.6186, 3.895960
494.1007, 4.019073
494.5828, 4.041849
495.0649, 3.701180
495.5470, 2.938768
496.0291, 2.616278
496.5113, 3.076332
496.9934, 3.688950
497.4755, 4.161331
497.9576, 4.488592
498.4397, 4.766415
498.9218, 5.107069
499.4040, 5.259628
499.8861, 4.811241
500.3682, 2.836168
500.8503, 2.066690
501.3324, 3.618858
501.8145, 5.276745
502.2967, 5.710068
502.7788, 5.001621
503.2609, 3.855375
503.7430, 2.624409
504.2251, 1.486958
504.7072, 1.324341
505.1894, 2.882704
505.6715, 3.690880
506.1536, 2.324417
506.6357, 0.5016780
507.1178, 0.4815270
507.5999, 0.4627360
508.0821, 6.8963997E-02
508.5642, 0.2694760
509.0463, 0.6883680
509.5284, 1.555477
510.0105, 3.039680
510.4926, 4.032019
510.9748, 3.278797
511.4569, 1.702589
511.9390, 1.580956
512.4211, 4.016043
512.9032, 6.103828
513.3853, 6.030132
513.8674, 4.762936
514.3495, 3.985222
514.8317, 4.067375
515.3138, 4.339605
515.7959, 4.103481
516.2780, 3.308411
516.7601, 2.746582
517.2422, 2.241007
517.7244, 2.120684
518.2065, 2.965704
518.6886, 4.108940
519.1707, 4.537794
519.6528, 3.913826
520.1349, 2.808111
520.6171, 2.086948
521.0992, 1.864607
521.5813, 1.557272
522.0634, 0.7114580
522.5455, 0.2508660
523.0276, 0.7720510
523.5098, 1.885174
523.9919, 2.929317
524.4740, 3.735147
524.9561, 4.048664
525.4382, 3.286974
525.9203, 1.422791
526.4025, 0.3560200
526.8846, 0.9646320
527.3667, 1.930971
527.8488, 1.772915
528.3309, 0.7181930
528.8130, 0.2980060
529.2952, 1.582867
529.7773, 2.961962
530.2594, 2.579895
530.7415, 0.9548660
531.2236, 0.2918760
531.7057, 1.683449
532.1879, 3.955109
532.6700, 4.813879
533.1521, 3.313114
533.6342, 2.532980
534.1163, 3.071825
534.5984, 3.882538
535.0806, 4.324011
535.5627, 4.373310
536.0448, 4.491419
536.5269, 5.027617
537.0090, 5.593288
537.4911, 4.895802
537.9733, 1.900015
538.4554, 8.4601998E-02
538.9375, 0.3784580
539.4196, 0.1526910
539.9017, 1.473583
540.3839, 3.267977
540.8660, 4.558313
541.3481, 4.455540
541.8302, 3.574791
542.3123, 3.437977
542.7944, 4.182936
543.2766, 4.403204
543.7587, 3.081139
544.2408, 1.341743
544.7229, 0.9897940
545.2050, 2.224335
545.6871, 2.999159
546.1693, 2.140368
546.6514, 0.7683410
547.1335, 2.0021001E-02
547.6156, 4.1912001E-02
548.0977, 0.2525750
548.5798, 0.7180160
549.0620, 1.375532
549.5441, 2.291340
550.0262, 4.521965
550.5083, 5.547131
550.9904, 4.410345
551.4725, 2.779911
551.9547, 1.717199
552.4368, 1.357815
552.9189, 1.511469
553.4010, 2.150661
553.8831, 3.066851
554.3652, 3.406992
554.8474, 3.064886
555.3295, 2.410065
555.8116, 0.5787320
556.2937, 0.8619160
556.7758, 0.2510850
557.2579, 2.297562
557.7401, 4.398218
558.2222, 4.345690
558.7043, 3.069794
559.1864, 2.046803
559.6685, 1.322773
560.1506, 0.8381900
560.6328, 0.5286290
561.1149, 0.4802300
561.5970, 1.028801
562.0791, 2.472204
562.5612, 3.443085
563.0433, 3.224384
563.5255, 2.782524
564.0076, 2.958553
564.4897, 3.706882
564.9718, 4.529455
565.4539, 5.208092
565.9360, 5.677364
566.4182, 5.585880
566.9003, 4.591722
567.3824, 3.642349
567.8645, 2.347757
568.3466, 1.489193
568.8287, 2.033121
569.3109, 3.557140
569.7930, 4.486170
570.2751, 3.515938
570.7572, 1.685461
571.2393, 1.366764
571.7214, 2.704973
572.2036, 3.800484
572.6857, 4.077457
573.1678, 3.817934
573.6499, 3.220741
574.1320, 2.298512
574.6141, 1.617195
575.0963, 1.066463
575.5784, 1.032450
576.0605, 2.441790
576.5426, 4.743807
577.0247, 6.009468
577.5068, 5.280678
577.9890, 3.577488
578.4711, 2.843473
578.9532, 3.695311
579.4353, 3.951870
579.9174, 3.379036
580.3995, 2.526678
580.8817, 1.224611
581.3638, 8.2230002E-02
581.8459, 0.5697880
582.3280, 0.1921140
582.8101, 1.594730
583.2922, 2.896729
583.7744, 4.148645
584.2565, 4.433899
584.7386, 3.233854
585.2207, 1.590122
585.7029, 0.2275280
586.1850, 1.910543
586.6671, 2.568205
587.1492, 1.548223
587.6313, 3.7367001E-02
588.1135, 1.260778
588.5956, 2.379442
589.0777, 3.511946
589.5598, 4.723307
590.0419, 5.488909
590.5240, 5.108971
591.0062, 3.505802
591.4883, 2.609705
591.9704, 2.759989
592.4525, 3.157190
592.9346, 3.782249
593.4167, 4.346325
593.8989, 4.535778
594.3810, 4.290977
594.8631, 3.827127
595.3452, 3.160946
595.8273, 2.380219
596.3094, 2.690729
596.7916, 4.865284
597.2737, 6.379549
597.7558, 5.367176
598.2379, 3.461485
598.7200, 2.374243
599.2021, 2.355949
599.6843, 2.447750
600.1664, 1.856094
600.6485, 1.232157
601.1306, 1.736465
601.6127, 3.317368
602.0948, 4.754965
602.5770, 5.341200
603.0591, 5.319002
603.5412, 5.360012
604.0233, 5.695665
604.5054, 5.694036
604.9875, 4.978430
605.4697, 4.256960
605.9518, 4.005119
606.4339, 4.136475
606.9160, 4.390429
607.3981, 4.663040
607.8802, 4.792957
608.3624, 4.370323
608.8445, 3.212376
609.3266, 2.379070
609.8087, 2.274698
610.2908, 2.446274
610.7729, 2.607492
611.2551, 2.762911
611.7372, 2.933819
612.2193, 3.218943
612.7014, 3.404472
613.1835, 2.969397
613.6656, 2.374498
614.1478, 2.957104
614.6299, 5.133305
615.1120, 7.020243
615.5941, 6.517656
616.0762, 3.608366
616.5583, 2.014584
617.0405, 3.036348
617.5226, 3.737207
618.0047, 3.114960
618.4868, 2.276857
618.9689, 2.493782
619.4510, 3.829836
619.9332, 5.173937
620.4153, 5.511576
620.8974, 5.130802
621.3795, 5.131487
621.8616, 5.635809
622.3438, 5.836889
622.8259, 5.147484
623.3080, 4.265139
623.7901, 4.107121
624.2722, 4.690508
624.7543, 5.503229
625.2365, 6.903355
625.7186, 8.070135
626.2007, 8.162407
626.6828, 7.440498
627.1649, 6.728191
627.6470, 6.355700
628.1292, 5.980042
628.6113, 4.914454
629.0934, 2.764671
629.5755, 1.572044
630.0576, 1.882692
630.5397, 2.625994
631.0219, 4.017595
631.5040, 5.464184
631.9861, 6.109365
632.4682, 5.688337
632.9503, 4.973574
633.4324, 4.710812
633.9146, 4.695612
634.3967, 4.427771
634.8788, 3.836449
635.3609, 3.545847
635.8430, 4.132654
636.3251, 5.159128
636.8073, 5.244764
637.2894, 3.775120
637.7715, 2.971575
638.2536, 3.943682
638.7357, 5.065521
639.2178, 4.900661
639.7000, 3.729334
640.1821, 2.857143
640.6642, 2.949032
641.1463, 3.462252
641.6284, 3.138035
642.1105, 1.679232
642.5927, 1.022020
643.0748, 1.914356
643.5569, 2.888191
644.0390, 2.926598
644.5211, 2.448166
645.0032, 2.290995
645.4854, 2.750113
645.9675, 3.264885
646.4496, 3.572554
646.9317, 3.703350
647.4138, 3.805088
647.8959, 3.872866
648.3781, 3.463140
648.8602, 2.113323
649.3423, 0.1430450
649.8244, 0.8902720
650.3065, 0.5005720
650.7886, 0.1485750
651.2708, 1.440990
651.7529, 2.602188
652.2350, 3.052794
652.7171, 2.916243
653.1992, 2.689903
653.6813, 2.436934
654.1635, 2.313704
654.6456, 2.717813
655.1277, 3.558966
655.6098, 3.583256
656.0919, 2.136473
656.5740, 0.6934950
657.0562, 0.5983030
657.5383, 1.678377
658.0204, 2.406612
658.5025, 2.605520
658.9846, 2.669737
659.4667, 2.771894
659.9489, 2.755531
660.4310, 2.254385
660.9131, 1.386360
661.3952, 0.8666000
661.8773, 1.313919
662.3594, 2.314550
662.8416, 2.396954
663.3237, 1.226830
663.8058, 0.3824710
664.2879, 0.4442160
664.7700, 0.5945550
665.2521, 8.8724002E-02
665.7343, 1.216284
666.2164, 1.408035
666.6985, 0.4277400
667.1806, 2.387465
667.6627, 2.876488
668.1448, 2.555500
668.6270, 2.805132
669.1091, 3.847937
669.5912, 4.703457
670.0733, 4.440928
670.5554, 3.259171
671.0375, 2.611015
671.5197, 2.974926
672.0018, 3.095936
672.4839, 2.363144
672.9660, 1.771082
673.4481, 2.287746
673.9302, 3.594273
674.4124, 4.458666
674.8945, 4.021315
675.3766, 3.243946
675.8587, 3.506781
676.3408, 4.540350
676.8229, 5.047680
677.3051, 4.708710
677.7872, 4.095106
678.2693, 3.701546
678.7514, 3.498402
679.2335, 3.140127
679.7156, 2.405167
680.1978, 1.826031
680.6799, 1.331190
681.1620, 1.136316
681.6441, 1.730442
682.1262, 2.837992
682.6083, 3.421944
683.0905, 2.728266
683.5726, 1.401154
684.0547, 0.4443570
684.5368, 0.1384540
685.0189, 0.3207930
685.5010, 2.402575
685.9832, 4.513954
686.4653, 5.228367
686.9474, 4.788099
687.4295, 4.549255
687.9116, 4.817528
688.3937, 4.915503
688.8759, 4.821617
689.3580, 4.350363
689.8401, 2.846104
690.3222, 0.6618060
690.8043, 0.7452430
691.2864, 0.2939570
691.7686, 1.320827
692.2507, 2.412148
692.7328, 2.976080
693.2149, 3.347986
693.6970, 3.534250
694.1791, 3.576078
694.6613, 3.521416
695.1434, 3.345827
695.6255, 2.939856
696.1076, 2.088329
696.5897, 1.413378
697.0718, 1.263443
697.5540, 1.404345
698.0361, 1.666260
698.5182, 1.961969
699.0003, 2.092875
699.4824, 1.931847
699.9645, 1.560360
700.4467, 1.089840
700.9288, 0.3421610
701.4109, 0.1798150
701.8930, 0.9601920
702.3751, 1.973461
702.8572, 3.065269
703.3394, 4.076797
703.8215, 4.684366
704.3036, 4.720417
704.7857, 4.761314
705.2678, 5.640511
705.7499, 6.443611
706.2321, 5.322533
706.7142, 2.659401
707.1963, 1.103670
707.6784, 2.077805
708.1605, 4.366955
708.6426, 5.467846
709.1248, 5.201134
709.6069, 4.254778
710.0890, 1.259701
710.5711, 0.7799800
711.0532, 0.1082020
711.5353, 2.079710
712.0175, 2.487602
712.4996, 0.7428860
712.9817, 0.6894040
713.4638, 1.1707000E-02
713.9459, 1.762369
714.4280, 3.415298
714.9102, 4.791416
715.3923, 5.344643
715.8744, 4.778992
716.3565, 3.788258
716.8386, 3.434996
717.3207, 3.878397
717.8029, 3.809898
718.2850, 2.453218
718.7671, 1.553940
719.2492, 1.959948
719.7313, 2.711227
720.2134, 2.747673
720.6956, 2.011883
721.1777, 1.426662
721.6598, 1.580141
722.1419, 2.149158
722.6240, 3.116600
723.1061, 4.202120
723.5883, 3.911562
724.0704, 1.785837
724.5525, 0.1796510
725.0346, 6.0371000E-02
725.5167, 2.431185
725.9988, 4.043806
726.4810, 4.528872
726.9631, 4.759413
727.4452, 5.020403
727.9273, 4.939980
728.4094, 3.815941
728.8915, 2.025898
729.3737, 0.9943220
729.8558, 1.661619
730.3379, 2.859324
730.8200, 3.573572
731.3021, 3.772224
731.7842, 3.519682
732.2664, 2.831127
732.7485, 1.971052
733.2306, 0.9923710
733.7127, 0.1699730
734.1948, 0.7118240
734.6769, 4.297659
735.1591, 6.161535
735.6412, 4.741037
736.1233, 3.153543
736.6054, 3.363058
737.0875, 4.448885
737.5696, 4.306709
738.0518, 2.016640
738.5339, 2.1240000E-02
739.0160, 0.8946080
739.4981, 3.139091
739.9802, 3.974396
740.4623, 3.314257
740.9445, 2.263868
741.4266, 1.278790
741.9087, 0.6706100
742.3908, 1.164717
742.8729, 3.345577
743.3550, 4.161386
743.8372, 2.098358
744.3193, 0.4654480
744.8014, 0.4797170
745.2835, 1.174089
745.7656, 1.466698
746.2477, 1.219929
746.7299, 1.039318
747.2120, 1.675648
747.6941, 2.238279
748.1762, 1.160137
748.6583, 0.9296860
749.1404, 1.687241
749.6226, 0.4881340
750.1047, 1.340034
750.5868, 2.526865
751.0689, 3.099491
751.5510, 3.369421
752.0331, 3.147787
752.5153, 3.005474
752.9974, 2.815989
753.4795, 2.860744
753.9616, 3.795221
754.4437, 5.170534
754.9258, 5.525013
755.4080, 3.871979
755.8901, 2.160025
756.3722, 1.744982
756.8543, 2.092260
757.3364, 2.674232
757.8185, 3.275726
758.3007, 3.225843
758.7828, 2.018026
759.2649, 0.5357280
759.7470, 1.013222
760.2291, 4.212481
760.7112, 5.612480
761.1934, 4.075624
761.6755, 2.350334
762.1576, 1.498257
762.6397, 1.296942
763.1218, 1.754337
763.6039, 3.008400
764.0861, 3.620049
764.5682, 2.180214
765.0503, 0.7552090
765.5324, 1.443956
766.0145, 3.249514
766.4966, 3.890669
766.9788, 2.835623
767.4609, 1.792858
767.9430, 2.713608
768.4251, 4.943947
768.9072, 5.286732
769.3893, 3.290974
769.8715, 1.359325
770.3536, 0.1415330
770.8357, 1.144770
771.3178, 1.289331
771.7999, 0.7322370
772.2820, 0.1002730
772.7642, 0.6668990
773.2463, 1.379158
773.7284, 1.928055
774.2105, 2.445509
774.6926, 3.392757
775.1747, 4.412527
775.6569, 4.282953
776.1390, 2.279276
776.6211, 3.5776000E-02
777.1032, 0.1338880
777.5853, 2.124088
778.0674, 3.136448
778.5496, 2.917500
779.0317, 2.490482
779.5138, 2.318911
779.9959, 2.269939
780.4780, 2.062807
780.9601, 1.544641
781.4423, 1.522148
781.9244, 2.413733
782.4065, 3.248213
782.8886, 3.830673
783.3707, 4.181030
783.8528, 4.340286
784.3350, 4.317905
784.8171, 4.096628
785.2992, 3.465361
785.7813, 2.854013
786.2634, 3.208193
786.7455, 4.063871
787.2277, 3.500456
787.7098, 1.176723
788.1919, 0.5912550
788.6740, 0.1672760
789.1561, 2.663803
789.6382, 3.971443
790.1204, 3.522867
790.6025, 3.249773
791.0846, 3.680204
791.5667, 3.803806
792.0488, 2.726418
792.5309, 1.238173
793.0131, 0.6071530
793.4952, 1.116634
793.9773, 1.922148
794.4594, 2.974026
794.9415, 3.857777
795.4236, 4.089914
795.9058, 3.849899
796.3879, 3.578850
796.8700, 3.431976
797.3521, 3.206274
797.8342, 2.568451
798.3163, 1.732475
798.7985, 1.881580
799.2806, 3.155268
799.7627, 4.709791
800.2448, 6.841192
800.7269, 8.396858
801.2090, 8.029724
801.6912, 6.130970
802.1733, 4.955278
802.6554, 4.760101
803.1375, 4.887354
803.6196, 5.857864
804.1017, 6.535738
804.5839, 5.534645
805.0660, 3.703215
805.5481, 3.029182
806.0302, 4.252279
806.5123, 5.735521
806.9944, 5.888121
807.4766, 5.278105
807.9587, 5.099844
808.4408, 5.264078
808.9229, 4.433630
809.4050, 1.923967
809.8871, 0.4585970
810.3693, 0.4264550
810.8514, 1.995436
811.3335, 3.942028
811.8156, 5.645432
812.2977, 6.477531
812.7798, 5.794596
813.2620, 4.750147
813.7441, 3.934782
814.2262, 3.384949
814.7083, 3.105959
815.1904, 3.236540
815.6725, 3.290848
816.1547, 2.644754
816.6368, 2.019577
817.1189, 2.546850
817.6010, 3.870108
818.0831, 4.648308
818.5652, 4.317904
819.0474, 3.587160
819.5295, 3.345371
820.0116, 3.586330
820.4937, 3.987411
820.9758, 4.655685
821.4579, 4.715033
821.9401, 3.556845
822.4222, 2.266832
822.9043, 2.200216
823.3864, 3.275770
823.8685, 3.351292
824.3506, 0.9744150
824.8328, 0.3224660
825.3149, 0.8946300
825.7970, 2.561445
826.2791, 3.384083
826.7612, 3.399067
827.2433, 2.882528
827.7255, 1.820549
828.2076, 1.119534
828.6897, 1.987171
829.1718, 3.485874
829.6539, 4.013044
830.1360, 3.636881
830.6182, 2.932728
831.1003, 2.114073
831.5824, 1.575296
832.0645, 1.871080
832.5466, 2.911539
833.0287, 3.719114
833.5109, 4.347145
833.9930, 4.007959
834.4751, 1.560482
834.9572, 0.6625390
835.4393, 0.1159000
835.9214, 2.177443
836.4036, 3.182091
836.8857, 1.955395
837.3678, 0.8904740
837.8499, 0.5604310
838.3320, 0.5992600
838.8141, 0.9905050
839.2963, 1.480158
839.7784, 1.470261
840.2605, 0.8401470
840.7426, 0.6221120
841.2247, 2.345503
841.7068, 4.833084
842.1890, 5.692577
842.6711, 5.140192
843.1532, 4.207819
843.6353, 3.140820
844.1174, 2.446905
844.5995, 2.648457
845.0817, 3.517826
845.5638, 4.061916
846.0459, 4.297094
846.5280, 4.052732
847.0101, 2.673594
847.4922, 1.586464
847.9744, 1.820353
848.4565, 2.582167
848.9386, 2.705343
849.4207, 1.998491
849.9028, 1.397741
850.3849, 0.8561170
850.8671, 0.9070010
851.3492, 2.429306
851.8313, 4.327503
852.3134, 5.131447
852.7955, 4.748360
853.2776, 4.198236
853.7598, 4.172575
854.2419, 4.317051
854.7240, 4.033045
855.2061, 3.466276
855.6882, 3.048445
856.1703, 2.819998
856.6525, 2.881544
857.1346, 3.353891
857.6167, 3.837824
858.0988, 3.396517
858.5809, 1.671005
859.0630, 1.546341
859.5452, 4.388163
860.0273, 6.395521
860.5094, 5.790567
860.9915, 4.366961
861.4736, 3.532797
861.9557, 3.272493
862.4379, 3.303665
862.9200, 3.838142
863.4021, 4.292295
863.8842, 4.578384
864.3663, 4.605707
864.8484, 4.027945
865.3306, 3.165443
865.8127, 2.802279
866.2948, 3.234547
866.7769, 3.797388
867.2590, 3.816135
867.7411, 3.485445
868.2233, 3.152245
868.7054, 2.897573
869.1875, 3.159061
869.6696, 4.077801
870.1517, 4.756216
870.6339, 4.265280
871.1160, 2.926218
871.5981, 2.170387
872.0802, 2.057434
872.5623, 2.362570
873.0444, 3.431845
873.5266, 4.298397
874.0087, 4.119545
874.4908, 3.527275
874.9729, 3.952835
875.4550, 5.834932
875.9371, 6.283550
876.4193, 3.309872
876.9014, 0.6666950
877.3835, 0.5531900
877.8656, 0.3290520
878.3477, 2.431940
878.8298, 6.776230
879.3120, 9.059525
879.7941, 6.898460
880.2762, 3.577707
880.7583, 1.912666
881.2404, 1.431034
881.7225, 1.568071
882.2047, 2.113155
882.6868, 2.584860
883.1689, 2.806347
883.6510, 2.712862
884.1331, 2.093199
884.6152, 1.090536
885.0974, 0.9591080
885.5795, 1.872116
886.0616, 2.383657
886.5437, 2.027021
887.0258, 1.510948
887.5079, 1.297762
887.9901, 1.422293
888.4722, 2.089924
888.9543, 4.551498
889.4364, 5.141487
889.9185, 1.630285
890.4006, 1.127363
890.8828, 0.3953570
891.3649, 1.661619
891.8470, 2.253376
892.3291, 1.151733
892.8112, 0.2663670
893.2933, 0.8094440
893.7755, 1.405188
894.2576, 0.8983250
894.7397, 0.1528550
895.2218, 0.2198030
895.7039, 1.120285
896.1860, 2.574013
896.6682, 4.497322
897.1503, 6.042578
897.6324, 6.048958
898.1145, 4.888758
898.5966, 3.299091
899.0787, 1.437786
899.5609, 0.6535840
900.0430, 1.432041
900.5251, 2.491079
901.0072, 2.570831
901.4893, 1.904493
901.9714, 1.638025
902.4536, 1.906347
902.9357, 2.112192
903.4178, 2.365376
903.8999, 2.241531
904.3820, 1.045576
904.8641, 0.4015010
905.3463, 0.4478530
905.8284, 1.174145
906.3105, 1.922831
906.7926, 1.007505
907.2747, 1.7630000E-02
907.7568, 1.053988
908.2390, 1.702684
908.7211, 1.418966
909.2032, 0.4636550
909.6853, 0.3267920
910.1674, 0.6094060
910.6495, 0.8790490
911.1317, 1.888180
911.6138, 2.732889
912.0959, 1.655443
912.5780, 0.2980020
913.0601, 0.2647080
913.5422, 2.301445
914.0244, 4.915766
914.5065, 5.406336
914.9886, 4.607304
915.4707, 4.186577
915.9528, 4.086056
916.4349, 3.954464
916.9171, 3.746717
917.3992, 3.436600
917.8813, 2.984646
918.3634, 2.513323
918.8455, 2.196733
919.3276, 2.024723
919.8098, 2.247267
920.2919, 3.101210
920.7740, 3.737408
921.2561, 3.837204
921.7382, 3.815466
922.2203, 4.006227
922.7025, 4.356970
923.1846, 4.707714
923.6667, 5.435711
924.1488, 5.345203
924.6309, 3.230053
925.1130, 1.522312
925.5952, 1.574820
926.0773, 2.500158
926.5594, 3.383642
927.0415, 4.030010
927.5236, 4.295202
928.0057, 3.823528
928.4879, 3.391222
928.9700, 3.827925
929.4521, 4.354383
929.9342, 3.796093
930.4163, 2.517710
930.8984, 1.856859
931.3806, 2.281607
931.8627, 2.686613
932.3448, 1.601357
932.8269, 6.6118002E-02
933.3090, 0.3682580
933.7911, 0.4488930
934.2733, 1.410719
934.7554, 2.312809
935.2375, 3.247364
935.7196, 4.384459
936.2017, 5.502598
936.6838, 6.116220
937.1660, 6.227482
937.6481, 5.744688
938.1302, 4.514826
938.6123, 3.333170
939.0944, 2.329481
939.5765, 1.775076
940.0587, 2.160894
940.5408, 3.268351
941.0229, 3.470453
941.5050, 2.105755
941.9871, 1.048836
942.4692, 0.2908880
942.9514, 0.1064130
943.4335, 0.4240250
943.9156, 0.9725820
944.3977, 1.703842
944.8798, 2.593252
945.3619, 3.256641
945.8441, 3.791931
946.3262, 3.850714
946.8083, 2.466074
947.2904, 1.283855
947.7725, 2.223186
948.2546, 4.303608
948.7368, 5.334459
949.2189, 4.584093
949.7010, 3.693254
950.1831, 3.811182
950.6652, 4.342918
951.1473, 4.854095
951.6295, 5.226492
952.1116, 4.971292
952.5937, 4.164982
953.0758, 3.435385
953.5579, 3.124317
954.0400, 3.169277
954.5222, 3.627375
955.0043, 4.342743
955.4864, 4.944197
955.9685, 5.384083
956.4506, 5.422998
956.9327, 4.990299
957.4149, 4.449343
957.8970, 4.155704
958.3791, 3.917883
958.8612, 2.860731
959.3433, 0.8359620
959.8254, 0.4109480
960.3076, 2.163168
960.7897, 3.714949
961.2718, 4.105551
961.7539, 3.665525
962.2360, 2.486235
962.7181, 0.6410310
963.2003, 0.8283160
963.6824, 5.223736
964.1645, 7.166746
964.6466, 3.677790
965.1287, 0.5585170
965.6108, 1.740862
966.0930, 4.751322
966.5751, 5.896290
967.0572, 4.957661
967.5393, 4.218346
968.0214, 3.979134
968.5035, 3.797035
968.9857, 3.669847
969.4678, 3.447830
969.9499, 2.767336
970.4320, 1.937222
970.9141, 1.787941
971.3962, 2.609648
971.8784, 3.352211
972.3605, 3.576981
972.8426, 3.534229
973.3247, 3.203279
973.8068, 2.811583
974.2889, 2.594839
974.7711, 2.584492
975.2532, 2.728863
975.7353, 3.012108
976.2174, 3.388565
976.6995, 4.087473
977.1816, 4.666691
977.6638, 4.286907
978.1459, 3.303446
978.6280, 2.598930
979.1101, 2.381615
979.5922, 2.532459
980.0743, 3.042805
980.5565, 3.527561
981.0386, 3.078102
981.5207, 2.089254
982.0028, 2.321762
982.4849, 3.648798
982.9670, 3.819160
983.4492, 2.060848
983.9313, 0.5548110
984.4134, 1.535122
984.8955, 4.060314
985.3776, 5.173223
985.8597, 4.847719
986.3419, 3.683218
986.8240, 1.477907
987.3061, 8.0467001E-02
987.7882, 0.4481510
988.2703, 1.465393
988.7524, 1.739359
989.2346, 1.392731
989.7167, 1.759480
990.1988, 3.201380
990.6809, 4.356350
991.1630, 5.315628
991.6451, 5.668814
992.1273, 4.905897
992.6094, 3.580814
993.0915, 2.243301
993.5736, 0.8090020
994.0557, 0.9344390
994.5378, 5.054535
995.0200, 7.131929
995.5021, 4.600723
995.9842, 2.021152
996.4663, 2.097321
996.9484, 3.614687
997.4305, 4.587469
997.9127, 4.843363
998.3948, 4.861172
998.8769, 5.401592
999.3590, 4.814224
999.8411, 0.7463720
1000.323, 2.826515
1000.805, 1.844452
1001.287, 1.730190
1001.770, 3.400541
1002.252, 2.097120
1002.734, 0.9833150
1003.216, 1.494959
1003.698, 2.427664
1004.180, 3.578283
1004.662, 4.409115
1005.144, 4.200428
1005.627, 3.181683
1006.109, 2.041422
1006.591, 1.005194
1007.073, 0.1423740
1007.555, 0.9276710
1008.037, 1.387709
1008.519, 0.3799610
1009.001, 2.882202
1009.483, 3.449205
1009.966, 2.283991
1010.448, 1.566425
1010.930, 2.357155
1011.412, 3.322226
1011.894, 3.007833
1012.376, 2.098648
1012.858, 1.521433
1013.340, 1.260303
1013.823, 1.075907
1014.305, 1.029926
1014.787, 1.814581
1015.269, 3.881697
1015.751, 6.069742
1016.233, 6.777102
1016.715, 6.338982
1017.197, 5.807249
1017.679, 5.181906
1018.162, 4.246399
1018.644, 2.998457
1019.126, 1.967665
1019.608, 1.514172
1020.090, 1.437122
1020.572, 1.361553
1021.054, 1.336781
1021.536, 1.938557
1022.018, 3.123941
1022.501, 3.413078
1022.983, 2.258835
1023.465, 1.573278
1023.947, 2.862028
1024.429, 2.021544
1024.911, 4.977234
1025.393, 2.898064
1025.875, 2.766222
1026.358, 4.954803
1026.840, 5.815481
1027.322, 4.123663
1027.804, 2.220457
1028.286, 1.996984
1028.768, 2.691759
1029.250, 2.181002
1029.732, 8.8469997E-02
1030.214, 6.7739002E-02
1030.697, 2.447496
1031.179, 4.391266
1031.661, 4.949944
1032.143, 4.592274
1032.625, 3.383474
1033.107, 1.787968
1033.589, 1.150812
1034.071, 1.645327
1034.553, 2.388083
1035.036, 3.815317
1035.518, 4.514296
1036.000, 3.746016
1036.482, 2.715645
1036.964, 2.150455
1037.446, 2.061403
1037.928, 2.534298
1038.410, 4.113590
1038.893, 4.423271
1039.375, 2.201517
1039.857, 0.6395950
1040.339, 0.4377210
1040.821, 1.189995
1041.303, 3.560207
1041.785, 6.519056
1042.267, 6.803640
1042.750, 3.145939
1043.232, 1.061956
1043.714, 1.911549
1044.196, 2.576559
1044.678, 2.006531
1045.160, 1.342249
1045.642, 1.732996
1046.124, 2.610767
1046.606, 2.379694
1047.089, 0.4400040
1047.571, 0.4151760
1048.053, 0.8871100
1048.535, 2.248545
1049.017, 3.606342
1049.499, 4.357082
1049.981, 3.559172
1050.463, 1.944958
1050.945, 1.125706
1051.428, 1.365780
1051.910, 1.838661
1052.392, 2.717922
1052.874, 3.370604
1053.356, 3.495955
1053.838, 3.586662
1054.320, 3.833281
1054.802, 4.035425
1055.285, 3.083321
1055.767, 0.6352670
1056.249, 0.5252510
1056.731, 1.517212
1057.213, 3.393244
1057.695, 3.903711
1058.177, 3.573442
1058.659, 2.778814
1059.141, 2.019157
1059.624, 1.839668
1060.106, 2.355114
1060.588, 3.347660
1061.070, 5.541006
1061.552, 7.142067
1062.034, 7.206841
1062.516, 6.632900
1062.998, 5.943853
1063.480, 5.198837
1063.963, 4.174747
1064.445, 2.908154
1064.927, 2.422812
1065.409, 4.293919
1065.891, 5.282362
1066.373, 3.168434
1066.855, 0.6799930
1067.337, 0.1187670
1067.820, 0.2471870
1068.302, 0.8591980
1068.784, 1.520380
1069.266, 2.185598
1069.748, 3.073032
1070.230, 3.578131
1070.712, 2.829311
1071.194, 2.361353
1071.677, 4.423561
1072.159, 6.893406
1072.641, 5.853779
1073.123, 1.689936
1073.605, 0.4499450
1074.087, 2.392296
1074.569, 4.875126
1075.051, 3.980387
1075.533, 2.408779
1076.016, 1.670624
1076.498, 1.701605
1076.980, 2.662588
1077.462, 4.186811
1077.944, 5.054464
1078.426, 4.863457
1078.908, 3.960588
1079.390, 1.105259
1079.873, 0.8420450
1080.355, 1.002815
1080.837, 4.105064
1081.319, 5.699013
1081.801, 5.721403
1082.283, 5.090727
1082.765, 3.870480
1083.247, 3.331861
1083.729, 5.098434
1084.212, 6.460047
1084.694, 5.210798
1085.176, 3.275518
1085.658, 2.672649
1086.140, 3.086126
1086.622, 3.213785
1087.104, 2.721111
1087.586, 2.566439
1088.068, 3.972706
1088.551, 4.768988
1089.033, 3.087563
1089.515, 1.029469
1089.997, 0.4338440
1090.479, 0.8646870
1090.961, 1.357517
1091.443, 1.707355
1091.925, 1.804560
1092.408, 1.536232
1092.890, 1.105045
1093.372, 0.2026750
1093.854, 0.4346490
1094.336, 0.1321600
1094.818, 1.087919
1095.300, 0.8447090
1095.782, 0.4822620
1096.265, 0.5721360
1096.747, 2.326395
1097.229, 4.432011
1097.711, 3.796446
1098.193, 2.790703
1098.675, 2.671972
1099.157, 3.042034
1099.639, 3.480392
1100.121, 3.896257
1100.604, 4.183332
1101.086, 4.319860
1101.568, 4.319330
1102.050, 4.383892
1102.532, 4.062088
1103.014, 2.629438
1103.496, 1.174929
1103.978, 0.7982940
1104.460, 1.185551
1104.943, 1.389751
1105.425, 1.235670
1105.907, 1.016514
1106.389, 0.2614650
1106.871, 9.8511003E-02
1107.353, 1.465475
1107.835, 2.842609
1108.317, 2.976965
1108.800, 2.530718
1109.282, 3.046240
1109.764, 4.714569
1110.246, 4.640400
1110.728, 0.3027480
1111.210, 2.692728
1111.692, 0.8683800
1112.174, 4.400087
1112.656, 4.923372
1113.139, 3.934946
1113.621, 2.941704
1114.103, 1.991976
1114.585, 1.836201
1115.067, 3.247999
1115.549, 3.934883
1116.031, 3.369305
1116.513, 2.821312
1116.995, 2.577265
1117.478, 2.622232
1117.960, 3.121437
1118.442, 3.861319
1118.924, 4.181400
1119.406, 4.076765
1119.888, 3.504436
1120.370, 1.859610
1120.852, 1.065269
1121.335, 1.988844
1121.817, 3.049002
1122.299, 3.272476
1122.781, 2.922592
1123.263, 2.396200
1123.745, 1.684330
1124.227, 1.345173
1124.709, 1.495592
1125.192, 1.641001
1125.674, 1.849701
1126.156, 1.590681
1126.638, 0.3203770
1127.120, 0.7210940
1127.602, 0.1500610
1128.084, 2.372643
1128.566, 2.990181
1129.048, 1.729670
1129.531, 1.550438
1130.013, 2.758951
1130.495, 3.206322
1130.977, 2.040771
1131.459, 1.147570
1131.941, 2.281834
1132.423, 4.302183
1132.905, 4.618755
1133.387, 3.377594
1133.870, 2.892818
1134.352, 3.145840
1134.834, 3.759790
1135.316, 4.653713
1135.798, 5.583509
1136.280, 6.450287
1136.762, 6.748407
1137.244, 5.673231
1137.727, 3.606434
1138.209, 1.541891
1138.691, 0.2214660
1139.173, 0.1245730
1139.655, 2.252916
1140.137, 3.119202
1140.619, 1.784729
1141.101, 0.7146000
1141.583, 2.038780
1142.066, 1.515020
1142.548, 3.994879
1143.030, 2.934511
1143.512, 3.564684
1143.994, 5.198874
1144.476, 5.611393
1144.958, 4.552116
1145.440, 3.075068
1145.922, 1.642494
1146.405, 0.9640430
1146.887, 2.375160
1147.369, 4.247990
1147.851, 4.936296
1148.333, 4.733791
1148.815, 3.606493
1149.297, 2.127987
1149.779, 1.485697
1150.262, 1.995279
1150.744, 3.124212
1151.226, 5.320110
1151.708, 6.765463
1152.190, 5.775694
1152.672, 4.159414
1153.154, 3.191137
1153.636, 2.753101
1154.119, 2.697733
1154.601, 2.950317
1155.083, 3.240326
1155.565, 3.639652
1156.047, 3.585268
1156.529, 2.459764
1157.011, 1.398783
1157.493, 0.6370620
1157.975, 0.3875850
1158.458, 1.365719
1158.940, 2.791153
1159.422, 2.899475
1159.904, 1.430548
1160.386, 0.6207010
1160.868, 0.9999690
1161.350, 1.651625
1161.832, 3.009760
1162.314, 3.936504
1162.797, 3.943230
1163.279, 3.280855
1163.761, 1.743902
1164.243, 0.1961770
1164.725, 0.1193900
1165.207, 3.006313
1165.689, 4.452614
1166.171, 3.631956
1166.654, 2.866190
1167.136, 2.684832
1167.618, 2.742172
1168.100, 2.867630
1168.582, 2.987799
1169.064, 3.017721
1169.546, 3.230291
1170.028, 2.880150
1170.510, 1.946840
1170.993, 1.252039
1171.475, 0.8788010
1171.957, 0.8993170
1172.439, 1.338860
1172.921, 2.359715
1173.403, 4.262861
1173.885, 6.263744
1174.367, 6.707136
1174.849, 5.957752
1175.332, 5.148975
1175.814, 4.296293
1176.296, 3.091152
1176.778, 1.638769
1177.260, 0.8402250
1177.742, 1.121868
1178.224, 1.700897
1178.706, 1.977116
1179.189, 1.956301
1179.671, 1.334152
1180.153, 0.6355630
1180.635, 0.6586250
1181.117, 1.261009
1181.599, 2.090891
1182.081, 2.992620
1182.563, 3.736696
1183.046, 4.208229
1183.528, 4.517242
1184.010, 4.832811
1184.492, 4.882486
1184.974, 4.470034
1185.456, 3.714209
1185.938, 2.109116
1186.420, 0.2796710
1186.902, 0.2865240
1187.385, 0.7065940
1187.867, 1.700550
1188.349, 2.488529
1188.831, 3.106979
1189.313, 3.132927
1189.795, 3.507891
1190.277, 5.243195
1190.759, 7.082567
1191.241, 7.913015
1191.724, 7.728348
1192.206, 6.618151
1192.688, 3.824238
1193.170, 3.691359
1193.652, 7.877039
1194.134, 9.380276
1194.616, 6.119625
1195.098, 2.223515
1195.581, 0.2408980
1196.063, 1.312500
1196.545, 0.8021850
1197.027, 0.7932420
1197.509, 1.001833
1197.991, 6.3703999E-02
1198.473, 0.5940480
1198.955, 0.4958210
1199.438, 0.1875320
1199.920, 0.2173100
1200.402, 1.009365
1200.884, 2.438761
1201.366, 3.663889
1201.848, 3.285406
1202.330, 2.106316
1202.812, 1.375885
1203.294, 1.145201
1203.776, 1.945274
1204.259, 3.260862
1204.741, 3.362753
1205.223, 1.990070
1205.705, 1.220974
1206.187, 2.562136
1206.669, 3.966242
1207.151, 4.190422
1207.633, 3.807964
1208.116, 2.375051
1208.598, 1.071657
1209.080, 1.506735
1209.562, 3.169989
1210.044, 4.550819
1210.526, 5.399258
1211.008, 5.766527
1211.490, 5.613775
1211.973, 5.060833
1212.455, 3.624369
1212.937, 2.422535
1213.419, 2.086737
1213.901, 2.030756
1214.383, 1.544634
1214.865, 0.9292930
1215.347, 1.402740
1215.829, 3.377001
1216.312, 3.195335
1216.794, 1.8095000E-02
1217.276, 0.5249020
1217.758, 3.223852
1218.240, 5.947693
1218.722, 4.940325
1219.204, 2.883516
1219.686, 2.845373
1220.168, 1.695078
1220.651, 3.027594
1221.133, 1.068148
1221.615, 0.7222040
1222.097, 1.802938
1222.579, 3.544224
1223.061, 5.483007
1223.543, 6.279123
1224.025, 5.310596
1224.508, 3.627552
1224.990, 1.420387
1225.472, 0.1529250
1225.954, 0.4599360
1226.436, 2.027056
1226.918, 3.766296
1227.400, 5.075594
1227.882, 4.864138
1228.365, 3.392241
1228.847, 2.401520
1229.329, 2.386721
1229.811, 2.749311
1230.293, 3.993227
1230.775, 4.654543
1231.257, 3.829679
1231.739, 2.739519
1232.221, 2.076315
1232.703, 1.654840
1233.186, 1.218502
1233.668, 0.8006380
1234.150, 0.5870840
1234.632, 0.4745120
1235.114, 1.079981
1235.596, 2.634996
1236.078, 3.838125
1236.560, 4.363018
1237.043, 4.490011
1237.525, 4.301069
1238.007, 3.799017
1238.489, 2.788345
1238.971, 1.772333
1239.453, 2.503185
1239.935, 4.329554
1240.417, 5.164978
1240.900, 4.967501
1241.382, 3.824642
1241.864, 2.394957
1242.346, 1.523056
1242.828, 1.833282
1243.310, 2.430790
1243.792, 2.725552
1244.274, 2.620295
1244.756, 1.416014
1245.239, 0.3723280
1245.721, 0.8775520
1246.203, 2.274248
1246.685, 4.001657
1247.167, 5.589134
1247.649, 5.236237
1248.131, 1.585234
1248.613, 0.4847010
1249.095, 0.3374140
1249.578, 1.766350
1250.060, 4.333635
1250.542, 5.889790
1251.024, 4.871302
1251.506, 3.086094
1251.988, 2.804329
1252.470, 3.574175
1252.952, 2.636974
1253.435, 3.536819
1253.917, 0.3708520
1254.399, 3.989506
1254.881, 5.540073
1255.363, 4.202913
1255.845, 2.783733
1256.327, 2.680452
1256.809, 3.190123
1257.292, 3.967825
1257.774, 4.311005
1258.256, 2.351656
1258.738, 6.3819997E-02
1259.220, 0.7992100
1259.702, 2.976904
1260.184, 3.850815
1260.666, 3.310102
1261.148, 2.290949
1261.630, 1.036093
1262.113, 0.2257190
1262.595, 0.3735100
1263.077, 0.5975300
1263.559, 0.9211830
1264.041, 0.9337730
1264.523, 0.1963920
1265.005, 1.115280
1265.487, 0.4182000
1265.970, 1.207376
1266.452, 2.249870
1266.934, 2.706486
1267.416, 2.527485
1267.898, 1.827896
1268.380, 1.315386
1268.862, 1.027895
1269.344, 1.918398
1269.827, 4.317051
1270.309, 5.877203
1270.791, 4.808620
1271.273, 2.930346
1271.755, 2.836967
1272.237, 3.680746
1272.719, 4.086527
1273.201, 4.184715
1273.683, 3.888475
1274.166, 3.505724
1274.648, 3.866465
1275.130, 4.931797
1275.612, 5.130064
1276.094, 4.947037
1276.576, 4.526731
1277.058, 2.981932
1277.540, 2.158285
1278.022, 3.806005
1278.505, 5.266542
1278.987, 4.341427
1279.469, 2.619184
1279.951, 1.960354
1280.433, 2.067331
1280.915, 1.642672
1281.397, 1.620174
1281.879, 2.088095
1282.362, 1.796711
1282.844, 2.796909
1283.326, 3.305828
1283.808, 2.926620
1284.290, 1.501350
1284.772, 0.2077710
1285.254, 1.6735001E-02
1285.736, 0.0000000E+00
##END=



