##NAMES=Mackinawite
##RRUFFID=R070302
##IDEAL CHEMISTRY=(Fe,Ni)_1-1.07_S
##LOCALITY=Wannaway Prospect, near Kalgoorlie, Western Australia, Australia
##OWNER=RRUFF
##SOURCE=James Shigley
##DESCRIPTION=Bronze metallic massive, drill core
##STATUS=The identification of this mineral is not yet confirmed.
##URL=rruff.info/R070302
166.3384, 0.0000000E+00
166.8205, 0.5670470
167.3026, 1.655487
167.7847, 4.372986
168.2668, 8.326263
168.7490, 8.010284
169.2311, 3.506226
169.7132, 0.4472660
170.1953, 2.640625
170.6774, 8.297363
171.1595, 11.46078
171.6417, 10.24274
172.1238, 7.214661
172.6059, 4.995941
173.0880, 4.535187
173.5701, 4.452698
174.0522, 4.842468
174.5344, 2.391281
175.0165, 0.9641270
175.4986, 2.565430
175.9807, 5.942978
176.4628, 6.812042
176.9449, 4.018463
177.4271, 1.560944
177.9092, 1.244659
178.3913, 2.538025
178.8734, 4.163971
179.3555, 5.910431
179.8376, 7.518692
180.3198, 6.852692
180.8019, 1.941437
181.2840, 1.520172
181.7661, 0.7321470
182.2482, 2.289001
182.7303, 5.087097
183.2125, 6.380600
183.6946, 6.364929
184.1767, 5.660065
184.6588, 3.302139
185.1409, 2.488190
185.6230, 3.992813
186.1052, 7.319687
186.5873, 12.12331
187.0694, 18.68463
187.5515, 25.85878
188.0336, 30.65599
188.5157, 33.84831
188.9979, 34.50012
189.4800, 29.33704
189.9621, 21.74281
190.4442, 16.20427
190.9263, 14.83986
191.4084, 16.01718
191.8906, 15.29341
192.3727, 10.50117
192.8548, 8.107132
193.3369, 9.214325
193.8190, 11.75424
194.3011, 15.29962
194.7833, 19.86964
195.2654, 24.71083
195.7475, 26.58363
196.2296, 24.96826
196.7117, 23.68771
197.1938, 20.72366
197.6760, 16.39337
198.1581, 13.31013
198.6402, 12.25066
199.1223, 12.40103
199.6044, 12.56326
200.0865, 13.12024
200.5687, 14.26782
201.0508, 16.75374
201.5329, 19.20003
202.0150, 20.53247
202.4971, 20.46576
202.9792, 19.64636
203.4614, 19.41281
203.9435, 20.60416
204.4256, 20.68832
204.9077, 18.69540
205.3898, 16.27142
205.8719, 14.68856
206.3541, 14.20021
206.8362, 13.95681
207.3183, 12.52801
207.8004, 8.687927
208.2825, 7.002083
208.7646, 9.931343
209.2468, 12.78872
209.7289, 12.54285
210.2110, 9.166397
210.6931, 4.845413
211.1752, 1.935043
211.6573, 0.4071200
212.1395, 0.5560070
212.6216, 3.799240
213.1037, 7.459991
213.5858, 10.74809
214.0679, 13.25066
214.5500, 14.63376
215.0322, 14.22040
215.5143, 11.60388
215.9964, 9.516853
216.4785, 8.469650
216.9606, 7.537239
217.4427, 6.453102
217.9249, 5.246124
218.4070, 3.867172
218.8891, 2.130043
219.3712, 2.5772000E-02
219.8533, 0.5942990
220.3354, 1.752922
220.8176, 4.166473
221.2997, 6.607933
221.7818, 8.512306
222.2639, 8.837784
222.7460, 6.619568
223.2281, 2.218933
223.7103, 0.8257520
224.1924, 2.7618000E-02
224.6745, 0.4154210
225.1566, 0.2545240
225.6387, 1.677628
226.1208, 3.545128
226.6030, 5.839287
227.0851, 8.034615
227.5672, 7.704803
228.0493, 1.817284
228.5314, 2.651413
229.0135, 4.238640
229.4957, 3.961983
229.9778, 2.654663
230.4599, 0.6573940
230.9420, 1.371758
231.4241, 1.706894
231.9063, 0.7339170
232.3884, 3.097984
232.8705, 5.427330
233.3526, 7.363770
233.8347, 8.285599
234.3168, 8.009453
234.7990, 7.410645
235.2811, 8.403069
235.7632, 12.66733
236.2453, 14.57735
236.7274, 12.14073
237.2095, 8.573112
237.6917, 5.511673
238.1738, 3.453064
238.6559, 2.500069
239.1380, 2.957428
239.6201, 5.482025
240.1022, 8.004524
240.5844, 11.04375
241.0665, 13.41830
241.5486, 14.11730
242.0307, 13.36909
242.5128, 12.46001
242.9949, 12.78465
243.4771, 14.52781
243.9592, 15.76745
244.4413, 16.85277
244.9234, 16.99288
245.4055, 15.08319
245.8876, 11.86011
246.3698, 9.217827
246.8519, 8.679245
247.3340, 9.987099
247.8161, 10.82329
248.2982, 10.88358
248.7803, 10.88625
249.2625, 10.80692
249.7446, 10.88079
250.2267, 11.45089
250.7088, 12.69809
251.1909, 14.60450
251.6730, 17.38082
252.1552, 22.24094
252.6373, 25.41863
253.1194, 24.72164
253.6015, 22.32265
254.0836, 20.51473
254.5657, 20.18291
255.0479, 20.49792
255.5300, 19.99386
256.0121, 18.29405
256.4942, 17.22716
256.9763, 18.13978
257.4584, 19.44090
257.9406, 20.06856
258.4227, 19.79910
258.9048, 18.90121
259.3869, 17.05554
259.8690, 14.14599
260.3511, 12.99147
260.8333, 16.12386
261.3154, 19.40833
261.7975, 19.52002
262.2796, 16.51246
262.7617, 13.32984
263.2438, 11.94708
263.7260, 12.16808
264.2081, 13.08485
264.6902, 15.51502
265.1723, 17.16700
265.6544, 15.52282
266.1365, 11.60300
266.6187, 8.847450
267.1008, 9.980309
267.5829, 13.12586
268.0650, 14.02666
268.5471, 11.87761
269.0292, 9.685951
269.5114, 9.708984
269.9935, 11.19908
270.4756, 13.06619
270.9577, 15.54515
271.4398, 17.65196
271.9219, 17.84990
272.4041, 16.06474
272.8862, 14.61775
273.3683, 14.82481
273.8504, 16.03037
274.3325, 16.99930
274.8146, 17.74725
275.2968, 18.14349
275.7789, 17.77660
276.2610, 16.88057
276.7431, 16.59190
277.2252, 17.67898
277.7073, 18.96778
278.1895, 18.53205
278.6716, 16.14998
279.1537, 13.27518
279.6358, 9.137581
280.1179, 5.117996
280.6000, 4.251877
281.0822, 7.549835
281.5643, 11.56703
282.0464, 12.20922
282.5285, 9.103050
283.0106, 6.972191
283.4927, 6.715813
283.9749, 7.318909
284.4570, 8.042480
284.9391, 8.785583
285.4212, 9.750038
285.9033, 11.71339
286.3854, 14.35364
286.8676, 14.25046
287.3497, 7.825470
287.8318, 2.318886
288.3139, 2.223839
288.7960, 5.901039
289.2781, 9.040169
289.7603, 9.352165
290.2424, 7.381386
290.7245, 5.728653
291.2066, 3.429207
291.6887, 2.564644
292.1708, 4.092110
292.6530, 6.989059
293.1351, 10.64417
293.6172, 14.78518
294.0993, 18.07099
294.5814, 17.87985
295.0635, 10.83903
295.5457, 6.673523
296.0278, 7.138008
296.5099, 9.006592
296.9920, 10.41734
297.4741, 10.97489
297.9562, 10.88139
298.4384, 10.26348
298.9205, 8.998375
299.4026, 8.027916
299.8847, 6.639931
300.3668, 6.225883
300.8489, 7.922279
301.3311, 10.99129
301.8132, 14.02562
302.2953, 16.25745
302.7774, 17.54165
303.2595, 16.91647
303.7416, 11.97870
304.2238, 8.709305
304.7059, 8.863586
305.1880, 10.90282
305.6701, 13.56432
306.1522, 16.43021
306.6343, 18.75818
307.1165, 18.98656
307.5986, 16.38174
308.0807, 14.41512
308.5628, 13.86105
309.0449, 14.05104
309.5270, 15.13304
310.0092, 16.94515
310.4913, 18.24439
310.9734, 17.72804
311.4555, 15.54599
311.9376, 13.36307
312.4197, 10.95879
312.9019, 9.114937
313.3840, 8.950081
313.8661, 9.711189
314.3482, 9.363342
314.8303, 5.155167
315.3124, 9.3131997E-02
315.7946, 0.6203990
316.2767, 7.899628
316.7588, 13.85120
317.2409, 12.54235
317.7230, 7.593880
318.2051, 5.129204
318.6873, 6.909447
319.1694, 9.477646
319.6515, 10.71075
320.1336, 10.64738
320.6157, 9.269958
321.0978, 6.025475
321.5800, 2.355225
322.0621, 0.6385270
322.5442, 1.019020
323.0263, 1.745972
323.5084, 2.589806
323.9905, 3.367416
324.4727, 3.943802
324.9548, 4.312119
325.4369, 4.263901
325.9190, 3.479263
326.4011, 1.851479
326.8832, 0.5070420
327.3654, 1.112640
327.8475, 1.942581
328.3296, 0.5341420
328.8117, 2.293121
329.2938, 3.991081
329.7759, 2.902245
330.2581, 0.1933140
330.7402, 1.682343
331.2223, 0.6869430
331.7044, 0.8615950
332.1865, 3.845451
332.6686, 6.795616
333.1508, 7.892357
333.6329, 6.667313
334.1150, 4.430809
334.5971, 2.984161
335.0792, 2.151054
335.5613, 2.713600
336.0435, 5.820732
336.5256, 9.130379
337.0077, 12.06268
337.4898, 14.18532
337.9719, 14.64924
338.4540, 12.18387
338.9362, 7.388718
339.4183, 5.741646
339.9004, 9.825378
340.3825, 13.27738
340.8646, 14.14970
341.3467, 13.45339
341.8289, 12.35522
342.3110, 11.22859
342.7931, 10.15071
343.2752, 8.941010
343.7573, 7.388443
344.2394, 7.268990
344.7216, 10.83547
345.2037, 14.51520
345.6858, 15.12070
346.1679, 12.59676
346.6500, 9.935310
347.1321, 8.663857
347.6143, 8.669434
348.0964, 9.995110
348.5785, 13.08871
349.0606, 16.12749
349.5427, 17.81626
350.0248, 18.33292
350.5070, 17.98116
350.9891, 15.84863
351.4712, 13.60157
351.9533, 12.78444
352.4354, 13.14912
352.9175, 13.23750
353.3997, 12.10909
353.8818, 10.57573
354.3639, 11.06327
354.8460, 14.82767
355.3281, 17.53013
355.8102, 17.40320
356.2924, 16.07148
356.7745, 15.38557
357.2566, 15.74632
357.7387, 16.53910
358.2208, 17.01807
358.7029, 16.97492
359.1851, 17.87943
359.6672, 21.78567
360.1493, 24.47948
360.6314, 22.73819
361.1135, 18.34936
361.5956, 15.45482
362.0778, 16.63279
362.5599, 20.58987
363.0420, 22.49740
363.5241, 20.46066
364.0062, 19.45057
364.4883, 20.76572
364.9705, 22.70971
365.4526, 23.88138
365.9347, 23.99644
366.4168, 23.73840
366.8989, 23.89608
367.3810, 24.51129
367.8632, 24.78820
368.3453, 24.04108
368.8274, 23.77232
369.3095, 25.41168
369.7916, 28.08735
370.2737, 29.62014
370.7559, 28.22592
371.2380, 25.73709
371.7201, 25.82261
372.2022, 28.88319
372.6843, 30.54637
373.1664, 27.72701
373.6486, 23.19907
374.1307, 21.18432
374.6128, 22.22942
375.0949, 24.23100
375.5770, 26.85468
376.0591, 29.54373
376.5413, 31.07446
377.0234, 31.13622
377.5055, 30.54671
377.9876, 30.33193
378.4697, 30.57108
378.9518, 29.09023
379.4340, 23.42275
379.9161, 18.30573
380.3982, 17.51486
380.8803, 19.51233
381.3624, 20.25869
381.8445, 17.52222
382.3267, 12.81580
382.8088, 10.16308
383.2909, 10.19891
383.7730, 10.98406
384.2551, 13.31127
384.7372, 16.08161
385.2194, 18.83352
385.7015, 21.14000
386.1836, 22.15135
386.6657, 20.62167
387.1478, 16.35950
387.6299, 13.43837
388.1121, 12.62661
388.5942, 12.33839
389.0763, 12.85019
389.5584, 13.37573
390.0405, 12.50613
390.5226, 9.451168
391.0048, 6.008934
391.4869, 4.755257
391.9690, 5.577057
392.4511, 7.030174
392.9332, 9.964485
393.4153, 12.40581
393.8975, 11.86893
394.3796, 8.159981
394.8617, 5.135593
395.3438, 5.231758
395.8259, 7.177841
396.3080, 9.136696
396.7902, 10.99170
397.2723, 12.12923
397.7544, 12.07144
398.2365, 10.87153
398.7186, 9.215744
399.2007, 6.430325
399.6829, 3.969833
400.1650, 1.793995
400.6471, 0.4547580
401.1292, 1.581787
401.6113, 5.737488
402.0934, 10.22254
402.5756, 10.85563
403.0577, 5.716682
403.5398, 2.505116
404.0219, 1.120605
404.5040, 1.426804
404.9861, 4.994942
405.4683, 10.21441
405.9504, 13.37368
406.4325, 11.90511
406.9146, 7.146187
407.3967, 3.725658
407.8788, 1.712173
408.3610, 0.9896430
408.8431, 2.163857
409.3252, 4.127934
409.8073, 6.359608
410.2894, 8.588451
410.7715, 10.05868
411.2537, 9.544250
411.7358, 7.503662
412.2179, 6.371983
412.7000, 6.547062
413.1821, 7.061092
413.6642, 7.574368
414.1464, 7.930611
414.6285, 7.653610
415.1106, 5.640289
415.5927, 4.210590
416.0748, 6.053211
416.5569, 9.986938
417.0391, 12.07238
417.5212, 10.70524
418.0033, 8.010098
418.4854, 7.335148
418.9675, 9.850109
419.4496, 10.26280
419.9318, 6.417774
420.4139, 2.177937
420.8960, 0.3066520
421.3781, 0.9746930
421.8602, 0.7521820
422.3423, 0.1999020
422.8245, 0.6542090
423.3066, 1.698837
423.7887, 3.577366
424.2708, 4.618141
424.7529, 4.108978
425.2350, 3.142067
425.7172, 2.540607
426.1993, 2.444458
426.6814, 2.572609
427.1635, 2.701900
427.6456, 2.837635
428.1277, 2.971439
428.6099, 3.100330
429.0920, 3.227322
429.5741, 3.534367
430.0562, 3.796085
430.5383, 3.538883
431.0204, 2.293491
431.5026, 1.284718
431.9847, 1.873943
432.4668, 3.602436
432.9489, 4.835617
433.4310, 5.139824
433.9131, 4.886719
434.3953, 4.326206
434.8774, 3.391399
435.3595, 3.020668
435.8416, 4.533428
436.3237, 5.482353
436.8058, 3.321846
437.2880, 0.6614990
437.7701, 2.792694
438.2522, 1.040318
438.7343, 2.701797
439.2164, 3.425251
439.6985, 2.036621
440.1807, 4.846977
440.6628, 2.946434
441.1449, 0.2531740
441.6270, 0.6762700
442.1091, 5.5080000E-02
442.5912, 0.8248180
443.0734, 0.3773080
443.5555, 0.9671020
444.0376, 1.950825
444.5197, 2.438416
445.0018, 2.951420
445.4839, 4.276138
445.9661, 5.406895
446.4482, 5.256451
446.9303, 3.609314
447.4124, 1.386356
447.8945, 2.131042
448.3766, 5.579021
448.8588, 5.161011
449.3409, 7.0210002E-02
449.8230, 4.543255
450.3051, 4.189308
450.7872, 0.5223350
451.2693, 2.864731
451.7515, 1.572029
452.2336, 0.4066620
452.7157, 2.705402
453.1978, 4.899689
453.6799, 6.195087
454.1620, 6.435459
454.6442, 6.559830
455.1263, 7.958866
455.6084, 11.09296
456.0905, 12.85836
456.5726, 12.15640
457.0547, 11.13335
457.5369, 10.09531
458.0190, 9.235935
458.5011, 8.808529
458.9832, 8.950729
459.4653, 9.410442
459.9474, 10.21309
460.4296, 11.38082
460.9117, 10.96196
461.3938, 7.337116
461.8759, 3.731503
462.3580, 3.327145
462.8401, 5.570477
463.3223, 7.704994
463.8044, 9.375874
464.2865, 10.32485
464.7686, 10.23390
465.2507, 9.196365
465.7328, 7.231518
466.2150, 4.067852
466.6971, 0.9931070
467.1792, 0.6913220
467.6613, 5.313141
468.1434, 8.229671
468.6255, 7.913383
469.1077, 7.255573
469.5898, 8.540936
470.0719, 11.11232
470.5540, 12.60124
471.0361, 11.36922
471.5182, 8.456627
472.0004, 6.888725
472.4825, 7.051899
472.9646, 7.541870
473.4467, 9.107662
473.9288, 10.13752
474.4109, 8.991173
474.8931, 5.884399
475.3752, 3.271461
475.8573, 3.245441
476.3394, 4.336224
476.8215, 3.437550
477.3036, 0.4608690
477.7858, 0.8759380
478.2679, 2.062874
478.7500, 7.136433
479.2321, 8.830006
479.7142, 5.176754
480.1964, 3.682209
480.6785, 8.709503
481.1606, 14.50325
481.6427, 15.03056
482.1248, 10.59873
482.6069, 6.096462
483.0891, 5.256790
483.5712, 7.304302
484.0533, 7.818348
484.5354, 5.289074
485.0175, 3.707840
485.4996, 4.125557
485.9818, 5.248825
486.4639, 5.951508
486.9460, 6.179497
487.4281, 6.804253
487.9102, 9.256123
488.3923, 12.59629
488.8745, 13.47016
489.3566, 11.32027
489.8387, 9.840374
490.3208, 11.42062
490.8029, 14.57909
491.2850, 16.29066
491.7672, 16.48376
492.2493, 15.51360
492.7314, 12.39595
493.2135, 8.792599
493.6956, 6.285709
494.1777, 5.173534
494.6599, 5.728790
495.1420, 8.449974
495.6241, 12.64317
496.1062, 14.37348
496.5883, 11.20890
497.0704, 8.788033
497.5526, 7.788925
498.0347, 7.335869
498.5168, 6.993092
498.9989, 6.738651
499.4810, 6.893250
499.9631, 8.085621
500.4453, 9.875011
500.9274, 10.73173
501.4095, 10.65974
501.8916, 9.632854
502.3737, 6.186905
502.8558, 2.692955
503.3380, 3.396996
503.8201, 9.743980
504.3022, 14.42120
504.7843, 13.30028
505.2664, 9.850021
505.7485, 7.809227
506.2307, 7.372940
506.7128, 7.203125
507.1949, 6.519436
507.6770, 5.234879
508.1591, 4.404270
508.6412, 3.749939
509.1234, 3.738823
509.6055, 5.856915
510.0876, 7.912743
510.5697, 7.909298
511.0518, 6.000126
511.5339, 3.874657
512.0161, 2.575645
512.4982, 2.047470
512.9803, 2.253220
513.4624, 3.288551
513.9445, 4.538521
514.4266, 6.248695
514.9088, 7.654373
515.3909, 7.524815
515.8730, 5.696426
516.3551, 4.494183
516.8372, 5.402924
517.3193, 6.665359
517.8015, 6.576839
518.2836, 5.437515
518.7657, 4.171436
519.2478, 3.012665
519.7299, 2.142910
520.2120, 1.752846
520.6942, 1.939976
521.1763, 2.469013
521.6584, 4.022720
522.1405, 5.242218
522.6226, 4.953117
523.1047, 3.726273
523.5869, 3.119335
524.0690, 4.096134
524.5511, 5.710995
525.0332, 6.646629
525.5153, 6.979984
525.9974, 6.700802
526.4796, 5.461685
526.9617, 4.205864
527.4438, 3.996086
527.9259, 4.716068
528.4080, 5.950966
528.8901, 8.683189
529.3723, 10.79398
529.8544, 10.80011
530.3365, 9.369457
530.8186, 7.461433
531.3007, 5.733368
531.7828, 4.562840
532.2650, 4.619122
532.7471, 6.227989
533.2292, 7.024708
533.7113, 6.586845
534.1934, 5.797050
534.6755, 4.253845
535.1577, 2.694988
535.6398, 2.414848
536.1219, 4.136070
536.6040, 6.037354
537.0861, 6.033009
537.5682, 4.884323
538.0504, 5.417225
538.5325, 8.220379
539.0146, 10.74631
539.4967, 10.95918
539.9788, 9.413818
540.4609, 8.896297
540.9431, 10.40361
541.4252, 11.44584
541.9073, 11.11491
542.3894, 10.35405
542.8715, 10.08370
543.3536, 10.36485
543.8358, 10.64450
544.3179, 10.42540
544.8000, 9.892521
545.2821, 10.06488
545.7642, 11.59001
546.2463, 12.02411
546.7285, 9.218987
547.2106, 6.236603
547.6927, 5.537025
548.1748, 7.070156
548.6569, 9.006317
549.1390, 11.54142
549.6212, 13.38091
550.1033, 12.45233
550.5854, 9.365047
551.0675, 6.804806
551.5496, 5.831734
552.0317, 5.819759
552.5139, 5.769779
552.9960, 5.569988
553.4781, 5.718605
553.9602, 6.950859
554.4423, 7.697208
554.9244, 6.935314
555.4066, 5.394653
555.8887, 4.175114
556.3708, 3.664810
556.8529, 3.670689
557.3350, 4.248596
557.8171, 5.270500
558.2993, 5.575127
558.7814, 4.835224
559.2635, 4.059223
559.7456, 3.715355
560.2277, 3.895741
560.7098, 4.795811
561.1920, 7.152237
561.6741, 8.972980
562.1562, 10.03806
562.6383, 10.00713
563.1204, 7.709164
563.6025, 3.634933
564.0847, 0.2934230
564.5668, 0.4323230
565.0489, 0.8524930
565.5310, 1.744762
566.0131, 1.996288
566.4952, 2.482086
566.9774, 3.492485
567.4595, 4.682739
567.9416, 6.112022
568.4237, 7.607002
568.9058, 8.482086
569.3879, 8.206276
569.8701, 7.404110
570.3522, 6.411129
570.8343, 5.398773
571.3164, 5.067974
571.7985, 5.694569
572.2806, 6.485897
572.7628, 6.427795
573.2449, 5.376808
573.7270, 4.836796
574.2091, 6.238071
574.6912, 6.411476
575.1733, 2.701733
575.6555, 1.670261
576.1376, 2.854347
576.6197, 0.1355130
577.1018, 3.754452
577.5839, 7.085682
578.0660, 9.590611
578.5482, 10.07498
579.0303, 8.302731
579.5124, 6.473930
579.9945, 5.574009
580.4766, 5.206245
580.9587, 4.507805
581.4409, 3.189548
581.9230, 2.721508
582.4051, 4.651279
582.8872, 6.278645
583.3693, 5.552994
583.8514, 3.078579
584.3336, 0.4965740
584.8157, 1.463348
585.2978, 2.720524
585.7799, 2.915405
586.2620, 1.917435
586.7441, 1.561947
587.2263, 2.937141
587.7084, 3.290199
588.1905, 0.5355800
588.6726, 5.993828
589.1547, 8.651825
589.6368, 6.889225
590.1190, 5.092808
590.6011, 5.836582
591.0832, 7.482697
591.5653, 7.835701
592.0474, 6.858875
592.5295, 5.885170
593.0117, 5.816311
593.4938, 6.306816
593.9759, 6.142738
594.4580, 4.536911
594.9401, 4.133511
595.4222, 7.390316
595.9044, 9.840202
596.3865, 8.150955
596.8686, 3.880272
597.3507, 1.066502
597.8328, 1.252686
598.3149, 3.266682
598.7971, 7.590473
599.2792, 12.79325
599.7613, 14.64106
600.2434, 12.31441
600.7255, 9.431610
601.2076, 9.246197
601.6898, 11.22843
602.1719, 11.02345
602.6540, 5.899696
603.1361, 2.296543
603.6182, 1.398933
604.1003, 1.608761
604.5825, 2.040344
605.0646, 2.481911
605.5467, 2.787006
606.0288, 2.770065
606.5109, 2.727814
606.9930, 3.127464
607.4752, 3.919361
607.9573, 4.538490
608.4394, 4.750656
608.9215, 5.176044
609.4036, 6.661026
609.8857, 9.210388
610.3679, 10.53705
610.8500, 10.59796
611.3321, 9.624668
611.8142, 6.629433
612.2963, 3.272793
612.7784, 1.031872
613.2606, 0.1685980
613.7427, 0.3824350
614.2248, 1.660099
614.7069, 3.678585
615.1890, 5.960709
615.6711, 8.565178
616.1533, 10.02142
616.6354, 9.671326
617.1175, 8.417831
617.5996, 6.905239
618.0817, 5.124733
618.5638, 4.480919
619.0460, 6.716743
619.5281, 8.146923
620.0102, 6.263660
620.4923, 3.312401
620.9744, 2.385334
621.4565, 3.878620
621.9387, 5.562618
622.4208, 5.283077
622.9029, 3.753754
623.3850, 3.501610
623.8671, 4.792194
624.3492, 5.762295
624.8314, 5.731552
625.3135, 5.278107
625.7956, 5.276531
626.2777, 5.690651
626.7598, 5.208996
627.2419, 2.376648
627.7241, 1.2447000E-02
628.2062, 0.1918220
628.6883, 0.8314250
629.1704, 1.553177
629.6525, 1.630817
630.1346, 1.723286
630.6168, 2.592842
631.0989, 4.012245
631.5810, 4.596832
632.0631, 4.072491
632.5452, 3.851772
633.0273, 4.928211
633.5095, 5.790760
633.9916, 4.370914
634.4737, 1.087383
634.9558, 0.4338720
635.4379, 1.729839
635.9200, 4.520737
636.4022, 7.013123
636.8843, 8.717033
637.3664, 8.451210
637.8485, 6.211346
638.3306, 4.089870
638.8127, 4.526619
639.2949, 6.836472
639.7770, 6.225517
640.2591, 1.249264
640.7412, 1.361225
641.2233, 2.252213
641.7054, 7.163036
642.1876, 7.480904
642.6697, 3.603306
643.1518, 1.872536
643.6339, 6.169632
644.1160, 10.38606
644.5981, 10.44972
645.0803, 8.341690
645.5624, 7.604317
646.0445, 9.072098
646.5266, 10.29217
647.0087, 8.992985
647.4908, 5.810993
647.9730, 3.661259
648.4551, 2.596962
648.9372, 2.477833
649.4193, 3.808578
649.9014, 5.500046
650.3835, 6.897697
650.8657, 7.899475
651.3478, 7.631714
651.8299, 4.455482
652.3120, 1.676514
652.7941, 0.5958140
653.2762, 0.9481390
653.7584, 2.976151
654.2405, 6.304642
654.7226, 9.188477
655.2047, 10.14067
655.6868, 9.676064
656.1689, 9.493214
656.6511, 9.702423
657.1332, 9.432659
657.6153, 8.157204
658.0974, 6.856693
658.5795, 6.776764
659.0616, 7.534351
659.5438, 7.363441
660.0259, 4.523941
660.5080, 2.700180
660.9901, 4.206860
661.4722, 6.668137
661.9543, 7.837162
662.4365, 7.411957
662.9186, 5.670280
663.4007, 2.389908
663.8828, 0.9222220
664.3649, 0.2602230
664.8470, 4.553818
665.3292, 7.206821
665.8113, 5.884186
666.2934, 4.365929
666.7755, 6.167675
667.2576, 10.09873
667.7397, 10.89889
668.2219, 5.240673
668.7040, 1.892578
669.1861, 5.006657
669.6682, 9.080589
670.1503, 9.462917
670.6324, 6.957428
671.1146, 5.047253
671.5967, 5.548317
672.0788, 6.921757
672.5609, 6.507492
673.0430, 4.665222
673.5251, 5.109585
674.0073, 8.694263
674.4894, 11.50089
674.9715, 10.98724
675.4536, 8.290501
675.9357, 6.280563
676.4178, 4.850285
676.9000, 4.364639
677.3821, 5.342777
677.8642, 6.751877
678.3463, 8.925228
678.8284, 10.86441
679.3105, 10.63375
679.7927, 7.623886
680.2748, 4.514503
680.7569, 4.377174
681.2390, 5.886459
681.7211, 5.266094
682.2032, 2.567245
682.6854, 1.869049
683.1675, 5.032764
683.6496, 9.818237
684.1317, 13.56666
684.6138, 16.59781
685.0959, 16.99635
685.5781, 11.51974
686.0602, 7.281391
686.5423, 6.855137
687.0244, 7.979145
687.5065, 8.273659
687.9886, 7.470242
688.4708, 6.842129
688.9529, 7.908775
689.4350, 8.909706
689.9171, 7.116001
690.3992, 3.585381
690.8813, 1.332417
691.3635, 1.191483
691.8456, 2.681450
692.3277, 5.706627
692.8098, 9.854095
693.2919, 11.26160
693.7740, 8.305126
694.2562, 6.189220
694.7383, 6.495872
695.2204, 7.346046
695.7025, 7.605904
696.1846, 7.326534
696.6667, 6.819481
697.1489, 6.138317
697.6310, 5.281246
698.1131, 3.627090
698.5952, 2.099525
699.0773, 2.471741
699.5594, 4.416981
700.0416, 6.041058
700.5237, 6.176926
701.0058, 5.338638
701.4879, 4.469585
701.9700, 3.558254
702.4521, 2.756367
702.9343, 2.007610
703.4164, 1.846615
703.8985, 2.829784
704.3806, 4.375095
704.8627, 5.240173
705.3448, 5.502560
705.8270, 5.392715
706.3091, 4.839863
706.7912, 4.025043
707.2733, 2.528301
707.7554, 1.021252
708.2375, 0.5550000
708.7197, 1.467945
709.2018, 3.364101
709.6839, 6.278843
710.1660, 9.575222
710.6481, 11.41486
711.1302, 11.78878
711.6124, 10.69382
712.0945, 7.802494
712.5766, 4.815281
713.0587, 3.877766
713.5408, 5.078209
714.0229, 6.492714
714.5051, 9.757130
714.9872, 10.91936
715.4693, 7.571342
715.9514, 3.340855
716.4335, 0.8503110
716.9156, 0.1998630
717.3978, 0.5812260
717.8799, 2.454319
718.3620, 4.122955
718.8441, 3.493191
719.3262, 2.030910
719.8083, 2.765652
720.2905, 5.686935
720.7726, 7.893921
721.2547, 7.362904
721.7368, 5.135105
722.2189, 3.629631
722.7010, 2.836357
723.1832, 2.950180
723.6653, 4.835819
724.1474, 5.917591
724.6295, 3.727371
725.1116, 0.2362210
725.5938, 0.5479010
726.0759, 2.591270
726.5580, 4.538311
727.0401, 3.619541
727.5222, 2.024712
728.0043, 0.6769370
728.4865, 0.3172680
728.9686, 1.183529
729.4507, 1.887058
729.9328, 1.577332
730.4149, 1.011723
730.8970, 4.962433
731.3792, 8.990700
731.8613, 12.83172
732.3434, 13.18127
732.8255, 8.541683
733.3076, 3.782249
733.7897, 4.267586
734.2719, 9.448322
734.7540, 12.00417
735.2361, 10.12833
735.7182, 8.640400
736.2003, 8.915161
736.6824, 8.954853
737.1646, 6.742035
737.6467, 3.320496
738.1288, 1.881519
738.6109, 4.475845
739.0930, 6.189018
739.5751, 2.428543
740.0573, 2.470623
740.5394, 3.273136
741.0215, 0.4224700
741.5036, 3.417809
741.9857, 6.993549
742.4678, 9.547832
742.9500, 9.568855
743.4321, 7.262199
743.9142, 5.521832
744.3963, 4.428112
744.8784, 3.530018
745.3605, 2.334541
745.8427, 1.747875
746.3248, 3.397800
746.8069, 7.717075
747.2890, 10.17482
747.7711, 10.18863
748.2532, 9.241104
748.7354, 6.732712
749.2175, 4.113892
749.6996, 2.783276
750.1817, 2.603092
750.6638, 2.319157
751.1459, 0.7968790
751.6281, 1.1509000E-02
752.1102, 3.399876
752.5923, 8.253063
753.0744, 8.505157
753.5565, 4.220299
754.0386, 0.9265140
754.5208, 1.962578
755.0029, 5.142101
755.4850, 6.083073
755.9671, 4.408493
756.4492, 3.776249
756.9313, 4.524155
757.4135, 5.986313
757.8956, 9.053513
758.3777, 11.81163
758.8598, 10.77041
759.3419, 5.533672
759.8240, 1.481720
760.3062, 0.9265370
760.7883, 2.124798
761.2704, 2.529789
761.7525, 1.647945
762.2346, 2.523117
762.7167, 8.961658
763.1989, 12.58834
763.6810, 9.376392
764.1631, 4.167110
764.6452, 2.761337
765.1273, 3.644566
765.6094, 2.805408
766.0916, 4.3483999E-02
766.5737, 1.571117
767.0558, 0.4714280
767.5379, 4.195011
768.0200, 5.179089
768.5021, 2.693378
768.9843, 1.981396
769.4664, 3.862740
769.9485, 5.938137
770.4306, 7.395592
770.9127, 8.332188
771.3948, 9.133842
771.8770, 9.923008
772.3591, 9.177986
772.8412, 4.259937
773.3233, 0.7309680
773.8054, 2.108177
774.2875, 5.042133
774.7697, 5.640453
775.2518, 3.997204
775.7339, 3.131390
776.2160, 5.067539
776.6981, 7.663982
777.1802, 8.689526
777.6624, 8.501434
778.1445, 7.443474
778.6266, 5.797054
779.1087, 5.208611
779.5908, 6.710720
780.0729, 8.996094
780.5551, 9.724911
781.0372, 8.828121
781.5193, 6.641579
782.0014, 1.982334
782.4835, 0.7232170
782.9656, 1.359257
783.4478, 5.091450
783.9299, 6.350719
784.4120, 5.039139
784.8941, 4.742233
785.3762, 6.517189
785.8583, 8.144997
786.3405, 8.805962
786.8226, 9.188000
787.3047, 10.27715
787.7868, 11.76983
788.2689, 12.41089
788.7510, 11.48062
789.2332, 9.954960
789.7153, 7.271976
790.1974, 4.404839
790.6795, 3.763248
791.1616, 4.929882
791.6437, 5.246185
792.1259, 3.564987
792.6080, 1.973606
793.0901, 3.965862
793.5722, 8.910946
794.0543, 9.969822
794.5364, 6.397663
795.0186, 3.667316
795.5007, 3.473263
795.9828, 4.329597
796.4649, 4.828064
796.9470, 5.048496
797.4291, 5.828491
797.9113, 8.112373
798.3934, 9.306313
798.8755, 8.786938
799.3576, 7.958031
799.8397, 7.174763
800.3218, 6.838749
800.8040, 7.887642
801.2861, 10.82831
801.7682, 13.02430
802.2503, 12.90011
802.7324, 11.67250
803.2145, 10.06553
803.6967, 8.312454
804.1788, 6.446636
804.6609, 4.624477
805.1430, 3.725639
805.6251, 4.963394
806.1072, 6.969482
806.5894, 6.413727
807.0715, 3.689667
807.5536, 1.761452
808.0357, 1.034695
808.5178, 1.192196
808.9999, 2.125923
809.4821, 3.493679
809.9642, 4.455368
810.4463, 4.889606
810.9284, 5.405258
811.4105, 6.767982
811.8926, 6.941319
812.3748, 3.534645
812.8569, 0.3970070
813.3390, 0.7884600
813.8211, 2.363800
814.3032, 4.091434
814.7853, 1.557693
815.2675, 0.1851120
815.7496, 3.355690
816.2317, 7.287651
816.7138, 8.216225
817.1959, 6.728268
817.6780, 5.838055
818.1602, 6.908329
818.6423, 7.914680
819.1244, 6.573452
819.6065, 4.541000
820.0886, 4.987705
820.5707, 7.019215
821.0529, 6.653030
821.5350, 2.637577
822.0171, 0.5759160
822.4992, 2.901924
822.9813, 10.73318
823.4634, 12.10686
823.9456, 6.622177
824.4277, 2.626030
824.9098, 2.225506
825.3919, 3.075089
825.8740, 3.688599
826.3561, 4.121788
826.8383, 4.519257
827.3204, 4.619057
827.8025, 5.297058
828.2846, 7.089306
828.7667, 8.805515
829.2488, 10.43975
829.7310, 11.67204
830.2131, 11.85635
830.6952, 11.08562
831.1773, 10.19485
831.6594, 8.310665
832.1415, 7.642586
832.6237, 10.68219
833.1058, 14.27606
833.5879, 15.38062
834.0700, 14.01728
834.5521, 11.36327
835.0342, 7.695587
835.5164, 4.272854
835.9985, 1.585487
836.4806, 0.2531130
836.9627, 2.622810
837.4448, 7.398132
837.9269, 9.443432
838.4091, 7.148556
838.8912, 3.944809
839.3733, 3.477123
839.8554, 4.964176
840.3375, 5.549885
840.8196, 5.365589
841.3018, 4.441502
841.7839, 2.440441
842.2660, 1.621933
842.7481, 4.008713
843.2302, 7.993011
843.7123, 9.432697
844.1945, 7.444439
844.6766, 5.889965
845.1587, 5.539906
845.6408, 4.475101
846.1229, 0.1509320
846.6050, 3.763229
847.0872, 2.878361
847.5693, 2.495777
848.0514, 6.276962
848.5335, 6.888203
849.0156, 6.849483
849.4977, 6.433281
849.9799, 5.984779
850.4620, 5.821739
850.9441, 5.820747
851.4262, 5.625233
851.9083, 5.102695
852.3904, 4.734806
852.8726, 4.982296
853.3547, 5.417633
853.8368, 4.948490
854.3189, 4.508888
854.8010, 7.132355
855.2831, 12.59057
855.7653, 15.61622
856.2474, 11.64150
856.7295, 5.115185
857.2116, 4.345840
857.6937, 7.995125
858.1758, 10.17550
858.6580, 10.33475
859.1401, 9.902924
859.6222, 9.513462
860.1043, 9.052368
860.5864, 8.291725
861.0685, 7.259708
861.5507, 6.590794
862.0328, 6.238506
862.5149, 6.640942
862.9970, 8.765480
863.4791, 9.891304
863.9612, 7.035141
864.4434, 1.702484
864.9255, 0.5501330
865.4076, 2.037716
865.8897, 4.028358
866.3718, 5.330471
866.8539, 6.184681
867.3361, 6.320141
867.8182, 6.277664
868.3003, 6.660339
868.7824, 7.488564
869.2645, 8.380444
869.7466, 9.982594
870.2288, 10.66241
870.7109, 7.479145
871.1930, 4.974098
871.6751, 9.665894
872.1572, 17.97993
872.6393, 20.85711
873.1215, 15.15908
873.6036, 8.014297
874.0857, 3.194042
874.5678, 0.7140960
875.0499, 1.722443
875.5320, 4.716759
876.0142, 6.731121
876.4963, 7.233406
876.9784, 7.362499
877.4605, 7.914001
877.9426, 8.383034
878.4247, 7.091599
878.9069, 5.026104
879.3890, 6.819969
879.8711, 12.29844
880.3532, 16.22739
880.8353, 16.38526
881.3174, 14.55020
881.7996, 12.56009
882.2817, 10.54691
882.7638, 9.682899
883.2459, 10.32173
883.7280, 9.175243
884.2101, 5.024490
884.6923, 1.391201
885.1744, 0.8706670
885.6565, 1.991135
886.1386, 1.328484
886.6207, 1.991791
887.1028, 3.074940
887.5850, 0.6414490
888.0671, 2.094074
888.5492, 5.210777
889.0313, 7.183273
889.5134, 5.495804
889.9955, 1.334743
890.4777, 0.2962760
890.9598, 5.980309
891.4419, 8.939934
891.9240, 4.920486
892.4061, 1.122360
892.8882, 1.647449
893.3704, 4.545807
893.8525, 7.616119
894.3346, 10.33341
894.8167, 11.26730
895.2988, 8.412277
895.7809, 5.363724
896.2631, 3.889137
896.7452, 3.286259
897.2273, 2.981976
897.7094, 2.874825
898.1915, 2.936527
898.6736, 3.154583
899.1558, 3.679539
899.6379, 4.600632
900.1200, 5.916893
900.6021, 8.240570
901.0842, 10.77416
901.5663, 12.12733
902.0485, 11.91687
902.5306, 9.493835
903.0127, 4.047733
903.4948, 1.382874
903.9769, 1.850937
904.4590, 1.268799
904.9412, 3.684803
905.4233, 5.410683
905.9054, 8.149929
906.3875, 12.43676
906.8696, 15.43886
907.3517, 14.19183
907.8339, 9.946735
908.3160, 6.314285
908.7981, 3.289375
909.2802, 2.326790
909.7623, 3.863548
910.2444, 5.362438
910.7266, 5.614388
911.2087, 5.160236
911.6908, 4.773438
912.1729, 4.446976
912.6550, 3.461678
913.1371, 0.9680060
913.6193, 0.8058550
914.1014, 5.075386
914.5835, 8.987751
915.0656, 9.015591
915.5477, 6.884163
916.0298, 6.447842
916.5120, 8.532383
916.9941, 9.193653
917.4762, 7.295773
917.9583, 5.582214
918.4404, 4.274269
918.9225, 3.731205
919.4047, 4.596455
919.8868, 6.493057
920.3689, 8.175415
920.8510, 10.42384
921.3331, 10.51668
921.8152, 5.145222
922.2974, 0.9112210
922.7795, 1.656807
923.2616, 4.682129
923.7437, 7.111568
924.2258, 8.543346
924.7079, 8.927814
925.1901, 7.567402
925.6722, 6.295998
926.1543, 5.356915
926.6364, 5.272118
927.1185, 7.992374
927.6006, 11.25105
928.0828, 10.49160
928.5649, 5.123333
929.0470, 0.6256790
929.5291, 8.0684997E-02
930.0112, 1.344425
930.4933, 5.418793
930.9755, 9.724049
931.4576, 11.05460
931.9397, 9.850361
932.4218, 7.924732
932.9039, 5.971897
933.3860, 4.863453
933.8682, 5.902821
934.3503, 7.763054
934.8324, 8.719589
935.3145, 9.184475
935.7966, 10.71318
936.2787, 12.86040
936.7609, 12.25215
937.2430, 6.913139
937.7251, 1.236301
938.2072, 1.102707
938.6893, 4.397198
939.1714, 6.803829
939.6536, 8.200920
940.1357, 8.335255
940.6178, 7.269146
941.0999, 5.954185
941.5820, 5.000332
942.0641, 4.503151
942.5463, 4.903236
943.0284, 5.953899
943.5105, 6.570389
943.9926, 6.658482
944.4747, 5.033989
944.9568, 1.376999
945.4390, 1.319664
945.9211, 0.4315640
946.4032, 2.560013
946.8853, 3.449627
947.3674, 2.253033
947.8495, 2.082542
948.3317, 3.210144
948.8138, 4.663616
949.2959, 6.256340
949.7780, 6.961178
950.2601, 5.268810
950.7422, 1.933384
951.2244, 1.240459
951.7065, 3.692017
952.1886, 5.603039
952.6707, 6.695847
953.1528, 6.850704
953.6349, 5.672947
954.1171, 4.227203
954.5992, 3.946285
955.0813, 4.789963
955.5634, 5.998390
956.0455, 8.161366
956.5276, 8.826569
957.0098, 6.210957
957.4919, 4.476315
957.9740, 7.500469
958.4561, 11.68381
958.9382, 10.53818
959.4203, 3.423836
959.9025, 0.3065490
960.3846, 4.390446
960.8667, 5.902397
961.3488, 0.7857930
961.8309, 3.729603
962.3130, 2.232136
962.7952, 2.368923
963.2773, 4.448593
963.7594, 3.266151
964.2415, 3.544159
964.7236, 7.328861
965.2057, 9.597485
965.6879, 8.657181
966.1700, 6.783772
966.6521, 4.267639
967.1342, 2.140808
967.6163, 3.376438
968.0984, 9.675354
968.5806, 12.72236
969.0627, 10.02569
969.5448, 6.852852
970.0269, 3.962875
970.5090, 1.573540
970.9911, 0.5945930
971.4733, 2.096359
971.9554, 1.439083
972.4375, 2.518837
972.9196, 5.021301
973.4017, 4.437233
973.8839, 3.584274
974.3660, 2.120197
974.8481, 1.928635
975.3302, 6.750198
975.8123, 14.13129
976.2944, 15.88553
976.7766, 8.404537
977.2587, 3.210373
977.7408, 5.284161
978.2229, 7.224277
978.7050, 3.915424
979.1871, 0.3931430
979.6693, 3.339527
980.1514, 10.68298
980.6335, 13.73383
981.1156, 8.984539
981.5977, 5.057747
982.0798, 4.547268
982.5620, 5.436508
983.0441, 7.856201
983.5262, 10.28625
984.0083, 10.94633
984.4904, 10.11546
984.9725, 9.566029
985.4547, 10.28526
985.9368, 9.738949
986.4189, 4.612442
986.9010, 0.6650470
987.3831, 2.452621
987.8652, 6.487625
988.3474, 9.144817
988.8295, 9.912773
989.3116, 8.813778
989.7937, 4.735481
990.2758, 2.126045
990.7579, 3.494644
991.2401, 6.182186
991.7222, 9.792564
992.2043, 12.86131
992.6864, 13.66937
993.1685, 12.32754
993.6506, 9.989079
994.1328, 6.180313
994.6149, 3.951096
995.0970, 5.668865
995.5791, 8.344296
996.0612, 10.76574
996.5433, 12.40259
997.0255, 12.44020
997.5076, 11.15568
997.9897, 10.01096
998.4718, 9.682842
998.9539, 9.039162
999.4360, 6.334160
999.9182, 4.531490
1000.400, 7.104366
1000.882, 10.91561
1001.365, 11.84500
1001.847, 9.941933
1002.329, 7.700272
1002.811, 5.582844
1003.293, 4.357803
1003.775, 4.542450
1004.257, 5.925362
1004.739, 10.12773
1005.221, 14.23498
1005.704, 13.68979
1006.186, 9.405731
1006.668, 6.992531
1007.150, 9.252502
1007.632, 10.36953
1008.114, 5.229794
1008.596, 0.7991180
1009.078, 2.336250
1009.560, 6.697918
1010.043, 11.11063
1010.525, 14.54308
1011.007, 14.78615
1011.489, 10.03138
1011.971, 6.620350
1012.453, 10.25488
1012.935, 12.64459
1013.417, 5.533607
1013.900, 3.228786
1014.382, 3.888176
1014.864, 2.183842
1015.346, 7.373920
1015.828, 9.882164
1016.310, 10.16557
1016.792, 6.487217
1017.274, 2.877861
1017.756, 1.286682
1018.239, 1.055363
1018.721, 1.738297
1019.203, 3.039864
1019.685, 4.312370
1020.167, 6.076515
1020.649, 7.136536
1021.131, 6.054211
1021.613, 5.235859
1022.096, 6.166061
1022.578, 7.537655
1023.060, 8.198814
1023.542, 8.260002
1024.024, 8.184116
1024.506, 7.981518
1024.988, 8.126102
1025.470, 9.474701
1025.952, 10.22860
1026.435, 9.553787
1026.917, 8.168915
1027.399, 6.313755
1027.881, 4.310204
1028.363, 2.606518
1028.845, 1.153549
1029.327, 0.4041630
1029.809, 1.607948
1030.292, 2.306885
1030.774, 1.135403
1031.256, 0.2805330
1031.738, 0.9595410
1032.220, 1.059849
1032.702, 0.9601670
1033.184, 0.7019390
1033.666, 3.0838000E-02
1034.148, 0.6935730
1034.631, 2.392673
1035.113, 6.806229
1035.595, 10.50756
1036.077, 11.60331
1036.559, 10.81792
1037.041, 8.649364
1037.523, 5.039433
1038.005, 3.143391
1038.488, 3.858620
1038.970, 4.880920
1039.452, 6.669052
1039.934, 7.981030
1040.416, 8.100288
1040.898, 7.597134
1041.380, 6.953876
1041.862, 6.235386
1042.344, 6.187325
1042.827, 7.108410
1043.309, 8.115749
1043.791, 9.798065
1044.273, 10.35133
1044.755, 8.558918
1045.237, 6.122948
1045.719, 4.594841
1046.201, 3.931026
1046.683, 3.982285
1047.166, 5.025803
1047.648, 5.824444
1048.130, 6.248604
1048.612, 6.852669
1049.094, 8.004681
1049.576, 8.898079
1050.058, 8.926903
1050.540, 8.081680
1051.022, 6.024597
1051.505, 2.455746
1051.987, 0.7973710
1052.469, 1.287521
1052.951, 2.527363
1053.433, 4.481297
1053.915, 5.427753
1054.397, 4.019894
1054.879, 1.514919
1055.362, 0.1480980
1055.844, 0.8379440
1056.326, 1.781307
1056.808, 7.703938
1057.290, 11.07635
1057.772, 10.88896
1058.254, 9.302074
1058.736, 7.372417
1059.219, 5.422348
1059.701, 3.664368
1060.183, 2.425259
1060.665, 3.097282
1061.147, 5.366375
1061.629, 8.231930
1062.111, 11.18414
1062.593, 10.81273
1063.075, 5.978973
1063.558, 1.669147
1064.040, 3.227409
1064.522, 7.229542
1065.004, 7.160671
1065.486, 4.697483
1065.968, 4.250744
1066.450, 5.313999
1066.932, 4.125549
1067.415, 0.2535480
1067.897, 1.115299
1068.379, 4.463352
1068.861, 10.87046
1069.343, 10.04120
1069.825, 6.628830
1070.307, 7.408947
1070.789, 10.61242
1071.271, 12.22449
1071.754, 11.56859
1072.236, 10.62494
1072.718, 10.59155
1073.200, 9.981716
1073.682, 6.171501
1074.164, 2.382027
1074.646, 0.5492820
1075.128, 0.6273190
1075.610, 4.378361
1076.093, 9.529854
1076.575, 9.827026
1077.057, 3.437939
1077.539, 1.546017
1078.021, 0.6558530
1078.503, 1.143944
1078.985, 1.544922
1079.467, 2.170811
1079.949, 4.920769
1080.432, 8.165405
1080.914, 8.656418
1081.396, 6.183041
1081.878, 4.201244
1082.360, 3.466457
1082.842, 3.039917
1083.324, 2.834930
1083.806, 2.850193
1084.289, 3.460377
1084.771, 4.008213
1085.253, 3.082546
1085.735, 1.353596
1086.217, 2.402882
1086.699, 8.617359
1087.181, 11.06476
1087.663, 7.473881
1088.146, 4.685261
1088.628, 4.526474
1089.110, 5.538994
1089.592, 6.968357
1090.074, 8.485889
1090.556, 9.443558
1091.038, 9.878040
1091.520, 8.576710
1092.002, 4.976109
1092.485, 3.553745
1092.967, 5.215416
1093.449, 6.806297
1093.931, 7.044579
1094.413, 6.554066
1094.895, 6.064854
1095.377, 5.574768
1095.859, 4.901794
1096.342, 4.163807
1096.824, 4.527744
1097.306, 5.941650
1097.788, 6.900127
1098.270, 6.955723
1098.752, 7.469551
1099.234, 9.880470
1099.716, 11.77621
1100.198, 7.462978
1100.681, 1.011501
1101.163, 1.834007
1101.645, 7.372478
1102.127, 10.56622
1102.609, 10.47585
1103.091, 9.733074
1103.573, 9.531681
1104.055, 9.533878
1104.537, 10.15225
1105.020, 10.11371
1105.502, 6.880146
1105.984, 3.347298
1106.466, 3.757053
1106.948, 6.598263
1107.430, 7.945377
1107.912, 6.971420
1108.394, 5.482876
1108.876, 3.028778
1109.359, 1.991280
1109.841, 4.766666
1110.323, 7.546165
1110.805, 7.525406
1111.287, 6.514469
1111.769, 7.270752
1112.251, 9.319435
1112.733, 9.275257
1113.216, 5.045696
1113.698, 3.221344
1114.180, 6.762360
1114.662, 8.342274
1115.144, 4.679615
1115.626, 0.9610290
1116.108, 0.5796810
1116.590, 2.521927
1117.073, 5.229984
1117.555, 8.717106
1118.037, 10.47727
1118.519, 10.26374
1119.001, 9.644653
1119.483, 8.752693
1119.965, 7.767754
1120.447, 6.782867
1120.929, 5.657745
1121.412, 3.977551
1121.894, 2.714851
1122.376, 6.015461
1122.858, 12.18353
1123.340, 11.04168
1123.822, 3.807781
1124.304, 0.7566450
1124.786, 0.7982290
1125.269, 0.6628460
1125.751, 1.940681
1126.233, 2.843666
1126.715, 2.456470
1127.197, 1.916958
1127.679, 3.131245
1128.161, 5.278774
1128.643, 7.505077
1129.125, 8.737991
1129.608, 6.346882
1130.090, 0.2185440
1130.572, 3.231926
1131.054, 0.8634570
1131.536, 5.436928
1132.018, 7.464821
1132.500, 8.008667
1132.982, 7.156174
1133.464, 5.716671
1133.947, 4.105278
1134.429, 2.712093
1134.911, 2.964039
1135.393, 6.152637
1135.875, 6.920433
1136.357, 0.8424720
1136.839, 1.656582
1137.321, 4.039967
1137.803, 9.446091
1138.286, 9.189098
1138.768, 6.604614
1139.250, 6.780571
1139.732, 9.268570
1140.214, 9.570061
1140.696, 7.267635
1141.178, 6.141987
1141.660, 6.560612
1142.143, 6.676979
1142.625, 5.882618
1143.107, 4.935879
1143.589, 4.350887
1144.071, 4.351025
1144.553, 5.555298
1145.035, 7.595005
1145.517, 9.261543
1146.000, 10.70099
1146.482, 13.26344
1146.964, 16.37107
1147.446, 17.10391
1147.928, 14.43777
1148.410, 10.32193
1148.892, 5.268330
1149.374, 0.9391100
1149.856, 1.816685
1150.339, 2.486038
1150.821, 1.559376
1151.303, 6.767296
1151.785, 6.709240
1152.267, 2.529594
1152.749, 2.806171
1153.231, 11.84502
1153.713, 16.37737
1154.196, 8.965263
1154.678, 2.819958
1155.160, 1.970303
1155.642, 3.546501
1156.124, 6.911396
1156.606, 10.61045
1157.088, 12.73393
1157.570, 13.38785
1158.052, 12.25288
1158.535, 9.121780
1159.017, 6.012085
1159.499, 2.566235
1159.981, 2.470276
1160.463, 7.265732
1160.945, 11.94450
1161.427, 12.82915
1161.909, 11.82966
1162.391, 12.02907
1162.874, 13.06883
1163.356, 14.04844
1163.838, 14.77053
1164.320, 14.76635
1164.802, 13.84170
1165.284, 10.77129
1165.766, 5.662659
1166.248, 2.674149
1166.730, 5.263538
1167.213, 9.083939
1167.695, 11.59742
1168.177, 12.62842
1168.659, 10.23925
1169.141, 7.554214
1169.623, 9.735725
1170.105, 14.82985
1170.587, 15.75023
1171.070, 10.53880
1171.552, 7.266567
1172.034, 9.266670
1172.516, 10.22192
1172.998, 8.312248
1173.480, 6.424370
1173.962, 5.534142
1174.444, 5.591282
1174.927, 7.056908
1175.409, 9.006908
1175.891, 7.610004
1176.373, 2.387871
1176.855, 1.249203
1177.337, 4.365467
1177.819, 5.943325
1178.301, 4.948204
1178.783, 3.713158
1179.266, 3.370037
1179.748, 4.029915
1180.230, 6.375343
1180.712, 9.434074
1181.194, 12.96889
1181.676, 15.41767
1182.158, 11.95024
1182.640, 5.828732
1183.123, 6.575893
1183.605, 12.99816
1184.087, 14.67391
1184.569, 7.090607
1185.051, 0.2204590
1185.533, 2.450497
1186.015, 2.128723
1186.497, 4.066662
1186.979, 9.964531
1187.462, 10.84482
1187.944, 9.245670
1188.426, 8.714172
1188.908, 9.162491
1189.390, 10.01163
1189.872, 11.98836
1190.354, 11.53384
1190.836, 7.961346
1191.318, 4.893658
1191.801, 3.059425
1192.283, 2.211590
1192.765, 2.580784
1193.247, 3.476784
1193.729, 3.189968
1194.211, 2.555378
1194.693, 3.521137
1195.175, 5.829327
1195.657, 9.945698
1196.140, 14.54710
1196.622, 15.60554
1197.104, 13.11500
1197.586, 10.85451
1198.068, 10.41640
1198.550, 11.18583
1199.032, 14.70004
1199.514, 16.81864
1199.997, 13.76411
1200.479, 9.850517
1200.961, 8.895073
1201.443, 9.037308
1201.925, 6.453304
1202.407, 1.782234
1202.889, 0.9893230
1203.371, 5.848049
1203.854, 8.996395
1204.336, 10.23381
1204.818, 10.16810
1205.300, 8.519600
1205.782, 7.570061
1206.264, 8.840157
1206.746, 10.02617
1207.228, 8.063065
1207.710, 4.776447
1208.193, 4.834358
1208.675, 7.269775
1209.157, 9.828690
1209.639, 12.11672
1210.121, 12.86778
1210.603, 12.79906
1211.085, 12.40629
1211.567, 11.29710
1212.050, 10.47620
1212.532, 11.65050
1213.014, 11.79008
1213.496, 8.380112
1213.978, 4.371738
1214.460, 0.3020820
1214.942, 2.914566
1215.424, 1.919464
1215.906, 11.40875
1216.389, 14.98156
1216.871, 11.49174
1217.353, 8.918030
1217.835, 7.143715
1218.317, 7.075451
1218.799, 9.019352
1219.281, 10.28368
1219.763, 9.402534
1220.245, 7.976486
1220.728, 7.417587
1221.210, 7.371723
1221.692, 7.800312
1222.174, 7.930676
1222.656, 4.924202
1223.138, 1.000347
1223.620, 1.194832
1224.102, 4.762779
1224.584, 7.930843
1225.067, 8.933041
1225.549, 9.183701
1226.031, 4.719349
1226.513, 1.761768
1226.995, 2.638252
1227.477, 5.136051
1227.959, 11.19227
1228.441, 15.36473
1228.924, 12.30145
1229.406, 5.762405
1229.888, 1.895363
1230.370, 0.2981800
1230.852, 0.1400760
1231.334, 0.6790390
1231.816, 3.184448
1232.298, 7.300659
1232.781, 7.761688
1233.263, 4.507500
1233.745, 1.123871
1234.227, 0.0000000E+00
##END=



