##NAMES=Magadiite
##RRUFFID=R060994
##IDEAL CHEMISTRY=Na_2_Si_14_O_29_&#183;11H_2_O
##LOCALITY=Trinity Lake, Trinity County, California, USA
##OWNER=RRUFF
##SOURCE=Bob Jenkins
##DESCRIPTION=White compacted fine-grained silt
##STATUS=The identification of this mineral is not yet confirmed.
##URL=rruff.info/R060994
125.3081, 0.0000000E+00
125.7902, 25.67578
126.2723, 36.14258
126.7544, 18.71484
127.2365, 0.5429690
127.7187, 0.8945310
128.2008, 2.365234
128.6829, 8.970703
129.1650, 16.00391
129.6471, 19.31250
130.1292, 15.63477
130.6114, 8.375000
131.0935, 4.476563
131.5756, 6.527344
132.0577, 10.33398
132.5398, 16.60938
133.0219, 23.86133
133.5041, 29.39648
133.9862, 30.94141
134.4683, 28.25195
134.9504, 22.05859
135.4325, 3.802734
135.9146, 10.71094
136.3968, 8.951172
136.8789, 8.832031
137.3610, 29.45703
137.8431, 37.12109
138.3252, 28.11523
138.8073, 23.81055
139.2895, 23.70312
139.7716, 29.36719
140.2537, 46.25000
140.7358, 78.11133
141.2179, 110.7227
141.7000, 123.2617
142.1821, 117.8281
142.6643, 110.7090
143.1464, 105.5352
143.6285, 103.2793
144.1106, 108.8574
144.5927, 130.4668
145.0748, 151.9512
145.5570, 157.7988
146.0391, 147.9512
146.5212, 135.8281
147.0033, 133.6016
147.4854, 142.4902
147.9675, 149.5195
148.4497, 149.7871
148.9318, 148.9648
149.4139, 151.0117
149.8960, 156.5098
150.3781, 161.6758
150.8602, 159.1758
151.3424, 140.9258
151.8245, 133.3184
152.3066, 144.3164
152.7887, 161.6582
153.2708, 176.6387
153.7529, 185.8652
154.2351, 190.7422
154.7172, 194.7305
155.1993, 198.7441
155.6814, 200.4785
156.1635, 197.5586
156.6456, 192.9961
157.1278, 190.2930
157.6099, 191.1855
158.0920, 195.0195
158.5741, 199.3535
159.0562, 204.4062
159.5383, 209.3887
160.0205, 216.2441
160.5026, 222.9727
160.9847, 224.1074
161.4668, 214.7656
161.9489, 198.3418
162.4310, 190.5410
162.9131, 200.9121
163.3953, 210.1562
163.8774, 203.8320
164.3595, 183.6582
164.8416, 166.8203
165.3237, 166.4863
165.8058, 176.6992
166.2880, 182.7793
166.7701, 180.9727
167.2522, 176.2812
167.7343, 175.5117
168.2164, 180.1289
168.6985, 181.6543
169.1807, 171.1406
169.6628, 155.4727
170.1449, 142.7363
170.6270, 136.0137
171.1091, 134.0371
171.5912, 134.8594
172.0734, 141.2715
172.5555, 145.1934
173.0376, 140.7461
173.5197, 132.8574
174.0018, 128.8672
174.4839, 134.0078
174.9661, 146.5801
175.4482, 156.0215
175.9303, 162.7090
176.4124, 165.4863
176.8945, 161.4062
177.3766, 153.5957
177.8588, 147.5410
178.3409, 147.7305
178.8230, 154.2266
179.3051, 156.3535
179.7872, 150.1406
180.2693, 143.3477
180.7515, 134.9512
181.2336, 127.2852
181.7157, 126.0605
182.1978, 137.4941
182.6799, 164.0254
183.1620, 176.0840
183.6441, 161.9531
184.1263, 148.0059
184.6084, 150.0332
185.0905, 166.2578
185.5726, 182.8203
186.0547, 186.6738
186.5368, 175.3672
187.0190, 165.9492
187.5011, 156.8262
187.9832, 150.7910
188.4653, 150.2891
188.9474, 155.5918
189.4296, 164.8359
189.9117, 178.4004
190.3938, 195.9668
190.8759, 208.2402
191.3580, 210.4258
191.8401, 208.6016
192.3223, 211.3770
192.8044, 221.1836
193.2865, 227.9316
193.7686, 212.4688
194.2507, 183.1875
194.7328, 168.0312
195.2150, 186.1895
195.6971, 222.1172
196.1792, 243.9941
196.6613, 244.3770
197.1434, 241.0312
197.6255, 250.7383
198.1077, 267.9648
198.5898, 277.8730
199.0719, 267.9473
199.5540, 243.1484
200.0361, 225.0430
200.5182, 216.2324
201.0004, 211.9062
201.4825, 211.5020
201.9646, 213.3145
202.4467, 213.2383
202.9288, 206.7578
203.4109, 194.5605
203.8930, 187.7891
204.3752, 190.5293
204.8573, 195.4023
205.3394, 205.4375
205.8215, 216.1367
206.3036, 217.2891
206.7857, 196.9160
207.2679, 153.1992
207.7500, 123.8203
208.2321, 122.2637
208.7142, 123.5957
209.1963, 120.6211
209.6784, 113.8359
210.1606, 107.5645
210.6427, 106.3770
211.1248, 111.7012
211.6069, 108.8789
212.0890, 86.62695
212.5711, 67.38086
213.0533, 63.17969
213.5354, 71.05859
214.0175, 78.81836
214.4996, 74.65234
214.9817, 55.78516
215.4638, 44.68359
215.9460, 49.00391
216.4281, 52.58789
216.9102, 44.81641
217.3923, 27.51562
217.8744, 11.48438
218.3565, 7.287109
218.8387, 16.91797
219.3208, 21.38281
219.8029, 15.64844
220.2850, 9.425781
220.7671, 8.960938
221.2492, 14.18164
221.7314, 20.94922
222.2135, 26.33984
222.6956, 30.00195
223.1777, 30.74414
223.6598, 22.49414
224.1419, 15.72852
224.6240, 21.26367
225.1062, 38.94922
225.5883, 55.74609
226.0704, 61.35352
226.5525, 56.11133
227.0346, 47.95117
227.5167, 32.43945
227.9989, 17.33984
228.4810, 10.32812
228.9631, 11.95703
229.4452, 17.39844
229.9273, 26.17773
230.4094, 36.12695
230.8916, 41.20508
231.3737, 37.25586
231.8558, 29.67578
232.3379, 23.79492
232.8200, 19.53516
233.3021, 17.44727
233.7843, 19.86523
234.2664, 24.30469
234.7485, 26.96289
235.2306, 26.76172
235.7127, 24.45508
236.1948, 19.37500
236.6770, 9.759766
237.1591, 4.695313
237.6412, 13.60547
238.1233, 28.32617
238.6054, 40.63477
239.0875, 48.55664
239.5697, 52.21484
240.0518, 49.96680
240.5339, 38.86523
241.0160, 31.41602
241.4981, 37.64258
241.9802, 47.56055
242.4624, 50.22070
242.9445, 40.17383
243.4266, 26.66602
243.9087, 27.46680
244.3908, 49.38672
244.8729, 66.66406
245.3550, 67.42773
245.8372, 63.18750
246.3193, 65.21289
246.8014, 77.67578
247.2835, 92.02344
247.7656, 91.62109
248.2477, 67.67188
248.7299, 49.81445
249.2120, 44.77148
249.6941, 46.08008
250.1762, 50.92773
250.6583, 58.21094
251.1404, 64.85156
251.6226, 65.70703
252.1047, 60.07812
252.5868, 50.11133
253.0689, 28.34961
253.5510, 8.191406
254.0331, 0.6503910
254.5153, 7.505859
254.9974, 21.60547
255.4795, 33.94727
255.9616, 48.37109
256.4437, 52.00586
256.9258, 32.36523
257.4080, 12.91016
257.8901, 11.84766
258.3722, 31.00781
258.8543, 56.36523
259.3364, 68.70312
259.8185, 61.83594
260.3007, 56.94922
260.7828, 54.58203
261.2649, 53.17773
261.7470, 50.64258
262.2291, 47.37695
262.7112, 46.70117
263.1934, 53.31836
263.6755, 71.41211
264.1576, 80.82031
264.6397, 77.93555
265.1218, 71.14062
265.6039, 61.78906
266.0861, 51.90820
266.5682, 46.03320
267.0503, 48.94922
267.5324, 62.14648
268.0145, 76.87500
268.4966, 101.6191
268.9788, 119.3945
269.4609, 118.3652
269.9430, 101.8926
270.4251, 82.20898
270.9072, 68.46680
271.3893, 61.40234
271.8715, 60.33008
272.3536, 66.45117
272.8357, 76.26367
273.3178, 92.31250
273.7999, 111.0449
274.2820, 122.7949
274.7642, 119.3809
275.2463, 102.9980
275.7284, 100.6445
276.2105, 125.6934
276.6926, 146.6875
277.1747, 149.2988
277.6568, 139.7266
278.1389, 133.4941
278.6211, 140.0801
279.1032, 154.8535
279.5853, 157.3164
280.0674, 132.1738
280.5495, 115.1797
281.0316, 121.7754
281.5138, 141.8555
281.9959, 158.4160
282.4780, 164.6016
282.9601, 162.0547
283.4422, 153.2656
283.9243, 131.7734
284.4065, 117.1621
284.8886, 118.8086
285.3707, 128.4023
285.8528, 133.1758
286.3349, 128.6250
286.8170, 120.4277
287.2992, 118.5293
287.7813, 125.0488
288.2634, 130.1660
288.7455, 132.4473
289.2276, 132.4980
289.7097, 130.4629
290.1919, 126.2754
290.6740, 121.5938
291.1561, 118.0293
291.6382, 115.5781
292.1203, 114.9160
292.6024, 119.2793
293.0846, 123.9609
293.5667, 123.5859
294.0488, 117.5234
294.5309, 110.2363
295.0130, 105.6758
295.4951, 103.7734
295.9773, 101.4395
296.4594, 93.14844
296.9415, 87.79688
297.4236, 97.00000
297.9057, 118.7344
298.3878, 134.7402
298.8700, 129.9844
299.3521, 107.1875
299.8342, 90.41992
300.3163, 82.69727
300.7984, 79.49219
301.2805, 82.04102
301.7627, 88.07812
302.2448, 86.93555
302.7269, 70.50586
303.2090, 44.89844
303.6911, 28.54688
304.1732, 24.42969
304.6554, 22.71289
305.1375, 20.79297
305.6196, 18.83398
306.1017, 16.90625
306.5838, 15.27539
307.0659, 13.40039
307.5481, 8.765625
308.0302, 1.259766
308.5123, 3.394531
308.9944, 17.38867
309.4765, 46.08594
309.9586, 54.04492
310.4408, 31.12500
310.9229, 1.160156
311.4050, 15.49609
311.8871, 12.55664
312.3692, 2.726563
312.8513, 18.50586
313.3335, 42.42969
313.8156, 58.89453
314.2977, 66.30859
314.7798, 68.24805
315.2619, 66.52734
315.7440, 61.25977
316.2262, 56.83008
316.7083, 54.92578
317.1904, 53.12695
317.6725, 48.38281
318.1546, 40.71289
318.6367, 34.00586
319.1188, 30.39258
319.6010, 30.34961
320.0831, 33.72656
320.5652, 44.54492
321.0473, 54.78320
321.5294, 60.50000
322.0115, 61.91016
322.4937, 61.94922
322.9758, 63.47266
323.4579, 63.12305
323.9400, 51.25000
324.4221, 20.56055
324.9042, 4.443359
325.3864, 11.17969
325.8685, 6.146484
326.3506, 2.839844
326.8327, 7.267578
327.3148, 14.14844
327.7969, 11.51172
328.2791, 3.464844
328.7612, 12.74609
329.2433, 8.562500
329.7254, 0.9609380
330.2075, 7.025391
330.6896, 8.191406
331.1718, 6.310547
331.6539, 3.318359
332.1360, 0.9433590
332.6181, 7.781250
333.1002, 20.47852
333.5823, 33.14453
334.0645, 41.36523
334.5466, 45.27539
335.0287, 47.78516
335.5108, 50.78320
335.9929, 53.96875
336.4750, 56.01172
336.9572, 54.25391
337.4393, 53.89453
337.9214, 57.86133
338.4035, 64.79492
338.8856, 71.93945
339.3677, 78.32031
339.8499, 83.28906
340.3320, 84.96484
340.8141, 83.47852
341.2962, 79.20703
341.7783, 68.57227
342.2604, 56.23633
342.7426, 49.68164
343.2247, 51.44727
343.7068, 56.98828
344.1889, 60.03516
344.6710, 59.25000
345.1531, 60.09180
345.6353, 65.75391
346.1174, 71.08789
346.5995, 72.83984
347.0816, 70.56250
347.5637, 64.24805
348.0458, 53.44922
348.5280, 37.83984
349.0101, 24.21484
349.4922, 11.20703
349.9743, 1.265625
350.4564, 2.531250
350.9385, 2.125000
351.4207, 2.109375
351.9028, 5.169922
352.3849, 10.35938
352.8670, 13.91797
353.3491, 16.80469
353.8312, 16.76367
354.3134, 15.05859
354.7955, 9.607422
355.2776, 6.841797
355.7597, 36.08594
356.2418, 63.96680
356.7239, 65.11328
357.2061, 17.87695
357.6882, 12.70508
358.1703, 19.12109
358.6524, 16.46289
359.1345, 12.78125
359.6166, 10.06250
360.0987, 8.121094
360.5808, 7.130859
361.0630, 7.607422
361.5451, 4.859375
362.0272, 6.197266
362.5093, 14.92969
362.9914, 16.27734
363.4735, 12.75977
363.9557, 10.04688
364.4378, 11.87891
364.9199, 16.37500
365.4020, 15.03711
365.8841, 0.7148440
366.3662, 10.19336
366.8484, 9.867188
367.3305, 2.855469
367.8126, 9.755859
368.2947, 27.06836
368.7768, 45.14453
369.2589, 58.63086
369.7411, 70.48828
370.2232, 71.07617
370.7053, 45.64062
371.1874, 21.16797
371.6695, 14.01758
372.1516, 22.51953
372.6338, 32.60156
373.1159, 31.39062
373.5980, 19.27539
374.0801, 10.69531
374.5622, 5.628906
375.0443, 4.558594
375.5265, 9.337891
376.0086, 17.45312
376.4907, 26.10352
376.9728, 34.83984
377.4549, 41.08203
377.9370, 36.85547
378.4192, 16.29883
378.9013, 2.148438
379.3834, 7.207031
379.8655, 17.08984
380.3476, 20.30859
380.8297, 14.67188
381.3119, 7.550781
381.7940, 8.673828
382.2761, 17.80273
382.7582, 18.05469
383.2403, 2.027344
383.7224, 19.70703
384.2046, 17.21484
384.6867, 0.3808590
385.1688, 15.11719
385.6509, 15.47461
386.1330, 7.542969
386.6151, 3.007813
387.0973, 1.882813
387.5794, 3.820313
388.0615, 12.88867
388.5436, 23.61133
389.0257, 27.16016
389.5078, 18.43164
389.9900, 8.207031
390.4721, 6.406250
390.9542, 11.85352
391.4363, 16.30859
391.9184, 15.48828
392.4005, 14.52148
392.8827, 23.26367
393.3648, 43.22852
393.8469, 55.20312
394.3290, 43.42188
394.8111, 21.84375
395.2932, 14.18555
395.7754, 24.69141
396.2575, 39.83203
396.7396, 50.78125
397.2217, 56.61523
397.7038, 52.72461
398.1859, 26.90039
398.6681, 1.832031
399.1501, 8.123047
399.6323, 4.724609
400.1144, 5.855469
400.5965, 22.41992
401.0786, 41.03125
401.5607, 49.51367
402.0428, 41.71875
402.5250, 35.98633
403.0071, 34.54883
403.4892, 37.03125
403.9713, 45.40625
404.4534, 59.43750
404.9355, 72.63672
405.4177, 77.39062
405.8998, 72.47070
406.3819, 63.95703
406.8640, 45.64062
407.3461, 30.21875
407.8282, 25.63477
408.3104, 29.05469
408.7925, 31.84180
409.2746, 27.92578
409.7567, 19.87109
410.2388, 19.73828
410.7209, 40.52344
411.2031, 52.74414
411.6852, 46.83203
412.1673, 35.68945
412.6494, 33.54102
413.1315, 43.71680
413.6136, 55.57031
414.0958, 54.37891
414.5779, 35.40430
415.0600, 22.19531
415.5421, 17.75391
416.0242, 15.28711
416.5063, 11.70508
416.9885, 8.353516
417.4706, 9.314453
417.9527, 18.17578
418.4348, 32.25000
418.9169, 42.09375
419.3990, 46.18359
419.8812, 50.48438
420.3633, 54.00781
420.8454, 59.25391
421.3275, 70.47852
421.8096, 88.92383
422.2917, 106.4336
422.7739, 113.7344
423.2560, 111.0957
423.7381, 106.6562
424.2202, 97.70117
424.7023, 93.18555
425.1844, 105.2129
425.6666, 128.3574
426.1487, 141.8398
426.6308, 126.8008
427.1129, 101.6133
427.5950, 95.95312
428.0771, 111.0332
428.5593, 126.0488
429.0414, 131.2031
429.5235, 128.5293
430.0056, 124.1699
430.4877, 117.9062
430.9698, 110.8262
431.4520, 103.6113
431.9341, 96.09180
432.4162, 86.04883
432.8983, 72.30859
433.3804, 62.79883
433.8625, 69.29688
434.3447, 94.83398
434.8268, 109.3574
435.3089, 103.8320
435.7910, 93.71094
436.2731, 88.58008
436.7552, 87.38477
437.2374, 85.74219
437.7195, 80.67188
438.2016, 73.04883
438.6837, 67.14453
439.1658, 61.85352
439.6479, 59.73438
440.1301, 62.33398
440.6122, 67.59766
441.0943, 74.16211
441.5764, 81.04688
442.0585, 88.27539
442.5406, 96.54492
443.0227, 106.8301
443.5049, 106.1270
443.9870, 77.71875
444.4691, 55.59570
444.9512, 56.12695
445.4333, 69.21094
445.9154, 76.12109
446.3976, 66.25586
446.8797, 49.29297
447.3618, 48.62891
447.8439, 71.48242
448.3260, 88.78906
448.8081, 90.15039
449.2903, 87.91211
449.7724, 88.37695
450.2545, 92.40234
450.7366, 99.28125
451.2187, 111.9180
451.7008, 127.5723
452.1830, 133.1074
452.6651, 124.2285
453.1472, 115.2500
453.6293, 112.3066
454.1114, 115.0840
454.5935, 125.5469
455.0757, 148.7012
455.5578, 170.5117
456.0399, 176.4043
456.5220, 169.9785
457.0041, 168.0957
457.4862, 178.0859
457.9684, 191.0840
458.4505, 193.8945
458.9326, 186.6973
459.4147, 181.5527
459.8968, 183.7578
460.3789, 186.8750
460.8611, 184.9785
461.3432, 178.4883
461.8253, 171.0059
462.3074, 164.0352
462.7895, 158.4590
463.2716, 157.4648
463.7538, 164.4980
464.2359, 171.3770
464.7180, 178.8945
465.2001, 184.8008
465.6822, 185.4062
466.1643, 180.6133
466.6465, 174.9590
467.1286, 172.9160
467.6107, 174.1211
468.0928, 180.6113
468.5749, 199.2363
469.0570, 215.5547
469.5392, 226.2051
470.0213, 231.7891
470.5034, 232.3848
470.9855, 227.7695
471.4676, 221.9434
471.9497, 223.6426
472.4319, 236.1133
472.9140, 242.1895
473.3961, 235.3320
473.8782, 224.8945
474.3603, 214.1348
474.8424, 204.2461
475.3246, 197.3711
475.8067, 195.1562
476.2888, 196.9316
476.7709, 202.7910
477.2530, 214.0098
477.7351, 221.4688
478.2173, 218.1816
478.6994, 209.9238
479.1815, 205.6660
479.6636, 206.1055
480.1457, 209.1914
480.6278, 217.0098
481.1100, 225.8984
481.5920, 228.6113
482.0742, 223.6973
482.5563, 215.6328
483.0384, 207.3008
483.5205, 198.8359
484.0026, 193.5957
484.4847, 193.7441
484.9669, 195.7402
485.4490, 197.7305
485.9311, 199.5254
486.4132, 199.6836
486.8953, 197.6172
487.3774, 193.3594
487.8596, 186.5684
488.3417, 173.6953
488.8238, 166.5059
489.3059, 166.2891
489.7880, 168.8574
490.2701, 175.3672
490.7523, 183.4824
491.2344, 188.1328
491.7165, 185.4961
492.1986, 179.0195
492.6807, 180.1406
493.1628, 194.3145
493.6450, 200.8477
494.1271, 186.2246
494.6092, 169.7461
495.0913, 165.7148
495.5734, 174.0156
496.0555, 182.3066
496.5377, 180.8066
497.0198, 173.3555
497.5019, 168.9375
497.9840, 167.6289
498.4661, 169.1387
498.9482, 174.5039
499.4304, 182.0645
499.9125, 188.9922
500.3946, 195.7090
500.8767, 200.5977
501.3588, 199.1289
501.8409, 196.2891
502.3231, 202.8555
502.8052, 221.2773
503.2873, 240.5957
503.7694, 249.5098
504.2515, 247.3438
504.7336, 248.6113
505.2158, 254.3086
505.6979, 262.2773
506.1800, 272.2773
506.6621, 284.0625
507.1442, 297.6973
507.6263, 312.4297
508.1085, 328.3848
508.5906, 348.8848
509.0727, 378.1699
509.5548, 401.7500
510.0369, 420.4277
510.5190, 432.2852
511.0012, 431.8262
511.4833, 424.5215
511.9654, 420.0000
512.4475, 422.9629
512.9296, 431.3047
513.4117, 443.8223
513.8939, 462.2031
514.3760, 472.2090
514.8581, 470.1719
515.3402, 458.6582
515.8223, 436.6367
516.3044, 406.2598
516.7866, 380.6035
517.2687, 367.9160
517.7508, 361.2773
518.2329, 353.6816
518.7150, 344.7480
519.1971, 331.1289
519.6793, 310.2910
520.1614, 284.9062
520.6435, 261.8438
521.1256, 242.5469
521.6077, 220.4121
522.0898, 188.0469
522.5720, 156.8047
523.0541, 139.5781
523.5362, 134.8203
524.0183, 128.8945
524.5004, 111.0449
524.9825, 85.47461
525.4647, 73.84570
525.9468, 91.20898
526.4289, 101.6074
526.9110, 98.85156
527.3931, 90.61523
527.8752, 81.98633
528.3574, 74.27930
528.8395, 67.49609
529.3216, 61.61523
529.8037, 56.75977
530.2858, 53.92578
530.7679, 54.99414
531.2501, 53.56250
531.7322, 43.71875
532.2143, 31.62500
532.6964, 23.28320
533.1785, 19.78320
533.6606, 18.54297
534.1428, 17.76367
534.6249, 17.95703
535.1070, 20.92969
535.5891, 27.18359
536.0712, 32.31055
536.5533, 32.48438
537.0355, 28.62500
537.5176, 27.10547
537.9997, 30.28711
538.4818, 32.64062
538.9639, 32.30469
539.4460, 30.27930
539.9282, 28.58789
540.4103, 27.30664
540.8924, 22.80859
541.3745, 9.730469
541.8566, 12.55664
542.3387, 21.67969
542.8209, 1.798828
543.3029, 12.80273
543.7850, 13.54297
544.2672, 6.384766
544.7493, 3.833984
545.2314, 15.30859
545.7135, 23.53125
546.1956, 20.84570
546.6777, 8.503906
547.1599, 1.539063
547.6420, 1.785156
548.1241, 5.037109
548.6062, 12.45117
549.0883, 20.27344
549.5704, 21.90234
550.0526, 14.33008
550.5347, 4.318359
551.0168, 5.929688
551.4989, 15.15625
551.9810, 20.82227
552.4631, 22.36523
552.9453, 20.04883
553.4274, 13.00195
553.9095, 1.123047
554.3916, 5.964844
554.8737, 6.595703
555.3558, 5.337891
555.8380, 3.406250
556.3201, 0.4042970
556.8022, 5.248047
557.2843, 13.50391
557.7664, 21.53906
558.2485, 26.54688
558.7307, 28.63086
559.2128, 25.67383
559.6949, 12.71875
560.1770, 1.992188
560.6591, 2.789063
561.1412, 3.197266
561.6234, 0.1503910
562.1055, 6.560547
562.5876, 12.41992
563.0697, 14.40625
563.5518, 12.43164
564.0339, 2.789063
564.5161, 18.04297
564.9982, 30.44531
565.4803, 14.73047
565.9624, 21.23633
566.4445, 40.66797
566.9266, 29.61914
567.4088, 21.97852
567.8909, 35.52539
568.3730, 55.89062
568.8551, 63.35547
569.3372, 55.53711
569.8193, 45.47656
570.3015, 45.98633
570.7836, 56.18359
571.2657, 60.38477
571.7478, 47.87695
572.2299, 43.81055
572.7120, 59.61328
573.1942, 80.33789
573.6763, 93.40625
574.1584, 96.30273
574.6405, 92.32422
575.1226, 80.31445
575.6047, 63.23047
576.0869, 54.54883
576.5690, 56.13281
577.0511, 58.04492
577.5332, 54.67578
578.0153, 49.58594
578.4974, 48.84570
578.9796, 53.52930
579.4617, 58.21289
579.9438, 62.05273
580.4259, 64.19141
580.9080, 64.31836
581.3901, 62.10352
581.8723, 54.67773
582.3544, 38.94727
582.8365, 19.27539
583.3186, 10.39062
583.8007, 20.65430
584.2828, 29.72461
584.7650, 40.68164
585.2471, 47.72656
585.7292, 45.12109
586.2113, 34.99219
586.6934, 23.80273
587.1755, 14.59766
587.6577, 8.722656
588.1398, 10.89258
588.6219, 22.53125
589.1040, 32.05469
589.5861, 35.36719
590.0682, 36.94922
590.5504, 41.51367
591.0325, 48.42969
591.5146, 53.62305
591.9967, 57.08203
592.4788, 57.25195
592.9609, 50.91992
593.4431, 40.25195
593.9252, 31.01367
594.4073, 25.09180
594.8894, 21.71875
595.3715, 19.43750
595.8536, 16.33008
596.3358, 25.60156
596.8179, 64.92969
597.3000, 96.22852
597.7821, 100.3672
598.2642, 89.25977
598.7463, 80.12891
599.2285, 78.78125
599.7106, 80.42578
600.1927, 81.47266
600.6748, 83.46484
601.1569, 82.70703
601.6390, 77.59961
602.1212, 72.16016
602.6033, 68.27734
603.0854, 64.91406
603.5675, 61.33594
604.0496, 57.18945
604.5317, 56.34180
605.0139, 64.75391
605.4960, 74.70312
605.9781, 73.14062
606.4602, 59.51172
606.9423, 45.74609
607.4244, 41.01953
607.9066, 43.78516
608.3887, 45.85352
608.8708, 45.76953
609.3529, 46.68750
609.8350, 51.97070
610.3171, 55.69922
610.7993, 51.15430
611.2814, 40.75586
611.7635, 33.70898
612.2456, 36.73438
612.7277, 44.94336
613.2098, 46.30859
613.6920, 39.91016
614.1741, 37.34180
614.6562, 43.85156
615.1383, 51.56836
615.6204, 51.95703
616.1025, 46.15625
616.5847, 40.62695
617.0668, 36.40039
617.5489, 33.21094
618.0310, 29.28320
618.5131, 26.33789
618.9952, 30.40430
619.4774, 43.03320
619.9595, 55.17578
620.4416, 55.11914
620.9237, 41.61914
621.4058, 33.31445
621.8879, 33.56641
622.3701, 34.09375
622.8522, 36.25391
623.3343, 38.91406
623.8164, 38.93164
624.2985, 34.83789
624.7806, 30.52148
625.2628, 27.98438
625.7448, 27.83984
626.2269, 34.75781
626.7090, 50.05859
627.1912, 56.05273
627.6733, 39.26953
628.1554, 13.62500
628.6375, 7.990234
629.1196, 27.39453
629.6017, 38.55859
630.0839, 26.55273
630.5660, 13.59570
631.0481, 14.61328
631.5302, 27.21484
632.0123, 44.94727
632.4944, 64.83203
632.9766, 82.41406
633.4587, 89.28711
633.9408, 83.22852
634.4229, 77.27734
634.9050, 71.33008
635.3871, 65.98828
635.8693, 63.30078
636.3514, 60.83008
636.8335, 53.39062
637.3156, 37.90625
637.7977, 26.32422
638.2798, 27.99023
638.7620, 39.35156
639.2441, 58.36719
639.7262, 83.94727
640.2083, 99.28906
640.6904, 91.95703
641.1725, 67.92969
641.6547, 47.06445
642.1368, 25.63672
642.6189, 13.44922
643.1010, 13.34570
643.5831, 19.74805
644.0652, 36.13086
644.5474, 55.66016
645.0295, 62.03320
645.5116, 44.94922
645.9937, 19.61523
646.4758, 11.58008
646.9579, 20.66211
647.4401, 28.95312
647.9222, 35.37695
648.4043, 37.60547
648.8864, 32.00195
649.3685, 20.76562
649.8506, 10.98242
650.3328, 3.216797
650.8149, 2.816406
651.2970, 7.900391
651.7791, 10.74805
652.2612, 7.089844
652.7433, 1.746094
653.2255, 6.224609
653.7076, 1.865234
654.1897, 17.40820
654.6718, 21.41406
655.1539, 10.63867
655.6360, 3.480469
656.1182, 27.19922
656.6003, 46.80664
657.0824, 52.00195
657.5645, 46.21289
658.0466, 40.77344
658.5287, 39.35547
659.0109, 40.39844
659.4930, 44.75000
659.9751, 50.27734
660.4572, 50.64844
660.9393, 44.47266
661.4214, 35.00977
661.9036, 24.25195
662.3857, 12.67969
662.8678, 5.339844
663.3499, 6.527344
663.8320, 6.761719
664.3141, 0.2480470
664.7963, 3.398438
665.2784, 6.515625
665.7605, 27.36328
666.2426, 47.25391
666.7247, 60.64258
667.2068, 66.10938
667.6890, 56.80273
668.1711, 33.37695
668.6532, 18.04102
669.1353, 17.66016
669.6174, 22.03125
670.0995, 21.99023
670.5817, 18.04102
671.0638, 16.50781
671.5459, 22.36523
672.0280, 24.56445
672.5101, 13.99805
672.9922, 1.158203
673.4744, 2.195313
673.9565, 4.837891
674.4386, 16.44531
674.9207, 29.53320
675.4028, 41.63867
675.8849, 43.55469
676.3671, 32.88086
676.8492, 22.37695
677.3313, 11.38281
677.8134, 4.816406
678.2955, 9.238281
678.7776, 21.46680
679.2598, 29.96289
679.7419, 30.97070
680.2240, 29.17773
680.7061, 26.41602
681.1882, 23.06445
681.6703, 18.41211
682.1525, 13.02148
682.6346, 10.79883
683.1167, 15.43555
683.5988, 25.23828
684.0809, 31.70508
684.5630, 33.72070
685.0452, 34.87500
685.5273, 31.86914
686.0094, 31.53125
686.4915, 42.60156
686.9736, 59.83398
687.4557, 66.75391
687.9379, 51.76367
688.4200, 34.84375
688.9021, 33.53320
689.3842, 42.21680
689.8663, 48.16211
690.3484, 49.64844
690.8306, 55.30273
691.3127, 73.92383
691.7948, 100.8770
692.2769, 112.3242
692.7590, 94.91992
693.2411, 83.05859
693.7233, 80.33398
694.2054, 81.93164
694.6875, 87.83789
695.1696, 95.63086
695.6517, 99.72070
696.1339, 96.48828
696.6160, 92.80469
697.0981, 97.97852
697.5802, 109.2168
698.0623, 115.9199
698.5444, 116.2910
699.0266, 114.7227
699.5087, 112.8594
699.9908, 112.0918
700.4729, 118.3359
700.9550, 140.1270
701.4371, 155.6211
701.9193, 158.5918
702.4014, 160.8535
702.8835, 170.7891
703.3656, 185.0488
703.8477, 194.0820
704.3298, 193.4238
704.8120, 190.9023
705.2941, 198.7637
705.7762, 214.1641
706.2583, 220.7344
706.7404, 215.3555
707.2225, 213.9980
707.7046, 228.6035
708.1867, 250.8965
708.6688, 260.1191
709.1509, 251.7578
709.6331, 243.6035
710.1152, 232.4863
710.5973, 226.4512
711.0794, 234.0664
711.5615, 248.3535
712.0436, 256.3965
712.5258, 253.3887
713.0079, 246.4297
713.4900, 245.2539
713.9721, 248.1172
714.4542, 248.4219
714.9363, 246.7598
715.4185, 236.9590
715.9006, 210.7578
716.3827, 180.8848
716.8648, 172.1289
717.3469, 189.8379
717.8290, 194.8789
718.3112, 173.0996
718.7933, 149.6992
719.2754, 137.0488
719.7575, 130.7852
720.2396, 123.4727
720.7217, 113.2852
721.2039, 103.8848
721.6860, 100.1113
722.1681, 99.53125
722.6502, 91.12695
723.1323, 73.55078
723.6144, 61.31250
724.0966, 59.64453
724.5787, 64.41992
725.0608, 74.70508
725.5429, 90.27930
726.0250, 94.49219
726.5071, 75.10547
726.9893, 58.12891
727.4714, 56.90625
727.9535, 60.68164
728.4356, 54.55859
728.9177, 39.17578
729.3998, 29.69141
729.8820, 38.52539
730.3641, 57.67773
730.8462, 70.11914
731.3283, 75.69727
731.8104, 74.34570
732.2925, 61.52539
732.7747, 51.74219
733.2568, 60.21484
733.7389, 82.24023
734.2210, 93.00977
734.7031, 83.03711
735.1852, 76.28125
735.6674, 80.93164
736.1495, 87.80273
736.6316, 89.27344
737.1137, 86.00781
737.5958, 82.77734
738.0779, 81.96289
738.5601, 80.62695
739.0422, 73.04883
739.5243, 60.16797
740.0064, 50.10547
740.4885, 43.51758
740.9706, 40.76953
741.4528, 44.70703
741.9349, 50.94531
742.4170, 48.61133
742.8991, 34.13672
743.3812, 24.63672
743.8633, 28.48633
744.3455, 30.53125
744.8276, 19.20898
745.3097, 2.308594
745.7918, 8.910156
746.2739, 10.80664
746.7560, 5.068359
747.2382, 12.73438
747.7203, 36.02930
748.2024, 42.33984
748.6845, 31.26758
749.1666, 18.80078
749.6487, 7.955078
750.1309, 3.488281
750.6130, 13.30273
751.0951, 38.58789
751.5772, 54.48828
752.0593, 54.02148
752.5414, 53.64648
753.0236, 58.61523
753.5057, 63.54883
753.9878, 62.25586
754.4699, 55.56836
754.9520, 49.44336
755.4341, 47.27539
755.9163, 46.76758
756.3984, 43.93945
756.8805, 39.64844
757.3626, 40.26758
757.8447, 47.45703
758.3268, 49.13477
758.8090, 34.42188
759.2911, 10.31445
759.7732, 0.2167970
760.2553, 16.46484
760.7374, 25.07617
761.2195, 24.20898
761.7017, 18.96875
762.1838, 8.365234
762.6659, 3.414063
763.1480, 9.888672
763.6301, 8.951172
764.1122, 6.976563
764.5944, 10.28906
765.0765, 14.70703
765.5586, 11.87500
766.0407, 3.361328
766.5228, 0.7421880
767.0049, 3.873047
767.4871, 10.85938
767.9692, 11.52148
768.4513, 5.783203
768.9334, 3.488281
769.4155, 13.96289
769.8976, 13.01367
770.3798, 18.70117
770.8619, 51.95898
771.3440, 61.75977
771.8261, 50.93945
772.3082, 40.92188
772.7903, 39.92188
773.2725, 40.94141
773.7546, 38.09961
774.2367, 34.73242
774.7188, 36.91797
775.2009, 44.71484
775.6830, 53.72461
776.1652, 61.41211
776.6473, 66.55273
777.1294, 65.77734
777.6115, 58.47461
778.0936, 48.88281
778.5757, 33.86914
779.0579, 23.03516
779.5400, 24.67578
780.0221, 32.62500
780.5042, 36.05078
780.9863, 32.90234
781.4684, 33.64453
781.9506, 45.52148
782.4327, 57.29297
782.9148, 61.94922
783.3969, 61.33984
783.8790, 57.40820
784.3611, 51.58594
784.8433, 48.97852
785.3254, 56.67383
785.8075, 69.65234
786.2896, 69.95703
786.7717, 57.23633
787.2538, 54.33203
787.7360, 70.29297
788.2181, 87.55273
788.7002, 89.58203
789.1823, 78.13867
789.6644, 68.26172
790.1465, 55.34961
790.6286, 50.45898
791.1107, 59.82227
791.5928, 72.58789
792.0750, 85.51758
792.5571, 95.57227
793.0392, 96.17188
793.5213, 83.74609
794.0034, 72.58398
794.4855, 79.72461
794.9677, 94.77148
795.4498, 96.48047
795.9319, 85.70117
796.4140, 77.47070
796.8961, 78.03320
797.3782, 81.87695
797.8604, 81.20898
798.3425, 75.59961
798.8246, 72.61328
799.3067, 73.80469
799.7888, 74.49805
800.2709, 72.94727
800.7531, 70.74023
801.2352, 69.23242
801.7173, 68.30469
802.1994, 66.76758
802.6815, 61.67969
803.1636, 59.40039
803.6458, 63.87500
804.1279, 72.75195
804.6100, 86.65625
805.0921, 102.8301
805.5742, 111.8867
806.0563, 108.5977
806.5385, 99.92969
807.0206, 97.44336
807.5027, 100.5566
807.9848, 100.6328
808.4669, 97.07227
808.9490, 93.25195
809.4312, 90.70312
809.9133, 88.46875
810.3954, 85.28711
810.8775, 81.04492
811.3596, 76.92773
811.8417, 75.02734
812.3239, 69.95898
812.8060, 53.01562
813.2881, 38.05859
813.7702, 41.98047
814.2523, 61.70312
814.7344, 78.60742
815.2166, 83.67773
815.6987, 82.04102
816.1808, 76.53906
816.6629, 68.80664
817.1450, 61.34180
817.6271, 54.78125
818.1093, 52.95508
818.5914, 57.71289
819.0735, 66.06445
819.5556, 71.97656
820.0377, 74.14062
820.5198, 81.06055
821.0020, 98.21875
821.4841, 109.9824
821.9662, 106.4277
822.4483, 96.83984
822.9304, 91.86328
823.4125, 91.91797
823.8947, 91.18750
824.3768, 89.36914
824.8589, 84.58594
825.3410, 71.01172
825.8231, 57.98438
826.3052, 60.58594
826.7874, 74.72461
827.2695, 79.77734
827.7516, 64.16211
828.2337, 42.70508
828.7158, 31.61523
829.1979, 30.09180
829.6801, 38.80273
830.1622, 57.85352
830.6443, 70.32031
831.1264, 66.90820
831.6085, 54.75391
832.0906, 44.72852
832.5728, 36.62695
833.0549, 32.83008
833.5370, 33.68945
834.0191, 37.49219
834.5012, 48.86719
834.9833, 58.93164
835.4655, 58.48438
835.9476, 49.26562
836.4297, 41.96484
836.9118, 39.64648
837.3939, 40.54297
837.8760, 45.14844
838.3582, 52.26758
838.8403, 61.60938
839.3224, 70.72070
839.8045, 75.19727
840.2866, 73.59766
840.7687, 67.80273
841.2509, 57.90625
841.7330, 45.29883
842.2151, 37.82031
842.6972, 35.72656
843.1793, 38.69531
843.6614, 47.75195
844.1436, 58.17969
844.6257, 63.84180
845.1078, 64.88867
845.5899, 71.65820
846.0720, 94.25586
846.5541, 107.1621
847.0363, 101.4102
847.5184, 91.78711
848.0005, 87.07227
848.4826, 85.59766
848.9647, 81.60938
849.4468, 72.36719
849.9290, 66.37891
850.4111, 70.74805
850.8932, 78.41602
851.3753, 84.35156
851.8574, 87.45312
852.3395, 85.77344
852.8217, 79.19922
853.3038, 70.78711
853.7859, 63.40039
854.2680, 56.98242
854.7501, 51.42969
855.2322, 46.77734
855.7144, 43.06250
856.1965, 40.58984
856.6786, 37.82812
857.1607, 33.22266
857.6428, 27.77148
858.1249, 25.06445
858.6071, 28.77539
859.0892, 26.82227
859.5713, 9.201172
860.0534, 2.535156
860.5355, 0.6035160
861.0176, 11.08203
861.4998, 31.96094
861.9819, 60.53516
862.4640, 79.55078
862.9461, 77.47070
863.4282, 68.64844
863.9103, 59.84766
864.3925, 52.12695
864.8746, 47.77344
865.3567, 46.02734
865.8388, 43.88477
866.3209, 39.74023
866.8030, 33.52344
867.2852, 24.09180
867.7673, 12.40820
868.2494, 1.912109
868.7315, 7.236328
869.2136, 8.091797
869.6957, 3.857422
870.1779, 19.42773
870.6600, 26.22656
871.1421, 24.12305
871.6242, 23.05859
872.1063, 24.15039
872.5884, 24.27539
873.0705, 22.40625
873.5526, 19.85742
874.0347, 16.33398
874.5168, 12.89258
874.9990, 12.23047
875.4811, 16.07031
875.9632, 18.91016
876.4453, 18.14258
876.9274, 16.43750
877.4095, 16.21484
877.8917, 16.31250
878.3738, 13.80273
878.8559, 8.484375
879.3380, 3.800781
879.8201, 2.203125
880.3022, 3.197266
880.7844, 5.156250
881.2665, 8.900391
881.7486, 20.96094
882.2307, 41.39453
882.7128, 52.24414
883.1949, 40.49609
883.6771, 19.75098
884.1592, 21.87109
884.6413, 52.58398
885.1234, 60.43652
885.6055, 34.90234
886.0876, 12.14453
886.5698, 4.722656
887.0519, 5.125977
887.5340, 6.252930
888.0161, 7.950195
888.4982, 8.534180
888.9803, 8.102539
889.4625, 6.393555
889.9446, 1.724609
890.4267, 6.298828
890.9088, 5.519531
891.3909, 24.51660
891.8730, 29.61816
892.3552, 14.33594
892.8373, 3.477539
893.3194, 22.98730
893.8015, 46.51465
894.2836, 44.26953
894.7657, 24.68066
895.2479, 3.333008
895.7300, 14.35645
896.2121, 23.51855
896.6942, 19.45508
897.1763, 8.207031
897.6584, 2.963867
898.1406, 2.646484
898.6227, 6.603516
899.1048, 27.14844
899.5869, 40.46191
900.0690, 36.08105
900.5511, 24.68750
901.0333, 22.49707
901.5154, 30.03711
901.9975, 33.09570
902.4796, 29.00293
902.9617, 25.43848
903.4438, 23.52930
903.9260, 23.09668
904.4081, 24.10156
904.8902, 26.48145
905.3723, 31.34766
905.8544, 42.77148
906.3365, 45.70117
906.8187, 23.67383
907.3008, 5.626953
907.7829, 15.35449
908.2650, 36.60938
908.7471, 45.56738
909.2292, 39.38086
909.7114, 32.50293
910.1935, 33.12695
910.6756, 36.58984
911.1577, 41.17090
911.6398, 44.98535
912.1219, 42.26074
912.6041, 34.63770
913.0862, 32.94629
913.5683, 42.52148
914.0504, 52.97656
914.5325, 48.39258
915.0146, 32.29883
915.4968, 23.90527
915.9789, 23.75000
916.4610, 26.88281
916.9431, 33.30957
917.4252, 36.34766
917.9073, 28.91895
918.3895, 15.22559
918.8716, 10.32031
919.3537, 17.26660
919.8358, 25.91309
920.3179, 40.49512
920.8000, 49.33984
921.2822, 40.02734
921.7643, 26.13965
922.2464, 24.83984
922.7285, 36.15625
923.2106, 44.48926
923.6927, 45.17285
924.1749, 45.84668
924.6570, 53.15820
925.1391, 57.19727
925.6212, 46.09180
926.1033, 26.78613
926.5854, 14.57812
927.0676, 13.90527
927.5497, 18.00293
928.0318, 25.98535
928.5139, 32.17773
928.9960, 29.16504
929.4781, 21.92969
929.9603, 20.26074
930.4424, 25.19043
930.9245, 31.77539
931.4066, 37.20215
931.8887, 40.68652
932.3708, 40.18066
932.8530, 36.65137
933.3351, 34.27734
933.8172, 33.07520
934.2993, 29.33887
934.7814, 21.15918
935.2635, 16.25684
935.7457, 24.42578
936.2278, 42.35449
936.7099, 50.03125
937.1920, 44.51855
937.6741, 41.69727
938.1563, 44.01953
938.6384, 47.60254
939.1205, 52.91406
939.6026, 56.14746
940.0847, 48.01465
940.5668, 24.30469
941.0490, 14.44238
941.5311, 30.59180
942.0132, 43.49805
942.4953, 49.71289
942.9774, 49.17773
943.4595, 37.22363
943.9417, 19.24121
944.4238, 8.723633
944.9059, 9.366211
945.3880, 13.36328
945.8701, 22.92188
946.3522, 29.75293
946.8344, 26.31641
947.3165, 17.95117
947.7986, 11.13281
948.2807, 7.108398
948.7628, 5.229492
949.2449, 4.822266
949.7271, 5.946289
950.2092, 10.81641
950.6913, 15.81250
951.1734, 12.41016
951.6555, 3.882813
952.1376, 3.106445
952.6198, 13.92871
953.1019, 26.86328
953.5840, 32.13672
954.0661, 32.79590
954.5482, 37.63867
955.0303, 46.07812
955.5124, 50.89551
955.9945, 50.83984
956.4766, 48.62109
956.9587, 45.55957
957.4409, 40.64746
957.9230, 31.06055
958.4051, 16.85547
958.8872, 13.69043
959.3693, 24.59961
959.8514, 34.09180
960.3336, 40.18066
960.8157, 40.53320
961.2978, 30.62988
961.7799, 15.56543
962.2620, 10.40625
962.7441, 20.09863
963.2263, 24.42090
963.7084, 17.47852
964.1905, 13.18848
964.6726, 19.15039
965.1547, 26.02441
965.6368, 25.58496
966.1190, 19.02441
966.6011, 11.87793
967.0832, 0.9404300
967.5653, 2.649414
968.0474, 10.88184
968.5295, 24.39160
969.0117, 24.88770
969.4938, 21.15234
969.9759, 29.63867
970.4580, 49.18262
970.9401, 55.69434
971.4222, 28.86719
971.9044, 2.206055
972.3865, 1.226563
972.8686, 4.669922
973.3507, 6.226563
973.8328, 4.407227
974.3149, 5.238281
974.7971, 10.23242
975.2792, 14.98047
975.7613, 17.44434
976.2434, 16.01562
976.7255, 5.141602
977.2076, 10.07715
977.6898, 20.31152
978.1719, 23.94531
978.6540, 19.16309
979.1361, 5.161133
979.6182, 9.556641
980.1003, 13.67969
980.5825, 10.48535
981.0646, 10.96191
981.5467, 14.60059
982.0288, 18.26367
982.5109, 21.38086
982.9930, 18.95508
983.4752, 6.857422
983.9573, 8.749023
984.4394, 16.85742
984.9215, 17.39160
985.4036, 8.928711
985.8857, 10.96973
986.3679, 25.18652
986.8500, 27.88379
987.3321, 27.78613
987.8142, 31.43652
988.2963, 38.31348
988.7784, 48.10547
989.2606, 65.40918
989.7427, 67.96191
990.2248, 46.58887
990.7069, 27.85742
991.1890, 19.43555
991.6711, 17.45312
992.1533, 19.57227
992.6354, 25.15332
993.1175, 30.77734
993.5996, 40.43945
994.0817, 43.17871
994.5638, 27.41113
995.0460, 18.36426
995.5281, 33.58594
996.0102, 55.08496
996.4923, 63.21387
996.9744, 58.61523
997.4565, 54.14941
997.9387, 51.93652
998.4208, 50.14941
998.9029, 47.18848
999.3850, 46.08691
999.8671, 52.05566
1000.349, 59.31348
1000.831, 57.77148
1001.313, 47.38574
1001.796, 41.07812
1002.278, 46.83496
1002.760, 53.92480
1003.242, 58.10840
1003.724, 59.62500
1004.206, 57.42480
1004.688, 53.00391
1005.170, 47.35059
1005.653, 41.52051
1006.135, 41.46973
1006.617, 55.70117
1007.099, 70.83008
1007.581, 73.16113
1008.063, 69.31348
1008.545, 68.38867
1009.027, 70.07324
1009.509, 70.13965
1009.992, 67.26074
1010.474, 64.15918
1010.956, 64.02051
1011.438, 63.90527
1011.920, 56.46973
1012.402, 46.67285
1012.884, 48.53711
1013.366, 60.46484
1013.849, 67.26660
1014.331, 62.44629
1014.813, 53.95703
1015.295, 50.79199
1015.777, 50.32520
1016.259, 43.58496
1016.741, 33.12012
1017.223, 33.35156
1017.705, 45.33691
1018.188, 55.74902
1018.670, 57.71289
1019.152, 54.70410
1019.634, 50.35742
1020.116, 45.44336
1020.598, 43.49512
1021.080, 44.43262
1021.562, 46.84473
1022.044, 50.56445
1022.527, 53.80273
1023.009, 55.72461
1023.491, 56.06934
1023.973, 54.27246
1024.455, 50.33105
1024.937, 43.73340
1025.419, 33.56934
1025.901, 30.81445
1026.384, 39.17383
1026.866, 44.74512
1027.348, 37.45215
1027.830, 25.58008
1028.312, 25.20312
1028.794, 36.95020
1029.276, 43.09473
1029.758, 42.81250
1030.240, 39.07910
1030.723, 30.50977
1031.205, 24.67578
1031.687, 27.91113
1032.169, 35.61621
1032.651, 38.05859
1033.133, 34.08301
1033.615, 33.58105
1034.097, 37.13574
1034.579, 42.88965
1035.062, 51.72949
1035.544, 58.65430
1036.026, 60.37988
1036.508, 58.85938
1036.990, 57.15234
1037.472, 53.98828
1037.954, 55.98145
1038.436, 69.65332
1038.919, 75.66211
1039.401, 65.15039
1039.883, 53.19629
1040.365, 49.07910
1040.847, 49.76270
1041.329, 49.51172
1041.811, 47.24707
1042.293, 46.33301
1042.776, 49.89062
1043.258, 53.20703
1043.740, 56.02832
1044.222, 55.49316
1044.704, 48.17871
1045.186, 37.84277
1045.668, 31.62305
1046.150, 30.25977
1046.632, 31.30762
1047.115, 37.48730
1047.597, 41.80469
1048.079, 40.40918
1048.561, 38.39258
1049.043, 39.82812
1049.525, 43.10449
1050.007, 43.91504
1050.489, 41.20215
1050.971, 42.64355
1051.454, 58.58691
1051.936, 66.91504
1052.418, 51.61914
1052.900, 35.26660
1053.382, 38.16309
1053.864, 50.52832
1054.346, 50.75586
1054.828, 35.34375
1055.311, 28.09375
1055.793, 46.15234
1056.275, 58.65527
1056.757, 49.78711
1057.239, 36.76172
1057.721, 31.26465
1058.203, 31.52344
1058.685, 32.99414
1059.167, 34.90625
1059.650, 38.05371
1060.132, 43.50293
1060.614, 49.36133
1061.096, 54.10547
1061.578, 59.93652
1062.060, 72.21289
1062.542, 84.37402
1063.024, 82.70020
1063.506, 66.46387
1063.989, 55.37500
1064.471, 60.07715
1064.953, 66.33594
1065.435, 70.45996
1065.917, 71.84863
1066.399, 69.45020
1066.881, 64.58984
1067.363, 57.42480
1067.846, 48.71387
1068.328, 43.52148
1068.810, 48.62793
1069.292, 48.67578
1069.774, 27.82227
1070.256, 8.896484
1070.738, 13.02246
1071.220, 27.63672
1071.703, 33.37012
1072.185, 28.84375
1072.667, 25.33105
1073.149, 26.25000
1073.631, 30.39551
1074.113, 40.62012
1074.595, 50.13770
1075.077, 55.42188
1075.559, 56.20703
1076.042, 50.37012
1076.524, 39.61914
1077.006, 31.38672
1077.488, 28.39160
1077.970, 27.47949
1078.452, 26.33301
1078.934, 27.76074
1079.416, 39.41504
1079.898, 50.73633
1080.380, 45.56348
1080.863, 28.15430
1081.345, 17.93750
1081.827, 22.10156
1082.309, 27.22266
1082.791, 25.90430
1083.273, 25.15723
1083.755, 31.01367
1084.237, 38.34668
1084.720, 38.47559
1085.202, 35.42773
1085.684, 43.78223
1086.166, 69.29883
1086.648, 86.14062
1087.130, 78.54492
1087.612, 65.30762
1088.094, 52.45020
1088.577, 41.46289
1089.059, 32.62793
1089.541, 26.97461
1090.023, 28.45703
1090.505, 37.88477
1090.987, 41.88184
1091.469, 30.30566
1091.951, 19.52539
1092.433, 17.61230
1092.916, 18.46582
1093.398, 19.87500
1093.880, 19.36523
1094.362, 11.71191
1094.844, 2.797852
1095.326, 12.22363
1095.808, 8.686523
1096.290, 5.508789
1096.772, 9.833008
1097.255, 12.84082
1097.737, 8.238281
1098.219, 0.6171880
1098.701, 12.35449
1099.183, 24.55566
1099.665, 25.52637
1100.147, 3.755859
1100.629, 11.10156
1101.112, 8.188477
1101.594, 0.5781250
1102.076, 8.703125
1102.558, 16.49121
1103.040, 19.45898
1103.522, 18.42285
1104.004, 16.42383
1104.486, 11.90234
1104.969, 12.86035
1105.451, 29.85449
1105.933, 40.48242
1106.415, 27.80762
1106.897, 14.22656
1107.379, 23.24121
1107.861, 44.23926
1108.343, 47.71289
1108.825, 26.43652
1109.307, 17.22559
1109.790, 36.23438
1110.272, 49.00586
1110.754, 43.69824
1111.236, 35.40137
1111.718, 33.01270
1112.200, 33.63672
1112.682, 33.13379
1113.164, 31.62207
1113.647, 27.16797
1114.129, 15.84961
1114.611, 8.162109
1115.093, 5.101563
1115.575, 5.570313
1116.057, 12.39160
1116.539, 19.57031
1117.021, 19.91895
1117.504, 14.22363
1117.986, 8.041016
1118.468, 0.7871090
1118.950, 4.712891
1119.432, 1.061523
1119.914, 1.821289
1120.396, 0.4267580
1120.878, 1.474609
1121.360, 4.708008
1121.843, 15.85254
1122.325, 26.41699
1122.807, 38.44238
1123.289, 35.77246
1123.771, 11.94336
1124.253, 3.724609
1124.735, 2.743164
1125.217, 0.4775390
1125.699, 3.909180
1126.182, 9.839844
1126.664, 6.306641
1127.146, 6.072266
1127.628, 16.70605
1128.110, 25.81250
1128.592, 30.22949
1129.074, 29.00488
1129.556, 26.77148
1130.039, 25.47070
1130.521, 24.53809
1131.003, 23.25000
1131.485, 21.91016
1131.967, 21.03516
1132.449, 20.81152
1132.931, 26.03809
1133.413, 36.80762
1133.896, 47.99023
1134.378, 57.98047
1134.860, 60.66113
1135.342, 50.29199
1135.824, 35.22949
1136.306, 31.19629
1136.788, 35.37109
1137.270, 37.73535
1137.752, 38.09863
1138.234, 34.42285
1138.717, 27.58594
1139.199, 26.65723
1139.681, 36.32715
1140.163, 48.97949
1140.645, 57.01953
1141.127, 61.39746
1141.609, 63.69238
1142.091, 63.83203
1142.574, 61.47363
1143.056, 56.76465
1143.538, 48.98438
1144.020, 38.64355
1144.502, 30.89453
1144.984, 29.47754
1145.466, 31.97266
1145.948, 38.41504
1146.431, 45.09375
1146.913, 45.64844
1147.395, 43.70996
1147.877, 47.46973
1148.359, 56.55762
1148.841, 63.39746
1149.323, 64.85156
1149.805, 62.81250
1150.287, 52.76758
1150.770, 46.13770
1151.252, 57.51465
1151.734, 71.51270
1152.216, 68.62988
1152.698, 54.94043
1153.180, 47.64844
1153.662, 51.26953
1154.144, 56.11035
1154.626, 60.25977
1155.109, 62.32227
1155.591, 60.57324
1156.073, 59.25098
1156.555, 60.99414
1157.037, 63.90039
1157.519, 66.71191
1158.001, 68.48242
1158.483, 63.44238
1158.966, 42.76270
1159.448, 35.94824
1159.930, 57.43945
1160.412, 74.71973
1160.894, 79.30957
1161.376, 76.44824
1161.858, 65.92871
1162.340, 52.94727
1162.822, 49.36035
1163.305, 56.40430
1163.787, 63.00488
1164.269, 69.41113
1164.751, 73.25488
1165.233, 72.55566
1165.715, 73.93750
1166.197, 82.59668
1166.679, 88.99219
1167.161, 79.36621
1167.644, 60.27539
1168.126, 60.84668
1168.608, 81.94531
1169.090, 91.99219
1169.572, 89.29980
1170.054, 89.41895
1170.536, 96.57031
1171.018, 106.2100
1171.500, 115.9424
1171.983, 121.3330
1172.465, 111.5527
1172.947, 93.19824
1173.429, 89.29883
1173.911, 96.21191
1174.393, 101.4873
1174.875, 103.6963
1175.357, 105.2793
1175.840, 107.0605
1176.322, 107.2773
1176.804, 103.8115
1177.286, 99.56250
1177.768, 96.90137
1178.250, 95.63965
1178.732, 95.58105
1179.214, 96.82422
1179.697, 100.0762
1180.179, 104.6934
1180.661, 108.1748
1181.143, 109.4258
1181.625, 109.1650
1182.107, 105.6572
1182.589, 103.2197
1183.071, 106.3818
1183.553, 110.0234
1184.036, 110.5908
1184.518, 107.9170
1185.000, 99.67676
1185.482, 86.04785
1185.964, 79.84766
1186.446, 92.42188
1186.928, 98.61719
1187.410, 87.25977
1187.892, 76.43945
1188.375, 71.57129
1188.857, 73.08496
1189.339, 85.87988
1189.821, 103.8809
1190.303, 108.6924
1190.785, 97.74414
1191.267, 89.92578
1191.749, 86.19727
1192.232, 82.06250
1192.714, 75.59180
1193.196, 72.28711
1193.678, 75.01855
1194.160, 81.44336
1194.642, 88.98340
1195.124, 97.69043
1195.606, 110.8975
1196.089, 127.7979
1196.571, 124.1572
1197.053, 100.4209
1197.535, 89.41016
1198.017, 98.58301
1198.499, 107.1787
1198.981, 102.1367
1199.463, 93.76855
1199.945, 96.12207
1200.427, 104.5283
1200.910, 111.9824
1201.392, 117.0771
1201.874, 115.5371
1202.356, 108.8096
1202.838, 101.4258
1203.320, 94.97656
1203.802, 90.33398
1204.284, 88.87012
1204.767, 86.51855
1205.249, 76.89551
1205.731, 68.68945
1206.213, 71.73730
1206.695, 78.54688
1207.177, 79.55469
1207.659, 76.14453
1208.141, 74.62402
1208.624, 76.39355
1209.106, 77.66016
1209.588, 76.82422
1210.070, 76.34668
1210.552, 75.94141
1211.034, 76.84961
1211.516, 81.61426
1211.998, 86.30078
1212.480, 86.75488
1212.963, 83.66797
1213.445, 80.21387
1213.927, 76.82031
1214.409, 69.31738
1214.891, 55.54980
1215.373, 46.74512
1215.855, 45.95312
1216.337, 44.47363
1216.819, 37.59180
1217.302, 28.24707
1217.784, 19.64746
1218.266, 12.40234
1218.748, 9.633789
1219.230, 10.26758
1219.712, 8.704102
1220.194, 4.806641
1220.676, 1.492188
1221.159, 9.471680
1221.641, 16.15039
1222.123, 20.04199
1222.605, 19.71387
1223.087, 10.85059
1223.569, 8.0077998E-02
1224.051, 4.190430
1224.533, 6.154297
1225.016, 10.31348
1225.498, 16.77148
1225.980, 26.36621
1226.462, 37.84375
1226.944, 44.68262
1227.426, 42.68848
1227.908, 41.81055
1228.390, 46.87793
1228.872, 49.64844
1229.354, 46.98145
1229.837, 40.33496
1230.319, 24.28223
1230.801, 8.635742
1231.283, 13.19629
1231.765, 37.17578
1232.247, 49.56152
1232.729, 46.40918
1233.211, 43.75098
1233.694, 41.41699
1234.176, 44.32031
1234.658, 56.23145
1235.140, 62.84570
1235.622, 52.56934
1236.104, 35.84668
1236.586, 30.81934
1237.068, 34.53613
1237.551, 35.23828
1238.033, 33.24512
1238.515, 28.45312
1238.997, 22.09082
1239.479, 20.43066
1239.961, 24.42383
1240.443, 26.18262
1240.925, 19.85645
1241.407, 14.33594
1241.890, 23.67188
1242.372, 32.21191
1242.854, 19.68750
1243.336, 1.099609
1243.818, 9.261719
1244.300, 8.485352
1244.782, 10.77148
1245.264, 46.94434
1245.746, 67.52930
1246.229, 53.03809
1246.711, 42.86719
1247.193, 50.65723
1247.675, 54.02637
1248.157, 38.73730
1248.639, 24.75977
1249.121, 28.17188
1249.603, 39.65723
1250.085, 41.22168
1250.568, 33.78516
1251.050, 39.06250
1251.532, 58.83301
1252.014, 66.37891
1252.496, 59.51074
1252.978, 55.08301
1253.460, 56.07617
1253.942, 52.19824
1254.425, 39.90527
1254.907, 28.17773
1255.389, 31.36230
1255.871, 42.12402
1256.353, 47.12012
1256.835, 48.45605
1257.317, 50.72168
1257.799, 52.71777
1258.281, 49.98633
1258.764, 44.35059
1259.246, 39.75977
1259.728, 37.98242
1260.210, 38.97461
1260.692, 43.76855
1261.174, 48.45898
1261.656, 53.95117
1262.138, 55.99512
1262.620, 46.84180
1263.103, 35.36621
1263.585, 37.75684
1264.067, 51.95801
1264.549, 50.38867
1265.031, 31.88574
1265.513, 29.87207
1265.995, 44.17676
1266.477, 50.45508
1266.960, 41.14258
1267.442, 32.66309
1267.924, 34.13965
1268.406, 37.08984
1268.888, 30.42090
1269.370, 18.83594
1269.852, 13.81250
1270.334, 12.66895
1270.817, 11.51074
1271.299, 9.432617
1271.781, 4.764648
1272.263, 1.205078
1272.745, 2.554688
1273.227, 3.199219
1273.709, 8.658203
1274.191, 10.33301
1274.673, 9.624023
1275.156, 4.697266
1275.638, 0.6210940
1276.120, 0.2187500
1276.602, 2.949219
1277.084, 9.486328
1277.566, 17.79004
1278.048, 22.91895
1278.530, 24.83887
1279.012, 20.40137
1279.495, 12.32129
1279.977, 7.125977
1280.459, 5.148438
1280.941, 5.905273
1281.423, 10.27734
1281.905, 13.00879
1282.387, 10.94043
1282.869, 6.967773
1283.352, 6.992188
1283.834, 8.307617
1284.316, 4.458984
1284.798, 0.0000000E+00
##END=



