##NAMES=Magadiite
##RRUFFID=R060994
##IDEAL CHEMISTRY=Na_2_Si_14_O_29_&#183;11H_2_O
##LOCALITY=Trinity Lake, Trinity County, California, USA
##OWNER=RRUFF
##SOURCE=Bob Jenkins
##DESCRIPTION=White compacted fine-grained silt
##STATUS=The identification of this mineral is not yet confirmed.
##URL=rruff.info/R060994
147.0752, 0.0000000E+00
147.5573, 253.8125
148.0394, 400.9531
148.5215, 473.2422
149.0037, 528.5938
149.4858, 563.8906
149.9679, 549.6562
150.4500, 516.1875
150.9321, 591.0391
151.4142, 657.6250
151.8963, 512.0938
152.3785, 355.8281
152.8606, 218.9375
153.3427, 132.6875
153.8248, 58.16406
154.3069, 20.43750
154.7890, 132.9297
155.2712, 179.2812
155.7533, 131.2734
156.2354, 2.359375
156.7175, 173.0703
157.1996, 390.6953
157.6817, 655.4531
158.1639, 970.8047
158.6460, 1368.633
159.1281, 1769.523
159.6102, 2149.688
160.0923, 2506.336
160.5744, 2845.992
161.0566, 3123.180
161.5387, 3394.250
162.0208, 3702.289
162.5029, 4139.359
162.9850, 4534.039
163.4671, 4803.445
163.9493, 4944.492
164.4314, 5042.820
164.9135, 5131.461
165.3956, 5201.000
165.8777, 5241.766
166.3598, 5235.945
166.8419, 5217.016
167.3241, 5231.547
167.8062, 5293.109
168.2883, 5295.203
168.7704, 5120.305
169.2525, 4854.188
169.7346, 4635.547
170.2168, 4600.961
170.6989, 4607.047
171.1810, 4502.031
171.6631, 4248.875
172.1452, 4014.977
172.6273, 3950.227
173.1095, 4011.398
173.5916, 4096.289
174.0737, 4153.414
174.5558, 4202.023
175.0379, 4269.828
175.5201, 4372.906
176.0022, 4464.781
176.4843, 4460.734
176.9664, 4384.820
177.4485, 4341.461
177.9306, 4430.562
178.4128, 4591.016
178.8949, 4715.961
179.3770, 4775.336
179.8591, 4808.070
180.3412, 4863.164
180.8233, 4942.016
181.3054, 5032.383
181.7876, 5133.992
182.2697, 5241.438
182.7518, 5350.555
183.2339, 5454.742
183.7160, 5559.703
184.1981, 5662.844
184.6803, 5763.375
185.1624, 5878.875
185.6445, 6066.297
186.1266, 6295.625
186.6087, 6450.922
187.0908, 6479.938
187.5730, 6413.172
188.0551, 6295.109
188.5372, 6115.656
189.0193, 5974.516
189.5014, 6036.703
189.9835, 6279.188
190.4657, 6424.797
190.9478, 6333.328
191.4299, 6066.281
191.9120, 5914.844
192.3941, 5904.328
192.8762, 5913.078
193.3584, 5759.125
193.8405, 5443.891
194.3226, 5177.047
194.8047, 5062.125
195.2868, 5086.125
195.7689, 5090.422
196.2510, 5079.203
196.7332, 5050.969
197.2153, 4977.938
197.6974, 4853.375
198.1795, 4783.625
198.6616, 4862.359
199.1437, 5100.391
199.6259, 5197.203
200.1080, 5113.906
200.5901, 4943.016
201.0722, 4844.828
201.5543, 4823.500
202.0364, 4845.688
202.5186, 4900.938
203.0007, 4989.297
203.4828, 5079.922
203.9649, 5172.672
204.4470, 5256.594
204.9291, 5269.188
205.4113, 5203.781
205.8934, 5165.625
206.3755, 5243.797
206.8576, 5475.688
207.3397, 5588.906
207.8218, 5549.016
208.3040, 5388.578
208.7861, 5187.234
209.2682, 4922.078
209.7503, 4687.047
210.2324, 4564.891
210.7145, 4604.047
211.1967, 4574.953
211.6788, 4436.344
212.1609, 4223.703
212.6430, 4087.016
213.1251, 4068.422
213.6072, 4065.172
214.0893, 3989.797
214.5715, 3782.250
215.0536, 3679.016
215.5357, 3739.500
216.0178, 3928.125
216.4999, 4022.734
216.9820, 3969.266
217.4642, 3888.359
217.9463, 3869.734
218.4284, 3924.281
218.9105, 3989.203
219.3926, 4065.891
219.8747, 4145.297
220.3569, 4176.359
220.8390, 4151.578
221.3211, 4090.625
221.8032, 4011.984
222.2853, 3911.156
222.7674, 3815.953
223.2496, 3754.062
223.7317, 3724.969
224.2138, 3585.594
224.6959, 3240.000
225.1780, 2906.422
225.6601, 2795.344
226.1423, 3025.453
226.6244, 3226.250
227.1065, 3316.234
227.5886, 3295.500
228.0707, 3307.531
228.5528, 3373.734
229.0349, 3447.312
229.5171, 3473.047
229.9992, 3411.094
230.4813, 3380.656
230.9634, 3425.922
231.4455, 3557.297
231.9276, 3587.562
232.4098, 3470.094
232.8919, 3296.625
233.3740, 3156.984
233.8561, 3050.094
234.3382, 2984.328
234.8203, 2988.938
235.3025, 3077.266
235.7846, 3068.734
236.2667, 2907.250
236.7488, 2701.906
237.2309, 2573.969
237.7130, 2550.156
238.1952, 2562.453
238.6773, 2605.469
239.1594, 2683.812
239.6415, 2755.281
240.1236, 2847.062
240.6057, 2924.969
241.0879, 2935.016
241.5700, 2809.188
242.0521, 2712.594
242.5342, 2687.703
243.0163, 2741.781
243.4984, 2801.547
243.9805, 2860.078
244.4627, 2928.219
244.9448, 3024.281
245.4269, 3185.328
245.9090, 3292.109
246.3911, 3285.750
246.8732, 3130.484
247.3554, 3089.672
247.8375, 3235.078
248.3196, 3429.234
248.8017, 3498.500
249.2838, 3394.562
249.7659, 3250.312
250.2481, 3100.219
250.7302, 2951.172
251.2123, 2778.734
251.6944, 2576.156
252.1765, 2371.359
252.6586, 2201.109
253.1408, 2090.188
253.6229, 1988.172
254.1050, 1897.969
254.5871, 1830.766
255.0692, 1703.891
255.5513, 1459.406
256.0334, 1214.781
256.5156, 1130.688
256.9977, 1284.922
257.4798, 1435.562
257.9619, 1502.703
258.4440, 1469.438
258.9261, 1511.266
259.4083, 1656.828
259.8904, 1838.094
260.3725, 1958.547
260.8546, 1964.406
261.3367, 2010.156
261.8188, 2151.062
262.3010, 2399.141
262.7831, 2576.297
263.2652, 2676.812
263.7473, 2708.844
264.2294, 2675.688
264.7115, 2545.578
265.1937, 2433.906
265.6758, 2392.656
266.1579, 2427.844
266.6400, 2360.016
267.1221, 2134.453
267.6042, 1875.578
268.0864, 1732.375
268.5685, 1740.734
269.0506, 1761.641
269.5327, 1773.281
270.0148, 1777.781
270.4969, 1735.906
270.9791, 1641.875
271.4612, 1520.500
271.9433, 1383.609
272.4254, 1217.656
272.9075, 1108.594
273.3896, 1087.047
273.8718, 1147.797
274.3539, 1244.328
274.8360, 1403.203
275.3181, 1542.453
275.8002, 1546.812
276.2823, 1386.844
276.7645, 1275.688
277.2466, 1272.703
277.7287, 1365.125
278.2108, 1464.250
278.6929, 1575.719
279.1750, 1669.734
279.6572, 1710.062
280.1393, 1691.422
280.6214, 1656.750
281.1035, 1599.359
281.5856, 1531.953
282.0677, 1533.719
282.5498, 1617.547
283.0320, 1707.578
283.5141, 1732.656
283.9962, 1694.047
284.4783, 1643.281
284.9604, 1595.875
285.4425, 1546.953
285.9247, 1466.578
286.4068, 1352.891
286.8889, 1240.906
287.3710, 1180.031
287.8531, 1167.344
288.3352, 1117.953
288.8174, 982.6875
289.2995, 816.6094
289.7816, 787.9844
290.2637, 898.9219
290.7458, 1008.453
291.2279, 994.7969
291.7101, 877.6719
292.1922, 763.0469
292.6743, 676.2344
293.1564, 592.0000
293.6385, 450.5781
294.1206, 255.8281
294.6028, 69.59375
295.0849, 59.78125
295.5670, 141.2500
296.0491, 196.3906
296.5312, 207.0156
297.0133, 221.0625
297.4955, 347.3125
297.9776, 561.1562
298.4597, 720.9531
298.9418, 712.2656
299.4239, 584.6562
299.9060, 431.0312
300.3882, 261.6719
300.8703, 91.85938
301.3524, 24.90625
301.8345, 109.3906
302.3166, 242.3594
302.7987, 505.3281
303.2809, 821.6719
303.7630, 1102.266
304.2451, 1328.625
304.7272, 1496.797
305.2093, 1545.953
305.6914, 1518.000
306.1736, 1518.688
306.6557, 1671.344
307.1378, 1852.172
307.6199, 1930.141
308.1020, 1889.391
308.5841, 1800.250
309.0663, 1704.125
309.5484, 1602.547
310.0305, 1492.828
310.5126, 1390.922
310.9947, 1277.391
311.4768, 1123.125
311.9589, 922.2656
312.4410, 749.5312
312.9232, 686.2500
313.4053, 670.0000
313.8874, 614.8281
314.3695, 403.1875
314.8516, 217.6406
315.3337, 204.8125
315.8159, 368.2656
316.2980, 462.0469
316.7801, 282.2500
317.2622, 24.81250
317.7443, 114.1562
318.2264, 87.62500
318.7086, 267.0625
319.1907, 266.0625
319.6728, 101.0469
320.1549, 25.42188
320.6370, 39.32812
321.1191, 1.312500
321.6013, 53.90625
322.0834, 160.4375
322.5655, 214.4375
323.0476, 124.9219
323.5297, 69.12500
324.0118, 143.2812
324.4940, 32.12500
324.9761, 267.4219
325.4582, 458.3750
325.9403, 574.0000
326.4224, 663.5000
326.9045, 726.5000
327.3867, 763.8281
327.8688, 783.0938
328.3509, 806.4062
328.8330, 792.0469
329.3151, 715.6719
329.7972, 483.8750
330.2794, 366.1562
330.7615, 440.7500
331.2436, 615.8906
331.7257, 693.2812
332.2078, 599.6875
332.6899, 515.0156
333.1721, 509.7812
333.6542, 620.0625
334.1363, 680.2031
334.6184, 684.5625
335.1005, 650.3281
335.5826, 596.0312
336.0648, 501.0469
336.5469, 435.7969
337.0290, 418.1562
337.5111, 447.6406
337.9932, 521.3438
338.4753, 660.6875
338.9575, 794.1250
339.4396, 832.5781
339.9217, 751.5781
340.4038, 691.3594
340.8859, 704.0469
341.3680, 766.2344
341.8502, 738.2344
342.3323, 605.9531
342.8144, 443.2656
343.2965, 319.4062
343.7786, 237.1562
344.2607, 134.9844
344.7428, 9.656250
345.2249, 157.5625
345.7071, 202.5625
346.1892, 136.6562
346.6713, 48.45312
347.1534, 1.703125
347.6355, 15.40625
348.1176, 49.46875
348.5998, 95.18750
349.0819, 174.0781
349.5640, 332.1562
350.0461, 558.4531
350.5282, 788.2344
351.0103, 999.9844
351.4925, 1180.719
351.9746, 1315.562
352.4567, 1397.766
352.9388, 1431.438
353.4209, 1430.672
353.9030, 1386.516
354.3852, 1278.547
354.8673, 1037.469
355.3494, 765.9062
355.8315, 580.7344
356.3136, 494.3125
356.7957, 427.3906
357.2779, 340.9375
357.7600, 245.0781
358.2421, 149.6406
358.7242, 28.42188
359.2063, 68.29688
359.6884, 98.51562
360.1706, 69.56250
360.6527, 44.01562
361.1348, 80.25000
361.6169, 120.2188
362.0990, 115.9375
362.5811, 3.968750
363.0633, 83.59375
363.5454, 94.64062
364.0275, 42.20312
364.5096, 21.76562
364.9917, 117.7656
365.4738, 198.7812
365.9560, 239.0000
366.4381, 218.8906
366.9202, 182.9062
367.4023, 107.7969
367.8844, 16.32812
368.3665, 44.93750
368.8487, 43.59375
369.3308, 47.46875
369.8129, 79.15625
370.2950, 150.9219
370.7771, 201.6562
371.2592, 231.0156
371.7414, 238.4219
372.2235, 215.7812
372.7056, 109.0625
373.1877, 64.46875
373.6698, 126.2656
374.1519, 284.6875
374.6340, 402.1406
375.1161, 458.7500
375.5983, 487.7031
376.0804, 528.5938
376.5625, 582.2500
377.0446, 602.8438
377.5267, 568.9062
378.0089, 505.1719
378.4910, 509.8438
378.9731, 603.3125
379.4552, 667.3750
379.9373, 616.4375
380.4194, 462.6406
380.9016, 303.2031
381.3837, 137.8906
381.8658, 2.296875
382.3479, 56.31250
382.8300, 31.78125
383.3121, 32.37500
383.7943, 112.1719
384.2764, 216.0000
384.7585, 378.3438
385.2406, 598.7031
385.7227, 828.7344
386.2048, 1017.875
386.6870, 1165.609
387.1691, 1275.547
387.6512, 1284.781
388.1333, 1287.234
388.6154, 1431.062
389.0975, 1689.062
389.5797, 1869.422
390.0618, 1765.641
390.5439, 1547.516
391.0260, 1404.062
391.5081, 1444.953
391.9902, 1475.062
392.4724, 1360.219
392.9545, 1156.000
393.4366, 1005.984
393.9187, 1032.734
394.4008, 1094.172
394.8829, 1128.750
395.3651, 1143.859
395.8472, 1089.688
396.3293, 856.1406
396.8114, 572.9062
397.2935, 414.3281
397.7756, 468.1094
398.2578, 583.5469
398.7399, 756.1094
399.2220, 996.1562
399.7041, 1131.750
400.1862, 1065.453
400.6683, 957.1875
401.1505, 929.9219
401.6326, 1059.375
402.1147, 1144.375
402.5968, 1157.000
403.0789, 1108.859
403.5610, 1056.016
404.0432, 1001.797
404.5253, 953.0469
405.0074, 913.4219
405.4895, 886.5156
405.9716, 850.4688
406.4537, 795.7344
406.9358, 746.3906
407.4179, 745.7188
407.9001, 798.2812
408.3822, 851.6562
408.8643, 875.2500
409.3464, 878.5469
409.8285, 920.4531
410.3106, 1002.375
410.7928, 1107.828
411.2749, 1268.781
411.7570, 1455.969
412.2391, 1529.469
412.7212, 1390.125
413.2033, 1187.219
413.6855, 1145.859
414.1676, 1249.406
414.6497, 1406.469
415.1318, 1566.594
415.6139, 1734.094
416.0960, 1916.828
416.5782, 2126.016
417.0603, 2301.906
417.5424, 2410.375
418.0245, 2454.672
418.5066, 2436.484
418.9887, 2293.016
419.4709, 2131.000
419.9530, 2019.562
420.4351, 1973.672
420.9172, 1934.047
421.3993, 1899.531
421.8814, 1852.703
422.3636, 1778.234
422.8457, 1630.453
423.3278, 1508.844
423.8099, 1475.000
424.2920, 1513.859
424.7741, 1477.766
425.2563, 1259.156
425.7384, 1061.562
426.2205, 983.4375
426.7026, 1116.953
427.1847, 1155.234
427.6668, 1022.891
428.1490, 834.6875
428.6311, 801.0469
429.1132, 986.7344
429.5953, 1157.875
430.0774, 1230.312
430.5595, 1203.812
431.0417, 1194.219
431.5238, 1211.266
432.0059, 1224.906
432.4880, 1185.453
432.9701, 1094.516
433.4522, 1053.719
433.9344, 1110.016
434.4165, 1201.516
434.8986, 1179.938
435.3807, 1056.156
435.8628, 952.6719
436.3449, 995.2188
436.8270, 1111.016
437.3091, 1124.281
437.7913, 999.3594
438.2734, 868.0469
438.7555, 851.3594
439.2376, 916.2031
439.7197, 1000.391
440.2018, 1132.109
440.6840, 1243.797
441.1661, 1245.672
441.6482, 1142.406
442.1303, 1073.484
442.6124, 1128.484
443.0945, 1229.172
443.5767, 1316.078
444.0588, 1384.422
444.5409, 1429.031
445.0230, 1457.141
445.5051, 1461.891
445.9872, 1423.859
446.4694, 1312.375
446.9515, 1193.531
447.4336, 1085.375
447.9157, 976.2969
448.3978, 927.3281
448.8799, 973.9844
449.3621, 1056.266
449.8442, 1121.391
450.3263, 1199.609
450.8084, 1180.141
451.2905, 978.8125
451.7726, 664.8125
452.2548, 591.8906
452.7369, 815.1719
453.2190, 1084.031
453.7011, 1264.891
454.1832, 1355.016
454.6653, 1358.312
455.1475, 1257.234
455.6296, 1117.469
456.1117, 1029.797
456.5938, 988.5938
457.0759, 957.5781
457.5580, 942.7812
458.0402, 922.4375
458.5223, 856.0781
459.0044, 747.0312
459.4865, 614.8594
459.9686, 427.5000
460.4507, 243.7188
460.9329, 144.4688
461.4150, 168.7031
461.8971, 244.9688
462.3792, 375.3125
462.8613, 523.9375
463.3434, 617.7031
463.8256, 518.2500
464.3077, 442.5938
464.7898, 544.0156
465.2719, 879.0469
465.7540, 1087.969
466.2361, 965.6875
466.7182, 755.2344
467.2003, 668.2344
467.6825, 816.4375
468.1646, 964.1250
468.6467, 1105.594
469.1288, 1232.875
469.6109, 1309.844
470.0930, 1299.000
470.5752, 1292.953
471.0573, 1339.484
471.5394, 1448.797
472.0215, 1532.719
472.5036, 1594.828
472.9857, 1616.828
473.4679, 1574.406
473.9500, 1466.781
474.4321, 1307.562
474.9142, 1075.875
475.3963, 817.2188
475.8784, 655.5000
476.3606, 591.6094
476.8427, 548.7344
477.3248, 480.8125
477.8069, 403.2188
478.2890, 336.5469
478.7711, 288.1719
479.2533, 266.7500
479.7354, 310.5938
480.2175, 386.4062
480.6996, 430.9219
481.1817, 329.9062
481.6638, 253.8750
482.1460, 290.5000
482.6281, 433.3594
483.1102, 641.1562
483.5923, 961.9688
484.0744, 1282.250
484.5565, 1525.641
485.0387, 1642.375
485.5208, 1709.734
486.0029, 1677.750
486.4850, 1603.188
486.9671, 1601.094
487.4492, 1769.516
487.9314, 1868.219
488.4135, 1838.547
488.8956, 1684.484
489.3777, 1438.625
489.8598, 1046.359
490.3419, 705.5000
490.8241, 642.2344
491.3062, 886.3281
491.7883, 981.3281
492.2704, 845.5469
492.7525, 586.3281
493.2346, 363.3906
493.7168, 180.3594
494.1989, 64.07812
494.6810, 54.34375
495.1631, 106.3438
495.6452, 157.5000
496.1273, 201.6094
496.6095, 208.9688
497.0916, 127.7656
497.5737, 1.5625000E-02
498.0558, 118.4062
498.5379, 251.0625
499.0200, 336.3750
499.5021, 296.8906
499.9843, 177.6094
500.4664, 90.81250
500.9485, 92.23438
501.4306, 113.0312
501.9127, 132.7969
502.3948, 155.7969
502.8770, 146.7969
503.3591, 68.06250
503.8412, 17.53125
504.3233, 58.12500
504.8054, 6.000000
505.2875, 21.20312
505.7697, 15.18750
506.2518, 103.9375
506.7339, 275.5469
507.2160, 564.6406
507.6981, 789.3281
508.1802, 849.6250
508.6624, 761.3281
509.1445, 681.9062
509.6266, 613.7188
510.1087, 563.2188
510.5908, 565.1094
511.0729, 597.7188
511.5551, 571.5312
512.0372, 430.4375
512.5193, 297.4531
513.0014, 331.0781
513.4835, 496.5938
513.9656, 687.8125
514.4478, 920.2344
514.9299, 1104.578
515.4120, 1123.719
515.8941, 956.7656
516.3762, 863.4375
516.8583, 1002.500
517.3405, 1224.203
517.8226, 1404.656
518.3047, 1523.844
518.7868, 1590.359
519.2689, 1554.625
519.7510, 1470.516
520.2332, 1468.594
520.7153, 1589.141
521.1974, 1725.438
521.6795, 1869.172
522.1616, 2025.703
522.6437, 2042.203
523.1259, 1882.953
523.6080, 1674.938
524.0901, 1508.797
524.5722, 1388.453
525.0543, 1354.000
525.5364, 1431.391
526.0186, 1551.875
526.5007, 1604.297
526.9828, 1597.219
527.4649, 1583.859
527.9470, 1598.250
528.4291, 1613.203
528.9113, 1605.719
529.3934, 1572.844
529.8755, 1508.391
530.3576, 1369.969
530.8397, 1217.062
531.3218, 1111.859
531.8040, 1108.375
532.2861, 1074.938
532.7682, 959.6250
533.2503, 791.9375
533.7324, 618.3594
534.2145, 435.4844
534.6967, 266.1406
535.1788, 109.7344
535.6609, 29.95312
536.1430, 114.1094
536.6251, 122.9531
537.1072, 101.9844
537.5894, 78.29688
538.0715, 53.50000
538.5536, 0.9218750
539.0357, 91.53125
539.5178, 178.5156
539.9999, 148.7188
540.4821, 20.89062
540.9642, 18.31250
541.4463, 271.5469
541.9284, 632.8125
542.4105, 863.1094
542.8926, 970.6562
543.3748, 1028.156
543.8568, 1051.656
544.3389, 1056.109
544.8210, 1050.000
545.3032, 1028.859
545.7853, 1030.219
546.2674, 1114.359
546.7495, 1214.625
547.2316, 1261.141
547.7137, 1197.375
548.1959, 1130.484
548.6780, 1107.125
549.1601, 1104.906
549.6422, 1035.750
550.1243, 846.3125
550.6064, 669.1562
551.0886, 542.7188
551.5707, 466.5938
552.0528, 470.8125
552.5349, 595.1562
553.0170, 703.9375
553.4991, 645.9531
553.9813, 429.9688
554.4634, 207.9688
554.9455, 28.84375
555.4276, 197.2656
555.9097, 82.95312
556.3918, 230.0938
556.8740, 453.6719
557.3561, 411.0625
557.8382, 256.6875
558.3203, 106.1250
558.8024, 37.18750
559.2845, 134.0156
559.7667, 161.3906
560.2488, 133.6719
560.7309, 41.93750
561.2130, 176.9531
561.6951, 320.4688
562.1772, 269.2031
562.6594, 140.9375
563.1415, 90.82812
563.6236, 98.71875
564.1057, 224.7812
564.5878, 557.9062
565.0699, 1004.922
565.5521, 1152.891
566.0342, 907.5312
566.5163, 685.2969
566.9984, 738.9844
567.4805, 1037.297
567.9626, 1249.594
568.4448, 1377.734
568.9269, 1425.984
569.4090, 1369.500
569.8911, 1240.938
570.3732, 1115.625
570.8553, 1007.969
571.3375, 921.2969
571.8196, 852.9531
572.3017, 806.6719
572.7838, 788.5000
573.2659, 858.7031
573.7480, 903.7969
574.2302, 849.3750
574.7123, 696.9531
575.1944, 581.8906
575.6765, 597.3594
576.1586, 602.8906
576.6407, 522.1562
577.1229, 300.3438
577.6050, 159.9531
578.0871, 142.6250
578.5692, 167.0156
579.0513, 116.0938
579.5334, 20.54688
580.0156, 120.1719
580.4977, 159.7656
580.9798, 140.8281
581.4619, 33.04688
581.9440, 148.4375
582.4261, 291.1719
582.9083, 268.3438
583.3904, 186.5781
583.8725, 203.9531
584.3546, 320.7969
584.8367, 445.6406
585.3188, 501.5000
585.8010, 544.6406
586.2831, 637.0781
586.7652, 842.0625
587.2473, 993.3125
587.7294, 1033.656
588.2115, 1000.047
588.6937, 950.0938
589.1758, 878.2188
589.6579, 805.8906
590.1400, 729.4375
590.6221, 656.2188
591.1042, 620.4219
591.5864, 623.3750
592.0685, 661.0625
592.5506, 737.3125
593.0327, 851.4375
593.5148, 1011.781
593.9969, 1232.469
594.4791, 1390.469
594.9612, 1297.156
595.4433, 1061.812
595.9254, 908.5938
596.4075, 897.6875
596.8896, 962.8438
597.3718, 1098.875
597.8539, 1266.500
598.3360, 1393.344
598.8181, 1420.969
599.3002, 1437.062
599.7823, 1444.469
600.2645, 1451.875
600.7466, 1548.812
601.2287, 1832.875
601.7108, 2101.250
602.1929, 2252.625
602.6750, 2246.625
603.1572, 2336.000
603.6393, 2560.062
604.1214, 2801.469
604.6035, 2908.406
605.0856, 2888.406
605.5677, 2982.875
606.0498, 3260.281
606.5319, 3604.562
607.0140, 3879.000
607.4962, 4080.281
607.9783, 4206.812
608.4604, 4130.406
608.9425, 4068.625
609.4246, 4258.656
609.9067, 4653.062
610.3889, 4977.094
610.8710, 5103.000
611.3531, 5132.406
611.8352, 5098.031
612.3173, 4969.688
612.7994, 4919.312
613.2816, 5025.219
613.7637, 5160.500
614.2458, 5188.594
614.7279, 5039.344
615.2100, 5043.938
615.6921, 5287.125
616.1743, 5626.469
616.6564, 5776.281
617.1385, 5745.500
617.6206, 5732.750
618.1027, 5837.500
618.5848, 5987.812
619.0670, 6028.750
619.5491, 5984.031
620.0312, 5991.344
620.5133, 6208.688
620.9954, 6463.156
621.4775, 6569.000
621.9597, 6483.750
622.4418, 6491.719
622.9239, 6834.031
623.4060, 7191.906
623.8881, 7340.938
624.3702, 7007.500
624.8524, 6850.438
625.3345, 6986.688
625.8166, 7217.375
626.2987, 7225.125
626.7808, 6968.844
627.2629, 6691.875
627.7451, 6433.031
628.2272, 6209.688
628.7093, 6107.375
629.1914, 6115.062
629.6735, 6070.250
630.1556, 5848.344
630.6378, 5537.156
631.1199, 5237.406
631.6020, 4956.062
632.0841, 4715.500
632.5662, 4522.625
633.0483, 4383.969
633.5305, 4307.781
634.0126, 4305.438
634.4947, 4343.250
634.9768, 4513.031
635.4589, 4669.062
635.9410, 4644.469
636.4232, 4324.000
636.9053, 4058.219
637.3874, 3897.469
637.8695, 3797.562
638.3516, 3653.375
638.8337, 3458.781
639.3159, 3293.719
639.7980, 3189.500
640.2801, 3132.000
640.7622, 3109.250
641.2443, 3117.375
641.7264, 3104.375
642.2086, 3034.812
642.6907, 2936.312
643.1728, 2831.656
643.6549, 2722.625
644.1370, 2635.969
644.6191, 2578.531
645.1013, 2559.375
645.5834, 2584.750
646.0655, 2631.656
646.5476, 2768.000
647.0297, 3067.688
647.5118, 3395.750
647.9940, 3494.719
648.4761, 3268.062
648.9582, 3242.156
649.4403, 3599.219
649.9224, 4139.500
650.4045, 4401.625
650.8867, 4408.531
651.3688, 4358.812
651.8509, 4345.469
652.3330, 4331.688
652.8151, 4292.656
653.2972, 4234.750
653.7794, 4145.875
654.2615, 3939.812
654.7436, 3758.375
655.2257, 3733.156
655.7078, 3955.938
656.1899, 4072.844
656.6721, 3996.344
657.1542, 3818.844
657.6363, 3597.312
658.1184, 3294.969
658.6005, 3077.188
659.0826, 2973.938
659.5648, 2930.219
660.0469, 2866.531
660.5290, 2774.719
661.0111, 2630.375
661.4932, 2395.125
661.9753, 2143.344
662.4575, 2002.844
662.9396, 1952.625
663.4217, 1906.281
663.9038, 1785.625
664.3859, 1694.219
664.8680, 1761.375
665.3502, 1977.062
665.8323, 2065.219
666.3144, 1777.250
666.7965, 1494.438
667.2786, 1394.219
667.7607, 1495.250
668.2428, 1669.438
668.7249, 1927.531
669.2070, 2189.531
669.6891, 2374.812
670.1713, 2475.344
670.6534, 2532.469
671.1355, 2549.062
671.6176, 2505.375
672.0997, 2384.594
672.5818, 2189.562
673.0640, 1917.500
673.5461, 1507.312
674.0282, 1123.906
674.5103, 930.9375
674.9924, 864.5938
675.4745, 758.0000
675.9567, 516.8438
676.4388, 303.3750
676.9209, 205.5938
677.4030, 209.5312
677.8851, 147.0312
678.3672, 24.56250
678.8494, 176.9688
679.3315, 278.1562
679.8136, 331.3438
680.2957, 207.0000
680.7778, 96.00000
681.2599, 401.8438
681.7421, 482.0625
682.2242, 456.2812
682.7063, 576.9688
683.1884, 901.5000
683.6705, 1231.719
684.1526, 1469.281
684.6348, 1618.031
685.1169, 1687.094
685.5990, 1654.562
686.0811, 1580.406
686.5632, 1442.281
687.0453, 1291.562
687.5275, 1208.500
688.0096, 1227.000
688.4917, 1254.906
688.9738, 1270.906
689.4559, 1295.719
689.9380, 1407.906
690.4202, 1600.875
690.9023, 1757.281
691.3844, 1776.844
691.8665, 1729.094
692.3486, 1745.031
692.8307, 1804.219
693.3129, 1796.562
693.7950, 1511.688
694.2771, 1239.062
694.7592, 1213.938
695.2413, 1504.594
695.7234, 1696.594
696.2056, 1680.875
696.6877, 1584.625
697.1698, 1486.375
697.6519, 1413.500
698.1340, 1258.375
698.6161, 1011.250
699.0983, 728.4375
699.5804, 437.2500
700.0625, 162.0000
700.5446, 17.75000
701.0267, 49.65625
701.5089, 162.4062
701.9910, 291.2812
702.4731, 419.0625
702.9552, 513.3438
703.4373, 589.5938
703.9194, 595.2188
704.4016, 457.9062
704.8837, 226.3125
705.3658, 48.06250
705.8479, 64.40625
706.3300, 135.0625
706.8121, 157.2188
707.2943, 143.1562
707.7764, 170.5312
708.2585, 247.9062
708.7406, 298.3438
709.2227, 232.9688
709.7048, 108.1562
710.1870, 104.5625
710.6691, 215.6562
711.1512, 331.4375
711.6333, 383.0938
712.1154, 394.3750
712.5975, 390.6250
713.0797, 377.1562
713.5618, 330.8438
714.0439, 196.9375
714.5260, 65.40625
715.0081, 6.843750
715.4902, 62.71875
715.9724, 130.0625
716.4545, 247.2188
716.9366, 325.1250
717.4187, 200.5312
717.9008, 109.5625
718.3829, 299.0938
718.8651, 281.4375
719.3472, 202.6250
719.8293, 248.1250
720.3114, 377.4062
720.7935, 508.0312
721.2756, 644.0000
721.7578, 736.3438
722.2399, 714.3438
722.7220, 629.6562
723.2041, 617.8125
723.6862, 885.7188
724.1683, 977.8438
724.6505, 689.6875
725.1326, 135.6250
725.6147, 59.84375
726.0968, 158.3125
726.5789, 416.9375
727.0610, 548.0000
727.5432, 575.9375
728.0253, 555.0312
728.5073, 489.6250
728.9894, 414.3438
729.4716, 335.4062
729.9537, 273.1562
730.4358, 255.0312
730.9179, 288.7812
731.4000, 320.7188
731.8821, 359.2812
732.3643, 376.8750
732.8464, 350.8125
733.3285, 254.4062
733.8106, 187.8125
734.2927, 129.7812
734.7748, 134.1562
735.2570, 311.9375
735.7391, 626.2188
736.2212, 798.7500
736.7033, 774.9688
737.1854, 665.6875
737.6675, 586.0312
738.1497, 515.0000
738.6318, 403.1250
739.1139, 158.4062
739.5960, 25.06250
740.0781, 7.031250
740.5602, 114.9062
741.0424, 170.2812
741.5245, 57.71875
742.0066, 56.18750
742.4887, 241.3438
742.9708, 527.2812
743.4529, 687.8750
743.9351, 710.5000
744.4172, 833.2188
744.8993, 1176.250
745.3814, 1608.344
745.8635, 1935.625
746.3456, 2162.812
746.8278, 2323.594
747.3099, 2394.812
747.7920, 2426.812
748.2741, 2475.438
748.7562, 2528.656
749.2383, 2466.250
749.7205, 2189.969
750.2026, 1932.031
750.6847, 1808.938
751.1668, 1819.812
751.6489, 1693.750
752.1310, 1416.406
752.6132, 1170.469
753.0953, 1078.375
753.5774, 1113.750
754.0595, 1231.312
754.5416, 1423.281
755.0237, 1589.531
755.5059, 1598.406
755.9880, 1577.844
756.4701, 1648.656
756.9522, 1848.594
757.4343, 1976.656
757.9164, 2016.812
758.3986, 1940.125
758.8807, 1702.000
759.3628, 1242.281
759.8449, 909.2188
760.3270, 746.3125
760.8091, 641.0625
761.2913, 434.1562
761.7734, 192.9062
762.2555, 129.1562
762.7376, 313.7500
763.2197, 581.5938
763.7018, 884.3125
764.1840, 1152.781
764.6661, 1297.969
765.1482, 1147.344
765.6303, 1076.719
766.1124, 1153.406
766.5945, 1321.375
767.0767, 1511.562
767.5588, 1697.938
768.0409, 1963.812
768.5230, 2336.875
769.0051, 2722.812
769.4872, 2944.594
769.9694, 3038.969
770.4515, 3176.875
770.9336, 3483.750
771.4157, 3761.844
771.8978, 3852.000
772.3799, 3786.688
772.8621, 3630.625
773.3442, 3250.719
773.8263, 2963.844
774.3084, 2942.219
774.7905, 3076.188
775.2726, 3012.312
775.7548, 2672.344
776.2369, 2460.500
776.7190, 2578.625
777.2011, 2881.656
777.6832, 2945.656
778.1653, 2810.906
778.6475, 2694.375
779.1296, 2671.906
779.6117, 2746.844
780.0938, 2965.719
780.5759, 3292.469
781.0580, 3584.906
781.5402, 3860.188
782.0223, 4010.188
782.5044, 3948.938
782.9865, 3694.344
783.4686, 3529.500
783.9507, 3458.219
784.4329, 3480.750
784.9150, 3652.812
785.3971, 3922.719
785.8792, 4095.000
786.3613, 4180.688
786.8434, 4239.906
787.3256, 4307.438
787.8077, 4379.469
788.2898, 4449.875
788.7719, 4518.281
789.2540, 4612.875
789.7361, 4712.344
790.2183, 4862.406
790.7003, 5077.656
791.1824, 5357.812
791.6646, 5704.719
792.1467, 6134.062
792.6288, 6524.969
793.1109, 6810.344
793.5930, 6975.719
794.0751, 6951.406
794.5573, 6728.750
795.0394, 6525.031
795.5215, 6498.500
796.0036, 6563.969
796.4857, 6685.000
796.9678, 6905.344
797.4500, 6995.625
797.9321, 6855.938
798.4142, 6678.125
798.8963, 6599.781
799.3784, 6646.281
799.8605, 6645.844
800.3427, 6594.344
800.8248, 6520.812
801.3069, 6408.281
801.7890, 6303.250
802.2711, 6323.500
802.7532, 6501.719
803.2354, 6670.719
803.7175, 6715.656
804.1996, 6713.438
804.6817, 6734.719
805.1638, 6808.906
805.6459, 6867.375
806.1281, 6920.344
806.6102, 6944.219
807.0923, 6879.250
807.5744, 6727.781
808.0565, 6727.812
808.5386, 6920.812
809.0208, 7160.812
809.5029, 7293.406
809.9850, 7362.812
810.4671, 7443.156
810.9492, 7571.969
811.4313, 7665.812
811.9135, 7651.469
812.3956, 7598.656
812.8777, 7587.469
813.3598, 7579.594
813.8419, 7721.938
814.3240, 8085.875
814.8062, 8425.969
815.2883, 8350.438
815.7704, 7948.531
816.2525, 7773.406
816.7346, 7956.969
817.2167, 8227.750
817.6989, 8364.500
818.1810, 8405.469
818.6631, 8387.250
819.1452, 8286.969
819.6273, 8242.656
820.1094, 8370.750
820.5916, 8524.344
821.0737, 8529.688
821.5558, 8322.562
822.0379, 8261.969
822.5200, 8398.031
823.0021, 8647.531
823.4843, 8960.344
823.9664, 9295.062
824.4485, 9550.156
824.9306, 9691.719
825.4127, 9761.031
825.8948, 9694.062
826.3770, 9600.875
826.8591, 9612.938
827.3412, 9786.219
827.8233, 10027.56
828.3054, 10428.66
828.7875, 10785.41
829.2697, 10781.03
829.7518, 10413.75
830.2339, 10099.81
830.7160, 9902.031
831.1981, 9778.500
831.6802, 9775.438
832.1624, 9791.469
832.6445, 9633.125
833.1266, 9115.781
833.6087, 8707.250
834.0908, 8653.969
834.5729, 8765.469
835.0551, 8822.156
835.5372, 8838.031
836.0193, 8744.188
836.5014, 8500.312
836.9835, 8220.719
837.4656, 8072.812
837.9478, 8023.812
838.4299, 7938.969
838.9120, 7773.438
839.3941, 7634.781
839.8762, 7700.250
840.3583, 7803.781
840.8405, 7744.562
841.3226, 7358.031
841.8047, 7005.906
842.2868, 6696.406
842.7689, 6442.188
843.2510, 6277.656
843.7332, 6207.375
844.2153, 6097.812
844.6974, 5928.906
845.1795, 5726.406
845.6616, 5531.375
846.1437, 5318.438
846.6259, 5033.344
847.1080, 4629.562
847.5901, 4258.531
848.0722, 4031.281
848.5543, 3837.625
849.0364, 3574.844
849.5186, 3224.812
850.0007, 2844.500
850.4828, 2416.500
850.9649, 2021.031
851.4470, 1779.938
851.9291, 1654.625
852.4112, 1484.125
852.8933, 1249.594
853.3754, 1002.469
853.8575, 709.7188
854.3397, 467.8125
854.8218, 402.5312
855.3039, 630.1250
855.7860, 759.0312
856.2681, 678.9375
856.7502, 593.8438
857.2324, 675.4688
857.7145, 918.9375
858.1966, 1072.656
858.6787, 1115.562
859.1608, 1148.312
859.6429, 1298.375
860.1251, 1458.750
860.6072, 1476.875
861.0893, 1319.688
861.5714, 1238.938
862.0535, 1363.094
862.5356, 1531.375
863.0178, 1681.969
863.4999, 1843.281
863.9820, 1812.281
864.4641, 1558.625
864.9462, 1242.625
865.4283, 941.3750
865.9105, 681.6875
866.3926, 570.7812
866.8747, 603.2812
867.3568, 581.0312
867.8389, 259.5000
868.3210, 48.56250
868.8032, 53.84375
869.2853, 307.1562
869.7674, 294.8438
870.2495, 315.8750
870.7316, 850.9688
871.2137, 943.3750
871.6959, 673.5938
872.1780, 434.6875
872.6601, 230.2500
873.1422, 115.7812
873.6243, 190.4688
874.1064, 326.7500
874.5886, 477.6250
875.0707, 620.7812
875.5528, 600.2188
876.0349, 205.2812
876.5170, 134.9375
876.9991, 287.0625
877.4813, 285.4062
877.9634, 291.2500
878.4455, 304.1875
878.9276, 330.6875
879.4097, 367.2500
879.8918, 429.6250
880.3740, 601.5312
880.8561, 824.6875
881.3382, 930.7812
881.8203, 743.8750
882.3024, 561.3750
882.7845, 473.2500
883.2667, 455.9688
883.7488, 440.8438
884.2309, 401.1250
884.7130, 518.4688
885.1951, 909.7500
885.6772, 1349.156
886.1594, 1431.531
886.6415, 1267.156
887.1236, 1131.312
887.6057, 1141.469
888.0878, 1179.000
888.5699, 1171.000
889.0521, 1170.062
889.5342, 1257.438
890.0163, 1476.031
890.4984, 1687.938
890.9805, 1853.469
891.4626, 2040.438
891.9448, 2385.094
892.4269, 2828.438
892.9090, 3149.500
893.3911, 3248.406
893.8732, 3321.281
894.3553, 3515.469
894.8375, 3727.844
895.3196, 3842.875
895.8017, 3775.812
896.2838, 3752.562
896.7659, 3809.031
897.2480, 3846.188
897.7302, 3808.531
898.2123, 3690.656
898.6944, 3389.594
899.1765, 2903.469
899.6586, 2441.125
900.1407, 2237.344
900.6229, 2112.344
901.1050, 1897.281
901.5871, 1564.906
902.0692, 1301.281
902.5513, 1145.750
903.0334, 1034.312
903.5156, 939.2188
903.9977, 857.1562
904.4798, 784.3125
904.9619, 715.1875
905.4440, 634.7500
905.9261, 465.6562
906.4083, 321.1562
906.8904, 323.2500
907.3725, 457.1562
907.8546, 633.0625
908.3367, 955.4375
908.8188, 1159.812
909.3010, 1171.281
909.7831, 1018.250
910.2652, 736.9375
910.7473, 331.1562
911.2294, 126.0312
911.7115, 347.8125
912.1937, 681.9688
912.6758, 723.3125
913.1579, 567.0312
913.6400, 412.5938
914.1221, 254.0938
914.6042, 194.8438
915.0863, 352.9375
915.5684, 556.2500
916.0505, 505.4688
916.5327, 172.6562
917.0148, 4.343750
917.4969, 79.00000
917.9790, 215.5312
918.4611, 107.1875
918.9432, 90.81250
919.4254, 140.2812
919.9075, 30.31250
920.3896, 312.3125
920.8717, 861.5625
921.3538, 1357.406
921.8359, 1488.156
922.3181, 1123.062
922.8002, 1168.344
923.2823, 1666.062
923.7644, 2243.406
924.2465, 2547.969
924.7286, 2707.406
925.2108, 2918.688
925.6929, 3189.219
926.1750, 3396.375
926.6571, 3468.438
927.1392, 3511.969
927.6213, 3596.094
928.1035, 3683.719
928.5856, 3571.625
929.0677, 3265.938
929.5498, 3023.688
930.0319, 3036.438
930.5140, 3132.812
930.9962, 3005.406
931.4783, 2704.000
931.9604, 2414.688
932.4425, 2242.344
932.9246, 2063.969
933.4067, 1783.875
933.8889, 1520.438
934.3710, 1493.500
934.8531, 1732.750
935.3352, 1867.750
935.8173, 1798.031
936.2994, 1676.125
936.7816, 1734.000
937.2637, 1893.750
937.7458, 1986.094
938.2279, 1952.000
938.7100, 1899.906
939.1921, 1838.375
939.6743, 1789.281
940.1564, 1790.062
940.6385, 1870.906
941.1206, 1833.062
941.6027, 1667.094
942.0848, 1426.000
942.5670, 1058.500
943.0491, 695.3750
943.5312, 561.5312
944.0133, 671.8125
944.4954, 761.6562
944.9775, 740.8438
945.4597, 665.7188
945.9418, 561.5938
946.4239, 430.6562
946.9060, 253.5625
947.3881, 22.56250
947.8702, 114.4375
948.3524, 0.6875000
948.8345, 175.6562
949.3166, 95.37500
949.7987, 138.7812
950.2808, 254.8125
950.7629, 2.687500
951.2451, 191.3438
951.7272, 128.6562
952.2093, 12.59375
952.6914, 133.6250
953.1735, 583.8125
953.6556, 776.0312
954.1378, 549.4062
954.6199, 234.4062
955.1020, 183.3438
955.5841, 275.8438
956.0662, 357.0625
956.5483, 397.1875
957.0305, 426.1250
957.5126, 469.1875
957.9947, 491.3750
958.4768, 456.8125
958.9589, 367.7812
959.4410, 320.0312
959.9232, 313.8438
960.4053, 389.7188
960.8874, 680.6250
961.3695, 989.4688
961.8516, 1096.125
962.3337, 1010.312
962.8159, 932.6875
963.2980, 858.9688
963.7801, 861.3125
964.2622, 1033.000
964.7443, 1249.406
965.2264, 1045.094
965.7086, 484.2812
966.1907, 26.75000
966.6728, 153.4062
967.1549, 180.3750
967.6370, 43.93750
968.1191, 149.2812
968.6013, 227.5312
969.0834, 12.00000
969.5655, 26.75000
970.0476, 195.6562
970.5297, 452.8750
971.0118, 483.2812
971.4940, 335.1875
971.9761, 169.3438
972.4582, 1.343750
972.9403, 69.75000
973.4224, 138.0312
973.9045, 386.7500
974.3867, 443.2188
974.8688, 279.8438
975.3508, 438.6250
975.8329, 1057.844
976.3151, 1526.938
976.7972, 1458.219
977.2793, 1087.375
977.7614, 911.6875
978.2435, 901.5000
978.7256, 953.5000
979.2078, 1066.562
979.6899, 1170.094
980.1720, 1231.219
980.6541, 1260.969
981.1362, 1294.656
981.6183, 1347.375
982.1005, 1315.938
982.5826, 1177.875
983.0647, 1006.375
983.5468, 909.9375
984.0289, 838.3438
984.5110, 701.2500
984.9932, 471.2188
985.4753, 260.2500
985.9574, 49.00000
986.4395, 69.65625
986.9216, 7.218750
987.4037, 228.2812
987.8859, 323.2188
988.3680, 276.1250
988.8501, 195.3750
989.3322, 108.7188
989.8143, 48.40625
990.2964, 94.03125
990.7786, 199.7812
991.2607, 203.9062
991.7428, 96.68750
992.2249, 217.1250
992.7070, 14.40625
993.1891, 348.1562
993.6713, 237.5938
994.1534, 201.7812
994.6355, 407.5625
995.1176, 219.7188
995.5997, 84.46875
996.0818, 434.4375
996.5640, 718.8750
997.0461, 790.1562
997.5282, 563.7812
998.0103, 467.5625
998.4924, 518.7188
998.9745, 637.3125
999.4567, 796.5625
999.9388, 970.1562
1000.421, 1066.781
1000.903, 1106.938
1001.385, 1203.719
1001.867, 1583.312
1002.349, 1834.750
1002.831, 1683.781
1003.314, 1311.906
1003.796, 1111.031
1004.278, 1087.781
1004.760, 1176.062
1005.242, 1405.250
1005.724, 1610.125
1006.206, 1611.594
1006.688, 1484.031
1007.171, 1319.844
1007.653, 1080.531
1008.135, 978.3125
1008.617, 1183.344
1009.099, 1361.188
1009.581, 1250.750
1010.063, 888.7500
1010.545, 711.1250
1011.027, 702.8438
1011.510, 722.0625
1011.992, 671.6250
1012.474, 616.0625
1012.956, 586.4375
1013.438, 584.6875
1013.920, 629.2188
1014.402, 770.5938
1014.884, 777.4062
1015.367, 542.2500
1015.849, 289.5938
1016.331, 485.2500
1016.813, 919.4375
1017.295, 1100.969
1017.777, 846.8438
1018.259, 611.2812
1018.741, 615.9062
1019.223, 679.8125
1019.706, 696.7812
1020.188, 669.5938
1020.670, 523.8750
1021.152, 248.9062
1021.634, 143.4688
1022.116, 549.7500
1022.598, 1123.438
1023.080, 1543.000
1023.563, 1808.562
1024.045, 1951.062
1024.527, 1854.906
1025.009, 1807.781
1025.491, 1863.531
1025.973, 1936.219
1026.455, 1863.656
1026.937, 1697.812
1027.419, 1681.375
1027.901, 1893.750
1028.384, 2065.406
1028.866, 1989.781
1029.348, 1837.188
1029.830, 1734.188
1030.312, 1691.469
1030.794, 1743.750
1031.276, 1941.781
1031.758, 2013.688
1032.241, 1698.062
1032.723, 1257.562
1033.205, 1069.625
1033.687, 1085.781
1034.169, 1164.594
1034.651, 1255.531
1035.133, 1406.688
1035.615, 1642.000
1036.098, 1899.562
1036.580, 2089.531
1037.062, 2210.625
1037.544, 2313.719
1038.026, 2394.688
1038.508, 2469.688
1038.990, 2593.188
1039.472, 2676.031
1039.954, 2638.000
1040.437, 2474.094
1040.919, 2273.250
1041.401, 2010.781
1041.883, 1854.688
1042.365, 1973.156
1042.847, 2147.406
1043.329, 1906.219
1043.811, 1415.594
1044.293, 1038.875
1044.776, 1002.625
1045.258, 982.5312
1045.740, 943.8125
1046.222, 877.2812
1046.704, 747.0000
1047.186, 556.3125
1047.668, 438.7500
1048.150, 396.4375
1048.633, 421.2812
1049.115, 520.1250
1049.597, 665.9062
1050.079, 865.0312
1050.561, 1115.438
1051.043, 1313.562
1051.525, 1449.344
1052.007, 1540.250
1052.490, 1566.875
1052.972, 1606.375
1053.454, 1752.062
1053.936, 1968.250
1054.418, 2212.438
1054.900, 2492.406
1055.382, 2710.875
1055.864, 2812.188
1056.346, 2852.188
1056.828, 2869.156
1057.311, 2855.719
1057.793, 2683.094
1058.275, 2365.531
1058.757, 2150.656
1059.239, 2334.969
1059.721, 2549.344
1060.203, 2592.938
1060.685, 2471.344
1061.168, 2199.000
1061.650, 1731.250
1062.132, 1317.688
1062.614, 994.1562
1063.096, 762.1250
1063.578, 697.8438
1064.060, 697.2188
1064.542, 543.3750
1065.025, 182.0312
1065.507, 20.75000
1065.989, 203.0000
1066.471, 419.7188
1066.953, 453.0000
1067.435, 354.9062
1067.917, 331.6875
1068.399, 379.5000
1068.881, 478.5625
1069.364, 681.6562
1069.846, 834.6562
1070.328, 708.8438
1070.810, 539.2188
1071.292, 653.8125
1071.774, 1178.156
1072.256, 1479.594
1072.738, 1522.344
1073.220, 1413.906
1073.703, 1115.656
1074.185, 795.3438
1074.667, 717.5000
1075.149, 847.6875
1075.631, 920.0938
1076.113, 856.5625
1076.595, 768.6250
1077.077, 695.3125
1077.559, 607.8750
1078.042, 441.5625
1078.524, 222.7500
1079.006, 3.187500
1079.488, 234.6875
1079.970, 383.6562
1080.452, 307.4062
1080.934, 213.0000
1081.416, 274.7812
1081.899, 480.5312
1082.381, 478.4688
1082.863, 271.5312
1083.345, 17.81250
1083.827, 365.9062
1084.309, 704.5938
1084.791, 957.8750
1085.273, 1156.156
1085.755, 1370.969
1086.238, 1682.281
1086.720, 1830.062
1087.202, 1784.156
1087.684, 1634.000
1088.166, 1374.312
1088.648, 1112.062
1089.130, 1105.000
1089.612, 1330.375
1090.094, 1508.625
1090.577, 1445.625
1091.059, 1477.281
1091.541, 1770.656
1092.023, 2131.406
1092.505, 2048.094
1092.987, 1632.719
1093.469, 1490.219
1093.951, 1802.156
1094.434, 2174.969
1094.916, 2405.406
1095.398, 2524.656
1095.880, 2525.938
1096.362, 2407.000
1096.844, 2362.719
1097.326, 2395.438
1097.808, 2441.219
1098.291, 2483.250
1098.773, 2506.906
1099.255, 2471.562
1099.737, 2415.594
1100.219, 2409.750
1100.701, 2564.781
1101.183, 2595.219
1101.665, 2454.375
1102.147, 2304.531
1102.630, 2310.750
1103.112, 2416.688
1103.594, 2519.062
1104.076, 2604.906
1104.558, 2655.688
1105.040, 2607.156
1105.522, 2576.844
1106.004, 2590.000
1106.486, 2636.062
1106.969, 2740.188
1107.451, 2878.719
1107.933, 2901.406
1108.415, 2729.281
1108.897, 2450.906
1109.379, 2050.469
1109.861, 1695.062
1110.343, 1492.594
1110.826, 1419.250
1111.308, 1304.531
1111.790, 1164.281
1112.272, 1076.562
1112.754, 1101.812
1113.236, 1151.125
1113.718, 1086.031
1114.200, 989.2188
1114.682, 996.6250
1115.165, 1241.156
1115.647, 1255.812
1116.129, 960.1562
1116.611, 668.3438
1117.093, 667.7812
1117.575, 806.3750
1118.057, 818.0312
1118.539, 723.8438
1119.021, 634.4688
1119.504, 643.9375
1119.986, 581.1562
1120.468, 376.2812
1120.950, 169.0938
1121.432, 213.8125
1121.914, 428.5000
1122.396, 502.9688
1122.878, 405.4062
1123.361, 293.3125
1123.843, 196.7188
1124.325, 178.5312
1124.807, 274.0938
1125.289, 460.9375
1125.771, 661.9375
1126.253, 877.6875
1126.735, 1166.875
1127.218, 1564.469
1127.700, 1950.062
1128.182, 2219.562
1128.664, 2418.969
1129.146, 2564.719
1129.628, 2635.094
1130.110, 2879.375
1130.592, 3319.656
1131.074, 3603.906
1131.557, 3435.281
1132.039, 3121.938
1132.521, 3022.375
1133.003, 3047.438
1133.485, 3039.750
1133.967, 3004.188
1134.449, 2910.125
1134.931, 2772.750
1135.413, 2582.625
1135.896, 2247.469
1136.378, 1913.031
1136.860, 1908.125
1137.342, 2156.000
1137.824, 2246.906
1138.306, 1848.562
1138.788, 1578.469
1139.270, 1532.219
1139.752, 1606.000
1140.235, 1684.812
1140.717, 1771.781
1141.199, 1875.312
1141.681, 1976.594
1142.163, 2038.938
1142.645, 2149.625
1143.127, 2065.781
1143.609, 1610.125
1144.092, 948.0938
1144.574, 693.1875
1145.056, 773.5625
1145.538, 695.7188
1146.020, 260.2812
1146.502, 116.3438
1146.984, 41.81250
1147.466, 122.6250
1147.948, 60.03125
1148.431, 217.8438
1148.913, 280.2188
1149.395, 130.3438
1149.877, 131.2188
1150.359, 501.6875
1150.841, 877.0625
1151.323, 1192.562
1151.805, 1438.875
1152.287, 1605.688
1152.770, 1663.000
1153.252, 1687.531
1153.734, 1663.562
1154.216, 1671.625
1154.698, 1849.188
1155.180, 2033.031
1155.662, 1978.031
1156.144, 1781.969
1156.627, 1819.969
1157.109, 2309.062
1157.591, 2522.750
1158.073, 2335.344
1158.555, 2044.250
1159.037, 1919.719
1159.519, 1931.438
1160.001, 2116.844
1160.484, 2451.000
1160.966, 2554.625
1161.448, 2256.688
1161.930, 1913.156
1162.412, 1580.312
1162.894, 1278.000
1163.376, 1115.656
1163.858, 992.7812
1164.340, 635.3750
1164.823, 73.21875
1165.305, 492.0938
1165.787, 182.7812
1166.269, 60.15625
1166.751, 135.6562
1167.233, 553.1562
1167.715, 564.0000
1168.197, 277.3750
1168.679, 58.37500
1169.162, 85.28125
1169.644, 50.43750
1170.126, 200.0312
1170.608, 477.3438
1171.090, 655.5625
1171.572, 743.3438
1172.054, 820.3125
1172.536, 898.9062
1173.019, 1088.312
1173.501, 1611.125
1173.983, 2039.938
1174.465, 2153.438
1174.947, 2118.750
1175.429, 2055.438
1175.911, 1969.625
1176.393, 2033.375
1176.875, 2246.531
1177.358, 2456.219
1177.840, 2708.219
1178.322, 2785.156
1178.804, 2353.500
1179.286, 1751.375
1179.768, 1594.062
1180.250, 1892.000
1180.732, 2199.156
1181.214, 2469.656
1181.697, 2697.219
1182.179, 2870.188
1182.661, 3000.625
1183.143, 3066.500
1183.625, 3089.344
1184.107, 3201.125
1184.589, 3420.625
1185.071, 3335.188
1185.554, 2803.094
1186.036, 2271.969
1186.518, 2281.969
1187.000, 2415.406
1187.482, 2222.031
1187.964, 1719.938
1188.446, 1568.938
1188.928, 1835.156
1189.411, 1895.438
1189.893, 1472.375
1190.375, 985.0312
1190.857, 932.5938
1191.339, 1061.906
1191.821, 1086.000
1192.303, 966.9062
1192.785, 791.4062
1193.267, 527.4062
1193.750, 399.0312
1194.232, 560.1562
1194.714, 836.5312
1195.196, 1137.000
1195.678, 1365.250
1196.160, 1343.844
1196.642, 926.8438
1197.124, 623.2500
1197.606, 428.0312
1198.089, 349.9062
1198.571, 478.5000
1199.053, 666.0000
1199.535, 735.5000
1200.017, 718.4688
1200.499, 677.4062
1200.981, 564.7812
1201.463, 595.5312
1201.945, 811.0000
1202.428, 1024.094
1202.910, 1050.000
1203.392, 993.2812
1203.874, 988.4375
1204.356, 1017.500
1204.838, 1029.812
1205.320, 962.0312
1205.802, 1021.781
1206.285, 1262.719
1206.767, 1484.406
1207.249, 1283.719
1207.731, 973.1250
1208.213, 1063.844
1208.695, 1534.938
1209.177, 1885.375
1209.659, 2037.094
1210.141, 2077.688
1210.624, 1982.656
1211.106, 1906.812
1211.588, 2155.281
1212.070, 2468.844
1212.552, 2412.938
1213.034, 1947.812
1213.516, 1648.438
1213.998, 1574.125
1214.480, 1674.469
1214.963, 2019.219
1215.445, 2336.344
1215.927, 2113.469
1216.409, 1654.656
1216.891, 1450.344
1217.373, 1627.750
1217.855, 1592.938
1218.337, 1205.250
1218.820, 920.6875
1219.302, 960.0938
1219.784, 1101.156
1220.266, 912.4062
1220.748, 605.3438
1221.230, 551.1562
1221.712, 936.1875
1222.194, 1050.094
1222.677, 745.1562
1223.159, 471.9375
1223.641, 486.6875
1224.123, 693.4375
1224.605, 1038.406
1225.087, 1394.125
1225.569, 1576.156
1226.051, 1434.906
1226.533, 1432.156
1227.016, 1601.094
1227.498, 1759.094
1227.980, 1793.000
1228.462, 1751.656
1228.944, 1641.969
1229.426, 1539.312
1229.908, 1602.688
1230.390, 2081.281
1230.872, 2252.438
1231.355, 2035.719
1231.837, 1843.875
1232.319, 2097.125
1232.801, 2475.219
1233.283, 2499.938
1233.765, 2302.438
1234.247, 2204.719
1234.729, 2258.844
1235.212, 2404.438
1235.694, 2653.719
1236.176, 2895.344
1236.658, 3038.906
1237.140, 3106.188
1237.622, 3132.562
1238.104, 3098.375
1238.586, 2932.594
1239.068, 2566.625
1239.551, 2337.938
1240.033, 2303.406
1240.515, 2310.562
1240.997, 2198.656
1241.479, 2099.062
1241.961, 2231.938
1242.443, 2510.719
1242.925, 2548.188
1243.407, 2254.938
1243.890, 2118.062
1244.372, 2205.062
1244.854, 2370.719
1245.336, 2475.688
1245.818, 2577.500
1246.300, 2694.531
1246.782, 2837.031
1247.264, 3089.156
1247.747, 3477.688
1248.229, 3656.625
1248.711, 3551.562
1249.193, 3321.188
1249.675, 3004.688
1250.157, 2718.750
1250.639, 2657.500
1251.121, 2729.312
1251.604, 2498.469
1252.086, 1962.781
1252.568, 1595.344
1253.050, 1521.406
1253.532, 1482.031
1254.014, 1179.000
1254.496, 916.2812
1254.978, 941.6875
1255.460, 1181.125
1255.943, 1405.469
1256.425, 1605.812
1256.907, 1776.531
1257.389, 1904.625
1257.871, 2016.906
1258.353, 2190.094
1258.835, 2271.906
1259.317, 2167.531
1259.799, 1904.281
1260.281, 1505.656
1260.764, 1032.312
1261.246, 884.1562
1261.728, 1272.469
1262.210, 1560.281
1262.692, 1480.094
1263.174, 1138.719
1263.656, 500.4375
1264.138, 264.4062
1264.621, 559.4688
1265.103, 481.8750
1265.585, 387.9688
1266.067, 381.0312
1266.549, 330.5625
1267.031, 270.9688
1267.513, 45.65625
1267.995, 485.5938
1268.478, 1163.781
1268.960, 1545.031
1269.442, 1728.844
1269.924, 1977.156
1270.406, 2361.125
1270.888, 2768.375
1271.370, 3206.750
1271.852, 3554.594
1272.334, 3723.438
1272.817, 3772.250
1273.299, 3800.781
1273.781, 3816.750
1274.263, 3854.500
1274.745, 3982.938
1275.227, 3949.438
1275.709, 3706.250
1276.191, 3507.250
1276.673, 3586.000
1277.156, 3685.250
1277.638, 3314.219
1278.120, 2749.250
1278.602, 2446.625
1279.084, 2575.094
1279.566, 2603.906
1280.048, 2525.938
1280.530, 2423.906
1281.013, 2023.656
1281.495, 1649.156
1281.977, 1438.531
1282.459, 1395.219
1282.941, 1564.625
1283.423, 1787.031
1283.905, 1794.938
1284.387, 1581.969
1284.870, 1472.406
1285.352, 1745.812
1285.834, 2036.781
1286.316, 2110.250
1286.798, 2056.969
1287.280, 1985.781
1287.762, 1897.094
1288.244, 1795.938
1288.726, 1679.125
1289.208, 1532.000
1289.691, 1334.500
1290.173, 1190.531
1290.655, 1177.469
1291.137, 1188.875
1291.619, 1112.812
1292.101, 953.2812
1292.583, 932.0938
1293.065, 1069.656
1293.548, 1139.625
1294.030, 920.0000
1294.512, 708.2188
1294.994, 545.5312
1295.476, 414.8438
1295.958, 197.4688
1296.440, 12.00000
1296.922, 0.0000000E+00
##END=



