##NAMES=Magnetite
##RRUFFID=R060191
##IDEAL CHEMISTRY=Fe^2+^Fe^3+^_2_O_4_
##LOCALITY=Merry Widow mine, Vancouver Island, British Columbia, Canada
##OWNER=RRUFF
##SOURCE=Lloyd Twaites
##DESCRIPTION=Grayish-black octahedral crystals
##STATUS=The identification of this mineral has been confirmed by X-ray diffraction and chemical analysis
##URL=rruff.info/R060191
##MEASURED CHEMISTRY=(Fe^2+^_0.97_Mg_0.03_)(Fe^3+^_0.97_Al_0.03_)_2_O_4_
142.4494, 0.0000000E+00
142.9315, 0.6005430
143.4136, 1.159926
143.8957, 1.642874
144.3779, 0.8767130
144.8600, 8.2888998E-02
145.3421, 2.9434999E-02
145.8242, 0.7153600
146.3063, 1.285420
146.7884, 1.395759
147.2706, 1.251991
147.7527, 1.060321
148.2348, 0.8655730
148.7169, 0.6954240
149.1990, 0.5632770
149.6811, 0.4733290
150.1633, 0.4030850
150.6454, 0.3098980
151.1275, 0.1843310
151.6096, 8.9794002E-02
152.0917, 3.7369002E-02
152.5738, 5.3382002E-02
153.0560, 0.1495340
153.5381, 0.3592230
154.0202, 0.5994080
154.5023, 0.7616330
154.9844, 0.7967550
155.4665, 0.8256540
155.9487, 0.8889840
156.4308, 0.9183120
156.9129, 0.8342830
157.3950, 0.6113300
157.8771, 0.3921100
158.3592, 0.3581880
158.8414, 0.5894440
159.3235, 0.7874530
159.8056, 0.9260260
160.2877, 0.9914740
160.7698, 0.9470320
161.2519, 0.7704290
161.7341, 0.5250220
162.2162, 0.4047300
162.6983, 0.5104250
163.1804, 0.6139470
163.6625, 0.7388420
164.1446, 0.8154100
164.6268, 0.7356340
165.1089, 0.4837930
165.5910, 0.1246980
166.0731, 2.1368001E-02
166.5552, 0.4706380
167.0373, 0.8731890
167.5195, 1.011128
168.0016, 0.9958420
168.4837, 0.7934080
168.9658, 0.6279460
169.4479, 0.5401070
169.9300, 0.5133090
170.4122, 0.6359820
170.8943, 0.7969740
171.3764, 0.7754740
171.8585, 0.5885550
172.3406, 0.3874730
172.8227, 0.2131130
173.3049, 0.1163830
173.7870, 0.2020080
174.2691, 0.6013110
174.7512, 1.045968
175.2333, 1.306646
175.7154, 1.373870
176.1976, 1.317085
176.6797, 1.004604
177.1618, 0.5533670
177.6439, 0.6021310
178.1260, 0.6170260
178.6081, 0.5998450
179.0903, 0.4540770
179.5724, 0.4745370
180.0545, 0.4284840
180.5366, 0.3797820
181.0187, 0.4238440
181.5008, 0.2970960
181.9830, 0.3397170
182.4651, 0.3147850
182.9472, 0.1033000
183.4293, 0.3459070
183.9114, 0.4700500
184.3935, 0.4820990
184.8757, 4.6225999E-02
185.3578, 0.1888130
185.8399, 9.9621996E-02
186.3220, 9.5299998E-04
186.8041, 0.2250340
187.2862, 0.1455440
187.7684, 7.3462002E-02
188.2505, 5.7156000E-02
188.7326, 0.1485860
189.2147, 6.8040001E-03
189.6968, 6.2910996E-02
190.1789, 0.1007100
190.6611, 0.1199460
191.1432, 0.1194640
191.6253, 0.1675750
192.1074, 8.2510002E-03
192.5895, 0.2807870
193.0716, 0.4666800
193.5538, 0.3705690
194.0359, 5.0500002E-02
194.5180, 2.3129999E-03
195.0001, 0.3266420
195.4822, 0.5676920
195.9643, 0.6684080
196.4465, 0.6467630
196.9286, 0.5574850
197.4107, 0.4693630
197.8928, 0.3870350
198.3749, 0.2310140
198.8570, 0.1687310
199.3392, 0.1264980
199.8213, 5.7372998E-02
200.3034, 4.3320999E-02
200.7855, 0.5627770
201.2676, 0.7517110
201.7497, 0.5878950
202.2319, 0.4300090
202.7140, 0.2924170
203.1961, 0.1674240
203.6782, 3.4242999E-02
204.1603, 0.1306930
204.6424, 0.1969180
205.1246, 1.9870000E-03
205.6067, 0.4195010
206.0888, 0.8504660
206.5709, 1.259423
207.0530, 1.658822
207.5351, 2.099284
208.0173, 2.621926
208.4994, 3.048305
208.9815, 3.134886
209.4636, 3.016790
209.9457, 2.965315
210.4278, 3.111570
210.9100, 3.389076
211.3921, 3.679283
211.8742, 4.037747
212.3563, 4.275280
212.8384, 4.157652
213.3205, 3.858883
213.8027, 3.707999
214.2848, 3.985597
214.7669, 4.535623
215.2490, 4.768443
215.7311, 4.491583
216.2132, 4.177971
216.6953, 4.067005
217.1775, 4.062970
217.6596, 3.986609
218.1417, 3.688260
218.6238, 3.228586
219.1059, 2.779899
219.5880, 2.951910
220.0702, 3.005479
220.5523, 2.946975
221.0344, 2.440538
221.5165, 2.512527
221.9986, 2.352726
222.4807, 2.183438
222.9629, 2.336748
223.4450, 1.895407
223.9271, 2.042752
224.4092, 1.955510
224.8913, 1.975822
225.3734, 1.762956
225.8556, 1.622169
226.3377, 1.714722
226.8198, 1.459180
227.3019, 1.360670
227.7840, 1.271932
228.2661, 1.161420
228.7483, 1.071619
229.2304, 1.099021
229.7125, 1.323337
230.1946, 1.708631
230.6767, 1.858290
231.1588, 1.416251
231.6410, 1.147668
232.1231, 1.434477
232.6052, 2.027783
233.0873, 2.414804
233.5694, 2.258075
234.0515, 1.657213
234.5337, 1.338399
235.0158, 1.412335
235.4979, 1.579483
235.9800, 1.887070
236.4621, 2.225340
236.9442, 2.328934
237.4264, 1.999846
237.9085, 1.380246
238.3906, 1.135161
238.8727, 1.664891
239.3548, 2.045557
239.8369, 1.751978
240.3191, 1.054084
240.8012, 0.6569710
241.2833, 0.9814420
241.7654, 1.750638
242.2475, 2.137105
242.7296, 2.012421
243.2118, 1.793119
243.6939, 1.612453
244.1760, 1.468247
244.6581, 1.356207
245.1402, 1.254506
245.6223, 1.197181
246.1045, 1.207166
246.5866, 1.331850
247.0687, 1.463934
247.5508, 1.617831
248.0329, 1.747130
248.5150, 1.592734
248.9972, 0.8982790
249.4793, 0.1115610
249.9614, 8.4449999E-02
250.4435, 0.3660100
250.9256, 0.8593290
251.4077, 1.105607
251.8899, 1.153355
252.3720, 1.145601
252.8541, 1.128133
253.3362, 1.014053
253.8183, 0.6382950
254.3004, 2.3320001E-03
254.7826, 0.2241380
255.2647, 0.2441610
255.7468, 2.3159999E-02
256.2289, 0.4176850
256.7110, 0.9144100
257.1931, 1.211177
257.6753, 1.036776
258.1574, 0.4765400
258.6395, 2.0479999E-02
259.1216, 0.1693630
259.6037, 8.7139998E-03
260.0858, 0.2899250
260.5680, 0.8755250
261.0501, 1.372243
261.5322, 1.536345
262.0143, 1.425044
262.4964, 1.251679
262.9785, 1.070503
263.4607, 0.9075970
263.9428, 0.9728320
264.4249, 1.462157
264.9070, 1.897693
265.3891, 1.951313
265.8712, 1.791528
266.3534, 1.772051
266.8355, 2.190565
267.3176, 2.905033
267.7997, 3.276165
268.2818, 3.023463
268.7639, 2.847703
269.2461, 3.051690
269.7282, 3.473745
270.2103, 3.876831
270.6924, 4.133307
271.1745, 4.290936
271.6566, 4.486883
272.1388, 4.690796
272.6209, 5.003394
273.1030, 5.468916
273.5851, 6.018445
274.0672, 6.568010
274.5493, 7.093899
275.0315, 7.601097
275.5136, 8.087145
275.9957, 8.651781
276.4778, 9.050613
276.9599, 9.163425
277.4420, 9.179595
277.9242, 9.227565
278.4063, 9.365108
278.8884, 9.557906
279.3705, 9.735698
279.8526, 9.890233
280.3347, 10.04171
280.8169, 10.21875
281.2990, 10.38812
281.7811, 10.55741
282.2632, 10.72137
282.7453, 10.82093
283.2274, 10.73931
283.7096, 10.43863
284.1917, 10.03676
284.6738, 9.348208
285.1559, 8.715614
285.6380, 8.401222
286.1201, 8.408802
286.6023, 8.496621
287.0844, 8.385031
287.5665, 8.016667
288.0486, 7.650822
288.5307, 7.246444
289.0128, 6.882020
289.4950, 6.636025
289.9771, 6.466289
290.4592, 6.272103
290.9413, 5.951248
291.4234, 5.487496
291.9055, 5.133055
292.3877, 5.060984
292.8698, 4.921309
293.3519, 4.457680
293.8340, 3.834238
294.3161, 3.436234
294.7982, 3.578937
295.2804, 4.195038
295.7625, 4.412731
296.2446, 3.779821
296.7267, 3.217051
297.2088, 2.891734
297.6909, 2.745547
298.1731, 2.711339
298.6552, 2.763482
299.1373, 2.847077
299.6194, 2.747795
300.1015, 2.181984
300.5836, 1.773359
301.0658, 1.657131
301.5479, 1.689596
302.0300, 1.718131
302.5121, 1.682633
302.9942, 1.620966
303.4763, 1.614560
303.9585, 1.738832
304.4406, 1.806808
304.9227, 1.799888
305.4048, 1.751470
305.8869, 1.680310
306.3690, 1.594119
306.8512, 1.498554
307.3333, 1.396208
307.8154, 1.263480
308.2975, 1.189053
308.7796, 1.238011
309.2617, 1.273681
309.7439, 1.212363
310.2260, 1.051929
310.7081, 0.8261670
311.1902, 0.5416320
311.6723, 0.1488740
312.1544, 6.4627998E-02
312.6366, 0.5651860
313.1187, 1.040117
313.6008, 1.253255
314.0829, 1.237373
314.5650, 1.160979
315.0471, 1.147659
315.5293, 1.187725
316.0114, 1.151973
316.4935, 0.9369070
316.9756, 0.7508580
317.4577, 0.7095200
317.9398, 0.7237490
318.4220, 0.6425150
318.9041, 0.3830590
319.3862, 3.8263001E-02
319.8683, 9.5275000E-02
320.3504, 0.2398910
320.8326, 0.4755220
321.3147, 0.5369320
321.7968, 0.5106540
322.2789, 0.4778710
322.7610, 0.4663750
323.2431, 0.4555800
323.7253, 0.4056940
324.2074, 0.2634030
324.6895, 0.1899160
325.1716, 0.2504650
325.6537, 0.1039280
326.1358, 0.3515500
326.6180, 0.4806840
327.1001, 0.4977060
327.5822, 6.6814996E-02
328.0643, 0.2143540
328.5464, 0.1301020
329.0285, 3.6347002E-02
329.5107, 0.2653150
329.9928, 0.1003900
330.4749, 0.1234290
330.9570, 0.1119200
331.4391, 0.2081620
331.9212, 7.1168996E-02
332.4034, 6.2150001E-03
332.8855, 0.1745760
333.3676, 0.2137520
333.8497, 4.9929999E-02
334.3318, 0.1530510
334.8139, 0.2207290
335.2961, 7.7302001E-02
335.7782, 9.9680997E-02
336.2603, 0.1698630
336.7424, 1.3264000E-02
337.2245, 8.1931002E-02
337.7066, 0.1274950
338.1888, 0.3758070
338.6708, 0.4307230
339.1530, 0.2379420
339.6351, 5.9891000E-02
340.1172, 0.1955920
340.5993, 0.1368860
341.0814, 0.1068010
341.5635, 0.1690370
342.0457, 0.2039180
342.5278, 0.1175300
343.0099, 7.1548998E-02
343.4920, 0.2650530
343.9741, 0.3772440
344.4562, 0.4068830
344.9384, 0.3800030
345.4205, 0.2501930
345.9026, 0.1041730
346.3847, 2.9043000E-02
346.8668, 0.1636560
347.3489, 8.7438002E-02
347.8311, 0.1745520
348.3132, 0.4749900
348.7953, 0.6197520
349.2774, 0.4521740
349.7595, 0.3738110
350.2416, 0.5661790
350.7238, 0.8210080
351.2059, 0.9025900
351.6880, 0.7334680
352.1701, 0.4756390
352.6522, 0.4232370
353.1343, 0.6830370
353.6165, 0.8192520
354.0986, 0.6067600
354.5807, 0.3997580
355.0628, 0.4393210
355.5449, 0.7194240
356.0270, 1.033835
356.5092, 1.217569
356.9913, 1.271077
357.4734, 1.160528
357.9555, 0.6696460
358.4376, 0.2553150
358.9197, 0.1142720
359.4019, 0.1854120
359.8840, 0.3388880
360.3661, 0.5179440
360.8482, 0.7135790
361.3303, 0.9060160
361.8124, 1.107708
362.2946, 1.274931
362.7767, 1.435761
363.2588, 1.539561
363.7409, 1.490274
364.2230, 1.235531
364.7051, 0.9677200
365.1873, 0.9761980
365.6694, 1.299552
366.1515, 1.540091
366.6336, 1.551890
367.1157, 1.491270
367.5978, 1.442000
368.0800, 1.415271
368.5621, 1.448004
369.0442, 1.610444
369.5263, 1.866123
370.0084, 2.041926
370.4905, 2.100152
370.9727, 2.125608
371.4548, 2.142028
371.9369, 2.169675
372.4190, 2.266162
372.9011, 2.523434
373.3832, 2.815579
373.8654, 2.930463
374.3475, 2.850549
374.8296, 2.773265
375.3117, 2.785572
375.7938, 2.878124
376.2759, 3.030807
376.7581, 3.246488
377.2402, 3.509113
377.7223, 3.903738
378.2044, 4.374912
378.6865, 4.569361
379.1686, 4.250525
379.6508, 3.837440
380.1329, 3.865446
380.6150, 4.307971
381.0971, 4.811197
381.5792, 5.341296
382.0613, 5.839925
382.5435, 6.220251
383.0256, 6.478024
383.5077, 6.627322
383.9898, 6.633121
384.4719, 6.518958
384.9540, 6.454322
385.4362, 6.414176
385.9183, 6.446959
386.4004, 6.593848
386.8825, 6.845045
387.3646, 7.137288
387.8467, 7.443147
388.3289, 7.776810
388.8110, 8.146927
389.2931, 8.664129
389.7752, 8.741553
390.2573, 9.015589
390.7394, 9.171441
391.2216, 9.217415
391.7037, 8.814311
392.1858, 8.993420
392.6679, 8.921248
393.1500, 8.848554
393.6321, 9.104152
394.1143, 8.765067
394.5964, 9.014524
395.0785, 9.003833
395.5606, 8.604869
396.0427, 8.156488
396.5248, 7.888203
397.0070, 7.770441
397.4891, 7.586578
397.9712, 7.161333
398.4533, 6.882143
398.9354, 6.929552
399.4175, 7.078372
399.8997, 7.060304
400.3818, 6.800872
400.8639, 6.458670
401.3460, 6.289284
401.8281, 6.399848
402.3102, 6.377190
402.7924, 6.200450
403.2745, 5.948637
403.7566, 5.607303
404.2387, 5.212957
404.7208, 4.847328
405.2029, 4.592343
405.6851, 4.432117
406.1672, 4.283506
406.6493, 4.151459
407.1314, 4.023205
407.6135, 3.911000
408.0956, 3.796159
408.5778, 3.648369
409.0599, 3.456055
409.5420, 3.256661
410.0241, 3.085053
410.5062, 2.928865
410.9883, 2.884271
411.4705, 3.248119
411.9526, 3.479877
412.4347, 3.124911
412.9168, 2.297116
413.3989, 1.570197
413.8810, 1.409273
414.3632, 1.671162
414.8453, 1.851007
415.3274, 1.977664
415.8095, 1.947630
416.2916, 1.524351
416.7737, 0.9633000
417.2559, 0.6134070
417.7380, 0.6038950
418.2201, 0.7298420
418.7022, 0.8024220
419.1843, 0.8294780
419.6664, 0.9119080
420.1486, 1.139738
420.6307, 1.351623
421.1128, 1.329644
421.5949, 1.079592
422.0770, 0.8023140
422.5591, 0.4976600
423.0413, 0.2394640
423.5234, 0.1520590
424.0055, 0.2495010
424.4876, 0.3987610
424.9697, 0.5110050
425.4518, 0.5914210
425.9340, 0.6824540
426.4161, 0.9056410
426.8982, 1.012109
427.3803, 0.7743490
427.8624, 0.3477050
428.3445, 7.1287997E-02
428.8267, 7.8615002E-02
429.3088, 0.2295590
429.7909, 0.2874310
430.2730, 0.2059070
430.7551, 0.1264310
431.2372, 4.5650001E-03
431.7194, 9.2059001E-02
432.2015, 1.6491000E-02
432.6836, 0.1889830
433.1657, 0.3580920
433.6478, 0.3510200
434.1299, 0.1835530
434.6121, 6.4597003E-02
435.0942, 7.0483997E-02
435.5763, 3.6740001E-02
436.0584, 0.1256450
436.5405, 9.5079998E-03
437.0226, 9.6135996E-02
437.5048, 7.7514999E-02
437.9869, 3.6047999E-02
438.4690, 8.0925003E-02
438.9511, 0.3010050
439.4332, 0.4777920
439.9153, 0.2210210
440.3975, 4.3540001E-02
440.8796, 9.6763998E-02
441.3617, 6.8930001E-03
441.8438, 6.9582000E-02
442.3259, 8.1157997E-02
442.8080, 2.9499000E-02
443.2902, 2.5994999E-02
443.7723, 0.2882810
444.2544, 0.6677490
444.7365, 0.3980720
445.2186, 5.7190999E-02
445.7007, 2.1534000E-02
446.1829, 0.1182380
446.6650, 1.5308000E-02
447.1471, 0.1765670
447.6292, 0.2893860
448.1113, 0.2554010
448.5934, 2.6497999E-02
449.0756, 8.2190000E-03
449.5577, 6.8369001E-02
450.0398, 5.4251999E-02
450.5219, 0.2491300
451.0040, 0.2495970
451.4861, 0.1539310
451.9683, 1.5200000E-03
452.4504, 9.6963003E-02
452.9325, 6.2190001E-03
453.4146, 9.1032997E-02
453.8967, 1.4289000E-02
454.3788, 0.2454860
454.8610, 0.5531030
455.3431, 0.7334540
455.8252, 0.6529360
456.3073, 0.4699610
456.7894, 0.3557820
457.2715, 0.3321620
457.7537, 0.3076590
458.2358, 0.1755580
458.7179, 6.4246997E-02
459.2000, 2.9228000E-02
459.6821, 0.5962580
460.1642, 1.086617
460.6464, 1.158870
461.1285, 1.001135
461.6106, 0.8659250
462.0927, 0.8510480
462.5748, 0.9165310
463.0569, 1.010985
463.5391, 1.179778
464.0212, 1.249813
464.5033, 1.158543
464.9854, 1.037854
465.4675, 0.8716780
465.9496, 0.7188190
466.4318, 0.7126290
466.9139, 0.9839660
467.3960, 1.405093
467.8781, 1.538632
468.3602, 1.237566
468.8423, 1.034376
469.3245, 1.208163
469.8066, 1.462341
470.2887, 1.561270
470.7708, 1.471923
471.2529, 1.332720
471.7350, 1.231715
472.2172, 1.165625
472.6993, 1.114372
473.1814, 1.060063
473.6635, 1.069712
474.1456, 1.285754
474.6277, 1.595101
475.1099, 1.727333
475.5920, 1.500955
476.0741, 1.266697
476.5562, 1.312042
477.0383, 1.551048
477.5204, 1.728193
478.0026, 1.756149
478.4847, 1.692838
478.9668, 1.591280
479.4489, 1.424177
479.9310, 1.366762
480.4131, 1.494434
480.8953, 1.473293
481.3774, 1.728074
481.8595, 1.861167
482.3416, 1.886864
482.8237, 1.459996
483.3058, 1.611350
483.7880, 1.539715
484.2701, 1.449719
484.7522, 1.682427
485.2343, 1.320432
485.7164, 1.547985
486.1985, 1.541673
486.6807, 1.645252
487.1628, 1.510143
487.6449, 1.452585
488.1270, 1.313574
488.6091, 1.288975
489.0912, 1.488885
489.5734, 1.650060
490.0555, 1.689467
490.5376, 1.674058
491.0197, 1.650156
491.5018, 1.646910
491.9839, 1.627317
492.4661, 1.537211
492.9482, 1.383472
493.4303, 1.320622
493.9124, 1.426896
494.3945, 1.280342
494.8766, 1.520543
495.3588, 1.642225
495.8409, 1.649153
496.3230, 1.216532
496.8051, 1.359848
497.2872, 1.544558
497.7693, 1.538073
498.2515, 1.545817
498.7336, 1.676304
499.2157, 1.819965
499.6978, 1.762244
500.1799, 1.190633
500.6620, 1.462265
501.1442, 1.622728
501.6263, 1.663704
502.1084, 1.271350
502.5905, 1.443765
503.0726, 1.379245
503.5547, 1.308995
504.0368, 1.563651
504.5190, 1.315830
505.0011, 1.553857
505.4832, 1.672663
505.9653, 1.683160
506.4474, 1.255034
506.9295, 1.390569
507.4117, 1.290472
507.8938, 1.186120
508.3759, 1.420599
508.8580, 1.048311
509.3401, 1.261316
509.8222, 1.238160
510.3044, 1.182516
510.7865, 1.289352
511.2686, 1.387334
511.7507, 1.360779
512.2328, 1.176442
512.7150, 0.9863630
513.1971, 0.8994350
513.6792, 0.8956030
514.1613, 0.9133820
514.6434, 0.9423490
515.1255, 1.017763
515.6077, 1.242293
516.0898, 1.536741
516.5719, 1.569128
517.0540, 0.9856540
517.5361, 0.5721430
518.0182, 0.9006010
518.5004, 1.571894
518.9825, 1.881020
519.4646, 1.639513
519.9467, 1.200521
520.4288, 0.9916130
520.9109, 1.070023
521.3931, 0.7701040
521.8752, 1.037773
522.3573, 1.186925
522.8394, 1.223925
523.3215, 0.8129560
523.8036, 0.9803830
524.2858, 0.9159750
524.7679, 0.8420350
525.2500, 1.090790
525.7321, 0.7448330
526.2142, 0.9884150
526.6964, 0.9966260
527.1785, 0.6786870
527.6606, 0.4598390
528.1427, 0.3254340
528.6248, 0.3305110
529.1069, 0.5541080
529.5891, 0.8305810
530.0712, 0.9458940
530.5533, 0.9056530
531.0354, 0.7877040
531.5175, 0.5629010
531.9996, 0.3470330
532.4818, 0.3287600
532.9639, 0.4894240
533.4460, 0.5510660
533.9281, 0.3376720
534.4102, 0.1054900
534.8923, 8.3694004E-02
535.3745, 0.2208400
535.8566, 0.3234860
536.3387, 0.3008820
536.8208, 0.1960590
537.3029, 9.1879003E-02
537.7850, 4.5705002E-02
538.2672, 4.1462999E-02
538.7493, 1.1459000E-02
539.2314, 0.1071890
539.7135, 1.5720000E-02
540.1956, 8.9518003E-02
540.6777, 0.1695330
541.1599, 8.3522998E-02
541.6420, 0.3614480
542.1241, 0.5593980
542.6062, 0.4522300
543.0883, 0.2855340
543.5704, 3.1121001E-02
544.0526, 8.6570000E-03
544.5347, 0.2086830
545.0168, 0.3758880
545.4989, 0.3681650
545.9810, 5.6345999E-02
546.4631, 0.3420530
546.9453, 0.4442480
547.4274, 0.1302720
547.9095, 9.1870002E-02
548.3916, 3.7060000E-02
548.8737, 0.2983010
549.3558, 0.2619880
549.8380, 0.1287110
550.3201, 6.5917000E-02
550.8022, 9.5419995E-03
551.2843, 0.1157240
551.7664, 0.1262070
552.2485, 0.3607280
552.7307, 0.4261930
553.2128, 0.2140270
553.6949, 0.1551550
554.1770, 3.0665001E-02
554.6591, 0.1830690
555.1412, 0.1078310
555.6234, 4.5180999E-02
556.1055, 7.4467003E-02
556.5876, 4.2468999E-02
557.0697, 0.3821950
557.5518, 0.5831210
558.0339, 0.2689660
558.5161, 0.1423450
558.9982, 3.8733002E-02
559.4803, 0.2285060
559.9624, 1.2483000E-02
560.4445, 3.3757001E-02
560.9266, 2.5389001E-02
561.4088, 0.1594690
561.8909, 0.1476320
562.3730, 2.2404000E-02
562.8551, 8.0880001E-03
563.3372, 7.7762999E-02
563.8193, 0.2643810
564.3015, 1.0261000E-02
564.7836, 0.1359560
565.2657, 9.9940002E-03
565.7478, 0.2820500
566.2299, 9.1986001E-02
566.7120, 5.0410000E-03
567.1942, 1.0657000E-02
567.6763, 0.2058620
568.1584, 0.2854090
568.6405, 0.1420700
569.1226, 0.2762280
569.6047, 0.6185510
570.0869, 0.7317620
570.5690, 0.6829780
571.0511, 0.5851630
571.5332, 0.4063980
572.0153, 0.2985350
572.4974, 0.2787640
572.9796, 0.3364990
573.4617, 0.5359710
573.9438, 0.8077800
574.4259, 0.9710660
574.9080, 0.9093780
575.3901, 0.7738420
575.8723, 0.7587320
576.3544, 0.8339140
576.8365, 0.8015240
577.3186, 0.5687840
577.8007, 0.3304720
578.2828, 0.3111220
578.7650, 0.5255320
579.2471, 0.7623390
579.7292, 1.038708
580.2113, 1.308739
580.6934, 1.655557
581.1755, 1.960559
581.6577, 1.973231
582.1398, 1.628747
582.6219, 1.223265
583.1040, 1.177597
583.5861, 1.550026
584.0682, 1.820140
584.5504, 1.916194
585.0325, 1.994396
585.5145, 2.136820
585.9966, 2.275225
586.4788, 2.297974
586.9609, 2.168218
587.4430, 2.033119
587.9251, 2.060326
588.4072, 2.202173
588.8893, 2.244618
589.3715, 1.917677
589.8536, 2.196438
590.3357, 2.356739
590.8178, 2.404965
591.2999, 2.005300
591.7820, 2.184102
592.2642, 2.130820
592.7463, 2.067639
593.2284, 2.327913
593.7105, 1.993525
594.1926, 2.248724
594.6747, 2.268597
595.1569, 2.395860
595.6390, 2.283319
596.1211, 2.243171
596.6032, 2.439751
597.0853, 2.510384
597.5674, 2.373333
598.0496, 2.507909
598.5317, 2.165817
599.0138, 2.233468
599.4959, 2.445182
599.9780, 2.353925
600.4601, 2.136404
600.9423, 2.108590
601.4244, 2.293431
601.9065, 2.344936
602.3886, 2.352594
602.8707, 2.317739
603.3528, 2.154811
603.8350, 2.178384
604.3171, 2.151066
604.7992, 2.121134
605.2813, 2.184014
605.7634, 2.158591
606.2455, 2.205624
606.7277, 2.170345
607.2098, 2.045244
607.6919, 1.869726
608.1740, 1.715959
608.6561, 1.568587
609.1382, 1.575922
609.6204, 2.013012
610.1025, 2.285671
610.5846, 2.061939
611.0667, 1.629771
611.5488, 1.367295
612.0309, 1.396055
612.5131, 1.536446
612.9952, 1.679006
613.4773, 1.806610
613.9594, 1.865453
614.4415, 1.840508
614.9236, 1.750607
615.4058, 1.599065
615.8879, 1.450580
616.3700, 1.410400
616.8521, 1.501110
617.3342, 1.583447
617.8163, 1.705801
618.2985, 1.785220
618.7806, 1.667914
619.2627, 1.422781
619.7448, 1.345369
620.2269, 1.641424
620.7090, 2.152037
621.1912, 2.423241
621.6733, 2.343996
622.1554, 2.340352
622.6375, 2.539642
623.1196, 2.750296
623.6017, 2.826118
624.0839, 2.823940
624.5660, 2.866692
625.0481, 3.045052
625.5302, 3.199178
626.0123, 3.135444
626.4944, 2.937739
626.9766, 2.856426
627.4587, 2.953455
627.9408, 3.071813
628.4229, 3.043024
628.9050, 2.871816
629.3871, 2.845102
629.8693, 3.081100
630.3514, 3.287994
630.8335, 3.359045
631.3156, 3.399879
631.7977, 3.527823
632.2798, 3.751684
632.7620, 3.997551
633.2441, 4.215617
633.7262, 4.397685
634.2083, 4.483029
634.6904, 4.431255
635.1725, 4.366163
635.6547, 4.561117
636.1368, 4.722183
636.6189, 4.851230
637.1010, 4.851792
637.5831, 5.018696
638.0652, 5.119192
638.5474, 5.217200
639.0295, 5.408045
639.5116, 5.428269
639.9937, 5.618032
640.4758, 5.740376
640.9579, 5.893866
641.4401, 5.980610
641.9222, 6.088194
642.4043, 6.262992
642.8864, 6.400866
643.3685, 6.480610
643.8506, 6.637190
644.3328, 6.657060
644.8149, 6.797293
645.2970, 6.989593
645.7791, 7.073677
646.2612, 7.232476
646.7433, 7.364231
647.2255, 7.368587
647.7076, 7.596580
648.1897, 7.732660
648.6718, 7.769417
649.1539, 7.994087
649.6360, 8.038368
650.1182, 8.145406
650.6003, 8.299665
651.0824, 8.405053
651.5645, 8.595191
652.0466, 8.826045
652.5287, 9.055318
653.0109, 9.086999
653.4930, 9.136871
653.9751, 9.155551
654.4572, 9.146736
654.9393, 9.014446
655.4214, 9.049534
655.9036, 9.016955
656.3857, 8.932074
656.8678, 8.938037
657.3499, 8.908849
657.8320, 8.851826
658.3141, 8.652775
658.7963, 8.620034
659.2784, 8.520908
659.7605, 8.432019
660.2426, 8.448633
660.7247, 8.270729
661.2068, 8.261277
661.6890, 8.184419
662.1711, 8.138708
662.6532, 8.026162
663.1353, 7.880584
663.6174, 7.631542
664.0995, 7.548846
664.5817, 7.399694
665.0638, 7.248048
665.5459, 7.195758
666.0280, 6.984842
666.5101, 6.932727
666.9922, 6.814044
667.4744, 6.720464
667.9565, 6.505654
668.4386, 6.488823
668.9207, 6.437494
669.4028, 6.355321
669.8849, 6.149491
670.3671, 6.108190
670.8492, 5.999433
671.3313, 5.890044
671.8134, 5.871719
672.2955, 5.683099
672.7776, 5.657195
673.2598, 5.564008
673.7419, 5.502081
674.2240, 5.373328
674.7061, 5.265401
675.1882, 5.224722
675.6703, 5.147162
676.1525, 5.019734
676.6346, 4.977208
677.1167, 4.789627
677.5988, 4.716521
678.0809, 4.693321
678.5630, 4.561849
679.0452, 4.513825
679.5273, 4.451458
680.0094, 4.261051
680.4915, 4.280841
680.9736, 4.194798
681.4557, 4.009307
681.9379, 4.012887
682.4200, 3.841410
682.9021, 3.732573
683.3842, 3.900944
683.8663, 3.781227
684.3484, 3.381034
684.8306, 3.079399
685.3127, 2.913820
685.7948, 2.785272
686.2769, 2.629486
686.7590, 2.491703
687.2411, 2.433302
687.7233, 2.464709
688.2054, 2.518386
688.6875, 2.618400
689.1696, 2.668573
689.6517, 2.554774
690.1339, 2.321581
690.6160, 2.054419
691.0981, 1.784285
691.5802, 1.594078
692.0623, 1.597865
692.5444, 1.836595
693.0266, 1.898382
693.5087, 1.668002
693.9908, 1.431716
694.4729, 1.129921
694.9550, 0.8719540
695.4371, 0.8976820
695.9193, 0.8900210
696.4014, 0.8499680
696.8835, 0.6809800
697.3656, 0.6782280
697.8477, 0.6106390
698.3298, 0.5453170
698.8120, 0.5706700
699.2941, 0.4216020
699.7762, 0.4410340
700.2583, 0.3928980
700.7404, 0.3757540
701.2225, 0.2919530
701.7047, 0.2382960
702.1868, 0.2441130
702.6689, 0.2107930
703.1510, 0.1191870
703.6331, 0.1043040
704.1152, 4.7527000E-02
704.5974, 7.9141997E-02
705.0795, 5.8855001E-02
705.5616, 0.1460670
706.0437, 0.1440660
706.5258, 0.1214200
707.0079, 1.1620000E-02
707.4901, 0.2072640
707.9722, 0.3875080
708.4543, 0.4756550
708.9364, 0.4723600
709.4185, 0.4128230
709.9006, 0.2353980
710.3828, 8.5937999E-02
710.8649, 8.6099998E-04
711.3470, 5.8984000E-02
711.8291, 0.1290360
712.3112, 0.2068800
712.7933, 0.2170050
713.2755, 0.1890850
713.7576, 0.1849440
714.2397, 0.1599980
714.7218, 0.1282550
715.2039, 0.2164220
715.6860, 6.3846998E-02
716.1682, 0.2768390
716.6503, 0.1550180
717.1324, 0.1977320
717.6145, 0.3964160
718.0966, 1.2355000E-02
718.5787, 0.2531730
719.0609, 0.4066050
719.5430, 0.1120520
720.0251, 4.0447999E-02
720.5072, 9.9863999E-02
720.9893, 0.2443460
721.4714, 0.4047420
721.9536, 0.4656060
722.4357, 0.1822340
722.9178, 4.0022999E-02
723.3999, 0.2616460
723.8820, 6.4700998E-02
724.3641, 0.1102570
724.8463, 1.4416000E-02
725.3284, 2.8486000E-02
725.8105, 3.6375001E-02
726.2926, 2.5559001E-02
726.7747, 4.2188000E-02
727.2568, 0.1170640
727.7390, 5.1449001E-02
728.2211, 2.8426001E-02
728.7032, 7.5978003E-02
729.1853, 2.3375001E-02
729.6674, 7.2756998E-02
730.1495, 0.1112940
730.6317, 0.1476570
731.1138, 9.9233001E-02
731.5959, 0.2805230
732.0780, 0.7278180
732.5601, 0.9052480
733.0422, 0.4975000
733.5244, 5.5140998E-02
734.0065, 0.1886680
734.4886, 1.8578000E-02
734.9707, 1.5896000E-02
735.4528, 0.1721450
735.9349, 0.2104770
736.4171, 5.7355002E-02
736.8992, 0.2780220
737.3813, 0.2885350
737.8634, 4.5658998E-02
738.3455, 0.3080330
738.8276, 0.5588310
739.3098, 0.6792790
739.7919, 0.6494390
740.2740, 0.4777250
740.7561, 0.2864900
741.2382, 9.6942000E-02
741.7203, 1.0044000E-02
742.2025, 0.1492200
742.6846, 0.2846760
743.1667, 0.3264590
743.6488, 0.1518010
744.1309, 6.1794002E-02
744.6130, 0.1822300
745.0952, 0.3216910
745.5773, 0.3707620
746.0594, 0.3099280
746.5415, 9.6901000E-02
747.0236, 0.2885250
747.5057, 0.6705590
747.9879, 0.6027270
748.4700, 0.2126360
748.9521, 7.6400000E-03
749.4342, 6.2453002E-02
749.9163, 1.2910000E-02
750.3984, 9.7260997E-02
750.8806, 0.2631970
751.3627, 0.3813770
751.8448, 0.4570390
752.3269, 0.4625320
752.8090, 0.3136100
753.2911, 0.1943090
753.7733, 0.2179180
754.2554, 0.2957810
754.7375, 0.2894400
755.2196, 0.1733080
755.7017, 7.9172000E-02
756.1838, 0.1133430
756.6660, 0.2266100
757.1481, 0.3889180
757.6302, 0.5718780
758.1123, 0.5732640
758.5944, 0.3042070
759.0765, 6.2853001E-02
759.5587, 0.2128000
760.0408, 0.7399010
760.5229, 1.053819
761.0050, 1.064951
761.4871, 0.9893120
761.9692, 0.8127620
762.4514, 0.6009820
762.9335, 0.3084240
763.4156, 1.9926000E-02
763.8977, 5.0324999E-02
764.3798, 0.3978890
764.8619, 0.8817840
765.3441, 1.086202
765.8262, 1.097998
766.3083, 1.045853
766.7904, 0.9573320
767.2725, 0.8593320
767.7546, 0.7596150
768.2368, 0.6974410
768.7189, 0.7954760
769.2010, 1.144692
769.6831, 1.301128
770.1652, 1.172280
770.6473, 0.9726110
771.1295, 0.7423180
771.6116, 0.5218840
772.0937, 0.3400980
772.5758, 0.1924700
773.0579, 0.1991460
773.5400, 0.6342660
774.0222, 1.055732
774.5043, 1.016234
774.9864, 0.7337030
775.4685, 0.6782860
775.9506, 0.9829330
776.4327, 1.317795
776.9149, 1.377353
777.3970, 1.195952
777.8791, 0.8663930
778.3612, 0.3133570
778.8433, 1.6702000E-02
779.3254, 0.1590070
779.8076, 0.4664920
780.2897, 0.7975920
780.7718, 1.105056
781.2539, 1.196674
781.7360, 0.9629580
782.2181, 0.7254110
782.7003, 0.5305000
783.1824, 0.3961840
783.6645, 0.3445880
784.1466, 0.3728770
784.6287, 0.4995420
785.1108, 0.7375970
785.5930, 0.9474060
786.0751, 0.8191560
786.5572, 0.4780380
787.0393, 0.4506650
787.5214, 0.7691530
788.0035, 1.095085
788.4857, 1.314411
788.9678, 1.360500
789.4499, 1.058674
789.9320, 0.3049580
790.4141, 3.4097001E-02
790.8962, 0.7878350
791.3784, 1.294155
791.8605, 1.079120
792.3426, 0.6881800
792.8247, 0.6199420
793.3068, 0.8414890
793.7889, 0.9592060
794.2711, 0.7122350
794.7532, 0.3964970
795.2353, 0.3380220
795.7174, 0.4481430
796.1995, 0.4615780
796.6816, 0.3571890
797.1638, 0.4041140
797.6459, 0.7972910
798.1280, 1.307759
798.6101, 1.355632
799.0922, 0.7571990
799.5743, 0.4832020
800.0565, 0.8025300
800.5386, 1.028283
801.0207, 0.7123320
801.5028, 0.2560820
801.9849, 0.1076170
802.4670, 0.2895700
802.9492, 0.4820820
803.4313, 0.6543600
803.9134, 0.7681390
804.3955, 0.7677010
804.8776, 0.7181300
805.3597, 0.7074640
805.8419, 0.7438120
806.3240, 0.7478800
806.8061, 0.6453290
807.2882, 0.4811110
807.7703, 0.2896660
808.2524, 8.6608000E-02
808.7346, 7.4166000E-02
809.2167, 0.3250080
809.6988, 0.5631130
810.1809, 0.6072630
810.6630, 0.5081410
811.1451, 0.3913000
811.6273, 0.1885690
812.1094, 0.1348450
812.5915, 0.4205470
813.0736, 0.6352210
813.5557, 0.5061440
814.0378, 0.2647500
814.5200, 0.2582530
815.0021, 0.5200360
815.4842, 0.6882330
815.9663, 0.3819110
816.4484, 5.2530002E-03
816.9305, 1.5990000E-03
817.4127, 0.2910520
817.8948, 0.6273680
818.3769, 0.9390240
818.8590, 1.081844
819.3411, 0.9550700
819.8232, 0.6531520
820.3054, 0.4346190
820.7875, 0.3013240
821.2696, 0.2348140
821.7517, 0.3077690
822.2338, 0.3632000
822.7159, 0.2408150
823.1981, 6.5182999E-02
823.6802, 9.5670998E-02
824.1623, 0.4116830
824.6444, 0.5774260
825.1265, 0.3881370
825.6086, 0.1545640
826.0908, 1.2340000E-02
826.5729, 5.0156001E-02
827.0550, 5.4598000E-02
827.5371, 1.1236000E-02
828.0192, 6.3169003E-02
828.5013, 0.1570690
828.9835, 0.2736830
829.4656, 0.4721550
829.9477, 0.7092650
830.4298, 0.7649350
830.9119, 0.6012320
831.3940, 0.3175970
831.8762, 7.8630000E-02
832.3583, 3.0152000E-02
832.8404, 8.1510000E-02
833.3225, 0.5881200
833.8046, 1.027632
834.2867, 0.5985820
834.7689, 0.1943280
835.2510, 8.4012002E-02
835.7331, 0.1855760
836.2152, 0.5192640
836.6973, 1.065190
837.1794, 1.362362
837.6616, 1.042093
838.1437, 0.6675380
838.6258, 0.5723500
839.1079, 0.6130480
839.5900, 0.5951030
840.0721, 0.5108400
840.5543, 0.5255080
841.0364, 0.7781920
841.5185, 1.022691
842.0006, 0.7050210
842.4827, 4.7207002E-02
842.9648, 4.4151999E-02
843.4470, 2.1150000E-02
843.9291, 0.2729280
844.4112, 0.2331920
844.8933, 5.3963002E-02
845.3754, 6.1579999E-02
845.8575, 0.2874930
846.3397, 0.5031910
846.8218, 0.8184160
847.3039, 0.9689680
847.7860, 0.6931520
848.2681, 0.4002670
848.7502, 0.5143580
849.2324, 0.9403580
849.7145, 1.258455
850.1966, 1.375018
850.6787, 1.304920
851.1608, 0.8482220
851.6429, 0.3543760
852.1251, 0.2826720
852.6072, 0.5373850
853.0893, 0.7424720
853.5714, 0.7349200
854.0535, 0.6149550
854.5356, 0.4625650
855.0178, 0.3017550
855.4999, 0.2774360
855.9820, 0.3944570
856.4641, 0.3943250
856.9462, 0.1543470
857.4283, 3.8341999E-02
857.9105, 0.1388770
858.3926, 0.6238340
858.8747, 0.9173160
859.3568, 0.9471320
859.8389, 0.9065870
860.3210, 0.7296080
860.8032, 0.5778760
861.2853, 0.5613390
861.7674, 0.5998900
862.2495, 0.5264110
862.7316, 0.2839000
863.2137, 0.1492920
863.6959, 0.3495370
864.1780, 0.5879420
864.6601, 0.6183360
865.1422, 0.5349030
865.6243, 0.5011740
866.1064, 0.5465350
866.5886, 0.6072720
867.0707, 0.6290870
867.5528, 0.6479010
868.0349, 0.7762980
868.5170, 0.9828680
868.9991, 1.043215
869.4813, 0.9349370
869.9634, 0.7094840
870.4455, 0.3461100
870.9276, 8.8000000E-03
871.4097, 2.9713999E-02
871.8918, 0.4882280
872.3740, 0.7512870
872.8561, 0.7013560
873.3382, 0.6486260
873.8203, 0.8035740
874.3024, 0.8802110
874.7845, 0.5001620
875.2667, 5.2740000E-02
875.7488, 0.2732070
876.2309, 8.7314002E-02
876.7130, 0.2585520
877.1951, 0.6637530
877.6772, 0.8851460
878.1594, 0.5477950
878.6415, 4.3481000E-02
879.1236, 4.3740999E-02
879.6057, 0.3158440
880.0878, 0.8631530
880.5699, 0.8487910
881.0521, 0.5354200
881.5342, 0.3680530
882.0163, 0.3291730
882.4984, 0.3547420
882.9805, 0.4269890
883.4626, 0.4925800
883.9448, 0.5078350
884.4269, 0.4894270
884.9090, 0.4884730
885.3911, 0.5061360
885.8732, 0.5540940
886.3553, 0.6516440
886.8375, 0.7373370
887.3196, 0.8002770
887.8017, 0.8216830
888.2838, 0.7611620
888.7659, 0.6112780
889.2480, 0.4755200
889.7302, 0.3589190
890.2123, 0.2300340
890.6944, 8.7948002E-02
891.1765, 2.2467000E-02
891.6586, 5.2634001E-02
892.1407, 4.6682000E-02
892.6229, 7.9207003E-02
893.1050, 0.5467390
893.5871, 1.046351
894.0692, 0.9632110
894.5513, 0.6108060
895.0334, 0.2017020
895.5156, 5.9381001E-02
895.9977, 3.7652999E-02
896.4798, 0.1830750
896.9619, 0.6081400
897.4440, 0.8644970
897.9261, 0.9811370
898.4083, 1.013272
898.8904, 0.9646540
899.3725, 0.8553350
899.8546, 0.6772360
900.3367, 0.5484910
900.8188, 0.5340310
901.3010, 0.6293810
901.7831, 0.7884300
902.2652, 1.045946
902.7473, 1.140080
903.2294, 0.9959740
903.7115, 0.8226460
904.1937, 0.6647600
904.6758, 0.5048270
905.1579, 0.2957350
905.6400, 7.0207998E-02
906.1221, 4.9467999E-02
906.6042, 2.3955001E-02
907.0864, 7.3426999E-02
907.5685, 0.3639870
908.0506, 0.5831650
908.5327, 0.4713390
909.0148, 0.2130840
909.4969, 0.1203860
909.9791, 0.2583710
910.4612, 0.4402370
910.9433, 0.5090970
911.4254, 0.5715180
911.9075, 0.8474360
912.3896, 1.190520
912.8718, 1.289920
913.3539, 1.132474
913.8360, 0.9119310
914.3181, 0.7348040
914.8002, 0.5872730
915.2823, 0.4389310
915.7644, 0.3019420
916.2465, 0.2506090
916.7286, 0.2916820
917.2108, 0.2642260
917.6929, 0.1005060
918.1750, 6.7570999E-02
918.6571, 2.5888000E-02
919.1392, 3.0543000E-02
919.6213, 7.0991002E-02
920.1035, 0.2194170
920.5856, 0.4070020
921.0677, 0.3937700
921.5498, 0.3775740
922.0319, 0.5323720
922.5140, 0.6954970
922.9962, 0.6070470
923.4783, 0.2417010
923.9604, 1.6306000E-02
924.4425, 4.5891002E-02
924.9246, 5.1004998E-02
925.4067, 2.8368000E-02
925.8889, 9.2426002E-02
926.3710, 9.3900003E-03
926.8531, 0.3796990
927.3352, 0.6169050
927.8173, 0.5895650
928.2994, 0.4903990
928.7816, 0.4058340
929.2637, 0.3490510
929.7458, 0.3760470
930.2279, 0.4274060
930.7100, 0.3812230
931.1921, 0.2334330
931.6743, 0.1119810
932.1564, 9.4912000E-02
932.6385, 0.1522610
933.1206, 0.2425360
933.6027, 0.3401580
934.0848, 0.3676150
934.5670, 0.3162660
935.0491, 0.3261530
935.5312, 0.4658730
936.0133, 0.6565540
936.4954, 0.8049830
936.9775, 0.9070240
937.4597, 0.9552650
937.9418, 0.9313400
938.4239, 0.8577460
938.9060, 0.6669850
939.3881, 0.5886730
939.8702, 0.8773850
940.3524, 1.304464
940.8345, 1.342944
941.3166, 0.8514440
941.7987, 0.5066330
942.2808, 0.3691720
942.7629, 0.2932380
943.2451, 0.2237020
943.7272, 0.2201200
944.2093, 0.4067550
944.6914, 0.7041650
945.1735, 0.8375780
945.6556, 0.6823050
946.1378, 0.5756630
946.6199, 0.6941300
947.1020, 0.8041740
947.5841, 0.6776140
948.0662, 0.4497380
948.5483, 0.3294690
949.0305, 0.3337890
949.5126, 0.3933430
949.9947, 0.4974030
950.4768, 0.5971290
950.9589, 0.6536510
951.4410, 0.6581670
951.9232, 0.5804150
952.4053, 0.4547700
952.8874, 0.3720880
953.3695, 0.3515610
953.8516, 0.3889340
954.3337, 0.5192980
954.8159, 0.6775850
955.2980, 0.6989490
955.7801, 0.6007920
956.2622, 0.5045920
956.7443, 0.4391910
957.2264, 0.3518900
957.7086, 0.1738950
958.1907, 3.6940000E-03
958.6728, 6.5430002E-03
959.1549, 0.2117310
959.6370, 0.2783400
960.1191, 0.1573680
960.6013, 0.1150870
961.0834, 0.2692490
961.5655, 0.4016060
962.0476, 0.2938190
962.5297, 4.0178001E-02
963.0118, 1.9593000E-02
963.4940, 0.2536430
963.9761, 0.3595960
964.4582, 9.3183003E-02
964.9403, 5.2889001E-02
965.4224, 0.2349120
965.9045, 0.5756930
966.3867, 0.5815620
966.8688, 0.2990370
967.3509, 6.2399998E-02
967.8330, 1.8369000E-02
968.3151, 6.1191000E-02
968.7972, 0.1761160
969.2794, 0.5294870
969.7615, 0.5450260
970.2436, 0.3786260
970.7257, 0.2459520
971.2078, 0.1869330
971.6899, 0.1648180
972.1721, 0.1574730
972.6542, 0.1902970
973.1363, 0.3560690
973.6184, 0.5155680
974.1005, 0.4411340
974.5826, 0.2333430
975.0648, 0.1596560
975.5469, 0.3019880
976.0290, 0.5041440
976.5111, 0.7342240
976.9932, 0.8895640
977.4753, 0.6821070
977.9575, 0.3507180
978.4396, 0.5003250
978.9217, 1.091746
979.4038, 1.486027
979.8859, 1.362457
980.3680, 0.9823730
980.8502, 0.6045320
981.3323, 0.2705620
981.8144, 0.1979300
982.2965, 0.3461160
982.7786, 0.3336700
983.2607, 7.5756997E-02
983.7429, 3.9446000E-02
984.2250, 3.3874001E-02
984.7071, 2.0326000E-02
985.1892, 0.2186200
985.6713, 0.5607630
986.1534, 0.5591400
986.6356, 0.1304270
987.1177, 6.8076000E-02
987.5998, 5.1474001E-02
988.0819, 0.1083460
988.5640, 7.3495001E-02
989.0461, 6.6910997E-02
989.5283, 1.3235000E-02
990.0104, 0.4382350
990.4925, 0.6848620
990.9746, 0.6899850
991.4567, 0.6331010
991.9388, 0.5549940
992.4210, 0.4567630
992.9031, 0.3081740
993.3852, 0.1305000
993.8673, 6.9291003E-02
994.3494, 0.1438090
994.8315, 0.3014830
995.3137, 0.6988740
995.7958, 0.9932650
996.2779, 0.9903580
996.7600, 0.8530550
997.2421, 0.7570260
997.7242, 0.7038170
998.2064, 0.6062400
998.6885, 0.4021920
999.1706, 0.2260170
999.6527, 9.8050997E-02
1000.135, 2.0987000E-02
1000.617, 3.6173999E-02
1001.099, 9.3801998E-02
1001.581, 0.1480620
1002.063, 0.1813440
1002.545, 0.1228730
1003.028, 2.4995999E-02
1003.510, 0.2014280
1003.992, 0.2499110
1004.474, 0.9995950
1004.956, 0.8486670
1005.438, 0.1752480
1005.920, 0.1103680
1006.402, 8.2460999E-02
1006.884, 0.3764190
1007.367, 0.4688090
1007.849, 0.4419360
1008.331, 0.3458020
1008.813, 0.1959920
1009.295, 7.2908998E-02
1009.777, 0.1006370
1010.259, 0.1392090
1010.741, 0.1113670
1011.224, 0.2309630
1011.706, 0.3799170
1012.188, 0.4103560
1012.670, 0.4631670
1013.152, 0.4790350
1013.634, 0.1992040
1014.116, 1.1275000E-02
1014.598, 0.1871200
1015.080, 0.1087130
1015.563, 0.4235600
1016.045, 0.7797000
1016.527, 0.9676270
1017.009, 0.9356660
1017.491, 0.7368220
1017.973, 0.6485570
1018.455, 0.6990480
1018.937, 0.6985780
1019.419, 0.5455050
1019.902, 0.3780330
1020.384, 0.3930540
1020.866, 0.5481370
1021.348, 0.6760320
1021.830, 0.7723220
1022.312, 0.7866230
1022.794, 0.7014740
1023.276, 0.6170340
1023.759, 0.5731230
1024.241, 0.5813430
1024.723, 0.6872390
1025.205, 0.8731080
1025.687, 0.8437620
1026.169, 0.5677130
1026.651, 0.3844660
1027.133, 0.3487990
1027.615, 0.3832420
1028.098, 0.4502280
1028.580, 0.5434610
1029.062, 0.6771360
1029.544, 0.8574210
1030.026, 0.7523730
1030.508, 0.2074180
1030.990, 4.9662001E-02
1031.472, 0.2177750
1031.955, 0.5568350
1032.437, 0.7405600
1032.919, 0.7458670
1033.401, 0.4702330
1033.883, 0.1507960
1034.365, 2.0469001E-02
1034.847, 9.9160001E-03
1035.329, 0.3209390
1035.812, 0.4321350
1036.294, 0.4569120
1036.776, 0.4257750
1037.258, 0.3821410
1037.740, 0.4318150
1038.222, 0.6104410
1038.704, 0.6422130
1039.186, 0.3862760
1039.668, 0.2137380
1040.151, 0.2533240
1040.633, 0.3110260
1041.115, 0.1807100
1041.597, 1.3981000E-02
1042.079, 0.2000150
1042.561, 0.8538490
1043.043, 1.129144
1043.525, 0.6538080
1044.007, 0.2902960
1044.490, 0.1819440
1044.972, 0.2235210
1045.454, 0.4661270
1045.936, 0.7875240
1046.418, 0.9839430
1046.900, 1.038087
1047.382, 0.9648280
1047.864, 0.5306760
1048.347, 0.2859230
1048.829, 0.5839540
1049.311, 0.8763170
1049.793, 0.7374890
1050.275, 0.4160980
1050.757, 0.2866850
1051.239, 0.3969440
1051.721, 0.4989480
1052.203, 0.5415080
1052.686, 0.5692460
1053.168, 0.6222960
1053.650, 0.6360250
1054.132, 0.5344640
1054.614, 0.3779710
1055.096, 0.2691280
1055.578, 0.2208610
1056.060, 0.1637610
1056.542, 1.5630000E-03
1057.025, 6.5796003E-02
1057.507, 4.2052001E-02
1057.989, 0.2689920
1058.471, 0.7109850
1058.953, 1.180934
1059.435, 1.404259
1059.917, 1.349874
1060.399, 1.174830
1060.882, 0.6329870
1061.364, 0.3389720
1061.846, 0.8620550
1062.328, 1.393957
1062.810, 1.311842
1063.292, 0.8868830
1063.774, 0.5220870
1064.256, 0.3035950
1064.739, 0.1699660
1065.221, 7.8693002E-02
1065.703, 9.2139997E-02
1066.185, 0.3838300
1066.667, 0.6322820
1067.149, 0.5297910
1067.631, 0.2582290
1068.113, 7.5871997E-02
1068.595, 3.0869000E-02
1069.078, 7.2008997E-02
1069.560, 0.1708930
1070.042, 0.3181840
1070.524, 0.5983230
1071.006, 0.8507190
1071.488, 1.009822
1071.970, 1.030754
1072.452, 0.7783890
1072.934, 0.3542250
1073.417, 0.1175910
1073.899, 0.2053590
1074.381, 0.4185090
1074.863, 0.9131220
1075.345, 1.228776
1075.827, 0.8018870
1076.309, 0.1864710
1076.791, 0.1296070
1077.274, 0.5513090
1077.756, 0.8531740
1078.238, 0.8471300
1078.720, 0.7227790
1079.202, 0.3814860
1079.684, 0.1638730
1080.166, 0.4182260
1080.648, 0.8074430
1081.130, 0.9801010
1081.613, 0.9469390
1082.095, 0.8635910
1082.577, 0.7700370
1083.059, 0.6534280
1083.541, 0.4009280
1084.023, 0.2522210
1084.505, 0.5204610
1084.987, 0.8088790
1085.469, 0.6144560
1085.952, 0.1488380
1086.434, 7.7590002E-03
1086.916, 0.2831200
1087.398, 0.4918800
1087.880, 0.2650920
1088.362, 7.9595000E-02
1088.844, 0.1760850
1089.326, 0.4002510
1089.808, 0.7112730
1090.291, 1.001319
1090.773, 1.075632
1091.255, 0.9155650
1091.737, 0.7762740
1092.219, 0.8129380
1092.701, 0.8364520
1093.183, 0.6502820
1093.665, 0.5247120
1094.148, 0.8047320
1094.630, 1.188180
1095.112, 1.180744
1095.594, 0.7882300
1096.076, 0.4942860
1096.558, 0.4373440
1097.040, 0.4312580
1097.522, 0.4473430
1098.005, 0.4606440
1098.487, 0.4936340
1098.969, 0.4899960
1099.451, 0.3462050
1099.933, 0.1052340
1100.415, 4.7619998E-02
1100.897, 0.1316560
1101.379, 5.9354998E-02
1101.861, 0.3851180
1102.344, 0.7469760
1102.826, 0.7908440
1103.308, 0.7019470
1103.790, 0.6002850
1104.272, 0.5224700
1104.754, 0.5571940
1105.236, 0.7676530
1105.718, 0.8166210
1106.200, 0.6038380
1106.683, 0.2959160
1107.165, 7.0199999E-04
1107.647, 0.4961300
1108.129, 0.1831230
1108.611, 0.1727940
1109.093, 0.6133700
1109.575, 0.7019870
1110.057, 0.7000630
1110.540, 0.5439060
1111.022, 0.4261990
1111.504, 0.4007860
1111.986, 0.3900400
1112.468, 0.3489880
1112.950, 0.3046660
1113.432, 0.2770900
1113.914, 0.2694940
1114.396, 0.3386540
1114.879, 0.4920200
1115.361, 0.7167100
1115.843, 1.288464
1116.325, 1.513072
1116.807, 0.8340220
1117.289, 4.3067001E-02
1117.771, 9.4440997E-02
1118.253, 0.2692890
1118.735, 0.5644560
1119.218, 0.8412160
1119.700, 0.8671560
1120.182, 0.4861650
1120.664, 0.1884500
1121.146, 0.1339030
1121.628, 0.1053990
1122.110, 0.1123450
1122.592, 1.8211000E-02
1123.075, 0.1573870
1123.557, 0.4888810
1124.039, 0.7421010
1124.521, 0.4787970
1125.003, 0.2680130
1125.485, 0.2154090
1125.967, 0.1352440
1126.449, 0.1230210
1126.932, 3.9322998E-02
1127.414, 6.7705996E-02
1127.896, 0.5306020
1128.378, 0.9059330
1128.860, 1.047790
1129.342, 1.078016
1129.824, 0.9690840
1130.306, 0.7932310
1130.788, 0.5590680
1131.271, 0.3720200
1131.753, 0.3377920
1132.235, 0.4066380
1132.717, 0.4416790
1133.199, 0.4509500
1133.681, 0.6141340
1134.163, 0.9369610
1134.645, 0.9770770
1135.127, 0.6196770
1135.610, 0.3498240
1136.092, 0.4727970
1136.574, 0.7175220
1137.056, 0.6520240
1137.538, 0.3919680
1138.020, 0.3192380
1138.502, 0.4012620
1138.984, 0.5425200
1139.467, 0.7035100
1139.949, 0.7325180
1140.431, 0.5881550
1140.913, 0.4165740
1141.395, 0.3817260
1141.877, 0.4324030
1142.359, 0.5373240
1142.841, 0.6325430
1143.323, 0.4735390
1143.806, 0.1987180
1144.288, 0.3381030
1144.770, 0.9127650
1145.252, 1.246006
1145.734, 0.8823640
1146.216, 0.4178400
1146.698, 0.4677690
1147.180, 0.7062630
1147.662, 0.7463420
1148.145, 0.6823610
1148.627, 0.6474750
1149.109, 0.6695430
1149.591, 0.7718420
1150.073, 0.9650470
1150.555, 1.094560
1151.037, 1.089988
1151.519, 0.9641010
1152.002, 0.6177710
1152.484, 0.2517410
1152.966, 1.6239000E-02
1153.448, 0.1288680
1153.930, 8.9313000E-02
1154.412, 0.5968010
1154.894, 0.8727060
1155.376, 0.6104780
1155.859, 0.3957280
1156.341, 0.5203340
1156.823, 0.5923040
1157.305, 0.1536030
1157.787, 1.6880000E-03
1158.269, 0.2034710
1158.751, 1.178107
1159.233, 1.743395
1159.715, 1.761507
1160.198, 1.617545
1160.680, 1.137023
1161.162, 0.7870800
1161.644, 0.6892880
1162.126, 0.6928100
1162.608, 0.8570030
1163.090, 0.9556850
1163.572, 0.5768620
1164.054, 2.9142000E-02
1164.537, 0.2051090
1165.019, 7.7689998E-02
1165.501, 0.4745620
1165.983, 0.7513780
1166.465, 0.8832650
1166.947, 0.7744770
1167.429, 0.6784810
1167.911, 0.8481750
1168.394, 1.141382
1168.876, 1.188402
1169.358, 0.9881580
1169.840, 0.7492300
1170.322, 0.4689460
1170.804, 0.4380910
1171.286, 0.7188840
1171.768, 0.9849680
1172.250, 1.074182
1172.733, 1.088632
1173.215, 1.158033
1173.697, 1.230502
1174.179, 1.196507
1174.661, 1.078929
1175.143, 0.9070320
1175.625, 0.7150180
1176.107, 0.7327590
1176.589, 0.9787920
1177.072, 1.155075
1177.554, 1.064947
1178.036, 0.8583770
1178.518, 0.6232380
1179.000, 0.4383700
1179.482, 0.4547230
1179.964, 0.5615930
1180.446, 0.6063170
1180.929, 0.5823560
1181.411, 0.5259860
1181.893, 0.4360520
1182.375, 0.3705010
1182.857, 0.3420990
1183.339, 0.3736530
1183.821, 0.4786760
1184.303, 0.6388620
1184.786, 1.046385
1185.268, 1.399523
1185.750, 1.102773
1186.232, 0.2854380
1186.714, 0.1226850
1187.196, 0.2025190
1187.678, 0.4898030
1188.160, 0.5476430
1188.642, 0.6339130
1189.125, 0.9837570
1189.607, 1.218025
1190.089, 1.027660
1190.571, 0.5904760
1191.053, 0.1348750
1191.535, 7.5930998E-02
1192.017, 0.1086680
1192.499, 0.2532760
1192.981, 0.6652730
1193.464, 0.7771530
1193.946, 0.7741120
1194.428, 0.6956660
1194.910, 0.6112200
1195.392, 0.5870210
1195.874, 0.5863640
1196.356, 0.5289980
1196.838, 0.4161870
1197.321, 0.1880610
1197.803, 0.1251880
1198.285, 8.5859997E-03
1198.767, 0.5747830
1199.249, 0.9304360
1199.731, 0.7503850
1200.213, 0.4384670
1200.695, 0.3902090
1201.177, 0.4651970
1201.660, 0.4334680
1202.142, 0.3524860
1202.624, 0.3672770
1203.106, 0.4167520
1203.588, 0.2795060
1204.070, 1.3510000E-02
1204.552, 9.3249999E-02
1205.034, 1.2641000E-02
1205.516, 0.2756610
1205.999, 0.6444220
1206.481, 0.8861480
1206.963, 0.7518340
1207.445, 0.4834140
1207.927, 0.2356580
1208.409, 6.3511997E-02
1208.891, 5.1711999E-02
1209.373, 0.1887100
1209.856, 0.3011140
1210.338, 0.4084730
1210.820, 0.3653270
1211.302, 0.1008440
1211.784, 0.1221740
1212.266, 9.9532999E-02
1212.748, 0.1747240
1213.230, 0.3514980
1213.713, 0.4567170
1214.195, 0.6953700
1214.677, 1.070990
1215.159, 1.092307
1215.641, 0.6269250
1216.123, 0.3578800
1216.605, 0.3585020
1217.087, 0.3845180
1217.569, 0.3489090
1218.052, 0.3244150
1218.534, 0.3781040
1219.016, 0.4097210
1219.498, 8.6468004E-02
1219.980, 0.1852160
1220.462, 0.1318970
1220.944, 0.1100920
1221.426, 0.4651310
1221.908, 0.5894360
1222.391, 0.5787740
1222.873, 0.5167490
1223.355, 0.4610470
1223.837, 0.4666290
1224.319, 0.5380820
1224.801, 0.8075750
1225.283, 1.030534
1225.765, 0.7580340
1226.248, 0.3595150
1226.730, 0.5531430
1227.212, 1.139447
1227.694, 1.212925
1228.176, 0.4915410
1228.658, 4.4585999E-02
1229.140, 7.4144997E-02
1229.622, 0.2012160
1230.104, 2.9223001E-02
1230.587, 4.9704000E-02
1231.069, 0.4131720
1231.551, 0.8959640
1232.033, 0.6450690
1232.515, 4.8898999E-02
1232.997, 1.6844001E-02
1233.479, 0.9807930
1233.961, 1.437047
1234.443, 1.233457
1234.926, 0.9240850
1235.408, 0.5591000
1235.890, 0.3513770
1236.372, 0.4038200
1236.854, 0.5686570
1237.336, 0.6283720
1237.818, 0.6331800
1238.300, 0.7150550
1238.783, 0.8311370
1239.265, 1.013350
1239.747, 1.225473
1240.229, 1.147602
1240.711, 0.7916790
1241.193, 0.4553440
1241.675, 0.2700790
1242.157, 0.2103820
1242.640, 0.3930280
1243.122, 0.6205770
1243.604, 0.7816890
1244.086, 0.8818580
1244.568, 0.9400540
1245.050, 0.9270470
1245.532, 0.7127330
1246.014, 0.4216500
1246.496, 0.3953000
1246.979, 0.7921300
1247.461, 1.014892
1247.943, 0.8558810
1248.425, 0.6982970
1248.907, 0.4848180
1249.389, 0.4281850
1249.871, 0.6766410
1250.353, 0.9641150
1250.835, 1.023277
1251.318, 0.9024440
1251.800, 0.7483670
1252.282, 0.5458870
1252.764, 0.5864760
1253.246, 0.7983230
1253.728, 0.9286200
1254.210, 0.8332900
1254.692, 0.6952560
1255.175, 0.5993780
1255.657, 0.5188030
1256.139, 0.4080190
1256.621, 0.3527640
1257.103, 0.5867230
1257.585, 0.8743980
1258.067, 0.8615070
1258.549, 0.6383440
1259.031, 0.3249810
1259.514, 2.6334001E-02
1259.996, 0.1769900
1260.478, 0.8681820
1260.960, 1.256185
1261.442, 0.6227280
1261.924, 0.1458210
1262.406, 0.4360150
1262.888, 0.7338390
1263.370, 0.5821300
1263.853, 0.2836690
1264.335, 5.5663999E-02
1264.817, 3.6125001E-02
1265.299, 0.2241880
1265.781, 0.8796090
1266.263, 1.134545
1266.745, 0.8923370
1267.227, 0.7662540
1267.710, 0.8484480
1268.192, 0.7546790
1268.674, 0.3332950
1269.156, 4.0971000E-02
1269.638, 0.2672970
1270.120, 0.6528750
1270.602, 0.5545030
1271.084, 0.2268810
1271.567, 0.2184700
1272.049, 0.4349850
1272.531, 0.7700170
1273.013, 1.111700
1273.495, 1.257481
1273.977, 1.161461
1274.459, 0.8502880
1274.941, 0.1962870
1275.423, 4.3649999E-03
1275.906, 0.2982660
1276.388, 0.8069170
1276.870, 1.010236
1277.352, 1.061119
1277.834, 1.098990
1278.316, 1.053462
1278.798, 0.7515240
1279.280, 0.2548160
1279.762, 1.9765999E-02
1280.245, 1.3497000E-02
1280.727, 5.5842999E-02
1281.209, 0.4786130
1281.691, 0.7040330
1282.173, 0.6275820
1282.655, 0.4715200
1283.137, 0.2516350
1283.619, 0.1477510
1284.102, 8.1836998E-02
1284.584, 4.0437002E-02
1285.066, 7.3340000E-03
1285.548, 0.0000000E+00
##END=



