##NAMES=Magnesiohulsite
##RRUFFID=R070223
##IDEAL CHEMISTRY=Mg_2_Fe^3+^O_2_(BO_3_)
##LOCALITY=Iten'yurginskoye Deposit, Chukotka (Tchukotka) Okrug, Chukot Peninsula, Far-Eastern Region, Russia
##OWNER=RRUFF
##SOURCE=Michael Scott
##DESCRIPTION=Radiating black fibrous crystals
##STATUS=The identification of this mineral is not yet confirmed.
##URL=rruff.info/R070223
169.7132, 0.0000000E+00
170.1953, 1.471924
170.6774, 4.498413
171.1595, 6.447754
171.6417, 3.869751
172.1238, 0.4710690
172.6059, 3.3569001E-02
173.0880, 8.258545
173.5701, 14.72717
174.0522, 13.98511
174.5344, 9.306763
175.0165, 6.196899
175.4986, 5.173584
175.9807, 6.126953
176.4628, 5.857056
176.9449, 3.273438
177.4271, 1.475464
177.9092, 2.557861
178.3913, 4.813232
178.8734, 5.337280
179.3555, 1.371826
179.8376, 3.990356
180.3198, 0.2210690
180.8019, 20.86133
181.2840, 36.40991
181.7661, 35.78760
182.2482, 27.48877
182.7303, 21.59583
183.2125, 22.81323
183.6946, 29.80334
184.1767, 39.38782
184.6588, 54.00989
185.1409, 66.78442
185.6230, 77.79797
186.1051, 85.64429
186.5873, 87.37231
187.0694, 80.48499
187.5515, 69.87427
188.0336, 69.05615
188.5157, 83.99133
188.9978, 99.02673
189.4800, 115.1682
189.9621, 127.8464
190.4442, 130.4900
190.9263, 119.3383
191.4084, 101.4884
191.8905, 94.84644
192.3727, 107.3127
192.8548, 117.2882
193.3369, 119.5004
193.8190, 118.6591
194.3011, 119.1858
194.7832, 122.8372
195.2654, 128.4320
195.7475, 133.9773
196.2296, 142.0996
196.7117, 144.8108
197.1938, 135.9268
197.6759, 124.9360
198.1581, 120.2870
198.6402, 124.7483
199.1223, 134.6511
199.6044, 144.0331
200.0865, 155.4846
200.5686, 160.6334
201.0508, 153.2509
201.5329, 143.9148
202.0150, 142.2324
202.4971, 150.3759
202.9792, 161.2861
203.4613, 163.2310
203.9435, 151.9193
204.4256, 140.8960
204.9077, 127.6633
205.3898, 116.9534
205.8719, 114.3911
206.3540, 120.0065
206.8362, 126.6071
207.3183, 122.5564
207.8004, 99.43445
208.2825, 87.56824
208.7646, 95.04224
209.2467, 106.1692
209.7289, 112.2595
210.2110, 112.2217
210.6931, 110.2875
211.1752, 111.8188
211.6573, 118.7643
212.1395, 121.8673
212.6216, 118.5869
213.1037, 114.4468
213.5858, 109.6855
214.0679, 105.5504
214.5500, 103.0625
215.0322, 103.3666
215.5143, 106.7452
215.9964, 111.0854
216.4785, 118.8965
216.9606, 125.3600
217.4427, 128.5391
217.9249, 128.7136
218.4070, 127.2788
218.8891, 125.1824
219.3712, 122.4395
219.8533, 118.8954
220.3354, 107.2812
220.8176, 102.1394
221.2997, 114.6443
221.7818, 136.7722
222.2639, 152.3208
222.7460, 149.0216
223.2281, 129.5221
223.7103, 114.5842
224.1924, 106.5889
224.6745, 102.8590
225.1566, 105.1018
225.6387, 111.3788
226.1208, 118.0674
226.6030, 124.0177
227.0851, 128.3373
227.5672, 125.1495
228.0493, 105.9860
228.5314, 90.97571
229.0135, 85.06165
229.4957, 84.32471
229.9778, 85.41541
230.4599, 87.16211
230.9420, 87.46680
231.4241, 79.79639
231.9062, 53.84814
232.3884, 38.19958
232.8705, 41.28540
233.3526, 52.35779
233.8347, 61.99963
234.3168, 67.69067
234.7989, 70.88367
235.2811, 74.32861
235.7632, 79.58154
236.2453, 81.47583
236.7274, 74.42310
237.2095, 67.65869
237.6916, 68.83264
238.1738, 78.88477
238.6559, 90.59485
239.1380, 95.58813
239.6201, 93.18652
240.1022, 86.27661
240.5843, 68.04736
241.0665, 50.98230
241.5486, 40.64856
242.0307, 37.39417
242.5128, 38.86755
242.9949, 45.03015
243.4770, 56.96033
243.9592, 61.92981
244.4413, 50.70508
244.9234, 40.57715
245.4055, 38.50146
245.8876, 42.63269
246.3697, 47.34436
246.8519, 48.35425
247.3340, 46.40161
247.8161, 47.92310
248.2982, 57.76550
248.7803, 64.48376
249.2624, 61.56970
249.7446, 53.65173
250.2267, 48.52747
250.7088, 50.92322
251.1909, 57.91406
251.6730, 61.54102
252.1551, 60.77893
252.6373, 58.56348
253.1194, 54.91833
253.6015, 50.87927
254.0836, 48.45447
254.5657, 49.11890
255.0478, 48.75073
255.5300, 37.38403
256.0121, 9.322998
256.4942, 7.918579
256.9763, 5.287231
257.4584, 25.74927
257.9406, 36.56030
258.4227, 33.98914
258.9048, 27.71143
259.3869, 28.76428
259.8690, 37.22119
260.3511, 41.67163
260.8333, 37.83276
261.3154, 31.42456
261.7975, 26.00305
262.2796, 21.81714
262.7617, 18.76978
263.2438, 17.25818
263.7260, 17.00208
264.2081, 16.51843
264.6902, 16.01843
265.1723, 14.63770
265.6544, 10.86743
266.1365, 5.560913
266.6187, 1.682129
267.1008, 0.6923830
267.5829, 2.044678
268.0650, 5.509033
268.5471, 12.25867
269.0292, 17.24927
269.5114, 14.01196
269.9935, 6.820557
270.4756, 3.145508
270.9577, 6.976807
271.4398, 13.46204
271.9219, 17.18750
272.4041, 18.06519
272.8862, 18.76318
273.3683, 21.60889
273.8504, 24.46057
274.3325, 23.28137
274.8146, 16.05188
275.2968, 8.093262
275.7789, 0.8906250
276.2610, 4.661743
276.7431, 3.814209
277.2252, 7.732544
277.7073, 22.94141
278.1895, 30.07397
278.6716, 28.42346
279.1537, 24.66443
279.6358, 20.54846
280.1179, 15.99915
280.6000, 9.689209
281.0822, 0.6657710
281.5643, 6.139282
282.0464, 3.277954
282.5285, 10.19836
283.0106, 20.95166
283.4927, 27.83191
283.9749, 31.14124
284.4570, 30.18750
284.9391, 25.24341
285.4212, 18.77893
285.9033, 11.76477
286.3854, 4.566040
286.8676, 3.467285
287.3497, 14.81299
287.8318, 25.55371
288.3139, 29.99854
288.7960, 28.67468
289.2781, 22.89404
289.7603, 12.41528
290.2424, 0.4406740
290.7245, 5.451660
291.2066, 7.228760
291.6887, 15.03674
292.1708, 10.31445
292.6530, 0.6688230
293.1351, 4.605713
293.6172, 3.594482
294.0993, 1.676758
294.5814, 7.492310
295.0635, 15.89978
295.5457, 20.68054
296.0278, 19.18042
296.5099, 16.26514
296.9920, 15.22766
297.4741, 16.41431
297.9562, 18.38623
298.4384, 19.84399
298.9205, 20.94885
299.4026, 20.29724
299.8847, 18.12305
300.3668, 14.59583
300.8489, 6.776733
301.3311, 3.777832
301.8132, 11.47461
302.2953, 12.16089
302.7774, 6.692993
303.2595, 6.7993000E-02
303.7416, 8.160767
304.2238, 16.18579
304.7059, 25.97644
305.1880, 34.44336
305.6701, 37.77112
306.1522, 34.62817
306.6343, 28.56348
307.1165, 22.44202
307.5986, 14.42883
308.0807, 12.20154
308.5628, 24.48315
309.0449, 38.30505
309.5270, 46.24719
310.0091, 47.56592
310.4912, 45.22131
310.9734, 40.56177
311.4555, 34.06665
311.9376, 28.02051
312.4197, 22.56958
312.9018, 18.92224
313.3839, 17.99719
313.8661, 19.22034
314.3482, 20.88013
314.8303, 25.44617
315.3124, 29.45801
315.7945, 25.42834
316.2766, 11.50342
316.7588, 0.4759520
317.2409, 0.7979740
317.7230, 8.134644
318.2051, 15.54932
318.6872, 22.77490
319.1693, 28.99121
319.6515, 34.06433
320.1336, 37.71985
320.6157, 38.43628
321.0978, 34.88135
321.5799, 29.41504
322.0620, 25.63745
322.5442, 23.60559
323.0263, 22.20740
323.5084, 20.79883
323.9905, 19.98608
324.4726, 21.27307
324.9547, 24.90698
325.4369, 27.94666
325.9190, 27.17041
326.4011, 22.06799
326.8832, 18.98523
327.3653, 19.91516
327.8474, 20.94263
328.3296, 19.29443
328.8117, 15.81433
329.2938, 12.85657
329.7759, 11.58911
330.2580, 12.27234
330.7401, 16.16052
331.2223, 25.72522
331.7044, 35.49487
332.1865, 50.02625
332.6686, 62.19141
333.1507, 61.21753
333.6328, 44.76538
334.1150, 24.14575
334.5971, 17.87427
335.0792, 34.00793
335.5613, 43.50061
336.0434, 43.52222
336.5255, 40.27686
337.0077, 34.11633
337.4898, 27.04578
337.9719, 23.70862
338.4540, 29.36426
338.9361, 42.21265
339.4182, 45.76147
339.9004, 32.36755
340.3825, 22.47205
340.8646, 24.86682
341.3467, 32.30981
341.8288, 34.73230
342.3109, 27.53296
342.7931, 18.08289
343.2752, 19.81738
343.7573, 35.33289
344.2394, 43.01025
344.7215, 28.82178
345.2036, 12.19641
345.6858, 10.24243
346.1679, 23.40222
346.6500, 36.10950
347.1321, 36.96008
347.6142, 29.89514
348.0963, 26.56775
348.5785, 29.80017
349.0606, 31.79956
349.5427, 20.51282
350.0248, 1.419434
350.5069, 8.530640
350.9890, 1.337402
351.4712, 15.35803
351.9533, 21.03735
352.4354, 19.27258
352.9175, 15.71204
353.3996, 12.19629
353.8817, 9.377319
354.3639, 9.252686
354.8460, 12.29871
355.3281, 16.25244
355.8102, 24.84705
356.2923, 32.19141
356.7744, 28.46191
357.2566, 12.32727
357.7387, 4.827393
358.2208, 9.449463
358.7029, 1.965942
359.1850, 5.378052
359.6671, 9.105103
360.1493, 20.33374
360.6314, 15.55493
361.1135, 0.1055910
361.5956, 14.92981
362.0777, 22.19934
362.5598, 22.45544
363.0420, 17.24719
363.5241, 0.7515870
364.0062, 12.21265
364.4883, 11.35388
364.9704, 6.033569
365.4525, 2.761841
365.9347, 2.901123
366.4168, 3.518799
366.8989, 0.6215820
367.3810, 6.259521
367.8631, 8.605469
368.3452, 0.5577390
368.8274, 6.112793
369.3095, 3.680176
369.7916, 22.73254
370.2737, 36.12390
370.7558, 34.55432
371.2379, 25.24219
371.7201, 19.74744
372.2022, 18.31421
372.6843, 18.52185
373.1664, 20.03149
373.6485, 22.28406
374.1306, 24.34644
374.6128, 26.04797
375.0949, 27.36462
375.5770, 27.84155
376.0591, 27.95581
376.5412, 29.60645
377.0233, 33.46729
377.5055, 35.95642
377.9876, 31.84290
378.4697, 20.16699
378.9518, 16.03613
379.4339, 25.75500
379.9160, 37.56616
380.3982, 46.17493
380.8803, 51.17615
381.3624, 51.52417
381.8445, 45.95752
382.3266, 37.86072
382.8087, 37.63062
383.2909, 59.68713
383.7730, 70.47754
384.2551, 61.02466
384.7372, 45.57166
385.2193, 34.46179
385.7014, 29.97925
386.1836, 29.91492
386.6657, 33.05676
387.1478, 39.76355
387.6299, 42.16382
388.1120, 32.60095
388.5941, 27.90112
389.0763, 39.32422
389.5584, 57.58533
390.0405, 66.64661
390.5226, 57.58789
391.0047, 42.92004
391.4868, 44.57361
391.9690, 64.70911
392.4511, 80.38977
392.9332, 83.54175
393.4153, 81.56763
393.8974, 82.23657
394.3795, 85.60205
394.8617, 86.34302
395.3438, 78.82593
395.8259, 68.06226
396.3080, 60.97937
396.7901, 57.99829
397.2722, 62.66980
397.7544, 81.33484
398.2365, 110.0092
398.7186, 127.6997
399.2007, 128.8020
399.6828, 125.3901
400.1649, 120.0729
400.6471, 113.7562
401.1292, 107.3705
401.6113, 101.1835
402.0934, 96.44263
402.5755, 94.98267
403.0576, 97.45410
403.5398, 101.4875
404.0219, 112.6337
404.5040, 120.1527
404.9861, 113.7577
405.4682, 98.98865
405.9503, 90.91077
406.4325, 100.3801
406.9146, 120.5477
407.3967, 125.8564
407.8788, 106.9984
408.3609, 91.14148
408.8430, 86.33325
409.3252, 86.08801
409.8073, 85.69629
410.2894, 84.42310
410.7715, 84.01514
411.2536, 87.06274
411.7357, 92.58472
412.2179, 95.04980
412.7000, 92.84375
413.1821, 90.65332
413.6642, 92.27795
414.1463, 96.21118
414.6284, 99.61230
415.1106, 102.2051
415.5927, 103.2850
416.0748, 103.9286
416.5569, 104.3533
417.0390, 100.5618
417.5211, 89.75464
418.0033, 76.76746
418.4854, 70.21289
418.9675, 73.45190
419.4496, 73.82751
419.9317, 68.04956
420.4138, 61.40674
420.8960, 56.59338
421.3781, 53.83179
421.8602, 52.94727
422.3423, 55.24475
422.8244, 59.89392
423.3065, 62.00378
423.7887, 60.57312
424.2708, 57.37939
424.7529, 48.08337
425.2350, 40.57422
425.7171, 44.50879
426.1992, 59.35742
426.6814, 71.91809
427.1635, 67.17212
427.6456, 46.74841
428.1277, 36.27832
428.6098, 39.43127
429.0919, 45.64417
429.5741, 50.18921
430.0562, 54.03711
430.5383, 59.21326
431.0204, 68.04211
431.5025, 74.27893
431.9846, 71.82410
432.4668, 62.32031
432.9489, 50.14062
433.4310, 34.86267
433.9131, 22.49890
434.3952, 21.35828
434.8773, 32.72668
435.3595, 42.89514
435.8416, 50.71838
436.3237, 57.53699
436.8058, 66.97571
437.2879, 76.16223
437.7701, 77.02808
438.2522, 64.94409
438.7343, 45.25818
439.2164, 31.54663
439.6985, 26.57605
440.1806, 23.05383
440.6628, 19.01794
441.1449, 17.55127
441.6270, 21.66467
442.1091, 30.48950
442.5912, 40.52380
443.0733, 49.95825
443.5555, 58.19128
444.0376, 63.05261
444.5197, 64.72046
445.0018, 62.42920
445.4839, 46.81067
445.9660, 31.85291
446.4482, 35.11279
446.9303, 61.37524
447.4124, 84.63318
447.8945, 87.24939
448.3766, 76.01819
448.8587, 61.84351
449.3409, 45.62646
449.8230, 35.34155
450.3051, 39.19238
450.7872, 55.81897
451.2693, 67.25854
451.7514, 72.62634
452.2336, 74.85388
452.7157, 72.74976
453.1978, 68.04504
453.6799, 62.59155
454.1620, 57.45300
454.6441, 54.48389
455.1263, 56.11707
455.6084, 63.77637
456.0905, 68.02222
456.5726, 64.52979
457.0547, 61.92664
457.5368, 62.95654
458.0190, 67.13879
458.5011, 74.06055
458.9832, 84.29651
459.4653, 93.60388
459.9474, 94.37292
460.4295, 86.43225
460.9117, 81.60364
461.3938, 83.59741
461.8759, 87.25464
462.3580, 88.91101
462.8401, 88.78406
463.3222, 87.74158
463.8044, 84.78931
464.2865, 81.98389
464.7686, 82.78357
465.2507, 85.74500
465.7328, 84.35327
466.2149, 75.05957
466.6971, 62.52075
467.1792, 56.03943
467.6613, 58.53564
468.1434, 60.88013
468.6255, 61.10730
469.1076, 62.87732
469.5898, 71.91284
470.0719, 84.74109
470.5540, 91.72998
471.0361, 86.12537
471.5182, 71.96375
472.0003, 60.66345
472.4825, 51.87854
472.9646, 46.15015
473.4467, 44.95081
473.9288, 45.93445
474.4109, 49.28967
474.8930, 54.31555
475.3752, 56.72021
475.8573, 48.82776
476.3394, 38.83337
476.8215, 44.16821
477.3036, 65.39233
477.7857, 81.91382
478.2679, 82.37756
478.7500, 72.49475
479.2321, 65.68640
479.7142, 62.91711
480.1963, 60.32617
480.6784, 57.00269
481.1606, 53.66626
481.6427, 50.48560
482.1248, 47.79285
482.6069, 47.07678
483.0890, 50.06482
483.5711, 55.27649
484.0533, 54.06445
484.5354, 40.47083
485.0175, 30.19006
485.4996, 24.30884
485.9817, 22.93396
486.4638, 28.62781
486.9460, 40.39514
487.4281, 50.75415
487.9102, 51.78210
488.3923, 46.90625
488.8744, 48.36792
489.3565, 58.13220
489.8387, 62.72498
490.3208, 50.27625
490.8029, 31.02124
491.2850, 27.36670
491.7671, 46.08191
492.2492, 60.53442
492.7314, 57.57874
493.2135, 47.96265
493.6956, 44.20093
494.1777, 47.09802
494.6598, 49.67749
495.1419, 46.39465
495.6241, 38.40222
496.1062, 33.11267
496.5883, 32.57251
497.0704, 32.03894
497.5525, 30.08215
498.0346, 28.58374
498.5168, 30.86511
498.9989, 36.20178
499.4810, 38.55530
499.9631, 30.16235
500.4452, 14.89600
500.9273, 8.317017
501.4095, 12.20691
501.8916, 17.34924
502.3737, 20.34937
502.8558, 21.95471
503.3379, 24.19189
503.8200, 28.21155
504.3022, 28.03308
504.7843, 16.10315
505.2664, 1.830566
505.7485, 2.025269
506.2306, 4.131470
506.7127, 9.616577
507.1949, 7.080444
507.6770, 1.509033
508.1591, 7.473877
508.6412, 7.874390
509.1233, 9.958740
509.6054, 19.06482
510.0876, 26.14441
510.5697, 22.75464
511.0518, 10.11719
511.5339, 3.420654
512.0161, 13.44800
512.4982, 19.06702
512.9803, 15.08472
513.4624, 1.017944
513.9445, 10.82874
514.4266, 4.133545
514.9088, 8.795532
515.3909, 14.21228
515.8730, 11.57874
516.3551, 9.017700
516.8372, 10.50049
517.3193, 12.01697
517.8015, 7.802246
518.2836, 0.3359380
518.7657, 4.098877
519.2478, 1.372070
519.7299, 11.83264
520.2120, 16.86694
520.6942, 11.42590
521.1763, 10.24170
521.6584, 17.08508
522.1405, 24.13928
522.6226, 28.77429
523.1047, 30.11108
523.5869, 25.87927
524.0690, 12.31555
524.5511, 1.684570
525.0332, 2.417969
525.5153, 24.45618
525.9974, 36.95520
526.4796, 31.02881
526.9617, 17.47119
527.4438, 5.288452
527.9259, 5.459595
528.4080, 11.88562
528.8901, 14.31763
529.3723, 11.58105
529.8544, 1.137207
530.3365, 18.75732
530.8186, 32.51392
531.3007, 39.34546
531.7828, 39.39258
532.2650, 31.49939
532.7471, 13.35791
533.2292, 1.507202
533.7113, 5.6030001E-02
534.1934, 0.3801270
534.6755, 0.5123290
535.1577, 0.6335450
535.6398, 4.544312
536.1219, 17.09375
536.6040, 27.67090
537.0861, 24.05151
537.5682, 11.33594
538.0504, 6.642822
538.5325, 12.60938
539.0146, 22.08142
539.4967, 32.14209
539.9788, 41.37952
540.4609, 42.91541
540.9431, 29.47070
541.4252, 19.20361
541.9073, 17.83337
542.3894, 19.93054
542.8715, 21.48828
543.3536, 21.37158
543.8358, 18.29565
544.3179, 9.881226
544.8000, 0.9975590
545.2821, 0.5230710
545.7642, 15.87549
546.2463, 31.11365
546.7285, 41.22742
547.2106, 48.20959
547.6927, 54.24475
548.1748, 59.08752
548.6569, 59.49768
549.1390, 48.77966
549.6212, 36.61816
550.1033, 35.76221
550.5854, 43.62793
551.0675, 47.91223
551.5496, 43.35510
552.0317, 34.85852
552.5139, 30.20154
552.9960, 30.19409
553.4781, 31.40820
553.9602, 37.08496
554.4423, 40.35938
554.9244, 36.02356
555.4065, 28.22583
555.8886, 23.65710
556.3707, 24.79663
556.8528, 28.26660
557.3350, 29.19543
557.8171, 28.30859
558.2992, 32.54736
558.7813, 44.40381
559.2634, 55.50659
559.7455, 60.20593
560.2277, 59.81982
560.7098, 59.13281
561.1919, 57.15723
561.6740, 56.68091
562.1561, 60.53711
562.6382, 65.13293
563.1204, 66.38708
563.6025, 64.11462
564.0846, 61.12781
564.5667, 59.11340
565.0488, 57.87866
565.5309, 35.45007
566.0131, 60.41980
566.4952, 74.02161
566.9773, 76.78052
567.4594, 36.16638
567.9415, 50.59656
568.4236, 43.00525
568.9058, 35.15076
569.3879, 58.71252
569.8700, 25.30225
570.3521, 48.39282
570.8342, 48.94141
571.3163, 59.74438
571.7985, 47.74731
572.2806, 42.97693
572.7627, 60.77185
573.2448, 66.19226
573.7269, 52.16443
574.2090, 63.71777
574.6912, 29.57825
575.1733, 35.54297
575.6554, 58.81494
576.1375, 45.89172
576.6196, 57.67285
577.1017, 60.19348
577.5839, 19.68787
578.0660, 54.02136
578.5481, 55.99475
579.0302, 24.74170
579.5123, 56.52100
579.9944, 29.85620
580.4766, 24.05774
580.9587, 33.96252
581.4408, 27.50293
581.9229, 46.85303
582.4050, 41.25024
582.8871, 33.52673
583.3693, 35.49951
583.8514, 10.01135
584.3335, 35.48157
584.8156, 26.14819
585.2977, 34.12036
585.7798, 45.75598
586.2620, 27.05896
586.7441, 40.03491
587.2262, 3.852783
587.7083, 9.476929
588.1904, 10.66296
588.6725, 38.21924
589.1547, 2.846924
589.6368, 7.342529
590.1189, 28.81763
590.6010, 26.54590
591.0831, 34.20947
591.5652, 12.45508
592.0474, 18.33508
592.5295, 16.57678
593.0116, 41.12097
593.4937, 21.93811
593.9758, 27.81042
594.4579, 42.55334
594.9401, 51.06384
595.4222, 49.94580
595.9043, 44.04382
596.3864, 29.28809
596.8685, 11.74133
597.3506, 7.185791
597.8328, 28.02466
598.3149, 50.76807
598.7970, 52.98511
599.2791, 40.67053
599.7612, 27.85376
600.2433, 17.17371
600.7255, 9.773682
601.2076, 6.709106
601.6897, 7.758301
602.1718, 11.10608
602.6539, 15.64856
603.1360, 24.25671
603.6182, 45.58618
604.1003, 64.33752
604.5824, 66.69397
605.0645, 54.97375
605.5466, 42.61560
606.0287, 36.58765
606.5109, 35.03760
606.9930, 37.04919
607.4751, 41.84741
607.9572, 42.21021
608.4393, 35.05835
608.9214, 28.22253
609.4036, 30.48425
609.8857, 41.89575
610.3678, 48.41980
610.8499, 49.88245
611.3320, 47.21057
611.8141, 14.81934
612.2963, 40.60339
612.7784, 55.03601
613.2605, 58.72913
613.7426, 19.50464
614.2247, 35.70459
614.7068, 29.69604
615.1890, 22.77869
615.6711, 46.78687
616.1532, 13.81628
616.6353, 37.33801
617.1174, 38.31201
617.5995, 49.60925
618.0817, 38.92957
618.5638, 35.16907
619.0459, 53.38196
619.5280, 59.21997
620.0101, 45.60718
620.4922, 57.57361
620.9744, 23.84534
621.4565, 30.21863
621.9386, 53.89600
622.4207, 41.41821
622.9028, 53.80334
623.3849, 56.72302
623.8671, 16.61511
624.3492, 51.47302
624.8313, 54.12366
625.3134, 23.44250
625.7955, 55.62549
626.2776, 29.36719
626.7598, 23.97607
627.2419, 35.30884
627.7240, 30.91077
628.2061, 51.69104
628.6882, 46.91907
629.1703, 39.59302
629.6525, 41.96362
630.1346, 16.86975
630.6167, 42.73376
631.0988, 33.81335
631.5809, 42.25916
632.0630, 54.70349
632.5452, 37.24451
633.0273, 51.68445
633.5094, 16.79626
633.9915, 44.07556
634.4736, 66.93274
634.9557, 80.31433
635.4379, 70.56079
635.9200, 58.81152
636.4021, 56.82617
636.8842, 60.73364
637.3663, 65.33875
637.8484, 68.69470
638.3306, 68.55640
638.8127, 61.43091
639.2948, 49.07886
639.7769, 42.52905
640.2590, 42.61023
640.7411, 46.37402
641.2233, 57.24182
641.7054, 66.98730
642.1875, 65.08228
642.6696, 52.73376
643.1517, 45.02661
643.6339, 50.43909
644.1160, 55.53308
644.5981, 51.64954
645.0802, 43.12830
645.5623, 36.12268
646.0444, 32.35571
646.5266, 31.00708
647.0087, 31.40247
647.4908, 33.26917
647.9729, 35.47803
648.4550, 38.09485
648.9371, 40.65894
649.4193, 42.73328
649.9014, 45.17371
650.3835, 48.71912
650.8656, 53.30872
651.3477, 58.75208
651.8298, 70.15247
652.3120, 76.67920
652.7941, 70.50061
653.2762, 57.60876
653.7583, 45.20203
654.2404, 35.34180
654.7225, 28.15918
655.2047, 24.06189
655.6868, 22.47473
656.1689, 20.59180
656.6510, 17.54077
657.1331, 21.35681
657.6152, 38.03210
658.0974, 54.92804
658.5795, 58.99890
659.0616, 53.04285
659.5437, 49.69019
660.0258, 49.69281
660.5079, 53.08386
660.9901, 64.04309
661.4722, 75.78168
661.9543, 80.96643
662.4364, 79.45898
662.9185, 75.23584
663.4006, 70.49896
663.8828, 66.16699
664.3649, 64.18481
664.8470, 64.55957
665.3291, 66.91425
665.8112, 73.39490
666.2933, 76.33282
666.7755, 67.73169
667.2576, 50.79626
667.7397, 39.55640
668.2218, 33.88507
668.7039, 34.02429
669.1860, 48.76294
669.6682, 62.16595
670.1503, 58.24152
670.6324, 41.91766
671.1145, 29.72137
671.5966, 30.08490
672.0787, 35.55072
672.5609, 36.41107
673.0430, 33.03851
673.5251, 27.82922
674.0072, 20.73029
674.4893, 12.84906
674.9714, 3.209717
675.4536, 5.516479
675.9357, 5.665771
676.4178, 8.885376
676.8999, 18.63995
677.3820, 20.54462
677.8641, 20.17841
678.3463, 19.13965
678.8284, 18.19592
679.3105, 19.08594
679.7926, 22.35144
680.2747, 23.74475
680.7568, 17.15125
681.2390, 6.253906
681.7211, 0.5177610
682.2032, 2.833679
682.6853, 1.046448
683.1674, 6.094666
683.6495, 12.48840
684.1317, 7.181458
684.6138, 14.24890
685.0959, 24.28253
685.5780, 14.21313
686.0601, 3.076599
686.5422, 7.622803
687.0244, 15.35419
687.5065, 16.50671
687.9886, 11.17578
688.4707, 5.325806
688.9528, 2.027893
689.4349, 0.1647340
689.9171, 1.747375
690.3992, 3.386353
690.8813, 2.862854
691.3634, 0.2567750
691.8455, 3.476624
692.3276, 3.928772
692.8098, 2.237122
693.2919, 4.414001
693.7740, 13.32874
694.2561, 19.74060
694.7382, 20.36066
695.2203, 19.33868
695.7025, 20.28003
696.1846, 22.12256
696.6667, 20.51172
697.1488, 11.04193
697.6309, 2.911804
698.1130, 0.5085450
698.5952, 2.529602
699.0773, 10.27936
699.5594, 21.52051
700.0415, 27.82465
700.5236, 23.51685
701.0057, 13.90924
701.4879, 10.67554
701.9700, 14.27264
702.4521, 13.91602
702.9342, 6.969482
703.4163, 0.3590700
703.8984, 1.859497
704.3806, 0.9224240
704.8627, 0.1198730
705.3448, 1.018311
705.8269, 2.710266
706.3090, 6.548523
706.7911, 9.999207
707.2733, 11.31165
707.7554, 11.26849
708.2375, 11.65405
708.7196, 12.91620
709.2017, 13.05652
709.6838, 7.289185
710.1660, 0.3438720
710.6481, 3.290894
711.1302, 17.42181
711.6123, 25.61292
712.0944, 21.41272
712.5765, 11.70441
713.0587, 4.636475
713.5408, 0.3313600
714.0229, 3.695557
714.5050, 9.475159
714.9871, 12.01544
715.4692, 9.340088
715.9514, 4.155029
716.4335, 2.369080
716.9156, 9.551453
717.3977, 15.75439
717.8798, 21.50745
718.3619, 24.33344
718.8441, 19.55371
719.3262, 11.56439
719.8083, 8.667725
720.2904, 11.29486
720.7725, 13.25073
721.2546, 10.20740
721.7368, 4.646057
722.2189, 2.290588
722.7010, 3.341370
723.1831, 6.365723
723.6652, 11.84332
724.1473, 18.18738
724.6295, 24.88904
725.1116, 31.70251
725.5937, 38.83929
726.0758, 47.78229
726.5579, 51.63574
727.0400, 45.16864
727.5222, 37.33722
728.0043, 32.32178
728.4864, 30.26447
728.9685, 30.64966
729.4506, 33.29877
729.9327, 35.85370
730.4149, 36.00214
730.8970, 34.58636
731.3791, 33.50763
731.8612, 32.69720
732.3433, 31.42981
732.8254, 29.44305
733.3076, 26.83197
733.7897, 24.37469
734.2718, 22.47992
734.7539, 20.60632
735.2360, 16.43262
735.7181, 16.24310
736.2003, 24.19025
736.6824, 32.96332
737.1645, 39.20575
737.6466, 42.58527
738.1287, 42.23889
738.6108, 35.35553
739.0930, 31.10376
739.5751, 41.07190
740.0572, 52.37402
740.5393, 46.23279
741.0214, 27.31366
741.5035, 14.73676
741.9857, 17.63672
742.4678, 26.65259
742.9499, 32.05786
743.4320, 35.00403
743.9141, 32.41821
744.3962, 21.79388
744.8784, 17.57904
745.3605, 29.47510
745.8426, 44.30536
746.3247, 42.01300
746.8068, 19.42737
747.2889, 9.402710
747.7711, 22.89551
748.2532, 33.80200
748.7353, 35.55103
749.2174, 32.88910
749.6995, 28.49310
750.1816, 23.43359
750.6638, 19.38300
751.1459, 16.04382
751.6280, 16.40271
752.1101, 26.86749
752.5922, 41.59766
753.0743, 48.41388
753.5565, 46.99841
754.0386, 46.88892
754.5207, 54.18195
755.0028, 62.26379
755.4849, 54.28546
755.9670, 26.74799
756.4492, 19.31488
756.9313, 41.90869
757.4134, 61.27313
757.8955, 60.99255
758.3776, 51.17877
758.8597, 47.23718
759.3419, 49.75781
759.8240, 50.69904
760.3061, 46.28790
760.7882, 43.82697
761.2703, 47.73169
761.7524, 53.74548
762.2346, 59.24756
762.7167, 62.71136
763.1988, 60.59644
763.6809, 48.12024
764.1630, 34.24591
764.6451, 30.37268
765.1273, 32.86877
765.6094, 31.34338
766.0915, 25.16309
766.5736, 23.87115
767.0557, 33.99646
767.5378, 49.51208
768.0200, 57.79315
768.5021, 58.85498
768.9842, 54.37384
769.4663, 40.93695
769.9484, 28.64996
770.4305, 19.81207
770.9127, 15.84467
771.3948, 20.97998
771.8769, 36.20392
772.3590, 45.10724
772.8411, 40.85986
773.3232, 37.21643
773.8054, 40.90356
774.2875, 45.77991
774.7696, 46.01587
775.2517, 41.97473
775.7338, 37.38605
776.2159, 34.78778
776.6981, 31.39929
777.1802, 19.63831
777.6623, 5.720276
778.1444, 7.828674
778.6265, 25.64374
779.1086, 39.13025
779.5908, 36.71356
780.0729, 25.82996
780.5550, 19.59283
781.0371, 18.32642
781.5192, 19.03479
782.0013, 22.47595
782.4835, 25.82489
782.9656, 28.46429
783.4477, 30.04681
783.9298, 30.84955
784.4119, 30.99445
784.8940, 26.38287
785.3762, 7.701599
785.8583, 4.157288
786.3404, 0.4442140
786.8225, 11.65851
787.3046, 24.69543
787.7867, 36.51312
788.2689, 40.81329
788.7510, 32.80902
789.2331, 24.31586
789.7152, 25.31512
790.1973, 30.84869
790.6794, 34.23730
791.1616, 34.96198
791.6437, 33.86218
792.1258, 31.28455
792.6079, 28.26038
793.0900, 26.30823
793.5721, 25.25647
794.0543, 23.42560
794.5364, 20.88898
795.0185, 15.75293
795.5006, 4.359924
795.9827, 2.572815
796.4648, 9.264893
796.9470, 36.29462
797.4291, 47.47186
797.9112, 27.08594
798.3933, 13.26849
798.8754, 10.34009
799.3575, 11.67371
799.8397, 15.70972
800.3218, 20.76556
800.8039, 24.26923
801.2860, 25.54895
801.7681, 25.83875
802.2502, 24.67291
802.7324, 23.73041
803.2145, 24.74805
803.6966, 27.07922
804.1787, 29.44446
804.6608, 31.51306
805.1429, 33.74231
805.6251, 36.65277
806.1072, 40.09290
806.5893, 45.68719
807.0714, 52.43658
807.5535, 51.48901
808.0356, 40.94568
808.5178, 28.43311
808.9999, 17.99402
809.4820, 11.05627
809.9641, 12.29669
810.4462, 25.24298
810.9283, 33.46234
811.4105, 36.63892
811.8926, 35.60773
812.3747, 26.81787
812.8568, 16.39966
813.3389, 11.77509
813.8210, 12.99353
814.3032, 13.82031
814.7853, 11.88843
815.2674, 11.40570
815.7495, 15.18994
816.2316, 19.91730
816.7137, 22.89905
817.1959, 24.03833
817.6780, 23.50159
818.1601, 20.60132
818.6422, 19.83484
819.1243, 29.11823
819.6064, 40.67133
820.0886, 40.65961
820.5707, 31.63757
821.0528, 24.86987
821.5349, 24.37555
822.0170, 25.62640
822.4991, 22.87000
822.9813, 17.99060
823.4634, 19.67023
823.9455, 28.23193
824.4276, 38.27875
824.9097, 50.56476
825.3918, 55.95221
825.8740, 44.57391
826.3561, 23.26233
826.8382, 15.84229
827.3203, 31.39252
827.8024, 39.87799
828.2845, 37.72913
828.7667, 32.75494
829.2488, 28.14062
829.7309, 22.10376
830.2130, 9.858215
830.6951, 8.372681
831.1772, 17.88074
831.6594, 8.747131
832.1415, 1.621338
832.6236, 6.749817
833.1057, 8.630859
833.5878, 7.764771
834.0699, 5.759888
834.5521, 6.648010
835.0342, 12.82709
835.5163, 18.94873
835.9984, 20.56598
836.4805, 18.81299
836.9626, 12.07513
837.4448, 3.365173
837.9269, 4.770447
838.4090, 19.75812
838.8911, 35.79071
839.3732, 39.03540
839.8553, 33.23737
840.3375, 34.21417
840.8196, 42.27283
841.3017, 38.80823
841.7838, 17.76050
842.2659, 1.281250
842.7480, 5.076965
843.2302, 1.737915
843.7123, 10.08380
844.1944, 22.73682
844.6765, 29.67834
845.1586, 30.18427
845.6407, 25.90875
846.1229, 9.089539
846.6050, 6.506958
847.0871, 3.880798
847.5692, 15.26672
848.0513, 27.38580
848.5334, 21.61823
849.0156, 18.93683
849.4977, 31.20569
849.9798, 43.13239
850.4619, 39.72040
850.9440, 27.20758
851.4261, 22.29907
851.9083, 30.81848
852.3904, 35.79150
852.8725, 19.07904
853.3546, 1.463989
853.8367, 6.481750
854.3188, 0.1746220
854.8010, 9.862793
855.2831, 20.03577
855.7652, 30.60193
856.2473, 42.40198
856.7294, 51.73871
857.2115, 50.09802
857.6937, 40.04254
858.1758, 33.21234
858.6579, 30.60736
859.1400, 26.47491
859.6221, 17.63324
860.1042, 9.572998
860.5864, 10.79102
861.0685, 20.87744
861.5506, 28.80292
862.0327, 34.84283
862.5148, 37.32465
862.9969, 34.90814
863.4791, 30.65515
863.9612, 25.53351
864.4433, 20.83716
864.9254, 21.57648
865.4075, 31.87952
865.8896, 39.00580
866.3718, 42.60199
866.8539, 43.63104
867.3360, 42.97186
867.8181, 39.58691
868.3002, 29.12909
868.7823, 12.57721
869.2645, 4.508362
869.7466, 16.99713
870.2287, 27.79138
870.7108, 28.45404
871.1929, 23.74048
871.6750, 13.94342
872.1572, 3.195374
872.6393, 0.6102290
873.1214, 9.595337
873.6035, 17.79230
874.0856, 12.65869
874.5677, 5.047302
875.0499, 8.966980
875.5320, 19.40204
876.0141, 26.42987
876.4962, 27.65814
876.9783, 22.95026
877.4604, 10.78796
877.9426, 0.8193360
878.4247, 0.8159790
878.9068, 12.85992
879.3889, 26.05914
879.8710, 38.94183
880.3531, 42.71149
880.8353, 33.24854
881.3174, 21.86621
881.7995, 22.60883
882.2816, 33.13922
882.7637, 39.24628
883.2458, 40.96735
883.7280, 36.25031
884.2101, 21.53363
884.6922, 11.45758
885.1743, 17.44434
885.6564, 32.11926
886.1385, 39.93744
886.6207, 40.83221
887.1028, 34.46606
887.5849, 12.21478
888.0670, 3.305481
888.5491, 3.889465
889.0313, 1.571289
889.5134, 9.545288
889.9955, 18.60425
890.4776, 21.70258
890.9597, 12.26709
891.4418, 7.790588
891.9240, 15.26306
892.4061, 23.25018
892.8882, 26.71045
893.3703, 26.49365
893.8524, 22.37616
894.3345, 15.08228
894.8167, 11.94440
895.2988, 22.02612
895.7809, 29.52313
896.2630, 21.19171
896.7451, 9.717590
897.2272, 10.58289
897.7094, 19.75769
898.1915, 23.40094
898.6736, 16.50409
899.1557, 7.378418
899.6378, 1.740234
900.1199, 6.020081
900.6021, 5.910461
901.0842, 26.24255
901.5663, 36.55579
902.0484, 34.68921
902.5305, 30.36469
903.0126, 29.72339
903.4948, 29.06335
903.9769, 20.47333
904.4590, 7.381592
904.9411, 3.042542
905.4232, 7.358032
905.9053, 14.60712
906.3875, 22.96027
906.8696, 31.87427
907.3517, 41.93549
907.8338, 50.09155
908.3159, 43.95483
908.7980, 23.40479
909.2802, 7.359070
909.7623, 2.540405
910.2444, 4.526245
910.7265, 4.576233
911.2086, 17.77234
911.6907, 24.70557
912.1729, 27.55969
912.6550, 29.29205
913.1371, 29.32654
913.6192, 29.96063
914.1013, 31.89526
914.5834, 33.98297
915.0656, 35.52881
915.5477, 36.72687
916.0298, 38.14136
916.5119, 40.36133
916.9940, 40.61578
917.4761, 40.38544
917.9583, 36.07159
918.4404, 20.56836
918.9225, 6.112732
919.4046, 3.720093
919.8867, 10.56720
920.3688, 15.99481
920.8510, 19.62793
921.3331, 20.91058
921.8152, 16.30457
922.2973, 13.32507
922.7794, 18.18011
923.2615, 24.76556
923.7437, 25.46783
924.2258, 20.34027
924.7079, 15.08350
925.1900, 8.605774
925.6721, 6.873657
926.1542, 17.58905
926.6364, 29.09973
927.1185, 32.78497
927.6006, 30.34595
928.0827, 23.84540
928.5648, 15.20380
929.0469, 11.80176
929.5291, 24.05511
930.0112, 35.69299
930.4933, 32.24286
930.9754, 22.87860
931.4575, 17.74054
931.9396, 17.32391
932.4218, 20.03040
932.9039, 25.19501
933.3860, 28.03473
933.8681, 23.22394
934.3502, 14.73560
934.8323, 3.001282
935.3145, 6.845215
935.7966, 1.2024000E-02
936.2787, 21.33124
936.7608, 37.13696
937.2429, 36.51392
937.7250, 29.70770
938.2072, 29.17059
938.6893, 31.80457
939.1714, 30.11969
939.6535, 24.72913
940.1356, 19.64258
940.6177, 15.90601
941.0999, 13.62012
941.5820, 12.67816
942.0641, 14.13043
942.5462, 23.10876
943.0283, 36.65851
943.5104, 36.86646
943.9926, 24.21167
944.4747, 14.44501
944.9568, 12.38770
945.4389, 16.07367
945.9210, 24.93689
946.4031, 34.73718
946.8853, 30.40228
947.3674, 11.80243
947.8495, 3.003418
948.3316, 6.299805
948.8137, 9.823792
949.2958, 8.338379
949.7780, 9.056946
950.2601, 21.35437
950.7422, 41.85742
951.2243, 51.75177
951.7064, 49.22180
952.1885, 48.15125
952.6707, 50.73187
953.1528, 51.45917
953.6349, 47.96204
954.1170, 40.69989
954.5991, 28.86438
955.0812, 13.06073
955.5634, 5.702393
956.0455, 9.448120
956.5276, 14.06018
957.0097, 19.40784
957.4918, 22.17566
957.9739, 19.94727
958.4561, 16.51050
958.9382, 16.71002
959.4203, 20.81702
959.9024, 24.48688
960.3845, 27.43707
960.8666, 30.53552
961.3488, 34.20593
961.8309, 37.77753
962.3130, 43.41095
962.7951, 47.27667
963.2772, 39.65338
963.7593, 16.00055
964.2415, 5.169922
964.7236, 16.19562
965.2057, 26.91589
965.6878, 38.83746
966.1699, 44.30493
966.6520, 34.90784
967.1342, 16.25153
967.6163, 0.7643430
968.0984, 18.75140
968.5805, 22.91895
969.0626, 1.381592
969.5447, 20.26294
970.0269, 23.50018
970.5090, 19.87994
970.9911, 11.00287
971.4732, 1.387024
971.9553, 3.642456
972.4374, 24.36182
972.9196, 37.38965
973.4017, 35.71826
973.8838, 30.31128
974.3659, 16.49359
974.8480, 7.688416
975.3301, 23.18091
975.8123, 53.27600
976.2944, 66.19739
976.7765, 50.77063
977.2586, 36.37000
977.7407, 28.58453
978.2228, 24.24854
978.7050, 25.29608
979.1871, 26.62482
979.6692, 20.79791
980.1513, 10.76434
980.6334, 8.254578
981.1155, 18.43011
981.5977, 27.87860
982.0798, 36.20227
982.5619, 38.64264
983.0440, 28.79346
983.5261, 14.68872
984.0082, 2.359314
984.4904, 6.113159
984.9725, 6.346924
985.4546, 5.486511
985.9367, 17.61188
986.4188, 30.47009
986.9009, 37.21942
987.3831, 28.36963
987.8652, 14.95703
988.3473, 9.810974
988.8294, 13.04620
989.3115, 18.28204
989.7936, 24.93610
990.2758, 29.46368
990.7579, 28.91296
991.2400, 27.37567
991.7221, 27.59723
992.2042, 28.30511
992.6863, 26.47772
993.1685, 22.67969
993.6506, 23.90375
994.1327, 35.55377
994.6148, 40.95245
995.0969, 26.74127
995.5790, 10.29059
996.0612, 0.7249150
996.5433, 2.127380
997.0254, 3.085205
997.5075, 14.13135
997.9896, 22.62335
998.4717, 24.84381
998.9539, 26.82318
999.4360, 34.77783
999.9181, 39.81409
1000.400, 31.91083
1000.882, 19.82635
1001.364, 13.82269
1001.847, 14.85950
1002.329, 20.78870
1002.811, 33.83087
1003.293, 42.37897
1003.775, 39.00531
1004.257, 31.47473
1004.739, 22.25146
1005.221, 13.91174
1005.703, 8.579224
1006.186, 6.826904
1006.668, 9.684204
1007.150, 19.26227
1007.632, 27.38245
1008.114, 25.94458
1008.596, 26.63586
1009.078, 44.98804
1009.560, 64.44818
1010.043, 61.43750
1010.525, 39.85529
1011.007, 22.95081
1011.489, 18.02399
1011.971, 17.28485
1012.453, 23.12445
1012.935, 25.54456
1013.417, 12.52155
1013.899, 2.900818
1014.382, 5.716492
1014.864, 2.847229
1015.346, 14.20898
1015.828, 28.08167
1016.310, 35.55780
1016.792, 28.31964
1017.274, 19.56476
1017.756, 14.80640
1018.239, 13.44232
1018.721, 16.57800
1019.203, 22.08722
1019.685, 23.94861
1020.167, 19.72803
1020.649, 17.24188
1021.131, 19.17480
1021.613, 23.46039
1022.095, 33.64453
1022.578, 43.89819
1023.060, 48.90479
1023.542, 49.44843
1024.024, 48.35431
1024.506, 45.94299
1024.988, 43.15979
1025.470, 39.58978
1025.952, 35.25952
1026.435, 31.39294
1026.917, 29.56012
1027.399, 28.62421
1027.881, 27.99231
1028.363, 25.64038
1028.845, 20.57129
1029.327, 20.36243
1029.809, 33.21368
1030.292, 41.74200
1030.774, 37.08075
1031.256, 30.81116
1031.738, 34.24548
1032.220, 40.17102
1032.702, 31.76416
1033.184, 5.889221
1033.666, 5.107239
1034.148, 14.10413
1034.630, 30.75745
1035.113, 38.68445
1035.595, 43.68353
1036.077, 51.98389
1036.559, 57.87720
1037.041, 49.32489
1037.523, 25.53235
1038.005, 13.30981
1038.487, 22.60364
1038.970, 27.59979
1039.452, 23.60620
1039.934, 19.29065
1040.416, 18.99988
1040.898, 19.77618
1041.380, 16.88977
1041.862, 11.10822
1042.344, 11.60425
1042.827, 26.75433
1043.309, 30.91150
1043.791, 15.51050
1044.273, 1.946533
1044.755, 2.973755
1045.237, 1.351318
1045.719, 6.110168
1046.201, 17.92157
1046.683, 27.40503
1047.166, 34.89227
1047.648, 39.51971
1048.130, 42.57861
1048.612, 37.07812
1049.094, 15.30048
1049.576, 0.2841800
1050.058, 13.00159
1050.540, 41.68658
1051.022, 48.11530
1051.505, 29.57880
1051.987, 13.18701
1052.469, 2.628052
1052.951, 1.584473
1053.433, 23.12360
1053.915, 43.18579
1054.397, 38.11383
1054.879, 21.01660
1055.361, 15.61401
1055.844, 20.55011
1056.326, 17.48657
1056.808, 6.483459
1057.290, 9.946594
1057.772, 31.94495
1058.254, 42.86615
1058.736, 26.05420
1059.218, 4.500183
1059.701, 10.84650
1060.183, 34.98328
1060.665, 43.45917
1061.147, 38.24023
1061.629, 27.03656
1062.111, 12.16888
1062.593, 3.103760
1063.075, 3.355957
1063.557, 6.836914
1064.040, 7.329834
1064.522, 8.171265
1065.004, 19.26801
1065.486, 34.11139
1065.968, 33.66827
1066.450, 21.76257
1066.932, 17.42157
1067.414, 24.45380
1067.896, 29.22705
1068.379, 21.66174
1068.861, 11.11444
1069.343, 6.926941
1069.825, 7.600830
1070.307, 13.49274
1070.789, 21.36365
1071.271, 23.34027
1071.753, 19.28876
1072.236, 15.13220
1072.718, 13.53741
1073.200, 16.31897
1073.682, 29.94849
1074.164, 43.31219
1074.646, 47.53467
1075.128, 45.80542
1075.610, 39.46735
1076.093, 32.03668
1076.575, 31.00012
1077.057, 38.30286
1077.539, 37.83716
1078.021, 9.240601
1078.503, 11.24451
1078.985, 0.6975100
1079.467, 17.80688
1079.949, 29.49084
1080.432, 35.13928
1080.914, 37.45929
1081.396, 36.99194
1081.878, 36.04504
1082.360, 34.80566
1082.842, 33.91565
1083.324, 35.70471
1083.806, 34.89685
1084.288, 25.26569
1084.771, 14.95831
1085.253, 11.61334
1085.735, 14.62305
1086.217, 19.58582
1086.699, 27.72253
1087.181, 34.96460
1087.663, 45.22498
1088.145, 45.54785
1088.628, 25.67047
1089.110, 8.282104
1089.592, 12.12256
1090.074, 27.15784
1090.556, 31.76343
1091.038, 25.73901
1091.520, 16.60120
1092.002, 3.560242
1092.484, 0.1315310
1092.967, 9.335693
1093.449, 17.14398
1093.931, 15.60229
1094.413, 9.777710
1094.895, 5.050659
1095.377, 2.631165
1095.859, 9.349060
1096.341, 23.44812
1096.823, 30.95605
1097.306, 31.15210
1097.788, 29.14020
1098.270, 26.68561
1098.752, 23.03717
1099.234, 16.58661
1099.716, 12.98242
1100.198, 26.87909
1100.680, 46.77380
1101.163, 46.22015
1101.645, 32.27686
1102.127, 24.55383
1102.609, 25.42731
1103.091, 26.80487
1103.573, 24.73944
1104.055, 23.71246
1104.537, 32.02228
1105.020, 38.20978
1105.502, 25.87323
1105.984, 9.970825
1106.466, 11.55005
1106.948, 23.52600
1107.430, 24.91779
1107.912, 11.94733
1108.394, 2.132568
1108.876, 6.185486
1109.359, 9.231445
1109.841, 0.3578490
1110.323, 5.888184
1110.805, 8.780701
1111.287, 29.60193
1111.769, 39.00262
1112.251, 37.93848
1112.733, 37.55249
1113.215, 41.41528
1113.698, 39.10986
1114.180, 20.48303
1114.662, 11.69690
1115.144, 24.79486
1115.626, 40.47534
1116.108, 45.95715
1116.590, 45.49689
1117.072, 47.39960
1117.555, 51.70374
1118.037, 49.81787
1118.519, 40.09766
1119.001, 33.50677
1119.483, 31.55151
1119.965, 31.66949
1120.447, 33.10803
1120.929, 33.77783
1121.411, 30.57599
1121.894, 26.19763
1122.376, 29.71790
1122.858, 38.66260
1123.340, 38.90375
1123.822, 31.63879
1124.304, 27.50018
1124.786, 28.20367
1125.268, 25.94000
1125.750, 16.21088
1126.233, 5.227356
1126.715, 4.620972
1127.197, 7.651794
1127.679, 13.18994
1128.161, 40.52161
1128.643, 43.82013
1129.125, 28.90149
1129.607, 18.46063
1130.090, 18.48322
1130.572, 21.90833
1131.054, 27.60901
1131.536, 31.55310
1132.018, 34.15918
1132.500, 31.56018
1132.982, 13.04718
1133.464, 6.325195
1133.947, 6.958618
1134.429, 8.107056
1134.911, 22.08313
1135.393, 35.03394
1135.875, 39.73828
1136.357, 29.16272
1136.839, 18.99603
1137.321, 7.032166
1137.803, 1.853577
1138.286, 13.77539
1138.768, 28.38312
1139.250, 21.32874
1139.732, 3.336426
1140.214, 3.344360
1140.696, 27.11407
1141.178, 33.50122
1141.660, 9.424438
1142.142, 5.093140
1142.625, 3.138916
1143.107, 17.80023
1143.589, 27.22388
1144.071, 30.28827
1144.553, 19.53979
1145.035, 2.677185
1145.517, 7.344971
1145.999, 25.65814
1146.482, 33.10791
1146.964, 27.87708
1147.446, 16.89172
1147.928, 3.650757
1148.410, 1.493469
1148.892, 15.39453
1149.374, 32.67096
1149.856, 27.97589
1150.339, 17.18610
1150.821, 15.58337
1151.303, 19.07031
1151.785, 19.64435
1152.267, 17.52643
1152.749, 19.15924
1153.231, 28.06226
1153.713, 32.90503
1154.195, 28.59430
1154.677, 23.47125
1155.160, 19.09991
1155.642, 15.62671
1156.124, 11.56769
1156.606, 9.662964
1157.088, 16.02789
1157.570, 29.18274
1158.052, 29.94061
1158.534, 13.29193
1159.017, 8.840332
1159.499, 20.81940
1159.981, 27.17480
1160.463, 20.35748
1160.945, 16.18610
1161.427, 27.52014
1161.909, 40.87573
1162.391, 28.73285
1162.874, 1.750610
1163.356, 2.360901
1163.838, 9.382019
1164.320, 14.01953
1164.802, 11.50195
1165.284, 16.36682
1165.766, 31.82867
1166.248, 41.21832
1166.730, 31.36713
1167.213, 17.50098
1167.695, 9.310425
1168.177, 5.178223
1168.659, 6.661865
1169.141, 10.43487
1169.623, 12.63342
1170.105, 14.12933
1170.587, 19.62207
1171.069, 31.33167
1171.552, 36.05194
1172.034, 25.45667
1172.516, 17.10504
1172.998, 12.41821
1173.480, 12.19720
1173.962, 17.58252
1174.444, 27.21790
1174.926, 42.86810
1175.409, 59.29840
1175.891, 54.67310
1176.373, 26.75409
1176.855, 11.01074
1177.337, 7.646851
1177.819, 4.322876
1178.301, 0.8753050
1178.783, 1.015381
1179.266, 14.50220
1179.748, 26.79572
1180.230, 22.46802
1180.712, 12.28400
1181.194, 15.78003
1181.676, 23.75458
1182.158, 18.94788
1182.640, 6.364807
1183.122, 1.421326
1183.604, 2.336792
1184.087, 1.891602
1184.569, 11.23102
1185.051, 16.42963
1185.533, 5.912109
1186.015, 1.099426
1186.497, 20.62408
1186.979, 39.05640
1187.461, 34.75433
1187.944, 20.47028
1188.426, 18.53967
1188.908, 25.32898
1189.390, 25.89526
1189.872, 16.25867
1190.354, 13.02893
1190.836, 18.04498
1191.318, 21.09271
1191.801, 19.16205
1192.283, 20.38098
1192.765, 30.40997
1193.247, 42.07574
1193.729, 47.08173
1194.211, 46.79840
1194.693, 43.15826
1195.175, 37.52069
1195.657, 33.54028
1196.140, 30.83167
1196.622, 27.21790
1197.104, 22.74518
1197.586, 20.00031
1198.068, 20.30328
1198.550, 21.18756
1199.032, 22.65692
1199.514, 21.77728
1199.996, 13.02179
1200.479, 7.144836
1200.961, 17.46100
1201.443, 33.52734
1201.925, 39.06458
1202.407, 34.79138
1202.889, 33.34576
1203.371, 38.13281
1203.853, 33.36609
1204.336, 13.36792
1204.818, 3.143311
1205.300, 9.572937
1205.782, 17.54169
1206.264, 18.98999
1206.746, 17.99872
1207.228, 18.87567
1207.710, 22.27905
1208.193, 28.42322
1208.675, 35.89972
1209.157, 42.49170
1209.639, 45.25458
1210.121, 38.06879
1210.603, 21.95044
1211.085, 7.203369
1211.567, 2.032471
1212.049, 1.614014
1212.531, 21.36975
1213.014, 40.64557
1213.496, 36.67682
1213.978, 30.41022
1214.460, 41.55902
1214.942, 55.03186
1215.424, 48.01294
1215.906, 26.63000
1216.388, 15.85419
1216.871, 17.54169
1217.353, 19.00128
1217.835, 20.91669
1218.317, 18.39600
1218.799, 9.406616
1219.281, 7.671326
1219.763, 19.54791
1220.245, 31.67468
1220.728, 32.20142
1221.210, 25.98047
1221.692, 20.32336
1222.174, 15.10168
1222.656, 8.538513
1223.138, 3.019897
1223.620, 4.076721
1224.102, 10.59229
1224.584, 16.33380
1225.067, 18.82104
1225.549, 18.84875
1226.031, 15.97803
1226.513, 12.19385
1226.995, 2.882385
1227.477, 0.4550780
1227.959, 14.45148
1228.441, 29.99921
1228.923, 33.77728
1229.406, 28.69794
1229.888, 18.66370
1230.370, 5.324768
1230.852, 10.15485
1231.334, 34.14954
1231.816, 34.72803
1232.298, 12.63898
1232.780, 0.4646000
1233.263, 2.493896
1233.745, 10.27222
1234.227, 8.483215
1234.709, 2.798828
1235.191, 0.0000000E+00
##END=



