##NAMES=Magnesiocarpholite
##RRUFFID=R140873
##IDEAL CHEMISTRY=MgAl_2_Si_2_O_6_(OH)_4_
##LOCALITY=Sengelbach valley, Biesenrode, Wippra Metamorphic Zone, Harz, Saxony-Anhalt, Germany
##OWNER=RRUFF
##SOURCE=Stefan Schorn
##DESCRIPTION=Green to gray fibers
##STATUS=The identification of this mineral has been confirmed only by single crystal X-ray diffraction.
##URL=rruff.info/R140873
8.806445e+001, 2.189220e+004
8.854657e+001, 2.082637e+004
8.902869e+001, 2.045702e+004
8.951080e+001, 2.112216e+004
8.999292e+001, 2.233026e+004
9.047504e+001, 2.363391e+004
9.095715e+001, 2.494484e+004
9.143927e+001, 2.624357e+004
9.192139e+001, 2.751385e+004
9.240350e+001, 2.875406e+004
9.288562e+001, 2.997309e+004
9.336774e+001, 3.097198e+004
9.384985e+001, 3.153811e+004
9.433197e+001, 3.164459e+004
9.481409e+001, 3.170584e+004
9.529620e+001, 3.164286e+004
9.577832e+001, 3.158504e+004
9.626044e+001, 3.155600e+004
9.674255e+001, 3.154741e+004
9.722467e+001, 3.154324e+004
9.770679e+001, 3.153865e+004
9.818890e+001, 3.153237e+004
9.867102e+001, 3.150779e+004
9.915314e+001, 3.148686e+004
9.963525e+001, 3.148749e+004
1.001174e+002, 3.151690e+004
1.005995e+002, 3.156629e+004
1.010816e+002, 3.160932e+004
1.015637e+002, 3.163599e+004
1.020458e+002, 3.166170e+004
1.025280e+002, 3.167609e+004
1.030101e+002, 3.168250e+004
1.034922e+002, 3.168709e+004
1.039743e+002, 3.169268e+004
1.044564e+002, 3.169817e+004
1.049385e+002, 3.171893e+004
1.054207e+002, 3.175744e+004
1.059028e+002, 3.180110e+004
1.063849e+002, 3.184422e+004
1.068670e+002, 3.188530e+004
1.073491e+002, 3.192392e+004
1.078312e+002, 3.195949e+004
1.083134e+002, 3.199118e+004
1.087955e+002, 3.201767e+004
1.092776e+002, 3.203250e+004
1.097597e+002, 3.204354e+004
1.102418e+002, 3.206331e+004
1.107239e+002, 3.209616e+004
1.112061e+002, 3.213121e+004
1.116882e+002, 3.215763e+004
1.121703e+002, 3.217738e+004
1.126524e+002, 3.219746e+004
1.131345e+002, 3.222505e+004
1.136166e+002, 3.225930e+004
1.140988e+002, 3.228555e+004
1.145809e+002, 3.229978e+004
1.150630e+002, 3.230584e+004
1.155451e+002, 3.229926e+004
1.160272e+002, 3.228196e+004
1.165093e+002, 3.226730e+004
1.169915e+002, 3.227400e+004
1.174736e+002, 3.231269e+004
1.179557e+002, 3.234381e+004
1.184378e+002, 3.236434e+004
1.189199e+002, 3.237725e+004
1.194020e+002, 3.237952e+004
1.198842e+002, 3.237120e+004
1.203663e+002, 3.236065e+004
1.208484e+002, 3.236745e+004
1.213305e+002, 3.241249e+004
1.218126e+002, 3.245227e+004
1.222947e+002, 3.248570e+004
1.227769e+002, 3.251284e+004
1.232590e+002, 3.253321e+004
1.237411e+002, 3.254630e+004
1.242232e+002, 3.255315e+004
1.247053e+002, 3.255888e+004
1.251874e+002, 3.255629e+004
1.256696e+002, 3.256021e+004
1.261517e+002, 3.258451e+004
1.266338e+002, 3.262342e+004
1.271159e+002, 3.265234e+004
1.275980e+002, 3.265189e+004
1.280801e+002, 3.262980e+004
1.285623e+002, 3.261702e+004
1.290444e+002, 3.261927e+004
1.295265e+002, 3.262805e+004
1.300086e+002, 3.263513e+004
1.304907e+002, 3.263995e+004
1.309728e+002, 3.264622e+004
1.314550e+002, 3.265738e+004
1.319371e+002, 3.267137e+004
1.324192e+002, 3.268500e+004
1.329013e+002, 3.269190e+004
1.333834e+002, 3.269833e+004
1.338655e+002, 3.272699e+004
1.343477e+002, 3.280240e+004
1.348298e+002, 3.286340e+004
1.353119e+002, 3.287968e+004
1.357940e+002, 3.286522e+004
1.362761e+002, 3.284554e+004
1.367582e+002, 3.283787e+004
1.372404e+002, 3.284251e+004
1.377225e+002, 3.285138e+004
1.382046e+002, 3.286951e+004
1.386867e+002, 3.288792e+004
1.391688e+002, 3.290519e+004
1.396509e+002, 3.292060e+004
1.401331e+002, 3.293310e+004
1.406152e+002, 3.294078e+004
1.410973e+002, 3.293997e+004
1.415794e+002, 3.294909e+004
1.420615e+002, 3.297676e+004
1.425436e+002, 3.300609e+004
1.430258e+002, 3.302557e+004
1.435079e+002, 3.303370e+004
1.439900e+002, 3.303846e+004
1.444721e+002, 3.305104e+004
1.449542e+002, 3.307657e+004
1.454363e+002, 3.309609e+004
1.459185e+002, 3.310790e+004
1.464006e+002, 3.311349e+004
1.468827e+002, 3.311009e+004
1.473648e+002, 3.309434e+004
1.478469e+002, 3.308011e+004
1.483290e+002, 3.309793e+004
1.488112e+002, 3.315068e+004
1.492933e+002, 3.319489e+004
1.497754e+002, 3.320637e+004
1.502575e+002, 3.319573e+004
1.507396e+002, 3.319671e+004
1.512217e+002, 3.322762e+004
1.517039e+002, 3.326389e+004
1.521860e+002, 3.327324e+004
1.526681e+002, 3.325281e+004
1.531502e+002, 3.322936e+004
1.536323e+002, 3.322479e+004
1.541144e+002, 3.323990e+004
1.545966e+002, 3.325405e+004
1.550787e+002, 3.325750e+004
1.555608e+002, 3.326076e+004
1.560429e+002, 3.327405e+004
1.565250e+002, 3.329996e+004
1.570071e+002, 3.332600e+004
1.574893e+002, 3.333171e+004
1.579714e+002, 3.330604e+004
1.584535e+002, 3.328978e+004
1.589356e+002, 3.329229e+004
1.594177e+002, 3.330415e+004
1.598998e+002, 3.332068e+004
1.603820e+002, 3.333988e+004
1.608641e+002, 3.335908e+004
1.613462e+002, 3.337209e+004
1.618283e+002, 3.337741e+004
1.623104e+002, 3.337713e+004
1.627925e+002, 3.336229e+004
1.632747e+002, 3.334563e+004
1.637568e+002, 3.334234e+004
1.642389e+002, 3.336028e+004
1.647210e+002, 3.339377e+004
1.652031e+002, 3.341873e+004
1.656852e+002, 3.344051e+004
1.661674e+002, 3.344839e+004
1.666495e+002, 3.342997e+004
1.671316e+002, 3.339730e+004
1.676137e+002, 3.337130e+004
1.680958e+002, 3.336464e+004
1.685779e+002, 3.337404e+004
1.690601e+002, 3.337796e+004
1.695422e+002, 3.336510e+004
1.700243e+002, 3.335914e+004
1.705064e+002, 3.337973e+004
1.709885e+002, 3.341900e+004
1.714706e+002, 3.344374e+004
1.719528e+002, 3.342552e+004
1.724349e+002, 3.337704e+004
1.729170e+002, 3.335748e+004
1.733991e+002, 3.338366e+004
1.738812e+002, 3.342462e+004
1.743633e+002, 3.346257e+004
1.748455e+002, 3.349769e+004
1.753276e+002, 3.352147e+004
1.758097e+002, 3.352009e+004
1.762918e+002, 3.350507e+004
1.767739e+002, 3.349687e+004
1.772560e+002, 3.350236e+004
1.777382e+002, 3.351477e+004
1.782203e+002, 3.352490e+004
1.787024e+002, 3.353210e+004
1.791845e+002, 3.353948e+004
1.796666e+002, 3.355239e+004
1.801487e+002, 3.356575e+004
1.806309e+002, 3.357162e+004
1.811130e+002, 3.356288e+004
1.815951e+002, 3.354676e+004
1.820772e+002, 3.354421e+004
1.825593e+002, 3.356559e+004
1.830414e+002, 3.358366e+004
1.835236e+002, 3.358194e+004
1.840057e+002, 3.357247e+004
1.844878e+002, 3.357441e+004
1.849699e+002, 3.360320e+004
1.854520e+002, 3.365158e+004
1.859341e+002, 3.367243e+004
1.864163e+002, 3.363210e+004
1.868984e+002, 3.359981e+004
1.873805e+002, 3.359832e+004
1.878626e+002, 3.361542e+004
1.883447e+002, 3.362829e+004
1.888268e+002, 3.361961e+004
1.893090e+002, 3.359049e+004
1.897911e+002, 3.357688e+004
1.902732e+002, 3.359474e+004
1.907553e+002, 3.361221e+004
1.912374e+002, 3.362028e+004
1.917195e+002, 3.362117e+004
1.922017e+002, 3.362211e+004
1.926838e+002, 3.362910e+004
1.931659e+002, 3.364278e+004
1.936480e+002, 3.364885e+004
1.941301e+002, 3.363955e+004
1.946122e+002, 3.363193e+004
1.950944e+002, 3.363549e+004
1.955765e+002, 3.364802e+004
1.960586e+002, 3.365990e+004
1.965407e+002, 3.366298e+004
1.970228e+002, 3.365661e+004
1.975049e+002, 3.365247e+004
1.979871e+002, 3.364245e+004
1.984692e+002, 3.364028e+004
1.989513e+002, 3.366119e+004
1.994334e+002, 3.370285e+004
1.999155e+002, 3.374212e+004
2.003976e+002, 3.376048e+004
2.008798e+002, 3.375748e+004
2.013619e+002, 3.375132e+004
2.018440e+002, 3.373686e+004
2.023261e+002, 3.372308e+004
2.028082e+002, 3.371895e+004
2.032903e+002, 3.372528e+004
2.037725e+002, 3.373523e+004
2.042546e+002, 3.374832e+004
2.047367e+002, 3.376129e+004
2.052188e+002, 3.376390e+004
2.057009e+002, 3.374575e+004
2.061830e+002, 3.371996e+004
2.066652e+002, 3.370434e+004
2.071473e+002, 3.370082e+004
2.076294e+002, 3.370105e+004
2.081115e+002, 3.370267e+004
2.085936e+002, 3.370393e+004
2.090757e+002, 3.370104e+004
2.095579e+002, 3.368646e+004
2.100400e+002, 3.366918e+004
2.105221e+002, 3.366925e+004
2.110042e+002, 3.369362e+004
2.114863e+002, 3.371962e+004
2.119685e+002, 3.374224e+004
2.124506e+002, 3.375810e+004
2.129327e+002, 3.375847e+004
2.134148e+002, 3.372918e+004
2.138969e+002, 3.368639e+004
2.143790e+002, 3.368687e+004
2.148612e+002, 3.377169e+004
2.153433e+002, 3.383130e+004
2.158254e+002, 3.381148e+004
2.163075e+002, 3.375051e+004
2.167896e+002, 3.370108e+004
2.172717e+002, 3.369427e+004
2.177539e+002, 3.372008e+004
2.182360e+002, 3.373378e+004
2.187181e+002, 3.372539e+004
2.192002e+002, 3.371729e+004
2.196823e+002, 3.371474e+004
2.201644e+002, 3.371597e+004
2.206466e+002, 3.371815e+004
2.211287e+002, 3.371949e+004
2.216108e+002, 3.372051e+004
2.220929e+002, 3.372430e+004
2.225750e+002, 3.373725e+004
2.230571e+002, 3.374574e+004
2.235393e+002, 3.374517e+004
2.240214e+002, 3.373920e+004
2.245035e+002, 3.373273e+004
2.249856e+002, 3.372860e+004
2.254677e+002, 3.372673e+004
2.259498e+002, 3.372666e+004
2.264320e+002, 3.372835e+004
2.269141e+002, 3.373218e+004
2.273962e+002, 3.373780e+004
2.278783e+002, 3.374573e+004
2.283604e+002, 3.375892e+004
2.288425e+002, 3.378003e+004
2.293247e+002, 3.380542e+004
2.298068e+002, 3.381352e+004
2.302889e+002, 3.378267e+004
2.307710e+002, 3.376034e+004
2.312531e+002, 3.375893e+004
2.317352e+002, 3.377231e+004
2.322174e+002, 3.379213e+004
2.326995e+002, 3.381581e+004
2.331816e+002, 3.383875e+004
2.336637e+002, 3.383877e+004
2.341458e+002, 3.378696e+004
2.346279e+002, 3.374947e+004
2.351101e+002, 3.375582e+004
2.355922e+002, 3.378761e+004
2.360743e+002, 3.380736e+004
2.365564e+002, 3.379532e+004
2.370385e+002, 3.376217e+004
2.375206e+002, 3.374320e+004
2.380028e+002, 3.374695e+004
2.384849e+002, 3.374828e+004
2.389670e+002, 3.373410e+004
2.394491e+002, 3.371138e+004
2.399312e+002, 3.369616e+004
2.404133e+002, 3.369649e+004
2.408955e+002, 3.370672e+004
2.413776e+002, 3.371462e+004
2.418597e+002, 3.372107e+004
2.423418e+002, 3.372415e+004
2.428239e+002, 3.372054e+004
2.433060e+002, 3.371268e+004
2.437882e+002, 3.370755e+004
2.442703e+002, 3.370835e+004
2.447524e+002, 3.371193e+004
2.452345e+002, 3.371257e+004
2.457166e+002, 3.370934e+004
2.461987e+002, 3.370760e+004
2.466809e+002, 3.371106e+004
2.471630e+002, 3.371824e+004
2.476451e+002, 3.372414e+004
2.481272e+002, 3.372666e+004
2.486093e+002, 3.372828e+004
2.490914e+002, 3.373513e+004
2.495736e+002, 3.374773e+004
2.500557e+002, 3.375170e+004
2.505378e+002, 3.373231e+004
2.510199e+002, 3.369579e+004
2.515020e+002, 3.366796e+004
2.519841e+002, 3.365579e+004
2.524663e+002, 3.365105e+004
2.529484e+002, 3.364571e+004
2.534305e+002, 3.363999e+004
2.539126e+002, 3.363574e+004
2.543947e+002, 3.363461e+004
2.548768e+002, 3.363607e+004
2.553590e+002, 3.363693e+004
2.558411e+002, 3.363372e+004
2.563232e+002, 3.363490e+004
2.568053e+002, 3.365189e+004
2.572874e+002, 3.367935e+004
2.577695e+002, 3.369790e+004
2.582516e+002, 3.369009e+004
2.587338e+002, 3.366127e+004
2.592159e+002, 3.364092e+004
2.596980e+002, 3.363483e+004
2.601801e+002, 3.363027e+004
2.606622e+002, 3.361563e+004
2.611443e+002, 3.359682e+004
2.616265e+002, 3.358752e+004
2.621086e+002, 3.360159e+004
2.625907e+002, 3.363232e+004
2.630728e+002, 3.364764e+004
2.635549e+002, 3.363771e+004
2.640370e+002, 3.362655e+004
2.645192e+002, 3.362599e+004
2.650013e+002, 3.363066e+004
2.654834e+002, 3.363127e+004
2.659655e+002, 3.362100e+004
2.664476e+002, 3.360415e+004
2.669297e+002, 3.359741e+004
2.674119e+002, 3.361239e+004
2.678940e+002, 3.361836e+004
2.683761e+002, 3.359925e+004
2.688582e+002, 3.356957e+004
2.693403e+002, 3.354784e+004
2.698224e+002, 3.354414e+004
2.703046e+002, 3.355138e+004
2.707867e+002, 3.354896e+004
2.712688e+002, 3.352837e+004
2.717509e+002, 3.351376e+004
2.722330e+002, 3.351173e+004
2.727151e+002, 3.351643e+004
2.731973e+002, 3.352400e+004
2.736794e+002, 3.353311e+004
2.741615e+002, 3.353986e+004
2.746436e+002, 3.353382e+004
2.751257e+002, 3.350149e+004
2.756078e+002, 3.348293e+004
2.760900e+002, 3.348887e+004
2.765721e+002, 3.350428e+004
2.770542e+002, 3.351897e+004
2.775363e+002, 3.352935e+004
2.780184e+002, 3.353501e+004
2.785005e+002, 3.353513e+004
2.789827e+002, 3.352892e+004
2.794648e+002, 3.351820e+004
2.799469e+002, 3.349538e+004
2.804290e+002, 3.347425e+004
2.809111e+002, 3.346766e+004
2.813932e+002, 3.347609e+004
2.818754e+002, 3.348680e+004
2.823575e+002, 3.348229e+004
2.828396e+002, 3.345613e+004
2.833217e+002, 3.343331e+004
2.838038e+002, 3.340772e+004
2.842859e+002, 3.338995e+004
2.847681e+002, 3.339418e+004
2.852502e+002, 3.341554e+004
2.857323e+002, 3.343224e+004
2.862144e+002, 3.341938e+004
2.866965e+002, 3.336937e+004
2.871786e+002, 3.333342e+004
2.876608e+002, 3.331512e+004
2.881429e+002, 3.330582e+004
2.886250e+002, 3.330722e+004
2.891071e+002, 3.331559e+004
2.895892e+002, 3.332293e+004
2.900714e+002, 3.332250e+004
2.905535e+002, 3.331422e+004
2.910356e+002, 3.330816e+004
2.915177e+002, 3.330513e+004
2.919998e+002, 3.330373e+004
2.924819e+002, 3.330668e+004
2.929641e+002, 3.331091e+004
2.934462e+002, 3.331130e+004
2.939283e+002, 3.330462e+004
2.944104e+002, 3.329125e+004
2.948925e+002, 3.327361e+004
2.953746e+002, 3.324044e+004
2.958568e+002, 3.321547e+004
2.963389e+002, 3.320415e+004
2.968210e+002, 3.320226e+004
2.973031e+002, 3.320575e+004
2.977852e+002, 3.321279e+004
2.982673e+002, 3.322038e+004
2.987495e+002, 3.321955e+004
2.992316e+002, 3.319323e+004
2.997137e+002, 3.317968e+004
3.001958e+002, 3.319216e+004
3.006779e+002, 3.321215e+004
3.011600e+002, 3.322059e+004
3.016422e+002, 3.321137e+004
3.021243e+002, 3.319233e+004
3.026064e+002, 3.317750e+004
3.030885e+002, 3.316803e+004
3.035706e+002, 3.316135e+004
3.040527e+002, 3.316035e+004
3.045349e+002, 3.315998e+004
3.050170e+002, 3.315565e+004
3.054991e+002, 3.314702e+004
3.059812e+002, 3.313831e+004
3.064633e+002, 3.313577e+004
3.069454e+002, 3.314475e+004
3.074276e+002, 3.314063e+004
3.079097e+002, 3.311476e+004
3.083918e+002, 3.308596e+004
3.088739e+002, 3.306291e+004
3.093560e+002, 3.304663e+004
3.098381e+002, 3.303501e+004
3.103203e+002, 3.302621e+004
3.108024e+002, 3.302041e+004
3.112845e+002, 3.301780e+004
3.117666e+002, 3.302636e+004
3.122487e+002, 3.302974e+004
3.127308e+002, 3.301930e+004
3.132130e+002, 3.299912e+004
3.136951e+002, 3.297791e+004
3.141772e+002, 3.296091e+004
3.146593e+002, 3.294799e+004
3.151414e+002, 3.293935e+004
3.156235e+002, 3.293414e+004
3.161057e+002, 3.293380e+004
3.165878e+002, 3.294732e+004
3.170699e+002, 3.296321e+004
3.175520e+002, 3.296303e+004
3.180341e+002, 3.293829e+004
3.185162e+002, 3.290093e+004
3.189984e+002, 3.288230e+004
3.194805e+002, 3.291276e+004
3.199626e+002, 3.292233e+004
3.204447e+002, 3.289604e+004
3.209268e+002, 3.285676e+004
3.214089e+002, 3.282127e+004
3.218911e+002, 3.279550e+004
3.223732e+002, 3.278165e+004
3.228553e+002, 3.278480e+004
3.233374e+002, 3.281844e+004
3.238195e+002, 3.283572e+004
3.243016e+002, 3.282300e+004
3.247838e+002, 3.280695e+004
3.252659e+002, 3.280574e+004
3.257480e+002, 3.281916e+004
3.262301e+002, 3.283418e+004
3.267122e+002, 3.283763e+004
3.271943e+002, 3.282746e+004
3.276765e+002, 3.282133e+004
3.281586e+002, 3.282793e+004
3.286407e+002, 3.282893e+004
3.291228e+002, 3.281480e+004
3.296049e+002, 3.278919e+004
3.300870e+002, 3.275964e+004
3.305692e+002, 3.272998e+004
3.310513e+002, 3.270191e+004
3.315334e+002, 3.268924e+004
3.320155e+002, 3.270975e+004
3.324976e+002, 3.272650e+004
3.329797e+002, 3.274001e+004
3.334619e+002, 3.274528e+004
3.339440e+002, 3.273231e+004
3.344261e+002, 3.269672e+004
3.349082e+002, 3.265135e+004
3.353904e+002, 3.262744e+004
3.358725e+002, 3.264882e+004
3.363546e+002, 3.265573e+004
3.368367e+002, 3.263643e+004
3.373188e+002, 3.260954e+004
3.378009e+002, 3.259036e+004
3.382831e+002, 3.258213e+004
3.387652e+002, 3.257762e+004
3.392473e+002, 3.256695e+004
3.397294e+002, 3.254705e+004
3.402115e+002, 3.253043e+004
3.406936e+002, 3.251613e+004
3.411758e+002, 3.250514e+004
3.416579e+002, 3.250123e+004
3.421400e+002, 3.250164e+004
3.426221e+002, 3.249819e+004
3.431042e+002, 3.248255e+004
3.435863e+002, 3.245462e+004
3.440685e+002, 3.243517e+004
3.445506e+002, 3.242572e+004
3.450327e+002, 3.242413e+004
3.455148e+002, 3.243633e+004
3.459969e+002, 3.245506e+004
3.464790e+002, 3.246997e+004
3.469612e+002, 3.247561e+004
3.474433e+002, 3.247323e+004
3.479254e+002, 3.246698e+004
3.484075e+002, 3.245788e+004
3.488896e+002, 3.244241e+004
3.493717e+002, 3.241666e+004
3.498539e+002, 3.238735e+004
3.503360e+002, 3.235745e+004
3.508181e+002, 3.232876e+004
3.513002e+002, 3.230607e+004
3.517823e+002, 3.229825e+004
3.522644e+002, 3.231055e+004
3.527466e+002, 3.232092e+004
3.532287e+002, 3.234204e+004
3.537108e+002, 3.234983e+004
3.541929e+002, 3.232244e+004
3.546750e+002, 3.226576e+004
3.551571e+002, 3.220817e+004
3.556393e+002, 3.217415e+004
3.561214e+002, 3.216353e+004
3.566035e+002, 3.215955e+004
3.570856e+002, 3.217219e+004
3.575677e+002, 3.217968e+004
3.580498e+002, 3.217051e+004
3.585320e+002, 3.215176e+004
3.590141e+002, 3.213627e+004
3.594962e+002, 3.213210e+004
3.599783e+002, 3.213387e+004
3.604604e+002, 3.212549e+004
3.609425e+002, 3.209904e+004
3.614247e+002, 3.208081e+004
3.619068e+002, 3.208677e+004
3.623889e+002, 3.209926e+004
3.628710e+002, 3.210213e+004
3.633531e+002, 3.209075e+004
3.638352e+002, 3.207373e+004
3.643174e+002, 3.205833e+004
3.647995e+002, 3.204367e+004
3.652816e+002, 3.203964e+004
3.657637e+002, 3.206120e+004
3.662458e+002, 3.208210e+004
3.667279e+002, 3.208316e+004
3.672101e+002, 3.206622e+004
3.676922e+002, 3.204791e+004
3.681743e+002, 3.204669e+004
3.686564e+002, 3.205555e+004
3.691385e+002, 3.203747e+004
3.696206e+002, 3.197343e+004
3.701028e+002, 3.191688e+004
3.705849e+002, 3.190929e+004
3.710670e+002, 3.192953e+004
3.715491e+002, 3.194077e+004
3.720312e+002, 3.192683e+004
3.725133e+002, 3.190100e+004
3.729955e+002, 3.188232e+004
3.734776e+002, 3.187183e+004
3.739597e+002, 3.185829e+004
3.744418e+002, 3.183093e+004
3.749239e+002, 3.180158e+004
3.754060e+002, 3.178509e+004
3.758882e+002, 3.178396e+004
3.763703e+002, 3.178999e+004
3.768524e+002, 3.180279e+004
3.773345e+002, 3.181931e+004
3.778166e+002, 3.182806e+004
3.782987e+002, 3.182796e+004
3.787809e+002, 3.181620e+004
3.792630e+002, 3.178267e+004
3.797451e+002, 3.173047e+004
3.802272e+002, 3.168690e+004
3.807093e+002, 3.165949e+004
3.811914e+002, 3.164637e+004
3.816736e+002, 3.165395e+004
3.821557e+002, 3.168386e+004
3.826378e+002, 3.170184e+004
3.831199e+002, 3.167453e+004
3.836020e+002, 3.161382e+004
3.840841e+002, 3.157759e+004
3.845663e+002, 3.158954e+004
3.850484e+002, 3.160338e+004
3.855305e+002, 3.158821e+004
3.860126e+002, 3.155229e+004
3.864947e+002, 3.152188e+004
3.869768e+002, 3.150839e+004
3.874590e+002, 3.150491e+004
3.879411e+002, 3.149719e+004
3.884232e+002, 3.148379e+004
3.889053e+002, 3.147130e+004
3.893874e+002, 3.145554e+004
3.898695e+002, 3.144394e+004
3.903517e+002, 3.145042e+004
3.908338e+002, 3.147650e+004
3.913159e+002, 3.150187e+004
3.917980e+002, 3.150662e+004
3.922801e+002, 3.148846e+004
3.927622e+002, 3.146030e+004
3.932444e+002, 3.140844e+004
3.937265e+002, 3.136054e+004
3.942086e+002, 3.132787e+004
3.946907e+002, 3.131074e+004
3.951728e+002, 3.131072e+004
3.956549e+002, 3.133137e+004
3.961371e+002, 3.136326e+004
3.966192e+002, 3.136775e+004
3.971013e+002, 3.129976e+004
3.975834e+002, 3.126026e+004
3.980655e+002, 3.127888e+004
3.985476e+002, 3.131807e+004
3.990298e+002, 3.134264e+004
3.995119e+002, 3.134243e+004
3.999940e+002, 3.132628e+004
4.004761e+002, 3.130441e+004
4.009582e+002, 3.127304e+004
4.014403e+002, 3.124956e+004
4.019225e+002, 3.123901e+004
4.024046e+002, 3.123047e+004
4.028867e+002, 3.121569e+004
4.033688e+002, 3.119851e+004
4.038509e+002, 3.119193e+004
4.043330e+002, 3.120857e+004
4.048152e+002, 3.123965e+004
4.052973e+002, 3.123262e+004
4.057794e+002, 3.114784e+004
4.062615e+002, 3.108376e+004
4.067436e+002, 3.106868e+004
4.072257e+002, 3.107576e+004
4.077079e+002, 3.108007e+004
4.081900e+002, 3.107363e+004
4.086721e+002, 3.106098e+004
4.091542e+002, 3.104725e+004
4.096363e+002, 3.103169e+004
4.101184e+002, 3.101865e+004
4.106006e+002, 3.101601e+004
4.110827e+002, 3.100907e+004
4.115648e+002, 3.098156e+004
4.120469e+002, 3.094127e+004
4.125290e+002, 3.091533e+004
4.130111e+002, 3.093141e+004
4.134933e+002, 3.097355e+004
4.139754e+002, 3.098903e+004
4.144575e+002, 3.097166e+004
4.149396e+002, 3.094443e+004
4.154217e+002, 3.090584e+004
4.159038e+002, 3.086836e+004
4.163860e+002, 3.084736e+004
4.168681e+002, 3.084700e+004
4.173502e+002, 3.086060e+004
4.178323e+002, 3.089379e+004
4.183144e+002, 3.094196e+004
4.187965e+002, 3.096185e+004
4.192787e+002, 3.093174e+004
4.197608e+002, 3.088513e+004
4.202429e+002, 3.086117e+004
4.207250e+002, 3.085756e+004
4.212071e+002, 3.084687e+004
4.216892e+002, 3.080365e+004
4.221714e+002, 3.075522e+004
4.226535e+002, 3.074674e+004
4.231356e+002, 3.078149e+004
4.236177e+002, 3.081080e+004
4.240998e+002, 3.079791e+004
4.245819e+002, 3.075357e+004
4.250641e+002, 3.072891e+004
4.255462e+002, 3.073560e+004
4.260283e+002, 3.074682e+004
4.265104e+002, 3.075611e+004
4.269925e+002, 3.076137e+004
4.274746e+002, 3.075724e+004
4.279568e+002, 3.074146e+004
4.284389e+002, 3.071985e+004
4.289210e+002, 3.070082e+004
4.294031e+002, 3.068579e+004
4.298852e+002, 3.066987e+004
4.303673e+002, 3.065207e+004
4.308495e+002, 3.063417e+004
4.313316e+002, 3.061696e+004
4.318137e+002, 3.060065e+004
4.322958e+002, 3.058470e+004
4.327779e+002, 3.056804e+004
4.332600e+002, 3.055160e+004
4.337422e+002, 3.054346e+004
4.342243e+002, 3.056011e+004
4.347064e+002, 3.056510e+004
4.351885e+002, 3.054363e+004
4.356706e+002, 3.051291e+004
4.361527e+002, 3.049076e+004
4.366349e+002, 3.048268e+004
4.371170e+002, 3.048353e+004
4.375991e+002, 3.048691e+004
4.380812e+002, 3.049358e+004
4.385633e+002, 3.049960e+004
4.390454e+002, 3.051273e+004
4.395276e+002, 3.051765e+004
4.400097e+002, 3.050446e+004
4.404918e+002, 3.047812e+004
4.409739e+002, 3.044882e+004
4.414560e+002, 3.042084e+004
4.419381e+002, 3.039706e+004
4.424203e+002, 3.038984e+004
4.429024e+002, 3.041161e+004
4.433845e+002, 3.041718e+004
4.438666e+002, 3.037808e+004
4.443487e+002, 3.032630e+004
4.448308e+002, 3.028505e+004
4.453130e+002, 3.025855e+004
4.457951e+002, 3.024147e+004
4.462772e+002, 3.023430e+004
4.467593e+002, 3.023432e+004
4.472414e+002, 3.022549e+004
4.477235e+002, 3.020080e+004
4.482057e+002, 3.017819e+004
4.486878e+002, 3.017729e+004
4.491699e+002, 3.018908e+004
4.496520e+002, 3.019232e+004
4.501341e+002, 3.017737e+004
4.506162e+002, 3.015561e+004
4.510984e+002, 3.013413e+004
4.515805e+002, 3.011373e+004
4.520626e+002, 3.010110e+004
4.525447e+002, 3.010164e+004
4.530268e+002, 3.010733e+004
4.535089e+002, 3.009975e+004
4.539911e+002, 3.007352e+004
4.544732e+002, 3.006010e+004
4.549553e+002, 3.007998e+004
4.554374e+002, 3.010814e+004
4.559195e+002, 3.012021e+004
4.564016e+002, 3.011321e+004
4.568838e+002, 3.009259e+004
4.573659e+002, 3.005995e+004
4.578480e+002, 3.001649e+004
4.583301e+002, 2.998438e+004
4.588122e+002, 2.996622e+004
4.592943e+002, 2.995412e+004
4.597765e+002, 2.995332e+004
4.602586e+002, 2.995482e+004
4.607407e+002, 2.994462e+004
4.612228e+002, 2.991887e+004
4.617049e+002, 2.988922e+004
4.621870e+002, 2.987470e+004
4.626692e+002, 2.988460e+004
4.631513e+002, 2.988027e+004
4.636334e+002, 2.984319e+004
4.641155e+002, 2.981129e+004
4.645976e+002, 2.980642e+004
4.650797e+002, 2.981965e+004
4.655619e+002, 2.982857e+004
4.660440e+002, 2.981937e+004
4.665261e+002, 2.979805e+004
4.670082e+002, 2.978226e+004
4.674903e+002, 2.977671e+004
4.679724e+002, 2.976364e+004
4.684546e+002, 2.972460e+004
4.689367e+002, 2.968582e+004
4.694188e+002, 2.966938e+004
4.699009e+002, 2.967623e+004
4.703830e+002, 2.968589e+004
4.708651e+002, 2.968357e+004
4.713473e+002, 2.967127e+004
4.718294e+002, 2.965482e+004
4.723115e+002, 2.963174e+004
4.727936e+002, 2.961245e+004
4.732757e+002, 2.961004e+004
4.737578e+002, 2.961490e+004
4.742400e+002, 2.960857e+004
4.747221e+002, 2.958324e+004
4.752042e+002, 2.955443e+004
4.756863e+002, 2.953038e+004
4.761684e+002, 2.951111e+004
4.766505e+002, 2.949774e+004
4.771327e+002, 2.949138e+004
4.776148e+002, 2.948787e+004
4.780969e+002, 2.948272e+004
4.785790e+002, 2.947623e+004
4.790611e+002, 2.946616e+004
4.795432e+002, 2.945534e+004
4.800254e+002, 2.943879e+004
4.805075e+002, 2.941081e+004
4.809896e+002, 2.937422e+004
4.814717e+002, 2.933561e+004
4.819538e+002, 2.929779e+004
4.824359e+002, 2.926382e+004
4.829181e+002, 2.924250e+004
4.834002e+002, 2.924173e+004
4.838823e+002, 2.924304e+004
4.843644e+002, 2.925236e+004
4.848465e+002, 2.925891e+004
4.853286e+002, 2.925241e+004
4.858108e+002, 2.923416e+004
4.862929e+002, 2.921481e+004
4.867750e+002, 2.920439e+004
4.872571e+002, 2.920103e+004
4.877392e+002, 2.918723e+004
4.882213e+002, 2.915211e+004
4.887035e+002, 2.912420e+004
4.891856e+002, 2.911707e+004
4.896677e+002, 2.911660e+004
4.901498e+002, 2.910445e+004
4.906319e+002, 2.907613e+004
4.911140e+002, 2.905309e+004
4.915962e+002, 2.906863e+004
4.920783e+002, 2.911523e+004
4.925604e+002, 2.912758e+004
4.930425e+002, 2.908689e+004
4.935246e+002, 2.903530e+004
4.940067e+002, 2.900323e+004
4.944889e+002, 2.898361e+004
4.949710e+002, 2.896050e+004
4.954531e+002, 2.892212e+004
4.959352e+002, 2.888880e+004
4.964173e+002, 2.888570e+004
4.968994e+002, 2.890326e+004
4.973816e+002, 2.890401e+004
4.978637e+002, 2.887306e+004
4.983458e+002, 2.882897e+004
4.988279e+002, 2.879777e+004
4.993100e+002, 2.878204e+004
4.997921e+002, 2.876699e+004
5.002743e+002, 2.875826e+004
5.007564e+002, 2.874454e+004
5.012385e+002, 2.871031e+004
5.017206e+002, 2.866371e+004
5.022027e+002, 2.863157e+004
5.026848e+002, 2.863034e+004
5.031670e+002, 2.864709e+004
5.036491e+002, 2.864316e+004
5.041312e+002, 2.859899e+004
5.046133e+002, 2.856532e+004
5.050954e+002, 2.854946e+004
5.055775e+002, 2.853893e+004
5.060597e+002, 2.852358e+004
5.065418e+002, 2.850463e+004
5.070239e+002, 2.849243e+004
5.075060e+002, 2.849845e+004
5.079881e+002, 2.851654e+004
5.084702e+002, 2.851610e+004
5.089524e+002, 2.849033e+004
5.094345e+002, 2.846140e+004
5.099166e+002, 2.843323e+004
5.103987e+002, 2.840738e+004
5.108808e+002, 2.838335e+004
5.113629e+002, 2.836102e+004
5.118451e+002, 2.834877e+004
5.123271e+002, 2.836461e+004
5.128093e+002, 2.839517e+004
5.132914e+002, 2.839975e+004
5.137735e+002, 2.837140e+004
5.142556e+002, 2.833397e+004
5.147377e+002, 2.829918e+004
5.152198e+002, 2.826861e+004
5.157020e+002, 2.824584e+004
5.161841e+002, 2.823403e+004
5.166662e+002, 2.822551e+004
5.171483e+002, 2.822265e+004
5.176304e+002, 2.821915e+004
5.181125e+002, 2.820120e+004
5.185947e+002, 2.816576e+004
5.190768e+002, 2.812917e+004
5.195589e+002, 2.811073e+004
5.200410e+002, 2.811376e+004
5.205231e+002, 2.810148e+004
5.210052e+002, 2.805704e+004
5.214874e+002, 2.801874e+004
5.219695e+002, 2.799707e+004
5.224516e+002, 2.798944e+004
5.229337e+002, 2.799701e+004
5.234158e+002, 2.801907e+004
5.238979e+002, 2.803960e+004
5.243801e+002, 2.803142e+004
5.248622e+002, 2.798765e+004
5.253443e+002, 2.795186e+004
5.258264e+002, 2.792521e+004
5.263085e+002, 2.790750e+004
5.267906e+002, 2.790363e+004
5.272728e+002, 2.790754e+004
5.277549e+002, 2.790832e+004
5.282370e+002, 2.790193e+004
5.287191e+002, 2.788983e+004
5.292012e+002, 2.787234e+004
5.296833e+002, 2.784976e+004
5.301655e+002, 2.782721e+004
5.306476e+002, 2.780524e+004
5.311297e+002, 2.778468e+004
5.316118e+002, 2.776807e+004
5.320939e+002, 2.775465e+004
5.325760e+002, 2.773786e+004
5.330582e+002, 2.770878e+004
5.335403e+002, 2.768239e+004
5.340224e+002, 2.767284e+004
5.345045e+002, 2.767608e+004
5.349866e+002, 2.768014e+004
5.354688e+002, 2.768036e+004
5.359509e+002, 2.767611e+004
5.364330e+002, 2.766639e+004
5.369151e+002, 2.765275e+004
5.373972e+002, 2.762904e+004
5.378793e+002, 2.757869e+004
5.383615e+002, 2.753454e+004
5.388436e+002, 2.751481e+004
5.393257e+002, 2.751623e+004
5.398078e+002, 2.753117e+004
5.402899e+002, 2.755720e+004
5.407720e+002, 2.758370e+004
5.412542e+002, 2.758325e+004
5.417363e+002, 2.754633e+004
5.422184e+002, 2.751379e+004
5.427005e+002, 2.749462e+004
5.431826e+002, 2.747891e+004
5.436647e+002, 2.746179e+004
5.441469e+002, 2.744313e+004
5.446290e+002, 2.742357e+004
5.451111e+002, 2.740097e+004
5.455932e+002, 2.737942e+004
5.460753e+002, 2.736639e+004
5.465574e+002, 2.736164e+004
5.470396e+002, 2.735691e+004
5.475217e+002, 2.734896e+004
5.480038e+002, 2.733992e+004
5.484859e+002, 2.733473e+004
5.489680e+002, 2.733476e+004
5.494501e+002, 2.732763e+004
5.499323e+002, 2.730734e+004
5.504144e+002, 2.728236e+004
5.508965e+002, 2.726050e+004
5.513786e+002, 2.724020e+004
5.518607e+002, 2.721154e+004
5.523428e+002, 2.716779e+004
5.528250e+002, 2.712032e+004
5.533071e+002, 2.709946e+004
5.537892e+002, 2.713463e+004
5.542713e+002, 2.714263e+004
5.547534e+002, 2.710616e+004
5.552355e+002, 2.706213e+004
5.557177e+002, 2.702743e+004
5.561998e+002, 2.700323e+004
5.566819e+002, 2.698656e+004
5.571640e+002, 2.697700e+004
5.576461e+002, 2.697123e+004
5.581282e+002, 2.696213e+004
5.586104e+002, 2.694923e+004
5.590925e+002, 2.693605e+004
5.595746e+002, 2.692486e+004
5.600567e+002, 2.691193e+004
5.605388e+002, 2.689303e+004
5.610209e+002, 2.686903e+004
5.615031e+002, 2.684592e+004
5.619852e+002, 2.681959e+004
5.624673e+002, 2.679986e+004
5.629494e+002, 2.680306e+004
5.634315e+002, 2.682411e+004
5.639136e+002, 2.683867e+004
5.643958e+002, 2.683661e+004
5.648779e+002, 2.682348e+004
5.653600e+002, 2.680821e+004
5.658421e+002, 2.679021e+004
5.663242e+002, 2.677146e+004
5.668063e+002, 2.675054e+004
5.672885e+002, 2.673000e+004
5.677706e+002, 2.671263e+004
5.682527e+002, 2.669656e+004
5.687348e+002, 2.667586e+004
5.692169e+002, 2.664719e+004
5.696990e+002, 2.661930e+004
5.701812e+002, 2.661219e+004
5.706633e+002, 2.663339e+004
5.711454e+002, 2.664529e+004
5.716275e+002, 2.664438e+004
5.721096e+002, 2.663371e+004
5.725917e+002, 2.660786e+004
5.730739e+002, 2.657416e+004
5.735560e+002, 2.654940e+004
5.740381e+002, 2.654330e+004
5.745202e+002, 2.654260e+004
5.750023e+002, 2.653285e+004
5.754844e+002, 2.651531e+004
5.759666e+002, 2.649492e+004
5.764487e+002, 2.647016e+004
5.769308e+002, 2.645207e+004
5.774129e+002, 2.645877e+004
5.778950e+002, 2.649057e+004
5.783771e+002, 2.649739e+004
5.788593e+002, 2.645620e+004
5.793414e+002, 2.641345e+004
5.798235e+002, 2.639094e+004
5.803056e+002, 2.638021e+004
5.807877e+002, 2.636388e+004
5.812698e+002, 2.633745e+004
5.817520e+002, 2.631653e+004
5.822341e+002, 2.632561e+004
5.827162e+002, 2.637112e+004
5.831984e+002, 2.638431e+004
5.836805e+002, 2.633805e+004
5.841626e+002, 2.629205e+004
5.846447e+002, 2.626428e+004
5.851268e+002, 2.624528e+004
5.856089e+002, 2.622128e+004
5.860911e+002, 2.618848e+004
5.865732e+002, 2.616051e+004
5.870553e+002, 2.615623e+004
5.875374e+002, 2.616798e+004
5.880195e+002, 2.616521e+004
5.885016e+002, 2.614337e+004
5.889838e+002, 2.611786e+004
5.894659e+002, 2.609793e+004
5.899480e+002, 2.608159e+004
5.904301e+002, 2.606163e+004
5.909122e+002, 2.603175e+004
5.913943e+002, 2.601089e+004
5.918765e+002, 2.601403e+004
5.923586e+002, 2.602355e+004
5.928407e+002, 2.601764e+004
5.933228e+002, 2.599650e+004
5.938049e+002, 2.597965e+004
5.942870e+002, 2.598388e+004
5.947692e+002, 2.600036e+004
5.952513e+002, 2.598479e+004
5.957334e+002, 2.590573e+004
5.962155e+002, 2.585069e+004
5.966976e+002, 2.584140e+004
5.971797e+002, 2.584554e+004
5.976619e+002, 2.584628e+004
5.981440e+002, 2.584065e+004
5.986261e+002, 2.582753e+004
5.991082e+002, 2.579908e+004
5.995903e+002, 2.576922e+004
6.000724e+002, 2.577009e+004
6.005546e+002, 2.580175e+004
6.010367e+002, 2.582120e+004
6.015188e+002, 2.581307e+004
6.020009e+002, 2.578979e+004
6.024830e+002, 2.576369e+004
6.029651e+002, 2.573469e+004
6.034473e+002, 2.570794e+004
6.039294e+002, 2.567663e+004
6.044115e+002, 2.565505e+004
6.048936e+002, 2.566489e+004
6.053757e+002, 2.568902e+004
6.058578e+002, 2.569033e+004
6.063400e+002, 2.565574e+004
6.068221e+002, 2.560813e+004
6.073042e+002, 2.558109e+004
6.077863e+002, 2.557979e+004
6.082684e+002, 2.556697e+004
6.087505e+002, 2.553589e+004
6.092327e+002, 2.550123e+004
6.097148e+002, 2.545720e+004
6.101969e+002, 2.541685e+004
6.106790e+002, 2.540060e+004
6.111611e+002, 2.541476e+004
6.116432e+002, 2.543063e+004
6.121254e+002, 2.542169e+004
6.126075e+002, 2.539413e+004
6.130896e+002, 2.536500e+004
6.135717e+002, 2.533436e+004
6.140538e+002, 2.531054e+004
6.145359e+002, 2.530085e+004
6.150181e+002, 2.530036e+004
6.155002e+002, 2.529436e+004
6.159823e+002, 2.527800e+004
6.164644e+002, 2.526696e+004
6.169465e+002, 2.527572e+004
6.174286e+002, 2.528243e+004
6.179108e+002, 2.526034e+004
6.183929e+002, 2.521694e+004
6.188750e+002, 2.518505e+004
6.193571e+002, 2.518654e+004
6.198392e+002, 2.520669e+004
6.203214e+002, 2.520557e+004
6.208035e+002, 2.517581e+004
6.212856e+002, 2.514784e+004
6.217677e+002, 2.512756e+004
6.222498e+002, 2.510742e+004
6.227319e+002, 2.508070e+004
6.232141e+002, 2.505117e+004
6.236962e+002, 2.502874e+004
6.241783e+002, 2.501916e+004
6.246604e+002, 2.501446e+004
6.251425e+002, 2.500873e+004
6.256246e+002, 2.500151e+004
6.261068e+002, 2.499166e+004
6.265889e+002, 2.497910e+004
6.270710e+002, 2.496136e+004
6.275531e+002, 2.493286e+004
6.280352e+002, 2.489483e+004
6.285173e+002, 2.487541e+004
6.289995e+002, 2.489379e+004
6.294816e+002, 2.490346e+004
6.299637e+002, 2.488675e+004
6.304458e+002, 2.486192e+004
6.309279e+002, 2.484613e+004
6.314100e+002, 2.484168e+004
6.318922e+002, 2.484172e+004
6.323743e+002, 2.484221e+004
6.328564e+002, 2.484145e+004
6.333385e+002, 2.483335e+004
6.338206e+002, 2.481720e+004
6.343027e+002, 2.479531e+004
6.347849e+002, 2.476138e+004
6.352670e+002, 2.472824e+004
6.357491e+002, 2.470908e+004
6.362312e+002, 2.470261e+004
6.367133e+002, 2.469666e+004
6.371954e+002, 2.469199e+004
6.376776e+002, 2.468243e+004
6.381597e+002, 2.466138e+004
6.386418e+002, 2.463178e+004
6.391239e+002, 2.460041e+004
6.396060e+002, 2.456973e+004
6.400881e+002, 2.453872e+004
6.405703e+002, 2.450528e+004
6.410524e+002, 2.446859e+004
6.415345e+002, 2.444164e+004
6.420166e+002, 2.443025e+004
6.424987e+002, 2.442291e+004
6.429808e+002, 2.442820e+004
6.434630e+002, 2.443043e+004
6.439451e+002, 2.440644e+004
6.444272e+002, 2.435547e+004
6.449093e+002, 2.431101e+004
6.453914e+002, 2.430406e+004
6.458735e+002, 2.432189e+004
6.463557e+002, 2.433823e+004
6.468378e+002, 2.435325e+004
6.473199e+002, 2.435251e+004
6.478020e+002, 2.432607e+004
6.482841e+002, 2.428622e+004
6.487662e+002, 2.425030e+004
6.492484e+002, 2.421709e+004
6.497305e+002, 2.419330e+004
6.502126e+002, 2.418968e+004
6.506947e+002, 2.418537e+004
6.511768e+002, 2.416438e+004
6.516589e+002, 2.413573e+004
6.521411e+002, 2.411690e+004
6.526232e+002, 2.411379e+004
6.531053e+002, 2.411775e+004
6.535874e+002, 2.412012e+004
6.540695e+002, 2.412100e+004
6.545516e+002, 2.411007e+004
6.550338e+002, 2.408019e+004
6.555159e+002, 2.405294e+004
6.559980e+002, 2.403964e+004
6.564801e+002, 2.403300e+004
6.569622e+002, 2.402830e+004
6.574443e+002, 2.402609e+004
6.579265e+002, 2.401430e+004
6.584086e+002, 2.397313e+004
6.588907e+002, 2.392958e+004
6.593728e+002, 2.392092e+004
6.598549e+002, 2.393945e+004
6.603370e+002, 2.394597e+004
6.608192e+002, 2.392188e+004
6.613013e+002, 2.388284e+004
6.617834e+002, 2.385611e+004
6.622655e+002, 2.384456e+004
6.627476e+002, 2.383423e+004
6.632297e+002, 2.382496e+004
6.637119e+002, 2.381722e+004
6.641940e+002, 2.381614e+004
6.646761e+002, 2.381464e+004
6.651582e+002, 2.380365e+004
6.656403e+002, 2.378075e+004
6.661224e+002, 2.375036e+004
6.666046e+002, 2.370944e+004
6.670867e+002, 2.366523e+004
6.675688e+002, 2.363597e+004
6.680509e+002, 2.362297e+004
6.685330e+002, 2.361424e+004
6.690151e+002, 2.360410e+004
6.694973e+002, 2.359463e+004
6.699794e+002, 2.359146e+004
6.704615e+002, 2.360201e+004
6.709436e+002, 2.359767e+004
6.714257e+002, 2.356467e+004
6.719078e+002, 2.353019e+004
6.723900e+002, 2.350736e+004
6.728721e+002, 2.349290e+004
6.733542e+002, 2.347946e+004
6.738363e+002, 2.346434e+004
6.743184e+002, 2.345061e+004
6.748005e+002, 2.344241e+004
6.752827e+002, 2.343918e+004
6.757648e+002, 2.343742e+004
6.762469e+002, 2.343927e+004
6.767290e+002, 2.343400e+004
6.772111e+002, 2.341164e+004
6.776932e+002, 2.338195e+004
6.781754e+002, 2.336367e+004
6.786575e+002, 2.336016e+004
6.791396e+002, 2.334979e+004
6.796217e+002, 2.331856e+004
6.801038e+002, 2.328667e+004
6.805859e+002, 2.327487e+004
6.810681e+002, 2.327424e+004
6.815502e+002, 2.325971e+004
6.820323e+002, 2.322206e+004
6.825144e+002, 2.318093e+004
6.829965e+002, 2.316692e+004
6.834786e+002, 2.318215e+004
6.839608e+002, 2.318995e+004
6.844429e+002, 2.319089e+004
6.849250e+002, 2.318301e+004
6.854071e+002, 2.315654e+004
6.858892e+002, 2.312551e+004
6.863713e+002, 2.310471e+004
6.868535e+002, 2.309574e+004
6.873356e+002, 2.309122e+004
6.878177e+002, 2.309405e+004
6.882998e+002, 2.309511e+004
6.887819e+002, 2.308280e+004
6.892640e+002, 2.306023e+004
6.897462e+002, 2.303809e+004
6.902283e+002, 2.302036e+004
6.907104e+002, 2.300650e+004
6.911925e+002, 2.299585e+004
6.916746e+002, 2.298848e+004
6.921567e+002, 2.298467e+004
6.926389e+002, 2.300064e+004
6.931210e+002, 2.299736e+004
6.936031e+002, 2.294716e+004
6.940852e+002, 2.288514e+004
6.945673e+002, 2.284615e+004
6.950494e+002, 2.283435e+004
6.955316e+002, 2.283283e+004
6.960137e+002, 2.283694e+004
6.964958e+002, 2.284251e+004
6.969779e+002, 2.284812e+004
6.974600e+002, 2.285128e+004
6.979421e+002, 2.283973e+004
6.984243e+002, 2.280846e+004
6.989064e+002, 2.276688e+004
6.993885e+002, 2.272388e+004
6.998706e+002, 2.267784e+004
7.003527e+002, 2.265211e+004
7.008348e+002, 2.266716e+004
7.013170e+002, 2.267783e+004
7.017991e+002, 2.267778e+004
7.022812e+002, 2.266897e+004
7.027633e+002, 2.265091e+004
7.032454e+002, 2.262515e+004
7.037275e+002, 2.259826e+004
7.042097e+002, 2.256890e+004
7.046918e+002, 2.254535e+004
7.051739e+002, 2.254657e+004
7.056560e+002, 2.256792e+004
7.061381e+002, 2.257915e+004
7.066202e+002, 2.257115e+004
7.071024e+002, 2.255500e+004
7.075845e+002, 2.254151e+004
7.080666e+002, 2.253042e+004
7.085487e+002, 2.251651e+004
7.090308e+002, 2.249505e+004
7.095129e+002, 2.247689e+004
7.099951e+002, 2.246545e+004
7.104772e+002, 2.245631e+004
7.109593e+002, 2.244678e+004
7.114414e+002, 2.243607e+004
7.119235e+002, 2.242462e+004
7.124056e+002, 2.241465e+004
7.128878e+002, 2.239985e+004
7.133699e+002, 2.236219e+004
7.138520e+002, 2.230697e+004
7.143341e+002, 2.227700e+004
7.148162e+002, 2.228461e+004
7.152983e+002, 2.229608e+004
7.157805e+002, 2.228408e+004
7.162626e+002, 2.225291e+004
7.167447e+002, 2.222672e+004
7.172268e+002, 2.220831e+004
7.177089e+002, 2.219088e+004
7.181910e+002, 2.217316e+004
7.186732e+002, 2.215707e+004
7.191553e+002, 2.214239e+004
7.196374e+002, 2.213065e+004
7.201195e+002, 2.212740e+004
7.206016e+002, 2.213710e+004
7.210837e+002, 2.214459e+004
7.215659e+002, 2.212353e+004
7.220480e+002, 2.208039e+004
7.225301e+002, 2.205394e+004
7.230122e+002, 2.205043e+004
7.234943e+002, 2.204674e+004
7.239764e+002, 2.202689e+004
7.244586e+002, 2.199907e+004
7.249407e+002, 2.198523e+004
7.254228e+002, 2.199452e+004
7.259049e+002, 2.199448e+004
7.263870e+002, 2.197398e+004
7.268691e+002, 2.195317e+004
7.273513e+002, 2.194386e+004
7.278334e+002, 2.194174e+004
7.283155e+002, 2.193806e+004
7.287976e+002, 2.193006e+004
7.292797e+002, 2.192296e+004
7.297618e+002, 2.192945e+004
7.302440e+002, 2.194153e+004
7.307261e+002, 2.192364e+004
7.312082e+002, 2.187249e+004
7.316903e+002, 2.182960e+004
7.321724e+002, 2.181171e+004
7.326545e+002, 2.181126e+004
7.331367e+002, 2.182253e+004
7.336188e+002, 2.185153e+004
7.341009e+002, 2.185461e+004
7.345830e+002, 2.181043e+004
7.350651e+002, 2.176620e+004
7.355472e+002, 2.173295e+004
7.360294e+002, 2.171105e+004
7.365115e+002, 2.170577e+004
7.369936e+002, 2.171389e+004
7.374757e+002, 2.171753e+004
7.379578e+002, 2.170297e+004
7.384399e+002, 2.167557e+004
7.389221e+002, 2.163814e+004
7.394042e+002, 2.159272e+004
7.398863e+002, 2.157472e+004
7.403684e+002, 2.159919e+004
7.408505e+002, 2.162889e+004
7.413326e+002, 2.163121e+004
7.418148e+002, 2.160744e+004
7.422969e+002, 2.157222e+004
7.427790e+002, 2.150362e+004
7.432611e+002, 2.145491e+004
7.437432e+002, 2.144211e+004
7.442253e+002, 2.144326e+004
7.447075e+002, 2.144844e+004
7.451896e+002, 2.145287e+004
7.456717e+002, 2.145066e+004
7.461538e+002, 2.143923e+004
7.466359e+002, 2.141945e+004
7.471180e+002, 2.138378e+004
7.476002e+002, 2.134019e+004
7.480823e+002, 2.132308e+004
7.485644e+002, 2.133762e+004
7.490465e+002, 2.134401e+004
7.495286e+002, 2.131478e+004
7.500107e+002, 2.126828e+004
7.504929e+002, 2.124928e+004
7.509750e+002, 2.127674e+004
7.514571e+002, 2.128467e+004
7.519392e+002, 2.126032e+004
7.524213e+002, 2.123233e+004
7.529034e+002, 2.121052e+004
7.533856e+002, 2.119246e+004
7.538677e+002, 2.117196e+004
7.543498e+002, 2.114809e+004
7.548319e+002, 2.113081e+004
7.553140e+002, 2.113346e+004
7.557961e+002, 2.114429e+004
7.562783e+002, 2.114182e+004
7.567604e+002, 2.112845e+004
7.572425e+002, 2.112150e+004
7.577246e+002, 2.112750e+004
7.582067e+002, 2.113318e+004
7.586888e+002, 2.112129e+004
7.591710e+002, 2.109195e+004
7.596531e+002, 2.107687e+004
7.601352e+002, 2.109358e+004
7.606173e+002, 2.109747e+004
7.610994e+002, 2.107063e+004
7.615815e+002, 2.103903e+004
7.620637e+002, 2.102318e+004
7.625458e+002, 2.101984e+004
7.630279e+002, 2.101246e+004
7.635100e+002, 2.099369e+004
7.639921e+002, 2.097063e+004
7.644742e+002, 2.094751e+004
7.649564e+002, 2.092471e+004
7.654385e+002, 2.090206e+004
7.659206e+002, 2.088000e+004
7.664027e+002, 2.086201e+004
7.668848e+002, 2.085033e+004
7.673669e+002, 2.084428e+004
7.678491e+002, 2.084303e+004
7.683312e+002, 2.084832e+004
7.688133e+002, 2.085333e+004
7.692954e+002, 2.087044e+004
7.697775e+002, 2.086921e+004
7.702596e+002, 2.081488e+004
7.707418e+002, 2.074526e+004
7.712239e+002, 2.071443e+004
7.717060e+002, 2.073179e+004
7.721881e+002, 2.074391e+004
7.726702e+002, 2.072442e+004
7.731523e+002, 2.069730e+004
7.736345e+002, 2.067907e+004
7.741166e+002, 2.066892e+004
7.745987e+002, 2.066640e+004
7.750808e+002, 2.066989e+004
7.755629e+002, 2.066917e+004
7.760450e+002, 2.065274e+004
7.765272e+002, 2.062425e+004
7.770093e+002, 2.060124e+004
7.774914e+002, 2.058510e+004
7.779735e+002, 2.056689e+004
7.784556e+002, 2.054229e+004
7.789377e+002, 2.051827e+004
7.794199e+002, 2.049911e+004
7.799020e+002, 2.048547e+004
7.803841e+002, 2.048010e+004
7.808662e+002, 2.049166e+004
7.813483e+002, 2.049857e+004
7.818304e+002, 2.049232e+004
7.823126e+002, 2.048209e+004
7.827947e+002, 2.047633e+004
7.832768e+002, 2.047301e+004
7.837589e+002, 2.046489e+004
7.842410e+002, 2.044858e+004
7.847231e+002, 2.042919e+004
7.852053e+002, 2.041307e+004
7.856874e+002, 2.039922e+004
7.861695e+002, 2.038175e+004
7.866516e+002, 2.036008e+004
7.871337e+002, 2.034586e+004
7.876158e+002, 2.034779e+004
7.880980e+002, 2.035154e+004
7.885801e+002, 2.033306e+004
7.890622e+002, 2.028680e+004
7.895443e+002, 2.025569e+004
7.900264e+002, 2.025022e+004
7.905085e+002, 2.024624e+004
7.909907e+002, 2.023578e+004
7.914728e+002, 2.022667e+004
7.919549e+002, 2.023048e+004
7.924370e+002, 2.024403e+004
7.929191e+002, 2.024967e+004
7.934012e+002, 2.023816e+004
7.938834e+002, 2.021596e+004
7.943655e+002, 2.018087e+004
7.948476e+002, 2.014185e+004
7.953297e+002, 2.012175e+004
7.958118e+002, 2.012156e+004
7.962939e+002, 2.011909e+004
7.967761e+002, 2.009912e+004
7.972582e+002, 2.007079e+004
7.977403e+002, 2.005748e+004
7.982224e+002, 2.006371e+004
7.987045e+002, 2.006578e+004
7.991866e+002, 2.006549e+004
7.996688e+002, 2.005769e+004
8.001509e+002, 2.003482e+004
8.006330e+002, 2.000591e+004
8.011151e+002, 1.997824e+004
8.015972e+002, 1.995153e+004
8.020793e+002, 1.994063e+004
8.025615e+002, 1.996530e+004
8.030436e+002, 1.999114e+004
8.035257e+002, 1.999601e+004
8.040078e+002, 1.998880e+004
8.044899e+002, 1.998458e+004
8.049720e+002, 1.998520e+004
8.054542e+002, 1.997979e+004
8.059363e+002, 1.995763e+004
8.064184e+002, 1.992792e+004
8.069005e+002, 1.991431e+004
8.073826e+002, 1.991564e+004
8.078647e+002, 1.990468e+004
8.083469e+002, 1.987350e+004
8.088290e+002, 1.984519e+004
8.093111e+002, 1.983693e+004
8.097932e+002, 1.984259e+004
8.102753e+002, 1.984407e+004
8.107574e+002, 1.984314e+004
8.112396e+002, 1.983378e+004
8.117217e+002, 1.979756e+004
8.122038e+002, 1.977368e+004
8.126859e+002, 1.979773e+004
8.131680e+002, 1.983510e+004
8.136501e+002, 1.983520e+004
8.141323e+002, 1.978991e+004
8.146144e+002, 1.974065e+004
8.150965e+002, 1.971114e+004
8.155786e+002, 1.969245e+004
8.160607e+002, 1.967607e+004
8.165428e+002, 1.966198e+004
8.170250e+002, 1.965196e+004
8.175071e+002, 1.964582e+004
8.179892e+002, 1.963747e+004
8.184713e+002, 1.962121e+004
8.189534e+002, 1.959948e+004
8.194355e+002, 1.958026e+004
8.199177e+002, 1.956215e+004
8.203998e+002, 1.955242e+004
8.208819e+002, 1.955315e+004
8.213640e+002, 1.956035e+004
8.218461e+002, 1.958134e+004
8.223282e+002, 1.960391e+004
8.228104e+002, 1.960269e+004
8.232925e+002, 1.957126e+004
8.237746e+002, 1.953944e+004
8.242567e+002, 1.950664e+004
8.247388e+002, 1.948190e+004
8.252209e+002, 1.947886e+004
8.257031e+002, 1.948342e+004
8.261852e+002, 1.947353e+004
8.266673e+002, 1.944643e+004
8.271494e+002, 1.941923e+004
8.276315e+002, 1.940511e+004
8.281136e+002, 1.939870e+004
8.285958e+002, 1.939149e+004
8.290779e+002, 1.938367e+004
8.295600e+002, 1.937681e+004
8.300421e+002, 1.937120e+004
8.305242e+002, 1.936397e+004
8.310063e+002, 1.935291e+004
8.314885e+002, 1.933861e+004
8.319706e+002, 1.932235e+004
8.324527e+002, 1.929996e+004
8.329348e+002, 1.928632e+004
8.334169e+002, 1.928688e+004
8.338990e+002, 1.928940e+004
8.343812e+002, 1.929299e+004
8.348633e+002, 1.929361e+004
8.353454e+002, 1.928276e+004
8.358275e+002, 1.925934e+004
8.363096e+002, 1.924490e+004
8.367917e+002, 1.926105e+004
8.372739e+002, 1.927280e+004
8.377560e+002, 1.925135e+004
8.382381e+002, 1.921536e+004
8.387202e+002, 1.919097e+004
8.392023e+002, 1.918154e+004
8.396844e+002, 1.917631e+004
8.401666e+002, 1.916869e+004
8.406487e+002, 1.915946e+004
8.411308e+002, 1.915069e+004
8.416129e+002, 1.914185e+004
8.420950e+002, 1.912864e+004
8.425771e+002, 1.911020e+004
8.430593e+002, 1.909313e+004
8.435414e+002, 1.908248e+004
8.440235e+002, 1.907193e+004
8.445056e+002, 1.904767e+004
8.449877e+002, 1.900385e+004
8.454698e+002, 1.897688e+004
8.459520e+002, 1.898781e+004
8.464341e+002, 1.898792e+004
8.469162e+002, 1.894927e+004
8.473983e+002, 1.890854e+004
8.478804e+002, 1.890097e+004
8.483625e+002, 1.892303e+004
8.488447e+002, 1.894444e+004
8.493268e+002, 1.896338e+004
8.498089e+002, 1.896748e+004
8.502910e+002, 1.893717e+004
8.507731e+002, 1.889659e+004
8.512552e+002, 1.887625e+004
8.517374e+002, 1.887265e+004
8.522195e+002, 1.886277e+004
8.527016e+002, 1.883599e+004
8.531837e+002, 1.880641e+004
8.536658e+002, 1.879408e+004
8.541479e+002, 1.879505e+004
8.546301e+002, 1.879023e+004
8.551122e+002, 1.877928e+004
8.555943e+002, 1.876888e+004
8.560764e+002, 1.876183e+004
8.565585e+002, 1.875461e+004
8.570406e+002, 1.874425e+004
8.575228e+002, 1.873060e+004
8.580049e+002, 1.870928e+004
8.584870e+002, 1.866489e+004
8.589691e+002, 1.863983e+004
8.594512e+002, 1.865397e+004
8.599333e+002, 1.867129e+004
8.604155e+002, 1.867661e+004
8.608976e+002, 1.867084e+004
8.613797e+002, 1.865517e+004
8.618618e+002, 1.862788e+004
8.623439e+002, 1.860296e+004
8.628260e+002, 1.859027e+004
8.633082e+002, 1.857834e+004
8.637903e+002, 1.855425e+004
8.642724e+002, 1.852582e+004
8.647545e+002, 1.850586e+004
8.652366e+002, 1.849741e+004
8.657188e+002, 1.849798e+004
8.662009e+002, 1.850839e+004
8.666830e+002, 1.852131e+004
8.671651e+002, 1.852391e+004
8.676472e+002, 1.851637e+004
8.681293e+002, 1.849778e+004
8.686115e+002, 1.846739e+004
8.690936e+002, 1.843701e+004
8.695757e+002, 1.841251e+004
8.700578e+002, 1.839527e+004
8.705399e+002, 1.838946e+004
8.710220e+002, 1.839871e+004
8.715042e+002, 1.840129e+004
8.719863e+002, 1.839694e+004
8.724684e+002, 1.838650e+004
8.729505e+002, 1.836427e+004
8.734326e+002, 1.834059e+004
8.739147e+002, 1.832679e+004
8.743969e+002, 1.832100e+004
8.748790e+002, 1.830931e+004
8.753611e+002, 1.828304e+004
8.758432e+002, 1.825951e+004
8.763253e+002, 1.824724e+004
8.768074e+002, 1.823829e+004
8.772896e+002, 1.822427e+004
8.777717e+002, 1.820787e+004
8.782538e+002, 1.819623e+004
8.787359e+002, 1.819194e+004
8.792180e+002, 1.819367e+004
8.797001e+002, 1.820590e+004
8.801823e+002, 1.822031e+004
8.806644e+002, 1.821912e+004
8.811465e+002, 1.820546e+004
8.816286e+002, 1.819489e+004
8.821107e+002, 1.819128e+004
8.825928e+002, 1.818607e+004
8.830750e+002, 1.817144e+004
8.835571e+002, 1.815019e+004
8.840392e+002, 1.813261e+004
8.845213e+002, 1.811986e+004
8.850034e+002, 1.810391e+004
8.854855e+002, 1.808249e+004
8.859677e+002, 1.806177e+004
8.864498e+002, 1.804457e+004
8.869319e+002, 1.803044e+004
8.874140e+002, 1.801911e+004
8.878961e+002, 1.801119e+004
8.883782e+002, 1.800319e+004
8.888604e+002, 1.799816e+004
8.893425e+002, 1.798942e+004
8.898246e+002, 1.797045e+004
8.903067e+002, 1.795100e+004
8.907888e+002, 1.794267e+004
8.912709e+002, 1.794171e+004
8.917531e+002, 1.793372e+004
8.922352e+002, 1.791216e+004
8.927173e+002, 1.788757e+004
8.931994e+002, 1.786388e+004
8.936815e+002, 1.784355e+004
8.941636e+002, 1.783101e+004
8.946458e+002, 1.782414e+004
8.951279e+002, 1.781845e+004
8.956100e+002, 1.781200e+004
8.960921e+002, 1.780256e+004
8.965742e+002, 1.778555e+004
8.970563e+002, 1.776631e+004
8.975385e+002, 1.776022e+004
8.980206e+002, 1.776633e+004
8.985027e+002, 1.777617e+004
8.989848e+002, 1.778954e+004
8.994669e+002, 1.779034e+004
8.999490e+002, 1.776498e+004
9.004312e+002, 1.772614e+004
9.009133e+002, 1.770339e+004
9.013954e+002, 1.770107e+004
9.018775e+002, 1.769457e+004
9.023596e+002, 1.767870e+004
9.028417e+002, 1.766759e+004
9.033239e+002, 1.766968e+004
9.038060e+002, 1.767520e+004
9.042881e+002, 1.767724e+004
9.047702e+002, 1.767525e+004
9.052523e+002, 1.766584e+004
9.057344e+002, 1.764515e+004
9.062166e+002, 1.762228e+004
9.066987e+002, 1.759299e+004
9.071808e+002, 1.756832e+004
9.076629e+002, 1.755900e+004
9.081450e+002, 1.755925e+004
9.086271e+002, 1.755895e+004
9.091093e+002, 1.755520e+004
9.095914e+002, 1.754784e+004
9.100735e+002, 1.753443e+004
9.105556e+002, 1.751929e+004
9.110377e+002, 1.750971e+004
9.115198e+002, 1.750125e+004
9.120020e+002, 1.748229e+004
9.124841e+002, 1.745307e+004
9.129662e+002, 1.742553e+004
9.134483e+002, 1.740669e+004
9.139304e+002, 1.739718e+004
9.144125e+002, 1.740440e+004
9.148947e+002, 1.742442e+004
9.153768e+002, 1.742213e+004
9.158589e+002, 1.739521e+004
9.163410e+002, 1.736785e+004
9.168231e+002, 1.734783e+004
9.173052e+002, 1.733527e+004
9.177874e+002, 1.733210e+004
9.182695e+002, 1.733673e+004
9.187516e+002, 1.733316e+004
9.192337e+002, 1.731846e+004
9.197158e+002, 1.730250e+004
9.201979e+002, 1.728399e+004
9.206801e+002, 1.726717e+004
9.211622e+002, 1.725439e+004
9.216443e+002, 1.724469e+004
9.221264e+002, 1.723724e+004
9.226085e+002, 1.723231e+004
9.230906e+002, 1.722694e+004
9.235728e+002, 1.721810e+004
9.240549e+002, 1.721183e+004
9.245370e+002, 1.721118e+004
9.250191e+002, 1.721337e+004
9.255012e+002, 1.721741e+004
9.259833e+002, 1.722166e+004
9.264655e+002, 1.722323e+004
9.269476e+002, 1.722169e+004
9.274297e+002, 1.721414e+004
9.279118e+002, 1.719099e+004
9.283939e+002, 1.716669e+004
9.288760e+002, 1.716330e+004
9.293582e+002, 1.717086e+004
9.298403e+002, 1.716221e+004
9.303224e+002, 1.713271e+004
9.308045e+002, 1.710534e+004
9.312866e+002, 1.710044e+004
9.317687e+002, 1.710520e+004
9.322509e+002, 1.709399e+004
9.327330e+002, 1.707107e+004
9.332151e+002, 1.705768e+004
9.336972e+002, 1.705566e+004
9.341793e+002, 1.704619e+004
9.346614e+002, 1.701877e+004
9.351436e+002, 1.698966e+004
9.356257e+002, 1.698472e+004
9.361078e+002, 1.700225e+004
9.365899e+002, 1.700617e+004
9.370720e+002, 1.699376e+004
9.375541e+002, 1.697785e+004
9.380363e+002, 1.695834e+004
9.385184e+002, 1.694147e+004
9.390005e+002, 1.693443e+004
9.394826e+002, 1.693197e+004
9.399647e+002, 1.691783e+004
9.404468e+002, 1.688128e+004
9.409290e+002, 1.686218e+004
9.414111e+002, 1.688707e+004
9.418932e+002, 1.689488e+004
9.423753e+002, 1.684555e+004
9.428574e+002, 1.678894e+004
9.433395e+002, 1.677681e+004
9.438217e+002, 1.680197e+004
9.443038e+002, 1.681706e+004
9.447859e+002, 1.680651e+004
9.452680e+002, 1.679467e+004
9.457501e+002, 1.679309e+004
9.462322e+002, 1.679086e+004
9.467144e+002, 1.677775e+004
9.471965e+002, 1.675903e+004
9.476786e+002, 1.674381e+004
9.481607e+002, 1.673405e+004
9.486428e+002, 1.672588e+004
9.491249e+002, 1.671771e+004
9.496071e+002, 1.670903e+004
9.500892e+002, 1.669748e+004
9.505713e+002, 1.668603e+004
9.510534e+002, 1.668098e+004
9.515355e+002, 1.668137e+004
9.520176e+002, 1.668072e+004
9.524998e+002, 1.667616e+004
9.529819e+002, 1.667054e+004
9.534640e+002, 1.666885e+004
9.539461e+002, 1.666813e+004
9.544282e+002, 1.665751e+004
9.549103e+002, 1.663836e+004
9.553925e+002, 1.662126e+004
9.558746e+002, 1.660830e+004
9.563567e+002, 1.659904e+004
9.568388e+002, 1.659336e+004
9.573209e+002, 1.659042e+004
9.578030e+002, 1.658885e+004
9.582852e+002, 1.658887e+004
9.587673e+002, 1.658796e+004
9.592494e+002, 1.658670e+004
9.597315e+002, 1.658229e+004
9.602136e+002, 1.657413e+004
9.606957e+002, 1.656179e+004
9.611779e+002, 1.654348e+004
9.616600e+002, 1.652082e+004
9.621421e+002, 1.650275e+004
9.626242e+002, 1.649207e+004
9.631063e+002, 1.648054e+004
9.635884e+002, 1.646114e+004
9.640706e+002, 1.644997e+004
9.645527e+002, 1.646411e+004
9.650348e+002, 1.648189e+004
9.655169e+002, 1.647563e+004
9.659990e+002, 1.644674e+004
9.664811e+002, 1.642591e+004
9.669633e+002, 1.642041e+004
9.674454e+002, 1.641896e+004
9.679275e+002, 1.642696e+004
9.684096e+002, 1.643028e+004
9.688917e+002, 1.641237e+004
9.693738e+002, 1.638604e+004
9.698560e+002, 1.637613e+004
9.703381e+002, 1.638663e+004
9.708202e+002, 1.639036e+004
9.713023e+002, 1.636767e+004
9.717844e+002, 1.634171e+004
9.722665e+002, 1.632617e+004
9.727487e+002, 1.631710e+004
9.732308e+002, 1.631168e+004
9.737129e+002, 1.630813e+004
9.741950e+002, 1.630336e+004
9.746771e+002, 1.629619e+004
9.751592e+002, 1.628966e+004
9.756414e+002, 1.628802e+004
9.761235e+002, 1.628751e+004
9.766056e+002, 1.628253e+004
9.770877e+002, 1.627439e+004
9.775698e+002, 1.626550e+004
9.780519e+002, 1.625682e+004
9.785341e+002, 1.625034e+004
9.790162e+002, 1.624743e+004
9.794983e+002, 1.624559e+004
9.799804e+002, 1.624207e+004
9.804625e+002, 1.623651e+004
9.809446e+002, 1.622789e+004
9.814268e+002, 1.621608e+004
9.819089e+002, 1.619779e+004
9.823910e+002, 1.617210e+004
9.828731e+002, 1.615057e+004
9.833552e+002, 1.614370e+004
9.838373e+002, 1.614406e+004
9.843195e+002, 1.612912e+004
9.848016e+002, 1.609732e+004
9.852837e+002, 1.609033e+004
9.857658e+002, 1.611573e+004
9.862479e+002, 1.612864e+004
9.867300e+002, 1.610988e+004
9.872122e+002, 1.608381e+004
9.876943e+002, 1.607493e+004
9.881764e+002, 1.607983e+004
9.886585e+002, 1.608063e+004
9.891406e+002, 1.607891e+004
9.896227e+002, 1.606679e+004
9.901049e+002, 1.603097e+004
9.905870e+002, 1.600920e+004
9.910691e+002, 1.602935e+004
9.915512e+002, 1.605900e+004
9.920333e+002, 1.605488e+004
9.925154e+002, 1.601849e+004
9.929976e+002, 1.599989e+004
9.934797e+002, 1.601417e+004
9.939618e+002, 1.602320e+004
9.944439e+002, 1.602140e+004
9.949260e+002, 1.601817e+004
9.954081e+002, 1.602359e+004
9.958903e+002, 1.602717e+004
9.963724e+002, 1.600998e+004
9.968545e+002, 1.597158e+004
9.973366e+002, 1.594474e+004
9.978187e+002, 1.593606e+004
9.983008e+002, 1.593907e+004
9.987830e+002, 1.596802e+004
9.992651e+002, 1.599232e+004
9.997472e+002, 1.598977e+004
1.000229e+003, 1.596688e+004
1.000711e+003, 1.593214e+004
1.001194e+003, 1.588815e+004
1.001676e+003, 1.585604e+004
1.002158e+003, 1.585005e+004
1.002640e+003, 1.585253e+004
1.003122e+003, 1.585743e+004
1.003604e+003, 1.586242e+004
1.004086e+003, 1.586519e+004
1.004568e+003, 1.586617e+004
1.005050e+003, 1.586921e+004
1.005533e+003, 1.587529e+004
1.006015e+003, 1.587225e+004
1.006497e+003, 1.584158e+004
1.006979e+003, 1.580777e+004
1.007461e+003, 1.579824e+004
1.007943e+003, 1.579951e+004
1.008425e+003, 1.578803e+004
1.008907e+003, 1.576602e+004
1.009390e+003, 1.575313e+004
1.009872e+003, 1.575757e+004
1.010354e+003, 1.576458e+004
1.010836e+003, 1.575866e+004
1.011318e+003, 1.574673e+004
1.011800e+003, 1.573897e+004
1.012282e+003, 1.573463e+004
1.012764e+003, 1.573285e+004
1.013246e+003, 1.573267e+004
1.013729e+003, 1.573170e+004
1.014211e+003, 1.572879e+004
1.014693e+003, 1.572029e+004
1.015175e+003, 1.569532e+004
1.015657e+003, 1.566260e+004
1.016139e+003, 1.564906e+004
1.016621e+003, 1.565180e+004
1.017103e+003, 1.565950e+004
1.017586e+003, 1.566879e+004
1.018068e+003, 1.566671e+004
1.018550e+003, 1.564430e+004
1.019032e+003, 1.561605e+004
1.019514e+003, 1.560790e+004
1.019996e+003, 1.561657e+004
1.020478e+003, 1.561707e+004
1.020960e+003, 1.560978e+004
1.021442e+003, 1.561110e+004
1.021925e+003, 1.562575e+004
1.022407e+003, 1.563133e+004
1.022889e+003, 1.561087e+004
1.023371e+003, 1.557703e+004
1.023853e+003, 1.555388e+004
1.024335e+003, 1.554145e+004
1.024817e+003, 1.553785e+004
1.025299e+003, 1.554431e+004
1.025781e+003, 1.554964e+004
1.026264e+003, 1.555119e+004
1.026746e+003, 1.555094e+004
1.027228e+003, 1.555126e+004
1.027710e+003, 1.554893e+004
1.028192e+003, 1.553317e+004
1.028674e+003, 1.549936e+004
1.029156e+003, 1.549299e+004
1.029638e+003, 1.552682e+004
1.030120e+003, 1.554401e+004
1.030603e+003, 1.552561e+004
1.031085e+003, 1.549612e+004
1.031567e+003, 1.546850e+004
1.032049e+003, 1.544921e+004
1.032531e+003, 1.545911e+004
1.033013e+003, 1.551110e+004
1.033495e+003, 1.553332e+004
1.033977e+003, 1.551366e+004
1.034460e+003, 1.548990e+004
1.034942e+003, 1.546952e+004
1.035424e+003, 1.545037e+004
1.035906e+003, 1.542971e+004
1.036388e+003, 1.540957e+004
1.036870e+003, 1.539599e+004
1.037352e+003, 1.539081e+004
1.037834e+003, 1.538623e+004
1.038317e+003, 1.538338e+004
1.038799e+003, 1.537947e+004
1.039281e+003, 1.537187e+004
1.039763e+003, 1.536498e+004
1.040245e+003, 1.536465e+004
1.040727e+003, 1.536730e+004
1.041209e+003, 1.536202e+004
1.041691e+003, 1.534516e+004
1.042173e+003, 1.533196e+004
1.042656e+003, 1.533147e+004
1.043138e+003, 1.532252e+004
1.043620e+003, 1.528608e+004
1.044102e+003, 1.525200e+004
1.044584e+003, 1.524686e+004
1.045066e+003, 1.526084e+004
1.045548e+003, 1.526777e+004
1.046030e+003, 1.526364e+004
1.046512e+003, 1.526157e+004
1.046995e+003, 1.527191e+004
1.047477e+003, 1.527263e+004
1.047959e+003, 1.524816e+004
1.048441e+003, 1.521991e+004
1.048923e+003, 1.520395e+004
1.049405e+003, 1.519775e+004
1.049887e+003, 1.519421e+004
1.050369e+003, 1.519332e+004
1.050852e+003, 1.519065e+004
1.051334e+003, 1.518701e+004
1.051816e+003, 1.517935e+004
1.052298e+003, 1.515622e+004
1.052780e+003, 1.513805e+004
1.053262e+003, 1.514903e+004
1.053744e+003, 1.517586e+004
1.054226e+003, 1.518595e+004
1.054708e+003, 1.517185e+004
1.055191e+003, 1.516042e+004
1.055673e+003, 1.516357e+004
1.056155e+003, 1.516444e+004
1.056637e+003, 1.515078e+004
1.057119e+003, 1.513732e+004
1.057601e+003, 1.514142e+004
1.058083e+003, 1.515371e+004
1.058565e+003, 1.515330e+004
1.059047e+003, 1.513587e+004
1.059530e+003, 1.511427e+004
1.060012e+003, 1.508569e+004
1.060494e+003, 1.506306e+004
1.060976e+003, 1.505587e+004
1.061458e+003, 1.505340e+004
1.061940e+003, 1.504526e+004
1.062422e+003, 1.503557e+004
1.062904e+003, 1.503773e+004
1.063387e+003, 1.505405e+004
1.063869e+003, 1.505588e+004
1.064351e+003, 1.501379e+004
1.064833e+003, 1.497956e+004
1.065315e+003, 1.498403e+004
1.065797e+003, 1.499871e+004
1.066279e+003, 1.500574e+004
1.066761e+003, 1.500284e+004
1.067244e+003, 1.498308e+004
1.067726e+003, 1.494779e+004
1.068208e+003, 1.493032e+004
1.068690e+003, 1.496491e+004
1.069172e+003, 1.499218e+004
1.069654e+003, 1.497655e+004
1.070136e+003, 1.495106e+004
1.070618e+003, 1.494087e+004
1.071100e+003, 1.494028e+004
1.071583e+003, 1.493811e+004
1.072065e+003, 1.493212e+004
1.072547e+003, 1.492343e+004
1.073029e+003, 1.491000e+004
1.073511e+003, 1.489817e+004
1.073993e+003, 1.489134e+004
1.074475e+003, 1.488688e+004
1.074957e+003, 1.488487e+004
1.075439e+003, 1.488274e+004
1.075922e+003, 1.487479e+004
1.076404e+003, 1.486228e+004
1.076886e+003, 1.485682e+004
1.077368e+003, 1.486882e+004
1.077850e+003, 1.487456e+004
1.078332e+003, 1.485634e+004
1.078814e+003, 1.483483e+004
1.079297e+003, 1.482729e+004
1.079779e+003, 1.482426e+004
1.080261e+003, 1.480946e+004
1.080743e+003, 1.478513e+004
1.081225e+003, 1.476914e+004
1.081707e+003, 1.476806e+004
1.082189e+003, 1.477372e+004
1.082671e+003, 1.479235e+004
1.083153e+003, 1.480544e+004
1.083635e+003, 1.479196e+004
1.084118e+003, 1.477274e+004
1.084600e+003, 1.477832e+004
1.085082e+003, 1.480073e+004
1.085564e+003, 1.480456e+004
1.086046e+003, 1.477640e+004
1.086528e+003, 1.474871e+004
1.087010e+003, 1.473601e+004
1.087492e+003, 1.472669e+004
1.087975e+003, 1.471431e+004
1.088457e+003, 1.470207e+004
1.088939e+003, 1.469115e+004
1.089421e+003, 1.468379e+004
1.089903e+003, 1.468643e+004
1.090385e+003, 1.470167e+004
1.090867e+003, 1.471128e+004
1.091349e+003, 1.470806e+004
1.091832e+003, 1.469800e+004
1.092314e+003, 1.468005e+004
1.092796e+003, 1.465981e+004
1.093278e+003, 1.463782e+004
1.093760e+003, 1.461866e+004
1.094242e+003, 1.461243e+004
1.094724e+003, 1.462044e+004
1.095206e+003, 1.462385e+004
1.095688e+003, 1.460723e+004
1.096171e+003, 1.459804e+004
1.096653e+003, 1.461726e+004
1.097135e+003, 1.463533e+004
1.097617e+003, 1.462763e+004
1.098099e+003, 1.460778e+004
1.098581e+003, 1.459868e+004
1.099063e+003, 1.460139e+004
1.099545e+003, 1.459768e+004
1.100027e+003, 1.457863e+004
1.100510e+003, 1.456035e+004
1.100992e+003, 1.454366e+004
1.101474e+003, 1.453236e+004
1.101956e+003, 1.453247e+004
1.102438e+003, 1.453618e+004
1.102920e+003, 1.453323e+004
1.103402e+003, 1.452506e+004
1.103884e+003, 1.452244e+004
1.104367e+003, 1.452912e+004
1.104849e+003, 1.453614e+004
1.105331e+003, 1.454472e+004
1.105813e+003, 1.454987e+004
1.106295e+003, 1.454814e+004
1.106777e+003, 1.454351e+004
1.107259e+003, 1.453951e+004
1.107741e+003, 1.453557e+004
1.108224e+003, 1.452991e+004
1.108706e+003, 1.452313e+004
1.109188e+003, 1.451172e+004
1.109670e+003, 1.448921e+004
1.110152e+003, 1.447066e+004
1.110634e+003, 1.446603e+004
1.111116e+003, 1.445986e+004
1.111598e+003, 1.443737e+004
1.112080e+003, 1.440796e+004
1.112563e+003, 1.438980e+004
1.113045e+003, 1.438416e+004
1.113527e+003, 1.438043e+004
1.114009e+003, 1.438076e+004
1.114491e+003, 1.437960e+004
1.114973e+003, 1.437492e+004
1.115455e+003, 1.437093e+004
1.115937e+003, 1.437159e+004
1.116419e+003, 1.437237e+004
1.116902e+003, 1.436552e+004
1.117384e+003, 1.435235e+004
1.117866e+003, 1.434941e+004
1.118348e+003, 1.436875e+004
1.118830e+003, 1.436870e+004
1.119312e+003, 1.433307e+004
1.119794e+003, 1.430805e+004
1.120276e+003, 1.431468e+004
1.120759e+003, 1.433044e+004
1.121241e+003, 1.433512e+004
1.121723e+003, 1.433133e+004
1.122205e+003, 1.432832e+004
1.122687e+003, 1.432593e+004
1.123169e+003, 1.432481e+004
1.123651e+003, 1.432577e+004
1.124133e+003, 1.432427e+004
1.124615e+003, 1.431756e+004
1.125098e+003, 1.431344e+004
1.125580e+003, 1.431897e+004
1.126062e+003, 1.432721e+004
1.126544e+003, 1.432383e+004
1.127026e+003, 1.430919e+004
1.127508e+003, 1.429995e+004
1.127990e+003, 1.429663e+004
1.128472e+003, 1.429601e+004
1.128954e+003, 1.429882e+004
1.129437e+003, 1.429372e+004
1.129919e+003, 1.427320e+004
1.130401e+003, 1.425313e+004
1.130883e+003, 1.425451e+004
1.131365e+003, 1.427094e+004
1.131847e+003, 1.427670e+004
1.132329e+003, 1.427227e+004
1.132811e+003, 1.426582e+004
1.133294e+003, 1.425816e+004
1.133776e+003, 1.425901e+004
1.134258e+003, 1.427163e+004
1.134740e+003, 1.427703e+004
1.135222e+003, 1.425734e+004
1.135704e+003, 1.422910e+004
1.136186e+003, 1.422858e+004
1.136668e+003, 1.424740e+004
1.137151e+003, 1.425308e+004
1.137633e+003, 1.424626e+004
1.138115e+003, 1.423132e+004
1.138597e+003, 1.421117e+004
1.139079e+003, 1.419660e+004
1.139561e+003, 1.419368e+004
1.140043e+003, 1.419834e+004
1.140525e+003, 1.421389e+004
1.141007e+003, 1.422774e+004
1.141490e+003, 1.420755e+004
1.141972e+003, 1.416966e+004
1.142454e+003, 1.414805e+004
1.142936e+003, 1.414539e+004
1.143418e+003, 1.415781e+004
1.143900e+003, 1.418153e+004
1.144382e+003, 1.419719e+004
1.144864e+003, 1.418557e+004
1.145346e+003, 1.416834e+004
1.145829e+003, 1.417482e+004
1.146311e+003, 1.418458e+004
1.146793e+003, 1.416352e+004
1.147275e+003, 1.412845e+004
1.147757e+003, 1.411906e+004
1.148239e+003, 1.413576e+004
1.148721e+003, 1.414188e+004
1.149203e+003, 1.411725e+004
1.149686e+003, 1.409821e+004
1.150168e+003, 1.411779e+004
1.150650e+003, 1.414087e+004
1.151132e+003, 1.414064e+004
1.151614e+003, 1.413056e+004
1.152096e+003, 1.412849e+004
1.152578e+003, 1.413027e+004
1.153060e+003, 1.411825e+004
1.153542e+003, 1.408786e+004
1.154025e+003, 1.406775e+004
1.154507e+003, 1.407508e+004
1.154989e+003, 1.408402e+004
1.155471e+003, 1.408216e+004
1.155953e+003, 1.408245e+004
1.156435e+003, 1.409990e+004
1.156917e+003, 1.412064e+004
1.157399e+003, 1.412502e+004
1.157881e+003, 1.411296e+004
1.158364e+003, 1.409718e+004
1.158846e+003, 1.407050e+004
1.159328e+003, 1.405612e+004
1.159810e+003, 1.406611e+004
1.160292e+003, 1.407451e+004
1.160774e+003, 1.407700e+004
1.161256e+003, 1.407174e+004
1.161738e+003, 1.405055e+004
1.162221e+003, 1.402394e+004
1.162703e+003, 1.401875e+004
1.163185e+003, 1.403860e+004
1.163667e+003, 1.405073e+004
1.164149e+003, 1.405378e+004
1.164631e+003, 1.405244e+004
1.165113e+003, 1.404509e+004
1.165595e+003, 1.404065e+004
1.166078e+003, 1.404504e+004
1.166560e+003, 1.405085e+004
1.167042e+003, 1.404940e+004
1.167524e+003, 1.404091e+004
1.168006e+003, 1.402320e+004
1.168488e+003, 1.399527e+004
1.168970e+003, 1.398421e+004
1.169452e+003, 1.399173e+004
1.169934e+003, 1.400512e+004
1.170417e+003, 1.402103e+004
1.170899e+003, 1.403082e+004
1.171381e+003, 1.402767e+004
1.171863e+003, 1.401813e+004
1.172345e+003, 1.401213e+004
1.172827e+003, 1.400914e+004
1.173309e+003, 1.400883e+004
1.173791e+003, 1.400987e+004
1.174273e+003, 1.400806e+004
1.174756e+003, 1.400232e+004
1.175238e+003, 1.398793e+004
1.175720e+003, 1.396413e+004
1.176202e+003, 1.394792e+004
1.176684e+003, 1.395703e+004
1.177166e+003, 1.397487e+004
1.177648e+003, 1.398755e+004
1.178130e+003, 1.399066e+004
1.178613e+003, 1.397025e+004
1.179095e+003, 1.393830e+004
1.179577e+003, 1.391912e+004
1.180059e+003, 1.391473e+004
1.180541e+003, 1.391031e+004
1.181023e+003, 1.389862e+004
1.181505e+003, 1.389221e+004
1.181987e+003, 1.390542e+004
1.182469e+003, 1.391852e+004
1.182952e+003, 1.391601e+004
1.183434e+003, 1.390914e+004
1.183916e+003, 1.390986e+004
1.184398e+003, 1.391484e+004
1.184880e+003, 1.391553e+004
1.185362e+003, 1.391077e+004
1.185844e+003, 1.390616e+004
1.186326e+003, 1.390731e+004
1.186808e+003, 1.390199e+004
1.187291e+003, 1.387759e+004
1.187773e+003, 1.385917e+004
1.188255e+003, 1.385865e+004
1.188737e+003, 1.386836e+004
1.189219e+003, 1.388784e+004
1.189701e+003, 1.390994e+004
1.190183e+003, 1.391114e+004
1.190665e+003, 1.388584e+004
1.191148e+003, 1.386928e+004
1.191630e+003, 1.386545e+004
1.192112e+003, 1.385819e+004
1.192594e+003, 1.384163e+004
1.193076e+003, 1.383241e+004
1.193558e+003, 1.384257e+004
1.194040e+003, 1.385399e+004
1.194522e+003, 1.384183e+004
1.195005e+003, 1.381330e+004
1.195487e+003, 1.379772e+004
1.195969e+003, 1.379486e+004
1.196451e+003, 1.380016e+004
1.196933e+003, 1.381282e+004
1.197415e+003, 1.382278e+004
1.197897e+003, 1.382731e+004
1.198379e+003, 1.382583e+004
1.198861e+003, 1.381757e+004
1.199344e+003, 1.380764e+004
1.199826e+003, 1.380563e+004
1.200308e+003, 1.380500e+004
1.200790e+003, 1.378614e+004
1.201272e+003, 1.376055e+004
1.201754e+003, 1.375699e+004
1.202236e+003, 1.377080e+004
1.202718e+003, 1.377849e+004
1.203200e+003, 1.377402e+004
1.203683e+003, 1.376880e+004
1.204165e+003, 1.376971e+004
1.204647e+003, 1.377173e+004
1.205129e+003, 1.377006e+004
1.205611e+003, 1.376904e+004
1.206093e+003, 1.378015e+004
1.206575e+003, 1.378835e+004
1.207057e+003, 1.376973e+004
1.207540e+003, 1.373306e+004
1.208022e+003, 1.370465e+004
1.208504e+003, 1.368978e+004
1.208986e+003, 1.368393e+004
1.209468e+003, 1.368763e+004
1.209950e+003, 1.369768e+004
1.210432e+003, 1.372609e+004
1.210914e+003, 1.374564e+004
1.211396e+003, 1.373948e+004
1.211879e+003, 1.371994e+004
1.212361e+003, 1.369325e+004
1.212843e+003, 1.366475e+004
1.213325e+003, 1.365797e+004
1.213807e+003, 1.367932e+004
1.214289e+003, 1.369117e+004
1.214771e+003, 1.369088e+004
1.215253e+003, 1.369305e+004
1.215735e+003, 1.370257e+004
1.216218e+003, 1.370359e+004
1.216700e+003, 1.368613e+004
1.217182e+003, 1.366360e+004
1.217664e+003, 1.365327e+004
1.218146e+003, 1.364992e+004
1.218628e+003, 1.363272e+004
1.219110e+003, 1.360690e+004
1.219592e+003, 1.360192e+004
1.220075e+003, 1.361530e+004
1.220557e+003, 1.362688e+004
1.221039e+003, 1.363134e+004
1.221521e+003, 1.362897e+004
1.222003e+003, 1.361946e+004
1.222485e+003, 1.361313e+004
1.222967e+003, 1.362826e+004
1.223449e+003, 1.364423e+004
1.223932e+003, 1.363375e+004
1.224414e+003, 1.361237e+004
1.224896e+003, 1.359733e+004
1.225378e+003, 1.358933e+004
1.225860e+003, 1.358708e+004
1.226342e+003, 1.358906e+004
1.226824e+003, 1.359022e+004
1.227306e+003, 1.359104e+004
1.227788e+003, 1.358449e+004
1.228271e+003, 1.355623e+004
1.228753e+003, 1.353566e+004
1.229235e+003, 1.354225e+004
1.229717e+003, 1.355468e+004
1.230199e+003, 1.355748e+004
1.230681e+003, 1.355355e+004
1.231163e+003, 1.354765e+004
1.231645e+003, 1.353992e+004
1.232127e+003, 1.353898e+004
1.232610e+003, 1.354856e+004
1.233092e+003, 1.355303e+004
1.233574e+003, 1.355025e+004
1.234056e+003, 1.354797e+004
1.234538e+003, 1.354942e+004
1.235020e+003, 1.354686e+004
1.235502e+003, 1.353325e+004
1.235984e+003, 1.351859e+004
1.236467e+003, 1.352258e+004
1.236949e+003, 1.353949e+004
1.237431e+003, 1.354727e+004
1.237913e+003, 1.354577e+004
1.238395e+003, 1.352923e+004
1.238877e+003, 1.350163e+004
1.239359e+003, 1.348112e+004
1.239841e+003, 1.347332e+004
1.240323e+003, 1.347404e+004
1.240806e+003, 1.348117e+004
1.241288e+003, 1.349275e+004
1.241770e+003, 1.351161e+004
1.242252e+003, 1.352893e+004
1.242734e+003, 1.353622e+004
1.243216e+003, 1.353668e+004
1.243698e+003, 1.353548e+004
1.244180e+003, 1.353072e+004
1.244662e+003, 1.351336e+004
1.245145e+003, 1.348379e+004
1.245627e+003, 1.346678e+004
1.246109e+003, 1.348204e+004
1.246591e+003, 1.348596e+004
1.247073e+003, 1.345901e+004
1.247555e+003, 1.343654e+004
1.248037e+003, 1.343746e+004
1.248519e+003, 1.343792e+004
1.249002e+003, 1.341484e+004
1.249484e+003, 1.338678e+004
1.249966e+003, 1.339017e+004
1.250448e+003, 1.342252e+004
1.250930e+003, 1.344033e+004
1.251412e+003, 1.344244e+004
1.251894e+003, 1.344061e+004
1.252376e+003, 1.343539e+004
1.252859e+003, 1.343710e+004
1.253341e+003, 1.344873e+004
1.253823e+003, 1.345677e+004
1.254305e+003, 1.345163e+004
1.254787e+003, 1.344116e+004
1.255269e+003, 1.343297e+004
1.255751e+003, 1.342925e+004
1.256233e+003, 1.343823e+004
1.256715e+003, 1.345226e+004
1.257198e+003, 1.345878e+004
1.257680e+003, 1.345719e+004
1.258162e+003, 1.344825e+004
1.258644e+003, 1.343367e+004
1.259126e+003, 1.341897e+004
1.259608e+003, 1.340473e+004
1.260090e+003, 1.339789e+004
1.260572e+003, 1.340977e+004
1.261054e+003, 1.341929e+004
1.261537e+003, 1.341354e+004
1.262019e+003, 1.340469e+004
1.262501e+003, 1.340213e+004
1.262983e+003, 1.340277e+004
1.263465e+003, 1.340133e+004
1.263947e+003, 1.339797e+004
1.264429e+003, 1.339351e+004
1.264911e+003, 1.338532e+004
1.265394e+003, 1.338652e+004
1.265876e+003, 1.340083e+004
1.266358e+003, 1.340617e+004
1.266840e+003, 1.339584e+004
1.267322e+003, 1.338928e+004
1.267804e+003, 1.339783e+004
1.268286e+003, 1.340911e+004
1.268768e+003, 1.340843e+004
1.269250e+003, 1.339931e+004
1.269733e+003, 1.338273e+004
1.270215e+003, 1.336719e+004
1.270697e+003, 1.338403e+004
1.271179e+003, 1.341775e+004
1.271661e+003, 1.342149e+004
1.272143e+003, 1.339540e+004
1.272625e+003, 1.337349e+004
1.273107e+003, 1.336859e+004
1.273589e+003, 1.337272e+004
1.274072e+003, 1.339224e+004
1.274554e+003, 1.340422e+004
1.275036e+003, 1.338720e+004
1.275518e+003, 1.337018e+004
1.276000e+003, 1.338138e+004
1.276482e+003, 1.339545e+004
1.276964e+003, 1.337767e+004
1.277446e+003, 1.334074e+004
1.277929e+003, 1.332414e+004
1.278411e+003, 1.333037e+004
1.278893e+003, 1.333228e+004
1.279375e+003, 1.332971e+004
1.279857e+003, 1.332382e+004
1.280339e+003, 1.331394e+004
1.280821e+003, 1.330575e+004
1.281303e+003, 1.330200e+004
1.281786e+003, 1.330511e+004
1.282268e+003, 1.331535e+004
##END=



