##NAMES=Malanite
##RRUFFID=R070051
##IDEAL CHEMISTRY=Cu^1+^(Ir^3+^Pt^4+^)S^2-^_4_
##LOCALITY=placer from Philipp Massif, Kamchatka, Russia
##OWNER=RRUFF
##SOURCE=Michael Scott
##DESCRIPTION=Silver gray metallic polished fragment embedded in epoxy
##STATUS=The identification of this mineral is not yet confirmed.
##URL=rruff.info/R070051
159.3973, 0.0000000E+00
159.8794, 17.37634
160.3615, 57.81885
160.8436, 100.9573
161.3257, 127.5488
161.8079, 133.9862
162.2900, 136.1485
162.7721, 133.8557
163.2542, 130.1093
163.7363, 126.5284
164.2184, 123.3398
164.7006, 120.7330
165.1827, 118.6735
165.6648, 116.9041
166.1469, 116.2196
166.6290, 121.8708
167.1111, 123.6320
167.5933, 113.8076
168.0754, 91.68414
168.5575, 62.70892
169.0396, 39.82642
169.5217, 22.76001
170.0038, 14.29901
170.4860, 24.30200
170.9681, 38.07220
171.4502, 49.71777
171.9323, 61.71527
172.4144, 75.54846
172.8965, 76.86682
173.3787, 63.56152
173.8608, 55.17529
174.3429, 61.12225
174.8250, 70.30530
175.3071, 71.64459
175.7892, 60.92218
176.2714, 51.84943
176.7535, 54.98230
177.2356, 73.06110
177.7177, 80.00977
178.1998, 70.43152
178.6819, 57.38330
179.1641, 50.36554
179.6462, 52.36243
180.1283, 53.55170
180.6104, 45.48267
181.0925, 19.65936
181.5746, 3.890625
182.0567, 6.070862
182.5389, 12.35651
183.0210, 14.65417
183.5031, 11.14868
183.9852, 4.148987
184.4673, 2.071594
184.9494, 9.468536
185.4316, 11.34827
185.9137, 4.421356
186.3958, 4.389923
186.8779, 10.93298
187.3600, 14.36279
187.8421, 15.39148
188.3243, 15.15247
188.8064, 12.89377
189.2885, 9.230835
189.7706, 2.627075
190.2527, 3.618011
190.7348, 7.115143
191.2170, 7.913330
191.6991, 8.291382
192.1812, 11.39319
192.6633, 19.99350
193.1454, 23.14850
193.6275, 21.84988
194.1097, 15.75861
194.5918, 1.333832
195.0739, 19.80975
195.5560, 40.57825
196.0381, 53.75604
196.5202, 58.87195
197.0024, 56.70459
197.4845, 42.32480
197.9666, 26.18210
198.4487, 12.43634
198.9308, 2.256317
199.4129, 3.943237
199.8951, 5.276031
200.3772, 0.9159240
200.8593, 3.125488
201.3414, 4.879364
201.8235, 8.457825
202.3056, 18.35168
202.7878, 32.48148
203.2699, 43.46039
203.7520, 43.94809
204.2341, 31.85321
204.7162, 27.03964
205.1983, 37.20251
205.6805, 46.10880
206.1626, 44.04553
206.6447, 34.23148
207.1268, 27.51019
207.6089, 33.23322
208.0910, 51.78934
208.5732, 61.22583
209.0553, 54.55841
209.5374, 46.76910
210.0195, 42.05261
210.5016, 40.54248
210.9837, 41.44019
211.4659, 44.44592
211.9480, 49.42740
212.4301, 52.91019
212.9122, 50.69839
213.3943, 51.61649
213.8764, 61.85580
214.3586, 76.45352
214.8407, 86.96710
215.3228, 88.77390
215.8049, 82.68747
216.2870, 72.13562
216.7691, 47.90326
217.2513, 32.45975
217.7334, 30.57849
218.2155, 36.61670
218.6976, 43.08310
219.1797, 46.47375
219.6618, 47.17032
220.1440, 46.40970
220.6261, 40.61154
221.1082, 37.62424
221.5903, 39.84348
222.0724, 44.46332
222.5546, 48.94312
223.0367, 52.25168
223.5188, 53.80289
224.0009, 52.25079
224.4830, 44.37686
224.9651, 37.41272
225.4473, 29.90479
225.9294, 24.06180
226.4115, 23.05450
226.8936, 27.46103
227.3757, 33.92603
227.8578, 37.19440
228.3400, 36.89966
228.8221, 33.49014
229.3042, 23.23550
229.7863, 12.69681
230.2684, 6.928284
230.7505, 6.679596
231.2327, 8.716003
231.7148, 9.014435
232.1969, 6.867828
232.6790, 5.366089
233.1611, 4.074615
233.6432, 3.486115
234.1254, 3.966522
234.6075, 5.545166
235.0896, 8.041870
235.5717, 11.21494
236.0538, 15.12772
236.5359, 18.75098
237.0181, 22.36011
237.5002, 25.50562
237.9823, 28.45703
238.4644, 30.80957
238.9465, 31.28751
239.4286, 28.59540
239.9108, 23.25702
240.3929, 20.90335
240.8750, 21.91855
241.3571, 25.27637
241.8392, 34.23889
242.3213, 44.74243
242.8035, 49.82080
243.2856, 45.29987
243.7677, 33.84674
244.2498, 26.28503
244.7319, 24.80716
245.2140, 24.25049
245.6962, 25.51523
246.1783, 26.72525
246.6604, 25.00284
247.1425, 18.97214
247.6246, 11.01608
248.1067, 7.205322
248.5889, 9.495361
249.0710, 13.87488
249.5531, 23.10156
250.0352, 32.07230
250.5173, 35.66400
250.9994, 32.97397
251.4816, 27.61667
251.9637, 25.25308
252.4458, 27.91550
252.9279, 29.95657
253.4100, 29.85397
253.8921, 29.58524
254.3743, 30.82172
254.8564, 33.45627
255.3385, 35.66653
255.8206, 35.67950
256.3027, 33.43555
256.7849, 29.06110
257.2670, 15.56442
257.7491, 5.938416
258.2312, 9.214081
258.7133, 22.04153
259.1954, 33.79004
259.6776, 35.60907
260.1597, 28.12598
260.6418, 21.21793
261.1239, 12.12958
261.6060, 7.308960
262.0881, 10.01553
262.5703, 18.02499
263.0524, 28.36111
263.5345, 41.08414
264.0166, 53.29462
264.4987, 54.58499
264.9808, 38.45312
265.4630, 24.34000
265.9451, 18.71078
266.4272, 17.61386
266.9093, 17.56012
267.3914, 17.40436
267.8735, 17.92087
268.3557, 20.93097
268.8378, 27.34943
269.3199, 32.53519
269.8020, 36.79639
270.2841, 37.70052
270.7662, 30.66168
271.2484, 14.39751
271.7305, 0.4163510
272.2126, 2.620804
272.6947, 20.61992
273.1768, 34.58356
273.6589, 39.17528
274.1411, 40.08331
274.6232, 42.54366
275.1053, 46.37044
275.5874, 48.03009
276.0695, 41.46754
276.5516, 30.49945
277.0338, 30.04300
277.5159, 46.04303
277.9980, 63.27275
278.4801, 70.11952
278.9622, 68.95264
279.4443, 65.31921
279.9265, 59.61014
280.4086, 53.23344
280.8907, 47.95862
281.3728, 43.75887
281.8549, 41.13150
282.3370, 41.49435
282.8192, 43.51810
283.3013, 44.02649
283.7834, 42.10687
284.2655, 39.23378
284.7476, 35.77280
285.2297, 32.00943
285.7119, 30.00774
286.1940, 31.18799
286.6761, 34.19312
287.1582, 35.93155
287.6403, 35.75233
288.1224, 35.89487
288.6046, 37.83208
289.0867, 40.71182
289.5688, 42.82706
290.0509, 43.65848
290.5330, 43.68127
291.0151, 43.51326
291.4973, 43.17908
291.9794, 42.45256
292.4615, 41.25906
292.9436, 39.71146
293.4257, 37.84953
293.9078, 35.70665
294.3900, 33.26837
294.8721, 30.12497
295.3542, 26.08803
295.8363, 25.29379
296.3184, 32.78630
296.8005, 38.49780
297.2827, 35.91713
297.7648, 26.99234
298.2469, 17.78609
298.7290, 11.88271
299.2111, 9.039444
299.6932, 7.766357
300.1754, 8.869507
300.6575, 10.53346
301.1396, 13.47482
301.6217, 16.41901
302.1038, 17.86407
302.5859, 17.05659
303.0681, 14.74347
303.5501, 12.35065
304.0323, 9.147415
304.5144, 7.576355
304.9965, 9.491486
305.4786, 11.49344
305.9607, 10.54982
306.4428, 6.748383
306.9250, 3.109070
307.4071, 3.115631
307.8892, 7.235916
308.3713, 11.28131
308.8534, 17.09683
309.3355, 20.78888
309.8177, 19.97948
310.2998, 16.14577
310.7819, 12.29158
311.2640, 10.06419
311.7461, 9.515381
312.2282, 11.27928
312.7104, 17.58746
313.1925, 21.90067
313.6746, 21.12787
314.1567, 18.19930
314.6388, 16.43449
315.1209, 17.07396
315.6031, 18.08495
316.0852, 16.33897
316.5673, 11.43047
317.0494, 7.270554
317.5315, 4.532532
318.0136, 3.042984
318.4958, 2.750687
318.9779, 3.692993
319.4600, 5.512222
319.9421, 9.060425
320.4242, 13.45238
320.9063, 14.75674
321.3885, 11.97597
321.8706, 7.300980
322.3527, 0.1827390
322.8348, 7.782227
323.3169, 11.26956
323.7990, 4.583420
324.2812, 4.929642
324.7633, 9.089508
325.2454, 7.867630
325.7275, 4.596512
326.2096, 0.3281560
326.6917, 5.301819
327.1739, 6.044907
327.6560, 0.3604580
328.1381, 6.006271
328.6202, 12.22438
329.1023, 17.09247
329.5844, 17.30591
330.0666, 11.29564
330.5487, 3.123154
331.0308, 0.8115230
331.5129, 0.7628940
331.9950, 2.934219
332.4771, 6.013535
332.9593, 9.193283
333.4414, 12.39207
333.9235, 15.42229
334.4056, 16.78873
334.8877, 14.48083
335.3698, 8.472992
335.8520, 5.086716
336.3341, 6.291702
336.8162, 7.632095
337.2983, 7.617645
337.7804, 6.785248
338.2625, 5.894760
338.7447, 5.268295
339.2268, 5.467499
339.7089, 8.487228
340.1910, 18.72499
340.6731, 24.50145
341.1552, 21.46091
341.6374, 16.25902
342.1195, 13.62668
342.6016, 14.46935
343.0837, 16.83749
343.5658, 19.22433
344.0479, 21.82195
344.5301, 22.20619
345.0122, 17.63330
345.4943, 13.81300
345.9764, 14.79254
346.4585, 18.49966
346.9406, 19.64259
347.4228, 14.16801
347.9049, 5.658752
348.3870, 2.664398
348.8691, 6.646667
349.3512, 10.36424
349.8333, 9.869431
350.3155, 7.818405
350.7976, 7.491486
351.2797, 9.980087
351.7618, 11.87915
352.2439, 9.604752
352.7260, 4.334839
353.2082, 0.6214600
353.6903, 0.5635530
354.1724, 0.2983400
354.6545, 3.972290
355.1366, 10.24890
355.6187, 14.41916
356.1009, 13.39861
356.5830, 11.08142
357.0651, 12.78572
357.5472, 18.21184
358.0293, 20.92613
358.5114, 15.61380
358.9936, 3.705719
359.4757, 3.374084
359.9578, 3.999268
360.4399, 2.661087
360.9220, 0.6070710
361.4041, 4.711792
361.8863, 8.484482
362.3684, 11.49297
362.8505, 13.05133
363.3326, 11.72920
363.8147, 5.564880
364.2968, 0.8596650
364.7790, 2.788300
365.2611, 4.838242
365.7432, 4.489960
366.2253, 2.133514
366.7074, 1.124939
367.1895, 4.817780
367.6717, 8.632141
368.1538, 9.518021
368.6359, 4.717133
369.1180, 0.9094850
369.6001, 0.3937230
370.0822, 0.2034760
370.5644, 2.580261
371.0465, 6.882385
371.5286, 10.92690
372.0107, 11.17592
372.4928, 7.288330
372.9749, 4.537247
373.4571, 3.695557
373.9392, 4.626816
374.4213, 8.791992
374.9034, 15.38757
375.3855, 18.59576
375.8676, 11.12433
376.3498, 0.1309970
376.8319, 1.642227
377.3140, 8.123611
377.7961, 17.91432
378.2782, 20.13889
378.7603, 16.87149
379.2425, 16.12991
379.7246, 20.46574
380.2067, 23.98453
380.6888, 22.48160
381.1709, 18.13895
381.6530, 15.73682
382.1352, 16.56624
382.6173, 18.89923
383.0994, 20.63422
383.5815, 22.22635
384.0636, 21.35809
384.5457, 14.80200
385.0279, 8.443268
385.5100, 6.865494
385.9921, 9.038971
386.4742, 10.78125
386.9563, 8.860825
387.4384, 4.266144
387.9206, 3.273972
388.4027, 9.630402
388.8848, 14.51729
389.3669, 17.77798
389.8490, 18.61159
390.3311, 14.91101
390.8133, 6.555191
391.2954, 1.827103
391.7775, 3.812485
392.2596, 1.173264
392.7417, 4.603806
393.2238, 5.312683
393.7060, 5.090363
394.1881, 3.861526
394.6702, 2.835541
395.1523, 4.560791
395.6344, 12.38789
396.1165, 20.37009
396.5987, 18.19577
397.0808, 5.673706
397.5629, 3.813400
398.0450, 3.663635
398.5271, 1.835327
399.0092, 5.181458
399.4914, 6.060944
399.9735, 6.128647
400.4556, 5.472366
400.9377, 4.588867
401.4198, 4.462418
401.9019, 5.214172
402.3841, 5.502045
402.8662, 3.712585
403.3483, 0.2383730
403.8304, 1.417648
404.3125, 2.857346
404.7946, 6.584808
405.2768, 7.316971
405.7589, 6.153687
406.2410, 4.643021
406.7231, 3.479843
407.2052, 3.245224
407.6873, 5.238800
408.1695, 11.48436
408.6516, 15.26826
409.1337, 14.84067
409.6158, 13.59229
410.0979, 12.98608
410.5800, 13.12556
411.0622, 13.80154
411.5443, 15.48349
412.0264, 17.34204
412.5085, 15.41338
412.9906, 7.384125
413.4727, 2.196213
413.9549, 6.788132
414.4370, 14.39508
414.9191, 18.20906
415.4012, 16.74779
415.8833, 14.38983
416.3654, 13.65704
416.8476, 14.30603
417.3297, 16.43106
417.8118, 20.87593
418.2939, 23.66908
418.7760, 19.59985
419.2581, 9.060120
419.7403, 2.454102
420.2224, 2.131638
420.7045, 3.861588
421.1866, 6.512497
421.6687, 9.425186
422.1508, 11.23904
422.6330, 11.23572
423.1151, 10.23528
423.5972, 9.849747
424.0793, 10.25690
424.5614, 11.35060
425.0435, 14.67757
425.5257, 17.07217
426.0078, 15.61894
426.4899, 11.33742
426.9720, 7.693314
427.4541, 7.065018
427.9362, 9.043457
428.4184, 12.16025
428.9005, 18.00253
429.3826, 21.32388
429.8647, 18.30812
430.3468, 13.55865
430.8289, 10.71614
431.3111, 10.40359
431.7932, 11.59601
432.2753, 15.33421
432.7574, 20.01138
433.2395, 19.78531
433.7216, 12.84070
434.2038, 5.829819
434.6859, 3.734726
435.1680, 6.062515
435.6501, 8.876373
436.1322, 13.98311
436.6143, 17.46594
437.0965, 15.98347
437.5786, 11.73662
438.0607, 8.961563
438.5428, 9.036484
439.0249, 10.53458
439.5070, 11.48877
439.9892, 11.84171
440.4713, 11.78520
440.9534, 10.03308
441.4355, 9.192154
441.9176, 11.69014
442.3997, 15.90323
442.8819, 18.31564
443.3640, 16.86961
443.8461, 13.25996
444.3282, 11.12932
444.8103, 10.27199
445.2924, 11.61311
445.7746, 19.11034
446.2567, 25.95972
446.7388, 27.40675
447.2209, 23.69783
447.7030, 18.78044
448.1852, 13.44165
448.6673, 8.842941
449.1494, 7.766510
449.6315, 10.54604
450.1136, 13.11383
450.5957, 13.45961
451.0779, 11.51047
451.5600, 6.745193
452.0421, 3.848816
452.5242, 10.43622
453.0063, 8.097122
453.4884, 1.337875
453.9706, 5.684830
454.4527, 11.94908
454.9348, 16.80064
455.4169, 19.35994
455.8990, 19.94730
456.3811, 19.42735
456.8633, 15.72565
457.3454, 12.74631
457.8275, 11.05423
458.3096, 10.39587
458.7917, 10.66711
459.2738, 11.89006
459.7560, 13.66528
460.2381, 15.64375
460.7202, 17.55208
461.2023, 18.79799
461.6844, 19.41217
462.1665, 19.67534
462.6487, 20.29626
463.1308, 20.34743
463.6129, 17.49928
464.0950, 8.505295
464.5771, 0.8372340
465.0592, 2.385651
465.5414, 10.39415
466.0235, 16.25407
466.5056, 17.55045
466.9877, 16.48965
467.4698, 15.49808
467.9519, 14.63023
468.4341, 13.37419
468.9162, 11.65244
469.3983, 9.629272
469.8804, 6.795486
470.3625, 3.945465
470.8446, 2.336807
471.3268, 2.838181
471.8089, 4.976456
472.2910, 8.071625
472.7731, 13.07774
473.2552, 16.30058
473.7373, 17.24440
474.2195, 16.08420
474.7016, 10.98268
475.1837, 4.135666
475.6658, 0.6665190
476.1479, 4.260391
476.6300, 11.01729
477.1122, 15.70473
477.5943, 18.32518
478.0764, 18.97803
478.5585, 17.06007
479.0406, 14.08955
479.5227, 12.31325
480.0049, 11.80316
480.4870, 10.54613
480.9691, 6.552979
481.4512, 2.952438
481.9333, 2.468430
482.4154, 4.622513
482.8976, 7.374588
483.3797, 9.573868
483.8618, 11.83432
484.3439, 16.07993
484.8260, 25.69914
485.3081, 30.87057
485.7903, 29.22610
486.2724, 25.53802
486.7545, 21.80637
487.2366, 18.52939
487.7187, 16.03123
488.2008, 14.72157
488.6830, 14.10185
489.1651, 12.34778
489.6472, 8.919739
490.1293, 8.614410
490.6114, 15.47189
491.0935, 23.86417
491.5757, 26.37524
492.0578, 22.73016
492.5399, 20.78838
493.0220, 26.56073
493.5041, 32.92218
493.9862, 30.70798
494.4684, 21.49045
494.9505, 15.14555
495.4326, 17.46458
495.9147, 25.07445
496.3968, 28.90582
496.8789, 27.62238
497.3611, 24.32207
497.8432, 15.99155
498.3253, 8.284927
498.8074, 4.637695
499.2895, 4.958221
499.7716, 7.916977
500.2538, 13.42125
500.7359, 19.83220
501.2180, 22.31224
501.7001, 19.90408
502.1822, 18.39311
502.6643, 19.56755
503.1465, 22.14297
503.6286, 25.68922
504.1107, 30.08737
504.5928, 31.97391
505.0749, 29.23193
505.5570, 24.03157
506.0392, 16.94647
506.5213, 8.970215
507.0034, 4.340073
507.4855, 5.518921
507.9676, 10.04439
508.4497, 12.60841
508.9319, 11.66029
509.4140, 11.68828
509.8961, 13.14438
510.3782, 14.39583
510.8603, 15.46503
511.3424, 16.39409
511.8246, 16.48122
512.3067, 15.01578
512.7888, 13.21141
513.2709, 14.44084
513.7531, 19.55635
514.2352, 21.33617
514.7173, 16.65860
515.1994, 9.929764
515.6815, 4.388214
516.1636, 0.1831210
516.6458, 2.457184
517.1279, 4.275574
517.6100, 4.060898
518.0921, 0.8458560
518.5742, 8.635498
519.0563, 13.92795
519.5385, 14.49748
520.0206, 12.54230
520.5027, 11.35455
520.9848, 11.30440
521.4669, 10.74216
521.9490, 9.046158
522.4312, 7.508423
522.9133, 5.112839
523.3954, 3.747528
523.8775, 7.638184
524.3596, 19.01280
524.8417, 31.07005
525.3239, 33.67772
525.8060, 27.22871
526.2881, 18.90453
526.7702, 7.473923
527.2523, 1.684448
527.7344, 3.072998
528.2166, 1.076416
528.6987, 5.218521
529.1808, 10.94336
529.6629, 13.66928
530.1450, 7.573318
530.6271, 1.987778
531.1093, 5.612335
531.5914, 1.454895
532.0735, 4.966995
532.5556, 7.915527
533.0377, 7.360779
533.5198, 8.110687
534.0020, 11.69881
534.4841, 14.96867
534.9662, 18.01295
535.4483, 20.08018
535.9304, 19.82370
536.4125, 17.19844
536.8947, 14.77835
537.3768, 15.30490
537.8589, 17.67441
538.3410, 18.34225
538.8231, 16.94812
539.3052, 15.89566
539.7874, 16.71634
540.2695, 18.58743
540.7516, 19.38544
541.2337, 18.57198
541.7158, 18.21005
542.1979, 19.13136
542.6801, 20.34529
543.1622, 21.89049
543.6443, 23.15228
544.1264, 21.44690
544.6085, 14.77684
545.0906, 6.222595
545.5728, 5.478592
546.0549, 16.89452
546.5370, 22.87241
547.0191, 15.53516
547.5012, 7.130051
547.9833, 5.086578
548.4655, 8.135071
548.9476, 11.03201
549.4297, 11.71983
549.9117, 11.35991
550.3939, 10.80138
550.8760, 10.14526
551.3581, 9.483139
551.8402, 8.717972
552.3223, 9.300919
552.8044, 13.47369
553.2866, 21.93637
553.7687, 24.08484
554.2508, 14.46364
554.7329, 6.513336
555.2150, 4.440247
555.6971, 6.212570
556.1793, 10.07701
556.6614, 15.20207
557.1435, 19.54248
557.6256, 20.96645
558.1077, 19.67218
558.5898, 16.43091
559.0720, 10.04225
559.5541, 6.073624
560.0362, 9.183044
560.5183, 15.52667
561.0004, 17.23085
561.4825, 12.07625
561.9647, 9.743790
562.4468, 17.54446
562.9289, 26.46736
563.4110, 26.57973
563.8931, 19.16573
564.3752, 11.94066
564.8574, 9.394928
565.3395, 10.07538
565.8216, 10.35553
566.3037, 9.953644
566.7858, 9.923767
567.2679, 11.30118
567.7501, 12.14581
568.2322, 11.03668
568.7143, 8.661697
569.1964, 6.542465
569.6785, 4.453598
570.1606, 4.240570
570.6428, 10.25020
571.1249, 19.65437
571.6070, 23.42729
572.0891, 19.40434
572.5712, 12.29417
573.0533, 5.397659
573.5355, 1.088181
574.0176, 2.122726
574.4997, 10.10315
574.9818, 17.29585
575.4639, 11.86500
575.9460, 3.613174
576.4282, 1.129684
576.9103, 5.342041
577.3924, 12.08525
577.8745, 20.21582
578.3566, 27.39882
578.8387, 25.05884
579.3209, 11.99736
579.8030, 2.748810
580.2851, 3.973923
580.7672, 9.160629
581.2493, 8.073654
581.7314, 0.2138210
582.2136, 2.109207
582.6957, 9.044342
583.1778, 19.11798
583.6599, 18.46429
584.1420, 11.33141
584.6241, 5.459610
585.1063, 3.523071
585.5884, 4.351563
586.0705, 7.433914
586.5526, 12.75635
587.0347, 15.60052
587.5168, 15.39313
587.9990, 13.70976
588.4811, 8.580582
588.9632, 3.258331
589.4453, 3.001053
589.9274, 9.078049
590.4095, 14.47986
590.8917, 15.97279
591.3738, 15.11459
591.8559, 12.97501
592.3380, 10.03705
592.8201, 7.690567
593.3022, 6.679092
593.7844, 6.525116
594.2665, 6.006821
594.7486, 4.192963
595.2307, 4.362289
595.7128, 8.465897
596.1949, 12.65071
596.6771, 15.09175
597.1592, 16.64340
597.6413, 19.46957
598.1234, 24.99640
598.6055, 28.96774
599.0876, 27.04547
599.5698, 20.90424
600.0519, 13.12321
600.5340, 4.130386
601.0161, 1.263519
601.4982, 1.253784
601.9803, 9.258377
602.4625, 12.94353
602.9446, 5.747650
603.4267, 3.766281
603.9088, 12.45761
604.3909, 21.73828
604.8730, 25.46909
605.3552, 24.17970
605.8373, 20.40247
606.3194, 14.43774
606.8015, 9.361099
607.2836, 11.57574
607.7657, 19.44502
608.2479, 21.03941
608.7300, 13.08238
609.2121, 3.413101
609.6942, 3.449097
610.1763, 6.995560
610.6584, 5.002625
611.1406, 11.01042
611.6227, 20.62952
612.1048, 14.66083
612.5869, 4.944382
613.0690, 1.778427
613.5511, 5.297058
614.0333, 9.981613
614.5154, 12.54025
614.9975, 13.33035
615.4796, 12.85040
615.9617, 11.08180
616.4438, 8.730927
616.9260, 5.204712
617.4081, 2.684952
617.8902, 3.985840
618.3723, 8.601395
618.8544, 11.40091
619.3365, 10.93506
619.8187, 10.19508
620.3008, 9.783966
620.7829, 9.829910
621.2650, 10.45352
621.7471, 11.67131
622.2292, 13.61758
622.7114, 16.82823
623.1935, 20.29149
623.6756, 20.68619
624.1577, 17.63049
624.6398, 13.63846
625.1219, 7.821884
625.6041, 3.164429
626.0862, 3.919022
626.5683, 8.969559
627.0504, 11.95267
627.5325, 10.18483
628.0146, 8.278656
628.4968, 7.833664
628.9789, 8.654312
629.4610, 11.42055
629.9431, 15.62067
630.4252, 18.33492
630.9073, 16.35063
631.3895, 10.93335
631.8716, 8.787018
632.3537, 11.72841
632.8358, 13.39777
633.3179, 11.16858
633.8000, 8.495422
634.2822, 9.457901
634.7643, 13.24464
635.2464, 14.69473
635.7285, 9.524765
636.2106, 5.465546
636.6927, 8.514557
637.1749, 14.23872
637.6570, 16.43671
638.1391, 14.01602
638.6212, 9.161285
639.1033, 2.881042
639.5854, 3.527771
640.0676, 3.484726
640.5497, 5.439377
641.0318, 13.00497
641.5139, 17.36214
641.9960, 19.19000
642.4781, 17.44180
642.9603, 13.36383
643.4424, 12.54259
643.9245, 21.11205
644.4066, 27.95065
644.8887, 26.45595
645.3708, 20.28696
645.8530, 13.04260
646.3351, 6.195862
646.8172, 2.313965
647.2993, 4.212723
647.7814, 9.822250
648.2635, 11.10728
648.7457, 6.813828
649.2278, 3.477493
649.7099, 1.621689
650.1920, 2.052200
650.6741, 7.199661
651.1563, 15.50212
651.6384, 20.79591
652.1205, 19.43605
652.6026, 17.99471
653.0847, 21.75389
653.5668, 25.69234
654.0490, 21.65329
654.5311, 10.32259
655.0132, 0.8300170
655.4953, 6.5765001E-02
655.9774, 5.141006
656.4595, 8.259415
656.9417, 9.109940
657.4238, 10.31859
657.9059, 13.19551
658.3880, 15.15454
658.8701, 12.68430
659.3522, 7.639481
659.8344, 5.438446
660.3165, 8.993881
660.7986, 11.75313
661.2807, 10.62026
661.7628, 8.243561
662.2449, 7.596573
662.7271, 8.364975
663.2092, 7.798325
663.6913, 3.932404
664.1734, 0.6087190
664.6555, 0.5646510
665.1376, 7.693756
665.6198, 9.642929
666.1019, 2.551666
666.5840, 3.268539
667.0661, 0.8090670
667.5482, 10.97900
668.0303, 15.27193
668.5125, 10.30205
668.9946, 7.708435
669.4767, 11.71313
669.9588, 16.44324
670.4409, 17.64380
670.9230, 15.86388
671.4052, 12.98436
671.8873, 9.795074
672.3694, 7.117920
672.8515, 6.282898
673.3336, 7.043900
673.8157, 8.114227
674.2979, 9.607666
674.7800, 9.996368
675.2621, 7.872787
675.7442, 4.704651
676.2263, 3.661240
676.7084, 5.273071
677.1906, 7.685944
677.6727, 12.44743
678.1548, 16.33066
678.6369, 17.49904
679.1190, 16.89355
679.6011, 15.40671
680.0833, 13.42700
680.5654, 12.81606
681.0475, 17.21272
681.5296, 23.61554
682.0117, 24.48741
682.4938, 19.97063
682.9760, 15.43657
683.4581, 12.89658
683.9402, 11.63412
684.4223, 10.71718
684.9044, 10.14748
685.3865, 9.927750
685.8687, 11.99985
686.3508, 12.00090
686.8329, 7.237320
687.3150, 1.170776
687.7971, 3.827698
688.2792, 7.057312
688.7614, 7.022202
689.2435, 3.8741998E-02
689.7256, 8.257751
690.2077, 10.67072
690.6898, 9.337997
691.1719, 10.81102
691.6541, 16.55800
692.1362, 21.99648
692.6183, 22.57680
693.1004, 19.20964
693.5825, 17.67320
694.0646, 18.82515
694.5468, 19.76373
695.0289, 20.98695
695.5110, 20.90750
695.9931, 16.97169
696.4752, 10.83662
696.9573, 7.821579
697.4395, 10.80276
697.9216, 13.89607
698.4037, 15.03310
698.8858, 13.98846
699.3679, 8.661331
699.8500, 0.7900090
700.3322, 3.008240
700.8143, 1.070938
701.2964, 8.978928
701.7785, 12.43283
702.2606, 11.20847
702.7427, 10.84615
703.2249, 12.08377
703.7070, 13.27873
704.1891, 13.56294
704.6712, 13.19389
705.1533, 12.75337
705.6354, 12.29929
706.1176, 11.60164
706.5997, 10.73160
707.0818, 9.504425
707.5639, 6.899963
708.0460, 4.196838
708.5281, 3.578461
709.0103, 5.587692
709.4924, 8.516586
709.9745, 11.23289
710.4566, 13.56117
710.9387, 15.31087
711.4208, 16.41978
711.9030, 15.39874
712.3851, 11.18292
712.8672, 7.320343
713.3493, 8.719788
713.8314, 15.61758
714.3135, 17.69231
714.7957, 7.857468
715.2778, 3.061188
715.7599, 12.16800
716.2420, 21.88518
716.7241, 20.21858
717.2062, 9.220016
717.6884, 0.6209110
718.1705, 0.7896580
718.6526, 1.419983
719.1347, 6.691071
719.6168, 12.85480
720.0989, 15.92676
720.5811, 15.70442
721.0632, 14.69624
721.5453, 14.47957
722.0274, 14.70522
722.5095, 15.19049
722.9916, 16.27959
723.4738, 14.32512
723.9559, 7.046600
724.4380, 0.6461490
724.9201, 0.6577000
725.4022, 1.429672
725.8843, 3.710831
726.3665, 6.012115
726.8486, 9.123840
727.3307, 15.45253
727.8128, 20.29335
728.2949, 19.49492
728.7770, 15.91655
729.2592, 14.44771
729.7413, 16.20680
730.2234, 17.93678
730.7055, 16.78703
731.1876, 13.53142
731.6697, 8.052719
732.1519, 1.069901
732.6340, 1.225800
733.1161, 12.02005
733.5982, 22.97647
734.0803, 22.72057
734.5624, 12.44855
735.0446, 8.040863
735.5267, 13.74362
736.0088, 18.07101
736.4909, 19.88657
736.9730, 19.86308
737.4551, 17.41284
737.9373, 13.48793
738.4194, 10.24948
738.9015, 7.726791
739.3836, 7.323135
739.8657, 12.00082
740.3478, 17.77145
740.8300, 19.62962
741.3121, 18.37044
741.7942, 17.25728
742.2763, 17.70695
742.7584, 18.81482
743.2405, 19.06192
743.7227, 18.50513
744.2048, 17.89235
744.6869, 17.27049
745.1690, 16.24086
745.6511, 14.02594
746.1332, 11.89742
746.6154, 11.61575
747.0975, 13.71286
747.5796, 15.59059
748.0617, 19.46643
748.5438, 20.37012
749.0259, 14.67206
749.5081, 7.296158
749.9902, 1.647507
750.4723, 1.521774
750.9544, 1.407471
751.4365, 3.837936
751.9186, 9.823410
752.4008, 13.00534
752.8829, 13.87953
753.3650, 11.83273
753.8471, 7.766815
754.3292, 7.518723
754.8113, 15.18219
755.2935, 25.06784
755.7756, 24.68988
756.2577, 12.70866
756.7398, 3.718491
757.2219, 2.217743
757.7040, 4.081512
758.1862, 0.7316590
758.6683, 8.779938
759.1504, 12.98727
759.6325, 11.97102
760.1146, 11.47437
760.5967, 13.83568
761.0789, 15.37912
761.5610, 13.28450
762.0431, 10.57664
762.5252, 10.89874
763.0073, 14.25708
763.4894, 17.80876
763.9716, 20.34009
764.4537, 21.71765
764.9358, 22.07378
765.4179, 21.11172
765.9000, 16.97281
766.3821, 9.901642
766.8643, 4.463715
767.3464, 3.625626
767.8285, 6.161758
768.3106, 9.659424
768.7927, 14.38338
769.2748, 18.71658
769.7570, 24.21930
770.2391, 25.61359
770.7212, 16.85178
771.2033, 4.917786
771.6854, 1.248428
772.1675, 6.851105
772.6497, 11.23792
773.1318, 12.24506
773.6139, 13.06302
774.0960, 15.95450
774.5781, 18.68294
775.0602, 17.88118
775.5424, 14.01205
776.0245, 11.36458
776.5066, 12.97601
776.9887, 15.85841
777.4708, 16.81717
777.9529, 16.39037
778.4351, 16.11357
778.9172, 16.08847
779.3993, 15.24124
779.8814, 12.87340
780.3635, 9.633469
780.8456, 6.271957
781.3278, 2.414154
781.8099, 2.443848
782.2920, 8.070480
782.7741, 13.29620
783.2562, 15.84393
783.7383, 16.64215
784.2205, 16.91217
784.7026, 16.67175
785.1847, 15.69972
785.6668, 12.81378
786.1489, 10.69391
786.6310, 10.28035
787.1132, 10.81804
787.5953, 11.57797
788.0774, 12.49161
788.5595, 14.75145
789.0416, 19.95512
789.5237, 23.84589
790.0059, 20.46751
790.4880, 14.45488
790.9701, 14.27554
791.4522, 19.19775
791.9343, 22.35612
792.4164, 20.46750
792.8986, 16.38733
793.3807, 13.77394
793.8628, 12.62659
794.3449, 13.79338
794.8270, 18.03453
795.3091, 19.47803
795.7913, 14.86568
796.2734, 9.709671
796.7555, 11.10423
797.2376, 18.54561
797.7197, 19.59323
798.2018, 6.090195
798.6840, 2.456100
799.1661, 2.463913
799.6482, 0.7897640
800.1303, 5.722137
800.6124, 11.02315
801.0945, 14.83035
801.5767, 16.93674
802.0588, 16.26683
802.5409, 9.529861
803.0230, 2.120224
803.5051, 1.504074
803.9872, 1.762161
804.4694, 8.3770998E-02
804.9515, 3.059235
805.4336, 8.048523
805.9157, 16.96811
806.3978, 26.44720
806.8799, 27.44678
807.3621, 20.97833
807.8442, 14.23857
808.3263, 8.473373
808.8084, 5.341629
809.2905, 6.678574
809.7726, 10.59500
810.2548, 11.13109
810.7369, 6.352478
811.2190, 4.733185
811.7011, 8.862808
812.1832, 12.33264
812.6653, 11.29471
813.1475, 8.607712
813.6296, 8.653961
814.1117, 11.87784
814.5938, 12.50839
815.0759, 8.252869
815.5580, 2.877747
816.0402, 6.158905
816.5223, 12.45804
817.0044, 5.711670
817.4865, 10.46353
817.9686, 20.48352
818.4507, 15.52084
818.9329, 7.626755
819.4150, 8.206589
819.8971, 12.50311
820.3792, 12.08725
820.8613, 8.014481
821.3434, 7.937378
821.8256, 14.92772
822.3077, 22.04573
822.7898, 19.64082
823.2719, 9.903534
823.7540, 3.745041
824.2361, 1.214325
824.7183, 3.076767
825.2004, 10.87093
825.6825, 17.75566
826.1646, 17.23296
826.6467, 11.11028
827.1288, 8.233887
827.6110, 10.68156
828.0931, 12.01112
828.5752, 11.57758
829.0573, 10.49361
829.5394, 7.950943
830.0215, 5.681335
830.5037, 7.035995
830.9858, 12.82436
831.4679, 15.66298
831.9500, 11.03758
832.4321, 6.305954
832.9142, 5.499496
833.3964, 6.085800
833.8785, 4.605347
834.3606, 1.436432
834.8427, 9.5473997E-02
835.3248, 3.034073
835.8069, 6.206024
836.2891, 4.538239
836.7712, 0.9893340
837.2533, 1.012024
837.7354, 4.161224
838.2175, 6.539703
838.6996, 6.600830
839.1818, 6.659622
839.6639, 9.808273
840.1460, 15.25769
840.6281, 19.40266
841.1102, 22.23610
841.5923, 24.29927
842.0745, 25.89711
842.5566, 25.87556
843.0387, 23.16360
843.5208, 18.22913
844.0029, 12.40590
844.4850, 2.764404
844.9672, 0.8389590
845.4493, 6.243362
845.9314, 13.01514
846.4135, 14.42992
846.8956, 13.30887
847.3777, 12.82184
847.8599, 13.06165
848.3420, 13.27011
848.8241, 12.31747
849.3062, 12.64500
849.7883, 17.42949
850.2704, 22.09618
850.7526, 21.69215
851.2347, 17.16925
851.7168, 12.44115
852.1989, 8.891022
852.6810, 6.738022
853.1631, 6.655975
853.6453, 7.690552
854.1274, 9.730499
854.6095, 11.79926
855.0916, 10.72229
855.5737, 6.351120
856.0558, 4.684540
856.5380, 12.45664
857.0201, 23.44716
857.5022, 23.27390
857.9843, 14.58174
858.4664, 11.46460
858.9485, 15.77788
859.4307, 20.83736
859.9128, 22.98483
860.3949, 22.86525
860.8770, 21.41336
861.3591, 18.43675
861.8412, 15.09962
862.3234, 10.99466
862.8055, 8.708618
863.2876, 9.738220
863.7697, 11.80705
864.2518, 12.97906
864.7339, 13.45050
865.2161, 14.42699
865.6982, 15.86220
866.1803, 17.88658
866.6624, 21.08766
867.1445, 24.20920
867.6266, 28.16075
868.1088, 31.00386
868.5909, 29.60533
869.0730, 23.50935
869.5551, 16.86011
870.0372, 7.462708
870.5193, 1.618469
871.0015, 5.006134
871.4836, 11.07816
871.9657, 13.39520
872.4478, 12.24492
872.9299, 10.90683
873.4120, 10.48697
873.8942, 10.72195
874.3763, 12.47699
874.8584, 15.25887
875.3405, 18.70494
875.8226, 21.18382
876.3047, 18.85255
876.7869, 11.49240
877.2690, 5.287079
877.7511, 5.667694
878.2332, 9.636612
878.7153, 11.59456
879.1974, 12.23877
879.6796, 14.70766
880.1617, 19.20439
880.6438, 23.54648
881.1259, 26.82806
881.6080, 27.47148
882.0901, 22.07579
882.5723, 11.17896
883.0544, 4.009048
883.5365, 0.5454710
884.0186, 1.742630
884.5007, 8.849670
884.9828, 15.85793
885.4650, 17.52440
885.9471, 15.27403
886.4292, 14.39409
886.9113, 15.99921
887.3934, 14.92961
887.8755, 8.151108
888.3577, 3.359116
888.8398, 4.956818
889.3219, 8.862732
889.8040, 10.70073
890.2861, 10.51955
890.7682, 9.320068
891.2504, 4.652802
891.7325, 2.543137
892.2146, 5.640579
892.6967, 9.997910
893.1788, 14.00224
893.6609, 17.15001
894.1431, 19.08003
894.6252, 19.75085
895.1073, 18.67911
895.5894, 13.40059
896.0715, 8.887939
896.5536, 9.450241
897.0358, 11.66315
897.5179, 11.20468
898.0000, 8.227097
898.4821, 5.314560
898.9642, 3.479156
899.4464, 2.727585
899.9285, 4.342255
900.4106, 6.136154
900.8927, 3.117096
901.3748, 1.695740
901.8569, 5.9264999E-02
902.3391, 9.842972
902.8212, 20.27489
903.3033, 26.27640
903.7854, 28.68993
904.2675, 28.69589
904.7496, 26.53670
905.2318, 22.69614
905.7139, 17.39124
906.1960, 11.58615
906.6781, 5.651337
907.1602, 0.4927520
907.6423, 2.970810
908.1245, 4.557159
908.6066, 2.621689
909.0887, 2.942993
909.5708, 7.677094
910.0529, 10.82648
910.5350, 12.37363
911.0172, 11.70511
911.4993, 10.86877
911.9814, 15.27916
912.4635, 26.51309
912.9456, 28.83377
913.4277, 18.10670
913.9099, 10.70331
914.3920, 12.14615
914.8741, 16.73856
915.3562, 20.23006
915.8383, 22.53844
916.3204, 23.13144
916.8026, 20.42403
917.2847, 19.28294
917.7668, 22.38873
918.2489, 23.56285
918.7310, 19.52115
919.2131, 13.12506
919.6953, 6.536179
920.1774, 1.4709000E-02
920.6595, 4.023331
921.1416, 3.862015
921.6237, 3.130478
922.1058, 2.797501
922.5880, 1.645248
923.0701, 1.585999
923.5522, 6.091583
924.0343, 10.68585
924.5164, 15.58516
924.9985, 19.36200
925.4807, 22.71234
925.9628, 23.46121
926.4449, 18.32814
926.9270, 11.98901
927.4091, 7.945984
927.8912, 6.692581
928.3734, 8.662003
928.8555, 14.30304
929.3376, 19.82964
929.8197, 25.07170
930.3018, 27.18884
930.7839, 20.62823
931.2661, 11.08182
931.7482, 7.348740
932.2303, 9.424469
932.7124, 11.54256
933.1945, 10.90662
933.6766, 9.054260
934.1588, 4.830231
934.6409, 2.073792
935.1230, 9.471802
935.6051, 22.24910
936.0872, 28.09294
936.5693, 24.63055
937.0515, 17.36206
937.5336, 8.760025
938.0157, 2.712585
938.4978, 8.083694
938.9799, 19.48979
939.4620, 23.96307
939.9442, 21.29062
940.4263, 13.94267
940.9084, 3.296982
941.3905, 3.212692
941.8726, 3.431595
942.3547, 15.93114
942.8369, 14.55170
943.3190, 2.312332
943.8011, 2.121063
944.2832, 2.883820
944.7653, 8.158371
945.2474, 9.580734
945.7296, 9.112473
946.2117, 8.945221
946.6938, 9.185165
947.1759, 10.85966
947.6580, 14.00208
948.1401, 15.06949
948.6223, 13.30470
949.1044, 11.75391
949.5865, 12.27853
950.0686, 13.46106
950.5507, 12.70844
951.0328, 10.11052
951.5150, 9.405075
951.9971, 11.07280
952.4792, 11.63513
952.9613, 9.911682
953.4434, 8.549820
953.9255, 9.248291
954.4077, 11.69635
954.8898, 15.76646
955.3719, 22.26221
955.8540, 23.98958
956.3361, 19.52133
956.8182, 14.15288
957.3004, 8.432953
957.7825, 3.584732
958.2646, 0.2614440
958.7467, 1.260056
959.2288, 0.2803960
959.7109, 6.270065
960.1931, 9.869919
960.6752, 9.334122
961.1573, 9.630875
961.6394, 14.04863
962.1215, 17.61270
962.6036, 14.19469
963.0858, 6.000015
963.5679, 3.408447
964.0500, 9.647781
964.5321, 14.77495
965.0142, 20.25970
965.4963, 22.48109
965.9785, 17.38788
966.4606, 11.19940
966.9427, 11.13927
967.4248, 15.57101
967.9069, 16.13719
968.3890, 8.420746
968.8712, 4.182510
969.3533, 7.057251
969.8354, 9.799927
970.3175, 9.358856
970.7996, 7.327576
971.2817, 4.520020
971.7639, 1.398911
972.2460, 1.458450
972.7281, 9.788940
973.2102, 14.11017
973.6923, 6.671173
974.1744, 1.695084
974.6566, 10.86156
975.1387, 24.05440
975.6208, 27.68083
976.1029, 21.52763
976.5850, 15.12816
977.0671, 8.180359
977.5493, 4.423874
978.0314, 7.565155
978.5135, 10.78502
978.9956, 10.79619
979.4777, 8.436218
979.9598, 3.348679
980.4420, 3.846420
980.9241, 5.306183
981.4062, 6.444962
981.8883, 16.40405
982.3704, 18.89124
982.8525, 19.15120
983.3347, 20.46498
983.8168, 22.20876
984.2989, 23.19133
984.7810, 23.18593
985.2631, 21.89590
985.7452, 18.46167
986.2274, 14.74532
986.7095, 10.57014
987.1916, 7.242401
987.6737, 5.660278
988.1558, 5.662842
988.6379, 7.235306
989.1201, 10.28139
989.6022, 13.03088
990.0843, 15.61845
990.5664, 16.73511
991.0485, 14.32684
991.5306, 11.57567
992.0128, 11.27258
992.4949, 12.51617
992.9770, 13.17638
993.4591, 12.87537
993.9412, 13.35632
994.4233, 17.47295
994.9055, 19.77748
995.3876, 16.41660
995.8697, 11.22798
996.3518, 5.390686
996.8339, 1.092773
997.3160, 3.057648
997.7982, 11.95621
998.2803, 18.55476
998.7624, 17.62787
999.2445, 14.90187
999.7266, 12.75990
1000.209, 11.26166
1000.691, 11.23032
1001.173, 11.79813
1001.655, 11.17500
1002.137, 9.352966
1002.619, 7.225159
1003.101, 4.290955
1003.584, 2.383484
1004.066, 2.331619
1004.548, 3.797256
1005.030, 8.460129
1005.512, 13.67093
1005.994, 13.09721
1006.476, 5.949539
1006.958, 3.148178
1007.440, 15.33456
1007.923, 25.26285
1008.405, 22.89056
1008.887, 16.32851
1009.369, 10.73317
1009.851, 6.822266
1010.333, 4.715759
1010.815, 4.398804
1011.297, 5.289444
1011.780, 7.937515
1012.262, 11.30920
1012.744, 16.20491
1013.226, 20.24551
1013.708, 21.20190
1014.190, 19.94040
1014.672, 17.71931
1015.154, 14.99800
1015.636, 11.08473
1016.119, 1.404999
1016.601, 3.750107
1017.083, 4.421921
1017.565, 14.18462
1018.047, 17.18565
1018.529, 15.85086
1019.011, 13.98410
1019.493, 12.42494
1019.976, 12.72107
1020.458, 18.35704
1020.940, 21.45941
1021.422, 16.77406
1021.904, 11.57785
1022.386, 12.15318
1022.868, 14.40019
1023.350, 11.17165
1023.832, 2.616501
1024.315, 2.598938
1024.797, 1.374008
1025.279, 1.777893
1025.761, 6.835617
1026.243, 12.25067
1026.725, 19.49515
1027.207, 25.06377
1027.689, 22.88625
1028.172, 14.09526
1028.654, 9.002228
1029.136, 11.80203
1029.618, 13.88460
1030.100, 11.65646
1030.582, 10.82532
1031.064, 17.91031
1031.546, 24.83345
1032.028, 20.94763
1032.511, 8.343277
1032.993, 3.8849000E-02
1033.475, 2.608231
1033.957, 1.111206
1034.439, 9.220245
1034.921, 17.55255
1035.403, 18.94263
1035.885, 17.74358
1036.368, 17.25410
1036.850, 17.61732
1037.332, 19.40886
1037.814, 24.87669
1038.296, 26.34964
1038.778, 19.15616
1039.260, 13.44464
1039.742, 12.45503
1040.224, 13.43036
1040.707, 15.35953
1041.189, 17.33591
1041.671, 16.75641
1042.153, 12.91066
1042.635, 9.486664
1043.117, 5.291168
1043.599, 3.976822
1044.081, 7.319489
1044.563, 12.09282
1045.046, 16.60426
1045.528, 20.80302
1046.010, 24.91342
1046.492, 29.22301
1046.974, 29.57147
1047.456, 24.72319
1047.938, 19.03430
1048.420, 11.33736
1048.902, 8.406738
1049.385, 16.12059
1049.867, 26.49332
1050.349, 26.50002
1050.831, 17.11572
1051.313, 13.28464
1051.795, 15.92284
1052.277, 18.44371
1052.759, 20.21085
1053.242, 21.17200
1053.724, 21.24678
1054.206, 20.69739
1054.688, 19.63173
1055.170, 18.40408
1055.652, 18.98085
1056.134, 21.35707
1056.616, 22.25343
1057.099, 21.38791
1057.581, 18.83513
1058.063, 14.47873
1058.545, 11.26000
1059.027, 12.04785
1059.509, 15.45076
1059.991, 18.81937
1060.473, 21.90691
1060.955, 22.71516
1061.438, 21.60342
1061.920, 22.95381
1062.402, 27.42950
1062.884, 27.33684
1063.366, 16.47438
1063.848, 3.937073
1064.330, 5.575958
1064.812, 15.18765
1065.294, 18.03395
1065.777, 15.29741
1066.259, 9.550385
1066.741, 2.930283
1067.223, 3.819534
1067.705, 16.81781
1068.187, 27.17769
1068.669, 13.60890
1069.151, 6.383316
1069.634, 6.475998
1070.116, 3.152298
1070.598, 4.171310
1071.080, 2.502457
1071.562, 5.431366
1072.044, 0.9363100
1072.526, 4.349747
1073.008, 5.683792
1073.490, 6.262009
1073.973, 7.344238
1074.455, 9.747101
1074.937, 18.66660
1075.419, 28.53206
1075.901, 27.42728
1076.383, 14.79735
1076.865, 5.166901
1077.347, 5.679459
1077.829, 8.237640
1078.312, 9.401932
1078.794, 11.17351
1079.276, 17.13922
1079.758, 22.93814
1080.240, 21.49966
1080.722, 14.48152
1081.204, 12.00894
1081.686, 18.21471
1082.169, 22.56548
1082.651, 24.32002
1083.133, 23.08563
1083.615, 13.65411
1084.097, 5.597427
1084.579, 9.245697
1085.061, 19.78984
1085.543, 24.30312
1086.026, 21.43579
1086.508, 19.50598
1086.990, 19.34482
1087.472, 18.40816
1087.954, 15.18265
1088.436, 13.28105
1088.918, 15.88464
1089.400, 19.24586
1089.882, 17.44560
1090.365, 11.06168
1090.847, 7.193420
1091.329, 5.672745
1091.811, 7.594910
1092.293, 14.05029
1092.775, 18.49149
1093.257, 18.40558
1093.739, 15.97223
1094.221, 13.27988
1094.704, 9.834961
1095.186, 2.329468
1095.668, 8.150726
1096.150, 8.143036
1096.632, 1.779846
1097.114, 10.13667
1097.596, 14.16077
1098.078, 16.72813
1098.561, 19.65277
1099.043, 22.24738
1099.525, 24.84830
1100.007, 25.75348
1100.489, 17.70898
1100.971, 5.794617
1101.453, 4.855560
1101.935, 13.58394
1102.417, 18.91173
1102.900, 16.04305
1103.382, 11.85968
1103.864, 11.06525
1104.346, 12.57330
1104.828, 16.26091
1105.310, 20.19534
1105.792, 22.01897
1106.274, 22.15109
1106.756, 21.19983
1107.239, 19.65877
1107.721, 19.18893
1108.203, 21.08868
1108.685, 22.41624
1109.167, 22.55203
1109.649, 20.92303
1110.131, 14.66656
1110.613, 8.535995
1111.096, 8.474457
1111.578, 12.50122
1112.060, 14.04044
1112.542, 11.96681
1113.024, 9.268463
1113.506, 1.539780
1113.988, 0.3372800
1114.470, 12.47934
1114.953, 25.07587
1115.435, 32.82347
1115.917, 35.64940
1116.399, 32.44624
1116.881, 23.84323
1117.363, 17.37047
1117.845, 12.66995
1118.327, 12.25238
1118.809, 17.61336
1119.292, 20.89279
1119.774, 19.20074
1120.256, 15.72441
1120.738, 12.85193
1121.220, 11.15572
1121.702, 13.18242
1122.184, 17.94073
1122.666, 16.51723
1123.148, 9.899765
1123.631, 9.128555
1124.113, 15.51837
1124.595, 22.40547
1125.077, 26.51285
1125.559, 28.15015
1126.041, 28.10146
1126.523, 25.26030
1127.005, 13.66251
1127.488, 0.3191530
1127.970, 1.987061
1128.452, 3.710831
1128.934, 9.996567
1129.416, 14.32794
1129.898, 14.24213
1130.380, 5.552200
1130.862, 0.6714630
1131.344, 5.708038
1131.827, 13.31801
1132.309, 13.77438
1132.791, 11.30701
1133.273, 10.81688
1133.755, 11.77841
1134.237, 12.10742
1134.719, 11.36877
1135.201, 10.64377
1135.683, 9.001938
1136.166, 9.007751
1136.648, 11.99933
1137.130, 15.74796
1137.612, 20.54333
1138.094, 24.21967
1138.576, 24.06197
1139.058, 20.41342
1139.540, 14.95883
1140.023, 6.693558
1140.505, 1.603668
1140.987, 6.1432000E-02
1141.469, 0.4442440
1141.951, 2.540451
1142.433, 6.142914
1142.915, 11.30891
1143.397, 16.76346
1143.880, 20.75533
1144.362, 23.11105
1144.844, 22.88997
1145.326, 20.51295
1145.808, 16.63028
1146.290, 12.13539
1146.772, 10.83379
1147.254, 13.66843
1147.736, 16.26872
1148.219, 15.55911
1148.701, 12.95586
1149.183, 7.587158
1149.665, 3.209167
1150.147, 3.720428
1150.629, 8.276688
1151.111, 18.72134
1151.593, 31.44945
1152.075, 34.61763
1152.558, 23.24883
1153.040, 15.54778
1153.522, 23.30646
1154.004, 26.87909
1154.486, 12.82344
1154.968, 0.3661960
1155.450, 5.350220
1155.932, 17.93431
1156.415, 23.77481
1156.897, 23.26497
1157.379, 22.09915
1157.861, 20.39644
1158.343, 17.69000
1158.825, 13.12704
1159.307, 11.36328
1159.789, 14.68567
1160.271, 15.63211
1160.754, 8.406815
1161.236, 1.150757
1161.718, 3.874176
1162.200, 0.6316830
1162.682, 7.115570
1163.164, 17.57312
1163.646, 22.30920
1164.128, 21.36462
1164.610, 19.22786
1165.093, 17.58403
1165.575, 17.27805
1166.057, 19.60512
1166.539, 20.86745
1167.021, 15.36400
1167.503, 8.929916
1167.985, 6.397156
1168.467, 7.595093
1168.950, 15.68510
1169.432, 26.20444
1169.914, 26.21706
1170.396, 12.29120
1170.878, 3.228622
1171.360, 7.441559
1171.842, 11.99937
1172.324, 13.35695
1172.807, 15.36038
1173.289, 21.59389
1173.771, 27.45596
1174.253, 28.07710
1174.735, 24.71262
1175.217, 21.05066
1175.699, 16.61890
1176.181, 17.21106
1176.663, 24.14247
1177.146, 23.30145
1177.628, 11.61935
1178.110, 3.678177
1178.592, 6.803223
1179.074, 11.40508
1179.556, 6.001266
1180.038, 2.755432
1180.520, 0.1821590
1181.002, 8.295944
1181.485, 10.44013
1181.967, 8.235641
1182.449, 8.387085
1182.931, 11.59190
1183.413, 14.39157
1183.895, 15.23857
1184.377, 17.11412
1184.859, 25.36632
1185.342, 30.45572
1185.824, 23.76062
1186.306, 15.44554
1186.788, 12.38509
1187.270, 13.05688
1187.752, 15.19096
1188.234, 18.32077
1188.716, 19.68129
1189.198, 19.92072
1189.681, 15.60172
1190.163, 1.963745
1190.645, 1.753769
1191.127, 12.08766
1191.609, 23.58647
1192.091, 20.77414
1192.573, 12.13953
1193.055, 8.828415
1193.537, 9.380127
1194.020, 8.704147
1194.502, 7.613403
1194.984, 9.583054
1195.466, 14.38098
1195.948, 22.80418
1196.430, 32.86664
1196.912, 32.85347
1197.394, 16.07181
1197.877, 0.1176610
1198.359, 1.314728
1198.841, 2.292496
1199.323, 4.651398
1199.805, 6.718292
1200.287, 10.08081
1200.769, 13.57611
1201.251, 14.72714
1201.734, 13.84642
1202.216, 15.01222
1202.698, 19.29242
1203.180, 24.05638
1203.662, 33.77672
1204.144, 36.02553
1204.626, 25.37596
1205.108, 14.23056
1205.590, 9.153397
1206.073, 8.701965
1206.555, 12.14268
1207.037, 17.03294
1207.519, 13.43059
1208.001, 3.815399
1208.483, 0.4700470
1208.965, 2.984909
1209.447, 7.835907
1209.929, 13.30762
1210.412, 15.72081
1210.894, 13.28291
1211.376, 10.07750
1211.858, 10.42712
1212.340, 9.497070
1212.822, 1.755142
1213.304, 5.457474
1213.786, 5.280945
1214.269, 0.6278380
1214.751, 5.711884
1215.233, 12.36559
1215.715, 14.26180
1216.197, 8.866516
1216.679, 6.844559
1217.161, 8.450180
1217.643, 13.26138
1218.125, 23.99535
1218.608, 30.63486
1219.090, 28.21092
1219.572, 21.84142
1220.054, 16.31613
1220.536, 12.08401
1221.018, 10.52490
1221.500, 10.58661
1221.982, 11.04501
1222.464, 11.55705
1222.947, 12.42982
1223.429, 13.30750
1223.911, 11.95209
1224.393, 7.989517
1224.875, 7.367447
1225.357, 17.09322
1225.839, 24.45628
1226.321, 17.43176
1226.804, 12.42253
1227.286, 27.27988
1227.768, 42.56992
1228.250, 32.92355
1228.732, 10.90466
1229.214, 4.664963
1229.696, 19.98064
1230.178, 22.58324
1230.661, 7.911362
1231.143, 3.787567
1231.625, 13.33687
1232.107, 22.91872
1232.589, 28.36519
1233.071, 30.64166
1233.553, 30.29405
1234.035, 28.28049
1234.517, 25.12151
1235.000, 21.76596
1235.482, 20.11531
1235.964, 19.08778
1236.446, 16.86003
1236.928, 14.01370
1237.410, 11.80371
1237.892, 10.31050
1238.374, 10.27916
1238.856, 12.14946
1239.339, 14.03773
1239.821, 16.68652
1240.303, 17.59998
1240.785, 16.34448
1241.267, 12.96446
1241.749, 5.808746
1242.231, 0.2374110
1242.713, 0.3962400
1243.196, 5.828369
1243.678, 3.813904
1244.160, 0.0000000E+00
##END=



