##NAMES=Manganilvaite
##RRUFFID=R070334
##IDEAL CHEMISTRY=CaFe^2+^Fe^3+^Mn^2+^(Si_2_O_7_)O(OH)
##LOCALITY=First Sovetskiy mine, Dalnegorsk, Far East of Russia
##OWNER=RRUFF
##SOURCE=Michael Scott
##DESCRIPTION=Black prismatic crystal
##STATUS=The identification of this mineral has been confirmed by X-ray diffraction.
##URL=rruff.info/R070334
159.5887, 0.0000000E+00
160.0709, 2.503418
160.5530, 9.183594
161.0351, 13.03979
161.5172, 4.705627
161.9993, 2.042053
162.4814, 5.7007000E-02
162.9636, 7.814514
163.4457, 16.21637
163.9278, 24.34906
164.4099, 31.75732
164.8920, 37.40283
165.3741, 40.92273
165.8563, 43.52484
166.3384, 45.50116
166.8205, 47.14331
167.3026, 48.88531
167.7847, 50.36383
168.2668, 52.22021
168.7490, 57.25012
169.2311, 68.90802
169.7132, 75.58893
170.1953, 66.55664
170.6774, 49.61969
171.1595, 36.90161
171.6417, 34.70496
172.1238, 39.94910
172.6059, 45.81995
173.0880, 54.13269
173.5701, 59.14050
174.0522, 57.32172
174.5344, 51.26379
175.0165, 44.26794
175.4986, 37.07971
175.9807, 30.47852
176.4628, 27.01880
176.9449, 28.89209
177.4271, 29.87567
177.9092, 26.48547
178.3913, 21.15472
178.8734, 17.32562
179.3555, 17.08264
179.8376, 19.00342
180.3197, 18.42584
180.8019, 12.63226
181.2840, 9.288147
181.7661, 12.57422
182.2482, 18.74841
182.7303, 23.10767
183.2124, 23.15015
183.6946, 20.30048
184.1767, 17.87665
184.6588, 12.77106
185.1409, 14.22021
185.6230, 30.30646
186.1051, 51.11438
186.5873, 64.92841
187.0694, 65.72034
187.5515, 58.06702
188.0336, 53.80048
188.5157, 53.64520
188.9978, 56.15662
189.4800, 63.45667
189.9621, 71.75702
190.4442, 77.06104
190.9263, 77.45630
191.4084, 74.57446
191.8905, 72.33698
192.3727, 71.40839
192.8548, 69.90283
193.3369, 65.26562
193.8190, 60.99103
194.3011, 61.25201
194.7832, 67.77991
195.2654, 77.22559
195.7475, 82.29626
196.2296, 81.08783
196.7117, 78.77576
197.1938, 72.73511
197.6759, 67.81262
198.1581, 69.50238
198.6402, 79.45813
199.1223, 92.80328
199.6044, 100.2985
200.0865, 98.83868
200.5686, 97.40802
201.0508, 95.86792
201.5329, 95.21783
202.0150, 96.62415
202.4971, 100.2947
202.9792, 104.9663
203.4613, 108.8242
203.9435, 112.2678
204.4256, 113.8395
204.9077, 114.6959
205.3898, 113.2089
205.8719, 106.2197
206.3540, 94.00818
206.8362, 81.89191
207.3183, 78.25720
207.8004, 88.82458
208.2825, 93.28278
208.7646, 85.24268
209.2467, 76.66595
209.7289, 75.49707
210.2110, 82.02527
210.6931, 90.23267
211.1752, 92.76312
211.6573, 87.50482
212.1395, 84.23083
212.6216, 84.89856
213.1037, 85.75330
213.5858, 83.63678
214.0679, 79.44666
214.5500, 77.27686
215.0322, 82.01434
215.5143, 95.24829
215.9964, 104.7186
216.4785, 107.0672
216.9606, 108.8648
217.4427, 114.2800
217.9249, 121.6975
218.4070, 124.7137
218.8891, 116.1404
219.3712, 95.36377
219.8533, 86.20032
220.3354, 102.8696
220.8176, 118.2574
221.2997, 124.4803
221.7818, 123.7937
222.2639, 122.0573
222.7460, 123.5127
223.2281, 127.6341
223.7103, 128.6862
224.1924, 124.1122
224.6745, 118.9459
225.1566, 113.1525
225.6387, 107.6237
226.1208, 103.3450
226.6030, 100.8275
227.0851, 100.1674
227.5672, 102.1397
228.0493, 111.9760
228.5314, 117.1434
229.0135, 113.2865
229.4957, 104.7914
229.9778, 96.06995
230.4599, 89.02045
230.9420, 83.84192
231.4241, 81.45215
231.9062, 85.18787
232.3884, 85.86401
232.8705, 81.94446
233.3526, 75.20831
233.8347, 65.78351
234.3168, 54.14917
234.7989, 42.98383
235.2811, 38.06311
235.7632, 41.77490
236.2453, 46.29480
236.7274, 52.55164
237.2095, 58.22125
237.6916, 62.75055
238.1738, 65.60535
238.6559, 65.09894
239.1380, 57.46124
239.6201, 39.07965
240.1022, 26.91077
240.5843, 24.56818
241.0665, 25.77600
241.5486, 29.60522
242.0307, 35.08301
242.5128, 39.71960
242.9949, 40.74768
243.4770, 37.76691
243.9592, 35.36743
244.4413, 32.66016
244.9234, 31.52649
245.4055, 34.19385
245.8876, 39.20264
246.3697, 42.98401
246.8519, 43.04529
247.3340, 39.60303
247.8161, 34.79047
248.2982, 24.98083
248.7803, 17.97351
249.2624, 16.89166
249.7446, 20.39227
250.2267, 25.78925
250.7088, 32.29669
251.1909, 39.04309
251.6730, 43.78827
252.1551, 46.96173
252.6373, 46.90430
253.1194, 39.68250
253.6015, 30.78918
254.0836, 26.39270
254.5657, 29.10950
255.0478, 36.08582
255.5300, 42.77112
256.0121, 48.95471
256.4942, 53.69836
256.9763, 53.63788
257.4584, 53.73395
257.9406, 59.46265
258.4227, 72.23993
258.9048, 83.79193
259.3869, 82.90253
259.8690, 68.98822
260.3511, 61.46429
260.8333, 67.62073
261.3154, 77.66473
261.7975, 85.02625
262.2796, 89.33533
262.7617, 92.61542
263.2438, 97.19806
263.7260, 102.5795
264.2081, 104.7930
264.6902, 100.7623
265.1723, 97.56067
265.6544, 101.8149
266.1365, 111.4136
266.6187, 119.3010
267.1008, 120.1871
267.5829, 117.8050
268.0650, 119.6239
268.5471, 125.4902
269.0292, 132.7503
269.5114, 145.3734
269.9935, 158.4662
270.4756, 162.1279
270.9577, 146.5638
271.4398, 126.4628
271.9219, 118.6229
272.4041, 123.3199
272.8862, 131.1914
273.3683, 139.8378
273.8504, 147.7197
274.3325, 152.3174
274.8146, 153.1006
275.2968, 151.3322
275.7789, 146.8704
276.2610, 140.2675
276.7431, 133.4149
277.2252, 126.1258
277.7073, 120.1116
278.1895, 118.6987
278.6716, 122.6791
279.1537, 126.3499
279.6358, 129.5565
280.1179, 130.6948
280.6000, 126.0142
281.0822, 114.1348
281.5643, 99.87744
282.0464, 88.14301
282.5285, 78.95074
283.0106, 73.08868
283.4927, 74.86700
283.9749, 77.36713
284.4570, 73.05182
284.9391, 61.81818
285.4212, 50.64691
285.9033, 45.53381
286.3854, 46.45312
286.8676, 45.15204
287.3497, 39.11243
287.8318, 33.38055
288.3139, 30.40686
288.7960, 29.74365
289.2781, 30.74390
289.7603, 33.72382
290.2424, 37.01990
290.7245, 33.24109
291.2066, 9.781921
291.6887, 4.816528
292.1708, 1.407104
292.6530, 16.62311
293.1351, 24.92432
293.6172, 20.18597
294.0993, 9.131104
294.5814, 2.374939
295.0635, 2.825989
295.5457, 2.320862
296.0278, 0.1275020
296.5099, 2.712402
296.9920, 4.522644
297.4741, 5.258362
297.9562, 4.576050
298.4384, 1.698486
298.9205, 4.155090
299.4026, 7.153931
299.8847, 2.899353
300.3668, 0.2604980
300.8489, 4.129089
301.3310, 12.01141
301.8131, 18.19141
302.2953, 18.65381
302.7774, 14.66571
303.2595, 13.10046
303.7416, 18.81573
304.2237, 20.23273
304.7058, 9.051636
305.1880, 5.440430
305.6701, 12.27393
306.1522, 7.179382
306.6343, 3.996155
307.1164, 12.71472
307.5985, 19.42651
308.0807, 21.99921
308.5628, 14.22968
309.0449, 6.200378
309.5270, 5.273254
310.0091, 11.55542
310.4912, 17.73004
310.9734, 16.54425
311.4555, 8.806946
311.9376, 2.802124
312.4197, 2.817566
312.9018, 3.427307
313.3839, 8.272217
313.8661, 27.07776
314.3482, 39.05353
314.8303, 34.38544
315.3124, 20.62042
315.7945, 10.66821
316.2766, 5.008606
316.7588, 0.3625490
317.2409, 5.755676
317.7230, 11.55133
318.2051, 13.97015
318.6872, 11.85632
319.1693, 7.683411
319.6515, 1.820313
320.1336, 5.007507
320.6157, 9.277954
321.0978, 8.920227
321.5799, 6.741333
322.0620, 7.546509
322.5442, 11.87396
323.0263, 15.17267
323.5084, 17.07153
323.9905, 16.87488
324.4726, 11.27008
324.9547, 0.2492680
325.4369, 8.652161
325.9190, 3.708923
326.4011, 16.31146
326.8832, 28.66858
327.3653, 28.94849
327.8474, 26.02411
328.3296, 22.76703
328.8117, 20.23553
329.2938, 21.00586
329.7759, 27.19891
330.2580, 36.78632
330.7401, 40.36841
331.2223, 32.23224
331.7044, 25.13434
332.1865, 19.48779
332.6686, 15.90192
333.1507, 15.67023
333.6328, 18.97394
334.1150, 23.66351
334.5971, 26.24750
335.0792, 24.76074
335.5613, 26.60193
336.0434, 38.70312
336.5255, 47.66846
337.0077, 43.80518
337.4898, 29.91229
337.9719, 16.12543
338.4540, 10.10126
338.9361, 11.34729
339.4182, 15.89343
339.9004, 27.08331
340.3825, 36.58502
340.8646, 43.89655
341.3467, 47.71832
341.8288, 45.48724
342.3109, 35.50995
342.7931, 22.72589
343.2752, 14.14398
343.7573, 10.04639
344.2394, 8.205139
344.7215, 9.914551
345.2036, 12.29675
345.6858, 14.18732
346.1679, 15.46667
346.6500, 15.72968
347.1321, 14.09155
347.6142, 11.25385
348.0963, 9.388000
348.5785, 9.121338
349.0606, 8.441101
349.5427, 2.459290
350.0248, 5.435974
350.5069, 5.522522
350.9890, 13.25134
351.4712, 33.09857
351.9533, 38.57617
352.4354, 31.71118
352.9175, 22.99628
353.3996, 16.57532
353.8817, 12.22589
354.3639, 9.427185
354.8460, 7.631531
355.3281, 8.031494
355.8102, 13.72778
356.2923, 20.74847
356.7744, 23.32410
357.2566, 20.37433
357.7387, 16.32825
358.2208, 16.43671
358.7029, 22.05328
359.1850, 24.45142
359.6671, 23.35919
360.1493, 19.87128
360.6314, 11.91235
361.1135, 2.033203
361.5956, 4.616150
362.0777, 4.861450
362.5598, 0.2373660
363.0420, 3.193665
363.5241, 4.866028
364.0062, 7.109009
364.4883, 11.89478
364.9704, 16.09900
365.4525, 16.93561
365.9347, 14.06403
366.4168, 10.19128
366.8989, 7.820374
367.3810, 6.916199
367.8631, 8.830322
368.3452, 15.66766
368.8274, 21.73193
369.3095, 23.47620
369.7916, 22.22168
370.2737, 21.13617
370.7558, 22.26239
371.2379, 25.04321
371.7201, 27.48474
372.2022, 29.56067
372.6843, 31.40729
373.1664, 34.20227
373.6485, 35.92938
374.1306, 32.92047
374.6128, 23.11060
375.0949, 14.88251
375.5770, 15.56122
376.0591, 20.76361
376.5412, 20.70563
377.0233, 12.93225
377.5055, 4.363220
377.9876, 2.313354
378.4697, 7.367920
378.9518, 9.901917
379.4339, 5.486450
379.9160, 2.343262
380.3982, 7.679077
380.8803, 18.56543
381.3624, 26.27826
381.8445, 25.86212
382.3266, 19.87891
382.8087, 15.81805
383.2909, 15.98871
383.7730, 15.59247
384.2551, 14.12372
384.7372, 12.17670
385.2193, 10.62958
385.7014, 9.654541
386.1836, 8.997803
386.6657, 7.928772
387.1478, 5.655640
387.6299, 6.838440
388.1120, 16.53882
388.5941, 23.91980
389.0763, 23.67462
389.5584, 19.30756
390.0405, 16.63007
390.5226, 18.50342
391.0047, 21.88684
391.4868, 21.41681
391.9690, 16.54358
392.4511, 13.01917
392.9332, 13.06024
393.4153, 14.46014
393.8974, 14.68439
394.3795, 13.73730
394.8617, 14.15002
395.3438, 18.29010
395.8259, 24.17859
396.3080, 28.36743
396.7901, 30.53308
397.2722, 32.64935
397.7544, 36.55164
398.2365, 41.48938
398.7186, 43.89417
399.2007, 44.15118
399.6828, 41.54053
400.1649, 34.08173
400.6471, 23.96265
401.1292, 12.91876
401.6113, 1.425659
402.0934, 5.468994
402.5755, 1.163330
403.0576, 29.04437
403.5398, 45.62543
404.0219, 45.66785
404.5040, 41.10901
404.9861, 35.91711
405.4682, 31.26727
405.9503, 28.29156
406.4325, 27.95624
406.9146, 29.35535
407.3967, 28.89764
407.8788, 24.74200
408.3609, 22.18524
408.8430, 23.71167
409.3252, 26.55188
409.8073, 29.89703
410.2894, 33.38757
410.7715, 35.28186
411.2536, 32.63910
411.7357, 26.64484
412.2179, 24.01056
412.7000, 26.47009
413.1821, 29.22687
413.6642, 28.01666
414.1463, 24.77155
414.6284, 23.48602
415.1106, 25.56903
415.5927, 28.98077
416.0748, 33.70032
416.5569, 38.71863
417.0390, 40.54028
417.5211, 37.66235
418.0033, 32.20636
418.4854, 26.55524
418.9675, 19.05493
419.4496, 16.59436
419.9317, 28.50586
420.4138, 39.10010
420.8960, 33.47223
421.3781, 15.94666
421.8602, 3.324524
422.3423, 7.129150
422.8244, 22.59625
423.3065, 29.12195
423.7887, 20.77637
424.2708, 12.29541
424.7529, 0.2438960
425.2350, 8.506653
425.7171, 2.626648
426.1992, 17.05566
426.6814, 36.75171
427.1635, 42.38342
427.6456, 35.18597
428.1277, 29.49585
428.6098, 26.17566
429.0919, 22.72009
429.5741, 15.89282
430.0562, 8.577148
430.5383, 5.321411
431.0204, 7.672424
431.5025, 13.23859
431.9846, 23.03271
432.4668, 34.91443
432.9489, 40.73059
433.4310, 37.75562
433.9131, 30.31781
434.3952, 22.52423
434.8773, 14.23767
435.3595, 8.014771
435.8416, 1.158203
436.3237, 0.9963990
436.8058, 10.05383
437.2879, 28.54065
437.7701, 39.51257
438.2522, 34.95654
438.7343, 20.76910
439.2164, 11.96576
439.6985, 12.15137
440.1806, 11.51849
440.6628, 7.317993
441.1449, 4.368164
441.6270, 8.533264
442.1091, 17.59924
442.5912, 22.34052
443.0733, 13.21350
443.5555, 4.648987
444.0376, 10.70898
444.5197, 1.852966
445.0018, 10.16278
445.4839, 27.59161
445.9660, 42.49316
446.4482, 44.98859
446.9303, 32.47998
447.4124, 18.57379
447.8945, 11.02808
448.3766, 8.078308
448.8587, 6.073303
449.3409, 4.471130
449.8230, 4.798462
450.3051, 9.294373
450.7872, 17.19775
451.2693, 20.99286
451.7514, 17.01947
452.2336, 13.53424
452.7157, 14.55389
453.1978, 17.21259
453.6799, 17.16608
454.1620, 13.27704
454.6441, 7.978333
455.1263, 4.195496
455.6084, 1.837036
456.0905, 1.535095
456.5726, 2.306458
457.0547, 6.371643
457.5368, 20.99133
458.0190, 37.81653
458.5011, 42.02313
458.9832, 25.65820
459.4653, 2.855286
459.9474, 5.538269
460.4295, 1.339172
460.9117, 6.076477
461.3938, 4.416931
461.8759, 1.103943
462.3580, 0.6005860
462.8401, 0.6129150
463.3222, 2.075134
463.8044, 12.12390
464.2865, 21.56042
464.7686, 20.71185
465.2507, 12.35712
465.7328, 8.383972
466.2149, 14.54840
466.6971, 25.64526
467.1792, 31.50519
467.6613, 29.33777
468.1434, 27.54993
468.6255, 25.77466
469.1076, 24.83807
469.5898, 27.04895
470.0719, 30.68518
470.5540, 30.76147
471.0361, 23.55072
471.5182, 12.24011
472.0003, 6.406128
472.4825, 8.289063
472.9646, 9.655273
473.4467, 5.294006
473.9288, 2.473267
474.4109, 8.872620
474.8930, 23.36633
475.3752, 33.80524
475.8573, 30.06812
476.3394, 19.11127
476.8215, 12.78979
477.3036, 11.42792
477.7857, 10.31384
478.2679, 6.651978
478.7500, 2.125793
479.2321, 0.9000850
479.7142, 3.339966
480.1963, 7.414307
480.6784, 17.81586
481.1606, 26.28680
481.6427, 20.96606
482.1248, 4.322815
482.6069, 7.519592
483.0890, 2.000000
483.5711, 17.70508
484.0533, 30.91479
484.5354, 36.27484
485.0175, 36.59650
485.4996, 27.38641
485.9817, 17.42670
486.4638, 14.80792
486.9460, 19.72803
487.4281, 25.00195
487.9102, 24.73938
488.3923, 20.53058
488.8744, 15.94824
489.3565, 10.14178
489.8387, 9.666992
490.3208, 22.44305
490.8029, 40.27661
491.2850, 45.35120
491.7671, 32.38678
492.2492, 22.19916
492.7314, 25.15845
493.2135, 32.70911
493.6956, 35.82629
494.1777, 33.41486
494.6598, 27.42584
495.1419, 18.37329
495.6241, 7.573425
496.1062, 4.412903
496.5883, 18.25122
497.0704, 26.67651
497.5525, 23.39777
498.0346, 16.93414
498.5168, 14.26025
498.9989, 16.10760
499.4810, 18.86780
499.9631, 19.99512
500.4452, 19.64270
500.9273, 17.29828
501.4095, 11.46271
501.8916, 9.609558
502.3737, 20.30145
502.8558, 34.40247
503.3379, 36.95538
503.8200, 24.52899
504.3022, 14.27716
504.7843, 14.19141
505.2664, 18.02509
505.7485, 17.96460
506.2306, 13.93805
506.7127, 11.37903
507.1949, 14.30609
507.6770, 21.03186
508.1591, 24.12213
508.6412, 20.41534
509.1233, 17.56622
509.6054, 17.71277
510.0876, 17.50470
510.5697, 12.55310
511.0518, 4.213684
511.5339, 0.8270260
512.0161, 2.963257
512.4982, 13.02032
512.9803, 23.58838
513.4624, 35.30371
513.9445, 43.18054
514.4266, 44.69281
514.9088, 41.98077
515.3909, 36.80609
515.8730, 28.67517
516.3551, 24.16315
516.8372, 30.02460
517.3193, 36.84418
517.8015, 33.27795
518.2836, 22.06598
518.7657, 15.03052
519.2478, 18.85620
519.7299, 29.21075
520.2120, 35.88177
520.6942, 37.67316
521.1763, 37.93506
521.6584, 35.22632
522.1405, 32.52087
522.6226, 33.51428
523.1047, 35.81128
523.5869, 32.46783
524.0690, 17.61890
524.5511, 0.2415160
525.0332, 4.183899
525.5153, 4.270752
525.9974, 14.77423
526.4796, 27.43341
526.9617, 37.03314
527.4438, 34.55878
527.9259, 21.80963
528.4080, 15.06335
528.8901, 21.95490
529.3723, 30.14014
529.8544, 32.88916
530.3365, 31.55139
530.8186, 27.96808
531.3007, 22.92731
531.7828, 19.53711
532.2650, 23.30206
532.7471, 36.68726
533.2292, 41.84564
533.7113, 32.47321
534.1934, 21.72296
534.6755, 9.591919
535.1577, 1.4343000E-02
535.6398, 0.2538450
536.1219, 11.62836
536.6040, 24.16852
537.0861, 24.23224
537.5682, 16.25580
538.0504, 16.47900
538.5325, 28.12268
539.0146, 37.32147
539.4967, 32.40961
539.9788, 17.01532
540.4609, 9.295105
540.9431, 15.19464
541.4252, 20.31165
541.9073, 20.99158
542.3894, 20.06744
542.8715, 20.20160
543.3536, 21.76355
543.8358, 23.88635
544.3179, 25.46613
544.8000, 26.03198
545.2821, 23.18744
545.7642, 15.13770
546.2463, 9.223022
546.7285, 7.812805
547.2106, 9.012939
547.6926, 12.51630
548.1747, 17.88147
548.6569, 21.67114
549.1390, 20.24890
549.6211, 18.02533
550.1032, 22.37524
550.5853, 30.86487
551.0674, 31.59442
551.5496, 18.78888
552.0317, 2.082092
552.5138, 2.489563
552.9959, 9.951843
553.4780, 18.69586
553.9601, 20.84961
554.4423, 22.50500
554.9244, 27.32153
555.4065, 32.58868
555.8886, 33.65851
556.3707, 28.63715
556.8528, 22.85120
557.3350, 24.35803
557.8171, 31.81158
558.2992, 33.47980
558.7813, 26.75574
559.2634, 19.16650
559.7455, 16.22888
560.2277, 16.09888
560.7098, 12.48853
561.1919, 0.7570800
561.6740, 6.339172
562.1561, 1.588318
562.6382, 7.548584
563.1204, 15.79785
563.6025, 21.66351
564.0846, 22.93298
564.5667, 17.22662
565.0488, 7.032776
565.5309, 2.092712
566.0131, 3.563599
566.4952, 7.408569
566.9773, 17.19946
567.4594, 25.73334
567.9415, 27.21893
568.4236, 22.85315
568.9058, 19.16986
569.3879, 18.57001
569.8700, 20.14587
570.3521, 24.21802
570.8342, 29.83795
571.3163, 34.01172
571.7985, 35.76685
572.2806, 34.77747
572.7627, 30.07996
573.2448, 20.96954
573.7269, 14.70331
574.2090, 11.02838
574.6912, 10.32971
575.1733, 16.25433
575.6554, 23.33734
576.1375, 24.27997
576.6196, 18.04944
577.1017, 12.24475
577.5839, 15.84186
578.0660, 25.17786
578.5481, 27.25934
579.0302, 20.89673
579.5123, 16.30859
579.9944, 18.40723
580.4766, 24.77759
580.9587, 32.14636
581.4408, 42.49982
581.9229, 46.19000
582.4050, 35.12323
582.8871, 23.38916
583.3693, 19.70081
583.8514, 21.88702
584.3335, 27.17560
584.8156, 34.14709
585.2977, 40.09894
585.7798, 39.86194
586.2620, 32.75964
586.7441, 27.36438
587.2262, 24.25635
587.7083, 22.53473
588.1904, 21.95239
588.6725, 22.32782
589.1547, 23.47449
589.6368, 25.42120
590.1189, 27.99957
590.6010, 32.61444
591.0831, 37.01501
591.5652, 38.51367
592.0474, 36.87457
592.5295, 32.25067
593.0116, 24.18481
593.4937, 14.83173
593.9758, 11.19379
594.4579, 16.22607
594.9401, 19.97827
595.4222, 20.75842
595.9043, 20.87817
596.3864, 22.44562
596.8685, 24.21320
597.3506, 22.27850
597.8328, 12.29291
598.3149, 3.922791
598.7970, 10.58325
599.2791, 25.27631
599.7612, 28.04657
600.2433, 15.01740
600.7255, 0.1038820
601.2076, 6.037170
601.6897, 3.699158
602.1718, 0.4063110
602.6539, 6.912109
603.1360, 10.96588
603.6182, 8.578186
604.1003, 4.686584
604.5824, 2.742493
605.0645, 2.812500
605.5466, 3.359558
606.0287, 3.708313
606.5109, 3.766174
606.9930, 2.663757
607.4751, 0.7670900
607.9572, 1.544861
608.4393, 6.517273
608.9214, 11.91290
609.4036, 14.53302
609.8857, 14.34241
610.3678, 9.881287
610.8499, 6.186707
611.3320, 16.64005
611.8141, 15.11279
612.2963, 7.573975
612.7784, 1.697449
613.2605, 11.07489
613.7426, 18.63898
614.2247, 23.04834
614.7068, 24.52795
615.1890, 22.59332
615.6711, 17.04578
616.1532, 13.73645
616.6353, 14.25269
617.1174, 16.00079
617.5995, 16.41870
618.0817, 15.48218
618.5638, 12.55316
619.0459, 2.703003
619.5280, 3.619934
620.0101, 0.9318240
620.4922, 10.06183
620.9744, 16.73248
621.4565, 19.22589
621.9386, 18.67194
622.4207, 15.24084
622.9028, 9.932861
623.3849, 6.825928
623.8671, 6.203979
624.3492, 6.005157
624.8313, 4.906067
625.3134, 4.779419
625.7955, 9.700470
626.2776, 19.31119
626.7598, 23.88452
627.2419, 18.22455
627.7240, 11.39197
628.2061, 5.907837
628.6882, 2.973907
629.1703, 6.196899
629.6525, 15.23605
630.1346, 22.47513
630.6167, 19.29913
631.0988, 8.077271
631.5809, 2.218384
632.0630, 2.669189
632.5452, 4.942413
633.0273, 9.655823
633.5094, 13.73105
633.9915, 12.21759
634.4736, 5.547150
634.9557, 3.021149
635.4379, 11.81003
635.9200, 19.60641
636.4021, 17.91351
636.8842, 11.28503
637.3663, 6.722107
637.8484, 6.007477
638.3306, 7.221649
638.8127, 9.149292
639.2948, 11.22745
639.7769, 8.473236
640.2590, 2.359894
640.7411, 6.106079
641.2233, 6.587494
641.7054, 23.37122
642.1875, 31.78790
642.6696, 32.38361
643.1517, 31.09985
643.6339, 27.43909
644.1160, 24.03683
644.5981, 21.97833
645.0802, 21.25409
645.5623, 22.53726
646.0444, 25.56616
646.5266, 28.07956
647.0087, 28.02820
647.4908, 25.68301
647.9729, 21.78806
648.4550, 15.62247
648.9371, 10.92941
649.4193, 8.941589
649.9014, 8.485016
650.3835, 8.685333
650.8656, 9.463806
651.3477, 10.29529
651.8298, 11.44504
652.3120, 12.23120
652.7941, 11.56610
653.2762, 10.72232
653.7583, 11.02597
654.2404, 12.90103
654.7225, 17.01923
655.2047, 24.68884
655.6868, 33.97778
656.1689, 38.78964
656.6510, 38.70895
657.1331, 34.80096
657.6152, 26.19708
658.0974, 17.63760
658.5795, 14.15506
659.0616, 14.27643
659.5437, 13.13062
660.0258, 6.949127
660.5079, 3.604584
660.9901, 8.342102
661.4722, 15.33838
661.9543, 18.14386
662.4364, 16.70663
662.9185, 15.15265
663.4006, 16.24545
663.8828, 18.80096
664.3649, 20.61542
664.8470, 21.67834
665.3291, 20.79407
665.8112, 16.68311
666.2933, 13.71329
666.7755, 15.76157
667.2576, 21.56668
667.7397, 25.50055
668.2218, 28.09534
668.7039, 27.44791
669.1860, 19.08093
669.6682, 11.58142
670.1503, 12.79465
670.6324, 20.77856
671.1145, 29.06454
671.5966, 35.09692
672.0787, 36.44147
672.5609, 25.60944
673.0430, 5.124268
673.5251, 4.399048
674.0072, 0.3126830
674.4893, 8.433136
674.9714, 15.33804
675.4536, 19.91690
675.9357, 18.65744
676.4178, 6.270569
676.8999, 0.4194030
677.3820, 1.861786
677.8641, 7.151672
678.3463, 14.06149
678.8284, 20.59421
679.3105, 23.60083
679.7926, 22.08496
680.2747, 20.52933
680.7568, 24.99985
681.2390, 32.08118
681.7211, 32.49927
682.2032, 26.28680
682.6853, 20.95377
683.1674, 19.66385
683.6495, 21.22430
684.1317, 24.06415
684.6138, 28.88382
685.0959, 31.06412
685.5780, 29.00589
686.0601, 26.16525
686.5422, 20.99075
687.0244, 16.96719
687.5065, 18.44406
687.9886, 25.44843
688.4707, 32.38873
688.9528, 38.71085
689.4349, 41.24216
689.9171, 31.80966
690.3992, 15.83545
690.8813, 10.47919
691.3634, 20.19019
691.8455, 33.91470
692.3276, 40.52029
692.8098, 40.69861
693.2919, 40.99860
693.7740, 40.99664
694.2561, 41.80072
694.7382, 46.15771
695.2203, 49.01312
695.7025, 45.13437
696.1846, 36.58090
696.6667, 31.40967
697.1488, 34.95581
697.6309, 37.24020
698.1130, 27.79086
698.5952, 16.63901
699.0773, 20.30994
699.5594, 36.30087
700.0415, 48.30936
700.5236, 46.05099
701.0057, 35.48856
701.4879, 28.04025
701.9700, 23.71973
702.4521, 21.99673
702.9342, 23.33884
703.4163, 26.05356
703.8984, 29.88983
704.3806, 34.10965
704.8627, 37.34799
705.3448, 40.63907
705.8269, 40.20096
706.3090, 31.52283
706.7911, 22.93228
707.2733, 20.21484
707.7554, 20.76846
708.2375, 19.41537
708.7196, 14.70047
709.2017, 10.45410
709.6838, 10.85184
710.1660, 14.13599
710.6481, 15.72562
711.1302, 15.66385
711.6123, 16.52057
712.0944, 19.88654
712.5765, 21.18243
713.0587, 12.82568
713.5408, 6.254242
714.0229, 11.85254
714.5050, 12.31204
714.9871, 27.74667
715.4692, 20.29578
715.9514, 8.447968
716.4335, 7.827423
716.9156, 17.20877
717.3977, 25.07117
717.8798, 26.57672
718.3619, 25.24063
718.8441, 21.63940
719.3262, 18.10739
719.8083, 20.35382
720.2904, 27.92712
720.7725, 33.28049
721.2546, 31.10773
721.7368, 24.30869
722.2189, 19.22113
722.7010, 15.59949
723.1831, 16.29837
723.6652, 25.61554
724.1473, 31.08554
724.6295, 21.69913
725.1116, 5.335205
725.5937, 1.400635
726.0758, 4.553558
726.5579, 9.744446
727.0400, 11.86383
727.5222, 12.44949
728.0043, 12.35641
728.4864, 11.38843
728.9685, 7.755981
729.4506, 1.572937
729.9327, 1.800537
730.4149, 6.024475
730.8970, 18.63422
731.3791, 18.74481
731.8612, 8.632446
732.3433, 4.755219
732.8254, 12.75784
733.3076, 22.15680
733.7897, 21.57211
734.2718, 12.06451
734.7539, 8.045715
735.2360, 14.78116
735.7181, 18.68695
736.2003, 14.14880
736.6824, 10.07925
737.1645, 14.21188
737.6466, 23.11127
738.1287, 26.58658
738.6108, 19.82449
739.0930, 12.47156
739.5751, 10.43076
740.0572, 10.37375
740.5393, 7.166168
741.0214, 2.464630
741.5035, 2.611145
741.9857, 10.54816
742.4678, 20.37448
742.9499, 23.64841
743.4320, 20.76434
743.9141, 16.75290
744.3962, 10.91818
744.8784, 8.513672
745.3605, 13.70078
745.8426, 21.30481
746.3247, 23.57031
746.8068, 19.77609
747.2889, 17.28784
747.7711, 18.99380
748.2532, 18.17657
748.7353, 8.673065
749.2174, 0.6162110
749.6995, 0.3602290
750.1816, 8.098450
750.6638, 16.11813
751.1459, 20.56793
751.6280, 21.55670
752.1101, 16.03018
752.5922, 7.606567
753.0743, 4.510498
753.5565, 7.126465
754.0386, 10.30219
754.5207, 11.10608
755.0028, 10.12985
755.4849, 7.443146
755.9670, 2.322693
756.4492, 3.410126
756.9313, 14.17441
757.4134, 22.68390
757.8955, 22.59433
758.3776, 18.34171
758.8597, 17.02371
759.3419, 19.13507
759.8240, 18.72849
760.3061, 11.95361
760.7882, 6.621826
761.2703, 7.214142
761.7524, 9.709656
762.2346, 8.043549
762.7167, 3.202942
763.1988, 3.671478
763.6809, 17.65710
764.1630, 32.93158
764.6451, 34.89120
765.1273, 27.22876
765.6094, 16.96042
766.0915, 5.931061
766.5736, 0.4221190
767.0557, 1.738129
767.5378, 8.450592
768.0200, 10.93881
768.5021, 8.312897
768.9842, 6.800476
769.4663, 6.791840
769.9484, 7.244049
770.4305, 7.589508
770.9127, 8.284729
771.3948, 10.37997
771.8769, 14.31415
772.3590, 15.65225
772.8411, 9.499512
773.3232, 4.087769
773.8054, 2.547150
774.2875, 3.365051
774.7696, 5.297180
775.2517, 7.908020
775.7338, 10.97269
776.2159, 15.23535
776.6981, 18.04968
777.1802, 14.94019
777.6623, 8.480652
778.1444, 4.423889
778.6265, 3.393494
779.1086, 3.663147
779.5908, 4.268524
780.0729, 5.670105
780.5550, 9.393860
781.0371, 15.98181
781.5192, 18.98581
782.0013, 16.98306
782.4835, 15.15729
782.9656, 15.24261
783.4477, 16.58752
783.9298, 19.13751
784.4119, 22.89780
784.8940, 25.07657
785.3762, 26.66806
785.8583, 25.20853
786.3404, 15.84396
786.8225, 6.472351
787.3046, 4.567871
787.7867, 8.844147
788.2689, 13.89539
788.7510, 17.11789
789.2331, 17.99918
789.7152, 15.57092
790.1973, 11.47849
790.6794, 8.249176
791.1616, 5.911072
791.6437, 3.149567
792.1258, 0.6279910
792.6079, 3.554535
793.0900, 2.793732
793.5721, 1.265869
794.0543, 4.584381
794.5364, 6.896698
795.0185, 10.58160
795.5006, 17.39340
795.9827, 23.58066
796.4648, 25.81747
796.9470, 24.17258
797.4291, 19.35516
797.9112, 5.602936
798.3933, 2.971008
798.8754, 3.278778
799.3575, 0.7307430
799.8397, 4.678894
800.3218, 9.811462
800.8039, 7.733521
801.2860, 4.740814
801.7681, 12.84317
802.2502, 5.624542
802.7324, 6.092102
803.2145, 13.60779
803.6966, 17.84137
804.1787, 21.89035
804.6608, 26.33105
805.1429, 28.95337
805.6251, 27.39655
806.1072, 23.47205
806.5893, 21.60907
807.0714, 21.18814
807.5535, 17.59494
808.0356, 9.844208
808.5178, 2.313263
808.9999, 2.550568
809.4820, 4.236053
809.9641, 0.8450620
810.4462, 9.603455
810.9283, 18.07407
811.4105, 25.58777
811.8926, 29.53751
812.3747, 26.84650
812.8568, 21.36920
813.3389, 15.83572
813.8210, 10.35510
814.3032, 11.15604
814.7853, 26.50229
815.2674, 38.92532
815.7495, 43.68298
816.2316, 42.01587
816.7137, 30.17416
817.1959, 13.18195
817.6780, 4.950043
818.1601, 12.86401
818.6422, 23.24069
819.1243, 22.98801
819.6064, 18.61481
820.0886, 22.29056
820.5707, 31.40396
821.0528, 33.42551
821.5349, 24.18329
822.0170, 12.51221
822.4991, 7.785156
822.9813, 8.923126
823.4634, 12.31424
823.9455, 18.20914
824.4276, 21.24164
824.9097, 20.29175
825.3918, 16.79114
825.8740, 10.83310
826.3561, 3.858093
826.8382, 1.005798
827.3203, 4.856415
827.8024, 6.847717
828.2845, 3.725372
828.7667, 2.770691
829.2488, 9.862396
829.7309, 18.55997
830.2130, 20.21899
830.6951, 14.41071
831.1772, 10.48126
831.6594, 11.74161
832.1415, 14.01553
832.6236, 16.74197
833.1057, 18.69177
833.5878, 17.48599
834.0699, 14.37183
834.5521, 13.47113
835.0342, 16.78210
835.5163, 21.78976
835.9984, 27.19827
836.4805, 32.24100
836.9626, 37.17792
837.4448, 40.70721
837.9269, 36.95493
838.4090, 24.40979
838.8911, 11.48804
839.3732, 7.327484
839.8553, 9.724915
840.3375, 10.68118
840.8196, 10.16293
841.3017, 10.11151
841.7838, 11.09638
842.2659, 11.25778
842.7480, 8.878479
843.2302, 5.435394
843.7123, 5.409607
844.1944, 11.34894
844.6765, 11.84741
845.1586, 1.220459
845.6407, 6.373077
846.1229, 4.738312
846.6050, 1.098541
847.0871, 7.429413
847.5692, 13.96368
848.0513, 18.56702
848.5334, 21.45184
849.0156, 21.71655
849.4977, 16.51614
849.9798, 10.84729
850.4619, 7.303802
850.9440, 6.816284
851.4261, 11.46167
851.9083, 22.07397
852.3904, 30.45425
852.8725, 30.66101
853.3546, 26.80753
853.8367, 21.20645
854.3188, 15.57111
854.8010, 12.89404
855.2831, 13.68680
855.7652, 16.97162
856.2473, 22.52802
856.7294, 28.01855
857.2115, 28.76523
857.6937, 25.54742
858.1758, 21.25690
858.6579, 16.30597
859.1400, 12.85025
859.6221, 11.95041
860.1042, 13.48395
860.5864, 16.12531
861.0685, 19.40585
861.5506, 22.24564
862.0327, 25.13712
862.5148, 25.30707
862.9969, 20.63171
863.4791, 16.06677
863.9612, 16.01584
864.4433, 19.16986
864.9254, 20.29742
865.4075, 17.75204
865.8896, 15.21271
866.3718, 9.756287
866.8539, 7.556519
867.3360, 16.83997
867.8181, 27.04071
868.3002, 24.19629
868.7823, 8.737793
869.2645, 1.8340999E-02
869.7466, 8.340546
870.2287, 17.29871
870.7108, 21.30289
871.1929, 22.72852
871.6750, 21.94113
872.1572, 20.72668
872.6393, 23.44516
873.1214, 31.81052
873.6035, 37.69339
874.0856, 33.26703
874.5677, 24.93610
875.0499, 18.29346
875.5320, 13.83255
876.0141, 13.18179
876.4962, 15.81030
876.9783, 17.24487
877.4604, 14.04742
877.9426, 9.800018
878.4247, 11.43851
878.9068, 16.96454
879.3889, 17.68835
879.8710, 13.64023
880.3531, 13.68964
880.8353, 21.76505
881.3174, 29.30795
881.7995, 25.05957
882.2816, 11.65286
882.7637, 6.619995
883.2458, 11.35144
883.7280, 13.94757
884.2101, 11.75797
884.6922, 9.589508
885.1743, 10.49603
885.6564, 13.55795
886.1385, 17.06110
886.6207, 21.50375
887.1028, 24.10092
887.5849, 25.02505
888.0670, 23.89346
888.5491, 17.49283
889.0313, 11.82980
889.5134, 13.70746
889.9955, 21.04471
890.4776, 24.22977
890.9597, 20.57040
891.4418, 16.46442
891.9240, 9.544952
892.4061, 5.882385
892.8882, 12.43619
893.3703, 22.19299
893.8524, 24.97708
894.3345, 19.68048
894.8167, 15.35483
895.2988, 17.31711
895.7809, 18.99448
896.2630, 16.26215
896.7451, 12.21976
897.2272, 9.869446
897.7094, 9.125549
898.1915, 9.145905
898.6736, 9.647278
899.1557, 9.218323
899.6378, 3.777710
900.1199, 0.8623660
900.6021, 4.944641
901.0842, 16.40863
901.5663, 23.67239
902.0484, 25.04294
902.5305, 23.38431
903.0126, 20.30319
903.4948, 15.90759
903.9769, 9.076782
904.4590, 2.090820
904.9411, 2.216980
905.4232, 8.598083
905.9053, 12.60239
906.3875, 11.42673
906.8696, 8.763702
907.3517, 8.261902
907.8338, 8.818634
908.3159, 5.667389
908.7980, 1.252197
909.2802, 2.228363
909.7623, 4.542786
910.2444, 11.54129
910.7265, 15.60071
911.2086, 16.39926
911.6907, 12.41040
912.1729, 3.781616
912.6550, 2.462616
913.1371, 12.10660
913.6192, 17.02429
914.1013, 11.83136
914.5834, 6.645233
915.0656, 8.904724
915.5477, 15.25861
916.0298, 17.89935
916.5119, 15.64664
916.9940, 14.05048
917.4761, 11.12842
917.9583, 11.68832
918.4404, 22.64801
918.9225, 32.49887
919.4046, 30.46478
919.8867, 19.57123
920.3688, 11.38568
920.8510, 7.913696
921.3331, 4.555237
921.8152, 3.018616
922.2973, 6.371124
922.7794, 4.652283
923.2615, 17.93903
923.7437, 15.96683
924.2258, 0.3940430
924.7079, 6.747009
925.1900, 8.364563
925.6721, 20.96484
926.1542, 19.26743
926.6364, 12.71072
927.1185, 5.413971
927.6006, 9.7290002E-02
928.0827, 2.071869
928.5648, 11.54086
929.0469, 17.57758
929.5291, 8.836639
930.0112, 0.5350650
930.4933, 7.675903
930.9754, 19.34720
931.4575, 21.09055
931.9396, 14.84537
932.4218, 10.14728
932.9039, 10.46173
933.3860, 12.69391
933.8681, 14.37943
934.3502, 16.32300
934.8323, 20.98462
935.3145, 26.20401
935.7966, 27.00543
936.2787, 23.37610
936.7608, 18.82758
937.2429, 15.17020
937.7250, 12.16592
938.2072, 9.075989
938.6893, 6.587219
939.1714, 6.487549
939.6535, 8.440521
940.1356, 11.58545
940.6177, 15.48038
941.0999, 17.86996
941.5820, 16.81833
942.0641, 15.23001
942.5462, 21.02524
943.0283, 31.36655
943.5104, 29.16486
943.9926, 14.86261
944.4747, 2.807526
944.9568, 2.655090
945.4389, 1.648224
945.9210, 6.733551
946.4031, 19.13742
946.8853, 26.71774
947.3674, 29.47888
947.8495, 27.34915
948.3316, 19.78177
948.8137, 14.11688
949.2958, 13.65274
949.7780, 13.65045
950.2601, 8.366547
950.7422, 0.7110290
951.2243, 5.520447
951.7064, 5.559021
952.1885, 4.517426
952.6707, 2.665619
953.1528, 0.3233030
953.6349, 5.482819
954.1170, 9.795715
954.5991, 8.083801
955.0812, 0.9448240
955.5634, 2.511536
956.0455, 17.85843
956.5276, 25.91925
957.0097, 21.76669
957.4918, 14.76517
957.9739, 7.814301
958.4561, 3.441589
958.9382, 7.273163
959.4203, 20.58917
959.9024, 23.14087
960.3845, 5.315857
960.8666, 3.648315
961.3488, 6.994049
961.8309, 18.43088
962.3130, 17.07294
962.7951, 9.940063
963.2772, 12.06885
963.7593, 26.72794
964.2415, 33.08609
964.7236, 23.02054
965.2057, 16.46588
965.6878, 21.94659
966.1699, 26.85895
966.6520, 18.71045
967.1342, 5.000916
967.6163, 4.828552
968.0984, 24.15213
968.5805, 34.14587
969.0626, 26.50595
969.5447, 18.70294
970.0269, 13.72797
970.5090, 11.40024
970.9911, 13.57068
971.4732, 17.86597
971.9553, 18.21869
972.4374, 12.23547
972.9196, 8.894196
973.4017, 10.23840
973.8838, 13.38824
974.3659, 20.06317
974.8480, 25.68155
975.3301, 23.66470
975.8123, 17.27332
976.2944, 17.94870
976.7765, 31.35687
977.2586, 38.84579
977.7407, 31.56433
978.2228, 23.23010
978.7050, 18.71173
979.1871, 16.88748
979.6692, 15.92102
980.1513, 16.45779
980.6334, 22.01782
981.1155, 36.72095
981.5977, 42.71115
982.0798, 25.47501
982.5619, 8.508698
983.0440, 4.549591
983.5261, 7.722351
984.0082, 14.75720
984.4904, 22.88599
984.9725, 24.31689
985.4546, 13.44940
985.9367, 6.437775
986.4188, 12.87518
986.9009, 20.51218
987.3831, 21.76199
987.8652, 20.75504
988.3473, 21.92871
988.8294, 25.02966
989.3115, 28.81406
989.7936, 34.09048
990.2758, 36.19214
990.7579, 31.56653
991.2400, 24.91940
991.7221, 16.23856
992.2042, 9.303375
992.6863, 10.44708
993.1685, 17.86636
993.6506, 21.33337
994.1327, 15.44925
994.6148, 11.23959
995.0969, 15.16452
995.5790, 20.74603
996.0612, 25.07977
996.5433, 27.47620
997.0254, 26.06866
997.5075, 22.12534
997.9896, 21.36533
998.4717, 28.11807
998.9539, 30.97916
999.4360, 18.43384
999.9181, 6.765808
1000.400, 10.45737
1000.882, 19.83453
1001.364, 21.35553
1001.847, 15.55389
1002.329, 12.46991
1002.811, 16.08850
1003.293, 20.70380
1003.775, 26.75491
1004.257, 29.38855
1004.739, 21.19397
1005.221, 10.29556
1005.703, 7.779022
1006.186, 12.80045
1006.668, 16.43167
1007.150, 15.56241
1007.632, 14.17575
1008.114, 14.58160
1008.596, 15.40616
1009.078, 16.47934
1009.560, 16.85010
1010.043, 15.00345
1010.525, 11.44266
1011.007, 7.621796
1011.489, 2.513428
1011.971, 2.652313
1012.453, 19.68488
1012.935, 33.53821
1013.417, 26.62155
1013.899, 13.75916
1014.382, 13.12735
1014.864, 22.47977
1015.346, 27.40979
1015.828, 22.66797
1016.310, 19.09100
1016.792, 22.39664
1017.274, 26.09702
1017.756, 26.51938
1018.239, 25.67725
1018.721, 25.91043
1019.203, 27.00934
1019.685, 25.95135
1020.167, 21.31290
1020.649, 18.49918
1021.131, 19.71484
1021.613, 22.75281
1022.095, 30.88425
1022.578, 36.12918
1023.060, 27.48901
1023.542, 11.37598
1024.024, 5.629791
1024.506, 15.43530
1024.988, 22.88449
1025.470, 20.26392
1025.952, 18.54071
1026.435, 26.68381
1026.917, 32.78494
1027.399, 21.80566
1027.881, 2.979736
1028.363, 1.368835
1028.845, 14.06570
1029.327, 22.51993
1029.809, 13.30557
1030.292, 4.657654
1030.774, 0.3230590
1031.256, 0.7790220
1031.738, 1.511902
1032.220, 6.193970
1032.702, 13.17700
1033.184, 23.07159
1033.666, 25.89124
1034.148, 13.11526
1034.630, 4.197906
1035.113, 4.677734
1035.595, 7.164337
1036.077, 9.364014
1036.559, 10.12756
1037.041, 5.708832
1037.523, 4.281403
1038.005, 5.326538
1038.487, 11.58981
1038.970, 22.96362
1039.452, 26.15878
1039.934, 25.21454
1040.416, 17.86551
1040.898, 10.71393
1041.380, 13.72153
1041.862, 25.42642
1042.344, 28.90253
1042.826, 17.11398
1043.309, 13.24323
1043.791, 25.80841
1044.273, 31.19949
1044.755, 15.02966
1045.237, 3.711151
1045.719, 5.140808
1046.201, 7.103607
1046.683, 16.22256
1047.166, 21.51251
1047.648, 26.47635
1048.130, 31.93329
1048.612, 34.31802
1049.094, 31.36163
1049.576, 28.20612
1050.058, 29.64938
1050.540, 33.50531
1051.022, 33.85959
1051.505, 30.49170
1051.987, 25.51111
1052.469, 18.58411
1052.951, 12.21710
1053.433, 6.899017
1053.915, 2.674133
1054.397, 0.5665890
1054.879, 2.381531
1055.361, 1.683044
1055.844, 1.368774
1056.326, 4.123230
1056.808, 6.307495
1057.290, 7.488892
1057.772, 7.540833
1058.254, 9.293610
1058.736, 14.50708
1059.218, 18.89398
1059.701, 15.03171
1060.183, 6.358734
1060.665, 3.941711
1061.147, 7.020325
1061.629, 13.45047
1062.111, 21.92471
1062.593, 24.15839
1063.075, 17.18558
1063.557, 9.263092
1064.040, 8.841858
1064.522, 3.782990
1065.004, 11.23300
1065.486, 19.69183
1065.968, 21.94574
1066.450, 0.5890200
1066.932, 8.886078
1067.414, 5.534637
1067.896, 1.657990
1068.379, 15.64072
1068.861, 3.256989
1069.343, 10.44022
1069.825, 11.11374
1070.307, 17.74765
1070.789, 11.47421
1071.271, 9.187164
1071.753, 19.81131
1072.236, 20.28036
1072.718, 23.31296
1073.200, 23.35303
1073.682, 19.93829
1074.164, 16.36362
1074.646, 15.59808
1075.128, 16.11630
1075.610, 15.92563
1076.093, 15.26920
1076.575, 16.13455
1077.057, 19.19934
1077.539, 19.25250
1078.021, 11.14856
1078.503, 3.344147
1078.985, 2.052673
1079.467, 3.997406
1079.949, 1.310425
1080.432, 9.098145
1080.914, 9.805084
1081.396, 3.083130
1081.878, 3.308990
1082.360, 23.06744
1082.842, 34.57452
1083.324, 27.43393
1083.806, 18.64108
1084.288, 15.01364
1084.771, 14.15402
1085.253, 13.70551
1085.735, 13.71451
1086.217, 14.90195
1086.699, 19.56647
1087.181, 18.54239
1087.663, 7.120850
1088.145, 0.4255680
1088.628, 4.290710
1089.110, 10.12726
1089.592, 11.79367
1090.074, 11.30548
1090.556, 13.65872
1091.038, 19.12067
1091.520, 18.87457
1092.002, 11.55850
1092.484, 7.649750
1092.967, 9.296631
1093.449, 11.42657
1093.931, 11.61719
1094.413, 10.13852
1094.895, 6.766510
1095.377, 2.425934
1095.859, 2.216461
1096.341, 6.046936
1096.823, 10.90579
1097.306, 16.02350
1097.788, 16.32388
1098.270, 10.49283
1098.752, 4.255066
1099.234, 2.023285
1099.716, 2.469177
1100.198, 4.711029
1100.680, 7.527527
1101.163, 7.445221
1101.645, 6.056732
1102.127, 8.543518
1102.609, 14.56546
1103.091, 17.89664
1103.573, 15.69128
1104.055, 14.26776
1104.537, 20.60068
1105.020, 26.95844
1105.502, 25.67438
1105.984, 20.68457
1106.466, 15.85565
1106.948, 11.80081
1107.430, 7.655121
1107.912, 3.534485
1108.394, 3.913910
1108.876, 16.08484
1109.359, 24.78278
1109.841, 21.10892
1110.323, 15.84552
1110.805, 16.45645
1111.287, 18.80621
1111.769, 17.59692
1112.251, 13.25433
1112.733, 8.109161
1113.215, 0.3400570
1113.698, 2.012756
1114.180, 9.210693
1114.662, 17.62674
1115.144, 20.20340
1115.626, 18.01447
1116.108, 8.348785
1116.590, 1.967316
1117.072, 1.548065
1117.555, 19.01105
1118.037, 24.50327
1118.519, 15.57947
1119.001, 7.792145
1119.483, 2.479675
1119.965, 1.707520
1120.447, 6.650452
1120.929, 14.69208
1121.411, 23.50818
1121.894, 32.09988
1122.376, 39.34067
1122.858, 44.38046
1123.340, 35.57944
1123.822, 16.38919
1124.304, 9.230347
1124.786, 17.49219
1125.268, 22.17111
1125.750, 12.13834
1126.233, 0.8097530
1126.715, 5.383118
1127.197, 15.88675
1127.679, 18.58640
1128.161, 16.31177
1128.643, 11.87814
1129.125, 7.213684
1129.607, 5.964508
1130.090, 8.706970
1130.572, 11.04016
1131.054, 10.47449
1131.536, 9.479248
1132.018, 8.630310
1132.500, 8.573792
1132.982, 11.65292
1133.464, 14.39417
1133.947, 10.11121
1134.429, 1.579956
1134.911, 1.631653
1135.393, 16.19980
1135.875, 24.17343
1136.357, 18.88141
1136.839, 13.99503
1137.321, 11.00058
1137.803, 10.87415
1138.286, 15.47659
1138.768, 20.65210
1139.250, 19.90988
1139.732, 13.96799
1140.214, 9.303070
1140.696, 5.785217
1141.178, 5.049194
1141.660, 7.592010
1142.142, 8.308380
1142.625, 5.514954
1143.107, 1.102875
1143.589, 3.987122
1144.071, 7.092041
1144.553, 2.107178
1145.035, 8.116241
1145.517, 16.00287
1145.999, 21.31375
1146.482, 23.67429
1146.964, 23.25632
1147.446, 19.85361
1147.928, 13.82016
1148.410, 10.94867
1148.892, 18.12073
1149.374, 25.72449
1149.856, 25.27060
1150.339, 21.04138
1150.821, 15.69901
1151.303, 10.81793
1151.785, 6.406952
1152.267, 3.624817
1152.749, 5.619415
1153.231, 15.51868
1153.713, 20.60226
1154.195, 12.84503
1154.677, 7.067780
1155.160, 10.18231
1155.642, 14.18268
1156.124, 12.81348
1156.606, 9.288269
1157.088, 7.844452
1157.570, 8.256256
1158.052, 7.417145
1158.534, 4.483490
1159.017, 4.326538
1159.499, 7.561188
1159.981, 11.57980
1160.463, 15.79446
1160.945, 19.09692
1161.427, 20.67282
1161.909, 21.05838
1162.391, 20.53470
1162.874, 19.83389
1163.356, 22.77365
1163.838, 27.40363
1164.320, 26.25104
1164.802, 20.23120
1165.284, 16.40839
1165.766, 16.87811
1166.248, 18.38309
1166.730, 20.00522
1167.213, 18.69626
1167.695, 7.418762
1168.177, 3.188080
1168.659, 3.597076
1169.141, 2.347260
1169.623, 10.76678
1170.105, 20.38480
1170.587, 31.58249
1171.069, 45.93619
1171.552, 48.17505
1172.034, 20.21133
1172.516, 4.669525
1172.998, 17.58691
1173.480, 29.99170
1173.962, 29.67273
1174.444, 24.14407
1174.926, 19.96841
1175.409, 18.10153
1175.891, 24.19901
1176.373, 39.75540
1176.855, 39.43631
1177.337, 22.80396
1177.819, 8.728180
1178.301, 0.8206480
1178.783, 1.340332
1179.266, 11.33624
1179.748, 21.23102
1180.230, 19.89340
1180.712, 14.16745
1181.194, 15.49719
1181.676, 19.93692
1182.158, 20.80252
1182.640, 19.20831
1183.122, 18.58209
1183.604, 19.17511
1184.087, 19.12704
1184.569, 17.52313
1185.051, 17.08340
1185.533, 19.54578
1186.015, 22.75385
1186.497, 28.21326
1186.979, 31.12085
1187.461, 26.14783
1187.944, 19.55972
1188.426, 18.23190
1188.908, 20.93564
1189.390, 19.44818
1189.872, 10.86368
1190.354, 9.254852
1190.836, 16.99530
1191.318, 20.75540
1191.801, 17.14206
1192.283, 12.52866
1192.765, 10.34332
1193.247, 10.45584
1193.729, 13.07480
1194.211, 17.31271
1194.693, 22.33762
1195.175, 26.76578
1195.657, 25.91522
1196.140, 21.24777
1196.622, 17.01672
1197.104, 14.33054
1197.586, 13.10834
1198.068, 13.37860
1198.550, 14.42935
1199.032, 15.79724
1199.514, 16.74304
1199.996, 20.02292
1200.479, 23.68839
1200.961, 28.74396
1201.443, 32.60504
1201.925, 30.59888
1202.407, 23.47891
1202.889, 18.71661
1203.371, 17.65945
1203.853, 14.02551
1204.336, 4.683716
1204.818, 4.020874
1205.300, 17.48480
1205.782, 28.09314
1206.264, 26.64581
1206.746, 19.11765
1207.228, 11.79862
1207.710, 5.146332
1208.193, 1.143036
1208.675, 5.343323
1209.157, 1.021606
1209.639, 13.26331
1210.121, 15.55365
1210.603, 8.181213
1211.085, 6.251038
1211.567, 15.93665
1212.049, 21.89148
1212.531, 7.187561
1213.014, 3.563202
1213.496, 9.574860
1213.978, 23.55481
1214.460, 18.84338
1214.942, 8.282227
1215.424, 9.025726
1215.906, 18.42950
1216.388, 24.48984
1216.871, 26.56750
1217.353, 29.64682
1217.835, 35.08673
1218.317, 34.74716
1218.799, 26.30222
1219.281, 20.13278
1219.763, 20.19070
1220.245, 23.40164
1220.728, 20.27032
1221.210, 15.49930
1221.692, 16.01532
1222.174, 22.49908
1222.656, 27.18445
1223.138, 28.88940
1223.620, 24.00717
1224.102, 14.62296
1224.584, 6.137024
1225.067, 0.5060420
1225.549, 0.6142880
1226.031, 6.453583
1226.513, 12.42526
1226.995, 11.81345
1227.477, 12.36633
1227.959, 22.47540
1228.441, 29.41638
1228.923, 18.97128
1229.406, 2.556213
1229.888, 0.0000000E+00
##END=



