##NAMES=Manganosite
##RRUFFID=R060757
##IDEAL CHEMISTRY=Mn^2+^O
##LOCALITY=Nordmark, Sweden
##OWNER=RRUFF
##SOURCE=Michael Scott
##DESCRIPTION=Dark green crystals
##STATUS=The identification of this mineral is confirmed by single-crystal X-ray diffraction and chemical analysis.
##URL=rruff.info/R060757
##MEASURED CHEMISTRY=(Mn^2+^_0.99_Mg_0.01_)_Î£=1_O
165.400, 0.000
165.882, 12.572
166.365, 0.091
166.847, 23.780
167.329, 31.013
167.811, 24.164
168.293, 20.460
168.775, 27.333
169.257, 42.721
169.739, 62.507
170.221, 88.338
170.704, 114.295
171.186, 137.740
171.668, 158.448
172.150, 170.960
172.632, 170.188
173.114, 159.003
173.596, 144.029
174.078, 117.467
174.561, 101.908
175.043, 123.311
175.525, 174.951
176.007, 219.167
176.489, 229.434
176.971, 214.524
177.453, 209.109
177.935, 219.968
178.417, 236.759
178.900, 251.442
179.382, 266.307
179.864, 283.540
180.346, 312.880
180.828, 350.327
181.310, 367.728
181.792, 351.532
182.274, 327.165
182.757, 312.626
183.239, 306.229
183.721, 300.129
184.203, 285.534
184.685, 265.340
185.167, 258.802
185.649, 280.828
186.131, 296.100
186.613, 281.877
187.096, 245.208
187.578, 207.550
188.060, 185.826
188.542, 177.662
189.024, 161.329
189.506, 128.918
189.988, 95.633
190.470, 75.760
190.952, 63.958
191.435, 44.538
191.917, 0.910
192.399, 64.998
192.881, 103.568
193.363, 108.259
193.845, 97.074
194.327, 72.114
194.809, 39.686
195.292, 15.250
195.774, 12.998
196.256, 27.450
196.738, 33.408
197.220, 29.220
197.702, 19.221
198.184, 0.655
198.666, 24.042
199.148, 37.865
199.631, 31.639
200.113, 10.684
200.595, 6.687
201.077, 18.698
201.559, 29.248
202.041, 40.485
202.523, 52.083
203.005, 62.913
203.488, 71.659
203.970, 79.935
204.452, 92.857
204.934, 116.182
205.416, 132.797
205.898, 127.661
206.380, 114.922
206.862, 115.588
207.344, 144.826
207.827, 191.231
208.309, 222.283
208.791, 232.317
209.273, 235.799
209.755, 231.750
210.237, 227.547
210.719, 233.482
211.201, 256.229
211.684, 287.233
212.166, 309.074
212.648, 321.649
213.130, 324.461
213.612, 304.216
214.094, 280.276
214.576, 275.969
215.058, 304.004
215.540, 344.378
216.023, 359.113
216.505, 338.411
216.987, 321.223
217.469, 321.650
217.951, 329.654
218.433, 337.798
218.915, 344.146
219.397, 348.300
219.880, 349.562
220.362, 347.711
220.844, 343.841
221.326, 336.198
221.808, 327.713
222.290, 319.423
222.772, 311.359
223.254, 303.019
223.736, 302.913
224.219, 312.328
224.701, 319.812
225.183, 318.614
225.665, 317.577
226.147, 324.720
226.629, 341.062
227.111, 356.692
227.593, 362.582
228.076, 358.540
228.558, 349.768
229.040, 333.718
229.522, 315.796
230.004, 299.442
230.486, 284.848
230.968, 270.864
231.450, 256.743
231.932, 242.502
232.415, 227.568
232.897, 207.047
233.379, 192.102
233.861, 194.327
234.343, 210.337
234.825, 221.798
235.307, 211.769
235.789, 186.062
236.271, 171.883
236.754, 177.326
237.236, 184.490
237.718, 180.725
238.200, 168.929
238.682, 157.349
239.164, 148.556
239.646, 142.955
240.128, 143.292
240.611, 153.070
241.093, 160.157
241.575, 153.980
242.057, 139.897
242.539, 127.308
243.021, 118.224
243.503, 113.092
243.985, 115.085
244.467, 126.295
244.950, 133.837
245.432, 128.036
245.914, 113.931
246.396, 97.556
246.878, 73.660
247.360, 55.158
247.842, 62.488
248.324, 96.279
248.807, 121.548
249.289, 119.034
249.771, 98.738
250.253, 77.809
250.735, 53.948
251.217, 35.775
251.699, 32.619
252.181, 42.306
252.663, 51.976
253.146, 58.979
253.628, 61.473
254.110, 56.839
254.592, 43.999
255.074, 28.618
255.556, 9.992
256.038, 9.253
256.520, 19.503
257.003, 14.133
257.485, 7.452
257.967, 24.903
258.449, 68.329
258.931, 103.934
259.413, 118.365
259.895, 120.199
260.377, 119.910
260.859, 118.826
261.341, 121.041
261.824, 134.324
262.306, 159.720
262.788, 175.046
263.270, 168.827
263.752, 157.351
264.234, 155.320
264.716, 163.934
265.198, 177.595
265.681, 193.697
266.163, 212.041
266.645, 221.776
267.127, 220.334
267.609, 213.161
268.091, 197.341
268.573, 176.858
269.055, 165.824
269.538, 175.628
270.020, 202.385
270.502, 214.769
270.984, 204.025
271.466, 192.318
271.948, 184.001
272.430, 179.456
272.912, 180.045
273.394, 186.952
273.877, 196.969
274.359, 200.848
274.841, 184.781
275.323, 179.585
275.805, 198.234
276.287, 223.435
276.769, 235.149
277.251, 227.564
277.733, 212.337
278.216, 208.250
278.698, 220.145
279.180, 234.309
279.662, 257.564
280.144, 277.964
280.626, 284.707
281.108, 278.269
281.590, 269.193
282.073, 268.732
282.555, 278.496
283.037, 288.154
283.519, 299.646
284.001, 309.195
284.483, 314.172
284.965, 315.729
285.447, 317.574
285.930, 323.470
286.412, 332.314
286.894, 332.531
287.376, 316.801
287.858, 301.100
288.340, 288.500
288.822, 278.594
289.304, 271.482
289.786, 267.726
290.268, 264.967
290.751, 255.079
291.233, 228.826
291.715, 217.717
292.197, 234.251
292.679, 264.538
293.161, 303.465
293.643, 349.970
294.125, 389.205
294.608, 398.262
295.090, 373.719
295.572, 356.682
296.054, 360.130
296.536, 368.298
297.018, 369.720
297.500, 364.421
297.982, 359.924
298.465, 360.746
298.947, 366.517
299.429, 376.516
299.911, 392.542
300.393, 409.290
300.875, 423.200
301.357, 434.708
301.839, 444.744
302.321, 454.532
302.804, 462.408
303.286, 466.115
303.768, 465.611
304.250, 461.964
304.732, 453.627
305.214, 442.895
305.696, 435.551
306.178, 430.638
306.660, 430.590
307.143, 438.342
307.625, 452.775
308.107, 473.162
308.589, 505.503
309.071, 534.839
309.553, 522.088
310.035, 452.189
310.517, 388.792
311.000, 346.793
311.482, 321.727
311.964, 311.640
312.446, 315.906
312.928, 325.711
313.410, 331.221
313.892, 333.035
314.374, 325.614
314.857, 295.687
315.339, 266.959
315.821, 260.177
316.303, 272.171
316.785, 281.929
317.267, 271.502
317.749, 241.288
318.231, 220.959
318.713, 225.061
319.195, 222.386
319.678, 198.511
320.160, 163.628
320.642, 133.536
321.124, 115.788
321.606, 108.348
322.088, 106.606
322.570, 119.657
323.052, 122.586
323.535, 104.565
324.017, 82.020
324.499, 67.359
324.981, 63.326
325.463, 66.049
325.945, 71.888
326.427, 81.519
326.909, 90.425
327.392, 104.323
327.874, 111.438
328.356, 100.939
328.838, 77.780
329.320, 57.967
329.802, 55.018
330.284, 63.656
330.766, 63.963
331.248, 52.018
331.731, 41.008
332.213, 39.240
332.695, 41.998
333.177, 43.360
333.659, 42.800
334.141, 38.603
334.623, 24.984
335.105, 2.787
335.587, 10.520
336.070, 3.217
336.552, 11.154
337.034, 10.615
337.516, 8.276
337.998, 24.202
338.480, 28.881
338.962, 24.363
339.444, 9.698
339.927, 17.240
340.409, 38.403
340.891, 30.405
341.373, 11.002
341.855, 34.580
342.337, 23.234
342.819, 5.913
343.301, 2.314
343.784, 11.007
344.266, 21.283
344.748, 27.091
345.230, 28.043
345.712, 21.859
346.194, 5.406
346.676, 22.486
347.158, 14.575
347.640, 2.777
348.122, 8.248
348.605, 4.935
349.087, 23.628
349.569, 24.318
350.051, 5.732
350.533, 25.484
351.015, 31.192
351.497, 31.313
351.979, 27.202
352.462, 21.010
352.944, 17.479
353.426, 21.588
353.908, 32.204
354.390, 38.516
354.872, 37.991
355.354, 37.068
355.836, 35.858
356.319, 36.354
356.801, 41.500
357.283, 53.022
357.765, 68.614
358.247, 88.683
358.729, 114.151
359.211, 127.752
359.693, 115.503
360.175, 96.394
360.658, 92.617
361.140, 105.838
361.622, 118.131
362.104, 118.351
362.586, 111.743
363.068, 110.182
363.550, 116.347
364.032, 120.554
364.514, 111.300
364.997, 90.046
365.479, 79.219
365.961, 87.221
366.443, 99.233
366.925, 105.735
367.407, 108.415
367.889, 115.490
368.371, 132.967
368.853, 152.825
369.336, 151.269
369.818, 91.180
370.300, 58.293
370.782, 78.540
371.264, 115.198
371.746, 135.417
372.228, 132.654
372.711, 119.375
373.193, 109.162
373.675, 102.611
374.157, 95.541
374.639, 84.160
375.121, 76.104
375.603, 74.854
376.085, 78.696
376.567, 85.170
377.049, 94.336
377.532, 102.450
378.014, 96.747
378.496, 68.683
378.978, 52.782
379.460, 70.050
379.942, 97.709
380.424, 121.792
380.906, 140.573
381.389, 149.473
381.871, 137.363
382.353, 111.166
382.835, 98.364
383.317, 105.029
383.799, 119.022
384.281, 133.136
384.763, 146.602
385.246, 155.184
385.728, 156.613
386.210, 154.066
386.692, 144.792
387.174, 132.015
387.656, 131.338
388.138, 153.126
388.620, 187.549
389.102, 206.548
389.585, 202.847
390.067, 196.537
390.549, 187.255
391.031, 177.740
391.513, 171.235
391.995, 167.993
392.477, 164.882
392.959, 157.778
393.441, 145.613
393.924, 141.021
394.406, 153.656
394.888, 164.063
395.370, 167.302
395.852, 164.621
396.334, 156.822
396.816, 143.260
397.298, 129.617
397.780, 129.113
398.263, 145.949
398.745, 159.177
399.227, 163.972
399.709, 163.650
400.191, 159.702
400.673, 152.343
401.155, 142.526
401.638, 124.137
402.120, 104.576
402.602, 105.419
403.084, 131.747
403.566, 158.716
404.048, 170.149
404.530, 168.434
405.012, 164.142
405.494, 152.085
405.977, 143.837
406.459, 151.092
406.941, 165.893
407.423, 170.010
407.905, 156.690
408.387, 135.104
408.869, 119.134
409.351, 110.919
409.833, 103.215
410.316, 87.092
410.798, 79.047
411.280, 98.886
411.762, 137.078
412.244, 163.687
412.726, 155.903
413.208, 122.607
413.690, 109.561
414.172, 137.483
414.655, 149.778
415.137, 125.665
415.619, 89.525
416.101, 60.271
416.583, 42.540
417.065, 34.719
417.547, 38.635
418.029, 52.738
418.512, 64.871
418.994, 75.218
419.476, 81.189
419.958, 79.163
420.440, 71.238
420.922, 62.016
421.404, 54.953
421.886, 44.845
422.368, 20.523
422.851, 12.256
423.333, 28.449
423.815, 14.416
424.297, 11.661
424.779, 15.566
425.261, 15.416
425.743, 36.650
426.225, 37.328
426.708, 33.571
427.190, 37.751
427.672, 49.911
428.154, 62.833
428.636, 71.068
429.118, 75.209
429.600, 80.675
430.082, 91.529
430.565, 97.765
431.047, 89.385
431.529, 80.716
432.011, 87.384
432.493, 112.518
432.975, 143.125
433.457, 169.315
433.939, 190.532
434.421, 197.031
434.904, 181.456
435.386, 162.930
435.868, 151.214
436.350, 146.409
436.832, 149.964
437.314, 165.173
437.796, 185.407
438.278, 206.420
438.760, 228.233
439.243, 252.178
439.725, 280.220
440.207, 305.904
440.689, 316.933
441.171, 304.859
441.653, 302.170
442.135, 315.381
442.617, 333.506
443.099, 349.655
443.582, 364.143
444.064, 381.277
444.546, 404.823
445.028, 431.149
445.510, 443.919
445.992, 429.175
446.474, 426.238
446.957, 451.074
447.439, 481.362
447.921, 499.356
448.403, 503.250
448.885, 504.267
449.367, 511.070
449.849, 522.574
450.331, 533.834
450.813, 543.503
451.296, 557.014
451.778, 580.233
452.260, 609.179
452.742, 636.683
453.224, 666.380
453.706, 687.416
454.188, 683.502
454.670, 669.110
455.152, 675.556
455.635, 710.772
456.117, 749.948
456.599, 763.346
457.081, 744.567
457.563, 744.533
458.045, 776.238
458.527, 809.603
459.009, 834.517
459.491, 853.171
459.974, 870.063
460.456, 886.994
460.938, 902.406
461.420, 911.202
461.902, 909.828
462.384, 919.847
462.866, 956.726
463.348, 992.401
463.831, 1007.544
464.313, 1007.192
464.795, 1009.738
465.277, 1023.509
465.759, 1044.702
466.241, 1071.011
466.723, 1101.889
467.205, 1130.136
467.687, 1154.481
468.170, 1173.102
468.652, 1180.593
469.134, 1173.693
469.616, 1169.263
470.098, 1170.232
470.580, 1174.367
471.062, 1181.417
471.544, 1190.134
472.026, 1196.930
472.509, 1198.988
472.991, 1198.515
473.473, 1204.302
473.955, 1218.584
474.437, 1235.569
474.919, 1256.922
475.401, 1278.409
475.883, 1296.099
476.366, 1310.024
476.848, 1324.196
477.330, 1344.964
477.812, 1368.629
478.294, 1380.052
478.776, 1376.114
479.258, 1374.375
479.740, 1385.545
480.223, 1404.389
480.705, 1418.129
481.187, 1421.745
481.669, 1431.788
482.151, 1464.874
482.633, 1503.448
483.115, 1521.685
483.597, 1516.822
484.079, 1507.056
484.561, 1508.066
485.044, 1519.192
485.526, 1527.844
486.008, 1520.100
486.490, 1526.733
486.972, 1564.572
487.454, 1612.140
487.936, 1650.373
488.418, 1673.771
488.901, 1684.451
489.383, 1674.582
489.865, 1648.183
490.347, 1652.986
490.829, 1706.169
491.311, 1755.026
491.793, 1763.887
492.275, 1748.786
492.758, 1733.727
493.240, 1717.495
493.722, 1710.195
494.204, 1727.033
494.686, 1754.172
495.168, 1765.462
495.650, 1755.645
496.132, 1738.575
496.614, 1726.669
497.097, 1719.865
497.579, 1720.016
498.061, 1735.771
498.543, 1747.856
499.025, 1747.452
499.507, 1742.864
499.989, 1743.649
500.471, 1752.641
500.953, 1766.681
501.436, 1789.576
501.918, 1820.431
502.400, 1819.253
502.882, 1764.764
503.364, 1716.239
503.846, 1718.186
504.328, 1747.662
504.810, 1766.203
505.293, 1762.923
505.775, 1756.148
506.257, 1756.414
506.739, 1761.159
507.221, 1766.177
507.703, 1770.507
508.185, 1773.557
508.667, 1775.348
509.150, 1776.101
509.632, 1769.158
510.114, 1742.679
510.596, 1722.957
511.078, 1717.279
511.560, 1720.894
512.042, 1730.628
512.524, 1744.761
513.006, 1757.442
513.489, 1762.239
513.971, 1759.437
514.453, 1753.204
514.935, 1743.504
515.417, 1730.530
515.899, 1709.792
516.381, 1687.053
516.863, 1672.339
517.346, 1668.152
517.828, 1669.515
518.310, 1676.893
518.792, 1687.115
519.274, 1698.341
519.756, 1709.316
520.238, 1709.889
520.720, 1687.737
521.202, 1645.306
521.685, 1624.914
522.167, 1650.198
522.649, 1669.631
523.131, 1676.085
523.613, 1674.204
524.095, 1668.286
524.577, 1659.280
525.059, 1646.379
525.541, 1620.751
526.024, 1589.540
526.506, 1587.739
526.988, 1622.940
527.470, 1654.619
527.952, 1661.819
528.434, 1652.835
528.916, 1646.491
529.398, 1645.556
529.880, 1639.578
530.363, 1620.484
530.845, 1597.960
531.327, 1583.792
531.809, 1577.153
532.291, 1565.380
532.773, 1537.420
533.255, 1501.895
533.737, 1497.795
534.219, 1558.185
534.702, 1585.521
535.184, 1536.616
535.666, 1478.359
536.148, 1455.078
536.630, 1466.021
537.112, 1484.755
537.594, 1499.439
538.076, 1510.278
538.559, 1519.627
539.041, 1526.989
539.523, 1523.260
540.005, 1502.224
540.487, 1473.326
540.969, 1449.661
541.451, 1430.237
541.933, 1421.112
542.416, 1434.332
542.898, 1446.713
543.380, 1443.905
543.862, 1430.150
544.344, 1415.505
544.826, 1404.672
545.308, 1395.317
545.790, 1383.185
546.273, 1367.754
546.755, 1353.548
547.237, 1340.123
547.719, 1329.238
548.201, 1325.556
548.683, 1324.759
549.165, 1316.388
549.647, 1293.339
550.129, 1269.390
550.612, 1252.632
551.094, 1242.181
551.576, 1237.851
552.058, 1239.408
552.540, 1240.987
553.022, 1236.486
553.504, 1225.969
553.986, 1218.008
554.468, 1222.407
554.951, 1217.368
555.433, 1191.448
555.915, 1159.452
556.397, 1133.033
556.879, 1115.379
557.361, 1108.242
557.843, 1120.965
558.325, 1144.710
558.807, 1152.454
559.290, 1142.812
559.772, 1126.837
560.254, 1106.473
560.736, 1085.514
561.218, 1072.732
561.700, 1069.846
562.182, 1067.620
562.664, 1066.859
563.146, 1064.422
563.629, 1057.206
564.111, 1046.238
564.593, 1033.982
565.075, 1021.492
565.557, 1010.709
566.039, 1007.738
566.521, 1015.632
567.003, 1015.496
567.486, 1003.428
567.968, 984.911
568.450, 955.502
568.932, 922.821
569.414, 908.360
569.896, 929.518
570.378, 953.885
570.860, 960.496
571.343, 953.796
571.825, 939.977
572.307, 920.950
572.789, 901.829
573.271, 886.942
573.753, 876.438
574.235, 871.700
574.717, 872.051
575.200, 879.766
575.682, 909.488
576.164, 937.135
576.646, 934.927
577.128, 902.895
577.610, 873.667
578.092, 874.155
578.574, 891.274
579.056, 901.954
579.539, 905.908
580.021, 900.011
580.503, 878.461
580.985, 854.980
581.467, 854.707
581.949, 889.513
582.431, 912.802
582.913, 920.541
583.395, 920.755
583.878, 915.144
584.360, 905.469
584.842, 893.071
585.324, 878.509
585.806, 864.272
586.288, 850.772
586.770, 838.678
587.252, 841.646
587.734, 864.855
588.217, 892.140
588.699, 920.255
589.181, 943.652
589.663, 948.011
590.145, 920.046
590.627, 898.455
591.109, 901.297
591.591, 911.838
592.073, 911.825
592.556, 902.005
593.038, 894.524
593.520, 897.168
594.002, 908.616
594.484, 925.925
594.966, 950.825
595.448, 975.499
595.930, 1002.067
596.413, 1024.441
596.895, 1036.815
597.377, 1041.447
597.859, 1046.829
598.341, 1056.120
598.823, 1065.897
599.305, 1071.496
599.787, 1076.525
600.269, 1090.422
600.752, 1114.468
601.234, 1136.394
601.716, 1143.349
602.198, 1136.612
602.680, 1136.607
603.162, 1146.198
603.644, 1157.953
604.127, 1170.346
604.609, 1184.292
605.091, 1201.433
605.573, 1221.439
606.055, 1240.616
606.537, 1260.966
607.019, 1276.793
607.501, 1276.009
607.983, 1263.294
608.466, 1258.332
608.948, 1268.152
609.430, 1287.601
609.912, 1313.350
610.394, 1351.000
610.876, 1357.477
611.358, 1285.311
611.840, 1236.782
612.322, 1252.384
612.805, 1296.715
613.287, 1330.780
613.769, 1346.140
614.251, 1354.691
614.733, 1369.167
615.215, 1381.919
615.697, 1372.799
616.179, 1342.760
616.661, 1316.802
617.144, 1306.188
617.626, 1307.372
618.108, 1315.702
618.590, 1339.126
619.072, 1346.403
619.554, 1326.461
620.036, 1303.605
620.518, 1283.240
621.000, 1268.433
621.483, 1264.172
621.965, 1272.354
622.447, 1283.824
622.929, 1294.527
623.411, 1301.033
623.893, 1287.334
624.375, 1250.639
624.857, 1220.053
625.340, 1213.075
625.822, 1221.375
626.304, 1224.504
626.786, 1219.989
627.268, 1215.019
627.750, 1200.861
628.232, 1194.814
628.714, 1218.103
629.196, 1254.749
629.679, 1272.181
630.161, 1255.785
630.643, 1225.802
631.125, 1203.972
631.607, 1189.228
632.089, 1174.448
632.571, 1157.929
633.054, 1148.891
633.536, 1154.824
634.018, 1171.564
634.500, 1186.292
634.982, 1202.672
635.464, 1210.503
635.946, 1206.092
636.428, 1195.526
636.910, 1176.538
637.393, 1155.173
637.875, 1146.267
638.357, 1159.144
638.839, 1173.096
639.321, 1149.587
639.803, 1097.768
640.285, 1083.445
640.767, 1121.041
641.250, 1160.896
641.732, 1170.142
642.214, 1155.644
642.696, 1143.756
643.178, 1131.945
643.660, 1126.643
644.142, 1139.384
644.624, 1149.463
645.106, 1133.142
645.589, 1102.484
646.071, 1093.092
646.553, 1126.645
647.035, 1167.753
647.517, 1162.893
647.999, 1120.678
648.481, 1092.702
648.963, 1087.719
649.445, 1083.851
649.928, 1062.804
650.410, 1031.961
650.892, 1021.555
651.374, 1047.702
651.856, 1069.162
652.338, 1083.217
652.820, 1092.514
653.302, 1097.312
653.784, 1098.752
654.267, 1098.978
654.749, 1099.060
655.231, 1097.695
655.713, 1094.089
656.195, 1087.708
656.677, 1074.551
657.159, 1053.158
657.641, 1034.558
658.123, 1026.715
658.606, 1026.758
659.088, 1024.915
659.570, 1027.340
660.052, 1018.345
660.534, 982.729
661.016, 950.033
661.498, 948.181
661.981, 961.023
662.463, 950.577
662.945, 898.050
663.427, 836.239
663.909, 797.082
664.391, 774.819
664.873, 755.528
665.355, 737.658
665.837, 720.627
666.320, 703.665
666.802, 688.094
667.284, 678.011
667.766, 681.022
668.248, 673.892
668.730, 648.071
669.212, 622.014
669.694, 606.312
670.177, 595.324
670.659, 575.812
671.141, 540.885
671.623, 513.334
672.105, 521.190
672.587, 542.914
673.069, 537.721
673.551, 506.062
674.033, 476.349
674.516, 463.493
674.998, 462.316
675.480, 464.417
675.962, 474.986
676.444, 469.602
676.926, 431.664
677.408, 398.193
677.890, 387.471
678.372, 388.224
678.855, 384.889
679.337, 374.469
679.819, 363.039
680.301, 353.796
680.783, 344.924
681.265, 335.406
681.747, 324.692
682.229, 308.998
682.711, 286.828
683.194, 268.594
683.676, 274.712
684.158, 306.948
684.640, 309.706
685.122, 268.958
685.604, 231.066
686.086, 218.445
686.568, 215.071
687.050, 199.296
687.533, 169.173
688.015, 143.272
688.497, 118.433
688.979, 106.917
689.461, 131.433
689.943, 168.415
690.425, 173.490
690.907, 138.521
691.390, 103.446
691.872, 112.913
692.354, 152.131
692.836, 161.085
693.318, 137.102
693.800, 113.323
694.282, 100.901
694.764, 89.795
695.247, 64.563
695.729, 23.612
696.211, 8.034
696.693, 39.708
697.175, 67.990
697.657, 81.146
698.139, 84.416
698.621, 82.239
699.104, 75.694
699.586, 64.888
700.068, 49.527
700.550, 30.435
701.032, 2.929
701.514, 28.223
701.996, 42.173
702.478, 34.340
702.960, 15.927
703.443, 7.145
703.925, 31.211
704.407, 36.057
704.889, 7.800
705.371, 13.983
705.853, 19.230
706.335, 23.998
706.817, 46.166
707.299, 73.573
707.782, 73.514
708.264, 24.437
708.746, 19.899
709.228, 24.183
709.710, 6.219
710.192, 16.271
710.674, 39.084
711.156, 57.151
711.638, 67.587
712.121, 73.059
712.603, 79.256
713.085, 86.847
713.567, 86.414
714.049, 73.112
714.531, 63.409
715.013, 70.887
715.495, 83.709
715.977, 76.598
716.460, 41.137
716.942, 25.979
717.424, 63.427
717.906, 96.208
718.388, 85.613
718.870, 53.218
719.352, 31.884
719.834, 30.077
720.317, 36.298
720.799, 42.408
721.281, 48.518
721.763, 54.495
722.245, 60.475
722.727, 67.883
723.209, 77.062
723.691, 88.967
724.174, 107.131
724.656, 130.936
725.138, 134.094
725.620, 90.933
726.102, 66.962
726.584, 83.040
727.066, 110.103
727.548, 133.620
728.031, 150.564
728.513, 155.272
728.995, 139.734
729.477, 121.629
729.959, 115.971
730.441, 112.884
730.923, 90.115
731.405, 52.802
731.887, 35.507
732.370, 60.543
732.852, 107.200
733.334, 138.601
733.816, 154.843
734.298, 147.909
734.780, 105.852
735.262, 76.451
735.744, 93.980
736.226, 136.071
736.709, 153.819
737.191, 140.060
737.673, 126.142
738.155, 109.199
738.637, 97.481
739.119, 97.176
739.601, 103.314
740.083, 113.064
740.565, 124.389
741.048, 124.879
741.530, 91.737
742.012, 51.229
742.494, 45.319
742.976, 66.076
743.458, 80.394
743.940, 79.240
744.422, 110.220
744.904, 70.704
745.387, 48.316
745.869, 42.135
746.351, 100.673
746.833, 75.670
747.315, 76.445
747.797, 60.955
748.279, 75.851
748.761, 109.095
749.244, 121.349
749.726, 94.108
750.208, 70.573
750.690, 71.855
751.172, 74.534
751.654, 54.020
752.136, 18.985
752.618, 5.938
753.101, 10.258
753.583, 4.336
754.065, 3.984
754.547, 13.000
755.029, 16.628
755.511, 15.092
755.993, 16.681
756.475, 25.447
756.958, 36.052
757.440, 41.157
757.922, 40.564
758.404, 36.193
758.886, 24.951
759.368, 15.276
759.850, 6.360
760.332, 1.861
760.814, 10.630
761.297, 29.454
761.779, 34.874
762.261, 6.259
762.743, 18.780
763.225, 17.932
763.707, 8.149
764.189, 9.839
764.671, 21.482
765.153, 27.151
765.636, 17.065
766.118, 2.082
766.600, 2.148
767.082, 1.682
767.564, 4.726
768.046, 6.033
768.528, 1.255
769.010, 24.368
769.492, 47.318
769.975, 37.820
770.457, 14.161
770.939, 49.283
771.421, 59.260
771.903, 64.819
772.385, 71.761
772.867, 77.889
773.349, 81.296
773.831, 81.838
774.314, 80.296
774.796, 73.811
775.278, 68.503
775.760, 71.654
776.242, 75.548
776.724, 65.629
777.206, 45.290
777.688, 37.053
778.171, 58.248
778.653, 87.155
779.135, 90.457
779.617, 74.130
780.099, 58.184
780.581, 45.094
781.063, 42.253
781.545, 55.242
782.028, 76.236
782.510, 89.975
782.992, 96.204
783.474, 96.011
783.956, 79.179
784.438, 72.389
784.920, 98.800
785.402, 131.575
785.885, 139.385
786.367, 121.669
786.849, 106.034
787.331, 89.157
787.813, 85.344
788.295, 119.107
788.777, 156.354
789.259, 154.834
789.741, 119.067
790.224, 87.361
790.706, 80.306
791.188, 85.607
791.670, 90.142
792.152, 95.746
792.634, 113.422
793.116, 140.881
793.598, 149.555
794.080, 122.912
794.563, 84.298
795.045, 76.921
795.527, 103.590
796.009, 113.250
796.491, 99.247
796.973, 88.646
797.455, 95.451
797.937, 104.914
798.419, 97.257
798.902, 71.512
799.384, 53.783
799.866, 50.274
800.348, 46.557
800.830, 36.558
801.312, 27.679
801.794, 28.683
802.276, 35.958
802.758, 36.807
803.241, 22.238
803.723, 13.381
804.205, 34.388
804.687, 63.787
805.169, 71.810
805.651, 62.038
806.133, 50.972
806.615, 45.442
807.098, 46.513
807.580, 59.213
808.062, 79.630
808.544, 88.516
809.026, 85.661
809.508, 82.258
809.990, 81.802
810.472, 79.948
810.955, 71.021
811.437, 56.953
811.919, 53.840
812.401, 76.236
812.883, 79.763
813.365, 36.444
813.847, 0.383
814.329, 2.344
814.812, 29.083
815.294, 51.351
815.776, 67.315
816.258, 73.966
816.740, 60.523
817.222, 47.981
817.704, 50.717
818.186, 62.087
818.668, 73.419
819.151, 82.032
819.633, 86.526
820.115, 85.456
820.597, 80.587
821.079, 71.444
821.561, 60.847
822.043, 57.530
822.525, 61.791
823.007, 64.419
823.490, 59.357
823.972, 49.637
824.454, 38.878
824.936, 26.970
825.418, 30.484
825.900, 54.797
826.382, 72.008
826.864, 68.645
827.346, 53.638
827.829, 37.969
828.311, 20.916
828.793, 12.815
829.275, 26.708
829.757, 30.910
830.239, 3.987
830.721, 19.930
831.203, 7.215
831.685, 30.431
832.168, 50.100
832.650, 36.406
833.132, 18.225
833.614, 0.634
834.096, 13.840
834.578, 12.833
835.060, 3.282
835.542, 3.952
836.024, 5.599
836.507, 5.400
836.989, 5.388
837.471, 6.083
837.953, 10.930
838.435, 16.924
838.917, 15.189
839.399, 4.067
839.881, 13.449
840.364, 37.087
840.846, 58.906
841.328, 55.404
841.810, 26.592
842.292, 7.466
842.774, 1.532
843.256, 3.027
843.738, 9.988
844.221, 21.382
844.703, 36.920
845.185, 58.585
845.667, 68.927
846.149, 61.515
846.631, 53.023
847.113, 44.758
847.595, 39.040
848.078, 43.829
848.560, 54.089
849.042, 46.283
849.524, 3.989
850.006, 36.355
850.488, 22.067
850.970, 1.755
851.452, 14.114
851.934, 15.741
852.417, 9.530
852.899, 3.518
853.381, 13.740
853.863, 14.424
854.345, 9.857
854.827, 1.313
855.309, 8.122
855.791, 13.417
856.273, 13.500
856.756, 8.484
857.238, 2.707
857.720, 14.674
858.202, 18.460
858.684, 15.183
859.166, 7.638
859.648, 3.498
860.130, 11.740
860.612, 14.920
861.095, 8.230
861.577, 18.914
862.059, 64.601
862.541, 87.590
863.023, 83.771
863.505, 71.190
863.987, 45.037
864.469, 28.751
864.951, 46.268
865.434, 88.183
865.916, 115.657
866.398, 123.626
866.880, 126.638
867.362, 118.834
867.844, 113.110
868.326, 113.418
868.808, 119.055
869.291, 131.262
869.773, 149.873
870.255, 163.935
870.737, 170.895
871.219, 172.569
871.701, 160.051
872.183, 150.108
872.665, 163.524
873.148, 193.578
873.630, 218.518
874.112, 231.029
874.594, 231.590
875.076, 208.224
875.558, 182.351
876.040, 185.789
876.522, 206.873
877.005, 211.862
877.487, 194.766
877.969, 185.881
878.451, 215.509
878.933, 259.538
879.415, 268.551
879.897, 251.850
880.379, 246.920
880.861, 258.338
881.344, 275.776
881.826, 293.841
882.308, 313.889
882.790, 343.117
883.272, 380.274
883.754, 381.568
884.236, 339.316
884.718, 312.619
885.200, 321.028
885.683, 339.787
886.165, 348.650
886.647, 348.458
887.129, 341.821
887.611, 319.785
888.093, 313.023
888.575, 332.267
889.057, 352.651
889.539, 362.252
890.022, 367.106
890.504, 374.966
890.986, 385.807
891.468, 399.899
891.950, 424.611
892.432, 442.621
892.914, 444.630
893.396, 443.065
893.878, 448.451
894.361, 457.853
894.843, 461.363
895.325, 454.012
895.807, 451.837
896.289, 468.949
896.771, 485.828
897.253, 489.296
897.735, 483.538
898.218, 472.521
898.700, 459.137
899.182, 451.205
899.664, 453.992
900.146, 462.047
900.628, 467.137
901.110, 476.021
901.592, 506.393
902.075, 549.969
902.557, 579.191
903.039, 583.616
903.521, 574.784
904.003, 555.416
904.485, 536.892
904.967, 551.341
905.449, 589.417
905.932, 612.198
906.414, 613.512
906.896, 612.747
907.378, 622.357
907.860, 639.255
908.342, 661.220
908.824, 687.004
909.306, 701.762
909.788, 704.753
910.271, 701.019
910.753, 690.934
911.235, 681.187
911.717, 678.288
912.199, 681.531
912.681, 687.252
913.163, 695.279
913.645, 707.967
914.127, 731.127
914.610, 744.644
915.092, 735.331
915.574, 714.116
916.056, 693.811
916.538, 671.563
917.020, 682.989
917.502, 765.208
917.984, 817.823
918.466, 804.538
918.949, 777.252
919.431, 762.260
919.913, 760.931
920.395, 780.865
920.877, 836.476
921.359, 870.619
921.841, 863.137
922.323, 851.923
922.805, 845.541
923.288, 845.827
923.770, 856.525
924.252, 875.657
924.734, 893.586
925.216, 909.313
925.698, 921.139
926.180, 926.856
926.662, 930.181
927.145, 936.108
927.627, 940.287
928.109, 931.393
928.591, 909.393
929.073, 897.361
929.555, 913.334
930.037, 935.677
930.519, 955.009
931.002, 969.336
931.484, 969.665
931.966, 963.603
932.448, 973.145
932.930, 1006.219
933.412, 1039.596
933.894, 1053.714
934.376, 1058.841
934.859, 1061.170
935.341, 1065.961
935.823, 1092.266
936.305, 1134.042
936.787, 1149.934
937.269, 1113.025
937.751, 1068.032
938.233, 1076.567
938.715, 1112.770
939.198, 1118.425
939.680, 1100.959
940.162, 1097.500
940.644, 1117.012
941.126, 1141.892
941.608, 1158.815
942.090, 1169.643
942.572, 1177.060
943.054, 1181.495
943.537, 1183.094
944.019, 1182.616
944.501, 1188.417
944.983, 1203.824
945.465, 1223.003
945.947, 1240.989
946.429, 1255.530
946.911, 1252.907
947.393, 1234.090
947.876, 1236.133
948.358, 1265.549
948.840, 1293.021
949.322, 1303.394
949.804, 1302.237
950.286, 1294.616
950.768, 1281.918
951.250, 1295.063
951.732, 1339.850
952.215, 1366.788
952.697, 1361.379
953.179, 1356.310
953.661, 1376.509
954.143, 1407.172
954.625, 1412.188
955.107, 1385.791
955.589, 1377.696
956.072, 1392.997
956.554, 1411.805
957.036, 1431.302
957.518, 1448.065
958.000, 1458.635
958.482, 1464.372
958.964, 1469.719
959.446, 1472.966
959.929, 1481.075
960.411, 1496.240
960.893, 1512.750
961.375, 1534.050
961.857, 1549.558
962.339, 1545.482
962.821, 1524.485
963.303, 1509.758
963.786, 1507.656
964.268, 1499.363
964.750, 1466.854
965.232, 1451.129
965.714, 1482.938
966.196, 1531.450
966.678, 1556.609
967.160, 1558.690
967.642, 1569.305
968.125, 1610.173
968.607, 1627.499
969.089, 1593.140
969.571, 1559.718
970.053, 1555.304
970.535, 1568.135
971.017, 1579.807
971.499, 1588.995
971.981, 1604.469
972.464, 1640.841
972.946, 1664.307
973.428, 1658.390
973.910, 1646.780
974.392, 1639.258
974.874, 1638.931
975.356, 1653.323
975.838, 1686.447
976.320, 1708.997
976.803, 1714.216
977.285, 1710.115
977.767, 1684.586
978.249, 1663.832
978.731, 1672.631
979.213, 1701.934
979.695, 1729.598
980.177, 1753.958
980.659, 1766.011
981.142, 1754.537
981.624, 1741.391
982.106, 1732.586
982.588, 1729.194
983.070, 1732.429
983.552, 1741.614
984.034, 1756.257
984.516, 1779.806
984.999, 1795.300
985.481, 1784.511
985.963, 1779.227
986.445, 1808.843
986.927, 1843.592
987.409, 1845.587
987.891, 1821.337
988.373, 1809.229
988.856, 1825.487
989.338, 1838.033
989.820, 1834.437
990.302, 1823.383
990.784, 1802.131
991.266, 1781.720
991.748, 1776.712
992.230, 1785.788
992.713, 1794.422
993.195, 1794.535
993.677, 1802.325
994.159, 1837.121
994.641, 1869.039
995.123, 1867.859
995.605, 1856.981
996.087, 1874.972
996.569, 1919.320
997.052, 1947.010
997.534, 1932.700
998.016, 1919.999
998.498, 1934.130
998.980, 1952.198
999.462, 1958.813
999.944, 1957.252
1000.426, 1950.048
1000.908, 1940.008
1001.391, 1938.627
1001.873, 1953.306
1002.355, 1971.717
1002.837, 1993.292
1003.319, 2011.274
1003.801, 2014.412
1004.283, 2013.460
1004.765, 2027.769
1005.247, 2057.691
1005.730, 2081.810
1006.212, 2095.507
1006.694, 2095.115
1007.176, 2067.132
1007.658, 2035.957
1008.140, 2016.217
1008.622, 2009.109
1009.104, 2018.664
1009.587, 2042.674
1010.069, 2061.378
1010.551, 2066.066
1011.033, 2065.107
1011.515, 2054.453
1011.997, 2047.229
1012.479, 2058.773
1012.961, 2078.205
1013.443, 2084.252
1013.926, 2075.834
1014.408, 2078.909
1014.890, 2119.264
1015.372, 2148.843
1015.854, 2140.536
1016.336, 2121.006
1016.818, 2105.228
1017.300, 2094.197
1017.783, 2088.090
1018.265, 2086.415
1018.747, 2084.350
1019.229, 2079.999
1019.711, 2075.402
1020.193, 2071.343
1020.675, 2067.252
1021.157, 2056.606
1021.639, 2048.836
1022.122, 2063.721
1022.604, 2100.877
1023.086, 2124.453
1023.568, 2119.342
1024.050, 2106.117
1024.532, 2078.377
1025.014, 2057.613
1025.496, 2068.045
1025.979, 2088.633
1026.461, 2081.986
1026.943, 2047.974
1027.425, 2037.977
1027.907, 2095.866
1028.389, 2131.422
1028.871, 2094.658
1029.353, 2063.029
1029.835, 2095.886
1030.318, 2151.600
1030.800, 2170.940
1031.282, 2152.229
1031.764, 2137.666
1032.246, 2141.491
1032.728, 2137.773
1033.210, 2108.546
1033.692, 2087.328
1034.175, 2099.093
1034.657, 2122.547
1035.139, 2131.307
1035.621, 2125.481
1036.103, 2119.806
1036.585, 2109.240
1037.067, 2108.348
1037.549, 2133.342
1038.031, 2149.749
1038.514, 2135.091
1038.996, 2111.049
1039.478, 2102.341
1039.960, 2106.875
1040.442, 2106.691
1040.924, 2100.856
1041.406, 2091.540
1041.888, 2072.383
1042.370, 2059.407
1042.853, 2059.839
1043.335, 2067.236
1043.817, 2077.398
1044.299, 2088.902
1044.781, 2094.350
1045.263, 2095.270
1045.745, 2084.414
1046.227, 2049.888
1046.710, 2031.655
1047.192, 2053.854
1047.674, 2076.920
1048.156, 2061.830
1048.638, 2020.114
1049.120, 1995.023
1049.602, 1992.922
1050.084, 1977.521
1050.567, 1940.733
1051.049, 1921.693
1051.531, 1936.012
1052.013, 1956.834
1052.495, 1962.674
1052.977, 1959.120
1053.459, 1962.634
1053.941, 1974.789
1054.423, 1964.353
1054.906, 1926.682
1055.388, 1913.815
1055.870, 1940.627
1056.352, 1978.830
1056.834, 2011.495
1057.316, 2032.485
1057.798, 2027.734
1058.280, 1999.395
1058.762, 1965.275
1059.245, 1926.555
1059.727, 1910.375
1060.209, 1921.189
1060.691, 1925.468
1061.173, 1902.655
1061.655, 1877.732
1062.137, 1893.155
1062.619, 1932.695
1063.102, 1937.958
1063.584, 1917.569
1064.066, 1910.792
1064.548, 1920.540
1065.030, 1923.288
1065.512, 1908.211
1065.994, 1886.315
1066.476, 1863.912
1066.958, 1848.047
1067.441, 1860.171
1067.923, 1885.733
1068.405, 1893.424
1068.887, 1882.763
1069.369, 1862.164
1069.851, 1836.311
1070.333, 1820.946
1070.815, 1833.588
1071.297, 1854.188
1071.780, 1865.250
1072.262, 1867.594
1072.744, 1859.003
1073.226, 1843.789
1073.708, 1831.211
1074.190, 1822.621
1074.672, 1808.759
1075.154, 1777.649
1075.637, 1755.332
1076.119, 1772.357
1076.601, 1792.581
1077.083, 1778.986
1077.565, 1750.941
1078.047, 1740.680
1078.529, 1748.207
1079.011, 1748.146
1079.493, 1723.737
1079.976, 1714.753
1080.458, 1755.494
1080.940, 1791.001
1081.422, 1793.099
1081.904, 1775.166
1082.386, 1741.829
1082.868, 1702.205
1083.350, 1683.069
1083.833, 1697.727
1084.315, 1697.882
1084.797, 1660.875
1085.279, 1633.138
1085.761, 1639.177
1086.243, 1644.948
1086.725, 1618.730
1087.207, 1580.772
1087.689, 1576.112
1088.172, 1611.568
1088.654, 1619.665
1089.136, 1585.689
1089.618, 1559.759
1090.100, 1549.595
1090.582, 1546.982
1091.064, 1551.015
1091.546, 1554.073
1092.028, 1544.040
1092.511, 1523.245
1092.993, 1512.641
1093.475, 1514.432
1093.957, 1502.761
1094.439, 1473.417
1094.921, 1452.254
1095.403, 1450.540
1095.885, 1444.255
1096.368, 1405.321
1096.850, 1355.614
1097.332, 1361.989
1097.814, 1409.486
1098.296, 1408.573
1098.778, 1363.321
1099.260, 1330.668
1099.742, 1324.377
1100.224, 1323.868
1100.707, 1316.190
1101.189, 1303.458
1101.671, 1288.947
1102.153, 1270.890
1102.635, 1242.519
1103.117, 1209.628
1103.599, 1184.883
1104.081, 1168.440
1104.563, 1155.371
1105.046, 1143.722
1105.528, 1123.070
1106.010, 1072.229
1106.492, 1024.054
1106.974, 1015.359
1107.456, 1017.364
1107.938, 994.362
1108.420, 956.990
1108.903, 934.733
1109.385, 932.619
1109.867, 924.251
1110.349, 895.788
1110.831, 865.283
1111.313, 831.317
1111.795, 804.716
1112.277, 802.514
1112.760, 804.052
1113.242, 777.183
1113.724, 726.941
1114.206, 699.321
1114.688, 720.335
1115.170, 714.030
1115.652, 656.379
1116.134, 613.114
1116.616, 612.022
1117.099, 614.798
1117.581, 591.145
1118.063, 552.656
1118.545, 525.854
1119.027, 511.983
1119.509, 490.580
1119.991, 460.871
1120.473, 428.101
1120.955, 391.857
1121.438, 362.411
1121.920, 345.420
1122.402, 334.445
1122.884, 321.443
1123.366, 307.791
1123.848, 302.091
1124.330, 300.102
1124.812, 277.180
1125.295, 237.059
1125.777, 208.377
1126.259, 199.544
1126.741, 199.078
1127.223, 200.486
1127.705, 200.823
1128.187, 197.957
1128.669, 190.047
1129.151, 170.474
1129.634, 146.419
1130.116, 133.514
1130.598, 129.208
1131.080, 114.254
1131.562, 79.824
1132.044, 51.818
1132.526, 48.732
1133.008, 49.202
1133.490, 41.597
1133.973, 32.544
1134.455, 30.052
1134.937, 29.635
1135.419, 21.639
1135.901, 5.029
1136.383, 9.722
1136.865, 25.399
1137.347, 32.579
1137.830, 26.887
1138.312, 18.130
1138.794, 3.889
1139.276, 3.583
1139.758, 12.141
1140.240, 41.412
1140.722, 49.523
1141.204, 32.150
1141.687, 27.985
1142.169, 38.616
1142.651, 49.201
1143.133, 57.039
1143.615, 56.651
1144.097, 43.597
1144.579, 31.674
1145.061, 40.993
1145.543, 64.631
1146.026, 89.737
1146.508, 112.882
1146.990, 118.912
1147.472, 110.052
1147.954, 99.823
1148.436, 93.162
1148.918, 90.854
1149.400, 94.466
1149.882, 99.148
1150.365, 103.116
1150.847, 103.497
1151.329, 88.993
1151.811, 74.638
1152.293, 90.675
1152.775, 125.822
1153.257, 131.817
1153.739, 89.707
1154.222, 63.795
1154.704, 83.739
1155.186, 105.838
1155.668, 125.731
1156.150, 134.821
1156.632, 116.204
1157.114, 92.098
1157.596, 96.545
1158.078, 125.435
1158.561, 130.580
1159.043, 102.065
1159.525, 86.607
1160.007, 88.293
1160.489, 93.709
1160.971, 98.994
1161.453, 107.344
1161.935, 122.421
1162.417, 136.900
1162.900, 135.753
1163.382, 122.284
1163.864, 107.520
1164.346, 94.076
1164.828, 94.264
1165.310, 106.942
1165.792, 119.271
1166.274, 126.312
1166.757, 131.049
1167.239, 137.137
1167.721, 139.200
1168.203, 128.240
1168.685, 114.224
1169.167, 110.262
1169.649, 109.066
1170.131, 94.495
1170.614, 70.343
1171.096, 60.234
1171.578, 74.864
1172.060, 83.252
1172.542, 64.890
1173.024, 58.397
1173.506, 93.177
1173.988, 121.087
1174.470, 108.437
1174.953, 79.422
1175.435, 68.371
1175.917, 73.585
1176.399, 80.667
1176.881, 90.917
1177.363, 94.148
1177.845, 89.303
1178.327, 82.270
1178.809, 74.607
1179.292, 67.854
1179.774, 62.917
1180.256, 61.136
1180.738, 67.439
1181.220, 76.888
1181.702, 75.022
1182.184, 68.351
1182.666, 77.794
1183.149, 96.084
1183.631, 87.481
1184.113, 46.019
1184.595, 24.150
1185.077, 68.372
1185.559, 105.221
1186.041, 83.521
1186.523, 51.417
1187.005, 34.565
1187.488, 29.830
1187.970, 36.399
1188.452, 50.001
1188.934, 58.503
1189.416, 60.672
1189.898, 61.267
1190.380, 59.635
1190.862, 57.605
1191.344, 53.776
1191.827, 55.986
1192.309, 70.684
1192.791, 81.341
1193.273, 68.190
1193.755, 41.980
1194.237, 32.912
1194.719, 37.225
1195.201, 32.873
1195.684, 23.571
1196.166, 35.447
1196.648, 66.534
1197.130, 80.408
1197.612, 60.487
1198.094, 33.363
1198.576, 14.098
1199.058, 4.689
1199.541, 13.782
1200.023, 26.960
1200.505, 32.687
1200.987, 31.772
1201.469, 19.332
1201.951, 1.220
1202.433, 11.281
1202.915, 80.558
1203.397, 103.790
1203.880, 35.464
1204.362, 0.238
1204.844, 38.443
1205.326, 78.646
1205.808, 79.857
1206.290, 66.423
1206.772, 71.277
1207.254, 88.621
1207.736, 98.456
1208.219, 99.773
1208.701, 78.033
1209.183, 38.350
1209.665, 16.128
1210.147, 16.629
1210.629, 12.519
1211.111, 11.531
1211.593, 31.025
1212.076, 20.893
1212.558, 0.437
1213.040, 25.638
1213.522, 44.738
1214.004, 41.804
1214.486, 27.929
1214.968, 18.762
1215.450, 16.674
1215.932, 21.168
1216.415, 45.399
1216.897, 43.130
1217.379, 11.839
1217.861, 41.715
1218.343, 18.745
1218.825, 3.454
1219.307, 9.132
1219.789, 29.592
1220.271, 18.104
1220.754, 12.474
1221.236, 13.291
1221.718, 8.205
1222.200, 13.060
1222.682, 3.480
1223.164, 5.320
1223.646, 8.971
1224.128, 1.027
1224.611, 23.150
1225.093, 37.224
1225.575, 6.398
1226.057, 23.325
1226.539, 19.971
1227.021, 2.039
1227.503, 27.264
1227.985, 53.141
1228.468, 54.453
1228.950, 34.575
1229.432, 24.272
1229.914, 30.899
1230.396, 21.311
1230.878, 14.406
1231.360, 29.930
1231.842, 11.860
1232.324, 1.500
1232.807, 10.759
1233.289, 29.926
1233.771, 37.392
1234.253, 33.620
1234.735, 12.475
1235.217, 12.733
1235.699, 8.068
1236.181, 14.385
1236.663, 22.674
1237.146, 18.173
1237.628, 29.167
1238.110, 67.619
1238.592, 92.612
1239.074, 79.265
1239.556, 59.457
1240.038, 33.944
1240.520, 15.746
1241.003, 20.865
1241.485, 27.143
1241.967, 12.635
1242.449, 13.783
1242.931, 28.090
1243.413, 29.671
1243.895, 27.838
1244.377, 22.800
1244.859, 23.437
1245.342, 30.607
1245.824, 41.216
1246.306, 54.005
1246.788, 59.739
1247.270, 51.109
1247.752, 37.475
1248.234, 21.807
1248.716, 12.756
1249.198, 26.915
1249.681, 45.713
1250.163, 45.551
1250.645, 33.958
1251.127, 29.133
1251.609, 33.942
1252.091, 41.403
1252.573, 63.017
1253.055, 63.082
1253.538, 26.042
1254.020, 8.442
1254.502, 26.761
1254.984, 47.336
1255.466, 50.265
1255.948, 43.696
1256.430, 39.167
1256.912, 36.769
1257.395, 39.697
1257.877, 44.085
1258.359, 40.364
1258.841, 31.267
1259.323, 24.726
1259.805, 20.757
1260.287, 12.378
1260.769, 3.319
1261.251, 13.169
1261.734, 9.772
1262.216, 3.292
1262.698, 9.125
1263.180, 16.831
1263.662, 13.458
1264.144, 6.398
1264.626, 1.240
1265.108, 1.590
1265.590, 0.725
1266.073, 2.246
1266.555, 3.709
1267.037, 3.248
1267.519, 2.781
1268.001, 2.461
1268.483, 5.278
1268.965, 10.423
1269.447, 10.617
1269.930, 0.000
##END=



