##NAMES=Mangano-mangani-ungarettiite
##RRUFFID=R050244
##IDEAL CHEMISTRY=NaNa_2_(Mn^2+^_2_Mn^3+^_3_)Si_8_O_22_O_2_
##LOCALITY=Hoskins mine, near Grenfell, New South Wales, Australia
##OWNER=RRUFF
##SOURCE=Marcus Origlieri
##DESCRIPTION=Dark red granular, associated with namansilite, R070006
##STATUS=The identification of this mineral is confirmed by single-crystal X-ray diffraction and chemical analysis.
##URL=rruff.info/R050244
##MEASURED CHEMISTRY=Na_1.00_Na_2.00_(Mn^2+^_2.00_(Mn^3+^_2.35_Fe^3+^_0.63_Al_0.02_)_Î£=3_)Si_8.00_O_22_O_2_
158.3766, 3301.620
158.8587, 3347.395
159.3409, 3335.254
159.8230, 3331.338
160.3051, 3360.850
160.7872, 3413.062
161.2693, 3468.888
161.7514, 3528.200
162.2336, 3584.959
162.7157, 3634.553
163.1978, 3672.688
163.6799, 3711.316
164.1620, 3756.606
164.6441, 3807.226
165.1263, 3858.503
165.6084, 3911.984
166.0905, 3963.811
166.5726, 4009.915
167.0547, 4043.964
167.5368, 4079.014
168.0190, 4127.060
168.5011, 4185.839
168.9832, 4241.642
169.4653, 4293.453
169.9474, 4335.441
170.4295, 4359.678
170.9117, 4353.712
171.3938, 4336.439
171.8759, 4329.285
172.3580, 4331.135
172.8401, 4321.961
173.3222, 4275.772
173.8044, 4208.123
174.2865, 4148.444
174.7686, 4112.975
175.2507, 4089.356
175.7328, 4062.238
176.2149, 4031.410
176.6971, 4000.108
177.1792, 3971.243
177.6613, 3944.739
178.1434, 3919.956
178.6255, 3899.465
179.1076, 3880.075
179.5898, 3852.821
180.0719, 3815.259
180.5540, 3779.362
181.0361, 3758.333
181.5182, 3751.588
182.0003, 3755.039
182.4825, 3781.570
182.9646, 3817.531
183.4467, 3817.878
183.9288, 3767.756
184.4109, 3704.472
184.8930, 3690.976
185.3752, 3724.688
185.8573, 3760.324
186.3394, 3764.226
186.8215, 3743.140
187.3036, 3728.364
187.7857, 3724.959
188.2679, 3729.588
188.7500, 3739.912
189.2321, 3756.667
189.7142, 3765.954
190.1963, 3746.861
190.6784, 3703.432
191.1606, 3680.064
191.6427, 3688.612
192.1248, 3721.427
192.6069, 3759.587
193.0890, 3804.880
193.5712, 3844.537
194.0533, 3863.465
194.5354, 3861.623
195.0175, 3860.715
195.4996, 3866.719
195.9817, 3878.037
196.4639, 3883.142
196.9460, 3878.903
197.4281, 3878.828
197.9102, 3902.979
198.3923, 3953.890
198.8744, 3997.187
199.3566, 4017.588
199.8387, 4017.366
200.3208, 4034.239
200.8029, 4072.702
201.2850, 4118.729
201.7671, 4155.229
202.2493, 4181.267
202.7314, 4201.056
203.2135, 4214.452
203.6956, 4221.144
204.1777, 4229.913
204.6598, 4242.890
205.1420, 4254.901
205.6241, 4253.711
206.1062, 4233.047
206.5883, 4222.071
207.0704, 4235.350
207.5525, 4277.556
208.0347, 4314.089
208.5168, 4342.649
208.9989, 4367.611
209.4810, 4401.396
209.9631, 4451.990
210.4452, 4489.834
210.9274, 4494.658
211.4095, 4450.999
211.8916, 4437.815
212.3737, 4467.605
212.8558, 4522.613
213.3379, 4557.141
213.8201, 4564.574
214.3022, 4565.127
214.7843, 4569.092
215.2664, 4578.935
215.7485, 4584.402
216.2306, 4584.667
216.7128, 4580.318
217.1949, 4573.873
217.6770, 4567.612
218.1591, 4555.390
218.6412, 4530.682
219.1233, 4484.474
219.6055, 4451.581
220.0876, 4439.376
220.5697, 4442.806
221.0518, 4437.970
221.5339, 4422.047
222.0160, 4401.946
222.4982, 4381.993
222.9803, 4360.895
223.4624, 4341.690
223.9445, 4320.985
224.4266, 4301.276
224.9087, 4302.538
225.3909, 4345.377
225.8730, 4382.792
226.3551, 4375.677
226.8372, 4294.345
227.3193, 4232.647
227.8015, 4209.520
228.2836, 4220.539
228.7657, 4213.075
229.2478, 4174.852
229.7299, 4131.894
230.2120, 4104.375
230.6942, 4097.130
231.1763, 4096.186
231.6584, 4101.969
232.1405, 4114.250
232.6226, 4122.309
233.1047, 4129.330
233.5869, 4128.863
234.0690, 4112.126
234.5511, 4062.504
235.0332, 4028.922
235.5153, 4025.269
235.9974, 4051.941
236.4796, 4064.414
236.9617, 4050.867
237.4438, 4034.209
237.9259, 4038.996
238.4080, 4084.702
238.8901, 4115.233
239.3723, 4117.476
239.8544, 4089.945
240.3365, 4062.446
240.8186, 4027.123
241.3007, 3998.977
241.7828, 3996.081
242.2650, 4038.053
242.7471, 4070.299
243.2292, 4079.226
243.7113, 4062.594
244.1934, 4052.310
244.6755, 4051.176
245.1577, 4053.896
245.6398, 4054.426
246.1219, 4049.706
246.6040, 4048.658
247.0861, 4056.382
247.5682, 4074.906
248.0504, 4078.545
248.5325, 4059.578
249.0146, 4032.854
249.4967, 4015.887
249.9788, 4014.973
250.4609, 4012.000
250.9431, 4002.003
251.4252, 3984.165
251.9073, 3967.807
252.3894, 3949.047
252.8715, 3935.341
253.3536, 3938.735
253.8358, 3973.395
254.3179, 3996.222
254.8000, 3990.859
255.2821, 3953.077
255.7642, 3935.449
256.2463, 3947.353
256.7285, 3970.194
257.2106, 3981.037
257.6927, 3973.434
258.1748, 3967.737
258.6569, 3970.500
259.1390, 3983.014
259.6212, 3989.936
260.1033, 3990.607
260.5854, 3986.498
261.0675, 3977.387
261.5496, 3958.269
262.0317, 3946.973
262.5139, 3950.737
262.9960, 3970.762
263.4781, 3986.211
263.9602, 3997.986
264.4423, 4003.834
264.9244, 3998.043
265.4066, 3973.983
265.8887, 3957.851
266.3708, 3959.394
266.8529, 3979.413
267.3350, 3994.077
267.8171, 4002.470
268.2993, 4006.894
268.7814, 4008.750
269.2635, 4006.308
269.7456, 4007.600
270.2277, 4016.302
270.7098, 4032.618
271.1920, 4043.722
271.6741, 4047.548
272.1562, 4050.154
272.6383, 4058.224
273.1204, 4071.961
273.6025, 4090.237
274.0847, 4113.092
274.5668, 4140.744
275.0489, 4172.952
275.5310, 4213.471
276.0131, 4250.125
276.4952, 4266.244
276.9774, 4259.030
277.4595, 4252.382
277.9416, 4252.558
278.4237, 4259.110
278.9058, 4269.116
279.3879, 4284.205
279.8701, 4297.701
280.3522, 4298.601
280.8343, 4285.815
281.3164, 4281.550
281.7986, 4293.373
282.2807, 4318.766
282.7628, 4347.832
283.2449, 4382.277
283.7270, 4411.222
284.2091, 4419.277
284.6913, 4407.099
285.1734, 4399.091
285.6555, 4404.334
286.1376, 4418.052
286.6197, 4420.099
287.1018, 4408.703
287.5840, 4399.538
288.0661, 4390.881
288.5482, 4426.960
289.0303, 4446.749
289.5124, 4451.123
289.9945, 4393.913
290.4767, 4416.226
290.9588, 4406.670
291.4409, 4395.807
291.9230, 4429.312
292.4051, 4381.060
292.8872, 4413.862
293.3694, 4414.309
293.8515, 4429.563
294.3336, 4412.752
294.8157, 4405.846
295.2978, 4381.196
295.7799, 4361.964
296.2621, 4346.989
296.7442, 4342.070
297.2263, 4352.885
297.7084, 4368.653
298.1905, 4373.347
298.6726, 4367.688
299.1548, 4357.084
299.6369, 4341.330
300.1190, 4323.812
300.6011, 4313.115
301.0832, 4315.549
301.5653, 4317.230
302.0475, 4265.948
302.5296, 4294.097
303.0117, 4306.358
303.4938, 4303.584
303.9759, 4240.750
304.4580, 4255.472
304.9402, 4239.112
305.4223, 4221.478
305.9044, 4247.117
306.3865, 4193.018
306.8686, 4217.970
307.3507, 4211.366
307.8329, 4219.204
308.3150, 4195.769
308.7971, 4181.994
309.2792, 4199.502
309.7613, 4199.688
310.2434, 4172.653
310.7256, 4181.409
311.2077, 4126.216
311.6898, 4127.141
312.1719, 4152.276
312.6540, 4126.814
313.1361, 4136.142
313.6183, 4132.219
314.1004, 4068.080
314.5825, 4108.665
315.0646, 4103.960
315.5467, 4052.752
316.0288, 4089.749
316.5110, 4044.951
316.9931, 4029.349
317.4752, 4035.719
317.9573, 4019.185
318.4394, 4027.165
318.9215, 4001.686
319.4037, 3976.148
319.8858, 3962.232
320.3679, 3961.968
320.8500, 3957.396
321.3321, 3933.382
321.8142, 3907.578
322.2964, 3897.020
322.7785, 3932.790
323.2606, 3955.983
323.7427, 3946.445
324.2248, 3903.044
324.7069, 3866.737
325.1891, 3832.697
325.6712, 3812.403
326.1533, 3814.303
326.6354, 3884.568
327.1175, 3926.004
327.5996, 3907.662
328.0818, 3837.462
328.5639, 3807.331
329.0460, 3861.008
329.5281, 3919.694
330.0102, 3935.687
330.4923, 3872.306
330.9745, 3822.858
331.4566, 3792.912
331.9387, 3781.135
332.4208, 3784.890
332.9029, 3817.590
333.3850, 3847.702
333.8672, 3857.120
334.3493, 3833.931
334.8314, 3820.127
335.3135, 3819.329
335.7956, 3827.594
336.2777, 3838.341
336.7599, 3857.892
337.2420, 3864.840
337.7241, 3841.097
338.2062, 3775.752
338.6883, 3746.135
339.1704, 3763.688
339.6526, 3802.109
340.1347, 3818.531
340.6168, 3810.360
341.0989, 3795.228
341.5810, 3775.200
342.0631, 3751.116
342.5453, 3746.445
343.0274, 3765.976
343.5095, 3789.921
343.9916, 3792.973
344.4737, 3775.797
344.9558, 3757.209
345.4380, 3741.316
345.9201, 3729.101
346.4022, 3725.645
346.8843, 3731.770
347.3664, 3737.973
347.8485, 3731.441
348.3307, 3716.476
348.8128, 3710.481
349.2949, 3724.843
349.7770, 3744.703
350.2591, 3741.479
350.7413, 3717.229
351.2234, 3693.723
351.7055, 3692.823
352.1876, 3702.779
352.6697, 3700.924
353.1519, 3675.177
353.6340, 3649.075
354.1161, 3649.750
354.5982, 3671.653
355.0803, 3694.472
355.5624, 3709.430
356.0446, 3718.286
356.5267, 3721.571
357.0088, 3717.891
357.4909, 3713.404
357.9730, 3713.350
358.4551, 3715.325
358.9373, 3714.590
359.4194, 3700.946
359.9015, 3690.009
360.3836, 3694.898
360.8657, 3720.521
361.3478, 3739.085
361.8300, 3724.192
362.3121, 3701.140
362.7942, 3700.327
363.2763, 3766.566
363.7584, 3821.847
364.2405, 3834.633
364.7227, 3801.975
365.2048, 3774.130
365.6869, 3762.354
366.1690, 3757.759
366.6511, 3753.627
367.1332, 3750.621
367.6154, 3746.664
368.0975, 3741.393
368.5796, 3734.870
369.0617, 3727.397
369.5438, 3710.263
370.0259, 3700.026
370.5081, 3706.900
370.9902, 3746.825
371.4723, 3774.419
371.9544, 3784.078
372.4365, 3782.035
372.9186, 3784.032
373.4008, 3789.384
373.8829, 3800.207
374.3650, 3820.423
374.8471, 3854.803
375.3292, 3874.031
375.8113, 3874.386
376.2935, 3864.851
376.7756, 3858.310
377.2577, 3855.040
377.7398, 3852.773
378.2219, 3851.358
378.7040, 3850.482
379.1862, 3846.078
379.6683, 3836.812
380.1504, 3830.082
380.6325, 3838.095
381.1146, 3858.442
381.5967, 3869.327
382.0789, 3858.713
382.5610, 3839.911
383.0431, 3844.742
383.5252, 3871.989
384.0073, 3899.310
384.4894, 3908.793
384.9716, 3905.778
385.4537, 3900.586
385.9358, 3893.621
386.4179, 3888.567
386.9000, 3891.507
387.3821, 3900.275
387.8643, 3908.396
388.3464, 3908.804
388.8285, 3908.490
389.3106, 3916.275
389.7927, 3934.968
390.2748, 3951.472
390.7570, 3952.739
391.2391, 3947.283
391.7212, 3947.729
392.2033, 3973.846
392.6854, 3994.523
393.1675, 3983.319
393.6497, 3939.212
394.1318, 3918.326
394.6139, 3964.626
395.0960, 4028.853
395.5781, 4070.728
396.0602, 4061.592
396.5424, 4052.345
397.0245, 4053.137
397.5066, 4062.057
397.9887, 4068.167
398.4708, 4057.258
398.9529, 4054.201
399.4351, 4072.241
399.9172, 4139.021
400.3993, 4176.179
400.8814, 4169.936
401.3635, 4138.798
401.8456, 4118.001
402.3278, 4106.525
402.8099, 4107.745
403.2920, 4127.512
403.7741, 4168.991
404.2562, 4193.860
404.7383, 4197.325
405.2205, 4192.152
405.7026, 4195.041
406.1847, 4208.556
406.6668, 4208.854
407.1489, 4181.740
407.6310, 4139.706
408.1132, 4132.699
408.5953, 4163.401
409.0774, 4201.647
409.5595, 4226.253
410.0416, 4238.488
410.5237, 4241.320
411.0059, 4231.422
411.4880, 4220.377
411.9701, 4228.149
412.4522, 4251.080
412.9343, 4271.377
413.4164, 4279.975
413.8986, 4279.770
414.3807, 4273.734
414.8628, 4261.717
415.3449, 4247.409
415.8270, 4228.628
416.3091, 4210.191
416.7913, 4199.975
417.2734, 4210.341
417.7555, 4222.112
418.2376, 4224.936
418.7197, 4218.843
419.2018, 4206.669
419.6840, 4178.804
420.1661, 4151.529
420.6482, 4137.859
421.1303, 4152.562
421.6125, 4164.346
422.0946, 4159.078
422.5767, 4112.123
423.0588, 4148.801
423.5409, 4169.189
424.0230, 4174.162
424.5052, 4117.552
424.9873, 4140.463
425.4694, 4131.507
425.9515, 4121.243
426.4336, 4155.347
426.9157, 4107.694
427.3979, 4141.095
427.8800, 4142.140
428.3621, 4157.994
428.8442, 4141.782
429.3263, 4135.474
429.8084, 4161.243
430.2906, 4169.250
430.7727, 4149.347
431.2548, 4166.142
431.7369, 4141.925
432.2190, 4157.016
432.7011, 4174.920
433.1833, 4181.251
433.6654, 4176.591
434.1475, 4174.341
434.6296, 4184.010
435.1117, 4201.428
435.5938, 4216.666
436.0760, 4229.479
436.5581, 4238.933
437.0402, 4240.929
437.5223, 4238.984
438.0044, 4240.425
438.4865, 4246.953
438.9687, 4258.806
439.4508, 4246.955
439.9329, 4298.961
440.4150, 4334.679
440.8971, 4354.980
441.3792, 4313.700
441.8614, 4351.943
442.3435, 4358.316
442.8256, 4363.381
443.3077, 4412.814
443.7898, 4380.490
444.2719, 4429.220
444.7541, 4445.597
445.2362, 4476.781
445.7183, 4475.897
446.2004, 4484.919
446.6825, 4526.016
447.1646, 4549.352
447.6468, 4544.780
448.1289, 4576.905
448.6110, 4543.460
449.0931, 4567.554
449.5752, 4616.471
450.0573, 4613.509
450.5395, 4646.222
451.0216, 4665.346
451.5037, 4622.728
451.9858, 4687.486
452.4679, 4705.807
452.9500, 4686.311
453.4322, 4658.542
453.9143, 4620.964
454.3964, 4620.687
454.8785, 4654.578
455.3606, 4683.793
455.8427, 4693.259
456.3249, 4688.863
456.8070, 4680.861
457.2891, 4669.381
457.7712, 4658.784
458.2533, 4650.360
458.7354, 4645.608
459.2176, 4648.474
459.6997, 4663.917
460.1818, 4677.918
460.6639, 4676.759
461.1460, 4665.375
461.6281, 4654.707
462.1103, 4651.512
462.5924, 4649.297
463.0745, 4646.057
463.5566, 4642.250
464.0387, 4630.742
464.5208, 4589.853
465.0030, 4549.756
465.4851, 4537.608
465.9672, 4594.554
466.4493, 4636.811
466.9314, 4650.800
467.4135, 4641.274
467.8957, 4625.435
468.3778, 4592.351
468.8599, 4567.064
469.3420, 4564.525
469.8241, 4595.938
470.3062, 4603.548
470.7884, 4578.109
471.2705, 4541.578
471.7526, 4524.231
472.2347, 4527.982
472.7168, 4535.122
473.1989, 4540.652
473.6811, 4545.981
474.1632, 4560.548
474.6453, 4584.699
475.1274, 4600.084
475.6095, 4586.574
476.0916, 4553.582
476.5738, 4523.191
477.0559, 4496.461
477.5380, 4479.940
478.0201, 4492.824
478.5022, 4521.758
478.9843, 4536.464
479.4665, 4508.451
479.9486, 4471.298
480.4307, 4448.951
480.9128, 4441.921
481.3949, 4441.238
481.8770, 4444.187
482.3592, 4450.869
482.8413, 4462.399
483.3234, 4497.397
483.8055, 4511.829
484.2876, 4476.526
484.7697, 4414.715
485.2519, 4384.140
485.7340, 4418.569
486.2161, 4449.163
486.6982, 4454.360
487.1803, 4429.759
487.6624, 4418.290
488.1446, 4427.033
488.6267, 4439.170
489.1088, 4436.623
489.5909, 4415.262
490.0730, 4403.431
490.5551, 4408.602
491.0373, 4422.665
491.5194, 4425.667
492.0015, 4417.505
492.4836, 4408.517
492.9658, 4398.778
493.4479, 4392.844
493.9300, 4411.075
494.4121, 4456.360
494.8942, 4496.886
495.3763, 4488.107
495.8585, 4455.294
496.3406, 4444.923
496.8227, 4496.530
497.3048, 4546.771
497.7869, 4533.606
498.2690, 4476.319
498.7512, 4437.878
499.2333, 4465.187
499.7154, 4504.472
500.1975, 4521.523
500.6796, 4502.734
501.1617, 4500.212
501.6439, 4541.984
502.1260, 4596.972
502.6081, 4630.989
503.0902, 4622.577
503.5723, 4622.520
504.0544, 4639.242
504.5366, 4669.660
505.0187, 4700.542
505.5008, 4735.736
505.9829, 4762.952
506.4650, 4769.450
506.9471, 4752.066
507.4293, 4760.541
507.9114, 4800.730
508.3935, 4849.974
508.8756, 4882.463
509.3577, 4898.762
509.8398, 4900.125
510.3220, 4872.004
510.8041, 4844.163
511.2862, 4877.771
511.7683, 4962.401
512.2504, 5039.645
512.7325, 5066.566
513.2147, 5069.693
513.6968, 5074.360
514.1789, 5082.805
514.6610, 5098.503
515.1431, 5134.146
515.6252, 5174.336
516.1074, 5200.793
516.5895, 5193.196
517.0716, 5187.407
517.5537, 5193.882
518.0358, 5210.987
518.5179, 5227.769
519.0001, 5242.094
519.4822, 5257.656
519.9643, 5277.818
520.4464, 5307.359
520.9285, 5322.825
521.4106, 5317.815
521.8928, 5306.939
522.3749, 5309.122
522.8570, 5326.130
523.3391, 5341.116
523.8212, 5349.586
524.3033, 5354.208
524.7855, 5361.692
525.2676, 5372.087
525.7497, 5384.123
526.2318, 5397.304
526.7139, 5411.763
527.1960, 5430.529
527.6782, 5454.908
528.1603, 5471.868
528.6424, 5462.743
529.1245, 5441.290
529.6066, 5426.995
530.0887, 5432.146
530.5709, 5439.388
531.0530, 5437.896
531.5351, 5431.497
532.0172, 5432.459
532.4993, 5456.436
532.9814, 5477.626
533.4636, 5484.726
533.9457, 5474.499
534.4278, 5461.980
534.9099, 5447.542
535.3920, 5430.560
535.8741, 5408.870
536.3563, 5377.800
536.8384, 5356.467
537.3205, 5347.707
537.8026, 5350.111
538.2847, 5363.520
538.7668, 5388.522
539.2490, 5413.355
539.7311, 5434.580
540.2132, 5450.918
540.6953, 5456.998
541.1774, 5452.527
541.6595, 5443.905
542.1417, 5433.967
542.6238, 5424.143
543.1059, 5415.871
543.5880, 5406.496
544.0701, 5405.145
544.5522, 5423.712
545.0344, 5454.312
545.5165, 5481.686
545.9986, 5504.755
546.4807, 5519.469
546.9628, 5518.029
547.4449, 5499.711
547.9271, 5495.646
548.4092, 5522.375
548.8913, 5552.933
549.3734, 5570.227
549.8555, 5556.732
550.3376, 5574.626
550.8198, 5639.983
551.3019, 5720.043
551.7840, 5760.242
552.2661, 5755.691
552.7482, 5751.821
553.2303, 5763.208
553.7125, 5783.575
554.1946, 5791.543
554.6767, 5788.113
555.1588, 5792.545
555.6409, 5828.194
556.1230, 5877.258
556.6052, 5908.899
557.0873, 5918.937
557.5694, 5923.417
558.0515, 5922.711
558.5336, 5927.213
559.0157, 5949.858
559.4979, 6031.188
559.9800, 6092.858
560.4621, 6088.243
560.9442, 6039.961
561.4263, 6024.247
561.9084, 6092.666
562.3906, 6154.061
562.8727, 6175.839
563.3548, 6150.596
563.8369, 6152.355
564.3190, 6198.029
564.8011, 6243.734
565.2833, 6247.202
565.7654, 6203.977
566.2475, 6170.200
566.7296, 6151.900
567.2117, 6147.459
567.6938, 6159.416
568.1760, 6185.315
568.6581, 6211.062
569.1402, 6234.437
569.6223, 6251.244
570.1044, 6252.066
570.5865, 6238.616
571.0687, 6223.471
571.5508, 6219.860
572.0329, 6214.364
572.5150, 6193.151
572.9971, 6148.282
573.4792, 6108.421
573.9614, 6079.546
574.4435, 6060.921
574.9256, 6051.422
575.4077, 6059.724
575.8898, 6066.736
576.3719, 6077.802
576.8541, 6085.684
577.3362, 6060.954
577.8183, 5990.147
578.3004, 5922.913
578.7825, 5880.574
579.2646, 5861.784
579.7468, 5853.580
580.2289, 5858.612
580.7110, 5855.169
581.1931, 5809.412
581.6752, 5739.332
582.1573, 5697.059
582.6395, 5698.411
583.1216, 5711.207
583.6037, 5708.623
584.0858, 5695.053
584.5679, 5678.504
585.0500, 5656.071
585.5322, 5637.338
586.0143, 5630.159
586.4964, 5632.617
586.9785, 5630.105
587.4606, 5616.090
587.9427, 5599.584
588.4249, 5588.976
588.9070, 5594.019
589.3891, 5561.482
589.8712, 5467.199
590.3533, 5367.409
590.8354, 5324.704
591.3176, 5345.707
591.7997, 5364.340
592.2818, 5370.136
592.7639, 5368.364
593.2460, 5371.074
593.7281, 5376.255
594.2103, 5371.812
594.6924, 5343.349
595.1745, 5306.382
595.6566, 5279.676
596.1387, 5262.854
596.6208, 5253.560
597.1030, 5261.649
597.5851, 5269.246
598.0673, 5258.072
598.5494, 5213.729
599.0315, 5187.784
599.5136, 5217.029
599.9957, 5259.098
600.4778, 5266.017
600.9600, 5214.279
601.4421, 5165.687
601.9242, 5123.008
602.4063, 5089.575
602.8884, 5079.298
603.3705, 5097.007
603.8527, 5113.400
604.3348, 5113.516
604.8169, 5102.506
605.2990, 5102.805
605.7811, 5114.374
606.2632, 5124.815
606.7454, 5123.725
607.2275, 5115.141
607.7096, 5105.816
608.1917, 5097.191
608.6738, 5085.048
609.1559, 5055.513
609.6381, 5024.802
610.1202, 5012.371
610.6023, 5045.853
611.0844, 5073.605
611.5665, 5081.184
612.0486, 5073.916
612.5308, 5069.704
613.0129, 5076.050
613.4950, 5073.294
613.9771, 5050.830
614.4592, 5010.074
614.9413, 4983.484
615.4235, 4971.271
615.9056, 4972.315
616.3877, 4999.957
616.8698, 5043.329
617.3519, 5047.280
617.8340, 5000.628
618.3162, 4947.711
618.7983, 4935.114
619.2804, 4948.224
619.7625, 4961.963
620.2446, 4967.062
620.7267, 4972.094
621.2089, 4987.915
621.6910, 5007.343
622.1731, 5012.816
622.6552, 4989.212
623.1373, 4961.660
623.6194, 4934.173
624.1016, 4907.105
624.5837, 4892.958
625.0658, 4901.497
625.5479, 4906.422
626.0300, 4886.028
626.5121, 4836.808
626.9943, 4818.221
627.4764, 4839.018
627.9585, 4860.685
628.4406, 4831.416
628.9227, 4765.909
629.4048, 4709.758
629.8870, 4672.897
630.3691, 4651.712
630.8512, 4654.430
631.3333, 4669.673
631.8154, 4674.038
632.2975, 4646.447
632.7797, 4616.727
633.2618, 4594.134
633.7439, 4579.456
634.2260, 4576.687
634.7081, 4604.725
635.1902, 4625.830
635.6724, 4626.569
636.1545, 4606.277
636.6366, 4564.912
637.1187, 4492.883
637.6008, 4423.353
638.0829, 4397.129
638.5651, 4409.307
639.0472, 4396.323
639.5293, 4344.571
640.0114, 4282.417
640.4935, 4234.309
640.9756, 4202.694
641.4578, 4194.828
641.9399, 4248.166
642.4220, 4290.383
642.9041, 4253.955
643.3862, 4165.744
643.8683, 4109.075
644.3505, 4144.703
644.8326, 4183.982
645.3147, 4189.045
645.7968, 4158.622
646.2789, 4139.318
646.7610, 4139.593
647.2432, 4137.599
647.7253, 4119.427
648.2074, 4084.259
648.6895, 4039.730
649.1716, 3981.348
649.6537, 3930.694
650.1359, 3920.920
650.6180, 3939.892
651.1001, 3948.063
651.5822, 3931.438
652.0643, 3910.775
652.5464, 3903.177
653.0286, 3905.845
653.5107, 3913.450
653.9928, 3935.194
654.4749, 3950.045
654.9570, 3944.121
655.4391, 3921.305
655.9213, 3910.069
656.4034, 3924.019
656.8855, 3933.470
657.3676, 3926.863
657.8497, 3903.396
658.3318, 3877.092
658.8140, 3845.345
659.2961, 3820.273
659.7782, 3815.976
660.2603, 3827.856
660.7424, 3837.396
661.2245, 3843.587
661.7067, 3842.006
662.1888, 3816.989
662.6709, 3784.389
663.1530, 3769.994
663.6351, 3798.656
664.1172, 3821.909
664.5994, 3801.980
665.0815, 3763.681
665.5636, 3756.469
666.0457, 3838.540
666.5278, 3893.558
667.0099, 3890.531
667.4921, 3841.504
667.9742, 3813.502
668.4563, 3811.151
668.9384, 3814.091
669.4205, 3810.800
669.9026, 3803.777
670.3848, 3807.669
670.8669, 3822.670
671.3490, 3841.119
671.8311, 3858.694
672.3132, 3875.291
672.7953, 3890.102
673.2775, 3902.025
673.7596, 3916.079
674.2417, 3936.107
674.7238, 3958.944
675.2059, 3952.221
675.6880, 3992.188
676.1702, 4016.267
676.6523, 4025.312
677.1344, 3974.295
677.6165, 4000.835
678.0986, 3996.294
678.5807, 3990.479
679.0629, 4027.936
679.5450, 3985.655
680.0271, 4022.425
680.5092, 4027.640
680.9913, 4047.296
681.4734, 4023.697
681.9556, 4016.966
682.4377, 4009.802
682.9198, 4002.174
683.4019, 3992.317
683.8840, 3969.881
684.3661, 3951.944
684.8483, 3957.082
685.3304, 4001.555
685.8125, 4009.123
686.2946, 3949.363
686.7767, 3877.487
687.2589, 3835.439
687.7410, 3832.306
688.2231, 3819.791
688.7052, 3791.678
689.1873, 3760.761
689.6694, 3745.281
690.1516, 3742.506
690.6337, 3740.702
691.1158, 3739.263
691.5979, 3732.705
692.0800, 3708.024
692.5621, 3674.010
693.0443, 3649.352
693.5264, 3655.249
694.0085, 3658.456
694.4906, 3643.475
694.9727, 3612.873
695.4548, 3584.160
695.9370, 3556.524
696.4191, 3533.451
696.9012, 3518.323
697.3833, 3510.432
697.8654, 3494.224
698.3475, 3467.820
698.8297, 3444.079
699.3118, 3436.042
699.7939, 3437.861
700.2760, 3428.708
700.7581, 3406.387
701.2402, 3392.121
701.7224, 3416.466
702.2045, 3422.113
702.6866, 3454.693
703.1687, 3470.982
703.6508, 3471.857
704.1329, 3411.149
704.6151, 3429.961
705.0972, 3416.906
705.5793, 3402.544
706.0614, 3432.550
706.5435, 3380.798
707.0256, 3410.101
707.5078, 3407.047
707.9899, 3418.802
708.4720, 3398.492
708.9541, 3388.086
709.4362, 3409.756
709.9183, 3413.665
710.4005, 3389.662
710.8826, 3402.359
711.3647, 3349.488
711.8468, 3354.153
712.3289, 3383.643
712.8110, 3361.254
713.2932, 3374.536
713.7753, 3374.233
714.2574, 3312.187
714.7395, 3357.518
715.2216, 3356.412
715.7037, 3307.626
716.1859, 3349.277
716.6680, 3307.063
717.1501, 3294.785
717.6322, 3305.034
718.1143, 3291.799
718.5964, 3315.590
719.0786, 3303.710
719.5607, 3288.644
720.0428, 3287.487
720.5249, 3246.918
721.0070, 3279.464
721.4891, 3262.067
721.9713, 3269.494
722.4534, 3282.549
722.9355, 3252.519
723.4176, 3268.102
723.8997, 3212.948
724.3818, 3216.983
724.8640, 3214.643
725.3461, 3250.136
725.8282, 3195.328
726.3103, 3197.718
726.7924, 3224.463
727.2745, 3217.131
727.7567, 3224.045
728.2388, 3188.780
728.7209, 3193.140
729.2030, 3186.578
729.6851, 3217.758
730.1672, 3219.143
730.6494, 3184.592
731.1315, 3150.196
731.6136, 3184.092
732.0957, 3153.259
732.5778, 3157.347
733.0599, 3125.369
733.5421, 3156.079
734.0242, 3164.194
734.5063, 3170.163
734.9884, 3166.567
735.4705, 3155.612
735.9526, 3142.020
736.4348, 3125.887
736.9169, 3116.684
737.3990, 3130.742
737.8811, 3150.858
738.3632, 3156.765
738.8454, 3139.169
739.3275, 3128.972
739.8096, 3149.647
740.2917, 3172.174
740.7739, 3168.964
741.2560, 3121.497
741.7381, 3093.475
742.2202, 3090.523
742.7023, 3101.996
743.1844, 3120.269
743.6666, 3143.033
744.1487, 3145.936
744.6308, 3115.003
745.1129, 3083.275
745.5950, 3105.795
746.0771, 3153.960
746.5593, 3170.991
747.0414, 3089.144
747.5235, 3023.353
748.0056, 3032.218
748.4877, 3088.328
748.9698, 3118.882
749.4520, 3113.773
749.9341, 3094.768
750.4162, 3056.909
750.8983, 3012.646
751.3804, 3012.138
751.8625, 3055.769
752.3447, 3096.895
752.8268, 3112.168
753.3089, 3110.623
753.7910, 3103.656
754.2731, 3092.379
754.7552, 3081.960
755.2374, 3070.151
755.7195, 3064.443
756.2016, 3076.060
756.6837, 3106.472
757.1658, 3115.636
757.6479, 3089.551
758.1301, 3058.185
758.6122, 3032.760
759.0943, 3012.872
759.5764, 3011.284
760.0585, 3030.403
760.5406, 3049.214
761.0228, 3042.100
761.5049, 3023.960
761.9870, 3031.360
762.4691, 3069.406
762.9512, 3099.156
763.4333, 3090.453
763.9155, 3065.359
764.3976, 3042.199
764.8797, 3024.772
765.3618, 3006.609
765.8439, 2981.270
766.3260, 2960.813
766.8082, 2957.479
767.2903, 2973.348
767.7724, 2994.128
768.2545, 3022.628
768.7366, 3042.278
769.2188, 3020.442
769.7009, 2973.850
770.1830, 2944.580
770.6651, 2946.376
771.1472, 2959.427
771.6293, 2983.241
772.1115, 3005.698
772.5936, 3010.309
773.0757, 2968.901
773.5578, 2941.130
774.0399, 2934.289
774.5220, 2942.362
775.0042, 2957.034
775.4863, 2979.602
775.9684, 3000.880
776.4505, 3021.585
776.9326, 3034.746
777.4147, 3018.700
777.8969, 2983.356
778.3790, 2958.976
778.8611, 2969.272
779.3432, 2984.974
779.8253, 2986.880
780.3074, 2979.765
780.7896, 2976.592
781.2717, 2986.104
781.7538, 2992.511
782.2359, 2993.348
782.7180, 2988.799
783.2001, 2977.661
783.6823, 2958.935
784.1644, 2942.368
784.6465, 2926.730
785.1286, 2919.638
785.6107, 2948.302
786.0928, 3003.554
786.5750, 3042.252
787.0571, 3031.162
787.5392, 3004.763
788.0213, 2979.294
788.5034, 2956.256
788.9855, 2940.696
789.4677, 2932.754
789.9498, 2932.292
790.4319, 2940.475
790.9140, 2956.665
791.3961, 2977.099
791.8782, 3002.731
792.3604, 3020.144
792.8425, 3015.920
793.3246, 2998.984
793.8067, 2981.049
794.2888, 2963.557
794.7709, 2956.080
795.2531, 2975.238
795.7352, 2997.682
796.2173, 3006.529
796.6994, 2997.951
797.1815, 2996.579
797.6636, 3007.632
798.1458, 3018.827
798.6279, 3022.173
799.1100, 3017.792
799.5921, 3018.701
800.0742, 3025.253
800.5563, 3031.469
801.0385, 3032.307
801.5206, 3029.891
802.0027, 3026.729
802.4848, 3022.999
802.9669, 3020.204
803.4490, 3026.515
803.9312, 3028.602
804.4133, 3010.820
804.8954, 2958.862
805.3775, 2947.271
805.8596, 2992.168
806.3417, 3045.555
806.8239, 3067.593
807.3060, 3061.662
807.7881, 3053.843
808.2702, 3045.712
808.7523, 3035.466
809.2344, 3014.688
809.7166, 2994.336
810.1987, 2989.751
810.6808, 3008.515
811.1629, 3021.759
811.6450, 3013.043
812.1271, 3001.170
812.6093, 3003.190
813.0914, 3032.325
813.5735, 3025.054
814.0556, 2968.691
814.5377, 2911.198
815.0198, 2903.674
815.5020, 2935.720
815.9841, 2981.082
816.4662, 3040.208
816.9483, 3083.576
817.4304, 3073.031
817.9125, 3044.292
818.3947, 3035.776
818.8768, 3074.104
819.3589, 3088.651
819.8410, 3056.056
820.3231, 3016.919
820.8052, 3013.541
821.2874, 3050.734
821.7695, 3068.229
822.2516, 3058.717
822.7337, 3041.096
823.2158, 3031.273
823.6979, 3030.016
824.1801, 3043.264
824.6622, 3078.895
825.1443, 3103.274
825.6264, 3079.974
826.1085, 3046.899
826.5906, 3045.362
827.0728, 3109.512
827.5549, 3136.740
828.0370, 3114.586
828.5191, 3076.635
829.0012, 3058.959
829.4833, 3059.531
829.9655, 3061.083
830.4476, 3061.255
830.9297, 3061.988
831.4118, 3061.418
831.8939, 3064.123
832.3760, 3079.675
832.8582, 3127.884
833.3403, 3148.438
833.8224, 3095.712
834.3045, 3030.361
834.7866, 3004.153
835.2687, 3024.381
835.7509, 3053.549
836.2330, 3093.967
836.7151, 3128.901
837.1972, 3132.105
837.6793, 3115.620
838.1614, 3108.065
838.6436, 3115.468
839.1257, 3127.958
839.6078, 3144.782
840.0899, 3160.551
840.5720, 3169.141
841.0541, 3158.885
841.5363, 3165.047
842.0184, 3199.475
842.5005, 3232.890
842.9826, 3228.905
843.4647, 3190.642
843.9468, 3168.843
844.4290, 3170.312
844.9111, 3175.463
845.3932, 3160.920
845.8753, 3140.424
846.3574, 3131.069
846.8395, 3137.549
847.3217, 3150.791
847.8038, 3171.776
848.2859, 3196.253
848.7680, 3224.840
849.2501, 3265.701
849.7322, 3271.783
850.2144, 3235.014
850.6965, 3192.728
851.1786, 3183.051
851.6607, 3196.551
852.1428, 3214.017
852.6249, 3233.584
853.1071, 3251.764
853.5892, 3276.121
854.0713, 3291.723
854.5534, 3281.764
855.0355, 3229.036
855.5176, 3202.200
855.9998, 3210.122
856.4819, 3228.943
856.9640, 3244.805
857.4461, 3256.756
857.9282, 3251.073
858.4103, 3226.826
858.8925, 3200.326
859.3746, 3173.299
859.8567, 3158.333
860.3388, 3176.279
860.8209, 3233.870
861.3030, 3278.141
861.7852, 3289.462
862.2673, 3289.627
862.7494, 3286.533
863.2315, 3279.840
863.7136, 3278.187
864.1957, 3282.658
864.6779, 3283.582
865.1600, 3260.391
865.6421, 3234.554
866.1242, 3254.268
866.6063, 3317.340
867.0884, 3362.583
867.5706, 3336.653
868.0527, 3304.010
868.5348, 3308.458
869.0169, 3348.891
869.4990, 3361.267
869.9811, 3338.581
870.4633, 3307.376
870.9454, 3270.405
871.4275, 3237.639
871.9096, 3255.630
872.3917, 3316.842
872.8738, 3369.874
873.3560, 3381.677
873.8381, 3377.254
874.3202, 3371.346
874.8023, 3364.301
875.2844, 3351.509
875.7665, 3322.624
876.2487, 3307.451
876.7308, 3326.448
877.2129, 3361.916
877.6950, 3329.801
878.1771, 3237.585
878.6592, 3178.160
879.1414, 3223.747
879.6235, 3298.700
880.1057, 3335.622
880.5878, 3341.476
881.0699, 3334.883
881.5520, 3305.877
882.0341, 3283.557
882.5162, 3271.622
882.9984, 3271.042
883.4805, 3289.438
883.9626, 3328.612
884.4447, 3356.984
884.9268, 3364.767
885.4089, 3358.950
885.8911, 3340.168
886.3732, 3316.159
886.8553, 3302.410
887.3374, 3311.122
887.8195, 3322.645
888.3016, 3338.529
888.7838, 3350.698
889.2659, 3347.164
889.7480, 3324.604
890.2301, 3297.571
890.7122, 3263.531
891.1943, 3237.399
891.6765, 3247.358
892.1586, 3279.340
892.6407, 3301.271
893.1228, 3302.810
893.6049, 3303.565
894.0870, 3320.331
894.5692, 3337.599
895.0513, 3338.807
895.5334, 3314.420
896.0155, 3298.631
896.4976, 3293.386
896.9797, 3292.267
897.4619, 3290.631
897.9440, 3288.095
898.4261, 3280.512
898.9082, 3267.123
899.3903, 3261.855
899.8724, 3288.063
900.3546, 3316.259
900.8367, 3322.428
901.3188, 3299.626
901.8009, 3274.524
902.2830, 3236.625
902.7651, 3217.759
903.2473, 3252.950
903.7294, 3326.671
904.2115, 3329.618
904.6936, 3267.442
905.1757, 3213.844
905.6578, 3234.748
906.1400, 3270.066
906.6221, 3264.257
907.1042, 3223.073
907.5863, 3212.200
908.0684, 3265.141
908.5505, 3310.805
909.0327, 3329.524
909.5148, 3325.085
909.9969, 3303.817
910.4790, 3267.967
910.9611, 3241.973
911.4432, 3237.110
911.9254, 3245.883
912.4075, 3272.081
912.8896, 3305.358
913.3717, 3322.686
913.8538, 3296.826
914.3359, 3283.558
914.8181, 3297.397
915.3002, 3321.112
915.7823, 3323.625
916.2644, 3305.569
916.7465, 3284.393
917.2286, 3260.083
917.7108, 3247.462
918.1929, 3280.697
918.6750, 3328.235
919.1571, 3344.950
919.6392, 3299.276
920.1213, 3267.118
920.6035, 3266.140
921.0856, 3276.450
921.5677, 3281.966
922.0498, 3282.300
922.5319, 3292.120
923.0140, 3314.059
923.4962, 3324.863
923.9783, 3278.442
924.4604, 3223.202
924.9425, 3231.528
925.4246, 3314.117
925.9067, 3367.510
926.3889, 3328.388
926.8710, 3288.736
927.3531, 3291.271
927.8352, 3331.841
928.3173, 3337.418
928.7994, 3306.844
929.2816, 3288.561
929.7637, 3333.022
930.2458, 3390.977
930.7279, 3393.904
931.2100, 3355.995
931.6921, 3330.114
932.1743, 3352.184
932.6564, 3367.604
933.1385, 3355.613
933.6206, 3331.541
934.1027, 3341.392
934.5848, 3386.827
935.0670, 3408.917
935.5491, 3384.755
936.0312, 3346.284
936.5133, 3322.607
936.9954, 3313.881
937.4775, 3322.060
937.9597, 3370.052
938.4418, 3398.435
938.9239, 3384.729
939.4060, 3359.274
939.8881, 3349.144
940.3702, 3354.069
940.8524, 3386.249
941.3345, 3451.416
941.8166, 3501.753
942.2987, 3470.254
942.7808, 3409.998
943.2629, 3388.800
943.7451, 3419.398
944.2272, 3442.179
944.7093, 3441.127
945.1914, 3430.486
945.6735, 3411.723
946.1556, 3386.568
946.6378, 3377.419
947.1199, 3384.313
947.6020, 3404.000
948.0841, 3452.340
948.5662, 3499.080
949.0483, 3509.172
949.5305, 3490.120
950.0126, 3468.844
950.4947, 3438.390
950.9768, 3426.792
951.4589, 3448.370
951.9410, 3484.726
952.4232, 3490.583
952.9053, 3468.817
953.3874, 3454.148
953.8695, 3456.929
954.3516, 3466.677
954.8337, 3477.834
955.3159, 3487.610
955.7980, 3492.152
956.2801, 3487.539
956.7622, 3483.205
957.2443, 3479.906
957.7264, 3476.644
958.2086, 3447.468
958.6907, 3484.569
959.1728, 3505.380
959.6549, 3510.776
960.1370, 3454.589
960.6191, 3477.924
961.1013, 3469.390
961.5834, 3459.550
962.0655, 3494.077
962.5476, 3446.847
963.0297, 3480.671
963.5118, 3482.139
963.9940, 3498.416
964.4761, 3482.627
964.9582, 3476.742
965.4403, 3502.934
965.9224, 3511.364
966.4045, 3491.884
966.8867, 3509.102
967.3688, 3460.752
967.8509, 3469.939
968.3330, 3503.950
968.8151, 3486.082
969.2972, 3503.887
969.7794, 3508.105
970.2615, 3450.581
970.7436, 3500.433
971.2257, 3503.849
971.7078, 3459.584
972.1899, 3505.757
972.6721, 3468.065
973.1542, 3460.308
973.6363, 3475.079
974.1184, 3466.365
974.6005, 3456.611
975.0826, 3457.420
975.5648, 3472.669
976.0469, 3487.187
976.5290, 3491.204
977.0111, 3487.964
977.4932, 3475.221
977.9753, 3458.290
978.4575, 3459.568
978.9396, 3519.348
979.4217, 3562.874
979.9038, 3557.063
980.3859, 3522.531
980.8680, 3508.643
981.3502, 3517.039
981.8323, 3512.450
982.3144, 3483.563
982.7965, 3448.514
983.2786, 3426.303
983.7607, 3412.914
984.2429, 3401.726
984.7250, 3386.483
985.2071, 3386.383
985.6892, 3409.000
986.1713, 3439.003
986.6534, 3471.238
987.1356, 3504.278
987.6177, 3505.423
988.0998, 3474.999
988.5819, 3448.336
989.0640, 3451.406
989.5461, 3468.150
990.0283, 3492.035
990.5104, 3520.288
990.9925, 3536.475
991.4746, 3539.688
991.9567, 3529.835
992.4388, 3499.630
992.9210, 3465.411
993.4031, 3471.033
993.8852, 3503.446
994.3673, 3517.091
994.8494, 3483.741
995.3315, 3455.738
995.8137, 3466.942
996.2958, 3495.288
996.7779, 3517.642
997.2600, 3537.084
997.7421, 3532.901
998.2242, 3498.264
998.7064, 3470.587
999.1885, 3498.947
999.6706, 3549.784
1000.153, 3567.601
1000.635, 3550.532
1001.117, 3526.381
1001.599, 3485.137
1002.081, 3463.502
1002.563, 3484.362
1003.045, 3532.121
1003.528, 3541.028
1004.010, 3512.281
1004.492, 3493.989
1004.974, 3510.468
1005.456, 3530.903
1005.938, 3516.179
1006.420, 3486.610
1006.902, 3472.808
1007.384, 3507.091
1007.867, 3514.356
1008.349, 3480.837
1008.831, 3442.607
1009.313, 3434.713
1009.795, 3451.739
1010.277, 3474.551
1010.759, 3501.310
1011.241, 3517.023
1011.724, 3508.784
1012.206, 3489.483
1012.688, 3457.939
1013.170, 3419.102
1013.652, 3405.318
1014.134, 3419.452
1014.616, 3448.706
1015.098, 3498.434
1015.580, 3546.202
1016.063, 3550.548
1016.545, 3526.393
1017.027, 3503.064
1017.509, 3485.318
1017.991, 3477.191
1018.473, 3478.692
1018.955, 3490.831
1019.437, 3520.312
1019.919, 3567.463
1020.402, 3598.146
1020.884, 3611.100
1021.366, 3608.158
1021.848, 3575.309
1022.330, 3539.471
1022.812, 3527.529
1023.294, 3537.606
1023.776, 3534.850
1024.259, 3504.311
1024.741, 3491.351
1025.223, 3514.982
1025.705, 3554.377
1026.187, 3574.750
1026.669, 3575.745
1027.151, 3551.671
1027.633, 3481.689
1028.115, 3431.287
1028.598, 3450.144
1029.080, 3488.382
1029.562, 3498.273
1030.044, 3472.921
1030.526, 3466.666
1031.008, 3481.221
1031.490, 3496.223
1031.972, 3495.838
1032.455, 3487.541
1032.937, 3477.494
1033.419, 3466.779
1033.901, 3459.732
1034.383, 3455.787
1034.865, 3458.120
1035.347, 3468.573
1035.829, 3484.294
1036.312, 3498.850
1036.794, 3513.490
1037.276, 3535.110
1037.758, 3570.111
1038.240, 3595.020
1038.722, 3590.897
1039.204, 3573.403
1039.686, 3554.981
1040.168, 3535.870
1040.651, 3517.393
1041.133, 3498.355
1041.615, 3488.362
1042.097, 3499.594
1042.579, 3519.992
1043.061, 3531.945
1043.543, 3538.280
1044.025, 3548.455
1044.507, 3583.009
1044.990, 3596.045
1045.472, 3572.360
1045.954, 3534.588
1046.436, 3516.115
1046.918, 3515.014
1047.400, 3522.514
1047.882, 3538.260
1048.364, 3553.009
1048.847, 3564.405
1049.329, 3568.951
1049.811, 3555.610
1050.293, 3524.740
1050.775, 3531.650
1051.257, 3585.809
1051.739, 3628.771
1052.221, 3631.349
1052.703, 3611.488
1053.186, 3585.553
1053.668, 3560.192
1054.150, 3549.576
1054.632, 3582.456
1055.114, 3594.440
1055.596, 3566.243
1056.078, 3533.379
1056.560, 3536.481
1057.042, 3569.593
1057.525, 3597.323
1058.007, 3617.312
1058.489, 3628.477
1058.971, 3621.877
1059.453, 3613.541
1059.935, 3614.113
1060.417, 3622.267
1060.899, 3629.304
1061.382, 3635.106
1061.864, 3641.747
1062.346, 3652.308
1062.828, 3658.085
1063.310, 3640.575
1063.792, 3613.091
1064.274, 3593.995
1064.756, 3582.118
1065.239, 3598.029
1065.721, 3666.821
1066.203, 3723.887
1066.685, 3713.188
1067.167, 3652.529
1067.649, 3629.795
1068.131, 3640.250
1068.613, 3653.860
1069.095, 3652.993
1069.578, 3652.638
1070.060, 3668.332
1070.542, 3686.076
1071.024, 3676.344
1071.506, 3633.938
1071.988, 3614.321
1072.470, 3628.209
1072.952, 3645.284
1073.434, 3629.105
1073.917, 3602.745
1074.399, 3595.452
1074.881, 3612.089
1075.363, 3608.133
1075.845, 3561.464
1076.327, 3538.056
1076.809, 3574.091
1077.291, 3637.029
1077.774, 3646.919
1078.256, 3618.867
1078.738, 3592.171
1079.220, 3574.358
1079.702, 3571.112
1080.184, 3601.298
1080.666, 3633.630
1081.148, 3642.125
1081.630, 3626.470
1082.113, 3607.333
1082.595, 3585.225
1083.077, 3572.948
1083.559, 3590.998
1084.041, 3611.768
1084.523, 3608.258
1085.005, 3589.305
1085.487, 3590.891
1085.969, 3623.136
1086.452, 3643.326
1086.934, 3643.769
1087.416, 3632.608
1087.898, 3615.135
1088.380, 3595.129
1088.862, 3577.313
1089.344, 3562.002
1089.826, 3553.391
1090.309, 3555.967
1090.791, 3560.204
1091.273, 3564.067
1091.755, 3565.808
1092.237, 3556.425
1092.719, 3539.114
1093.201, 3526.428
1093.683, 3524.511
1094.166, 3526.232
1094.648, 3526.415
1095.130, 3530.174
1095.612, 3546.082
1096.094, 3577.219
1096.576, 3589.037
1097.058, 3580.983
1097.540, 3557.338
1098.022, 3491.282
1098.505, 3436.356
1098.987, 3465.316
1099.469, 3549.569
1099.951, 3565.436
1100.433, 3472.242
1100.915, 3412.548
1101.397, 3411.759
1101.879, 3443.646
1102.362, 3502.530
1102.844, 3559.417
1103.326, 3552.454
1103.808, 3466.108
1104.290, 3411.426
1104.772, 3447.272
1105.254, 3475.538
1105.736, 3454.174
1106.219, 3404.233
1106.701, 3390.800
1107.183, 3407.365
1107.665, 3428.549
1108.147, 3449.732
1108.629, 3464.514
1109.111, 3463.072
1109.593, 3458.583
1110.075, 3467.470
1110.557, 3493.400
1111.040, 3475.562
1111.522, 3414.639
1112.004, 3368.350
1112.486, 3387.858
1112.968, 3426.311
1113.450, 3457.500
1113.932, 3477.103
1114.414, 3474.725
1114.897, 3439.703
1115.379, 3422.285
1115.861, 3431.953
1116.343, 3442.991
1116.825, 3418.178
1117.307, 3382.112
1117.789, 3373.375
1118.271, 3394.441
1118.754, 3406.411
1119.236, 3394.575
1119.718, 3388.706
1120.200, 3400.322
1120.682, 3418.736
1121.164, 3417.984
1121.646, 3406.356
1122.128, 3409.060
1122.610, 3441.912
1123.093, 3455.984
1123.575, 3413.366
1124.057, 3365.149
1124.539, 3336.307
1125.021, 3326.100
1125.503, 3334.733
1125.985, 3359.275
1126.467, 3379.031
1126.949, 3380.294
1127.432, 3377.891
1127.914, 3385.342
1128.396, 3390.444
1128.878, 3374.017
1129.360, 3330.611
1129.842, 3309.334
1130.324, 3312.832
1130.806, 3323.438
1131.289, 3335.657
1131.771, 3341.406
1132.253, 3325.656
1132.735, 3295.847
1133.217, 3285.820
1133.699, 3304.758
1134.181, 3314.347
1134.663, 3305.871
1135.146, 3295.140
1135.628, 3304.135
1136.110, 3321.562
1136.592, 3331.636
1137.074, 3332.173
1137.556, 3332.652
1138.038, 3339.184
1138.520, 3335.246
1139.002, 3310.057
1139.484, 3277.748
1139.967, 3268.024
1140.449, 3275.671
1140.931, 3290.230
1141.413, 3311.962
1141.895, 3332.083
1142.377, 3358.740
1142.859, 3370.219
1143.341, 3346.061
1143.824, 3295.976
1144.306, 3266.953
1144.788, 3257.320
1145.270, 3257.758
1145.752, 3277.990
1146.234, 3290.188
1146.716, 3270.796
1147.198, 3246.257
1147.681, 3245.895
1148.163, 3269.491
1148.645, 3292.616
1149.127, 3313.869
1149.609, 3318.713
1150.091, 3271.265
1150.573, 3229.068
1151.055, 3242.843
1151.537, 3289.728
1152.020, 3310.351
1152.502, 3302.286
1152.984, 3287.260
1153.466, 3266.749
1153.948, 3251.616
1154.430, 3258.377
1154.912, 3271.145
1155.394, 3275.548
1155.876, 3270.354
1156.359, 3263.010
1156.841, 3250.351
1157.323, 3250.899
1157.805, 3274.142
1158.287, 3302.281
1158.769, 3322.461
1159.251, 3328.136
1159.733, 3303.402
1160.216, 3232.286
1160.698, 3196.161
1161.180, 3206.354
1161.662, 3228.468
1162.144, 3253.941
1162.626, 3271.793
1163.108, 3243.845
1163.590, 3194.905
1164.073, 3177.652
1164.555, 3234.620
1165.037, 3276.197
1165.519, 3296.591
1166.001, 3298.412
1166.483, 3268.965
1166.965, 3226.173
1167.447, 3232.729
1167.929, 3275.955
1168.411, 3304.979
1168.894, 3285.310
1169.376, 3266.724
1169.858, 3259.778
1170.340, 3256.032
1170.822, 3240.145
1171.304, 3218.683
1171.786, 3228.748
1172.268, 3268.894
1172.751, 3288.233
1173.233, 3224.574
1173.715, 3179.165
1174.197, 3194.932
1174.679, 3242.753
1175.161, 3271.263
1175.643, 3281.917
1176.125, 3277.416
1176.608, 3256.682
1177.090, 3244.418
1177.572, 3262.123
1178.054, 3287.061
1178.536, 3315.384
1179.018, 3338.658
1179.500, 3310.257
1179.982, 3236.467
1180.464, 3198.170
1180.947, 3223.482
1181.429, 3262.367
1181.911, 3302.862
1182.393, 3321.574
1182.875, 3290.886
1183.357, 3215.475
1183.839, 3175.393
1184.321, 3170.622
1184.803, 3195.192
1185.286, 3269.926
1185.768, 3331.830
1186.250, 3313.618
1186.732, 3266.595
1187.214, 3253.271
1187.696, 3281.524
1188.178, 3282.033
1188.660, 3253.866
1189.143, 3222.966
1189.625, 3200.500
1190.107, 3186.639
1190.589, 3180.316
1191.071, 3183.667
1191.553, 3201.706
1192.035, 3240.264
1192.517, 3266.361
1193.000, 3278.610
1193.482, 3281.601
1193.964, 3279.215
1194.446, 3268.943
1194.928, 3236.977
1195.410, 3196.202
1195.892, 3185.431
1196.374, 3212.248
1196.856, 3242.667
1197.339, 3275.344
1197.821, 3297.610
1198.303, 3288.222
1198.785, 3268.821
1199.267, 3261.510
1199.749, 3265.335
1200.231, 3263.875
1200.713, 3254.710
1201.195, 3245.964
1201.678, 3237.304
1202.160, 3236.732
1202.642, 3271.327
1203.124, 3307.250
1203.606, 3297.656
1204.088, 3237.981
1204.570, 3205.650
1205.052, 3207.483
1205.535, 3219.672
1206.017, 3239.256
1206.499, 3255.949
1206.981, 3247.814
1207.463, 3233.654
1207.945, 3241.338
1208.427, 3280.546
1208.909, 3297.788
1209.391, 3285.500
1209.874, 3279.694
1210.356, 3301.161
1210.838, 3325.420
1211.320, 3307.261
1211.802, 3273.227
1212.284, 3266.386
1212.766, 3311.050
1213.248, 3322.402
1213.730, 3291.433
1214.213, 3263.889
1214.695, 3269.582
1215.177, 3287.876
1215.659, 3286.625
1216.141, 3277.062
1216.623, 3280.391
1217.105, 3310.907
1217.587, 3328.165
1218.070, 3330.122
1218.552, 3326.480
1219.034, 3328.193
1219.516, 3325.345
1219.998, 3291.586
1220.480, 3244.249
1220.962, 3225.118
1221.444, 3257.214
1221.927, 3277.538
1222.409, 3282.437
1222.891, 3283.007
1223.373, 3290.896
1223.855, 3298.084
1224.337, 3284.247
1224.819, 3260.748
1225.301, 3271.697
1225.783, 3353.295
1226.266, 3366.403
1226.748, 3284.724
1227.230, 3201.557
1227.712, 3222.427
1228.194, 3282.076
1228.676, 3307.044
1229.158, 3300.771
1229.640, 3300.866
1230.122, 3314.557
1230.605, 3317.713
1231.087, 3303.768
1231.569, 3293.299
1232.051, 3317.863
1232.533, 3349.848
1233.015, 3356.864
1233.497, 3339.875
1233.979, 3331.658
1234.462, 3338.833
1234.944, 3327.131
1235.426, 3285.258
1235.908, 3244.671
1236.390, 3250.173
1236.872, 3267.011
1237.354, 3251.925
1237.836, 3205.223
1238.318, 3194.637
1238.801, 3226.206
1239.283, 3253.755
1239.765, 3264.511
1240.247, 3271.357
1240.729, 3288.679
1241.211, 3308.188
1241.693, 3320.572
1242.175, 3325.826
1242.658, 3335.886
1243.140, 3352.331
1243.622, 3352.539
1244.104, 3325.339
1244.586, 3292.393
1245.068, 3269.869
1245.550, 3254.567
1246.032, 3242.938
1246.515, 3234.553
1246.997, 3233.002
1247.479, 3238.282
1247.961, 3251.912
1248.443, 3278.838
1248.925, 3303.395
1249.407, 3315.020
1249.889, 3316.307
1250.371, 3306.989
1250.854, 3288.056
1251.336, 3284.506
1251.818, 3295.219
1252.300, 3303.719
1252.782, 3302.892
1253.264, 3298.123
1253.746, 3290.145
1254.228, 3281.611
1254.710, 3272.422
1255.193, 3263.485
1255.675, 3276.036
1256.157, 3306.015
1256.639, 3323.085
1257.121, 3308.102
1257.603, 3286.703
1258.085, 3251.200
1258.567, 3232.388
1259.050, 3269.348
1259.532, 3350.091
1260.014, 3359.625
1260.496, 3310.469
1260.978, 3266.060
1261.460, 3251.339
1261.942, 3252.257
1262.424, 3272.973
1262.906, 3297.309
1263.389, 3312.800
1263.871, 3320.921
1264.353, 3328.495
1264.835, 3334.912
1265.317, 3337.929
1265.799, 3326.366
1266.281, 3329.791
1266.763, 3367.545
1267.245, 3392.037
1267.728, 3341.105
1268.210, 3252.886
1268.692, 3215.097
1269.174, 3223.276
1269.656, 3253.227
1270.138, 3329.631
1270.620, 3375.421
1271.102, 3380.281
1271.585, 3369.771
1272.067, 3369.339
1272.549, 3367.514
1273.031, 3336.273
1273.513, 3287.075
1273.995, 3261.719
1274.477, 3277.740
1274.959, 3288.768
1275.442, 3289.574
1275.924, 3295.280
1276.406, 3334.258
1276.888, 3373.813
1277.370, 3370.464
1277.852, 3336.210
1278.334, 3313.165
1278.816, 3303.639
1279.298, 3306.522
1279.781, 3323.304
1280.263, 3334.952
1280.745, 3308.112
1281.227, 3286.208
1281.709, 3322.190
1282.191, 3385.278
1282.673, 3398.951
1283.155, 3361.080
1283.637, 3324.653
1284.120, 3294.541
1284.602, 3279.994
1285.084, 3295.271
1285.566, 3320.107
1286.048, 3354.845
1286.530, 3385.048
1287.012, 3377.727
1287.494, 3340.418
1287.977, 3335.254
1288.459, 3366.592
1288.941, 3396.949
1289.423, 3411.984
1289.905, 3412.415
1290.387, 3393.940
1290.869, 3369.883
1291.351, 3360.235
1291.833, 3361.585
1292.316, 3366.127
1292.798, 3372.478
1293.280, 3374.647
1293.762, 3373.425
1294.244, 3359.938
1294.726, 3325.344
1295.208, 3294.144
1295.690, 3312.812
1296.172, 3349.927
1296.655, 3346.284
1297.137, 3304.122
1297.619, 3292.529
1298.101, 3335.190
1298.583, 3356.210
1299.065, 3338.854
1299.547, 3314.992
1300.029, 3318.816
1300.512, 3335.079
1300.994, 3351.158
1301.476, 3365.010
1301.958, 3372.399
1302.440, 3372.383
1302.922, 3375.183
1303.404, 3383.627
1303.886, 3383.390
1304.369, 3342.414
1304.851, 3306.933
1305.333, 3326.813
1305.815, 3373.123
1306.297, 3378.532
1306.779, 3347.204
1307.261, 3332.433
1307.743, 3341.768
1308.225, 3355.474
1308.708, 3369.042
1309.190, 3374.317
1309.672, 3364.071
1310.154, 3349.828
1310.636, 3357.336
1311.118, 3377.784
1311.600, 3379.267
1312.082, 3359.614
1312.564, 3357.089
1313.047, 3412.927
1313.529, 3440.818
1314.011, 3415.647
1314.493, 3374.861
1314.975, 3373.886
1315.457, 3386.822
1315.939, 3366.451
1316.421, 3314.422
1316.904, 3284.527
1317.386, 3271.362
1317.868, 3309.398
1318.350, 3403.254
1318.832, 3553.656
##END=



