##NAMES=Manganosite
##RRUFFID=R060695
##IDEAL CHEMISTRY=Mn^2+^O
##LOCALITY=Franklin, New Jersey, USA
##OWNER=RRUFF
##SOURCE=Bob Jenkins
##DESCRIPTION=Dark green coarse prismatic crystals associated with calcite and red zincite
##STATUS=The identification of this mineral is confirmed by single-crystal X-ray diffraction and chemical analysis.
##URL=rruff.info/R060695
##MEASURED CHEMISTRY=Mn^2+^_1.00_O ; trace amounts of Mg
171.1854, 0.0000000E+00
171.6676, 1.961426
172.1497, 1.779297
172.6318, 0.4104000
173.1139, 0.4011230
173.5960, 7.8856997E-02
174.0781, 0.9650880
174.5603, 7.397461
175.0424, 29.13232
175.5245, 47.48389
176.0066, 49.15552
176.4887, 36.40234
176.9708, 23.07886
177.4530, 25.59888
177.9351, 49.22437
178.4172, 67.25684
178.8993, 84.84937
179.3814, 93.97681
179.8635, 85.39502
180.3457, 62.21533
180.8278, 36.71582
181.3099, 21.35156
181.7920, 16.70850
182.2741, 24.65576
182.7562, 59.90894
183.2384, 92.97754
183.7205, 100.2419
184.2026, 85.51514
184.6847, 67.61133
185.1668, 68.30859
185.6489, 96.27222
186.1311, 106.3042
186.6132, 79.58667
187.0953, 53.38965
187.5774, 53.24414
188.0595, 77.53833
188.5416, 106.1687
189.0238, 119.9761
189.5059, 120.3110
189.9880, 110.9316
190.4701, 103.2036
190.9522, 93.79468
191.4343, 76.14331
191.9165, 55.27441
192.3986, 41.35010
192.8807, 35.36108
193.3628, 53.72314
193.8449, 59.45239
194.3270, 40.81079
194.8092, 26.75439
195.2913, 35.68091
195.7734, 64.16138
196.2555, 91.99536
196.7376, 98.92944
197.2197, 81.92163
197.7019, 69.50537
198.1840, 59.76221
198.6661, 55.07031
199.1482, 61.98120
199.6303, 77.02319
200.1124, 86.03198
200.5946, 74.45752
201.0767, 38.32812
201.5588, 25.83521
202.0409, 53.56885
202.5230, 83.75708
203.0051, 103.6917
203.4873, 111.8931
203.9694, 108.9792
204.4515, 94.06592
204.9336, 66.36328
205.4157, 44.11157
205.8978, 28.97168
206.3800, 16.38574
206.8621, 1.5137000E-02
207.3442, 15.95703
207.8263, 18.63135
208.3084, 4.385742
208.7905, 51.02905
209.2727, 74.19897
209.7548, 56.38696
210.2369, 37.04102
210.7190, 30.77124
211.2011, 33.41650
211.6832, 31.96143
212.1654, 17.29492
212.6475, 8.358887
213.1296, 20.96729
213.6117, 5.715088
214.0938, 5.400146
214.5760, 1.874268
215.0581, 18.51318
215.5402, 27.61572
216.0223, 18.86377
216.5044, 4.874512
216.9865, 27.47290
217.4687, 54.75659
217.9508, 74.34741
218.4329, 84.21484
218.9150, 84.88672
219.3971, 73.91602
219.8792, 48.90454
220.3614, 16.92334
220.8435, 4.472656
221.3256, 29.75610
221.8077, 54.82788
222.2898, 84.38892
222.7719, 109.5222
223.2541, 116.7944
223.7362, 100.2417
224.2183, 69.29102
224.7004, 48.87207
225.1825, 45.02881
225.6646, 45.33203
226.1468, 57.65503
226.6289, 70.05518
227.1110, 64.77368
227.5931, 36.67017
228.0752, 3.630127
228.5573, 2.869141
229.0395, 75.38550
229.5216, 119.3794
230.0037, 118.4670
230.4858, 100.3088
230.9679, 85.22168
231.4500, 79.26294
231.9322, 78.29907
232.4143, 75.93359
232.8964, 69.51074
233.3785, 67.44629
233.8606, 75.16211
234.3427, 82.64478
234.8249, 80.26880
235.3070, 68.30054
235.7891, 57.41724
236.2712, 62.60547
236.7533, 93.87476
237.2354, 107.7600
237.7176, 85.29932
238.1997, 64.04224
238.6818, 66.64014
239.1639, 90.84204
239.6460, 117.2908
240.1281, 127.8271
240.6103, 121.0212
241.0924, 108.5552
241.5745, 76.05029
242.0566, 51.40356
242.5387, 53.71777
243.0208, 73.68628
243.5030, 85.90601
243.9851, 67.15356
244.4672, 18.91724
244.9493, 7.720215
245.4314, 7.216553
245.9135, 24.63770
246.3957, 36.54321
246.8778, 43.61572
247.3599, 48.26929
247.8420, 52.08105
248.3241, 54.76978
248.8062, 55.22778
249.2884, 54.74731
249.7705, 49.48315
250.2526, 30.19507
250.7347, 8.517090
251.2168, 1.392090
251.6989, 18.80518
252.1811, 47.82935
252.6632, 55.79248
253.1453, 29.77441
253.6274, 10.64429
254.1095, 8.324219
254.5916, 15.95361
255.0738, 30.49463
255.5559, 51.57617
256.0380, 71.67212
256.5201, 77.05298
257.0022, 62.70996
257.4843, 53.98657
257.9665, 66.43286
258.4486, 80.23291
258.9307, 79.04028
259.4128, 60.34595
259.8949, 41.83032
260.3770, 46.45337
260.8592, 75.63306
261.3413, 89.58301
261.8234, 65.70312
262.3055, 39.88403
262.7876, 39.03760
263.2697, 61.86597
263.7519, 85.43555
264.2340, 93.73413
264.7161, 88.33105
265.1982, 77.97388
265.6803, 58.51099
266.1624, 45.81006
266.6446, 55.98926
267.1267, 80.71021
267.6088, 95.62964
268.0909, 81.27197
268.5730, 50.63330
269.0551, 32.42114
269.5373, 30.20898
270.0194, 31.78589
270.5015, 26.96338
270.9836, 19.11987
271.4657, 16.65405
271.9478, 22.26514
272.4300, 31.91577
272.9121, 44.86475
273.3942, 61.88062
273.8763, 71.20898
274.3584, 60.22852
274.8405, 37.66235
275.3227, 27.85767
275.8048, 39.02124
276.2869, 53.64111
276.7690, 60.77124
277.2511, 61.43115
277.7332, 59.44043
278.2154, 54.43042
278.6975, 49.57642
279.1796, 51.75562
279.6617, 61.19971
280.1438, 74.92334
280.6259, 97.05908
281.1081, 121.8560
281.5902, 139.6113
282.0723, 147.6421
282.5544, 147.3218
283.0365, 138.9390
283.5186, 119.7976
284.0008, 103.1997
284.4829, 87.41895
284.9650, 76.61963
285.4471, 80.41504
285.9292, 98.60693
286.4113, 112.8381
286.8935, 102.0820
287.3756, 59.40063
287.8577, 33.44531
288.3398, 29.94604
288.8219, 36.67651
289.3040, 56.17407
289.7862, 81.84277
290.2683, 94.66724
290.7504, 77.73462
291.2325, 33.53516
291.7146, 9.998779
292.1967, 19.75708
292.6789, 34.38672
293.1610, 53.41699
293.6431, 71.50415
294.1252, 80.58179
294.6073, 76.30371
295.0894, 62.56323
295.5716, 50.18823
296.0537, 26.84033
296.5358, 24.45776
297.0179, 66.82617
297.5000, 117.7805
297.9821, 141.9714
298.4643, 130.1931
298.9464, 103.8716
299.4285, 96.27832
299.9106, 116.6606
300.3927, 128.0085
300.8748, 121.5586
301.3570, 111.9182
301.8391, 103.7268
302.3212, 98.81689
302.8033, 99.93359
303.2854, 113.0635
303.7675, 137.6448
304.2497, 153.8655
304.7318, 156.4104
305.2139, 156.6318
305.6960, 161.1252
306.1781, 167.1428
306.6602, 168.5571
307.1424, 160.2695
307.6245, 146.4424
308.1066, 137.4438
308.5887, 135.0835
309.0708, 131.8870
309.5529, 119.2935
310.0351, 105.9224
310.5172, 103.2151
310.9993, 117.2500
311.4814, 134.5845
311.9635, 143.1541
312.4456, 143.1533
312.9278, 136.2405
313.4099, 119.2349
313.8920, 98.91284
314.3741, 85.07666
314.8562, 78.86792
315.3383, 72.31055
315.8205, 55.35425
316.3026, 36.33691
316.7847, 36.65186
317.2668, 63.97241
317.7489, 93.88916
318.2310, 96.83398
318.7132, 72.60498
319.1953, 54.39893
319.6774, 49.30200
320.1595, 50.00586
320.6416, 52.21753
321.1237, 54.96362
321.6059, 55.79370
322.0880, 53.32495
322.5701, 47.39551
323.0522, 35.84668
323.5343, 1.820068
324.0164, 18.74780
324.4986, 6.002686
324.9807, 27.68823
325.4628, 61.99585
325.9449, 88.45679
326.4270, 107.1033
326.9091, 114.2839
327.3913, 91.37085
327.8734, 80.93262
328.3555, 94.54175
328.8376, 113.4163
329.3197, 121.2266
329.8018, 115.7622
330.2840, 106.0623
330.7661, 103.7112
331.2482, 111.9453
331.7303, 113.3274
332.2124, 106.7996
332.6945, 96.02710
333.1767, 72.45898
333.6588, 43.47559
334.1409, 27.80249
334.6230, 42.84033
335.1051, 78.83032
335.5872, 93.03564
336.0694, 73.15698
336.5515, 57.98950
337.0336, 66.57178
337.5157, 83.69067
337.9979, 91.17456
338.4800, 81.41846
338.9621, 66.34595
339.4442, 63.14160
339.9263, 72.70508
340.4084, 75.23682
340.8906, 59.35278
341.3727, 39.85669
341.8548, 32.62134
342.3369, 38.40869
342.8190, 43.95386
343.3011, 37.96924
343.7833, 27.15942
344.2654, 29.38330
344.7475, 50.15576
345.2296, 70.38452
345.7117, 65.87695
346.1938, 41.40015
346.6760, 35.68726
347.1581, 71.57788
347.6402, 112.9258
348.1223, 136.1541
348.6044, 141.3640
349.0865, 132.5061
349.5687, 108.7634
350.0508, 76.49951
350.5329, 57.77002
351.0150, 57.73657
351.4971, 62.38843
351.9792, 75.21021
352.4614, 88.18042
352.9435, 86.59058
353.4256, 69.63818
353.9077, 54.22021
354.3898, 68.88843
354.8719, 136.3718
355.3541, 168.2886
355.8362, 144.9402
356.3183, 109.2310
356.8004, 74.51587
357.2825, 47.04810
357.7646, 36.75781
358.2468, 56.36011
358.7289, 98.56348
359.2110, 108.7441
359.6931, 53.34790
360.1752, 11.98389
360.6573, 17.38892
361.1395, 43.97363
361.6216, 61.04126
362.1037, 57.25708
362.5858, 45.61621
363.0679, 44.73584
363.5500, 55.82910
364.0322, 61.77222
364.5143, 53.84277
364.9964, 44.34033
365.4785, 44.62891
365.9606, 54.03101
366.4427, 63.35059
366.9249, 68.57373
367.4070, 70.90063
367.8891, 73.24121
368.3712, 76.23438
368.8533, 76.38184
369.3354, 69.41528
369.8176, 56.97632
370.2997, 47.75610
370.7818, 37.46484
371.2639, 34.92432
371.7460, 56.29395
372.2281, 89.97339
372.7103, 102.5901
373.1924, 76.69336
373.6745, 32.54663
374.1566, 13.48804
374.6387, 37.47266
375.1208, 55.93311
375.6030, 68.11938
376.0851, 73.36743
376.5672, 66.85742
377.0493, 50.66016
377.5314, 36.61963
378.0135, 37.66504
378.4957, 55.08350
378.9778, 61.79102
379.4599, 40.89233
379.9420, 26.64429
380.4241, 32.83569
380.9063, 49.57104
381.3884, 62.72705
381.8705, 65.77319
382.3526, 60.18433
382.8347, 43.46606
383.3168, 10.24731
383.7990, 13.72412
384.2811, 17.66040
384.7632, 13.78076
385.2453, 10.23218
385.7274, 7.441895
386.2095, 0.4987790
386.6917, 20.88428
387.1738, 48.97021
387.6559, 60.17310
388.1380, 50.56250
388.6201, 32.24390
389.1022, 6.341309
389.5844, 21.73242
390.0665, 34.66699
390.5486, 14.16602
391.0307, 6.956787
391.5128, 0.7058110
391.9949, 25.72559
392.4771, 31.06201
392.9592, 1.534668
393.4413, 49.84741
393.9234, 70.73486
394.4055, 45.25342
394.8876, 29.90576
395.3698, 32.13696
395.8519, 41.54248
396.3340, 53.15088
396.8161, 64.67505
397.2982, 72.50439
397.7803, 73.36060
398.2625, 67.40259
398.7446, 58.95508
399.2267, 35.47534
399.7088, 24.96753
400.1909, 49.30859
400.6730, 82.97925
401.1552, 92.24854
401.6373, 63.81812
402.1194, 22.08887
402.6015, 2.490234
403.0836, 7.191895
403.5657, 13.46924
404.0479, 19.03809
404.5300, 24.46655
405.0121, 33.49731
405.4942, 44.24951
405.9763, 46.61597
406.4584, 28.79272
406.9406, 2.622559
407.4227, 12.62305
407.9048, 16.15234
408.3869, 17.52295
408.8690, 23.97852
409.3511, 30.89941
409.8333, 24.22998
410.3154, 11.03809
410.7975, 34.90576
411.2796, 23.15210
411.7617, 4.841797
412.2438, 21.93579
412.7260, 21.30835
413.2081, 11.01562
413.6902, 0.1584470
414.1723, 13.01782
414.6544, 22.38232
415.1365, 34.47827
415.6187, 37.37476
416.1008, 13.21143
416.5829, 22.06128
417.0650, 36.59814
417.5471, 11.45898
418.0292, 35.19482
418.5114, 59.68335
418.9935, 55.03101
419.4756, 47.72046
419.9577, 39.25586
420.4398, 31.91724
420.9219, 28.98071
421.4041, 29.95215
421.8862, 28.52246
422.3683, 14.01074
422.8504, 5.917969
423.3325, 6.308350
423.8146, 18.14478
424.2968, 42.71167
424.7789, 50.04443
425.2610, 46.27588
425.7431, 49.46411
426.2252, 71.22168
426.7073, 85.38086
427.1895, 70.46948
427.6716, 39.99097
428.1537, 20.98389
428.6358, 21.50171
429.1179, 30.22705
429.6000, 32.44189
430.0822, 25.69946
430.5643, 21.52441
431.0464, 18.43701
431.5285, 18.92603
432.0106, 26.10596
432.4927, 38.06714
432.9749, 50.35986
433.4570, 60.82886
433.9391, 68.37476
434.4212, 68.13477
434.9033, 53.56274
435.3854, 47.68433
435.8676, 64.54297
436.3497, 83.94775
436.8318, 89.45776
437.3139, 81.49316
437.7960, 77.53516
438.2781, 95.58496
438.7603, 126.5918
439.2424, 146.6641
439.7245, 154.9263
440.2066, 151.7322
440.6887, 128.1006
441.1708, 94.60791
441.6530, 79.58740
442.1351, 93.65332
442.6172, 113.6257
443.0993, 133.5906
443.5814, 151.2920
444.0635, 163.3237
444.5457, 168.9829
445.0278, 168.9653
445.5099, 163.0261
445.9920, 148.4673
446.4741, 144.8403
446.9562, 160.7256
447.4384, 174.5767
447.9205, 181.0222
448.4026, 183.1570
448.8847, 183.1436
449.3668, 180.3896
449.8489, 173.9409
450.3311, 165.0762
450.8132, 155.7759
451.2953, 146.7693
451.7774, 128.8018
452.2595, 119.5542
452.7416, 139.2363
453.2238, 180.4460
453.7059, 209.3008
454.1880, 200.6965
454.6701, 173.8416
455.1522, 154.1104
455.6343, 141.6663
456.1165, 136.2659
456.5986, 138.3569
457.0807, 146.9341
457.5628, 162.0369
458.0449, 191.1016
458.5270, 207.6257
459.0092, 193.3630
459.4913, 172.3662
459.9734, 170.8545
460.4555, 188.3464
460.9376, 204.3875
461.4197, 200.3684
461.9019, 178.8325
462.3840, 169.8762
462.8661, 189.0466
463.3482, 199.6379
463.8303, 180.5952
464.3124, 158.8047
464.7946, 165.0957
465.2767, 204.6238
465.7588, 248.6006
466.2409, 269.1458
466.7230, 268.1382
467.2051, 260.8044
467.6873, 246.0703
468.1694, 234.2114
468.6515, 229.9363
469.1336, 230.9551
469.6157, 231.9954
470.0978, 230.3379
470.5800, 231.4536
471.0621, 242.0466
471.5442, 257.3843
472.0263, 266.3586
472.5084, 265.5515
472.9905, 261.7742
473.4727, 264.1982
473.9548, 275.7947
474.4369, 275.9258
474.9190, 255.9780
475.4011, 239.2800
475.8832, 236.6248
476.3654, 240.2437
476.8475, 236.0525
477.3296, 217.4934
477.8117, 196.1553
478.2938, 193.6980
478.7759, 213.4216
479.2581, 229.3108
479.7402, 238.4812
480.2223, 242.5022
480.7044, 241.4622
481.1865, 236.4771
481.6686, 230.3794
482.1508, 218.8992
482.6329, 210.0630
483.1150, 217.6248
483.5971, 237.3833
484.0792, 246.3049
484.5613, 233.1206
485.0435, 211.3254
485.5256, 202.9177
486.0077, 212.0012
486.4898, 225.7493
486.9719, 251.6194
487.4540, 275.4946
487.9362, 287.6323
488.4183, 290.1284
488.9004, 291.1262
489.3825, 295.8960
489.8646, 299.8740
490.3467, 286.9329
490.8289, 244.3093
491.3110, 222.6792
491.7931, 257.0156
492.2752, 294.2793
492.7573, 299.4531
493.2394, 275.1174
493.7216, 249.5090
494.2037, 237.3047
494.6858, 232.1743
495.1679, 225.6194
495.6500, 217.6514
496.1321, 208.5403
496.6143, 196.4053
497.0964, 186.0901
497.5785, 189.1125
498.0606, 211.5063
498.5427, 230.8308
499.0248, 253.1206
499.5070, 265.2776
499.9891, 248.4902
500.4712, 210.9556
500.9533, 181.3638
501.4355, 179.7893
501.9176, 196.5657
502.3997, 198.1670
502.8818, 175.9780
503.3639, 160.2583
503.8460, 160.2158
504.3282, 165.8796
504.8103, 174.1409
505.2924, 183.4712
505.7745, 187.6284
506.2566, 180.6504
506.7387, 167.6001
507.2209, 151.6025
507.7030, 133.6350
508.1851, 131.1135
508.6672, 157.8057
509.1493, 197.3994
509.6314, 213.4429
510.1136, 194.9568
510.5957, 183.1177
511.0778, 182.7629
511.5599, 186.3154
512.0420, 190.0686
512.5241, 193.1829
513.0062, 195.1230
513.4883, 195.6208
513.9705, 195.4675
514.4526, 198.5322
514.9347, 209.3469
515.4168, 211.0977
515.8989, 185.6960
516.3810, 160.6267
516.8632, 156.1379
517.3453, 170.7363
517.8274, 186.3064
518.3095, 190.8931
518.7916, 189.8848
519.2737, 188.3982
519.7559, 187.0276
520.2380, 190.7786
520.7201, 203.3984
521.2022, 216.9817
521.6843, 215.8557
522.1664, 189.5620
522.6486, 173.0437
523.1307, 176.3325
523.6128, 180.0513
524.0949, 167.6423
524.5770, 146.7244
525.0591, 138.6289
525.5413, 155.8826
526.0234, 184.2942
526.5055, 193.6001
526.9876, 179.6155
527.4697, 172.9880
527.9518, 188.1289
528.4340, 201.0312
528.9161, 187.5652
529.3982, 154.6592
529.8803, 132.8362
530.3624, 141.5554
530.8445, 155.8398
531.3267, 156.4836
531.8088, 146.5454
532.2909, 132.1340
532.7730, 114.9368
533.2551, 103.4795
533.7372, 110.7563
534.2194, 145.8181
534.7015, 161.0203
535.1836, 133.2095
535.6657, 112.3972
536.1478, 123.1123
536.6299, 149.0715
537.1121, 165.0134
537.5942, 161.5105
538.0763, 150.6331
538.5584, 144.6069
539.0405, 143.4082
539.5226, 149.3848
540.0048, 167.4248
540.4869, 179.6470
540.9690, 167.0986
541.4511, 138.0498
541.9332, 123.4709
542.4153, 139.8555
542.8975, 150.7676
543.3796, 136.9714
543.8617, 112.6050
544.3438, 93.03394
544.8259, 82.17700
545.3080, 80.01343
545.7902, 88.62378
546.2723, 106.3176
546.7544, 111.3540
547.2365, 95.13916
547.7186, 80.68042
548.2007, 74.34131
548.6829, 71.23535
549.1650, 68.14111
549.6471, 64.41235
550.1292, 58.35156
550.6113, 40.94312
551.0934, 23.87866
551.5756, 34.35767
552.0577, 70.79028
552.5398, 93.17017
553.0219, 76.59521
553.5040, 40.53516
553.9861, 29.63623
554.4683, 64.17920
554.9504, 86.91528
555.4325, 87.06519
555.9146, 84.89429
556.3967, 99.37671
556.8788, 121.6187
557.3610, 126.6233
557.8431, 98.48169
558.3252, 56.49048
558.8073, 35.94727
559.2894, 37.95264
559.7715, 39.97656
560.2537, 33.42847
560.7358, 33.30542
561.2179, 65.31982
561.7000, 118.2153
562.1821, 145.3984
562.6642, 117.9304
563.1464, 86.07178
563.6285, 76.12939
564.1106, 79.56226
564.5927, 84.80103
565.0748, 87.99805
565.5569, 86.08618
566.0391, 75.45142
566.5212, 56.07227
567.0033, 31.68628
567.4854, 8.753662
567.9675, 36.56494
568.4496, 39.38257
568.9318, 29.81055
569.4139, 18.94019
569.8960, 8.635986
570.3781, 1.049561
570.8602, 14.15479
571.3423, 24.80127
571.8245, 17.27295
572.3066, 6.622070
572.7887, 17.54004
573.2708, 4.015137
573.7529, 39.67847
574.2350, 44.98193
574.7172, 9.493652
575.1993, 37.01587
575.6814, 15.17017
576.1635, 10.92749
576.6456, 13.35254
577.1277, 0.5610350
577.6099, 3.996582
578.0920, 12.48389
578.5741, 35.09277
579.0562, 39.74048
579.5383, 28.41699
580.0204, 28.02344
580.5026, 48.50488
580.9847, 64.68164
581.4668, 52.26831
581.9489, 15.05444
582.4310, 11.84155
582.9132, 26.55249
583.3953, 33.45386
583.8774, 28.82422
584.3596, 19.99878
584.8417, 15.96973
585.3238, 17.32690
585.8059, 17.75391
586.2880, 12.29346
586.7701, 1.143311
587.2523, 17.62817
587.7344, 50.00757
588.2165, 69.39795
588.6986, 62.57520
589.1807, 43.67651
589.6628, 21.28516
590.1450, 3.775879
590.6271, 12.15845
591.1092, 20.21924
591.5913, 55.70825
592.0734, 60.87329
592.5555, 45.46533
593.0377, 35.86597
593.5198, 41.61279
594.0019, 51.80005
594.4840, 49.47729
594.9661, 31.49121
595.4482, 26.38525
595.9304, 44.25757
596.4125, 61.45459
596.8946, 71.27344
597.3767, 75.54492
597.8588, 73.98999
598.3409, 65.39673
598.8231, 63.10498
599.3052, 84.21069
599.7873, 112.6423
600.2694, 122.9746
600.7515, 114.9539
601.2336, 101.3940
601.7158, 87.80151
602.1979, 77.62183
602.6800, 80.52441
603.1621, 109.0247
603.6442, 124.6016
604.1263, 111.8726
604.6085, 102.6177
605.0906, 116.7249
605.5727, 144.6299
606.0548, 167.8254
606.5369, 180.1555
607.0190, 181.4080
607.5012, 162.3391
607.9833, 131.6938
608.4654, 119.4861
608.9475, 130.7900
609.4296, 149.4165
609.9117, 166.5645
610.3939, 180.0293
610.8760, 178.1233
611.3581, 137.6211
611.8402, 113.1707
612.3223, 120.3591
612.8044, 134.0896
613.2866, 133.9050
613.7687, 123.0923
614.2508, 119.3625
614.7329, 135.3875
615.2150, 158.9070
615.6971, 169.7612
616.1793, 169.3796
616.6614, 172.1816
617.1435, 182.5457
617.6256, 192.3003
618.1077, 193.3467
618.5898, 186.0027
619.0720, 180.3196
619.5541, 177.9690
620.0362, 174.9739
620.5183, 168.4641
621.0004, 162.1260
621.4825, 159.5334
621.9647, 161.0261
622.4468, 165.5828
622.9289, 175.8928
623.4110, 185.5266
623.8931, 175.2441
624.3752, 144.2178
624.8574, 119.2119
625.3395, 105.7454
625.8216, 103.1096
626.3037, 117.9861
626.7858, 152.4626
627.2679, 171.6484
627.7501, 165.6406
628.2322, 155.0200
628.7143, 143.4778
629.1964, 132.8057
629.6785, 125.6006
630.1606, 121.5181
630.6428, 115.8921
631.1249, 101.8313
631.6070, 84.93311
632.0891, 93.94067
632.5712, 133.0693
633.0533, 152.8926
633.5355, 128.8818
634.0176, 95.38184
634.4997, 102.3005
634.9818, 153.2527
635.4639, 187.0420
635.9460, 190.0088
636.4282, 185.7314
636.9103, 181.8054
637.3924, 178.9746
637.8745, 174.3044
638.3566, 168.4878
638.8387, 165.5815
639.3209, 171.7166
639.8030, 184.1265
640.2851, 189.0029
640.7672, 185.2041
641.2493, 181.3567
641.7314, 183.4277
642.2136, 184.8569
642.6957, 171.4668
643.1778, 140.0469
643.6599, 126.0425
644.1420, 146.4319
644.6241, 168.0679
645.1063, 174.8740
645.5884, 174.6436
646.0705, 182.8267
646.5526, 202.2507
647.0347, 217.0251
647.5168, 207.1567
647.9990, 178.5984
648.4811, 156.7642
648.9632, 142.1204
649.4453, 140.5618
649.9274, 161.1604
650.4095, 186.9895
650.8917, 189.3979
651.3738, 162.1572
651.8559, 152.6646
652.3380, 183.3191
652.8201, 211.0781
653.3022, 207.8887
653.7844, 193.0852
654.2665, 198.3870
654.7486, 230.3711
655.2307, 262.4814
655.7128, 265.9397
656.1949, 248.7197
656.6771, 239.0132
657.1592, 237.2651
657.6413, 235.5249
658.1234, 230.9312
658.6055, 225.2749
659.0876, 221.3774
659.5698, 220.3870
660.0519, 217.3542
660.5340, 209.3289
661.0161, 202.6938
661.4982, 203.5586
661.9803, 205.3298
662.4625, 198.4512
662.9446, 181.7666
663.4267, 164.6523
663.9088, 156.9412
664.3909, 153.8408
664.8730, 140.8391
665.3552, 118.4714
665.8373, 105.2170
666.3194, 110.2136
666.8015, 119.0334
667.2836, 110.8530
667.7657, 81.41235
668.2479, 68.38892
668.7300, 90.67358
669.2121, 104.8037
669.6942, 93.61450
670.1763, 73.15723
670.6584, 60.12061
671.1406, 56.60156
671.6227, 54.58057
672.1048, 45.41357
672.5869, 37.52246
673.0690, 49.29663
673.5511, 75.43140
674.0333, 89.39648
674.5154, 82.80859
674.9975, 67.09082
675.4796, 54.07227
675.9617, 43.75854
676.4438, 36.55811
676.9260, 36.37988
677.4081, 33.51904
677.8902, 20.47290
678.3723, 8.734375
678.8544, 7.325439
679.3365, 16.26172
679.8187, 31.25732
680.3008, 61.57959
680.7829, 86.30469
681.2650, 78.32007
681.7471, 51.92896
682.2292, 38.28125
682.7114, 44.13330
683.1935, 59.44849
683.6756, 77.68604
684.1577, 95.60815
684.6398, 92.47388
685.1219, 55.93188
685.6041, 31.45142
686.0862, 32.95386
686.5683, 42.90601
687.0504, 51.92920
687.5325, 59.04907
688.0146, 61.00708
688.4968, 52.56323
688.9789, 47.73975
689.4610, 50.28979
689.9431, 54.21143
690.4252, 58.14282
690.9073, 61.66431
691.3895, 66.69141
691.8716, 74.99170
692.3537, 83.64209
692.8358, 88.09058
693.3179, 88.46558
693.8000, 72.40088
694.2822, 26.69360
694.7643, 6.947754
695.2464, 10.63696
695.7285, 61.91016
696.2106, 83.45532
696.6927, 59.04272
697.1749, 36.73950
697.6570, 21.77734
698.1391, 13.23950
698.6212, 15.34204
699.1033, 22.54150
699.5854, 22.94800
700.0676, 11.30615
700.5497, 2.460693
701.0318, 13.48047
701.5139, 18.58984
701.9960, 4.926514
702.4781, 59.39136
702.9603, 97.57373
703.4424, 93.01196
703.9245, 62.62622
704.4066, 38.03223
704.8887, 20.20898
705.3708, 5.210205
705.8530, 7.067383
706.3351, 16.65967
706.8172, 25.21558
707.2993, 30.24585
707.7814, 26.90039
708.2635, 14.45532
708.7457, 2.889648
709.2278, 1.703369
709.7099, 2.897705
710.1920, 2.429199
710.6741, 2.326904
711.1563, 8.146240
711.6384, 20.80762
712.1205, 34.39526
712.6026, 41.43164
713.0847, 42.63281
713.5668, 49.46118
714.0490, 68.64062
714.5311, 72.88379
715.0132, 39.57861
715.4953, 3.723389
715.9774, 3.101807
716.4595, 32.92114
716.9417, 56.12378
717.4238, 66.77197
717.9059, 70.61206
718.3880, 68.24731
718.8701, 61.30615
719.3522, 49.61938
719.8344, 34.68506
720.3165, 20.40747
720.7986, 8.573975
721.2807, 0.5358890
721.7628, 2.492432
722.2449, 9.6190996E-02
722.7271, 14.71411
723.2092, 45.38745
723.6913, 69.74902
724.1734, 71.22583
724.6555, 56.13135
725.1376, 44.85620
725.6198, 34.67505
726.1019, 33.74072
726.5840, 57.91870
727.0661, 73.95898
727.5482, 53.72583
728.0303, 19.27393
728.5125, 11.36792
728.9946, 43.16992
729.4767, 71.93994
729.9588, 63.78979
730.4409, 43.43335
730.9230, 41.80054
731.4052, 54.79956
731.8873, 63.06055
732.3694, 59.28906
732.8515, 52.91431
733.3336, 57.17529
733.8157, 71.09497
734.2979, 78.07910
734.7800, 77.70288
735.2621, 70.84570
735.7442, 51.36792
736.2263, 32.38647
736.7084, 33.06006
737.1906, 52.59937
737.6727, 60.20264
738.1548, 44.54224
738.6369, 28.89355
739.1190, 18.98267
739.6011, 13.21948
740.0833, 9.148926
740.5654, 7.863525
741.0475, 12.22363
741.5296, 24.35303
742.0117, 41.69434
742.4938, 67.40698
742.9760, 96.30005
743.4581, 107.1250
743.9402, 98.48779
744.4223, 79.89551
744.9044, 56.01978
745.3865, 29.48877
745.8687, 2.966064
746.3508, 36.03149
746.8329, 30.87817
747.3150, 59.30688
747.7971, 138.0149
748.2792, 157.8489
748.7614, 141.4192
749.2435, 111.4111
749.7256, 64.51978
750.2077, 37.22339
750.6898, 55.03931
751.1719, 80.80518
751.6541, 94.59741
752.1362, 98.12842
752.6183, 92.81152
753.1004, 81.94312
753.5825, 73.67017
754.0646, 76.61768
754.5468, 86.72852
755.0289, 99.02197
755.5110, 111.9792
755.9931, 108.3286
756.4752, 82.76538
756.9573, 50.53809
757.4395, 22.42651
757.9216, 0.5844730
758.4037, 0.4926760
758.8858, 37.51318
759.3679, 60.48364
759.8500, 47.19946
760.3322, 35.62939
760.8143, 54.69800
761.2964, 88.34937
761.7785, 99.03833
762.2606, 69.69556
762.7427, 47.84204
763.2249, 63.76587
763.7070, 87.04443
764.1891, 89.80273
764.6712, 77.62524
765.1533, 68.04761
765.6354, 67.90845
766.1176, 71.88501
766.5997, 77.76196
767.0818, 81.66089
767.5639, 62.24097
768.0460, 20.22095
768.5281, 5.552490
769.0103, 39.50195
769.4924, 85.42188
769.9745, 102.0337
770.4566, 90.61523
770.9387, 83.71289
771.4208, 85.18311
771.9030, 83.77759
772.3851, 70.31934
772.8672, 61.40991
773.3493, 74.90161
773.8314, 101.2070
774.3135, 110.9897
774.7957, 87.60254
775.2778, 67.82373
775.7599, 72.90674
776.2420, 85.55762
776.7241, 87.73438
777.2062, 83.00146
777.6884, 86.46851
778.1705, 104.1958
778.6526, 122.3987
779.1347, 120.1267
779.6168, 105.0837
780.0989, 109.1021
780.5811, 132.0713
781.0632, 145.1367
781.5453, 137.2668
782.0274, 119.2876
782.5095, 102.2668
782.9916, 86.43677
783.4738, 82.06787
783.9559, 97.66504
784.4380, 108.5352
784.9201, 107.7898
785.4022, 102.9932
785.8843, 98.09668
786.3665, 93.17139
786.8486, 87.71606
787.3307, 74.79980
787.8128, 73.03906
788.2949, 104.3870
788.7770, 136.0823
789.2592, 135.2805
789.7413, 113.1216
790.2234, 101.7493
790.7055, 113.0681
791.1876, 122.5718
791.6697, 97.46606
792.1519, 57.03613
792.6340, 43.70483
793.1161, 54.80396
793.5982, 70.45996
794.0803, 84.45825
794.5624, 90.13062
795.0446, 77.32495
795.5267, 50.08765
796.0088, 45.38477
796.4909, 75.65698
796.9730, 84.09277
797.4551, 44.23315
797.9373, 3.707031
798.4194, 6.528076
798.9015, 38.97729
799.3836, 45.76538
799.8657, 2.023193
800.3478, 20.56104
800.8300, 3.337891
801.3121, 34.30566
801.7942, 53.72046
802.2763, 62.74536
802.7584, 64.55225
803.2405, 59.92920
803.7227, 53.54199
804.2048, 42.79468
804.6869, 35.88428
805.1690, 47.39648
805.6511, 66.17505
806.1332, 67.92310
806.6154, 49.78735
807.0975, 40.20923
807.5796, 66.80640
808.0617, 111.0664
808.5438, 122.2102
809.0259, 100.7954
809.5081, 82.41016
809.9902, 69.58154
810.4723, 64.38574
810.9544, 69.18579
811.4365, 80.83203
811.9186, 92.84790
812.4008, 113.1035
812.8829, 108.9377
813.3650, 48.61182
813.8471, 4.181152
814.3292, 4.103760
814.8113, 28.81299
815.2935, 61.27515
815.7756, 97.51318
816.2577, 114.8037
816.7398, 95.67310
817.2219, 72.23682
817.7040, 52.32422
818.1862, 40.88989
818.6683, 50.17139
819.1504, 73.74976
819.6325, 87.73535
820.1146, 78.81055
820.5967, 62.44067
821.0789, 55.35669
821.5610, 54.49487
822.0431, 53.48071
822.5252, 52.02490
823.0073, 50.77051
823.4894, 49.85840
823.9716, 54.07812
824.4537, 74.49023
824.9358, 107.2903
825.4179, 108.5120
825.9000, 71.65186
826.3821, 36.89990
826.8643, 13.53564
827.3464, 0.3432620
827.8285, 6.972656
828.3106, 6.022461
828.7927, 0.7487790
829.2748, 23.07690
829.7570, 35.54004
830.2391, 26.55518
830.7212, 19.70996
831.2033, 30.02148
831.6854, 48.51929
832.1675, 61.19995
832.6497, 66.03760
833.1318, 65.01465
833.6139, 53.76880
834.0960, 41.80054
834.5781, 36.41699
835.0602, 33.63062
835.5424, 24.58008
836.0245, 10.82886
836.5066, 6.000732
836.9887, 22.05103
837.4708, 44.59961
837.9529, 56.13232
838.4351, 59.95239
838.9172, 65.10425
839.3993, 71.70117
839.8814, 71.02295
840.3635, 58.10449
840.8456, 43.90039
841.3278, 49.80981
841.8099, 74.06104
842.2920, 74.04858
842.7741, 44.37793
843.2562, 30.88623
843.7383, 53.12817
844.2205, 80.48535
844.7026, 81.30273
845.1847, 59.34009
845.6668, 45.03149
846.1489, 41.84106
846.6310, 40.00879
847.1132, 36.66675
847.5953, 36.91650
848.0774, 48.56641
848.5595, 63.67627
849.0416, 67.10693
849.5237, 54.88281
850.0059, 44.01978
850.4880, 34.48511
850.9701, 31.96631
851.4522, 45.08447
851.9343, 63.44263
852.4164, 77.95825
852.8986, 85.41260
853.3807, 79.46411
853.8628, 48.81665
854.3449, 18.60864
854.8270, 12.04053
855.3091, 20.36865
855.7913, 33.05029
856.2734, 47.85718
856.7555, 63.07568
857.2376, 77.47168
857.7197, 85.09131
858.2018, 75.22363
858.6840, 55.04419
859.1661, 38.10864
859.6482, 24.77319
860.1303, 27.09033
860.6124, 50.05054
861.0945, 69.55005
861.5767, 66.39941
862.0588, 46.50854
862.5409, 32.62305
863.0230, 25.08716
863.5051, 22.89429
863.9872, 28.02075
864.4694, 34.27661
864.9515, 41.40210
865.4336, 45.69922
865.9157, 36.60400
866.3978, 8.068115
866.8799, 4.312500
867.3621, 16.02002
867.8442, 30.15991
868.3263, 24.22339
868.8084, 13.88306
869.2905, 11.14429
869.7726, 15.17676
870.2548, 21.17432
870.7369, 33.95142
871.2190, 35.63184
871.7011, 4.208252
872.1832, 26.17285
872.6653, 27.85010
873.1475, 11.27832
873.6296, 5.021240
874.1117, 16.01318
874.5938, 22.80640
875.0759, 25.01343
875.5580, 24.48145
876.0402, 22.16724
876.5223, 18.92139
877.0044, 12.20312
877.4865, 4.859863
877.9686, 11.49829
878.4507, 41.56250
878.9329, 77.70459
879.4150, 98.33496
879.8971, 104.3350
880.3792, 94.42603
880.8613, 70.34717
881.3434, 47.81299
881.8256, 31.98584
882.3077, 25.20972
882.7898, 32.78662
883.2719, 48.91382
883.7540, 41.64429
884.2361, 5.168213
884.7183, 3.431885
885.2004, 32.21216
885.6825, 65.55005
886.1646, 69.87305
886.6467, 56.85938
887.1288, 47.44287
887.6110, 41.50586
888.0931, 37.83130
888.5752, 40.39282
889.0573, 38.70923
889.5394, 24.64209
890.0215, 10.03662
890.5037, 5.097900
890.9858, 9.516357
891.4679, 15.56909
891.9500, 24.38184
892.4321, 26.98608
892.9142, 14.66846
893.3964, 6.035400
893.8785, 12.27490
894.3606, 26.97388
894.8427, 45.92188
895.3248, 67.23218
895.8069, 74.06323
896.2891, 44.95654
896.7712, 18.17700
897.2533, 17.95215
897.7354, 28.62671
898.2175, 36.98291
898.6996, 40.05347
899.1818, 36.05151
899.6639, 23.92139
900.1460, 8.569336
900.6281, 12.99561
901.1102, 30.23071
901.5923, 24.54150
902.0745, 4.805420
902.5566, 6.799561
903.0387, 6.754883
903.5208, 9.656738
904.0029, 27.89307
904.4850, 48.97681
904.9672, 49.10645
905.4493, 35.00610
905.9314, 28.34961
906.4135, 30.50854
906.8956, 37.25952
907.3777, 46.98291
907.8599, 54.81445
908.3420, 54.44263
908.8241, 47.43018
909.3062, 40.50928
909.7883, 33.63428
910.2704, 27.95776
910.7526, 23.23730
911.2347, 23.65796
911.7168, 33.83960
912.1990, 46.23584
912.6811, 41.03784
913.1632, 12.44751
913.6453, 20.27710
914.1274, 87.44946
914.6096, 122.9402
915.0917, 85.47144
915.5738, 32.57715
916.0559, 19.42871
916.5380, 37.51660
917.0201, 36.80518
917.5023, 5.272705
917.9844, 22.74658
918.4665, 6.932129
918.9486, 34.26904
919.4307, 31.71362
919.9128, 20.36938
920.3950, 31.65869
920.8771, 66.49316
921.3592, 77.72168
921.8413, 39.08447
922.3234, 7.521729
922.8055, 5.677490
923.2877, 7.864746
923.7698, 1.779297
924.2519, 16.53613
924.7340, 23.17578
925.2161, 19.21338
925.6982, 21.90112
926.1804, 50.94604
926.6625, 71.69287
927.1446, 52.24243
927.6267, 25.03882
928.1088, 32.01001
928.5909, 65.16016
929.0731, 80.28540
929.5552, 54.71167
930.0373, 28.00708
930.5194, 32.67212
931.0015, 45.92725
931.4836, 46.11523
931.9658, 36.99854
932.4479, 24.42578
932.9300, 12.21680
933.4121, 10.55640
933.8942, 28.67358
934.3763, 53.80981
934.8585, 79.76831
935.3406, 100.0312
935.8227, 102.4424
936.3048, 90.24390
936.7869, 75.08252
937.2690, 61.42383
937.7512, 47.78516
938.2333, 28.29590
938.7154, 12.63428
939.1975, 26.05591
939.6796, 56.29688
940.1617, 67.37378
940.6439, 56.47241
941.1260, 40.34155
941.6081, 27.40088
942.0902, 17.28076
942.5723, 7.748047
943.0544, 1.993408
943.5366, 12.57471
944.0187, 36.08960
944.5008, 42.17358
944.9829, 24.81543
945.4650, 12.70239
945.9471, 27.88379
946.4293, 53.48438
946.9114, 55.25732
947.3935, 34.31396
947.8756, 4.116211
948.3577, 36.40552
948.8398, 53.39355
949.3220, 33.79028
949.8041, 6.982910
950.2862, 0.1855470
950.7683, 6.870117
951.2504, 9.052490
951.7325, 5.225586
952.2147, 5.901611
952.6968, 16.36035
953.1789, 6.190674
953.6610, 46.18018
954.1431, 99.41943
954.6252, 99.46948
955.1074, 53.82861
955.5895, 36.09253
956.0716, 56.58618
956.5537, 67.90820
957.0358, 61.38501
957.5179, 54.99316
958.0001, 59.67676
958.4822, 65.97388
958.9643, 58.28516
959.4464, 36.60449
959.9285, 33.75317
960.4106, 61.78027
960.8928, 80.44385
961.3749, 82.99561
961.8570, 75.99243
962.3391, 58.56201
962.8212, 36.72754
963.3033, 22.00708
963.7855, 12.97876
964.2676, 17.93237
964.7497, 53.32349
965.2318, 77.46460
965.7139, 74.16455
966.1960, 64.53345
966.6782, 64.89917
967.1603, 70.86450
967.6424, 69.32275
968.1245, 56.65796
968.6066, 46.76147
969.0887, 34.43872
969.5709, 32.14111
970.0530, 57.48682
970.5351, 82.73755
971.0172, 75.23364
971.4993, 45.90161
971.9814, 41.63843
972.4636, 84.17603
972.9457, 112.2539
973.4278, 116.1406
973.9099, 107.1755
974.3920, 74.29736
974.8741, 41.93823
975.3563, 41.24438
975.8384, 66.34863
976.3205, 78.46558
976.8026, 59.79541
977.2847, 43.72412
977.7668, 37.20923
978.2490, 34.70361
978.7311, 30.39624
979.2132, 30.14233
979.6953, 47.70410
980.1774, 80.44873
980.6595, 96.29932
981.1417, 75.51343
981.6238, 56.90869
982.1059, 53.69678
982.5880, 52.66089
983.0701, 41.37939
983.5522, 28.90576
984.0344, 31.43604
984.5165, 49.92944
984.9986, 64.97021
985.4807, 77.80518
985.9628, 76.37866
986.4449, 32.54712
986.9271, 4.063721
987.4092, 19.23730
987.8913, 69.44287
988.3734, 82.71655
988.8555, 49.06763
989.3376, 26.42896
989.8198, 50.60400
990.3019, 71.41089
990.7840, 61.64795
991.2661, 44.50684
991.7482, 41.11279
992.2303, 45.11108
992.7125, 38.27881
993.1946, 16.78174
993.6767, 4.912109
994.1588, 22.20923
994.6409, 39.55737
995.1230, 37.19092
995.6052, 32.98022
996.0873, 48.03247
996.5694, 73.51440
997.0515, 88.36279
997.5336, 87.34473
998.0157, 79.09644
998.4979, 56.93237
998.9800, 41.12329
999.4621, 50.29150
999.9442, 64.74951
1000.426, 59.95386
1000.908, 45.26514
1001.391, 50.38452
1001.873, 84.90063
1002.355, 110.1311
1002.837, 100.0276
1003.319, 86.40674
1003.801, 84.09009
1004.283, 90.05884
1004.765, 105.9805
1005.247, 126.2004
1005.730, 138.8240
1006.212, 139.0083
1006.694, 133.4563
1007.176, 129.6963
1007.658, 119.2244
1008.140, 81.14624
1008.622, 44.58838
1009.104, 45.50830
1009.587, 73.49707
1010.069, 96.54517
1010.551, 106.7405
1011.033, 103.5195
1011.515, 67.88281
1011.997, 40.05078
1012.479, 50.11792
1012.961, 73.58740
1013.443, 87.36572
1013.926, 92.05151
1014.408, 97.17871
1014.890, 105.7224
1015.372, 110.6660
1015.854, 110.1279
1016.336, 104.1123
1016.818, 82.80981
1017.300, 63.95386
1017.783, 67.74316
1018.265, 88.30859
1018.747, 110.6616
1019.229, 135.4099
1019.711, 135.4995
1020.193, 68.15015
1020.675, 15.46704
1021.157, 32.22510
1021.639, 68.17212
1022.122, 81.53833
1022.604, 72.75757
1023.086, 50.69434
1023.568, 13.15356
1024.050, 12.29541
1024.532, 18.15381
1025.014, 9.399170
1025.496, 27.33472
1025.979, 64.33228
1026.461, 74.01929
1026.943, 65.73853
1027.425, 67.16406
1027.907, 85.89551
1028.389, 94.07593
1028.871, 65.26440
1029.353, 52.03857
1029.835, 91.31006
1030.318, 134.9688
1030.800, 140.9141
1031.282, 123.3074
1031.764, 118.3921
1032.246, 132.8694
1032.728, 141.8992
1033.210, 133.1340
1033.692, 131.0371
1034.174, 153.5950
1034.657, 173.2317
1035.139, 166.4072
1035.621, 144.4067
1036.103, 131.0024
1036.585, 129.0215
1037.067, 124.5359
1037.549, 105.3052
1038.031, 100.2236
1038.514, 132.5168
1038.996, 160.5957
1039.478, 153.5396
1039.960, 129.4221
1040.442, 119.4856
1040.924, 124.9163
1041.406, 133.5308
1041.888, 153.7185
1042.370, 161.6023
1042.853, 148.1167
1043.335, 130.0859
1043.817, 110.2412
1044.299, 97.16040
1044.781, 108.8613
1045.263, 146.2405
1045.745, 160.9712
1046.227, 144.5852
1046.709, 126.9558
1047.192, 110.7444
1047.674, 93.98364
1048.156, 70.98779
1048.638, 55.30762
1049.120, 69.21313
1049.602, 108.8174
1050.084, 128.8076
1050.566, 124.5488
1051.049, 119.7488
1051.531, 114.6130
1052.013, 117.6973
1052.495, 135.7925
1052.977, 153.7710
1053.459, 152.6274
1053.941, 137.8406
1054.423, 139.0020
1054.906, 158.3247
1055.388, 156.1687
1055.870, 127.2781
1056.352, 106.4688
1056.834, 107.2075
1057.316, 112.7412
1057.798, 105.9622
1058.280, 94.50195
1058.762, 104.0188
1059.245, 131.0574
1059.727, 139.1418
1060.209, 127.4338
1060.691, 107.6147
1061.173, 83.73071
1061.655, 80.62500
1062.137, 122.1270
1062.619, 175.2822
1063.101, 174.9893
1063.584, 137.2566
1064.066, 113.4048
1064.548, 102.9626
1065.030, 95.58545
1065.512, 88.78516
1065.994, 84.75073
1066.476, 85.20239
1066.958, 85.17334
1067.441, 73.62476
1067.923, 60.37158
1068.405, 66.87158
1068.887, 84.71289
1069.369, 92.80713
1069.851, 90.32324
1070.333, 89.78101
1070.815, 96.81909
1071.297, 106.7229
1071.780, 118.0337
1072.262, 127.4746
1072.744, 134.7019
1073.226, 135.5408
1073.708, 117.9741
1074.190, 93.09521
1074.672, 94.26929
1075.154, 131.3335
1075.636, 164.3420
1076.119, 169.4790
1076.601, 166.8171
1077.083, 163.9563
1077.565, 164.3235
1078.047, 164.7588
1078.529, 164.1145
1079.011, 164.5908
1079.494, 167.5808
1079.976, 168.4475
1080.458, 164.4534
1080.940, 159.0886
1081.422, 144.0657
1081.904, 136.1111
1082.386, 156.6797
1082.868, 185.1653
1083.350, 186.2947
1083.833, 163.0408
1084.315, 161.7983
1084.797, 212.9358
1085.279, 237.3574
1085.761, 209.6099
1086.243, 182.3965
1086.725, 167.4573
1087.207, 162.9321
1087.689, 169.0879
1088.172, 184.3718
1088.654, 206.6428
1089.136, 245.8022
1089.618, 245.9016
1090.100, 184.7561
1090.582, 145.3137
1091.064, 155.3274
1091.546, 167.3086
1092.029, 146.7273
1092.511, 114.3718
1092.993, 111.6992
1093.475, 136.7607
1093.957, 146.8748
1094.439, 143.0872
1094.921, 133.1418
1095.403, 117.1365
1095.885, 115.8547
1096.368, 141.0051
1096.850, 169.5305
1097.332, 171.8267
1097.814, 157.9199
1098.296, 159.2646
1098.778, 169.1860
1099.260, 150.6431
1099.742, 107.9004
1100.224, 82.33545
1100.707, 86.53125
1101.189, 105.1609
1101.671, 131.7388
1102.153, 149.7043
1102.635, 124.3977
1103.117, 84.24683
1103.599, 79.85986
1104.081, 96.49023
1104.564, 94.52344
1105.046, 72.80078
1105.528, 62.61963
1106.010, 80.74048
1106.492, 96.19360
1106.974, 81.38745
1107.456, 60.56348
1107.938, 50.32056
1108.421, 48.30908
1108.903, 55.75928
1109.385, 67.56543
1109.867, 71.28711
1110.349, 63.98755
1110.831, 54.08569
1111.313, 35.81641
1111.795, 26.84863
1112.277, 32.62964
1112.760, 49.48267
1113.242, 93.22876
1113.724, 136.4539
1114.206, 130.2966
1114.688, 76.55518
1115.170, 49.35718
1115.652, 66.69141
1116.134, 74.11426
1116.616, 60.93555
1117.099, 57.54492
1117.581, 81.06445
1118.063, 103.6570
1118.545, 101.0623
1119.027, 79.53638
1119.509, 54.42285
1119.991, 24.51611
1120.473, 9.507324
1120.956, 10.03516
1121.438, 21.49463
1121.920, 43.68359
1122.402, 56.03784
1122.884, 46.08740
1123.366, 29.92627
1123.848, 30.97363
1124.330, 42.91455
1124.813, 47.87769
1125.295, 46.89111
1125.777, 24.86987
1126.259, 53.43921
1126.741, 67.85986
1127.223, 68.71851
1127.705, 15.66235
1128.187, 32.02563
1128.669, 20.56128
1129.151, 7.947266
1129.634, 34.05273
1130.116, 11.13794
1130.598, 14.40381
1131.080, 11.64575
1131.562, 21.79712
1132.044, 3.950439
1132.526, 5.260010
1133.008, 13.52271
1133.491, 16.77979
1133.973, 4.243652
1134.455, 6.802734
1134.937, 39.44946
1135.419, 35.55884
1135.901, 10.78174
1136.383, 1.610352
1136.865, 17.35254
1137.348, 28.74072
1137.830, 39.51562
1138.312, 36.06104
1138.794, 4.462646
1139.276, 14.46558
1139.758, 4.724609
1140.240, 27.94385
1140.722, 17.05371
1141.204, 16.32861
1141.687, 29.18579
1142.169, 20.09399
1142.651, 10.46753
1143.133, 0.1721190
1143.615, 3.180420
1144.097, 2.303711
1144.579, 8.567871
1145.061, 10.76099
1145.543, 10.09717
1146.026, 6.900391
1146.508, 3.086670
1146.990, 0.3305660
1147.472, 1.442383
1147.954, 20.91797
1148.436, 50.68286
1148.918, 61.72607
1149.400, 46.63965
1149.883, 23.33374
1150.365, 6.074463
1150.847, 19.45068
1151.329, 16.36230
1151.811, 58.72632
1152.293, 76.81226
1152.775, 75.06006
1153.257, 51.12378
1153.740, 16.29980
1154.222, 6.169922
1154.704, 34.87085
1155.186, 55.76294
1155.668, 54.73364
1156.150, 53.80029
1156.632, 59.25171
1157.114, 64.75757
1157.596, 66.79077
1158.078, 66.91992
1158.561, 66.28760
1159.043, 65.60742
1159.525, 74.07471
1160.007, 95.66284
1160.489, 100.1028
1160.971, 84.36450
1161.453, 60.72632
1161.935, 31.80420
1162.418, 11.75049
1162.900, 12.13794
1163.382, 21.56372
1163.864, 16.71509
1164.346, 7.072266
1164.828, 30.14819
1165.310, 68.92285
1165.792, 67.91187
1166.275, 32.58325
1166.757, 10.39648
1167.239, 17.43286
1167.721, 32.29663
1168.203, 42.17065
1168.685, 52.00391
1169.167, 72.32227
1169.649, 86.97632
1170.131, 74.86450
1170.614, 52.84399
1171.096, 43.72266
1171.578, 46.95166
1172.060, 50.89478
1172.542, 54.81567
1173.024, 51.41772
1173.506, 29.80029
1173.988, 15.73804
1174.470, 11.12573
1174.953, 20.26025
1175.435, 54.84375
1175.917, 90.51978
1176.399, 92.59058
1176.881, 67.41650
1177.363, 51.00171
1177.845, 43.91650
1178.327, 32.79297
1178.810, 17.17310
1179.292, 15.97681
1179.774, 33.96704
1180.256, 55.65747
1180.738, 73.10864
1181.220, 81.95483
1181.702, 69.55713
1182.184, 49.95850
1182.667, 47.26367
1183.149, 53.10547
1183.631, 49.23682
1184.113, 41.56348
1184.595, 52.11597
1185.077, 83.28638
1185.559, 107.1025
1186.041, 111.3772
1186.523, 106.0154
1187.005, 83.88770
1187.488, 66.76074
1187.970, 69.95215
1188.452, 81.47046
1188.934, 89.44653
1189.416, 93.84229
1189.898, 95.71777
1190.380, 95.00049
1190.862, 86.74365
1191.345, 65.05127
1191.827, 56.13281
1192.309, 65.93262
1192.791, 77.36108
1193.273, 88.74390
1193.755, 100.2849
1194.237, 111.7319
1194.719, 113.9854
1195.202, 74.82764
1195.684, 20.74780
1196.166, 47.27100
1196.648, 123.5547
1197.130, 149.7012
1197.612, 122.4661
1198.094, 99.31470
1198.576, 102.8977
1199.058, 101.9080
1199.541, 60.42407
1200.023, 27.70093
1200.505, 43.26196
1200.987, 66.08228
1201.469, 67.60571
1201.951, 59.17480
1202.433, 54.86011
1202.915, 54.07056
1203.397, 49.57959
1203.880, 38.74805
1204.362, 35.90356
1204.844, 46.13110
1205.326, 28.35400
1205.808, 61.08252
1206.290, 80.64624
1206.772, 86.63403
1207.254, 35.50537
1207.737, 56.94141
1208.219, 50.78784
1208.701, 43.16699
1209.183, 73.83472
1209.665, 33.83887
1210.147, 64.59082
1210.629, 67.07910
1211.111, 82.47925
1211.594, 69.86743
1212.076, 57.04565
1212.558, 54.23145
1213.040, 63.13354
1213.522, 75.36230
1214.004, 93.41040
1214.486, 105.3486
1214.968, 91.54321
1215.450, 68.75513
1215.932, 62.51245
1216.415, 70.45923
1216.897, 79.50562
1217.379, 92.21851
1217.861, 88.55225
1218.343, 57.47192
1218.825, 46.24829
1219.307, 67.44971
1219.789, 89.07153
1220.272, 93.26685
1220.754, 97.11353
1221.236, 121.7185
1221.718, 147.9744
1222.200, 123.4500
1222.682, 72.32104
1223.164, 62.05151
1223.646, 81.76416
1224.129, 105.8418
1224.611, 124.0334
1225.093, 111.8069
1225.575, 62.41357
1226.057, 32.96338
1226.539, 73.24414
1227.021, 112.8315
1227.503, 125.3711
1227.985, 124.1782
1228.468, 127.2065
1228.950, 111.6538
1229.432, 1.004883
1229.914, 61.02295
1230.396, 107.6780
1230.878, 140.8892
1231.360, 120.3540
1231.842, 125.7288
1232.324, 109.9944
1232.807, 94.63818
1233.289, 67.37744
1233.771, 24.27295
1234.253, 1.142822
1234.735, 31.06689
1235.217, 72.13281
1235.699, 63.00049
1236.181, 31.38574
1236.664, 5.298584
1237.146, 7.520508
1237.628, 15.64331
1238.110, 55.32031
1238.592, 59.54126
1239.074, 22.27222
1239.556, 10.79541
1240.038, 74.38428
1240.521, 105.9209
1241.003, 58.16431
1241.485, 23.87402
1241.967, 32.79688
1242.449, 50.07446
1242.931, 56.31274
1243.413, 50.69507
1243.895, 26.63281
1244.377, 5.807861
1244.859, 10.70068
1245.342, 63.12305
1245.824, 64.25732
1246.306, 23.46973
1246.788, 10.10645
1247.270, 36.85400
1247.752, 60.67188
1248.234, 61.47607
1248.716, 58.83350
1249.199, 61.60547
1249.681, 73.43799
1250.163, 104.4883
1250.645, 125.7244
1251.127, 119.0435
1251.609, 95.21045
1252.091, 79.08228
1252.573, 66.53760
1253.056, 44.12329
1253.538, 7.000244
1254.020, 5.094238
1254.502, 23.34106
1254.984, 33.58008
1255.466, 15.40747
1255.948, 11.29858
1256.430, 35.27344
1256.912, 63.81958
1257.395, 79.31982
1257.877, 82.12427
1258.359, 63.81104
1258.841, 31.78760
1259.323, 25.59985
1259.805, 28.78491
1260.287, 45.76831
1260.769, 62.45532
1261.251, 53.35278
1261.734, 18.30029
1262.216, 0.1843260
1262.698, 17.41187
1263.180, 0.0000000E+00
##END=



