##NAMES=Manganosite
##RRUFFID=R060757
##IDEAL CHEMISTRY=Mn^2+^O
##LOCALITY=Nordmark, Sweden
##OWNER=RRUFF
##SOURCE=Michael Scott
##DESCRIPTION=Dark green crystals
##STATUS=The identification of this mineral is confirmed by single-crystal X-ray diffraction and chemical analysis.
##URL=rruff.info/R060757
##MEASURED CHEMISTRY=(Mn^2+^_0.99_Mg_0.01_)_Î£=1_O
150.4500, 0.0000000E+00
150.9320, 4.1016001E-02
151.4140, 0.8442380
151.8960, 1.737061
152.3780, 2.025879
152.8600, 3.024902
153.3420, 1.355469
153.8240, 0.8576660
154.3070, 0.6542970
154.7890, 6.601074
155.2710, 12.19287
155.7530, 16.18628
156.2350, 12.81274
156.7170, 19.56177
157.1990, 23.47925
157.6820, 40.97412
158.1640, 55.96118
158.6460, 68.84106
159.1280, 75.35229
159.6100, 65.87695
160.0920, 47.66284
160.5740, 40.16162
161.0560, 59.14917
161.5380, 85.52393
162.0200, 106.7981
162.5030, 118.0535
162.9850, 125.6348
163.4670, 130.1196
163.9490, 132.1714
164.4310, 135.6462
164.9130, 143.7856
165.3950, 153.7385
165.8770, 162.7524
166.3600, 172.1807
166.8420, 178.8826
167.3240, 177.7297
167.8060, 168.8784
168.2880, 165.0518
168.7700, 175.7190
169.2520, 196.4426
169.7340, 220.5605
170.2170, 254.2085
170.6990, 284.6494
171.1810, 296.7356
171.6630, 286.6165
172.1450, 276.0212
172.6270, 285.4041
173.1090, 307.8760
173.5910, 327.3787
174.0730, 332.3279
174.5550, 330.5217
175.0380, 331.9004
175.5200, 338.1704
176.0020, 346.5393
176.4840, 342.7876
176.9660, 368.0635
177.4480, 386.2620
177.9300, 397.7637
178.4130, 382.5835
178.8950, 401.8088
179.3770, 407.2166
179.8590, 412.0393
180.3410, 436.0564
180.8230, 424.6653
181.3050, 448.3560
181.7870, 458.0288
182.2690, 464.4485
182.7510, 462.7979
183.2340, 472.5034
183.7160, 487.3223
184.1980, 495.1382
184.6800, 495.8298
185.1620, 491.5720
185.6440, 485.2170
186.1260, 476.9846
186.6080, 462.8999
187.0910, 433.9834
187.5730, 397.8708
188.0550, 384.3127
188.5370, 398.0227
189.0190, 418.7124
189.5010, 423.7214
189.9830, 415.9236
190.4650, 406.0618
190.9470, 389.8486
191.4300, 362.1565
191.9120, 337.7937
192.3940, 317.1169
192.8760, 300.2158
193.3580, 290.0566
193.8400, 288.4421
194.3220, 284.4893
194.8040, 272.6833
195.2860, 254.2375
195.7690, 234.6973
196.2510, 212.9170
196.7330, 191.8770
197.2150, 177.1543
197.6970, 169.0837
198.1790, 165.2012
198.6610, 165.6372
199.1430, 170.7209
199.6260, 173.6189
200.1080, 174.0227
200.5900, 171.4824
201.0720, 163.6133
201.5540, 149.3186
202.0360, 133.6091
202.5180, 118.8804
203.0000, 104.5447
203.4820, 95.40332
203.9650, 93.26050
204.4470, 96.81592
204.9290, 100.0183
205.4110, 103.4382
205.8930, 104.8145
206.3750, 101.0437
206.8570, 90.57861
207.3390, 81.95557
207.8220, 76.65576
208.3040, 74.65063
208.7860, 77.04956
209.2680, 86.65039
209.7500, 95.94507
210.2320, 96.80176
210.7140, 88.09180
211.1960, 75.02466
211.6780, 56.75269
212.1610, 32.66919
212.6430, 17.20459
213.1250, 12.25000
213.6070, 13.37671
214.0890, 15.07959
214.5710, 17.51953
215.0530, 20.03711
215.5350, 22.66870
216.0180, 25.60376
216.5000, 26.72046
216.9820, 25.62524
217.4640, 22.88965
217.9460, 19.10791
218.4280, 13.28027
218.9100, 8.472900
219.3920, 6.247803
219.8740, 7.854492
220.3570, 7.358154
220.8390, 4.094727
221.3210, 0.7700200
221.8030, 5.002686
222.2850, 8.061768
222.7670, 11.16064
223.2490, 14.94043
223.7310, 20.43945
224.2140, 23.63818
224.6960, 23.41553
225.1780, 21.19189
225.6600, 21.34131
226.1420, 26.34668
226.6240, 29.77271
227.1060, 28.25806
227.5880, 19.79224
228.0700, 10.59546
228.5530, 2.619385
229.0350, 16.14111
229.5170, 15.37354
229.9990, 11.70093
230.4810, 36.58081
230.9630, 42.31909
231.4450, 17.83765
231.9270, 2.157227
232.4100, 14.70752
232.8920, 20.96509
233.3740, 26.48853
233.8560, 31.58252
234.3380, 35.60889
234.8200, 38.85547
235.3020, 44.60596
235.7840, 42.30713
236.2660, 25.90332
236.7490, 1.675049
237.2310, 15.00000
237.7130, 10.65649
238.1950, 3.646729
238.6770, 25.17920
239.1590, 66.00073
239.6410, 89.77393
240.1230, 87.21802
240.6050, 60.24878
241.0880, 39.38574
241.5700, 23.26538
242.0520, 14.47705
242.5340, 16.69775
243.0160, 38.90698
243.4980, 54.33765
243.9800, 54.89795
244.4620, 41.21021
244.9450, 41.80664
245.4270, 66.69580
245.9090, 94.98633
246.3910, 107.6951
246.8730, 95.88257
247.3550, 85.49414
247.8370, 81.38379
248.3190, 83.63232
248.8010, 83.38403
249.2840, 78.36646
249.7660, 73.49438
250.2480, 73.92944
250.7300, 82.71411
251.2120, 90.91699
251.6940, 96.19995
252.1760, 98.44067
252.6580, 104.3635
253.1410, 115.6152
253.6230, 128.9460
254.1050, 141.5166
254.5870, 154.4780
255.0690, 164.1602
255.5510, 168.9846
256.0330, 168.6633
256.5150, 168.9683
256.9970, 168.4551
257.4800, 170.0388
257.9620, 178.2559
258.4440, 198.3425
258.9260, 212.6697
259.4080, 213.8000
259.8900, 200.1543
260.3720, 200.8186
260.8540, 223.6335
261.3360, 251.5593
261.8190, 264.8843
262.3010, 258.4167
262.7830, 249.8223
263.2650, 242.4207
263.7470, 236.1765
264.2290, 233.1597
264.7110, 233.3650
265.1930, 236.8936
265.6760, 246.0125
266.1580, 264.9807
266.6400, 276.3860
267.1220, 272.9192
267.6040, 253.8035
268.0860, 241.4001
268.5680, 237.0063
269.0500, 237.3154
269.5320, 238.0613
270.0150, 238.5842
270.4970, 242.2070
270.9790, 251.4285
271.4610, 266.4116
271.9430, 276.3381
272.4250, 280.9595
272.9070, 281.0618
273.3890, 275.4011
273.8710, 261.7053
274.3540, 253.6250
274.8360, 257.9470
275.3180, 274.0986
275.8000, 280.3345
276.2820, 274.0188
276.7640, 263.4036
277.2460, 258.0261
277.7280, 258.4880
278.2110, 259.7329
278.6930, 252.5476
279.1750, 248.1643
279.6570, 261.3525
280.1390, 270.0547
280.6210, 274.4851
281.1030, 262.3560
281.5850, 270.9656
282.0680, 270.9292
282.5500, 270.5664
283.0320, 282.1099
283.5140, 271.9788
283.9960, 283.0276
284.4780, 285.2896
284.9600, 291.6194
285.4420, 288.2908
285.9240, 289.4731
286.4060, 292.2617
286.8890, 295.2617
287.3710, 294.2505
287.8530, 287.7747
288.3350, 280.1782
288.8170, 278.3662
289.2990, 283.8345
289.7810, 292.2820
290.2630, 302.9570
290.7460, 314.2515
291.2280, 320.8154
291.7100, 322.3442
292.1920, 322.0413
292.6740, 324.4963
293.1560, 328.5269
293.6380, 327.9438
294.1200, 318.1335
294.6030, 303.7014
295.0850, 291.8416
295.5670, 283.5466
296.0490, 283.6421
296.5310, 305.6531
297.0130, 340.6650
297.4950, 360.0427
297.9770, 346.6138
298.4590, 318.4443
298.9420, 303.4153
299.4240, 301.1648
299.9060, 306.5979
300.3880, 321.6116
300.8700, 341.1289
301.3520, 353.2188
301.8340, 351.6836
302.3160, 343.8110
302.7980, 334.7490
303.2810, 325.3877
303.7630, 322.9177
304.2450, 341.9104
304.7270, 369.5553
305.2090, 384.9309
305.6910, 376.5387
306.1730, 360.6843
306.6550, 351.9142
307.1380, 349.3247
307.6200, 347.3394
308.1020, 343.3677
308.5840, 338.0232
309.0660, 331.4583
309.5480, 323.0564
310.0300, 314.5052
310.5120, 306.2236
310.9940, 298.5806
311.4770, 293.1714
311.9590, 294.4866
312.4410, 296.5940
312.9230, 293.7831
313.4050, 282.0146
313.8870, 270.0685
314.3690, 263.2496
314.8510, 259.8560
315.3330, 255.0557
315.8160, 249.7053
316.2980, 240.4705
316.7800, 222.9830
317.2620, 189.0896
317.7440, 162.9901
318.2260, 159.3998
318.7080, 169.8160
319.1900, 176.1971
319.6720, 165.4022
320.1550, 154.8521
320.6370, 155.1978
321.1190, 175.2437
321.6010, 186.6550
322.0830, 175.4468
322.5650, 152.8331
323.0470, 137.1322
323.5300, 138.5785
324.0120, 141.4207
324.4940, 140.9816
324.9760, 137.3230
325.4580, 128.9885
325.9400, 107.3073
326.4220, 83.32800
326.9040, 71.71814
327.3860, 86.34851
327.8680, 100.5885
328.3510, 108.7806
328.8330, 110.2119
329.3150, 108.3112
329.7970, 98.13794
330.2790, 87.46265
330.7610, 84.92346
331.2430, 98.92920
331.7250, 109.3070
332.2080, 111.5016
332.6900, 105.1401
333.1720, 100.3169
333.6540, 98.23767
334.1360, 96.71021
334.6180, 92.58435
335.1000, 81.61328
335.5820, 78.83923
336.0650, 91.60071
336.5470, 116.9623
337.0290, 125.5748
337.5110, 110.9708
337.9930, 91.24536
338.4750, 79.41785
338.9570, 76.73059
339.4390, 77.36084
339.9210, 81.99341
340.4040, 88.79431
340.8860, 91.28137
341.3680, 88.62390
341.8500, 82.58118
342.3320, 71.85669
342.8140, 56.81409
343.2960, 52.05518
343.7780, 62.52905
344.2600, 79.58130
344.7430, 84.23840
345.2250, 75.98877
345.7070, 66.33142
346.1890, 64.51794
346.6710, 68.88440
347.1530, 69.52539
347.6350, 65.13562
348.1170, 60.42151
348.5990, 60.89282
349.0820, 64.91431
349.5640, 67.82056
350.0460, 65.56909
350.5280, 61.39551
351.0100, 62.53186
351.4920, 69.88623
351.9740, 78.15112
352.4570, 82.70459
352.9390, 84.24268
353.4210, 84.23718
353.9030, 80.56079
354.3850, 76.77075
354.8670, 79.29480
355.3490, 88.63684
355.8310, 97.33057
356.3130, 98.50793
356.7960, 93.66943
357.2780, 85.86108
357.7600, 71.01636
358.2420, 59.40454
358.7240, 60.09131
359.2060, 71.23975
359.6880, 81.63489
360.1700, 88.72961
360.6520, 91.43628
361.1350, 88.54272
361.6170, 73.64404
362.0990, 60.59644
362.5810, 54.30969
363.0630, 53.49133
363.5450, 54.46423
364.0270, 62.89697
364.5090, 67.45862
364.9910, 61.15576
365.4740, 30.92395
365.9560, 12.56592
366.4380, 20.28589
366.9200, 42.65698
367.4020, 57.34827
367.8840, 58.68945
368.3660, 56.11841
368.8480, 51.66870
369.3310, 43.67029
369.8130, 38.70593
370.2950, 37.25647
370.7770, 38.98413
371.2590, 43.22974
371.7410, 52.55847
372.2230, 58.58728
372.7050, 59.51416
373.1880, 55.01941
373.6700, 51.03906
374.1520, 46.86230
374.6340, 43.62854
375.1160, 42.15784
375.5980, 42.16907
376.0800, 44.97498
376.5620, 51.62488
377.0440, 61.24438
377.5260, 70.48206
378.0090, 80.54053
378.4910, 85.72729
378.9730, 78.16235
379.4550, 57.74939
379.9370, 45.70837
380.4190, 46.48047
380.9010, 54.02429
381.3840, 56.83997
381.8660, 54.96252
382.3480, 50.73169
382.8300, 44.38538
383.3120, 36.63489
383.7940, 29.74719
384.2760, 23.72083
384.7580, 19.24292
385.2400, 17.08044
385.7230, 17.16309
386.2050, 19.33411
386.6870, 25.33179
387.1690, 32.50732
387.6510, 36.39441
388.1330, 36.76477
388.6150, 38.00134
389.0970, 48.06152
389.5790, 60.08630
390.0620, 64.18542
390.5440, 49.07544
391.0260, 31.87610
391.5080, 24.95386
391.9900, 26.73975
392.4720, 27.89209
392.9540, 23.69702
393.4360, 17.16589
393.9180, 10.53394
394.4010, 3.180664
394.8830, 2.490112
395.3650, 4.483276
395.8470, 4.102661
396.3290, 4.663208
396.8110, 8.192017
397.2930, 11.82800
397.7750, 15.09485
398.2580, 20.10132
398.7400, 19.45593
399.2220, 7.908325
399.7040, 8.009766
400.1860, 19.83093
400.6680, 29.52100
401.1500, 32.32227
401.6320, 23.25598
402.1140, 1.032349
402.5970, 6.891724
403.0790, 8.500977
403.5610, 27.37573
404.0430, 31.88477
404.5250, 18.24756
405.0070, 1.238159
405.4890, 20.84106
405.9710, 43.64343
406.4530, 49.47034
406.9360, 35.20349
407.4180, 16.91492
407.9000, 4.745972
408.3820, 1.354126
408.8640, 8.179443
409.3460, 17.47327
409.8280, 25.22351
410.3100, 22.52759
410.7930, 10.48254
411.2750, 0.3692630
411.7570, 2.738647
412.2390, 10.48120
412.7210, 3.067383
413.2030, 21.64722
413.6850, 43.94507
414.1670, 42.06604
414.6500, 24.53760
415.1320, 9.201294
415.6140, 3.813965
416.0960, 2.086060
416.5780, 3.172119
417.0600, 11.11157
417.5420, 14.98853
418.0240, 7.493896
418.5060, 4.010742
418.9880, 13.17517
419.4710, 18.95178
419.9530, 21.52808
420.4350, 20.19666
420.9170, 15.59802
421.3990, 9.348267
421.8810, 3.959351
422.3630, 14.04443
422.8450, 14.65540
423.3280, 1.190552
423.8100, 7.350342
424.2920, 5.267456
424.7740, 2.148315
425.2560, 8.571899
425.7380, 15.90112
426.2200, 19.36694
426.7020, 17.13281
427.1850, 9.464600
427.6670, 1.969360
428.1490, 7.369629
428.6310, 13.66833
429.1130, 12.11475
429.5950, 0.5631100
430.0770, 7.688477
430.5590, 5.086304
431.0410, 1.581909
431.5240, 3.049438
432.0060, 20.69482
432.4880, 37.76709
432.9700, 48.76758
433.4520, 53.76245
433.9340, 50.83789
434.4160, 38.37659
434.8980, 26.04712
435.3800, 27.82202
435.8630, 40.33752
436.3450, 49.43762
436.8270, 47.35095
437.3090, 40.99756
437.7910, 40.12024
438.2730, 44.61292
438.7550, 52.55859
439.2370, 66.83496
439.7200, 82.03394
440.2020, 90.93713
440.6840, 89.78064
441.1660, 86.76221
441.6480, 85.35181
442.1300, 85.97668
442.6120, 89.59839
443.0940, 100.2540
443.5760, 111.1533
444.0590, 119.2258
444.5410, 124.1573
445.0230, 127.0593
445.5050, 122.7427
445.9870, 118.8394
446.4690, 122.6833
446.9510, 150.9534
447.4330, 168.9408
447.9150, 166.4802
448.3980, 147.1624
448.8800, 138.7947
449.3620, 148.5591
449.8440, 160.4237
450.3260, 165.1173
450.8080, 158.6675
451.2900, 157.5494
451.7720, 163.5175
452.2540, 173.0413
452.7370, 179.9031
453.2190, 183.7935
453.7010, 187.9946
454.1830, 193.5081
454.6650, 200.0103
455.1470, 208.6787
455.6290, 219.9414
456.1120, 228.8540
456.5940, 227.4246
457.0760, 220.0029
457.5580, 220.1614
458.0400, 232.6211
458.5220, 249.7544
459.0040, 263.5234
459.4860, 273.7727
459.9680, 280.8379
460.4510, 285.6179
460.9330, 288.6677
461.4150, 287.0967
461.8970, 279.2834
462.3790, 273.4019
462.8610, 273.6289
463.3430, 277.6077
463.8250, 283.3208
464.3070, 299.2434
464.7900, 311.2966
465.2720, 307.1538
465.7540, 289.3467
466.2360, 286.5322
466.7180, 327.4417
467.2000, 366.5918
467.6820, 377.8059
468.1640, 332.8430
468.6470, 307.3503
469.1290, 311.1602
469.6110, 330.7407
470.0930, 340.2891
470.5750, 332.6528
471.0570, 328.4597
471.5390, 337.4563
472.0210, 360.4443
472.5030, 372.4128
472.9860, 370.0872
473.4680, 365.9878
473.9500, 374.0537
474.4320, 393.4265
474.9140, 408.3564
475.3960, 416.0039
475.8780, 417.5984
476.3600, 412.9917
476.8420, 403.1704
477.3250, 394.2659
477.8070, 391.5439
478.2890, 391.6631
478.7710, 388.6724
479.2530, 381.9658
479.7350, 377.8469
480.2170, 381.5537
480.6990, 389.4260
481.1810, 396.4167
481.6640, 398.3508
482.1460, 401.5583
482.6280, 409.6731
483.1100, 421.3218
483.5920, 431.9907
484.0740, 443.2107
484.5560, 450.7886
485.0390, 451.2458
485.5210, 439.1987
486.0030, 431.6130
486.4850, 432.3171
486.9670, 436.8228
487.4490, 439.1282
487.9310, 435.6343
488.4130, 435.1433
488.8950, 440.4666
489.3780, 450.8860
489.8600, 459.8557
490.3420, 468.6299
490.8240, 472.2395
491.3060, 463.9448
491.7880, 444.1174
492.2700, 431.9607
492.7520, 430.4517
493.2340, 433.4565
493.7170, 431.4585
494.1990, 425.6335
494.6810, 422.1458
495.1630, 429.2236
495.6450, 437.5750
496.1270, 430.0322
496.6090, 407.7905
497.0910, 385.8613
497.5730, 368.8721
498.0560, 360.2510
498.5380, 366.4102
499.0200, 398.6309
499.5020, 425.2214
499.9840, 427.9297
500.4660, 415.0476
500.9480, 402.6221
501.4300, 387.1052
501.9130, 380.1226
502.3950, 392.7922
502.8770, 429.3774
503.3590, 443.4810
503.8410, 413.9268
504.3230, 378.3894
504.8050, 363.8711
505.2870, 381.4600
505.7700, 393.4785
506.2520, 396.6765
506.7340, 393.6433
507.2160, 389.1687
507.6980, 382.4690
508.1800, 378.6345
508.6620, 381.2437
509.1440, 388.9536
509.6260, 394.7302
510.1080, 398.8313
510.5910, 398.5718
511.0730, 388.8220
511.5550, 372.7781
512.0370, 357.8916
512.5190, 344.3770
513.0010, 335.8889
513.4830, 339.6279
513.9660, 351.7263
514.4480, 362.2224
514.9300, 370.2859
515.4120, 371.9023
515.8940, 360.6260
516.3760, 335.4136
516.8580, 315.3345
517.3400, 308.9663
517.8220, 309.0159
518.3050, 309.8777
518.7870, 307.3921
519.2690, 309.9419
519.7510, 320.2708
520.2330, 335.9333
520.7150, 350.9470
521.1970, 367.2742
521.6790, 378.3892
522.1610, 382.4963
522.6440, 379.9211
523.1260, 370.8752
523.6080, 352.2312
524.0900, 335.2656
524.5720, 332.7214
525.0540, 343.4172
525.5360, 354.3105
526.0180, 365.1216
526.5000, 372.1265
526.9830, 364.2053
527.4650, 344.8125
527.9470, 329.9758
528.4290, 329.9937
528.9110, 339.0583
529.3930, 355.6130
529.8750, 377.8691
530.3570, 390.0447
530.8390, 375.3848
531.3220, 350.6692
531.8040, 330.2849
532.2860, 315.0352
532.7680, 308.1636
533.2500, 319.7417
533.7320, 339.2366
534.2140, 345.2588
534.6960, 313.6560
535.1790, 294.3147
535.6610, 305.6138
536.1430, 347.4663
536.6250, 364.7861
537.1070, 346.8633
537.5890, 324.1694
538.0710, 319.0117
538.5530, 333.1140
539.0360, 347.0464
539.5180, 361.2649
540.0000, 370.3867
540.4820, 361.1729
540.9640, 336.5234
541.4460, 314.9553
541.9280, 305.7251
542.4100, 302.9529
542.8920, 297.6812
543.3750, 290.2539
543.8570, 284.0415
544.3390, 282.1545
544.8210, 281.9241
545.3030, 280.3481
545.7850, 275.8469
546.2670, 273.7988
546.7490, 284.1362
547.2310, 295.7034
547.7140, 294.5034
548.1960, 259.1772
548.6780, 231.6895
549.1600, 222.1790
549.6420, 227.8872
550.1240, 235.3831
550.6060, 248.9341
551.0880, 257.7603
551.5700, 257.2124
552.0530, 247.0566
552.5350, 226.8462
553.0170, 192.5310
553.4990, 158.8799
553.9810, 144.3174
554.4630, 147.2898
554.9450, 153.2114
555.4270, 159.9551
555.9090, 166.0601
556.3920, 168.8633
556.8740, 169.1165
557.3560, 169.6572
557.8380, 155.3159
558.3200, 152.6533
558.8020, 131.8123
559.2840, 148.1936
559.7660, 155.5720
560.2490, 154.4336
560.7310, 119.1860
561.2130, 127.4438
561.6950, 117.3228
562.1770, 115.3928
562.6590, 122.2715
563.1410, 130.9844
563.6230, 127.9636
564.1060, 103.9875
564.5880, 84.44141
565.0700, 77.53833
565.5520, 81.53931
566.0340, 80.80396
566.5160, 75.00586
566.9980, 65.75220
567.4800, 48.52319
567.9630, 26.61108
568.4450, 25.37695
568.9270, 50.32935
569.4090, 78.30713
569.8910, 81.86523
570.3730, 67.88403
570.8550, 51.67017
571.3370, 34.35620
571.8190, 21.66211
572.3020, 21.87744
572.7840, 31.09619
573.2660, 36.46167
573.7480, 29.10132
574.2300, 19.34570
574.7120, 11.70483
575.1940, 6.399902
575.6760, 4.438477
576.1580, 11.97070
576.6410, 18.38257
577.1230, 14.86230
577.6050, 6.199219
578.0870, 18.05542
578.5690, 15.53735
579.0510, 6.189697
579.5330, 6.444092
580.0150, 17.18018
580.4970, 25.62061
580.9800, 25.63452
581.4620, 20.60815
581.9440, 19.23145
582.4260, 21.44702
582.9080, 25.82202
583.3900, 35.79932
583.8720, 45.55469
584.3540, 45.38672
584.8360, 32.15845
585.3190, 20.77148
585.8010, 25.88330
586.2830, 35.82031
586.7650, 37.05688
587.2470, 12.74390
587.7290, 5.721191
588.2110, 8.580078
588.6930, 0.1296390
589.1760, 5.517090
589.6580, 12.12842
590.1400, 9.975342
590.6220, 8.063721
591.1040, 41.83325
591.5860, 62.71118
592.0680, 69.38550
592.5500, 67.78931
593.0320, 59.18506
593.5150, 45.11230
593.9970, 36.42749
594.4790, 34.53271
594.9610, 37.95728
595.4430, 46.43872
595.9250, 58.89136
596.4070, 72.97583
596.8900, 92.00806
597.3720, 108.2954
597.8540, 112.2900
598.3360, 108.0613
598.8180, 110.6196
599.3000, 136.4136
599.7820, 160.7231
600.2640, 169.9150
600.7460, 158.3105
601.2290, 156.0027
601.7110, 169.9102
602.1930, 186.8481
602.6750, 195.1582
603.1570, 190.2351
603.6390, 195.8730
604.1210, 216.2332
604.6030, 243.5388
605.0850, 267.1348
605.5680, 286.6477
606.0500, 298.5596
606.5320, 295.9089
607.0140, 289.7693
607.4960, 302.9116
607.9780, 331.2832
608.4600, 354.1394
608.9420, 359.8225
609.4240, 354.3047
609.9070, 338.1511
610.3890, 310.0815
610.8710, 290.2600
611.3530, 288.4722
611.8350, 296.6948
612.3170, 308.7549
612.7990, 329.6326
613.2810, 346.8252
613.7630, 361.9175
614.2460, 372.3418
614.7280, 370.5527
615.2100, 350.7698
615.6920, 342.4954
616.1740, 358.8337
616.6560, 389.4028
617.1380, 398.3242
617.6200, 386.2766
618.1030, 372.8264
618.5850, 370.8877
619.0670, 375.6294
619.5490, 379.7642
620.0310, 382.8613
620.5130, 385.0193
620.9950, 387.7957
621.4770, 388.7974
621.9590, 384.6814
622.4420, 368.6055
622.9240, 359.0554
623.4060, 368.0178
623.8880, 384.2183
624.3700, 389.7747
624.8520, 375.7368
625.3340, 364.6516
625.8160, 361.7922
626.2990, 364.4824
626.7810, 361.1748
627.2630, 350.6870
627.7450, 340.4407
628.2270, 333.9460
628.7090, 330.7961
629.1910, 329.1265
629.6730, 328.9426
630.1560, 330.5532
630.6380, 337.0374
631.1200, 344.3953
631.6020, 345.7832
632.0840, 337.8286
632.5660, 332.0181
633.0480, 336.6030
633.5300, 346.5571
634.0120, 355.3958
634.4950, 367.0269
634.9770, 371.0491
635.4590, 357.9636
635.9410, 336.3313
636.4230, 330.6836
636.9050, 350.5117
637.3870, 366.0068
637.8690, 364.4163
638.3510, 347.4949
638.8340, 342.2759
639.3160, 350.2390
639.7980, 359.4949
640.2800, 360.0786
640.7620, 355.4470
641.2440, 354.1182
641.7260, 357.0886
642.2080, 360.4629
642.6900, 366.0991
643.1730, 368.7961
643.6550, 360.6663
644.1370, 326.4941
644.6190, 302.5115
645.1010, 308.7332
645.5830, 332.1489
646.0650, 348.5898
646.5470, 353.2913
647.0290, 354.4976
647.5120, 352.1282
647.9940, 347.8982
648.4760, 349.5408
648.9580, 358.9531
649.4400, 368.8381
649.9220, 371.4924
650.4040, 369.0830
650.8860, 381.1045
651.3690, 407.8628
651.8510, 423.2117
652.3330, 391.4482
652.8150, 341.7036
653.2970, 315.4214
653.7790, 324.8906
654.2610, 335.2764
654.7430, 321.4724
655.2260, 296.6819
655.7080, 277.7566
656.1900, 267.1711
656.6720, 267.0874
657.1540, 281.7502
657.6360, 302.7024
658.1180, 313.2993
658.6000, 310.6882
659.0830, 308.5859
659.5650, 313.4080
660.0470, 320.9685
660.5290, 315.6543
661.0110, 297.3406
661.4930, 271.7935
661.9750, 232.9690
662.4570, 193.8284
662.9390, 175.2559
663.4220, 177.5874
663.9040, 183.8521
664.3860, 189.0144
664.8680, 190.7603
665.3500, 185.0305
665.8320, 163.4644
666.3140, 151.7939
666.7960, 166.3960
667.2780, 186.5166
667.7610, 189.9890
668.2430, 167.2727
668.7250, 149.9729
669.2070, 141.9963
669.6890, 141.2893
670.1710, 144.1765
670.6530, 150.3372
671.1350, 157.7585
671.6170, 169.3000
672.1000, 178.7803
672.5820, 174.1089
673.0640, 158.0264
673.5460, 141.0867
674.0280, 128.4502
674.5100, 117.4922
674.9920, 104.4045
675.4740, 88.81689
675.9560, 82.28564
676.4390, 101.4561
676.9210, 119.7415
677.4030, 120.8513
677.8850, 96.45459
678.3670, 80.47339
678.8490, 74.27148
679.3310, 73.65942
679.8130, 74.37524
680.2960, 76.38135
680.7780, 81.70532
681.2600, 92.29443
681.7420, 101.6001
682.2240, 100.1682
682.7060, 90.80640
683.1880, 79.73389
683.6700, 64.90967
684.1530, 53.82886
684.6350, 52.75488
685.1170, 59.15503
685.5990, 65.82983
686.0810, 75.83447
686.5630, 80.70068
687.0450, 76.44678
687.5270, 63.84741
688.0100, 52.94507
688.4920, 42.06567
688.9740, 37.23584
689.4560, 47.51050
689.9380, 70.12158
690.4200, 73.50684
690.9020, 56.46460
691.3840, 35.92676
691.8660, 24.47363
692.3490, 20.42896
692.8310, 24.27319
693.3130, 39.48120
693.7950, 47.18579
694.2770, 25.96851
694.7590, 3.525146
695.2410, 19.60181
695.7230, 3.186768
696.2050, 8.488037
696.6880, 10.20483
697.1700, 7.499512
697.6520, 10.02197
698.1340, 19.35474
698.6160, 28.15405
699.0980, 36.02734
699.5800, 41.07544
700.0620, 36.49561
700.5440, 23.61060
701.0270, 11.32739
701.5090, 4.635498
701.9910, 0.7211910
702.4730, 4.338623
702.9550, 9.937012
703.4370, 11.85181
703.9190, 4.072021
704.4010, 4.340088
704.8830, 9.808838
705.3660, 12.52954
705.8480, 6.647217
706.3300, 15.77881
706.8120, 36.45850
707.2940, 42.48193
707.7760, 32.43726
708.2580, 23.39966
708.7400, 16.70947
709.2220, 6.861084
709.7050, 24.00879
710.1870, 62.67285
710.6690, 68.12476
711.1510, 21.16089
711.6330, 25.52026
712.1150, 22.90771
712.5970, 3.734863
713.0800, 19.03394
713.5620, 4.622559
714.0440, 20.46729
714.5260, 11.59277
715.0080, 9.963135
715.4900, 20.69629
715.9720, 17.17407
716.4540, 11.15259
716.9360, 4.394287
717.4190, 2.292480
717.9010, 5.789795
718.3830, 6.247314
718.8650, 7.592773
719.3470, 18.08105
719.8290, 27.35083
720.3110, 14.89722
720.7930, 15.50122
721.2760, 37.99194
721.7580, 28.60620
722.2400, 15.81201
722.7220, 20.51147
723.2040, 48.78345
723.6860, 59.94043
724.1680, 38.87720
724.6500, 16.30347
725.1320, 12.91064
725.6150, 33.10669
726.0970, 39.96411
726.5790, 30.65454
727.0610, 19.09937
727.5430, 20.04224
728.0250, 30.22754
728.5070, 42.77808
728.9890, 58.67993
729.4710, 67.97278
729.9540, 53.51904
730.4360, 31.27161
730.9180, 20.93823
731.4000, 36.39771
731.8820, 53.13110
732.3640, 74.21570
732.8460, 91.42639
733.3280, 89.68726
733.8100, 59.37769
734.2930, 38.06409
734.7750, 34.58386
735.2570, 41.98926
735.7390, 44.38806
736.2210, 42.73340
736.7030, 44.70447
737.1850, 58.73938
737.6670, 73.81323
738.1490, 76.11682
738.6320, 68.36389
739.1140, 59.49597
739.5960, 46.98450
740.0780, 40.36694
740.5600, 46.76587
741.0420, 66.01514
741.5240, 81.50635
742.0060, 94.56165
742.4890, 101.0579
742.9710, 94.48376
743.4530, 76.51636
743.9350, 78.99133
744.4170, 103.2749
744.8990, 127.5682
745.3810, 132.1418
745.8630, 125.8584
746.3460, 120.8711
746.8280, 118.0035
747.3100, 122.9789
747.7920, 150.0956
748.2740, 179.2748
748.7560, 193.1936
749.2380, 178.8783
749.7200, 170.0432
750.2030, 158.5800
750.6850, 177.8927
751.1670, 189.7231
751.6490, 194.4736
752.1310, 170.9651
752.6130, 183.4995
753.0950, 180.4565
753.5770, 177.7507
754.0590, 195.7726
754.5420, 176.2922
755.0240, 191.9448
755.5060, 220.4017
755.9880, 229.0515
756.4700, 227.6626
756.9520, 230.3162
757.4340, 252.6946
757.9160, 262.6975
758.3980, 247.9463
758.8810, 222.9478
759.3630, 218.4777
759.8450, 239.0331
760.3270, 256.5920
760.8090, 263.6628
761.2910, 264.2810
761.7730, 264.1592
762.2550, 264.2817
762.7370, 268.3325
763.2200, 286.9459
763.7020, 302.4935
764.1840, 292.0430
764.6660, 264.5123
765.1480, 253.7197
765.6300, 292.8363
766.1120, 325.3196
766.5940, 332.5284
767.0760, 317.8740
767.5590, 307.3618
768.0410, 299.5396
768.5230, 296.8529
769.0050, 302.6060
769.4870, 311.8270
769.9690, 317.6741
770.4510, 321.6810
770.9330, 324.7638
771.4160, 327.0404
771.8980, 327.7916
772.3800, 325.6124
772.8620, 320.8625
773.3440, 324.6833
773.8260, 354.3473
774.3080, 379.8024
774.7900, 384.4985
775.2730, 365.1938
775.7550, 354.5090
776.2370, 354.5824
776.7190, 357.1265
777.2010, 353.6786
777.6830, 346.8572
778.1650, 347.9507
778.6470, 358.3621
779.1300, 370.1040
779.6120, 379.6830
780.0940, 385.5938
780.5760, 385.9910
781.0580, 379.0813
781.5400, 373.1311
782.0220, 367.5254
782.5040, 364.6355
782.9860, 367.4812
783.4680, 378.6852
783.9510, 387.0228
784.4330, 391.7860
784.9150, 393.3250
785.3970, 389.7108
785.8790, 383.4454
786.3610, 382.4998
786.8430, 389.7222
787.3250, 398.5618
787.8070, 404.9058
788.2900, 407.7583
788.7720, 406.1155
789.2540, 391.0842
789.7360, 387.5784
790.2180, 409.1494
790.7000, 436.1289
791.1820, 444.3186
791.6640, 429.7571
792.1460, 412.8058
792.6290, 394.4799
793.1110, 380.9688
793.5930, 385.8215
794.0750, 402.8737
794.5570, 415.2112
795.0390, 417.6475
795.5210, 415.0206
796.0030, 400.9551
796.4860, 386.1615
796.9680, 387.3461
797.4500, 438.7864
797.9320, 465.1815
798.4140, 446.0227
798.8960, 407.1298
799.3780, 398.1348
799.8600, 421.7472
800.3430, 438.3521
800.8250, 437.3418
801.3070, 426.2942
801.7890, 412.6459
802.2710, 398.9801
802.7530, 390.7573
803.2350, 393.2771
803.7170, 398.1515
804.2000, 401.0542
804.6820, 403.5739
805.1640, 409.8003
805.6460, 425.7283
806.1280, 436.8979
806.6100, 441.6318
807.0920, 439.0580
807.5740, 419.6958
808.0560, 384.6528
808.5390, 372.7390
809.0210, 413.5127
809.5030, 465.2998
809.9850, 466.9827
810.4670, 434.7649
810.9490, 409.3126
811.4310, 414.4629
811.9130, 422.5718
812.3950, 422.6853
812.8780, 418.9061
813.3600, 413.7394
813.8420, 402.1624
814.3240, 415.7177
814.8060, 424.2993
815.2880, 427.6174
815.7700, 407.7776
816.2520, 417.0354
816.7340, 413.8096
817.2170, 409.5897
817.6990, 421.9215
818.1810, 404.7876
818.6630, 416.0925
819.1450, 406.7319
819.6270, 391.5635
820.1090, 378.5916
820.5910, 369.0447
821.0730, 363.0756
821.5560, 363.5057
822.0380, 372.9438
822.5200, 373.5374
823.0020, 354.0648
823.4840, 327.1204
823.9660, 320.4631
824.4480, 329.7589
824.9300, 339.1372
825.4130, 341.8477
825.8950, 340.5800
826.3770, 337.7871
826.8590, 332.5571
827.3410, 319.6685
827.8230, 286.0750
828.3050, 266.1030
828.7870, 272.8625
829.2690, 296.9387
829.7520, 306.6987
830.2340, 302.3650
830.7160, 294.8784
831.1980, 289.1499
831.6800, 282.8718
832.1620, 271.6995
832.6440, 257.3801
833.1270, 245.1191
833.6090, 234.7971
834.0910, 229.2747
834.5730, 235.2366
835.0550, 246.8059
835.5370, 245.5225
836.0190, 227.9963
836.5010, 208.7544
836.9830, 190.0295
837.4660, 174.2244
837.9480, 170.7034
838.4300, 175.7734
838.9120, 174.5139
839.3940, 150.7905
839.8760, 126.4321
840.3580, 114.2830
840.8400, 113.0667
841.3220, 119.4980
841.8050, 146.5657
842.2870, 162.7146
842.7690, 162.9060
843.2510, 148.3457
843.7330, 118.7415
844.2150, 74.09961
844.6970, 46.66846
845.1790, 54.16016
845.6610, 75.66089
846.1440, 90.34106
846.6260, 97.05347
847.1080, 93.17017
847.5900, 59.79517
848.0720, 35.56909
848.5540, 40.72607
849.0360, 62.29102
849.5180, 75.11890
850.0000, 77.64380
850.4830, 76.73584
850.9650, 73.54053
851.4470, 68.03784
851.9290, 57.05664
852.4110, 43.62329
852.8930, 38.70874
853.3750, 54.30908
853.8570, 66.95166
854.3400, 55.68115
854.8220, 32.28345
855.3040, 15.88354
855.7860, 13.70972
856.2680, 13.20581
856.7500, 13.48071
857.2320, 14.90063
857.7140, 19.56299
858.1960, 27.07202
858.6790, 28.95801
859.1610, 21.49731
859.6430, 13.36572
860.1250, 15.19336
860.6070, 23.10645
861.0890, 31.59644
861.5710, 43.60034
862.0540, 46.93750
862.5360, 33.48218
863.0180, 13.29492
863.5000, 5.431641
863.9820, 24.99951
864.4640, 31.57251
864.9460, 21.60156
865.4280, 6.478760
865.9100, 1.013184
866.3930, 3.148193
866.8750, 3.577637
867.3570, 2.058594
867.8390, 3.581787
868.3210, 20.69922
868.8030, 36.36865
869.2850, 31.87329
869.7670, 7.707275
870.2490, 25.54517
870.7320, 13.51294
871.2140, 3.680908
871.6960, 0.2883300
872.1780, 18.86353
872.6600, 26.42065
873.1420, 22.43579
873.6240, 15.05664
874.1060, 5.255615
874.5880, 2.562744
875.0710, 0.7421880
875.5530, 16.35864
876.0350, 15.04053
876.5170, 21.43896
876.9990, 54.86792
877.4810, 60.22192
877.9630, 38.97168
878.4450, 35.49048
878.9270, 49.94946
879.4100, 60.75098
879.8920, 43.96704
880.3740, 20.39111
880.8560, 16.52026
881.3380, 32.19141
881.8200, 43.69287
882.3020, 35.70874
882.7840, 28.43726
883.2660, 30.21118
883.7490, 40.12622
884.2310, 51.12549
884.7130, 64.05957
885.1950, 71.83496
885.6770, 67.44409
886.1590, 56.83350
886.6410, 49.68115
887.1230, 45.88184
887.6060, 43.73755
888.0880, 42.87524
888.5700, 41.91187
889.0520, 38.51660
889.5340, 34.75464
890.0160, 38.83496
890.4980, 54.84399
890.9800, 62.63867
891.4630, 53.16602
891.9450, 37.38379
892.4270, 39.70386
892.9090, 54.48926
893.3910, 63.60815
893.8730, 51.93726
894.3550, 43.34814
894.8370, 59.64795
895.3200, 84.46802
895.8020, 88.70410
896.2840, 56.54810
896.7660, 37.48047
897.2480, 38.30518
897.7300, 48.90405
898.2120, 59.16284
898.6940, 67.08228
899.1760, 59.24902
899.6590, 28.18701
900.1410, 3.160889
900.6230, 16.35498
901.1050, 42.12427
901.5870, 52.57886
902.0690, 31.28906
902.5510, 20.91455
903.0330, 27.46851
903.5150, 38.34448
903.9980, 42.88208
904.4800, 41.55469
904.9620, 41.24756
905.4440, 41.73657
905.9260, 41.46680
906.4080, 40.99878
906.8900, 39.48779
907.3720, 33.09302
907.8540, 20.73657
908.3370, 17.17236
908.8190, 34.03809
909.3010, 46.68530
909.7830, 42.18408
910.2650, 23.60742
910.7470, 16.17944
911.2290, 20.00000
911.7110, 25.74854
912.1930, 27.39917
912.6760, 27.39966
913.1580, 28.80347
913.6400, 31.62695
914.1220, 34.30908
914.6040, 41.04321
915.0860, 41.34863
915.5680, 29.96094
916.0500, 12.63818
916.5330, 4.956055
917.0150, 6.540771
917.4970, 6.059570
917.9790, 1.482422
918.4610, 7.719971
918.9430, 1.282471
919.4250, 17.21118
919.9070, 25.72412
920.3900, 10.65601
920.8720, 3.600342
921.3540, 13.45264
921.8360, 28.28296
922.3180, 36.53931
922.8000, 38.77759
923.2820, 44.68726
923.7640, 55.98706
924.2470, 61.40552
924.7290, 41.62036
925.2110, 13.55957
925.6930, 0.2077640
926.1750, 5.730713
926.6570, 16.79565
927.1390, 38.64233
927.6210, 52.87744
928.1030, 50.51587
928.5860, 33.45728
929.0680, 7.327148
929.5500, 30.38037
930.0320, 52.79883
930.5140, 25.00391
930.9960, 20.81689
931.4780, 47.59204
931.9600, 54.67969
932.4420, 47.58618
932.9250, 6.619629
933.4070, 25.24292
933.8890, 29.51758
934.3710, 14.15894
934.8530, 13.72876
935.3350, 29.65112
935.8170, 39.72217
936.2990, 36.09302
936.7810, 24.64893
937.2640, 5.786377
937.7460, 13.67285
938.2280, 20.81982
938.7100, 3.739014
939.1920, 17.12305
939.6740, 4.969238
940.1560, 13.55200
940.6380, 16.66870
941.1200, 3.871582
941.6030, 9.085693
942.0850, 21.72510
942.5670, 28.41357
943.0490, 14.95703
943.5310, 3.089600
944.0130, 3.545898
944.4950, 19.31299
944.9770, 35.05273
945.4600, 31.73706
945.9420, 24.25537
946.4240, 17.94434
946.9060, 13.00439
947.3880, 12.55884
947.8700, 16.46729
948.3520, 19.06006
948.8340, 18.65430
949.3170, 13.89624
949.7990, 2.323486
950.2810, 25.19873
950.7630, 37.29053
951.2450, 23.06006
951.7270, 11.52075
952.2090, 10.02539
952.6910, 12.53760
953.1730, 1.259766
953.6560, 21.78662
954.1380, 25.72729
954.6200, 2.711426
955.1020, 35.08228
955.5840, 47.06787
956.0660, 45.81567
956.5480, 39.41431
957.0300, 24.50757
957.5130, 15.13281
957.9950, 13.23462
958.4770, 14.46802
958.9590, 13.44116
959.4410, 10.72046
959.9230, 13.03418
960.4050, 20.39624
960.8870, 29.21582
961.3690, 41.73608
961.8520, 50.37646
962.3340, 43.02832
962.8160, 21.08984
963.2980, 20.49683
963.7800, 56.86279
964.2620, 82.74072
964.7440, 76.12646
965.2260, 53.76050
965.7080, 69.17651
966.1910, 110.7629
966.6730, 132.9014
967.1550, 102.1909
967.6370, 67.01074
968.1190, 53.10010
968.6010, 53.00854
969.0830, 55.33813
969.5650, 60.34570
970.0470, 64.39111
970.5300, 66.61450
971.0120, 69.51733
971.4940, 75.55615
971.9760, 84.40918
972.4580, 98.55688
972.9400, 118.6538
973.4220, 129.8772
973.9040, 120.3318
974.3860, 102.2510
974.8690, 76.83179
975.3510, 45.10962
975.8330, 47.11938
976.3150, 89.86133
976.7970, 122.3938
977.2790, 111.1829
977.7610, 80.52734
978.2440, 69.26978
978.7260, 71.94409
979.2080, 74.21411
979.6900, 63.44678
980.1720, 60.43481
980.6540, 78.53076
981.1360, 100.7756
981.6180, 96.68164
982.1000, 65.29102
982.5830, 54.46753
983.0650, 73.53662
983.5470, 100.4355
984.0290, 119.0483
984.5110, 129.4514
984.9930, 130.3472
985.4750, 119.9529
985.9570, 108.4380
986.4400, 90.93555
986.9220, 81.89600
987.4040, 91.07544
987.8860, 114.9238
988.3680, 134.5413
988.8500, 149.1956
989.3320, 152.6301
989.8140, 122.6028
990.2960, 98.36548
990.7790, 121.9309
991.2610, 171.3345
991.7430, 185.0383
992.2250, 141.0447
992.7070, 111.8425
993.1890, 110.1235
993.6710, 120.5007
994.1530, 117.9541
994.6350, 110.6318
995.1180, 124.5862
995.6000, 170.5859
996.0820, 200.9709
996.5640, 171.8450
997.0460, 134.1194
997.5280, 127.8713
998.0100, 155.5955
998.4920, 164.5867
998.9740, 152.1472
999.4570, 141.1479
999.9390, 146.6277
1000.421, 160.9915
1000.903, 176.3726
1001.385, 191.9585
1001.867, 204.9387
1002.349, 215.6284
1002.831, 220.8682
1003.314, 219.9678
1003.796, 215.1284
1004.278, 207.9541
1004.760, 198.9836
1005.242, 195.4893
1005.724, 199.5164
1006.206, 204.4353
1006.688, 200.1658
1007.170, 196.7905
1007.653, 205.8628
1008.135, 232.6470
1008.617, 250.9150
1009.099, 259.3193
1009.581, 261.5647
1010.063, 258.7642
1010.545, 251.6223
1011.027, 237.5244
1011.510, 219.2722
1011.992, 210.5232
1012.474, 228.1028
1012.956, 245.6150
1013.438, 248.8630
1013.920, 246.3782
1014.402, 254.3604
1014.884, 275.6741
1015.366, 287.3730
1015.849, 285.4182
1016.331, 278.5947
1016.813, 274.6609
1017.295, 272.7434
1017.777, 270.5298
1018.259, 267.0371
1018.741, 271.3950
1019.223, 296.6226
1019.706, 314.5249
1020.188, 308.5466
1020.670, 286.2087
1021.152, 285.0610
1021.634, 302.5605
1022.116, 320.5198
1022.598, 329.7800
1023.080, 337.2444
1023.562, 353.4937
1024.045, 368.9434
1024.527, 365.0908
1025.009, 328.5308
1025.491, 309.1282
1025.973, 312.2849
1026.455, 323.9402
1026.937, 332.8630
1027.419, 338.3503
1027.901, 338.3081
1028.384, 332.6880
1028.866, 325.5654
1029.348, 311.6106
1029.830, 304.5833
1030.312, 310.6145
1030.794, 327.4248
1031.276, 351.5906
1031.758, 382.3960
1032.240, 392.4075
1032.723, 360.6392
1033.205, 327.6709
1033.687, 338.6465
1034.169, 369.8430
1034.651, 389.3486
1035.133, 385.9143
1035.615, 383.2063
1036.097, 382.1294
1036.580, 379.3193
1037.062, 366.3254
1037.544, 350.4390
1038.026, 355.0950
1038.508, 378.3345
1038.990, 400.6106
1039.472, 418.2712
1039.954, 425.1802
1040.437, 412.2439
1040.919, 389.9460
1041.401, 382.0764
1041.883, 389.2871
1042.365, 398.2073
1042.847, 406.8677
1043.329, 413.1531
1043.811, 413.0569
1044.293, 410.4385
1044.776, 410.5081
1045.258, 416.0669
1045.740, 414.0178
1046.222, 398.4426
1046.704, 387.3682
1047.186, 393.8967
1047.668, 411.5005
1048.150, 422.0312
1048.632, 426.1624
1049.115, 426.4653
1049.597, 418.1643
1050.079, 413.2637
1050.561, 417.9106
1051.043, 427.8384
1051.525, 438.8069
1052.007, 451.1665
1052.489, 460.6047
1052.972, 466.8904
1053.454, 468.2637
1053.936, 456.8811
1054.418, 443.8577
1054.900, 441.5078
1055.382, 450.5469
1055.864, 460.2017
1056.346, 474.2505
1056.828, 476.9275
1057.311, 457.3103
1057.793, 430.9519
1058.275, 435.5103
1058.757, 460.5796
1059.239, 477.9944
1059.721, 476.6235
1060.203, 472.7085
1060.685, 466.8792
1061.167, 466.1335
1061.650, 477.8413
1062.132, 503.0828
1062.614, 523.9456
1063.096, 540.5164
1063.578, 543.2532
1064.060, 509.1602
1064.542, 473.1128
1065.024, 465.9971
1065.507, 481.7451
1065.989, 500.2939
1066.471, 524.2908
1066.953, 539.1211
1067.435, 541.6675
1067.917, 537.4629
1068.399, 530.5295
1068.881, 522.9922
1069.364, 519.3357
1069.846, 520.4485
1070.328, 520.8535
1070.810, 515.2058
1071.292, 511.8298
1071.774, 513.3181
1072.256, 519.6611
1072.738, 534.8633
1073.220, 557.1641
1073.703, 571.1091
1074.185, 565.6890
1074.667, 557.7974
1075.149, 561.5735
1075.631, 570.7390
1076.113, 576.7800
1076.595, 579.1787
1077.077, 573.4324
1077.559, 557.2417
1078.042, 548.9766
1078.524, 577.3250
1079.006, 613.1294
1079.488, 601.2112
1079.970, 554.2271
1080.452, 530.9480
1080.934, 587.2712
1081.416, 619.9641
1081.898, 604.5107
1082.381, 571.6682
1082.863, 573.8435
1083.345, 601.7695
1083.827, 621.5823
1084.309, 627.8276
1084.791, 628.5454
1085.273, 612.7278
1085.755, 609.3103
1086.238, 642.9592
1086.720, 702.0811
1087.202, 718.6333
1087.684, 692.8762
1088.166, 672.5896
1088.648, 677.4485
1089.130, 691.5918
1089.612, 704.7751
1090.094, 716.7280
1090.577, 725.4573
1091.059, 732.0825
1091.541, 722.9692
1092.023, 693.8042
1092.505, 665.8423
1092.987, 658.1663
1093.469, 660.5416
1093.951, 650.8657
1094.433, 634.0820
1094.916, 627.6044
1095.398, 653.4785
1095.880, 669.1921
1096.362, 663.6980
1096.844, 649.5732
1097.326, 645.0850
1097.808, 647.2864
1098.290, 637.0427
1098.773, 612.5820
1099.255, 601.7871
1099.737, 641.8320
1100.219, 678.8341
1100.701, 679.0762
1101.183, 652.7766
1101.665, 631.6069
1102.147, 615.3687
1102.630, 609.7170
1103.112, 620.6257
1103.594, 626.5596
1104.076, 597.2836
1104.558, 557.2952
1105.040, 535.5208
1105.522, 540.1731
1106.004, 530.6255
1106.486, 501.8463
1106.969, 477.2850
1107.451, 473.0508
1107.933, 476.5834
1108.415, 468.5737
1108.897, 451.2560
1109.379, 429.7148
1109.861, 392.5022
1110.343, 370.0907
1110.825, 359.5472
1111.308, 333.9620
1111.790, 345.2968
1112.272, 347.6436
1112.754, 341.4766
1113.236, 301.4518
1113.718, 305.0868
1114.200, 291.2017
1114.682, 276.5283
1115.165, 276.4062
1115.647, 257.2737
1116.129, 238.2056
1116.611, 219.3888
1117.093, 204.4052
1117.575, 194.2139
1118.057, 186.3010
1118.539, 180.3021
1119.021, 174.0685
1119.504, 165.8344
1119.986, 155.9760
1120.468, 147.5825
1120.950, 141.5646
1121.432, 128.6042
1121.914, 101.9739
1122.396, 76.00012
1122.878, 72.92456
1123.360, 78.94128
1123.843, 74.00171
1124.325, 47.05676
1124.807, 37.06726
1125.289, 51.19751
1125.771, 63.31848
1126.253, 55.95703
1126.735, 38.70728
1127.217, 31.20044
1127.700, 30.05579
1128.182, 26.55627
1128.664, 8.893799
1129.146, 2.964966
1129.628, 20.02795
1130.110, 35.38379
1130.592, 18.89856
1131.074, 18.89038
1131.557, 30.98328
1132.039, 19.04407
1132.521, 8.163574
1133.003, 15.58386
1133.485, 21.29199
1133.967, 15.25854
1134.449, 5.292725
1134.931, 3.939575
1135.413, 10.78186
1135.896, 22.43591
1136.378, 39.02832
1136.860, 46.06689
1137.342, 17.74329
1137.824, 10.49597
1138.306, 6.397339
1138.788, 19.86310
1139.270, 21.77606
1139.752, 2.805664
1140.235, 16.44348
1140.717, 7.531433
1141.199, 8.552856
1141.681, 18.26782
1142.163, 25.48151
1142.645, 35.23267
1143.127, 49.31635
1143.609, 53.51508
1144.092, 46.29083
1144.574, 36.93201
1145.056, 27.86914
1145.538, 21.36993
1146.020, 20.66895
1146.502, 24.95660
1146.984, 33.50006
1147.466, 55.39661
1147.948, 59.55890
1148.431, 41.03442
1148.913, 16.42340
1149.395, 6.734558
1149.877, 26.13239
1150.359, 35.05719
1150.841, 35.91302
1151.323, 35.97015
1151.805, 41.88995
1152.287, 39.87970
1152.770, 23.81689
1153.252, 7.432739
1153.734, 6.486206
1154.216, 16.80817
1154.698, 25.65027
1155.180, 32.15143
1155.662, 35.26306
1156.144, 29.97290
1156.626, 26.94086
1157.109, 30.13251
1157.591, 36.23669
1158.073, 39.66791
1158.555, 41.17352
1159.037, 43.43005
1159.519, 46.64728
1160.001, 53.40265
1160.483, 74.11334
1160.966, 89.77063
1161.448, 88.45599
1161.930, 75.95569
1162.412, 68.47845
1162.894, 65.67462
1163.376, 63.19287
1163.858, 59.36920
1164.340, 58.49054
1164.823, 66.30975
1165.305, 76.29694
1165.787, 83.48151
1166.269, 88.02997
1166.751, 93.13361
1167.233, 98.82184
1167.715, 100.7465
1168.197, 95.46149
1168.679, 89.80591
1169.161, 90.06732
1169.644, 93.30383
1170.126, 96.35522
1170.608, 98.66010
1171.090, 100.6146
1171.572, 102.1002
1172.054, 106.4078
1172.536, 115.3698
1173.018, 127.9390
1173.501, 151.5531
1173.983, 175.2021
1174.465, 177.9752
1174.947, 144.6299
1175.429, 134.0992
1175.911, 150.4737
1176.393, 167.1968
1176.875, 160.7475
1177.358, 146.7050
1177.840, 141.4648
1178.322, 144.3144
1178.804, 154.2191
1179.286, 180.9301
1179.768, 188.3161
1180.250, 170.0291
1180.732, 148.4590
1181.214, 146.1296
1181.697, 153.2774
1182.179, 155.3708
1182.661, 153.7285
1183.143, 159.8127
1183.625, 184.3575
1184.107, 196.9009
1184.589, 190.2419
1185.071, 178.3985
1185.553, 178.2936
1186.036, 184.9649
1186.518, 191.4713
1187.000, 197.0320
1187.482, 200.5581
1187.964, 200.0025
1188.446, 201.6555
1188.928, 207.5035
1189.410, 212.3070
1189.893, 205.3775
1190.375, 193.3847
1190.857, 189.2969
1191.339, 195.7004
1191.821, 201.1598
1192.303, 200.2371
1192.785, 203.9257
1193.267, 219.2047
1193.750, 235.1846
1194.232, 223.1566
1194.714, 197.5000
1195.196, 193.7527
1195.678, 225.5820
1196.160, 241.8550
1196.642, 217.7093
1197.124, 196.9003
1197.606, 200.7942
1198.089, 218.7819
1198.571, 226.4753
1199.053, 226.3671
1199.535, 220.6774
1200.017, 207.0521
1200.499, 212.5496
1200.981, 212.2223
1201.463, 206.9539
1201.945, 183.7764
1202.428, 184.6353
1202.910, 176.5165
1203.392, 168.3147
1203.874, 173.2057
1204.356, 162.2581
1204.838, 160.8448
1205.320, 164.6005
1205.802, 165.8113
1206.285, 155.9042
1206.767, 140.7437
1207.249, 144.1901
1207.731, 160.5629
1208.213, 172.0248
1208.695, 162.9904
1209.177, 159.6523
1209.659, 170.2083
1210.141, 181.8782
1210.624, 182.8868
1211.106, 175.1336
1211.588, 164.7010
1212.070, 153.3398
1212.552, 145.2195
1213.034, 140.8437
1213.516, 142.9081
1213.998, 156.0004
1214.480, 168.0190
1214.963, 166.8541
1215.445, 154.0359
1215.927, 127.9166
1216.409, 92.76596
1216.891, 74.82443
1217.373, 101.8004
1217.855, 126.2252
1218.337, 141.0778
1218.820, 145.9389
1219.302, 135.4628
1219.784, 115.0181
1220.266, 100.9040
1220.748, 94.12857
1221.230, 93.28683
1221.712, 105.2174
1222.194, 113.1017
1222.677, 111.8913
1223.159, 107.0060
1223.641, 106.2105
1224.123, 107.7320
1224.605, 108.4656
1225.087, 108.1085
1225.569, 108.0147
1226.051, 114.4537
1226.533, 112.8355
1227.016, 92.76501
1227.498, 71.60184
1227.980, 87.37997
1228.462, 121.2031
1228.944, 131.4819
1229.426, 113.4689
1229.908, 99.80338
1230.390, 104.4276
1230.872, 109.5367
1231.355, 111.4859
1231.837, 111.0225
1232.319, 103.7130
1232.801, 96.22241
1233.283, 105.3137
1233.765, 134.9734
1234.247, 147.4608
1234.729, 124.3791
1235.212, 106.1057
1235.694, 106.7844
1236.176, 115.0670
1236.658, 112.8180
1237.140, 103.5378
1237.622, 92.52341
1238.104, 78.80011
1238.586, 77.18216
1239.068, 96.17075
1239.551, 106.9483
1240.033, 97.57651
1240.515, 79.78149
1240.997, 67.10391
1241.479, 61.03625
1241.961, 66.91129
1242.443, 89.10687
1242.925, 97.03516
1243.407, 85.29510
1243.890, 74.81055
1244.372, 73.85983
1244.854, 77.15790
1245.336, 74.39941
1245.818, 71.67758
1246.300, 59.59476
1246.782, 69.76425
1247.264, 74.62579
1247.746, 73.70700
1248.229, 52.16275
1248.711, 57.61176
1249.193, 52.73813
1249.675, 46.91211
1250.157, 55.37103
1250.639, 37.39044
1251.121, 45.98145
1251.603, 42.01022
1252.086, 43.39279
1252.568, 47.82828
1253.050, 54.54044
1253.532, 58.52399
1254.014, 50.79648
1254.496, 41.81665
1254.978, 49.99329
1255.460, 77.28513
1255.943, 73.19821
1256.425, 38.29141
1256.907, 14.06509
1257.389, 24.88464
1257.871, 40.90378
1258.353, 38.99417
1258.835, 30.95782
1259.317, 29.18619
1259.799, 33.43057
1260.281, 39.46582
1260.764, 47.44006
1261.246, 52.12015
1261.728, 49.99457
1262.210, 46.01431
1262.692, 44.65695
1263.174, 40.65079
1263.656, 26.83038
1264.138, 5.867889
1264.621, 1.629547
1265.103, 11.01743
1265.585, 19.61362
1266.067, 19.75046
1266.549, 20.96826
1267.031, 30.08173
1267.513, 37.41452
1267.995, 34.72501
1268.478, 25.66708
1268.960, 20.50055
1269.442, 18.66861
1269.924, 19.50330
1270.406, 25.86780
1270.888, 27.48163
1271.370, 16.50232
1271.852, 9.739960
1272.334, 3.933014
1272.817, 13.96732
1273.299, 24.30582
1273.781, 27.55661
1274.263, 2.189026
1274.745, 13.89447
1275.227, 10.80035
1275.709, 4.556946
1276.191, 21.41803
1276.673, 0.6166080
1277.156, 15.43622
1277.638, 16.17896
1278.120, 15.66312
1278.602, 0.0000000E+00
##END=



