##NAMES=Menezesite
##RRUFFID=R060979
##IDEAL CHEMISTRY=Ba_3_MgZr^4+^_4_Nb^5+^_12_O_42_&#183;12H_2_O
##LOCALITY=Jacupiranga mine, Cajati, Sao Paulo, Brazil
##OWNER=RRUFF
##SOURCE=Michael Scott
##DESCRIPTION=Rootbeer colored dodecahedra associated with calcite, phlogopite, clinohumite, pyrite and magnetite
##STATUS=The identification of this mineral has been confirmed only by single crystal X-ray diffraction.
##URL=rruff.info/R060979
83.43524, 197.3701
83.91736, 198.2774
84.39948, 202.6981
84.88159, 205.8949
85.36371, 204.8607
85.84583, 199.1736
86.32794, 193.9854
86.81006, 192.4235
87.29218, 193.1203
87.77429, 193.7886
88.25641, 192.9546
88.73853, 191.7495
89.22064, 191.3020
89.70276, 191.9068
90.18488, 192.9733
90.66699, 194.1224
91.14911, 195.3210
91.63122, 196.4173
92.11333, 197.5091
92.59545, 198.4165
93.07757, 198.7344
93.55968, 198.3543
94.04180, 197.3034
94.52392, 194.8429
95.00603, 190.7390
95.48815, 187.6460
95.97027, 190.2360
96.45238, 197.9381
96.93450, 203.2940
97.41662, 201.2827
97.89874, 192.7585
98.38085, 188.5266
98.86297, 189.7942
99.34509, 193.7461
99.82720, 194.6853
100.3093, 191.9073
100.7914, 188.9591
101.2736, 187.5858
101.7557, 187.7256
102.2378, 189.9374
102.7199, 194.6580
103.2020, 201.6187
103.6841, 208.6768
104.1663, 215.7692
104.6484, 223.1070
105.1305, 230.3123
105.6126, 233.5109
106.0947, 243.1131
106.5768, 262.7121
107.0589, 295.0598
107.5411, 323.8560
108.0232, 345.0029
108.5053, 363.9669
108.9874, 388.8799
109.4695, 422.9547
109.9516, 460.3606
110.4338, 499.6922
110.9159, 536.9927
111.3980, 582.1954
111.8801, 634.9432
112.3622, 696.0020
112.8443, 768.0750
113.3265, 853.8903
113.8086, 949.9219
114.2907, 1052.513
114.7728, 1160.253
115.2549, 1275.768
115.7370, 1400.596
116.2192, 1534.343
116.7013, 1677.346
117.1834, 1834.950
117.6655, 2001.308
118.1476, 2166.187
118.6297, 2329.474
119.1119, 2489.645
119.5940, 2644.645
120.0761, 2793.587
120.5582, 2942.259
121.0403, 3087.371
121.5224, 3235.771
122.0046, 3395.362
122.4867, 3580.509
122.9688, 3776.122
123.4509, 3967.144
123.9330, 4151.116
124.4151, 4330.261
124.8973, 4508.235
125.3794, 4684.105
125.8615, 4853.851
126.3436, 5014.447
126.8257, 5165.940
127.3078, 5307.143
127.7900, 5439.919
128.2721, 5560.516
128.7542, 5665.563
129.2363, 5755.065
129.7184, 5829.388
130.2005, 5882.915
130.6826, 5918.472
131.1648, 5953.522
131.6469, 5996.059
132.1290, 6043.075
132.6111, 6083.114
133.0932, 6114.564
133.5753, 6143.625
134.0575, 6179.300
134.5396, 6221.588
135.0217, 6265.912
135.5038, 6312.063
135.9859, 6360.317
136.4680, 6400.625
136.9502, 6425.872
137.4323, 6449.833
137.9144, 6511.233
138.3965, 6619.910
138.8786, 6736.569
139.3607, 6834.403
139.8429, 6908.383
140.3250, 6990.649
140.8071, 7088.623
141.2892, 7199.738
141.7713, 7293.953
142.2534, 7361.077
142.7356, 7426.741
143.2177, 7519.021
143.6998, 7659.357
144.1819, 7782.615
144.6640, 7871.899
145.1461, 7920.898
145.6283, 7982.708
146.1104, 8067.076
146.5925, 8157.722
147.0746, 8232.851
147.5567, 8281.252
148.0388, 8327.206
148.5210, 8378.368
149.0031, 8444.752
149.4852, 8494.424
149.9673, 8518.681
150.4494, 8527.010
150.9315, 8539.553
151.4137, 8552.621
151.8958, 8573.792
152.3779, 8606.143
152.8600, 8656.363
153.3421, 8710.223
153.8242, 8767.155
154.3064, 8827.301
154.7885, 8891.996
155.2706, 8970.799
155.7527, 9047.818
156.2348, 9113.650
156.7169, 9141.194
157.1991, 9182.980
157.6812, 9256.594
158.1633, 9360.149
158.6454, 9460.119
159.1275, 9552.890
159.6096, 9633.545
160.0918, 9698.209
160.5739, 9716.518
161.0560, 9741.094
161.5381, 9800.557
162.0202, 9900.834
162.5023, 9989.953
162.9845, 10035.62
163.4666, 10058.82
163.9487, 10089.55
164.4308, 10153.55
164.9129, 10219.03
165.3950, 10266.36
165.8772, 10290.90
166.3593, 10307.18
166.8414, 10327.49
167.3235, 10346.26
167.8056, 10351.63
168.2877, 10327.74
168.7699, 10293.28
169.2520, 10265.32
169.7341, 10249.96
170.2162, 10236.52
170.6983, 10217.00
171.1804, 10192.59
171.6626, 10166.82
172.1447, 10131.76
172.6268, 10099.27
173.1089, 10086.82
173.5910, 10110.11
174.0731, 10142.05
174.5553, 10155.38
175.0374, 10151.11
175.5195, 10141.64
176.0016, 10129.29
176.4837, 10118.47
176.9658, 10118.42
177.4480, 10145.39
177.9301, 10177.80
178.4122, 10178.95
178.8943, 10148.16
179.3764, 10115.31
179.8585, 10112.85
180.3407, 10131.69
180.8228, 10145.82
181.3049, 10136.27
181.7870, 10115.52
182.2691, 10111.02
182.7512, 10124.67
183.2334, 10145.37
183.7155, 10166.24
184.1976, 10185.12
184.6797, 10192.70
185.1618, 10174.03
185.6439, 10138.83
186.1261, 10119.76
186.6082, 10120.45
187.0903, 10131.92
187.5724, 10143.66
188.0545, 10155.33
188.5366, 10164.72
189.0188, 10170.43
189.5009, 10172.69
189.9830, 10172.67
190.4651, 10170.79
190.9472, 10166.50
191.4293, 10157.64
191.9114, 10144.23
192.3936, 10129.96
192.8757, 10114.63
193.3578, 10098.94
193.8399, 10092.81
194.3220, 10101.31
194.8041, 10118.01
195.2863, 10124.40
195.7684, 10119.96
196.2505, 10109.40
196.7326, 10090.18
197.2147, 10061.70
197.6968, 10051.99
198.1790, 10072.90
198.6611, 10116.59
199.1432, 10145.75
199.6253, 10157.51
200.1074, 10163.27
200.5895, 10175.62
201.0717, 10195.94
201.5538, 10209.17
202.0359, 10207.86
202.5180, 10193.72
203.0001, 10190.66
203.4822, 10201.35
203.9644, 10216.40
204.4465, 10224.90
204.9286, 10225.88
205.4107, 10223.43
205.8928, 10215.11
206.3749, 10200.33
206.8571, 10203.08
207.3392, 10230.86
207.8213, 10265.55
208.3034, 10281.09
208.7855, 10275.42
209.2676, 10259.33
209.7498, 10230.56
210.2319, 10183.80
210.7140, 10165.24
211.1961, 10184.06
211.6782, 10222.59
212.1603, 10249.67
212.6425, 10265.08
213.1246, 10270.94
213.6067, 10265.22
214.0888, 10242.80
214.5709, 10227.85
215.0530, 10220.25
215.5352, 10219.67
216.0173, 10226.27
216.4994, 10241.59
216.9815, 10259.60
217.4636, 10277.85
217.9457, 10296.58
218.4279, 10314.09
218.9100, 10331.58
219.3921, 10347.42
219.8742, 10357.26
220.3563, 10362.74
220.8384, 10359.81
221.3206, 10341.07
221.8027, 10288.61
222.2848, 10270.15
222.7669, 10304.64
223.2490, 10375.58
223.7311, 10416.79
224.2132, 10415.44
224.6954, 10403.26
225.1775, 10398.72
225.6596, 10405.02
226.1417, 10411.19
226.6238, 10415.03
227.1059, 10417.44
227.5881, 10424.69
228.0702, 10437.24
228.5523, 10453.44
229.0344, 10473.97
229.5165, 10506.12
229.9986, 10525.30
230.4808, 10520.75
230.9629, 10496.61
231.4450, 10496.58
231.9271, 10537.23
232.4092, 10583.08
232.8913, 10606.05
233.3735, 10592.66
233.8556, 10583.78
234.3377, 10587.56
234.8198, 10603.31
235.3019, 10609.46
235.7840, 10599.15
236.2662, 10586.84
236.7483, 10584.58
237.2304, 10595.07
237.7125, 10611.44
238.1946, 10637.85
238.6767, 10674.30
239.1589, 10691.76
239.6410, 10684.55
240.1231, 10664.13
240.6052, 10638.82
241.0873, 10597.54
241.5694, 10572.03
242.0516, 10572.29
242.5337, 10599.63
243.0158, 10620.85
243.4979, 10635.46
243.9800, 10643.74
244.4621, 10644.51
244.9443, 10630.41
245.4264, 10621.72
245.9085, 10624.88
246.3906, 10641.01
246.8727, 10647.67
247.3548, 10641.78
247.8370, 10628.83
248.3191, 10614.76
248.8012, 10600.83
249.2833, 10584.25
249.7654, 10566.30
250.2475, 10548.25
250.7297, 10516.53
251.2118, 10459.27
251.6939, 10400.15
252.1760, 10371.27
252.6581, 10394.19
253.1402, 10405.22
253.6223, 10386.96
254.1045, 10335.99
254.5866, 10288.68
255.0687, 10242.85
255.5508, 10202.31
256.0329, 10173.88
256.5150, 10164.57
256.9972, 10151.06
257.4793, 10122.96
257.9614, 10076.26
258.4435, 10052.51
258.9256, 10064.31
259.4077, 10085.59
259.8899, 10080.41
260.3720, 10034.08
260.8541, 9994.524
261.3362, 9978.814
261.8183, 9990.533
262.3004, 9982.286
262.7826, 9946.242
263.2647, 9898.829
263.7468, 9861.952
264.2289, 9838.406
264.7110, 9817.437
265.1931, 9797.924
265.6753, 9780.594
266.1574, 9752.706
266.6395, 9705.420
267.1216, 9659.339
267.6037, 9647.317
268.0858, 9685.516
268.5680, 9707.524
269.0501, 9690.230
269.5322, 9632.846
270.0143, 9574.586
270.4964, 9512.065
270.9785, 9455.229
271.4607, 9416.025
271.9428, 9396.168
272.4249, 9389.796
272.9070, 9404.067
273.3891, 9438.735
273.8712, 9437.447
274.3534, 9390.309
274.8355, 9326.471
275.3176, 9281.671
275.7997, 9257.491
276.2818, 9243.288
276.7639, 9240.453
277.2461, 9247.733
277.7282, 9240.139
278.2103, 9214.093
278.6924, 9181.342
279.1745, 9154.490
279.6566, 9133.431
280.1388, 9118.649
280.6209, 9113.801
281.1030, 9116.675
281.5851, 9109.882
282.0672, 9093.010
282.5493, 9067.491
283.0315, 9032.177
283.5136, 8986.870
283.9957, 8942.454
284.4778, 8899.645
284.9599, 8860.088
285.4420, 8836.069
285.9242, 8829.913
286.4063, 8828.124
286.8884, 8814.607
287.3705, 8790.346
287.8526, 8770.304
288.3347, 8760.380
288.8169, 8757.849
289.2990, 8755.761
289.7811, 8754.772
290.2632, 8747.709
290.7453, 8722.730
291.2274, 8682.837
291.7096, 8647.373
292.1917, 8623.555
292.6738, 8607.322
293.1559, 8589.243
293.6380, 8569.591
294.1201, 8547.245
294.6023, 8516.298
295.0844, 8480.971
295.5665, 8457.280
296.0486, 8454.933
296.5307, 8463.382
297.0128, 8463.037
297.4950, 8454.284
297.9771, 8444.895
298.4592, 8439.027
298.9413, 8437.324
299.4234, 8442.613
299.9055, 8463.181
300.3876, 8482.943
300.8698, 8473.846
301.3519, 8438.614
301.8340, 8402.976
302.3161, 8387.883
302.7982, 8384.946
303.2803, 8378.623
303.7625, 8357.482
304.2446, 8341.084
304.7267, 8360.442
305.2088, 8407.687
305.6909, 8446.075
306.1730, 8447.071
306.6552, 8426.512
307.1373, 8403.940
307.6194, 8383.893
308.1015, 8363.272
308.5836, 8330.107
309.0657, 8292.371
309.5479, 8274.503
310.0300, 8317.124
310.5121, 8373.333
310.9942, 8397.422
311.4763, 8369.617
311.9584, 8332.233
312.4406, 8303.850
312.9227, 8285.110
313.4048, 8277.530
313.8869, 8298.655
314.3690, 8320.302
314.8511, 8319.776
315.3333, 8285.291
315.8154, 8252.021
316.2975, 8235.835
316.7796, 8231.840
317.2617, 8231.398
317.7438, 8232.216
318.2260, 8235.198
318.7081, 8243.473
319.1902, 8261.480
319.6723, 8269.824
320.1544, 8248.792
320.6365, 8217.309
321.1187, 8203.018
321.6008, 8228.979
322.0829, 8258.939
322.5650, 8281.195
323.0471, 8294.362
323.5292, 8301.446
324.0114, 8297.876
324.4935, 8290.027
324.9756, 8285.214
325.4577, 8279.721
325.9398, 8281.829
326.4219, 8299.337
326.9041, 8336.747
327.3862, 8356.654
327.8683, 8347.876
328.3504, 8325.724
328.8325, 8303.135
329.3146, 8262.627
329.7968, 8244.152
330.2789, 8267.667
330.7610, 8333.216
331.2431, 8360.502
331.7252, 8321.603
332.2073, 8269.572
332.6895, 8244.537
333.1716, 8264.332
333.6537, 8279.197
334.1358, 8283.129
334.6179, 8277.577
335.1000, 8271.367
335.5822, 8262.210
336.0643, 8255.883
336.5464, 8257.074
337.0285, 8268.514
337.5106, 8278.160
337.9927, 8285.643
338.4749, 8290.101
338.9570, 8287.201
339.4391, 8273.935
339.9212, 8262.418
340.4033, 8264.418
340.8854, 8282.928
341.3676, 8280.744
341.8497, 8250.066
342.3318, 8207.020
342.8139, 8183.456
343.2960, 8181.389
343.7781, 8179.478
344.2603, 8164.158
344.7424, 8137.682
345.2245, 8122.906
345.7066, 8122.599
346.1887, 8127.348
346.6708, 8121.974
347.1530, 8107.967
347.6351, 8099.735
348.1172, 8109.530
348.5993, 8129.233
349.0814, 8135.701
349.5635, 8128.079
350.0457, 8113.153
350.5278, 8097.042
351.0099, 8078.899
351.4920, 8056.128
351.9741, 8017.253
352.4562, 7979.534
352.9384, 7977.236
353.4205, 8007.616
353.9026, 8028.901
354.3847, 7994.423
354.8668, 7933.756
355.3489, 7892.438
355.8311, 7896.661
356.3132, 7909.336
356.7953, 7897.571
357.2774, 7866.580
357.7595, 7839.003
358.2416, 7832.243
358.7238, 7832.354
359.2059, 7826.916
359.6880, 7812.001
360.1701, 7793.502
360.6522, 7770.209
361.1343, 7745.038
361.6164, 7725.521
362.0985, 7718.329
362.5807, 7714.229
363.0628, 7708.966
363.5449, 7702.817
364.0270, 7692.684
364.5091, 7673.743
364.9912, 7651.094
365.4734, 7632.740
365.9555, 7630.233
366.4376, 7622.888
366.9197, 7601.024
367.4018, 7559.723
367.8839, 7528.982
368.3661, 7517.812
368.8482, 7515.000
369.3303, 7509.595
369.8124, 7501.853
370.2945, 7491.226
370.7766, 7474.408
371.2588, 7451.659
371.7409, 7440.580
372.2230, 7453.196
372.7051, 7463.933
373.1872, 7451.067
373.6693, 7399.210
374.1515, 7362.372
374.6336, 7349.572
375.1157, 7354.771
375.5978, 7356.419
376.0799, 7354.833
376.5620, 7348.786
377.0442, 7335.441
377.5263, 7313.863
378.0084, 7298.127
378.4905, 7290.917
378.9726, 7287.155
379.4547, 7277.348
379.9369, 7261.530
380.4190, 7243.838
380.9011, 7226.940
381.3832, 7210.244
381.8653, 7189.532
382.3474, 7163.604
382.8296, 7138.909
383.3117, 7124.658
383.7938, 7118.662
384.2759, 7110.278
384.7580, 7090.237
385.2401, 7067.895
385.7223, 7062.583
386.2044, 7073.468
386.6865, 7082.420
387.1686, 7069.926
387.6507, 7046.391
388.1328, 7030.314
388.6150, 7031.446
389.0971, 7034.449
389.5792, 7025.884
390.0613, 7007.607
390.5434, 6985.730
391.0255, 6957.341
391.5077, 6930.895
391.9898, 6914.985
392.4719, 6914.979
392.9540, 6915.329
393.4361, 6915.827
393.9182, 6911.049
394.4004, 6891.494
394.8825, 6823.348
395.3646, 6765.799
395.8467, 6751.584
396.3288, 6792.099
396.8109, 6821.422
397.2931, 6823.811
397.7752, 6809.765
398.2573, 6789.585
398.7394, 6752.871
399.2215, 6722.231
399.7036, 6702.656
400.1858, 6693.629
400.6679, 6684.598
401.1500, 6679.810
401.6321, 6671.020
402.1142, 6651.956
402.5963, 6614.644
403.0785, 6584.621
403.5606, 6565.108
404.0427, 6553.376
404.5248, 6541.535
405.0069, 6528.585
405.4890, 6518.053
405.9712, 6512.978
406.4533, 6514.218
406.9354, 6512.370
407.4175, 6508.867
407.8996, 6499.068
408.3817, 6471.977
408.8639, 6427.444
409.3460, 6387.391
409.8281, 6359.733
410.3102, 6342.754
410.7923, 6332.424
411.2744, 6328.766
411.7566, 6330.110
412.2387, 6341.730
412.7208, 6357.693
413.2029, 6360.387
413.6850, 6341.308
414.1671, 6313.057
414.6493, 6289.075
415.1314, 6268.977
415.6135, 6250.193
416.0956, 6226.439
416.5777, 6205.446
417.0598, 6198.422
417.5420, 6211.082
418.0241, 6222.542
418.5062, 6220.655
418.9883, 6208.641
419.4704, 6191.950
419.9525, 6167.102
420.4347, 6142.930
420.9168, 6122.921
421.3989, 6107.806
421.8810, 6096.604
422.3631, 6095.153
422.8452, 6094.685
423.3273, 6088.024
423.8094, 6070.809
424.2916, 6051.334
424.7737, 6028.846
425.2558, 6004.597
425.7379, 5983.257
426.2200, 5964.869
426.7021, 5949.503
427.1843, 5937.177
427.6664, 5928.663
428.1485, 5921.990
428.6306, 5920.543
429.1127, 5918.101
429.5948, 5899.447
430.0770, 5855.889
430.5591, 5826.441
431.0412, 5829.029
431.5233, 5861.030
432.0054, 5880.800
432.4875, 5887.309
432.9697, 5885.789
433.4518, 5880.877
433.9339, 5872.495
434.4160, 5858.656
434.8981, 5835.193
435.3802, 5810.748
435.8624, 5805.972
436.3445, 5818.452
436.8266, 5827.691
437.3087, 5816.380
437.7908, 5794.014
438.2729, 5775.185
438.7551, 5761.478
439.2372, 5751.794
439.7193, 5746.674
440.2014, 5744.681
440.6835, 5743.194
441.1656, 5745.529
441.6478, 5744.384
442.1299, 5732.411
442.6120, 5709.884
443.0941, 5689.818
443.5762, 5678.688
444.0583, 5671.940
444.5405, 5666.053
445.0226, 5657.105
445.5047, 5653.025
445.9868, 5660.430
446.4689, 5674.660
446.9510, 5680.894
447.4332, 5679.512
447.9153, 5668.649
448.3974, 5643.458
448.8795, 5593.650
449.3616, 5566.330
449.8438, 5573.563
450.3259, 5592.464
450.8080, 5593.114
451.2901, 5566.678
451.7722, 5547.605
452.2543, 5543.953
452.7365, 5553.968
453.2186, 5570.196
453.7007, 5595.212
454.1828, 5614.371
454.6649, 5611.627
455.1470, 5589.768
455.6292, 5577.600
456.1113, 5581.646
456.5934, 5588.368
457.0755, 5572.896
457.5576, 5540.360
458.0397, 5513.410
458.5219, 5507.423
459.0040, 5512.497
459.4861, 5515.617
459.9682, 5516.475
460.4503, 5516.396
460.9324, 5518.433
461.4146, 5519.458
461.8967, 5515.146
462.3788, 5497.518
462.8609, 5482.353
463.3430, 5479.049
463.8251, 5484.996
464.3073, 5491.452
464.7894, 5498.968
465.2715, 5503.436
465.7536, 5502.844
466.2357, 5496.743
466.7178, 5486.231
467.2000, 5461.667
467.6821, 5436.567
468.1642, 5427.534
468.6463, 5451.583
469.1284, 5466.705
469.6105, 5460.409
470.0927, 5436.093
470.5748, 5430.959
471.0569, 5455.251
471.5390, 5478.492
472.0211, 5476.144
472.5032, 5443.157
472.9854, 5428.770
473.4675, 5440.917
473.9496, 5463.430
474.4317, 5467.312
474.9138, 5453.662
475.3959, 5442.881
475.8781, 5448.477
476.3602, 5462.317
476.8423, 5425.141
477.3244, 5437.368
477.8065, 5442.565
478.2886, 5441.110
478.7708, 5413.081
479.2529, 5419.367
479.7350, 5411.901
480.2171, 5403.872
480.6992, 5414.987
481.1813, 5390.823
481.6635, 5401.634
482.1456, 5427.114
482.6277, 5430.112
483.1098, 5432.945
483.5919, 5434.703
484.0740, 5438.686
484.5562, 5447.972
485.0382, 5458.382
485.5204, 5466.238
486.0025, 5475.633
486.4846, 5476.637
486.9667, 5461.130
487.4488, 5435.775
487.9309, 5429.034
488.4131, 5454.679
488.8952, 5476.467
489.3773, 5475.555
489.8594, 5446.628
490.3415, 5432.527
490.8236, 5436.714
491.3058, 5448.239
491.7879, 5453.215
492.2700, 5451.815
492.7521, 5450.854
493.2342, 5451.823
493.7163, 5454.468
494.1985, 5459.386
494.6806, 5466.215
495.1627, 5471.592
495.6448, 5470.743
496.1269, 5467.693
496.6090, 5468.945
497.0912, 5475.708
497.5733, 5484.674
498.0554, 5494.164
498.5375, 5504.205
499.0196, 5515.008
499.5017, 5532.965
499.9839, 5545.964
500.4660, 5543.890
500.9481, 5529.057
501.4302, 5520.412
501.9123, 5524.665
502.3944, 5534.902
502.8766, 5548.252
503.3587, 5570.526
503.8408, 5584.157
504.3229, 5581.333
504.8050, 5573.738
505.2871, 5579.613
505.7693, 5605.204
506.2514, 5629.226
506.7335, 5647.377
507.2156, 5659.537
507.6977, 5662.588
508.1798, 5654.352
508.6620, 5647.310
509.1441, 5651.144
509.6262, 5664.792
510.1083, 5679.583
510.5904, 5693.899
511.0725, 5711.925
511.5547, 5748.115
512.0368, 5793.960
512.5189, 5824.430
513.0010, 5813.202
513.4832, 5791.106
513.9653, 5791.440
514.4474, 5811.576
514.9295, 5828.816
515.4116, 5824.881
515.8937, 5815.867
516.3758, 5814.850
516.8579, 5826.306
517.3400, 5840.932
517.8221, 5858.825
518.3043, 5877.777
518.7864, 5894.316
519.2685, 5910.148
519.7506, 5921.015
520.2327, 5923.597
520.7148, 5918.589
521.1970, 5919.546
521.6791, 5929.653
522.1612, 5940.655
522.6433, 5944.138
523.1254, 5936.844
523.6075, 5949.250
524.0897, 5990.445
524.5718, 6036.992
525.0539, 6046.227
525.5360, 6022.054
526.0181, 6007.109
526.5002, 6023.787
526.9824, 6055.308
527.4645, 6069.708
527.9466, 6068.444
528.4287, 6066.180
528.9108, 6072.438
529.3929, 6083.452
529.8751, 6096.253
530.3572, 6112.012
530.8393, 6123.616
531.3214, 6122.081
531.8035, 6115.657
532.2856, 6115.613
532.7678, 6134.081
533.2499, 6150.183
533.7320, 6155.945
534.2141, 6152.662
534.6962, 6154.199
535.1783, 6167.118
535.6605, 6178.499
536.1426, 6180.424
536.6247, 6166.236
537.1068, 6167.507
537.5889, 6189.148
538.0710, 6219.126
538.5532, 6243.239
539.0353, 6261.143
539.5174, 6275.239
539.9995, 6285.371
540.4816, 6292.517
540.9637, 6296.018
541.4459, 6296.669
541.9280, 6303.375
542.4101, 6334.789
542.8922, 6370.848
543.3743, 6375.666
543.8564, 6343.141
544.3386, 6312.202
544.8207, 6309.086
545.3028, 6323.784
545.7849, 6344.927
546.2670, 6381.406
546.7491, 6409.627
547.2313, 6414.533
547.7134, 6404.271
548.1955, 6403.505
548.6776, 6428.259
549.1597, 6451.134
549.6418, 6465.487
550.1240, 6471.931
550.6061, 6462.049
551.0882, 6421.285
551.5703, 6384.647
552.0524, 6385.654
552.5345, 6430.142
553.0167, 6470.197
553.4988, 6501.015
553.9809, 6523.618
554.4630, 6538.764
554.9451, 6546.770
555.4272, 6550.696
555.9094, 6546.858
556.3915, 6542.074
556.8736, 6549.854
557.3557, 6569.202
557.8378, 6588.461
558.3199, 6597.927
558.8021, 6604.261
559.2842, 6614.120
559.7663, 6629.625
560.2484, 6646.277
560.7305, 6663.582
561.2126, 6680.598
561.6948, 6695.798
562.1769, 6713.026
562.6590, 6723.606
563.1411, 6722.290
563.6232, 6711.557
564.1053, 6706.295
564.5875, 6706.851
565.0696, 6712.138
565.5517, 6722.362
566.0338, 6738.008
566.5159, 6755.452
566.9980, 6776.399
567.4802, 6794.439
567.9623, 6800.841
568.4444, 6797.508
568.9265, 6795.546
569.4086, 6797.819
569.8907, 6802.196
570.3729, 6806.537
570.8550, 6810.729
571.3371, 6814.462
571.8192, 6816.192
572.3013, 6818.394
572.7834, 6823.903
573.2656, 6832.778
573.7477, 6839.590
574.2298, 6838.147
574.7119, 6836.697
575.1940, 6841.566
575.6761, 6862.497
576.1583, 6874.982
576.6404, 6873.498
577.1225, 6866.083
577.6046, 6864.078
578.0867, 6867.317
578.5688, 6877.785
579.0510, 6900.449
579.5331, 6929.399
580.0152, 6935.215
580.4973, 6915.274
580.9794, 6902.660
581.4615, 6930.319
581.9437, 6980.876
582.4258, 6999.630
582.9079, 6980.642
583.3900, 6961.236
583.8721, 6983.967
584.3542, 7024.473
584.8364, 7046.830
585.3185, 7032.148
585.8006, 7011.077
586.2827, 6998.384
586.7648, 6990.971
587.2469, 6981.858
587.7291, 6957.680
588.2112, 6943.251
588.6933, 6949.001
589.1754, 6974.509
589.6575, 7003.036
590.1396, 7044.484
590.6218, 7074.841
591.1039, 7073.339
591.5860, 7032.575
592.0681, 7013.929
592.5502, 7022.491
593.0323, 7044.261
593.5145, 7067.610
593.9966, 7090.563
594.4787, 7097.722
594.9608, 7075.408
595.4429, 7049.115
595.9250, 7060.464
596.4072, 7098.157
596.8893, 7124.726
597.3714, 7107.752
597.8535, 7081.478
598.3356, 7070.298
598.8177, 7075.802
599.2999, 7081.583
599.7820, 7077.598
600.2641, 7075.371
600.7462, 7083.621
601.2283, 7114.449
601.7104, 7133.489
602.1926, 7133.386
602.6747, 7127.071
603.1568, 7133.767
603.6389, 7157.062
604.1210, 7177.511
604.6031, 7190.549
605.0853, 7198.066
605.5674, 7206.370
606.0495, 7215.211
606.5316, 7218.327
607.0137, 7203.758
607.4958, 7184.434
607.9780, 7183.927
608.4601, 7202.938
608.9422, 7222.471
609.4243, 7231.619
609.9064, 7233.730
610.3885, 7231.459
610.8707, 7223.909
611.3528, 7215.153
611.8349, 7202.880
612.3170, 7191.142
612.7991, 7186.342
613.2813, 7192.795
613.7634, 7200.626
614.2455, 7211.521
614.7276, 7222.585
615.2097, 7218.118
615.6918, 7193.942
616.1740, 7172.955
616.6561, 7169.692
617.1382, 7180.577
617.6203, 7183.535
618.1024, 7178.100
618.5845, 7174.233
619.0667, 7186.228
619.5488, 7203.905
620.0309, 7208.426
620.5130, 7191.729
620.9951, 7176.424
621.4772, 7186.687
621.9594, 7204.776
622.4415, 7206.011
622.9236, 7152.810
623.4057, 7115.933
623.8878, 7125.833
624.3699, 7168.273
624.8521, 7185.646
625.3342, 7164.394
625.8163, 7140.138
626.2984, 7126.030
626.7805, 7121.606
627.2626, 7108.549
627.7448, 7084.480
628.2269, 7064.029
628.7090, 7064.709
629.1911, 7079.934
629.6732, 7083.864
630.1553, 7072.510
630.6375, 7056.081
631.1196, 7043.028
631.6017, 7031.888
632.0838, 7020.111
632.5659, 7002.777
633.0480, 6989.710
633.5302, 6990.819
634.0123, 6999.792
634.4944, 7000.856
634.9765, 6981.888
635.4586, 6964.224
635.9407, 6954.010
636.4229, 6950.734
636.9050, 6946.867
637.3871, 6943.760
637.8692, 6936.559
638.3513, 6919.768
638.8334, 6893.781
639.3155, 6873.340
639.7976, 6858.771
640.2797, 6849.277
640.7618, 6847.574
641.2440, 6850.178
641.7261, 6850.369
642.2082, 6848.804
642.6903, 6839.569
643.1724, 6809.565
643.6545, 6770.265
644.1367, 6742.023
644.6188, 6735.882
645.1009, 6736.924
645.5830, 6749.911
646.0651, 6769.498
646.5472, 6763.337
647.0294, 6709.758
647.5115, 6662.460
647.9936, 6642.139
648.4757, 6648.627
648.9578, 6672.691
649.4399, 6720.168
649.9221, 6756.506
650.4042, 6742.616
650.8863, 6692.213
651.3684, 6656.379
651.8505, 6643.513
652.3326, 6632.498
652.8148, 6599.813
653.2969, 6557.449
653.7790, 6522.651
654.2611, 6505.788
654.7432, 6492.025
655.2253, 6476.065
655.7075, 6459.010
656.1896, 6443.692
656.6717, 6437.358
657.1538, 6423.713
657.6359, 6391.143
658.1180, 6345.520
658.6002, 6336.917
659.0823, 6378.122
659.5644, 6412.345
660.0465, 6403.682
660.5286, 6358.397
661.0107, 6312.980
661.4929, 6267.144
661.9750, 6231.066
662.4571, 6219.932
662.9392, 6222.323
663.4213, 6220.933
663.9034, 6210.984
664.3856, 6202.931
664.8677, 6206.851
665.3498, 6214.134
665.8319, 6214.419
666.3140, 6199.505
666.7961, 6184.268
667.2783, 6167.675
667.7604, 6152.115
668.2425, 6144.825
668.7246, 6149.827
669.2067, 6149.798
669.6888, 6138.331
670.1710, 6117.885
670.6531, 6098.646
671.1352, 6080.499
671.6173, 6058.498
672.0994, 6028.915
672.5815, 5994.558
673.0637, 5954.734
673.5458, 5909.799
674.0279, 5878.988
674.5100, 5891.768
674.9921, 5912.220
675.4742, 5909.323
675.9564, 5864.237
676.4385, 5829.533
676.9206, 5818.791
677.4027, 5817.082
677.8848, 5809.092
678.3669, 5789.768
678.8491, 5780.064
679.3312, 5786.310
679.8133, 5797.796
680.2954, 5792.840
680.7775, 5772.541
681.2596, 5750.439
681.7418, 5729.713
682.2239, 5711.702
682.7060, 5699.617
683.1881, 5692.384
683.6702, 5686.718
684.1523, 5688.033
684.6345, 5684.312
685.1166, 5663.494
685.5987, 5625.241
686.0808, 5597.565
686.5629, 5592.695
687.0450, 5592.973
687.5272, 5591.762
688.0093, 5589.979
688.4914, 5580.993
688.9735, 5561.344
689.4556, 5542.926
689.9377, 5545.008
690.4199, 5561.965
690.9020, 5552.516
691.3841, 5504.446
691.8662, 5453.410
692.3483, 5440.016
692.8304, 5450.349
693.3126, 5461.062
693.7947, 5470.285
694.2768, 5470.166
694.7589, 5448.838
695.2410, 5415.925
695.7231, 5394.169
696.2053, 5399.724
696.6874, 5400.179
697.1695, 5387.189
697.6516, 5364.119
698.1337, 5348.307
698.6158, 5341.466
699.0980, 5334.350
699.5801, 5323.326
700.0622, 5308.455
700.5443, 5283.056
701.0264, 5248.421
701.5085, 5228.842
701.9907, 5262.860
702.4728, 5309.671
702.9549, 5321.608
703.4370, 5288.138
703.9191, 5257.069
704.4012, 5248.373
704.8834, 5248.439
705.3655, 5246.498
705.8476, 5241.805
706.3297, 5234.890
706.8118, 5224.932
707.2939, 5213.634
707.7761, 5200.691
708.2582, 5185.617
708.7403, 5182.132
709.2224, 5196.622
709.7045, 5215.722
710.1866, 5221.758
710.6688, 5215.608
711.1509, 5199.843
711.6330, 5157.043
712.1151, 5122.382
712.5972, 5131.908
713.0793, 5170.318
713.5615, 5192.033
714.0436, 5163.908
714.5257, 5138.145
715.0078, 5131.491
715.4899, 5142.244
715.9720, 5153.908
716.4542, 5168.454
716.9363, 5177.975
717.4184, 5176.138
717.9005, 5164.669
718.3826, 5154.964
718.8647, 5147.029
719.3469, 5142.037
719.8290, 5144.344
720.3111, 5148.584
720.7932, 5144.801
721.2753, 5129.549
721.7574, 5123.348
722.2396, 5150.620
722.7217, 5182.898
723.2038, 5195.031
723.6859, 5167.009
724.1680, 5148.285
724.6501, 5141.568
725.1323, 5141.555
725.6144, 5143.446
726.0965, 5147.777
726.5786, 5146.730
727.0607, 5137.435
727.5428, 5125.792
728.0250, 5120.549
728.5071, 5120.470
728.9892, 5122.038
729.4713, 5124.877
729.9534, 5127.884
730.4355, 5128.617
730.9177, 5128.967
731.3998, 5133.623
731.8819, 5146.737
732.3640, 5161.197
732.8461, 5174.840
733.3282, 5188.034
733.8104, 5204.039
734.2925, 5224.165
734.7746, 5241.888
735.2567, 5254.856
735.7388, 5262.913
736.2209, 5261.990
736.7031, 5252.848
737.1852, 5248.276
737.6673, 5269.283
738.1494, 5292.603
738.6315, 5289.205
739.1136, 5255.896
739.5958, 5227.012
740.0779, 5211.218
740.5600, 5207.978
741.0421, 5220.747
741.5242, 5259.636
742.0063, 5278.511
742.4885, 5266.800
742.9706, 5252.517
743.4527, 5266.398
743.9348, 5306.538
744.4169, 5332.098
744.8990, 5336.625
745.3812, 5334.486
745.8633, 5340.157
746.3454, 5350.769
746.8275, 5362.025
747.3096, 5374.650
747.7917, 5383.640
748.2739, 5381.264
748.7560, 5375.528
749.2381, 5379.104
749.7202, 5408.177
750.2023, 5424.358
750.6844, 5420.228
751.1666, 5403.863
751.6487, 5388.910
752.1308, 5374.688
752.6129, 5373.231
753.0950, 5390.630
753.5771, 5420.071
754.0593, 5456.896
754.5414, 5496.877
755.0235, 5525.223
755.5056, 5526.603
755.9877, 5521.436
756.4698, 5519.518
756.9520, 5521.005
757.4341, 5525.352
757.9162, 5534.522
758.3983, 5544.276
758.8804, 5554.786
759.3625, 5565.577
759.8447, 5569.609
760.3268, 5565.545
760.8089, 5564.219
761.2910, 5577.133
761.7731, 5597.057
762.2552, 5599.961
762.7373, 5587.457
763.2194, 5584.409
763.7015, 5619.612
764.1837, 5662.757
764.6658, 5687.266
765.1479, 5687.027
765.6300, 5693.278
766.1121, 5720.169
766.5942, 5746.567
767.0764, 5758.186
767.5585, 5749.137
768.0406, 5756.791
768.5227, 5785.315
769.0048, 5814.922
769.4869, 5823.484
769.9691, 5818.022
770.4512, 5819.380
770.9333, 5830.839
771.4154, 5845.680
771.8975, 5861.364
772.3796, 5876.373
772.8618, 5889.381
773.3439, 5900.755
773.8260, 5909.209
774.3081, 5913.829
774.7902, 5916.365
775.2723, 5918.605
775.7545, 5920.973
776.2366, 5920.307
776.7187, 5913.554
777.2008, 5910.512
777.6829, 5930.751
778.1650, 5967.275
778.6472, 5997.320
779.1293, 6012.561
779.6114, 6022.880
780.0935, 6034.609
780.5756, 6046.739
781.0577, 6057.844
781.5399, 6070.844
782.0220, 6078.084
782.5041, 6075.162
782.9862, 6067.313
783.4683, 6064.375
783.9504, 6066.532
784.4326, 6073.154
784.9147, 6084.735
785.3968, 6100.130
785.8789, 6119.731
786.3610, 6141.698
786.8431, 6158.950
787.3253, 6163.978
787.8074, 6166.854
788.2895, 6169.691
788.7716, 6175.355
789.2537, 6192.532
789.7358, 6247.514
790.2180, 6284.850
790.7001, 6284.602
791.1822, 6256.859
791.6643, 6246.078
792.1464, 6253.031
792.6285, 6268.931
793.1107, 6294.514
793.5928, 6323.550
794.0749, 6345.601
794.5570, 6360.291
795.0391, 6366.531
795.5212, 6355.294
796.0034, 6343.036
796.4855, 6338.707
796.9676, 6342.675
797.4497, 6353.040
797.9318, 6380.311
798.4139, 6399.719
798.8961, 6400.971
799.3782, 6385.943
799.8603, 6369.311
800.3424, 6350.270
800.8245, 6341.538
801.3066, 6361.971
801.7888, 6393.340
802.2709, 6398.022
802.7530, 6378.930
803.2351, 6369.505
803.7172, 6399.906
804.1993, 6434.951
804.6815, 6455.181
805.1636, 6457.995
805.6457, 6451.801
806.1278, 6429.505
806.6099, 6410.405
807.0920, 6404.931
807.5742, 6412.359
808.0563, 6426.902
808.5384, 6448.662
809.0205, 6468.081
809.5026, 6474.886
809.9847, 6476.331
810.4669, 6483.537
810.9490, 6497.258
811.4311, 6504.106
811.9132, 6481.534
812.3953, 6464.774
812.8774, 6481.604
813.3596, 6540.549
813.8417, 6564.982
814.3238, 6544.581
814.8059, 6516.576
815.2880, 6504.991
815.7701, 6508.391
816.2523, 6524.894
816.7344, 6554.464
817.2165, 6578.045
817.6986, 6574.325
818.1807, 6561.646
818.6628, 6559.590
819.1450, 6573.563
819.6271, 6577.081
820.1092, 6544.808
820.5913, 6518.331
821.0734, 6523.851
821.5555, 6568.108
822.0377, 6596.428
822.5198, 6607.981
823.0019, 6608.846
823.4840, 6594.765
823.9661, 6576.111
824.4482, 6579.313
824.9304, 6607.586
825.4125, 6632.213
825.8946, 6659.807
826.3767, 6658.472
826.8588, 6653.878
827.3409, 6646.406
827.8231, 6616.129
828.3052, 6623.941
828.7873, 6621.772
829.2694, 6622.811
829.7515, 6646.767
830.2336, 6639.213
830.7158, 6670.413
831.1979, 6691.416
831.6800, 6656.527
832.1621, 6660.739
832.6442, 6666.350
833.1263, 6675.152
833.6085, 6678.667
834.0906, 6664.634
834.5727, 6651.927
835.0548, 6653.610
835.5369, 6673.871
836.0190, 6686.250
836.5012, 6688.047
836.9833, 6690.719
837.4654, 6707.794
837.9475, 6733.243
838.4296, 6749.848
838.9117, 6756.520
839.3939, 6754.049
839.8760, 6727.710
840.3581, 6702.833
840.8402, 6705.850
841.3223, 6749.741
841.8044, 6771.890
842.2866, 6756.191
842.7687, 6735.137
843.2508, 6729.233
843.7329, 6738.937
844.2150, 6746.989
844.6971, 6753.446
845.1793, 6756.764
845.6614, 6752.233
846.1435, 6745.490
846.6256, 6745.604
847.1077, 6753.583
847.5898, 6758.737
848.0720, 6750.281
848.5541, 6743.382
849.0362, 6749.733
849.5183, 6772.346
850.0004, 6776.624
850.4825, 6757.271
850.9647, 6738.247
851.4468, 6740.659
851.9289, 6756.514
852.4110, 6759.367
852.8931, 6749.445
853.3752, 6738.726
853.8574, 6725.366
854.3395, 6721.901
854.8216, 6745.372
855.3037, 6799.344
855.7858, 6828.693
856.2679, 6816.373
856.7501, 6800.563
857.2322, 6798.624
857.7143, 6808.875
858.1964, 6815.802
858.6785, 6819.349
859.1606, 6825.452
859.6428, 6841.073
860.1249, 6859.170
860.6070, 6871.885
861.0891, 6879.463
861.5712, 6886.477
862.0533, 6899.146
862.5355, 6906.525
863.0176, 6902.344
863.4997, 6888.365
863.9818, 6883.257
864.4639, 6889.447
864.9460, 6889.155
865.4282, 6863.895
865.9103, 6832.069
866.3924, 6838.095
866.8745, 6873.679
867.3566, 6902.261
867.8387, 6895.693
868.3209, 6886.752
868.8030, 6895.604
869.2851, 6917.838
869.7672, 6925.633
870.2493, 6913.193
870.7314, 6898.902
871.2136, 6884.773
871.6957, 6875.094
872.1778, 6889.321
872.6599, 6921.683
873.1420, 6940.993
873.6241, 6918.055
874.1063, 6892.249
874.5884, 6899.251
875.0705, 6926.275
875.5526, 6943.295
876.0347, 6934.377
876.5168, 6926.858
876.9990, 6922.333
877.4811, 6922.723
877.9632, 6933.569
878.4453, 6954.767
878.9274, 6979.499
879.4095, 7011.196
879.8917, 7034.763
880.3738, 7024.375
880.8559, 6995.455
881.3380, 6974.092
881.8201, 6973.459
882.3022, 6975.043
882.7844, 6972.361
883.2665, 6971.725
883.7486, 6982.201
884.2307, 7005.724
884.7128, 7027.899
885.1949, 7047.308
885.6770, 7063.785
886.1591, 7076.662
886.6412, 7086.751
887.1234, 7095.703
887.6055, 7104.572
888.0876, 7110.145
888.5697, 7098.922
889.0518, 7091.750
889.5339, 7110.436
890.0161, 7174.610
890.4982, 7205.398
890.9803, 7196.173
891.4624, 7175.369
891.9445, 7168.597
892.4266, 7171.848
892.9088, 7173.547
893.3909, 7172.320
893.8730, 7174.075
894.3551, 7183.710
894.8372, 7196.679
895.3193, 7213.621
895.8015, 7238.256
896.2836, 7236.873
896.7657, 7195.606
897.2478, 7157.872
897.7299, 7153.598
898.2120, 7174.990
898.6942, 7185.984
899.1763, 7186.394
899.6584, 7172.755
900.1405, 7123.753
900.6226, 7075.919
901.1047, 7068.488
901.5869, 7096.310
902.0690, 7092.577
902.5511, 7020.600
903.0332, 6967.521
903.5153, 6966.894
903.9974, 7001.249
904.4796, 7007.476
904.9617, 6987.691
905.4438, 6964.538
905.9259, 6947.160
906.4080, 6932.377
906.8901, 6919.153
907.3723, 6906.015
907.8544, 6889.478
908.3365, 6870.804
908.8186, 6844.634
909.3007, 6804.941
909.7828, 6762.425
910.2650, 6741.258
910.7471, 6740.492
911.2292, 6729.144
911.7113, 6696.896
912.1934, 6660.923
912.6755, 6647.342
913.1577, 6640.047
913.6398, 6615.193
914.1219, 6554.492
914.6040, 6499.640
915.0861, 6461.575
915.5682, 6427.444
916.0504, 6384.445
916.5325, 6331.534
917.0146, 6289.375
917.4967, 6260.923
917.9788, 6227.390
918.4609, 6160.452
918.9431, 6083.162
919.4252, 6025.696
919.9073, 5992.899
920.3894, 5965.362
920.8715, 5947.127
921.3536, 5922.026
921.8358, 5881.574
922.3179, 5825.653
922.8000, 5765.684
923.2821, 5700.877
923.7642, 5639.585
924.2463, 5588.118
924.7285, 5543.984
925.2106, 5511.235
925.6927, 5485.343
926.1748, 5446.769
926.6569, 5384.234
927.1390, 5311.125
927.6212, 5226.569
928.1033, 5137.074
928.5854, 5057.486
929.0675, 4988.006
929.5496, 4926.092
930.0317, 4875.095
930.5139, 4822.869
930.9960, 4749.044
931.4781, 4660.954
931.9602, 4572.791
932.4423, 4479.409
932.9244, 4398.928
933.4066, 4352.112
933.8887, 4308.764
934.3708, 4227.552
934.8529, 4101.742
935.3350, 4001.653
935.8171, 3938.864
936.2993, 3888.105
936.7814, 3827.829
937.2635, 3760.677
937.7456, 3689.535
938.2277, 3613.574
938.7098, 3543.063
939.1920, 3489.644
939.6741, 3437.302
940.1562, 3377.400
940.6383, 3310.066
941.1204, 3236.337
941.6025, 3154.729
942.0847, 3077.319
942.5668, 3017.031
943.0489, 2963.769
943.5310, 2900.994
944.0131, 2831.608
944.4952, 2771.679
944.9774, 2735.801
945.4595, 2700.423
945.9416, 2658.249
946.4237, 2611.536
946.9058, 2568.929
947.3879, 2530.403
947.8701, 2489.708
948.3522, 2442.903
948.8343, 2396.793
949.3164, 2359.283
949.7985, 2328.244
950.2806, 2301.283
950.7628, 2282.227
951.2449, 2260.212
951.7270, 2235.650
952.2091, 2205.961
952.6912, 2164.541
953.1733, 2111.034
953.6555, 2071.407
954.1376, 2049.304
954.6197, 2030.828
955.1018, 2001.545
955.5839, 1969.794
956.0660, 1945.019
956.5482, 1928.967
957.0303, 1913.949
957.5124, 1899.498
957.9945, 1884.555
958.4766, 1867.552
958.9587, 1849.250
959.4409, 1836.447
959.9230, 1828.686
960.4051, 1819.571
960.8872, 1805.156
961.3693, 1787.776
961.8514, 1765.797
962.3336, 1742.469
962.8157, 1727.448
963.2978, 1727.890
963.7799, 1728.328
964.2620, 1728.047
964.7441, 1724.702
965.2263, 1710.793
965.7084, 1689.056
966.1905, 1674.639
966.6726, 1673.093
967.1547, 1671.380
967.6368, 1657.566
968.1190, 1639.418
968.6011, 1625.142
969.0832, 1616.591
969.5653, 1610.192
970.0474, 1607.592
970.5295, 1603.163
971.0117, 1589.927
971.4938, 1571.403
971.9759, 1560.714
972.4580, 1557.415
972.9401, 1553.449
973.4222, 1542.321
973.9044, 1530.577
974.3865, 1520.540
974.8686, 1512.856
975.3507, 1512.192
975.8328, 1521.874
976.3149, 1524.933
976.7971, 1513.601
977.2792, 1496.765
977.7613, 1492.116
978.2434, 1493.941
978.7255, 1487.684
979.2076, 1456.843
979.6898, 1436.386
980.1719, 1451.048
980.6540, 1473.663
981.1361, 1475.476
981.6182, 1452.372
982.1003, 1436.473
982.5825, 1429.870
983.0646, 1427.043
983.5467, 1423.753
984.0288, 1420.718
984.5109, 1419.712
984.9930, 1420.828
985.4752, 1419.405
985.9573, 1412.538
986.4394, 1404.420
986.9215, 1396.036
987.4036, 1387.557
987.8857, 1380.487
988.3679, 1374.637
988.8500, 1367.688
989.3321, 1356.315
989.8142, 1346.379
990.2963, 1345.346
990.7784, 1349.100
991.2606, 1350.037
991.7427, 1344.359
992.2248, 1339.660
992.7069, 1336.359
993.1890, 1334.097
993.6711, 1333.764
994.1533, 1334.236
994.6354, 1329.995
995.1175, 1320.156
995.5996, 1311.713
996.0817, 1311.760
996.5638, 1313.060
997.0460, 1309.891
997.5281, 1302.089
998.0102, 1295.765
998.4923, 1290.753
998.9744, 1287.852
999.4565, 1287.974
999.9387, 1289.953
1000.421, 1293.014
1000.903, 1296.077
1001.385, 1296.147
1001.867, 1290.814
1002.349, 1283.541
1002.831, 1273.049
1003.313, 1262.698
1003.796, 1257.281
1004.278, 1256.981
1004.760, 1258.845
1005.242, 1263.221
1005.724, 1265.233
1006.206, 1255.738
1006.688, 1243.880
1007.170, 1240.669
1007.653, 1248.331
1008.135, 1255.134
1008.617, 1262.696
1009.099, 1264.250
1009.581, 1254.805
1010.063, 1237.602
1010.545, 1224.981
1011.027, 1216.871
1011.509, 1213.142
1011.992, 1216.003
1012.474, 1220.893
1012.956, 1228.977
1013.438, 1236.123
1013.920, 1234.203
1014.402, 1219.777
1014.884, 1207.109
1015.366, 1197.442
1015.848, 1189.419
1016.331, 1179.753
1016.813, 1171.171
1017.295, 1169.814
1017.777, 1176.720
1018.259, 1183.441
1018.741, 1188.373
1019.223, 1190.350
1019.705, 1186.996
1020.188, 1179.944
1020.670, 1183.552
1021.152, 1197.569
1021.634, 1205.574
1022.116, 1196.485
1022.598, 1183.066
1023.080, 1175.244
1023.562, 1172.438
1024.044, 1173.921
1024.527, 1185.325
1025.009, 1190.891
1025.491, 1189.032
1025.973, 1183.115
1026.455, 1173.455
1026.937, 1162.883
1027.419, 1163.054
1027.901, 1174.750
1028.384, 1183.098
1028.866, 1176.007
1029.348, 1166.297
1029.830, 1161.875
1030.312, 1161.504
1030.794, 1155.469
1031.276, 1142.587
1031.758, 1135.880
1032.240, 1142.726
1032.723, 1153.420
1033.205, 1155.404
1033.687, 1152.416
1034.169, 1150.762
1034.651, 1154.267
1035.133, 1155.540
1035.615, 1154.446
1036.097, 1150.424
1036.579, 1138.951
1037.062, 1123.061
1037.544, 1124.217
1038.026, 1142.128
1038.508, 1156.990
1038.990, 1156.142
1039.472, 1148.078
1039.954, 1132.209
1040.436, 1113.058
1040.919, 1110.406
1041.401, 1128.732
1041.883, 1142.660
1042.365, 1146.151
1042.847, 1142.488
1043.329, 1130.956
1043.811, 1117.412
1044.293, 1112.317
1044.776, 1121.803
1045.258, 1127.786
1045.740, 1124.880
1046.222, 1120.324
1046.704, 1118.536
1047.186, 1119.115
1047.668, 1119.026
1048.150, 1118.059
1048.632, 1114.352
1049.115, 1102.799
1049.597, 1092.144
1050.079, 1088.009
1050.561, 1089.065
1051.043, 1091.413
1051.525, 1095.617
1052.007, 1098.441
1052.489, 1098.958
1052.971, 1099.716
1053.454, 1106.499
1053.936, 1114.334
1054.418, 1114.508
1054.900, 1105.066
1055.382, 1096.271
1055.864, 1086.343
1056.346, 1083.800
1056.828, 1096.839
1057.311, 1118.739
1057.793, 1118.071
1058.275, 1098.254
1058.757, 1080.514
1059.239, 1072.931
1059.721, 1071.212
1060.203, 1078.306
1060.685, 1087.128
1061.167, 1087.373
1061.650, 1075.862
1062.132, 1067.148
1062.614, 1061.950
1063.096, 1058.240
1063.578, 1052.765
1064.060, 1048.581
1064.542, 1052.042
1065.024, 1062.030
1065.506, 1067.938
1065.989, 1066.036
1066.471, 1059.692
1066.953, 1046.473
1067.435, 1032.417
1067.917, 1032.836
1068.399, 1044.288
1068.881, 1052.812
1069.363, 1054.807
1069.846, 1054.380
1070.328, 1053.955
1070.810, 1051.857
1071.292, 1045.276
1071.774, 1033.584
1072.256, 1032.487
1072.738, 1042.945
1073.220, 1051.249
1073.702, 1045.158
1074.185, 1036.351
1074.667, 1041.741
1075.149, 1054.243
1075.631, 1057.552
1076.113, 1038.850
1076.595, 1026.538
1077.077, 1022.647
1077.559, 1025.317
1078.042, 1038.422
1078.524, 1055.418
1079.006, 1055.902
1079.488, 1038.862
1079.970, 1026.990
1080.452, 1041.217
1080.934, 1051.819
1081.416, 1044.935
1081.898, 1025.904
1082.380, 1010.313
1082.863, 998.3366
1083.345, 992.7645
1083.827, 995.7269
1084.309, 1001.311
1084.791, 1006.310
1085.273, 1010.218
1085.755, 1011.918
1086.237, 1010.392
1086.720, 1012.515
1087.202, 1019.566
1087.684, 1024.781
1088.166, 1021.296
1088.648, 1014.901
1089.130, 1017.152
1089.612, 1024.785
1090.094, 1028.599
1090.577, 1020.103
1091.059, 1015.617
1091.541, 1019.924
1092.023, 1025.072
1092.505, 1020.036
1092.987, 1007.362
1093.469, 996.2087
1093.951, 987.4813
1094.433, 983.4109
1094.916, 989.4450
1095.398, 996.3769
1095.880, 998.9231
1096.362, 998.4680
1096.844, 1000.911
1097.326, 1006.351
1097.808, 1007.869
1098.290, 1002.878
1098.772, 995.4518
1099.255, 986.7095
1099.737, 979.6396
1100.219, 978.5114
1100.701, 985.9197
1101.183, 989.6707
1101.665, 988.6108
1102.147, 988.1500
1102.629, 992.3962
1103.112, 998.4789
1103.594, 1001.468
1104.076, 1002.012
1104.558, 1001.864
1105.040, 1000.938
1105.522, 1000.200
1106.004, 999.3560
1106.486, 999.2885
1106.969, 1002.492
1107.451, 1007.423
1107.933, 1006.931
1108.415, 1000.890
1108.897, 993.8315
1109.379, 985.4780
1109.861, 980.0889
1110.343, 981.6745
1110.825, 986.8740
1111.307, 987.7114
1111.790, 984.2146
1112.272, 980.1149
1112.754, 975.8469
1113.236, 972.6257
1113.718, 975.0779
1114.200, 976.6237
1114.682, 967.9346
1115.164, 947.5431
1115.647, 942.3445
1116.129, 955.8605
1116.611, 967.6122
1117.093, 968.7401
1117.575, 963.3263
1118.057, 952.8340
1118.539, 941.3293
1119.021, 936.2732
1119.504, 946.4768
1119.986, 949.9538
1120.468, 943.2313
1120.950, 935.4027
1121.432, 933.7936
1121.914, 936.7096
1122.396, 941.4442
1122.878, 946.8958
1123.360, 948.3115
1123.843, 940.1118
1124.325, 931.6943
1124.807, 923.6261
1125.289, 918.3638
1125.771, 922.4830
1126.253, 933.7336
1126.735, 934.1907
1127.217, 921.5877
1127.699, 911.2852
1128.182, 917.6948
1128.664, 925.7735
1129.146, 924.8158
1129.628, 917.8386
1130.110, 916.5167
1130.592, 920.9984
1131.074, 925.4301
1131.556, 928.5967
1132.039, 930.1086
1132.521, 931.9423
1133.003, 930.5278
1133.485, 918.6455
1133.967, 892.7122
1134.449, 885.7342
1134.931, 901.2635
1135.413, 917.7198
1135.896, 926.3703
1136.378, 927.7426
1136.860, 917.6414
1137.342, 902.0752
1137.824, 891.9491
1138.306, 894.4640
1138.788, 895.1136
1139.270, 892.2840
1139.752, 890.7635
1140.234, 897.5767
1140.717, 907.3285
1141.199, 906.5230
1141.681, 897.0227
1142.163, 888.2004
1142.645, 884.1669
1143.127, 880.7949
1143.609, 877.2620
1144.091, 874.1531
1144.574, 871.6390
1145.056, 870.2781
1145.538, 859.9832
1146.020, 874.8611
1146.502, 882.7101
1146.984, 883.9070
1147.466, 858.5302
1147.948, 867.4680
1148.431, 862.6515
1148.913, 857.2738
1149.395, 871.0412
1149.877, 849.5295
1150.359, 862.9933
1150.841, 862.4957
1151.323, 868.3878
1151.805, 860.4429
1152.287, 856.7722
1152.770, 866.9400
1153.252, 869.4465
1153.734, 860.7371
1154.216, 868.5020
1154.698, 875.5789
1155.180, 879.0137
1155.662, 873.2227
1156.144, 863.6484
1156.626, 857.0380
1157.109, 853.6813
1157.591, 853.9779
1158.073, 858.4806
1158.555, 862.5336
1159.037, 863.1494
1159.519, 861.6971
1160.001, 857.6421
1160.483, 853.0651
1160.966, 853.0453
1161.448, 862.3107
1161.930, 866.5707
1162.412, 864.4728
1162.894, 860.0411
1163.376, 857.3209
1163.858, 854.5136
1164.340, 846.5945
1164.823, 835.2319
1165.305, 830.4164
1165.787, 841.4502
1166.269, 846.1467
1166.751, 839.4938
1167.233, 829.3599
1167.715, 824.9810
1168.197, 825.4263
1168.679, 830.4380
1169.161, 839.8326
1169.644, 846.2440
1170.126, 845.2491
1170.608, 843.4168
1171.090, 842.1754
1171.572, 841.3748
1172.054, 840.7467
1172.536, 840.2780
1173.018, 840.3472
1173.501, 841.4855
1173.983, 840.6038
1174.465, 833.3462
1174.947, 827.3476
1175.429, 826.2813
1175.911, 828.8504
1176.393, 829.7140
1176.875, 829.6987
1177.358, 832.8981
1177.840, 844.7345
1178.322, 850.7620
1178.804, 840.0660
1179.286, 824.9119
1179.768, 812.4177
1180.250, 802.8848
1180.732, 798.4825
1181.214, 798.9571
1181.697, 802.3251
1182.179, 810.9894
1182.661, 818.1493
1183.143, 819.8174
1183.625, 818.7354
1184.107, 816.8547
1184.589, 814.1166
1185.071, 816.1605
1185.553, 822.7653
1186.036, 828.0567
1186.518, 828.7084
1187.000, 826.2886
1187.482, 818.6147
1187.964, 809.9142
1188.446, 808.1308
1188.928, 813.8095
1189.410, 813.8808
1189.893, 807.0790
1190.375, 800.9070
1190.857, 801.3711
1191.339, 804.4747
1191.821, 810.0571
1192.303, 815.6568
1192.785, 812.6162
1193.267, 799.7029
1193.750, 797.0460
1194.232, 809.3915
1194.714, 821.0595
1195.196, 814.6279
1195.678, 804.3957
1196.160, 803.6500
1196.642, 810.9487
1197.124, 812.6287
1197.606, 808.2173
1198.089, 803.7018
1198.571, 800.7241
1199.053, 797.8442
1199.535, 790.2783
1200.017, 784.4779
1200.499, 789.7066
1200.981, 806.1283
1201.463, 811.2997
1201.945, 803.8494
1202.427, 798.6581
1202.910, 803.3819
1203.392, 807.5016
1203.874, 795.1652
1204.356, 778.5279
1204.838, 774.7307
1205.320, 787.5102
1205.802, 788.7170
1206.284, 776.9333
1206.767, 766.4599
1207.249, 764.8081
1207.731, 767.2592
1208.213, 770.1697
1208.695, 773.3084
1209.177, 776.8357
1209.659, 782.1828
1210.141, 781.2095
1210.624, 773.0975
1211.106, 764.9158
1211.588, 758.7770
1212.070, 756.8422
1212.552, 765.7870
1213.034, 779.2969
1213.516, 784.7782
1213.998, 779.2780
1214.480, 772.3776
1214.963, 763.3956
1215.445, 759.3025
1215.927, 771.6630
1216.409, 786.3813
1216.891, 788.6756
1217.373, 781.6902
1217.855, 774.2259
1218.337, 765.7138
1218.819, 761.6042
1219.302, 762.8286
1219.784, 764.6924
1220.266, 762.2892
1220.748, 759.0496
1221.230, 758.0037
1221.712, 759.1387
1222.194, 762.0178
1222.676, 767.7128
1223.159, 769.4002
1223.641, 765.5494
1224.123, 761.7385
1224.605, 763.5981
1225.087, 767.8563
1225.569, 773.3860
1226.051, 778.7372
1226.533, 777.0271
1227.016, 766.4454
1227.498, 757.7478
1227.980, 752.5477
1228.462, 751.3323
1228.944, 757.2723
1229.426, 765.4250
1229.908, 772.7253
1230.390, 778.2059
1230.872, 776.4847
1231.354, 766.3502
1231.837, 759.5117
1232.319, 759.2620
1232.801, 760.9197
1233.283, 760.2446
1233.765, 759.0286
1234.247, 758.7179
1234.729, 759.4304
1235.211, 761.8333
1235.694, 766.0493
1236.176, 769.9809
1236.658, 773.4220
1237.140, 774.7668
1237.622, 770.4256
1238.104, 764.8390
1238.586, 762.3023
1239.068, 762.6219
1239.551, 763.4270
1240.033, 764.7373
1240.515, 762.7368
1240.997, 754.4809
1241.479, 746.9438
1241.961, 748.1997
1242.443, 750.7604
1242.925, 747.1267
1243.407, 737.8012
1243.890, 731.5276
1244.372, 728.4400
1244.854, 730.6223
1245.336, 741.2509
1245.818, 752.3968
1246.300, 764.1997
1246.782, 768.9560
1247.264, 756.8593
1247.746, 729.9003
1248.229, 723.9559
1248.711, 736.5690
1249.193, 745.4486
1249.675, 737.0725
1250.157, 729.2442
1250.639, 732.6143
1251.121, 739.1085
1251.603, 743.2759
1252.086, 745.0690
1252.568, 744.1183
1253.050, 740.4117
1253.532, 733.4388
1254.014, 714.4103
1254.496, 704.6467
1254.978, 718.3424
1255.460, 737.0489
1255.943, 748.2693
1256.425, 752.3381
1256.907, 750.9816
1257.389, 744.6643
1257.871, 735.4930
1258.353, 718.1964
1258.835, 707.3163
1259.317, 707.0177
1259.799, 711.1008
1260.281, 715.8621
1260.764, 720.4229
1261.246, 720.7664
1261.728, 718.0781
1262.210, 717.0107
1262.692, 720.2374
1263.174, 724.6800
1263.656, 732.0784
1264.138, 735.9836
1264.621, 726.5306
1265.103, 711.1297
1265.585, 705.2822
1266.067, 707.2549
1266.549, 709.2595
1267.031, 710.2361
1267.513, 708.3578
1267.995, 701.9075
1268.478, 697.6277
1268.960, 705.7141
1269.442, 717.1711
1269.924, 717.2172
1270.406, 709.0551
1270.888, 705.8489
1271.370, 711.2133
1271.852, 713.4598
1272.334, 710.7703
1272.817, 710.1627
1273.299, 724.5746
1273.781, 738.6158
1274.263, 732.8014
1274.745, 713.9335
1275.227, 705.5536
1275.709, 710.5891
1276.191, 712.1365
1276.673, 708.6830
1277.156, 702.6083
1277.638, 693.2615
1278.120, 684.5104
1278.602, 676.4016
1279.084, 672.0776
1279.566, 679.7405
1280.048, 699.7044
1280.530, 712.9517
1281.013, 717.8213
1281.495, 717.6992
1281.977, 709.8553
1282.459, 703.4991
1282.941, 705.3641
1283.423, 710.1584
1283.905, 708.1482
1284.387, 701.0983
1284.870, 703.2348
1285.352, 715.0065
1285.834, 720.8875
1286.316, 703.6902
1286.798, 691.5093
1287.280, 693.7291
1287.762, 702.8304
1288.244, 709.5912
1288.726, 713.9937
1289.208, 716.9904
1289.691, 718.2939
1290.173, 714.4703
1290.655, 696.9145
1291.137, 685.4985
1291.619, 683.9252
1292.101, 687.8469
1292.583, 695.9128
1293.065, 703.3644
1293.548, 700.2861
1294.030, 687.7729
1294.512, 681.0294
1294.994, 683.0851
1295.476, 685.6594
1295.958, 687.9431
1296.440, 689.6371
1296.922, 687.5356
1297.405, 683.9424
1297.887, 683.4858
1298.369, 686.8333
1298.851, 694.7169
1299.333, 709.2447
1299.815, 712.5522
1300.297, 702.5222
1300.779, 679.1523
##END=



