##NAMES=Menezesite
##RRUFFID=R060979
##IDEAL CHEMISTRY=Ba_3_MgZr^4+^_4_Nb^5+^_12_O_42_&#183;12H_2_O
##LOCALITY=Jacupiranga mine, Cajati, Sao Paulo, Brazil
##OWNER=RRUFF
##SOURCE=Michael Scott
##DESCRIPTION=Rootbeer colored dodecahedra associated with calcite, phlogopite, clinohumite, pyrite and magnetite
##STATUS=The identification of this mineral has been confirmed only by single crystal X-ray diffraction.
##URL=rruff.info/R060979
88.74414, 238.0077
89.22626, 230.7329
89.70837, 226.2920
90.19049, 224.3801
90.67261, 223.2734
91.15472, 223.1213
91.63684, 222.9473
92.11896, 221.3919
92.60107, 217.9186
93.08319, 213.7279
93.56531, 209.7871
94.04742, 205.9623
94.52953, 203.1606
95.01165, 202.7512
95.49377, 203.2215
95.97588, 203.3204
96.45800, 202.7350
96.94012, 201.4010
97.42223, 198.9233
97.90435, 194.3310
98.38647, 190.4417
98.86858, 187.8506
99.35070, 186.4790
99.83282, 186.3949
100.3149, 188.0214
100.7971, 190.9463
101.2792, 192.6406
101.7613, 192.9959
102.2434, 191.9871
102.7255, 188.0796
103.2076, 182.8017
103.6898, 179.0993
104.1719, 179.6407
104.6540, 184.8211
105.1361, 188.2446
105.6182, 189.3311
106.1003, 189.2356
106.5824, 186.8486
107.0646, 183.1680
107.5467, 180.9093
108.0288, 183.1573
108.5109, 191.5868
108.9930, 198.0016
109.4751, 202.0128
109.9573, 204.8569
110.4394, 206.9816
110.9215, 208.5710
111.4036, 209.7126
111.8857, 210.1515
112.3678, 207.6725
112.8500, 210.7054
113.3321, 224.0313
113.8142, 239.8966
114.2963, 251.2161
114.7784, 256.1438
115.2605, 258.6731
115.7427, 265.3807
116.2248, 278.8422
116.7069, 290.4992
117.1890, 298.8704
117.6711, 305.1059
118.1532, 310.3087
118.6354, 314.6212
119.1175, 318.7712
119.5996, 323.5182
120.0817, 326.5283
120.5638, 335.1524
121.0459, 353.7755
121.5281, 379.6908
122.0102, 405.8941
122.4923, 428.0077
122.9744, 451.8576
123.4565, 488.0043
123.9386, 537.6765
124.4208, 594.0010
124.9029, 651.8442
125.3850, 712.6414
125.8671, 783.9540
126.3492, 874.0408
126.8313, 974.5545
127.3135, 1069.615
127.7956, 1156.992
128.2777, 1243.487
128.7598, 1334.421
129.2419, 1430.590
129.7240, 1528.404
130.2061, 1631.670
130.6883, 1733.337
131.1704, 1826.142
131.6525, 1912.710
132.1346, 1984.038
132.6167, 2025.630
133.0988, 2032.706
133.5810, 2032.821
134.0631, 2038.602
134.5452, 2043.040
135.0273, 2037.283
135.5094, 2015.219
135.9915, 1986.726
136.4737, 1966.665
136.9558, 1952.019
137.4379, 1955.013
137.9200, 1982.334
138.4021, 2026.627
138.8842, 2080.809
139.3664, 2140.927
139.8485, 2209.551
140.3306, 2293.058
140.8127, 2391.819
141.2948, 2507.629
141.7769, 2637.463
142.2591, 2782.254
142.7412, 2943.904
143.2233, 3125.077
143.7054, 3322.726
144.1875, 3520.510
144.6696, 3719.623
145.1517, 3916.813
145.6339, 4114.984
146.1160, 4309.670
146.5981, 4495.098
147.0802, 4668.232
147.5623, 4828.647
148.0444, 4975.536
148.5266, 5106.891
149.0087, 5223.049
149.4908, 5327.338
149.9729, 5416.643
150.4550, 5483.827
150.9371, 5523.000
151.4193, 5534.934
151.9014, 5545.770
152.3835, 5559.513
152.8656, 5568.109
153.3477, 5568.463
153.8298, 5561.926
154.3120, 5550.852
154.7941, 5536.166
155.2762, 5517.557
155.7583, 5506.175
156.2404, 5499.129
156.7225, 5501.182
157.2047, 5513.306
157.6868, 5535.878
158.1689, 5570.559
158.6510, 5620.252
159.1331, 5686.813
159.6152, 5742.914
160.0974, 5776.693
160.5795, 5812.949
161.0616, 5853.868
161.5437, 5904.362
162.0258, 5975.833
162.5079, 6080.622
162.9901, 6222.092
163.4722, 6354.760
163.9543, 6505.237
164.4364, 6625.473
164.9185, 6675.671
165.4007, 6667.186
165.8828, 6647.049
166.3649, 6654.072
166.8470, 6691.198
167.3291, 6732.020
167.8112, 6784.479
168.2933, 6833.432
168.7755, 6873.476
169.2576, 6903.194
169.7397, 6919.911
170.2218, 6920.054
170.7039, 6901.775
171.1860, 6882.973
171.6682, 6863.116
172.1503, 6843.499
172.6324, 6825.467
173.1145, 6808.891
173.5966, 6791.680
174.0787, 6772.129
174.5609, 6750.008
175.0430, 6727.036
175.5251, 6702.007
176.0072, 6677.126
176.4893, 6651.920
176.9714, 6627.123
177.4536, 6606.565
177.9357, 6593.560
178.4178, 6588.956
178.8999, 6587.718
179.3820, 6603.453
179.8641, 6612.332
180.3463, 6588.748
180.8284, 6534.501
181.3105, 6483.554
181.7926, 6463.987
182.2747, 6477.388
182.7568, 6486.445
183.2390, 6488.092
183.7211, 6487.559
184.2032, 6489.885
184.6853, 6494.870
185.1674, 6496.172
185.6495, 6485.273
186.1317, 6464.206
186.6138, 6458.761
187.0959, 6486.343
187.5780, 6517.293
188.0601, 6526.396
188.5422, 6514.030
189.0244, 6501.771
189.5065, 6509.313
189.9886, 6532.122
190.4707, 6535.585
190.9528, 6497.583
191.4349, 6455.875
191.9170, 6441.750
192.3992, 6454.511
192.8813, 6471.256
193.3634, 6476.789
193.8455, 6473.308
194.3276, 6474.500
194.8097, 6490.036
195.2919, 6503.342
195.7740, 6495.971
196.2561, 6469.928
196.7382, 6452.088
197.2203, 6463.158
197.7024, 6496.406
198.1846, 6519.061
198.6667, 6527.477
199.1488, 6527.739
199.6309, 6520.290
200.1130, 6506.078
200.5951, 6494.903
201.0773, 6493.008
201.5594, 6498.404
202.0415, 6502.391
202.5236, 6503.977
203.0057, 6505.064
203.4878, 6508.175
203.9700, 6512.614
204.4521, 6513.766
204.9342, 6509.146
205.4163, 6499.136
205.8984, 6486.706
206.3805, 6470.520
206.8627, 6453.643
207.3448, 6433.939
207.8269, 6413.437
208.3090, 6404.195
208.7911, 6418.032
209.2732, 6441.986
209.7554, 6445.585
210.2375, 6416.818
210.7196, 6390.450
211.2017, 6388.994
211.6838, 6406.952
212.1659, 6423.417
212.6480, 6429.311
213.1302, 6430.235
213.6123, 6438.431
214.0944, 6458.542
214.5765, 6473.937
215.0586, 6471.166
215.5407, 6456.903
216.0229, 6450.848
216.5050, 6461.057
216.9871, 6480.695
217.4692, 6498.769
217.9513, 6515.878
218.4334, 6530.305
218.9156, 6541.479
219.3977, 6549.499
219.8798, 6552.841
220.3619, 6548.879
220.8440, 6545.172
221.3261, 6556.536
221.8083, 6585.053
222.2904, 6607.359
222.7725, 6607.976
223.2546, 6599.339
223.7367, 6605.929
224.2188, 6636.472
224.7010, 6670.914
225.1831, 6677.016
225.6652, 6653.267
226.1473, 6643.329
226.6294, 6674.144
227.1115, 6717.739
227.5937, 6731.725
228.0758, 6706.383
228.5579, 6674.485
229.0400, 6672.996
229.5221, 6702.281
230.0042, 6729.707
230.4864, 6754.135
230.9685, 6773.037
231.4506, 6780.988
231.9327, 6777.513
232.4148, 6773.106
232.8969, 6776.999
233.3791, 6789.616
233.8612, 6802.906
234.3433, 6812.383
234.8254, 6825.439
235.3075, 6851.495
235.7896, 6889.584
236.2717, 6925.690
236.7539, 6949.503
237.2360, 6961.188
237.7181, 6973.374
238.2002, 6984.274
238.6823, 6997.126
239.1644, 7013.422
239.6466, 7033.220
240.1287, 7056.791
240.6108, 7085.779
241.0929, 7118.377
241.5750, 7144.842
242.0571, 7165.455
242.5393, 7180.881
243.0214, 7191.062
243.5035, 7196.267
243.9856, 7194.152
244.4677, 7180.854
244.9498, 7164.124
245.4320, 7172.074
245.9141, 7224.885
246.3962, 7271.965
246.8783, 7302.691
247.3604, 7321.316
247.8425, 7332.124
248.3247, 7336.312
248.8068, 7337.622
249.2889, 7344.160
249.7710, 7358.734
250.2531, 7373.794
250.7352, 7388.921
251.2174, 7404.110
251.6995, 7418.003
252.1816, 7430.389
252.6637, 7444.917
253.1458, 7467.758
253.6279, 7507.733
254.1101, 7535.545
254.5922, 7538.783
255.0743, 7538.828
255.5564, 7552.416
256.0385, 7581.045
256.5206, 7615.367
257.0027, 7646.257
257.4849, 7675.461
257.9670, 7691.700
258.4491, 7682.717
258.9312, 7674.293
259.4133, 7678.399
259.8954, 7695.143
260.3776, 7720.052
260.8597, 7751.003
261.3418, 7788.186
261.8239, 7816.583
262.3060, 7826.815
262.7881, 7838.325
263.2703, 7859.229
263.7524, 7885.265
264.2345, 7909.317
264.7166, 7927.657
265.1987, 7939.226
265.6808, 7937.723
266.1630, 7896.485
266.6451, 7874.989
267.1272, 7891.986
267.6093, 7929.145
268.0914, 7967.042
268.5735, 7997.370
269.0557, 8019.324
269.5378, 8028.672
270.0199, 8009.388
270.5020, 8008.608
270.9841, 8044.166
271.4662, 8089.333
271.9484, 8123.818
272.4305, 8142.332
272.9126, 8151.390
273.3947, 8158.345
273.8768, 8161.265
274.3589, 8169.185
274.8411, 8188.795
275.3232, 8208.900
275.8053, 8222.849
276.2874, 8230.752
276.7695, 8238.132
277.2516, 8251.505
277.7338, 8271.050
278.2159, 8284.381
278.6980, 8281.804
279.1801, 8283.874
279.6622, 8301.490
280.1443, 8331.452
280.6265, 8365.241
281.1086, 8405.051
281.5907, 8444.227
282.0728, 8454.344
282.5549, 8418.523
283.0370, 8390.023
283.5192, 8404.460
284.0013, 8440.670
284.4834, 8468.680
284.9655, 8478.132
285.4476, 8474.493
285.9297, 8461.894
286.4119, 8438.806
286.8940, 8419.252
287.3761, 8415.521
287.8582, 8415.315
288.3403, 8401.161
288.8224, 8366.164
289.3046, 8331.479
289.7867, 8318.374
290.2688, 8322.578
290.7509, 8316.632
291.2330, 8286.214
291.7151, 8250.426
292.1972, 8237.435
292.6794, 8249.755
293.1615, 8258.662
293.6436, 8250.791
294.1257, 8232.191
294.6078, 8213.037
295.0899, 8194.933
295.5721, 8177.400
296.0542, 8158.689
296.5363, 8138.500
297.0184, 8124.926
297.5005, 8125.896
297.9826, 8129.029
298.4648, 8122.074
298.9469, 8104.997
299.4290, 8087.304
299.9111, 8076.800
300.3932, 8072.603
300.8753, 8061.502
301.3575, 8031.772
301.8396, 8007.819
302.3217, 8002.722
302.8038, 8011.542
303.2859, 8023.623
303.7680, 8034.172
304.2502, 8042.684
304.7323, 8047.380
305.2144, 8050.673
305.6965, 8047.123
306.1786, 8028.515
306.6607, 8006.539
307.1429, 7995.820
307.6250, 8000.134
308.1071, 8008.470
308.5892, 8004.189
309.0713, 7983.846
309.5534, 7957.949
310.0356, 7916.663
310.5177, 7878.789
310.9998, 7858.346
311.4819, 7853.396
311.9640, 7850.171
312.4461, 7835.320
312.9283, 7808.320
313.4104, 7788.019
313.8925, 7783.383
314.3746, 7776.551
314.8567, 7762.670
315.3388, 7743.296
315.8210, 7721.397
316.3031, 7698.437
316.7852, 7674.403
317.2673, 7648.822
317.7494, 7620.151
318.2315, 7593.177
318.7137, 7568.235
319.1958, 7545.946
319.6779, 7527.596
320.1600, 7513.642
320.6421, 7501.498
321.1242, 7487.580
321.6064, 7471.609
322.0885, 7459.034
322.5706, 7452.435
323.0527, 7447.925
323.5348, 7440.540
324.0169, 7430.674
324.4991, 7425.493
324.9812, 7433.656
325.4633, 7448.915
325.9454, 7456.766
326.4275, 7455.646
326.9096, 7447.658
327.3918, 7429.069
327.8739, 7404.074
328.3560, 7386.249
328.8381, 7386.743
329.3202, 7389.065
329.8023, 7377.188
330.2845, 7352.864
330.7666, 7329.006
331.2487, 7311.903
331.7308, 7300.313
332.2129, 7290.146
332.6950, 7287.225
333.1772, 7276.997
333.6593, 7248.072
334.1414, 7210.908
334.6235, 7182.798
335.1056, 7169.158
335.5877, 7160.875
336.0698, 7143.783
336.5519, 7110.429
337.0341, 7087.704
337.5162, 7084.022
337.9983, 7084.188
338.4804, 7078.855
338.9625, 7067.354
339.4446, 7053.230
339.9268, 7039.371
340.4089, 7025.743
340.8910, 7010.800
341.3731, 6986.501
341.8552, 6969.691
342.3373, 6971.354
342.8195, 6980.980
343.3016, 6983.858
343.7837, 6973.051
344.2658, 6951.977
344.7479, 6925.038
345.2300, 6882.366
345.7122, 6858.589
346.1943, 6879.799
346.6764, 6906.302
347.1585, 6908.402
347.6406, 6882.823
348.1227, 6851.127
348.6049, 6833.789
349.0870, 6829.805
349.5691, 6821.186
350.0512, 6801.950
350.5333, 6785.150
351.0154, 6783.580
351.4976, 6790.998
351.9797, 6790.803
352.4618, 6773.278
352.9439, 6746.013
353.4260, 6718.613
353.9081, 6690.929
354.3903, 6665.155
354.8724, 6642.326
355.3545, 6622.454
355.8366, 6604.257
356.3187, 6586.310
356.8008, 6573.026
357.2830, 6573.411
357.7651, 6579.341
358.2472, 6571.915
358.7293, 6544.581
359.2114, 6510.087
359.6935, 6485.562
360.1757, 6474.642
360.6578, 6460.721
361.1399, 6440.790
361.6220, 6419.618
362.1041, 6399.710
362.5862, 6381.655
363.0684, 6365.724
363.5505, 6352.192
364.0326, 6341.060
364.5147, 6332.390
364.9968, 6332.714
365.4789, 6327.850
365.9611, 6310.029
366.4432, 6287.726
366.9253, 6271.118
367.4074, 6264.071
367.8895, 6262.876
368.3716, 6262.616
368.8538, 6265.508
369.3359, 6262.279
369.8180, 6242.969
370.3001, 6224.986
370.7822, 6220.783
371.2643, 6227.754
371.7465, 6231.679
372.2286, 6219.893
372.7107, 6196.128
373.1928, 6175.703
373.6749, 6157.036
374.1570, 6145.326
374.6392, 6152.777
375.1213, 6166.296
375.6034, 6166.287
376.0855, 6143.018
376.5676, 6114.383
377.0497, 6096.918
377.5319, 6088.725
378.0140, 6078.786
378.4961, 6062.193
378.9782, 6044.804
379.4603, 6038.626
379.9424, 6045.962
380.4246, 6043.776
380.9066, 6019.227
381.3888, 5987.332
381.8709, 5962.792
382.3530, 5947.009
382.8351, 5934.276
383.3172, 5920.165
383.7993, 5904.809
384.2815, 5891.989
384.7636, 5886.204
385.2457, 5877.499
385.7278, 5860.315
386.2099, 5839.517
386.6920, 5823.120
387.1742, 5814.153
387.6563, 5807.310
388.1384, 5789.842
388.6205, 5747.331
389.1026, 5730.777
389.5847, 5770.635
390.0669, 5810.197
390.5490, 5814.889
391.0311, 5789.633
391.5132, 5763.429
391.9953, 5758.617
392.4774, 5770.183
392.9596, 5775.449
393.4417, 5770.833
393.9238, 5768.289
394.4059, 5775.685
394.8880, 5787.101
395.3701, 5796.632
395.8523, 5804.055
396.3344, 5806.223
396.8165, 5798.521
397.2986, 5782.726
397.7807, 5766.217
398.2628, 5750.092
398.7450, 5735.269
399.2271, 5722.797
399.7092, 5712.438
400.1913, 5704.727
400.6734, 5709.805
401.1555, 5710.015
401.6377, 5683.569
402.1198, 5636.298
402.6019, 5596.272
403.0840, 5582.129
403.5661, 5588.215
404.0482, 5589.207
404.5304, 5582.026
405.0125, 5573.701
405.4946, 5561.334
405.9767, 5550.159
406.4588, 5546.960
406.9409, 5552.382
407.4231, 5559.823
407.9052, 5564.049
408.3873, 5566.702
408.8694, 5551.940
409.3515, 5495.998
409.8336, 5448.581
410.3158, 5428.147
410.7979, 5428.694
411.2800, 5439.601
411.7621, 5458.913
412.2442, 5480.586
412.7263, 5496.448
413.2085, 5506.445
413.6906, 5508.464
414.1727, 5493.417
414.6548, 5477.826
415.1369, 5486.860
415.6190, 5523.330
416.1012, 5543.314
416.5833, 5510.772
417.0654, 5459.006
417.5475, 5437.611
418.0296, 5450.740
418.5117, 5468.348
418.9939, 5469.817
419.4760, 5456.364
419.9581, 5440.275
420.4402, 5414.084
420.9223, 5394.454
421.4044, 5393.285
421.8866, 5398.760
422.3687, 5391.597
422.8508, 5366.927
423.3329, 5340.952
423.8150, 5340.453
424.2971, 5378.584
424.7793, 5392.737
425.2614, 5357.466
425.7435, 5323.069
426.2256, 5312.929
426.7077, 5318.595
427.1898, 5318.205
427.6719, 5297.436
428.1541, 5268.039
428.6362, 5257.921
429.1183, 5272.396
429.6004, 5276.979
430.0825, 5252.249
430.5646, 5220.097
431.0468, 5201.831
431.5289, 5198.767
432.0110, 5200.990
432.4931, 5211.487
432.9752, 5221.346
433.4573, 5211.620
433.9395, 5180.288
434.4216, 5151.847
434.9037, 5144.677
435.3858, 5155.622
435.8679, 5160.833
436.3500, 5162.283
436.8322, 5156.595
437.3143, 5137.228
437.7964, 5112.399
438.2785, 5091.086
438.7606, 5076.357
439.2427, 5068.708
439.7249, 5070.808
440.2070, 5086.722
440.6891, 5091.997
441.1712, 5079.368
441.6533, 5062.928
442.1354, 5044.057
442.6176, 5025.088
443.0997, 5008.877
443.5818, 4996.208
444.0639, 4988.201
444.5460, 4989.896
445.0281, 5002.763
445.5103, 5007.831
445.9924, 4998.968
446.4745, 4981.635
446.9566, 4955.779
447.4387, 4922.365
447.9208, 4904.625
448.4030, 4929.336
448.8851, 4963.238
449.3672, 4962.003
449.8493, 4927.563
450.3314, 4896.961
450.8135, 4892.717
451.2957, 4906.441
451.7778, 4908.796
452.2599, 4894.510
452.7420, 4877.099
453.2241, 4854.864
453.7062, 4831.998
454.1884, 4811.460
454.6705, 4794.074
455.1526, 4779.993
455.6347, 4769.971
456.1168, 4763.730
456.5989, 4755.569
457.0811, 4744.150
457.5632, 4732.465
458.0453, 4718.094
458.5274, 4705.357
459.0095, 4700.894
459.4916, 4707.188
459.9738, 4714.043
460.4559, 4709.210
460.9380, 4695.638
461.4201, 4689.514
461.9022, 4695.665
462.3843, 4702.385
462.8665, 4700.097
463.3486, 4689.629
463.8307, 4675.958
464.3128, 4650.877
464.7949, 4631.395
465.2770, 4635.326
465.7592, 4650.923
466.2413, 4649.895
466.7234, 4621.680
467.2055, 4588.122
467.6876, 4585.584
468.1697, 4632.137
468.6519, 4654.978
469.1340, 4640.597
469.6161, 4619.124
470.0982, 4599.751
470.5803, 4583.730
471.0624, 4570.763
471.5445, 4561.047
472.0266, 4553.124
472.5088, 4544.693
472.9909, 4535.954
473.4730, 4524.591
473.9551, 4506.859
474.4372, 4489.537
474.9193, 4478.276
475.4015, 4472.807
475.8836, 4470.091
476.3657, 4469.345
476.8478, 4470.583
477.3299, 4474.901
477.8120, 4481.750
478.2942, 4487.946
478.7763, 4492.162
479.2584, 4494.271
479.7405, 4493.815
480.2226, 4488.642
480.7047, 4484.430
481.1869, 4484.121
481.6690, 4482.691
482.1511, 4474.482
482.6332, 4461.230
483.1153, 4449.791
483.5974, 4444.882
484.0796, 4446.077
484.5617, 4452.416
485.0438, 4465.849
485.5259, 4479.547
486.0080, 4498.698
486.4901, 4512.604
486.9723, 4508.473
487.4544, 4485.602
487.9365, 4464.562
488.4186, 4459.220
488.9007, 4462.793
489.3828, 4463.179
489.8650, 4459.630
490.3471, 4458.466
490.8292, 4463.833
491.3113, 4474.167
491.7934, 4484.283
492.2755, 4503.681
492.7577, 4508.665
493.2398, 4481.930
493.7219, 4448.257
494.2040, 4430.967
494.6861, 4431.857
495.1682, 4439.255
495.6504, 4444.307
496.1325, 4446.884
496.6146, 4444.990
497.0967, 4433.452
497.5788, 4427.239
498.0609, 4434.220
498.5431, 4445.578
499.0252, 4453.655
499.5073, 4457.204
499.9894, 4459.703
500.4715, 4464.218
500.9536, 4469.215
501.4358, 4470.937
501.9179, 4468.934
502.4000, 4466.468
502.8821, 4465.132
503.3642, 4465.060
503.8463, 4466.848
504.3285, 4472.246
504.8106, 4476.714
505.2927, 4480.458
505.7748, 4482.272
506.2569, 4480.008
506.7390, 4474.046
507.2212, 4467.328
507.7033, 4461.917
508.1854, 4458.083
508.6675, 4458.102
509.1496, 4463.898
509.6317, 4470.019
510.1139, 4471.587
510.5960, 4474.849
511.0781, 4488.849
511.5602, 4514.641
512.0423, 4535.177
512.5244, 4533.350
513.0065, 4520.295
513.4886, 4519.668
513.9708, 4533.241
514.4529, 4544.498
514.9350, 4542.723
515.4171, 4531.786
515.8992, 4524.938
516.3813, 4520.940
516.8635, 4522.296
517.3456, 4534.919
517.8277, 4549.135
518.3098, 4557.688
518.7919, 4559.563
519.2740, 4555.860
519.7562, 4546.145
520.2383, 4532.737
520.7204, 4525.321
521.2025, 4523.420
521.6846, 4528.701
522.1667, 4557.585
522.6489, 4583.050
523.1310, 4576.420
523.6131, 4537.757
524.0952, 4508.806
524.5773, 4520.232
525.0594, 4548.345
525.5416, 4561.974
526.0237, 4561.000
526.5058, 4555.955
526.9879, 4551.579
527.4700, 4547.429
527.9521, 4541.822
528.4343, 4526.616
528.9164, 4525.776
529.3985, 4556.976
529.8806, 4587.100
530.3627, 4591.574
530.8448, 4576.738
531.3270, 4564.086
531.8091, 4566.462
532.2912, 4577.535
532.7733, 4584.654
533.2554, 4587.600
533.7375, 4587.424
534.2197, 4580.746
534.7018, 4575.143
535.1839, 4580.092
535.6660, 4593.403
536.1481, 4600.889
536.6302, 4589.658
537.1124, 4579.188
537.5945, 4588.558
538.0766, 4610.487
538.5587, 4625.516
539.0408, 4626.599
539.5229, 4620.084
540.0051, 4614.477
540.4872, 4608.562
540.9693, 4608.817
541.4514, 4624.825
541.9335, 4636.671
542.4156, 4635.275
542.8978, 4626.488
543.3799, 4618.585
543.8620, 4614.296
544.3441, 4613.276
544.8262, 4615.669
545.3083, 4621.201
545.7905, 4630.570
546.2726, 4646.395
546.7547, 4655.048
547.2368, 4640.942
547.7189, 4610.164
548.2010, 4596.968
548.6832, 4620.539
549.1653, 4637.227
549.6474, 4630.678
550.1295, 4613.869
550.6116, 4596.999
551.0938, 4584.046
551.5759, 4580.273
552.0580, 4591.426
552.5401, 4615.620
553.0222, 4641.637
553.5043, 4676.137
553.9865, 4697.693
554.4686, 4690.690
554.9507, 4673.806
555.4328, 4658.298
555.9149, 4645.383
556.3970, 4640.813
556.8792, 4656.506
557.3613, 4676.309
557.8434, 4678.295
558.3255, 4664.725
558.8076, 4651.397
559.2897, 4645.077
559.7719, 4645.481
560.2540, 4653.347
560.7361, 4677.323
561.2182, 4687.495
561.7003, 4671.395
562.1824, 4655.707
562.6646, 4652.121
563.1467, 4658.343
563.6288, 4669.907
564.1109, 4686.356
564.5930, 4699.672
565.0751, 4696.443
565.5573, 4678.833
566.0394, 4665.575
566.5215, 4659.588
567.0036, 4658.227
567.4857, 4660.710
567.9678, 4666.518
568.4500, 4671.017
568.9321, 4673.371
569.4142, 4675.538
569.8963, 4681.111
570.3784, 4685.243
570.8605, 4680.516
571.3427, 4667.140
571.8248, 4652.900
572.3069, 4643.645
572.7890, 4639.765
573.2711, 4644.613
573.7532, 4661.740
574.2354, 4678.035
574.7175, 4694.278
575.1996, 4704.421
575.6817, 4697.009
576.1638, 4672.486
576.6459, 4659.756
577.1281, 4684.294
577.6102, 4714.338
578.0923, 4714.865
578.5744, 4693.735
579.0565, 4680.392
579.5386, 4687.235
580.0208, 4704.068
580.5029, 4715.228
580.9850, 4720.685
581.4671, 4720.314
581.9492, 4703.335
582.4313, 4691.867
582.9134, 4698.036
583.3955, 4712.077
583.8776, 4718.914
584.3597, 4713.575
584.8419, 4705.418
585.3240, 4699.652
585.8061, 4697.471
586.2882, 4706.278
586.7703, 4727.240
587.2524, 4738.026
587.7346, 4720.223
588.2167, 4683.832
588.6988, 4667.382
589.1809, 4692.521
589.6630, 4707.729
590.1451, 4710.866
590.6273, 4704.650
591.1094, 4681.909
591.5915, 4650.978
592.0736, 4633.906
592.5557, 4645.610
593.0378, 4671.912
593.5200, 4693.977
594.0021, 4711.410
594.4842, 4709.537
594.9663, 4677.485
595.4484, 4644.252
595.9305, 4640.944
596.4127, 4664.709
596.8948, 4670.353
597.3769, 4631.700
597.8590, 4605.248
598.3411, 4619.733
598.8232, 4651.291
599.3054, 4674.788
599.7875, 4684.410
600.2696, 4684.268
600.7517, 4675.351
601.2338, 4660.841
601.7159, 4655.154
602.1981, 4659.160
602.6802, 4669.607
603.1623, 4694.596
603.6444, 4717.469
604.1265, 4717.090
604.6086, 4693.946
605.0908, 4673.941
605.5729, 4661.251
606.0550, 4655.458
606.5371, 4659.830
607.0192, 4670.165
607.5013, 4680.382
607.9835, 4687.942
608.4656, 4688.869
608.9477, 4674.109
609.4298, 4642.527
609.9119, 4633.357
610.3940, 4662.519
610.8762, 4685.063
611.3583, 4671.951
611.8404, 4649.487
612.3225, 4649.226
612.8046, 4676.895
613.2867, 4697.787
613.7689, 4694.485
614.2510, 4678.300
614.7331, 4658.589
615.2152, 4636.744
615.6973, 4611.560
616.1794, 4581.614
616.6616, 4557.053
617.1437, 4558.749
617.6258, 4596.518
618.1079, 4619.659
618.5900, 4618.080
619.0721, 4613.762
619.5543, 4616.270
620.0364, 4621.012
620.5185, 4620.523
621.0006, 4612.234
621.4827, 4603.870
621.9648, 4600.634
622.4470, 4600.068
622.9291, 4600.710
623.4112, 4601.329
623.8933, 4594.127
624.3754, 4572.902
624.8575, 4547.550
625.3397, 4544.892
625.8218, 4584.386
626.3039, 4600.443
626.7860, 4561.972
627.2681, 4530.335
627.7502, 4537.805
628.2324, 4568.318
628.7145, 4591.520
629.1966, 4597.695
629.6787, 4596.664
630.1608, 4598.930
630.6429, 4598.396
631.1251, 4576.436
631.6072, 4533.575
632.0893, 4500.866
632.5714, 4500.045
633.0535, 4521.635
633.5356, 4536.000
634.0178, 4540.635
634.4999, 4542.777
634.9820, 4540.719
635.4641, 4538.144
635.9462, 4537.742
636.4283, 4538.098
636.9105, 4536.400
637.3926, 4532.499
637.8747, 4523.802
638.3568, 4503.560
638.8389, 4477.729
639.3210, 4459.713
639.8032, 4451.246
640.2853, 4445.660
640.7674, 4438.075
641.2495, 4430.083
641.7316, 4428.399
642.2137, 4437.412
642.6959, 4444.645
643.1780, 4455.951
643.6601, 4459.436
644.1422, 4443.377
644.6243, 4414.658
645.1064, 4389.124
645.5886, 4370.582
646.0707, 4361.933
646.5528, 4374.980
647.0349, 4398.022
647.5170, 4402.681
647.9991, 4385.655
648.4813, 4367.027
648.9634, 4361.399
649.4455, 4364.832
649.9276, 4361.049
650.4097, 4343.391
650.8918, 4331.582
651.3740, 4325.419
651.8561, 4326.381
652.3382, 4341.943
652.8203, 4364.828
653.3024, 4377.985
653.7845, 4374.775
654.2667, 4362.646
654.7488, 4340.729
655.2309, 4316.172
655.7130, 4302.898
656.1951, 4302.402
656.6772, 4309.378
657.1594, 4321.612
657.6415, 4335.503
658.1236, 4338.165
658.6057, 4323.868
659.0878, 4311.928
659.5699, 4304.380
660.0521, 4298.969
660.5342, 4299.454
661.0163, 4300.739
661.4984, 4290.128
661.9805, 4258.221
662.4626, 4228.516
662.9448, 4218.971
663.4269, 4219.934
663.9090, 4217.420
664.3911, 4210.354
664.8732, 4204.858
665.3553, 4205.096
665.8375, 4208.271
666.3196, 4206.577
666.8017, 4197.811
667.2838, 4192.170
667.7659, 4190.222
668.2480, 4191.753
668.7302, 4201.794
669.2123, 4213.902
669.6944, 4214.619
670.1765, 4197.787
670.6586, 4180.264
671.1407, 4168.478
671.6229, 4160.598
672.1050, 4155.146
672.5870, 4151.757
673.0692, 4150.995
673.5513, 4153.388
674.0334, 4155.799
674.5155, 4149.352
674.9976, 4132.087
675.4797, 4131.382
675.9619, 4158.674
676.4440, 4181.310
676.9261, 4174.920
677.4082, 4153.840
677.8903, 4147.429
678.3724, 4161.452
678.8546, 4173.674
679.3367, 4181.105
679.8188, 4182.716
680.3009, 4172.996
680.7830, 4157.665
681.2651, 4150.004
681.7473, 4155.295
682.2294, 4161.354
682.7115, 4148.264
683.1936, 4120.190
683.6757, 4109.251
684.1578, 4119.567
684.6400, 4127.579
685.1221, 4119.338
685.6042, 4106.218
686.0863, 4109.812
686.5684, 4137.512
687.0505, 4155.141
687.5327, 4155.584
688.0148, 4152.884
688.4969, 4152.308
688.9790, 4152.643
689.4611, 4151.888
689.9432, 4149.528
690.4254, 4146.065
690.9075, 4138.644
691.3896, 4131.647
691.8717, 4135.490
692.3538, 4149.311
692.8359, 4165.079
693.3181, 4180.933
693.8002, 4192.962
694.2823, 4195.772
694.7644, 4188.623
695.2465, 4182.150
695.7286, 4174.312
696.2108, 4169.971
696.6929, 4167.999
697.1750, 4171.116
697.6571, 4186.748
698.1392, 4212.096
698.6213, 4228.323
699.1035, 4215.051
699.5856, 4200.012
700.0677, 4215.238
700.5498, 4246.121
701.0319, 4260.588
701.5140, 4252.586
701.9962, 4237.572
702.4783, 4228.356
702.9604, 4223.831
703.4425, 4218.012
703.9246, 4208.391
704.4067, 4206.536
704.8889, 4221.252
705.3710, 4235.962
705.8531, 4234.399
706.3352, 4222.896
706.8173, 4220.965
707.2994, 4236.911
707.7816, 4253.474
708.2637, 4264.815
708.7458, 4273.796
709.2279, 4284.564
709.7100, 4295.558
710.1921, 4300.698
710.6743, 4296.401
711.1564, 4287.422
711.6385, 4277.966
712.1206, 4269.091
712.6027, 4272.651
713.0848, 4291.927
713.5670, 4309.019
714.0491, 4313.023
714.5312, 4309.241
715.0133, 4310.120
715.4954, 4319.687
715.9775, 4323.950
716.4597, 4315.985
716.9418, 4310.476
717.4239, 4314.498
717.9060, 4324.449
718.3881, 4336.583
718.8702, 4349.880
719.3524, 4359.417
719.8345, 4360.036
720.3166, 4356.041
720.7987, 4349.505
721.2808, 4343.173
721.7629, 4349.172
722.2451, 4371.655
722.7272, 4396.086
723.2093, 4406.207
723.6914, 4402.281
724.1735, 4387.106
724.6556, 4351.915
725.1378, 4326.778
725.6199, 4323.980
726.1020, 4329.854
726.5841, 4332.504
727.0662, 4332.668
727.5483, 4335.354
728.0305, 4344.168
728.5126, 4352.468
728.9947, 4361.414
729.4768, 4366.028
729.9589, 4354.529
730.4410, 4332.053
730.9232, 4322.172
731.4053, 4342.760
731.8874, 4370.170
732.3695, 4355.017
732.8516, 4306.825
733.3337, 4297.267
733.8159, 4339.673
734.2980, 4380.171
734.7801, 4384.586
735.2622, 4364.562
735.7443, 4350.407
736.2264, 4345.299
736.7086, 4338.749
737.1907, 4323.979
737.6728, 4315.346
738.1549, 4325.368
738.6370, 4341.725
739.1191, 4346.080
739.6013, 4334.397
740.0834, 4322.556
740.5655, 4321.160
741.0476, 4321.898
741.5297, 4313.970
742.0118, 4301.675
742.4940, 4297.677
742.9761, 4305.111
743.4582, 4313.396
743.9403, 4311.118
744.4224, 4300.420
744.9045, 4291.093
745.3867, 4282.295
745.8688, 4281.460
746.3509, 4295.312
746.8330, 4308.272
747.3151, 4301.821
747.7972, 4278.990
748.2794, 4272.741
748.7615, 4300.051
749.2436, 4319.326
749.7257, 4318.816
750.2078, 4313.610
750.6899, 4312.119
751.1721, 4315.452
751.6542, 4326.466
752.1363, 4350.376
752.6184, 4363.863
753.1005, 4331.727
753.5826, 4282.041
754.0648, 4268.032
754.5469, 4287.785
755.0290, 4306.912
755.5111, 4309.354
755.9932, 4303.616
756.4753, 4301.855
756.9575, 4304.117
757.4396, 4311.346
757.9217, 4326.547
758.4038, 4339.071
758.8859, 4347.019
759.3680, 4349.138
759.8502, 4338.144
760.3323, 4314.200
760.8144, 4307.762
761.2965, 4341.542
761.7786, 4368.003
762.2607, 4365.632
762.7428, 4352.625
763.2249, 4342.971
763.7070, 4340.146
764.1891, 4347.256
764.6713, 4370.816
765.1534, 4393.525
765.6355, 4391.230
766.1176, 4374.018
766.5997, 4366.523
767.0818, 4371.277
767.5640, 4379.145
768.0461, 4384.955
768.5282, 4389.834
769.0103, 4395.547
769.4924, 4401.501
769.9745, 4411.791
770.4567, 4426.064
770.9388, 4446.294
771.4209, 4485.813
771.9030, 4523.193
772.3851, 4519.053
772.8672, 4467.341
773.3494, 4442.878
773.8315, 4479.229
774.3136, 4514.779
774.7957, 4524.506
775.2778, 4521.059
775.7599, 4516.425
776.2421, 4513.611
776.7242, 4513.477
777.2063, 4516.263
777.6884, 4522.331
778.1705, 4535.241
778.6526, 4551.167
779.1348, 4557.707
779.6169, 4554.928
780.0990, 4561.086
780.5811, 4589.174
781.0632, 4625.832
781.5453, 4637.454
782.0275, 4619.147
782.5096, 4618.526
782.9917, 4644.889
783.4738, 4669.636
783.9559, 4680.474
784.4380, 4681.440
784.9202, 4676.073
785.4023, 4661.426
785.8844, 4658.562
786.3665, 4671.836
786.8486, 4692.723
787.3307, 4730.742
787.8129, 4766.586
788.2950, 4777.865
788.7771, 4765.875
789.2592, 4751.008
789.7413, 4737.620
790.2234, 4734.221
790.7056, 4761.530
791.1877, 4799.163
791.6698, 4805.422
792.1519, 4781.645
792.6340, 4763.732
793.1161, 4772.971
793.5983, 4795.514
794.0804, 4807.589
794.5625, 4809.555
795.0446, 4810.768
795.5267, 4812.331
796.0089, 4807.671
796.4910, 4789.034
796.9731, 4771.247
797.4552, 4778.514
797.9373, 4815.751
798.4194, 4839.610
798.9016, 4833.489
799.3837, 4835.163
799.8658, 4864.273
800.3479, 4892.933
800.8300, 4890.500
801.3121, 4864.965
801.7943, 4857.053
802.2764, 4893.100
802.7585, 4924.935
803.2406, 4921.608
803.7227, 4904.660
804.2048, 4895.202
804.6870, 4893.565
805.1691, 4891.481
805.6512, 4885.242
806.1333, 4883.024
806.6154, 4899.683
807.0975, 4927.151
807.5797, 4937.921
808.0618, 4933.301
808.5439, 4935.973
809.0260, 4953.963
809.5081, 4980.844
809.9902, 5012.484
810.4724, 5046.676
810.9545, 5053.192
811.4366, 5019.008
811.9187, 4993.943
812.4008, 4990.295
812.8829, 4992.259
813.3651, 4987.062
813.8472, 4978.528
814.3293, 4978.445
814.8114, 4990.408
815.2935, 5003.714
815.7756, 5025.599
816.2578, 5039.330
816.7399, 5023.692
817.2220, 4998.755
817.7041, 4998.587
818.1862, 5029.481
818.6683, 5058.568
819.1505, 5070.108
819.6326, 5066.435
820.1147, 5039.598
820.5968, 5002.432
821.0789, 4977.553
821.5610, 4970.337
822.0432, 4980.613
822.5253, 5011.293
823.0074, 5049.642
823.4895, 5069.696
823.9716, 5072.552
824.4537, 5065.951
824.9359, 5048.821
825.4180, 5043.477
825.9001, 5064.940
826.3822, 5096.626
826.8643, 5108.347
827.3464, 5096.296
827.8286, 5089.837
828.3107, 5091.806
828.7928, 5094.439
829.2749, 5095.672
829.7570, 5096.690
830.2391, 5099.462
830.7213, 5103.365
831.2034, 5104.144
831.6855, 5096.969
832.1676, 5092.479
832.6497, 5097.598
833.1318, 5102.552
833.6140, 5095.329
834.0961, 5082.983
834.5782, 5082.585
835.0603, 5100.535
835.5424, 5119.402
836.0245, 5122.406
836.5067, 5122.739
836.9888, 5139.293
837.4709, 5165.807
837.9530, 5186.294
838.4351, 5196.447
838.9172, 5200.423
839.3994, 5200.692
839.8815, 5199.062
840.3636, 5200.590
840.8457, 5204.794
841.3278, 5202.064
841.8099, 5189.422
842.2921, 5194.961
842.7742, 5241.509
843.2563, 5303.226
843.7384, 5323.830
844.2205, 5293.989
844.7026, 5271.456
845.1848, 5250.839
845.6669, 5248.962
846.1490, 5284.441
846.6311, 5329.415
847.1132, 5351.356
847.5953, 5352.291
848.0775, 5360.012
848.5596, 5381.489
849.0417, 5401.571
849.5238, 5426.584
850.0059, 5440.944
850.4880, 5422.258
850.9702, 5387.132
851.4523, 5372.605
851.9343, 5391.285
852.4164, 5411.854
852.8986, 5419.466
853.3807, 5419.928
853.8628, 5412.396
854.3449, 5403.800
854.8270, 5409.544
855.3091, 5429.921
855.7913, 5444.389
856.2734, 5435.082
856.7555, 5416.903
857.2376, 5411.351
857.7197, 5416.764
858.2018, 5433.647
858.6840, 5459.428
859.1661, 5469.897
859.6482, 5450.415
860.1303, 5422.377
860.6124, 5423.643
861.0945, 5453.117
861.5767, 5471.931
862.0588, 5479.563
862.5409, 5478.273
863.0230, 5466.616
863.5051, 5451.287
863.9872, 5437.238
864.4694, 5425.232
864.9515, 5420.609
865.4336, 5427.781
865.9157, 5433.862
866.3978, 5443.209
866.8799, 5445.362
867.3621, 5426.372
867.8442, 5401.025
868.3263, 5394.904
868.8084, 5412.998
869.2905, 5424.733
869.7726, 5417.215
870.2548, 5411.936
870.7369, 5419.273
871.2190, 5431.654
871.7011, 5444.635
872.1832, 5455.411
872.6653, 5457.510
873.1475, 5446.305
873.6296, 5431.421
874.1117, 5414.697
874.5938, 5401.098
875.0759, 5397.193
875.5580, 5400.716
876.0402, 5405.718
876.5223, 5410.240
877.0044, 5416.384
877.4865, 5427.977
877.9686, 5440.707
878.4507, 5444.782
878.9329, 5443.609
879.4150, 5450.332
879.8971, 5466.081
880.3792, 5476.316
880.8613, 5470.348
881.3434, 5462.553
881.8256, 5489.399
882.3077, 5547.184
882.7898, 5563.364
883.2719, 5531.775
883.7540, 5503.830
884.2361, 5497.573
884.7183, 5501.345
885.2004, 5501.473
885.6825, 5499.783
886.1646, 5514.425
886.6467, 5554.011
887.1288, 5584.868
887.6110, 5596.247
888.0931, 5610.431
888.5752, 5647.354
889.0573, 5691.805
889.5394, 5712.056
890.0215, 5700.857
890.5037, 5692.520
890.9858, 5680.683
891.4679, 5679.906
891.9500, 5698.436
892.4321, 5725.889
892.9142, 5760.916
893.3964, 5797.904
893.8785, 5816.806
894.3606, 5802.564
894.8427, 5793.023
895.3248, 5804.125
895.8069, 5821.004
896.2891, 5834.860
896.7712, 5846.415
897.2533, 5857.652
897.7354, 5869.185
898.2175, 5881.402
898.6996, 5894.711
899.1818, 5908.601
899.6639, 5926.572
900.1460, 5942.603
900.6281, 5942.770
901.1102, 5932.071
901.5923, 5930.647
902.0745, 5947.760
902.5566, 5974.829
903.0387, 6010.680
903.5208, 6045.770
904.0029, 6056.677
904.4850, 6049.738
904.9672, 6048.979
905.4493, 6060.133
905.9314, 6073.850
906.4135, 6081.752
906.8956, 6091.272
907.3777, 6124.935
907.8599, 6178.090
908.3420, 6206.867
908.8241, 6207.701
909.3062, 6208.204
909.7883, 6220.314
910.2704, 6233.986
910.7526, 6234.558
911.2347, 6224.857
911.7168, 6233.973
912.1989, 6267.557
912.6810, 6288.520
913.1631, 6290.418
913.6453, 6278.119
914.1274, 6245.980
914.6095, 6211.830
915.0916, 6219.275
915.5737, 6282.324
916.0558, 6318.536
916.5380, 6317.617
917.0201, 6308.431
917.5022, 6288.240
917.9843, 6273.342
918.4664, 6282.901
918.9485, 6311.483
919.4307, 6329.724
919.9128, 6335.383
920.3949, 6334.576
920.8770, 6318.120
921.3591, 6306.123
921.8412, 6306.909
922.3234, 6316.821
922.8055, 6336.730
923.2876, 6364.997
923.7697, 6377.578
924.2518, 6349.881
924.7339, 6332.287
925.2161, 6355.386
925.6982, 6380.412
926.1803, 6369.666
926.6624, 6340.773
927.1445, 6334.853
927.6266, 6362.828
928.1088, 6386.123
928.5909, 6382.284
929.0730, 6372.199
929.5551, 6370.679
930.0372, 6370.250
930.5193, 6357.655
931.0015, 6336.581
931.4836, 6324.664
931.9657, 6331.349
932.4478, 6337.999
932.9299, 6325.405
933.4120, 6308.425
933.8942, 6305.848
934.3763, 6311.904
934.8584, 6312.169
935.3405, 6304.755
935.8226, 6300.840
936.3047, 6311.342
936.7869, 6318.895
937.2690, 6292.674
937.7511, 6251.145
938.2332, 6233.657
938.7153, 6237.256
939.1974, 6238.102
939.6796, 6228.009
940.1617, 6216.494
940.6438, 6212.410
941.1259, 6213.519
941.6080, 6218.235
942.0901, 6224.082
942.5722, 6221.445
943.0543, 6208.962
943.5364, 6184.457
944.0186, 6146.043
944.5007, 6108.914
944.9828, 6095.706
945.4649, 6102.041
945.9470, 6105.025
946.4291, 6105.148
946.9113, 6117.606
947.3934, 6146.211
947.8755, 6169.293
948.3576, 6171.262
948.8397, 6162.454
949.3218, 6164.893
949.8040, 6178.927
950.2861, 6185.795
950.7682, 6184.156
951.2503, 6185.787
951.7324, 6194.926
952.2145, 6203.929
952.6967, 6205.399
953.1788, 6202.455
953.6609, 6204.621
954.1430, 6210.461
954.6251, 6232.954
955.1072, 6283.608
955.5894, 6312.625
956.0715, 6293.424
956.5536, 6260.426
957.0357, 6251.599
957.5178, 6263.718
957.9999, 6269.072
958.4821, 6259.229
958.9642, 6267.672
959.4463, 6310.123
959.9284, 6344.535
960.4105, 6343.298
960.8926, 6331.864
961.3748, 6346.835
961.8569, 6388.763
962.3390, 6427.081
962.8211, 6469.022
963.3032, 6493.700
963.7853, 6484.648
964.2675, 6475.528
964.7496, 6485.736
965.2317, 6507.265
965.7138, 6527.749
966.1959, 6548.337
966.6780, 6560.264
967.1602, 6550.459
967.6423, 6550.345
968.1244, 6571.530
968.6065, 6597.518
969.0886, 6616.463
969.5707, 6632.514
970.0529, 6656.792
970.5350, 6693.484
971.0171, 6723.511
971.4992, 6743.723
971.9813, 6759.227
972.4634, 6760.618
972.9456, 6767.297
973.4277, 6804.825
973.9098, 6860.115
974.3919, 6890.346
974.8740, 6878.061
975.3561, 6878.192
975.8383, 6908.539
976.3204, 6942.303
976.8025, 6970.940
977.2846, 6996.433
977.7667, 7017.551
978.2488, 7037.443
978.7310, 7069.046
979.2131, 7123.834
979.6952, 7169.083
980.1773, 7188.088
980.6594, 7205.446
981.1415, 7234.748
981.6237, 7268.830
982.1058, 7294.241
982.5879, 7314.000
983.0700, 7352.112
983.5521, 7438.378
984.0342, 7497.471
984.5164, 7469.644
984.9985, 7445.388
985.4806, 7493.156
985.9627, 7572.614
986.4448, 7625.954
986.9269, 7649.234
987.4091, 7677.833
987.8912, 7733.152
988.3733, 7779.161
988.8554, 7784.077
989.3375, 7792.769
989.8196, 7854.537
990.3018, 7933.688
990.7839, 7963.303
991.2660, 7939.939
991.7481, 7941.686
992.2302, 8012.858
992.7123, 8094.728
993.1945, 8167.937
993.6766, 8236.112
994.1587, 8301.958
994.6408, 8365.104
995.1229, 8422.291
995.6050, 8473.720
996.0872, 8528.522
996.5693, 8594.826
997.0514, 8659.787
997.5335, 8708.748
998.0156, 8761.600
998.4977, 8838.144
998.9799, 8930.817
999.4620, 9029.561
999.9441, 9130.866
1000.426, 9214.020
1000.908, 9247.374
1001.390, 9289.111
1001.873, 9388.365
1002.355, 9492.793
1002.837, 9546.963
1003.319, 9571.089
1003.801, 9611.400
1004.283, 9678.707
1004.765, 9756.854
1005.247, 9836.065
1005.729, 9928.693
1006.212, 10069.92
1006.694, 10203.61
1007.176, 10259.39
1007.658, 10272.00
1008.140, 10323.15
1008.622, 10432.81
1009.104, 10547.28
1009.586, 10647.21
1010.069, 10740.89
1010.551, 10827.62
1011.033, 10913.72
1011.515, 11009.85
1011.997, 11108.45
1012.479, 11188.70
1012.961, 11244.54
1013.443, 11314.33
1013.925, 11421.79
1014.408, 11537.26
1014.890, 11653.89
1015.372, 11765.26
1015.854, 11861.82
1016.336, 11949.44
1016.818, 12041.89
1017.300, 12143.55
1017.782, 12236.11
1018.265, 12305.82
1018.747, 12373.95
1019.229, 12444.85
1019.711, 12522.69
1020.193, 12616.72
1020.675, 12718.28
1021.157, 12804.89
1021.639, 12870.07
1022.121, 12954.32
1022.604, 13100.09
1023.086, 13228.38
1023.568, 13286.73
1024.050, 13335.49
1024.532, 13424.66
1025.014, 13541.57
1025.496, 13660.58
1025.978, 13779.23
1026.460, 13871.21
1026.943, 13896.79
1027.425, 13939.34
1027.907, 14045.17
1028.389, 14159.75
1028.871, 14237.14
1029.353, 14295.69
1029.835, 14374.42
1030.317, 14479.69
1030.800, 14584.15
1031.282, 14699.73
1031.764, 14791.24
1032.246, 14822.44
1032.728, 14855.10
1033.210, 14948.18
1033.692, 15063.19
1034.174, 15118.27
1034.656, 15100.19
1035.139, 15124.58
1035.621, 15243.58
1036.103, 15345.38
1036.585, 15404.52
1037.067, 15448.74
1037.549, 15487.42
1038.031, 15524.46
1038.513, 15568.62
1038.995, 15621.38
1039.478, 15660.32
1039.960, 15670.13
1040.442, 15689.97
1040.924, 15721.59
1041.406, 15766.59
1041.888, 15840.55
1042.370, 15916.88
1042.852, 15955.19
1043.335, 15955.65
1043.817, 15966.28
1044.299, 15993.93
1044.781, 16016.56
1045.263, 16030.31
1045.745, 16042.99
1046.227, 16058.69
1046.709, 16074.97
1047.192, 16090.57
1047.674, 16104.63
1048.156, 16104.10
1048.638, 16082.95
1049.120, 16067.83
1049.602, 16059.74
1050.084, 16060.15
1050.566, 16069.25
1051.048, 16090.13
1051.531, 16133.39
1052.013, 16187.05
1052.495, 16185.91
1052.977, 16120.40
1053.459, 16068.62
1053.941, 16035.80
1054.423, 16010.79
1054.905, 15990.81
1055.387, 15973.48
1055.870, 15960.22
1056.352, 15941.22
1056.834, 15879.05
1057.316, 15775.24
1057.798, 15704.00
1058.280, 15668.46
1058.762, 15635.03
1059.244, 15594.11
1059.727, 15546.01
1060.209, 15490.17
1060.691, 15429.61
1061.173, 15369.14
1061.655, 15309.36
1062.137, 15253.92
1062.619, 15200.88
1063.101, 15130.50
1063.583, 15040.94
1064.066, 14966.89
1064.548, 14932.13
1065.030, 14900.20
1065.512, 14810.04
1065.994, 14688.32
1066.476, 14589.75
1066.958, 14512.59
1067.440, 14462.64
1067.922, 14429.23
1068.405, 14359.63
1068.887, 14226.64
1069.369, 14089.91
1069.851, 14014.43
1070.333, 13965.66
1070.815, 13902.54
1071.297, 13831.02
1071.779, 13765.87
1072.262, 13703.12
1072.744, 13623.09
1073.226, 13520.20
1073.708, 13418.78
1074.190, 13338.19
1074.672, 13264.00
1075.154, 13185.88
1075.636, 13106.88
1076.118, 13025.68
1076.601, 12947.06
1077.083, 12880.94
1077.565, 12828.17
1078.047, 12775.54
1078.529, 12722.88
1079.011, 12660.42
1079.493, 12576.78
1079.975, 12489.17
1080.458, 12405.19
1080.940, 12327.59
1081.422, 12266.57
1081.904, 12218.35
1082.386, 12149.50
1082.868, 12032.70
1083.350, 11934.73
1083.832, 11876.90
1084.314, 11827.89
1084.797, 11787.31
1085.279, 11739.42
1085.761, 11658.03
1086.243, 11554.95
1086.725, 11480.35
1087.207, 11448.22
1087.689, 11405.39
1088.171, 11346.71
1088.653, 11285.98
1089.136, 11222.90
1089.618, 11164.15
1090.100, 11116.13
1090.582, 11073.17
1091.064, 11020.67
1091.546, 10956.60
1092.028, 10916.84
1092.510, 10908.62
1092.993, 10884.37
1093.475, 10833.37
1093.957, 10779.23
1094.439, 10734.08
1094.921, 10697.39
1095.403, 10672.35
1095.885, 10653.38
1096.367, 10608.63
1096.849, 10541.96
1097.332, 10495.86
1097.814, 10473.50
1098.296, 10445.44
1098.778, 10401.01
1099.260, 10368.83
1099.742, 10379.51
1100.224, 10407.74
1100.706, 10407.63
1101.188, 10389.41
1101.671, 10381.76
1102.153, 10377.86
1102.635, 10344.59
1103.117, 10280.63
1103.599, 10224.85
1104.081, 10198.84
1104.563, 10191.40
1105.045, 10199.81
1105.528, 10213.90
1106.010, 10222.33
1106.492, 10229.26
1106.974, 10241.52
1107.456, 10258.89
1107.938, 10275.77
1108.420, 10289.34
1108.902, 10312.75
1109.385, 10359.61
1109.867, 10408.07
1110.349, 10449.78
1110.831, 10485.66
1111.313, 10514.40
1111.795, 10538.98
1112.277, 10562.21
1112.759, 10584.32
1113.241, 10618.35
1113.724, 10664.81
1114.206, 10725.42
1114.688, 10818.53
1115.170, 10903.27
1115.652, 10956.63
1116.134, 11001.69
1116.616, 11063.26
1117.098, 11138.14
1117.580, 11206.77
1118.063, 11261.76
1118.545, 11341.06
1119.027, 11452.98
1119.509, 11556.14
1119.991, 11635.97
1120.473, 11718.58
1120.955, 11822.15
1121.437, 11942.43
1121.920, 12073.81
1122.402, 12215.38
1122.884, 12360.19
1123.366, 12508.62
1123.848, 12665.38
1124.330, 12830.04
1124.812, 12980.69
1125.294, 13109.08
1125.776, 13248.79
1126.259, 13441.25
1126.741, 13655.63
1127.223, 13840.97
1127.705, 14011.09
1128.187, 14194.64
1128.669, 14386.48
1129.151, 14558.86
1129.633, 14713.16
1130.115, 14893.33
1130.598, 15129.21
1131.080, 15378.57
1131.562, 15623.98
1132.044, 15861.15
1132.526, 16079.91
1133.008, 16290.83
1133.490, 16497.87
1133.972, 16708.74
1134.455, 16945.61
1134.937, 17217.68
1135.419, 17488.84
1135.901, 17742.23
1136.383, 18006.94
1136.865, 18317.27
1137.347, 18610.02
1137.829, 18833.33
1138.312, 19029.54
1138.794, 19247.08
1139.276, 19489.30
1139.758, 19805.35
1140.240, 20234.02
1140.722, 20585.70
1141.204, 20828.13
1141.686, 21079.52
1142.168, 21377.11
1142.651, 21706.44
1143.133, 22062.57
1143.615, 22425.88
1144.097, 22752.25
1144.579, 23050.54
1145.061, 23389.20
1145.543, 23760.23
1146.025, 24104.37
1146.507, 24417.34
1146.990, 24737.84
1147.472, 25083.20
1147.954, 25427.33
1148.436, 25747.88
1148.918, 26046.86
1149.400, 26317.88
1149.882, 26575.17
1150.364, 26835.34
1150.847, 27100.41
1151.329, 27385.47
1151.811, 27684.03
1152.293, 27937.42
1152.775, 28098.44
1153.257, 28282.11
1153.739, 28573.90
1154.221, 28854.16
1154.703, 29037.90
1155.186, 29203.93
1155.668, 29428.56
1156.150, 29695.53
1156.632, 29949.23
1157.114, 30182.86
1157.596, 30439.64
1158.078, 30725.59
1158.560, 31018.08
1159.042, 31315.11
1159.525, 31612.12
1160.007, 31901.78
1160.489, 32207.04
1160.971, 32547.01
1161.453, 32931.87
1161.935, 33410.16
1162.417, 33973.37
1162.899, 34472.54
1163.382, 34914.04
1163.864, 35386.61
1164.346, 35910.07
1164.828, 36454.60
1165.310, 37002.86
1165.792, 37545.53
1166.274, 38069.82
1166.756, 38584.71
1167.238, 39085.05
1167.721, 39586.84
1168.203, 40128.20
1168.685, 40682.79
1169.167, 41196.24
1169.649, 41653.66
1170.131, 42062.39
1170.613, 42405.02
1171.095, 42734.91
1171.578, 43089.93
1172.060, 43416.41
1172.542, 43696.37
1173.024, 43928.57
1173.506, 44099.05
1173.988, 44223.49
1174.470, 44340.55
1174.952, 44454.95
1175.434, 44524.98
1175.917, 44538.65
1176.399, 44549.48
1176.881, 44566.05
1177.363, 44580.43
1177.845, 44596.82
1178.327, 44564.16
1178.809, 44421.95
1179.291, 44203.61
1179.773, 43979.15
1180.256, 43755.29
1180.738, 43561.41
1181.220, 43388.71
1181.702, 43206.06
1182.184, 43001.62
1182.666, 42743.31
1183.148, 42415.55
1183.630, 42086.04
1184.113, 41805.39
1184.595, 41549.41
1185.077, 41314.57
1185.559, 41077.43
1186.041, 40804.75
1186.523, 40517.46
1187.005, 40257.43
1187.487, 40023.66
1187.969, 39772.73
1188.452, 39472.72
1188.934, 39206.28
1189.416, 39013.72
1189.898, 38802.20
1190.380, 38554.16
1190.862, 38271.89
1191.344, 37936.12
1191.826, 37603.76
1192.308, 37384.83
1192.791, 37254.97
1193.273, 36997.79
1193.755, 36621.55
1194.237, 36309.64
1194.719, 36071.63
1195.201, 35835.37
1195.683, 35581.00
1196.165, 35365.45
1196.648, 35235.57
1197.130, 35112.23
1197.612, 34880.89
1198.094, 34623.24
1198.576, 34453.40
1199.058, 34314.09
1199.540, 34115.61
1200.022, 33875.47
1200.505, 33670.63
1200.987, 33513.73
1201.469, 33319.76
1201.951, 33013.00
1202.433, 32743.81
1202.915, 32567.19
1203.397, 32400.07
1203.879, 32207.82
1204.361, 32017.35
1204.844, 31855.43
1205.326, 31707.05
1205.808, 31532.92
1206.290, 31333.89
1206.772, 31153.61
1207.254, 30991.90
1207.736, 30874.53
1208.218, 30800.75
1208.700, 30682.89
1209.183, 30491.28
1209.665, 30310.12
1210.147, 30208.09
1210.629, 30150.49
1211.111, 30123.56
1211.593, 30086.20
1212.075, 29961.89
1212.557, 29801.33
1213.040, 29680.95
1213.522, 29600.29
1214.004, 29527.15
1214.486, 29453.85
1214.968, 29388.14
1215.450, 29334.22
1215.932, 29285.76
1216.414, 29248.64
1216.896, 29207.95
1217.379, 29161.10
1217.861, 29102.58
1218.343, 29016.12
1218.825, 28927.45
1219.307, 28906.36
1219.789, 28950.07
1220.271, 28936.91
1220.753, 28869.88
1221.235, 28840.67
1221.718, 28856.77
1222.200, 28870.07
1222.682, 28862.61
1223.164, 28842.21
1223.646, 28808.91
1224.128, 28786.71
1224.610, 28817.51
1225.092, 28858.42
1225.575, 28866.41
1226.057, 28852.81
1226.539, 28813.88
1227.021, 28774.29
1227.503, 28797.06
1227.985, 28894.14
1228.467, 28961.90
1228.949, 28978.88
1229.432, 28971.31
1229.914, 28920.29
1230.396, 28885.43
1230.878, 28884.80
1231.360, 28910.11
1231.842, 28962.07
1232.324, 29017.41
1232.806, 29030.13
1233.288, 29009.29
1233.771, 28996.17
1234.253, 28991.63
1234.735, 29001.12
1235.217, 29023.39
1235.699, 29056.31
1236.181, 29096.12
1236.663, 29126.96
1237.145, 29139.79
1237.627, 29141.45
1238.110, 29110.77
1238.592, 29101.95
1239.074, 29192.08
1239.556, 29279.14
1240.038, 29241.76
1240.520, 29153.46
1241.002, 29163.52
1241.484, 29261.97
1241.967, 29320.46
1242.449, 29328.68
1242.931, 29331.19
1243.413, 29324.19
1243.895, 29346.81
1244.377, 29411.86
1244.859, 29441.27
1245.341, 29388.28
1245.823, 29333.91
1246.306, 29380.35
1246.788, 29467.74
1247.270, 29497.44
1247.752, 29495.25
1248.234, 29489.71
1248.716, 29490.85
1249.198, 29503.95
1249.680, 29535.73
1250.162, 29611.93
1250.645, 29748.85
1251.127, 29850.15
1251.609, 29866.11
1252.091, 29883.99
1252.573, 29926.54
1253.055, 29961.35
1253.537, 29964.63
1254.019, 29979.00
1254.502, 30048.77
1254.984, 30147.57
1255.466, 30212.41
1255.948, 30248.71
1256.430, 30285.47
1256.912, 30326.85
1257.394, 30391.06
1257.876, 30479.93
1258.358, 30600.46
1258.841, 30748.35
1259.323, 30886.03
1259.805, 30993.89
1260.287, 31082.75
1260.769, 31137.67
1261.251, 31203.10
1261.733, 31319.08
1262.215, 31441.80
1262.698, 31513.46
1263.180, 31582.76
1263.662, 31740.71
1264.144, 31967.37
1264.626, 32126.82
1265.108, 32208.39
1265.590, 32311.30
1266.072, 32438.59
1266.554, 32577.65
1267.036, 32724.11
1267.519, 32882.39
1268.001, 33056.18
1268.483, 33215.45
1268.965, 33317.34
1269.447, 33424.33
1269.929, 33629.88
1270.411, 33846.74
1270.893, 33955.74
1271.376, 34037.84
1271.858, 34181.68
1272.340, 34405.87
##END=



