##NAMES=Mercury
##RRUFFID=R070277
##IDEAL CHEMISTRY=Hg
##LOCALITY=Socrates Mine, Sonoma County, California, USA
##OWNER=RRUFF
##SOURCE=Michael Scott
##DESCRIPTION=Grey metallic liquid spheres
##STATUS=The identification of this mineral is not yet confirmed.
##URL=rruff.info/R070277
217.9249, 0.0000000E+00
218.4070, 2.278564
218.8891, 2.960693
219.3712, 0.2771000
219.8533, 3.185059
220.3354, 26.52539
220.8176, 43.86792
221.2997, 42.75732
221.7818, 30.03076
222.2639, 20.30591
222.7460, 25.54321
223.2281, 42.33643
223.7103, 52.52319
224.1924, 52.25049
224.6745, 48.86597
225.1566, 42.68042
225.6387, 34.62988
226.1208, 24.67041
226.6030, 12.06030
227.0851, 0.5534670
227.5672, 0.8154300
228.0493, 20.04956
228.5314, 36.25977
229.0135, 47.03076
229.4957, 52.13110
229.9778, 49.80518
230.4599, 38.95996
230.9420, 24.21997
231.4241, 17.76245
231.9062, 27.68115
232.3884, 31.97437
232.8705, 21.64673
233.3526, 8.684082
233.8347, 5.487061
234.3168, 15.78491
234.7989, 30.22168
235.2811, 31.24756
235.7632, 10.09155
236.2453, 3.617432
236.7274, 5.514648
237.2095, 1.620117
237.6916, 5.958252
238.1738, 16.05420
238.6559, 26.05347
239.1380, 31.76904
239.6201, 30.92334
240.1022, 34.33057
240.5843, 48.58179
241.0665, 62.07080
241.5486, 70.58423
242.0307, 73.49707
242.5128, 70.16895
242.9949, 56.55347
243.4770, 30.45898
243.9592, 20.53442
244.4413, 45.72388
244.9234, 69.97437
245.4055, 79.77539
245.8876, 77.49780
246.3697, 71.77881
246.8519, 68.90503
247.3340, 68.17261
247.8161, 62.78687
248.2982, 45.63867
248.7803, 33.57520
249.2624, 34.46362
249.7446, 43.38281
250.2267, 52.60010
250.7088, 58.44995
251.1909, 61.45630
251.6730, 62.90210
252.1551, 61.98682
252.6373, 61.11353
253.1194, 63.53027
253.6015, 65.44263
254.0836, 61.65601
254.5657, 49.35498
255.0478, 34.35303
255.5300, 26.10034
256.0121, 26.09985
256.4942, 27.28271
256.9763, 25.91064
257.4584, 26.05542
257.9406, 33.28613
258.4227, 49.10400
258.9048, 63.23730
259.3869, 62.47510
259.8690, 44.10156
260.3511, 32.03076
260.8333, 33.19238
261.3154, 40.04199
261.7975, 49.47778
262.2796, 60.98193
262.7617, 68.79175
263.2438, 69.26025
263.7260, 62.89966
264.2081, 50.01489
264.6902, 23.90649
265.1723, 1.857422
265.6544, 2.419189
266.1365, 7.355957
266.6187, 19.60132
267.1008, 29.68262
267.5829, 39.30005
268.0650, 50.23804
268.5471, 64.76392
269.0292, 74.20850
269.5114, 64.28809
269.9935, 45.51782
270.4756, 36.61426
270.9577, 50.58911
271.4398, 69.67847
271.9219, 72.53125
272.4041, 58.63110
272.8862, 43.84131
273.3683, 34.67480
273.8504, 30.35400
274.3325, 28.92163
274.8146, 31.85522
275.2968, 34.85107
275.7789, 34.71045
276.2610, 32.04541
276.7431, 29.20044
277.2252, 25.61304
277.7073, 24.31470
278.1895, 31.85742
278.6716, 50.76733
279.1537, 65.09106
279.6358, 65.75928
280.1179, 58.82104
280.6000, 55.00073
281.0822, 57.01855
281.5643, 60.01904
282.0464, 57.75854
282.5285, 49.74341
283.0106, 42.99536
283.4927, 37.53711
283.9749, 34.16089
284.4570, 35.51758
284.9391, 41.12720
285.4212, 44.38989
285.9033, 38.78882
286.3854, 24.59131
286.8676, 17.36255
287.3497, 22.49878
287.8318, 28.66870
288.3139, 31.52051
288.7960, 31.05884
289.2781, 26.81201
289.7603, 17.46069
290.2424, 5.869141
290.7245, 4.641357
291.2066, 29.10400
291.6887, 44.32666
292.1708, 37.65674
292.6530, 21.53540
293.1351, 11.63062
293.6172, 13.40845
294.0993, 21.06909
294.5814, 24.85327
295.0635, 22.63037
295.5457, 21.20825
296.0278, 16.46826
296.5099, 15.23486
296.9920, 28.05957
297.4741, 52.60596
297.9562, 72.11230
298.4384, 67.44800
298.9205, 33.71899
299.4026, 9.648193
299.8847, 1.510742
300.3668, 6.631104
300.8489, 4.447754
301.3311, 1.955078
301.8131, 6.780029
302.2953, 5.698242
302.7774, 0.5117190
303.2595, 0.7751460
303.7416, 11.27271
304.2237, 20.34839
304.7058, 28.14111
305.1880, 32.38574
305.6701, 28.07910
306.1522, 12.97168
306.6343, 3.290527
307.1164, 2.130859
307.5985, 23.12305
308.0807, 40.86646
308.5628, 40.86938
309.0449, 34.69922
309.5270, 26.95337
310.0091, 18.90576
310.4912, 14.36523
310.9734, 18.21704
311.4555, 31.04199
311.9376, 38.45654
312.4197, 36.23291
312.9018, 33.03906
313.3839, 35.36035
313.8661, 41.15186
314.3482, 45.08838
314.8303, 45.78369
315.3124, 42.72388
315.7945, 32.70459
316.2766, 13.95850
316.7588, 1.334473
317.2409, 5.717041
317.7230, 2.377930
318.2051, 3.698486
318.6872, 13.08252
319.1693, 23.10229
319.6515, 34.42212
320.1336, 45.49414
320.6157, 47.99341
321.0978, 35.68140
321.5799, 18.92700
322.0620, 16.25513
322.5442, 30.11987
323.0263, 39.40137
323.5084, 34.79761
323.9905, 23.79810
324.4726, 14.09790
324.9547, 7.015381
325.4369, 4.577148
325.9190, 9.840820
326.4011, 23.79736
326.8832, 34.27686
327.3653, 41.49561
327.8474, 45.28198
328.3296, 43.41040
328.8117, 37.72510
329.2938, 33.53247
329.7759, 34.19360
330.2580, 38.27930
330.7401, 39.29248
331.2223, 34.89062
331.7044, 30.28589
332.1865, 23.04419
332.6686, 17.19678
333.1507, 19.00391
333.6328, 29.74731
334.1150, 42.40649
334.5971, 45.80444
335.0792, 34.57495
335.5613, 28.59937
336.0434, 32.11182
336.5255, 36.73340
337.0077, 37.72949
337.4898, 35.56689
337.9719, 32.53052
338.4540, 30.23193
338.9361, 28.65332
339.4182, 27.68384
339.9004, 27.72339
340.3825, 27.82056
340.8646, 25.80737
341.3467, 24.32764
341.8288, 28.27295
342.3109, 40.68848
342.7931, 53.36597
343.2752, 50.08154
343.7573, 27.02441
344.2394, 15.81299
344.7215, 36.44141
345.2036, 61.79468
345.6858, 68.28369
346.1679, 55.23633
346.6500, 42.44434
347.1321, 45.28979
347.6142, 57.86108
348.0963, 64.11841
348.5785, 62.13794
349.0606, 54.81567
349.5427, 38.77100
350.0248, 18.43872
350.5069, 8.013184
350.9890, 19.61523
351.4712, 34.35596
351.9533, 34.44019
352.4354, 22.80664
352.9175, 15.51611
353.3996, 20.98267
353.8817, 34.45654
354.3639, 43.87183
354.8460, 49.18652
355.3281, 51.75098
355.8102, 48.77319
356.2923, 44.56494
356.7744, 46.15527
357.2566, 54.51318
357.7387, 61.38818
358.2208, 56.31396
358.7029, 36.04468
359.1850, 25.53931
359.6671, 31.99927
360.1493, 38.42505
360.6314, 35.02637
361.1135, 26.08398
361.5956, 22.37256
362.0777, 30.71265
362.5598, 47.24951
363.0420, 57.95679
363.5241, 60.21387
364.0062, 60.35889
364.4883, 62.02539
364.9704, 60.42188
365.4525, 49.16455
365.9347, 27.69092
366.4168, 4.252686
366.8989, 15.02930
367.3810, 30.96118
367.8631, 30.31006
368.3452, 1.112061
368.8274, 33.37427
369.3095, 52.48413
369.7916, 60.78467
370.2737, 64.43555
370.7558, 66.49365
371.2379, 65.43774
371.7201, 56.40405
372.2022, 38.22363
372.6843, 23.34155
373.1664, 16.48145
373.6485, 16.74219
374.1306, 23.94482
374.6128, 41.38794
375.0949, 52.69189
375.5770, 40.75928
376.0591, 18.70557
376.5412, 16.07349
377.0233, 40.93066
377.5055, 69.08423
377.9876, 74.43457
378.4697, 53.83838
378.9518, 42.01807
379.4339, 45.66577
379.9160, 52.89746
380.3982, 60.85864
380.8803, 66.87256
381.3624, 63.05005
381.8445, 43.75806
382.3266, 16.57788
382.8087, 4.503906
383.2909, 27.56860
383.7730, 40.01807
384.2551, 33.38965
384.7372, 20.75195
385.2193, 11.75586
385.7014, 8.426270
386.1836, 8.116699
386.6657, 8.124268
387.1478, 8.365967
387.6299, 10.67700
388.1120, 18.99438
388.5941, 24.73706
389.0763, 22.46753
389.5584, 16.51245
390.0405, 13.96436
390.5226, 17.06421
391.0047, 24.11304
391.4868, 35.23657
391.9690, 51.99927
392.4511, 56.37793
392.9332, 31.89355
393.4153, 3.666260
393.8974, 2.185059
394.3795, 14.34082
394.8617, 29.64502
395.3438, 29.21484
395.8259, 21.21094
396.3080, 20.83862
396.7901, 29.93018
397.2722, 36.24292
397.7544, 28.48047
398.2365, 10.66895
398.7186, 4.868896
399.2007, 23.40625
399.6828, 37.78271
400.1649, 28.86890
400.6471, 10.18506
401.1292, 7.515137
401.6113, 29.45020
402.0934, 57.89575
402.5755, 65.70093
403.0576, 44.27148
403.5398, 27.37036
404.0219, 12.04688
404.5040, 3.075928
404.9861, 7.070313
405.4682, 19.54810
405.9503, 29.40015
406.4325, 28.95459
406.9146, 22.15991
407.3967, 24.15601
407.8788, 42.43042
408.3609, 53.96362
408.8430, 51.72705
409.3252, 43.39355
409.8073, 32.89990
410.2894, 21.43213
410.7715, 12.25562
411.2536, 8.012939
411.7357, 8.426270
412.2179, 13.44385
412.7000, 25.56421
413.1821, 36.23682
413.6642, 39.20752
414.1463, 36.49390
414.6284, 31.01636
415.1106, 21.15796
415.5927, 11.29028
416.0748, 3.345459
416.5569, 2.171143
417.0390, 2.972412
417.5211, 2.290527
418.0033, 10.52856
418.4854, 17.51172
418.9675, 23.33496
419.4496, 27.13550
419.9317, 27.77295
420.4138, 27.23584
420.8960, 25.52344
421.3781, 23.65869
421.8602, 24.70752
422.3423, 31.19238
422.8244, 40.96729
423.3065, 44.40601
423.7887, 34.76465
424.2708, 29.27344
424.7529, 32.47266
425.2350, 36.58838
425.7171, 35.28198
426.1992, 29.98462
426.6814, 25.01367
427.1635, 28.14722
427.6456, 38.25806
428.1277, 40.78809
428.6098, 32.01489
429.0919, 22.75732
429.5741, 16.37573
430.0562, 13.59961
430.5383, 17.56982
431.0204, 33.66577
431.5025, 46.57739
431.9846, 37.29858
432.4668, 13.21167
432.9489, 3.433594
433.4310, 18.70361
433.9131, 38.69116
434.3952, 37.45288
434.8773, 12.12866
435.3595, 4.272705
435.8416, 6.419434
436.3237, 2.381348
436.8058, 4.737061
437.2879, 13.94897
437.7701, 25.67188
438.2522, 40.72119
438.7343, 54.30322
439.2164, 52.82715
439.6985, 19.29858
440.1806, 1.291748
440.6628, 9.899414
441.1449, 23.81201
441.6270, 30.55322
442.1091, 29.57397
442.5912, 26.16992
443.0733, 23.54663
443.5555, 21.52100
444.0376, 18.47437
444.5197, 13.44385
445.0018, 10.11255
445.4839, 13.20020
445.9660, 16.92920
446.4482, 13.60669
446.9303, 0.9216310
447.4124, 7.735840
447.8945, 0.6354980
448.3766, 17.91821
448.8587, 26.91016
449.3409, 25.08472
449.8230, 18.76611
450.3051, 11.86353
450.7872, 4.659912
451.2693, 3.316406
451.7514, 15.07031
452.2336, 26.68335
452.7157, 34.17505
453.1978, 38.27563
453.6799, 40.70972
454.1620, 41.78564
454.6441, 38.81641
455.1263, 26.35156
455.6084, 0.4018550
456.0905, 12.33716
456.5726, 2.588379
457.0547, 16.52100
457.5368, 21.00659
458.0190, 18.74951
458.5011, 13.74854
458.9832, 6.847900
459.4653, 1.858643
459.9474, 6.976563
460.4295, 22.42773
460.9117, 30.13550
461.3938, 21.05005
461.8759, 10.95166
462.3580, 17.11938
462.8401, 36.00879
463.3222, 48.62378
463.8044, 45.04370
464.2865, 36.84424
464.7686, 33.16284
465.2507, 33.64233
465.7328, 36.40503
466.2149, 41.01001
466.6971, 46.14136
467.1792, 49.18726
467.6613, 49.41113
468.1434, 48.86133
468.6255, 48.70020
469.1076, 46.79126
469.5898, 40.82666
470.0719, 31.86108
470.5540, 22.58154
471.0361, 14.28906
471.5182, 7.758545
472.0003, 5.043701
472.4825, 6.218506
472.9646, 11.10083
473.4467, 25.54517
473.9288, 39.46216
474.4109, 46.82202
474.8930, 47.31396
475.3752, 42.60059
475.8573, 26.48267
476.3394, 8.037598
476.8215, 6.108887
477.3036, 21.26099
477.7857, 32.40430
478.2679, 26.38550
478.7500, 11.85864
479.2321, 11.54517
479.7142, 31.79541
480.1963, 47.90991
480.6784, 52.59131
481.1606, 52.89966
481.6427, 57.28931
482.1248, 64.71094
482.6069, 65.15137
483.0890, 49.59570
483.5711, 22.48340
484.0533, 8.841553
484.5354, 18.98657
485.0175, 25.95581
485.4996, 22.16797
485.9817, 16.66919
486.4638, 17.40869
486.9460, 24.75293
487.4281, 32.38379
487.9102, 34.56909
488.3923, 33.29224
488.8744, 34.97461
489.3565, 40.23120
489.8387, 45.14673
490.3208, 47.67847
490.8029, 48.62012
491.2850, 50.55688
491.7671, 55.74585
492.2492, 55.54224
492.7314, 38.51514
493.2135, 19.15479
493.6956, 17.47729
494.1777, 33.60913
494.6598, 49.50757
495.1419, 51.05005
495.6241, 40.86694
496.1062, 36.00684
496.5883, 38.36572
497.0704, 43.89868
497.5525, 62.36035
498.0346, 76.77856
498.5168, 67.90063
498.9989, 37.15210
499.4810, 7.150146
499.9631, 3.633789
500.4452, 1.847168
500.9273, 15.69922
501.4095, 41.52808
501.8916, 60.15405
502.3737, 58.66504
502.8558, 47.64404
503.3379, 45.29810
503.8200, 55.04492
504.3022, 60.25366
504.7843, 50.57983
505.2664, 35.09399
505.7485, 26.54663
506.2306, 24.52148
506.7127, 19.32666
507.1949, 2.888916
507.6770, 19.72583
508.1591, 25.86426
508.6412, 2.776367
509.1233, 21.36914
509.6054, 22.18018
510.0876, 16.76050
510.5697, 10.31665
511.0518, 5.207031
511.5339, 5.530518
512.0161, 17.56055
512.4982, 35.00513
512.9803, 39.08301
513.4624, 27.45898
513.9445, 15.38477
514.4266, 7.425049
514.9088, 4.539795
515.3909, 9.938477
515.8730, 24.42407
516.3551, 36.52197
516.8372, 44.44214
517.3193, 47.27148
517.8015, 40.21729
518.2836, 26.40576
518.7657, 17.64282
519.2478, 20.48560
519.7299, 30.92480
520.2120, 39.85913
520.6942, 49.47876
521.1763, 53.14307
521.6584, 47.82666
522.1405, 40.16064
522.6226, 32.86938
523.1047, 26.17676
523.5869, 19.45459
524.0690, 11.70166
524.5511, 5.139404
525.0332, 3.662354
525.5153, 7.252197
525.9974, 13.25537
526.4796, 22.68604
526.9617, 31.70996
527.4438, 36.42920
527.9259, 37.19116
528.4080, 34.88184
528.8901, 26.14136
529.3723, 17.77881
529.8544, 14.22974
530.3365, 13.87598
530.8186, 13.22607
531.3007, 11.11230
531.7828, 9.469971
532.2650, 11.50049
532.7471, 18.91455
533.2292, 22.61133
533.7113, 20.98291
534.1934, 17.26099
534.6755, 9.563965
535.1577, 1.397461
535.6398, 2.358643
536.1219, 0.1059570
536.6040, 4.531250
537.0861, 8.251221
537.5682, 11.63159
538.0504, 16.38257
538.5325, 22.61279
539.0146, 30.93335
539.4967, 43.08203
539.9788, 57.55347
540.4609, 66.77026
540.9431, 71.88062
541.4252, 71.01221
541.9073, 60.11499
542.3894, 45.46387
542.8715, 30.46167
543.3536, 17.14160
543.8358, 9.816406
544.3179, 12.75122
544.8000, 23.59619
545.2821, 33.58301
545.7642, 45.20142
546.2463, 48.12769
546.7285, 31.59106
547.2106, 13.70776
547.6927, 11.13599
548.1748, 22.81055
548.6569, 30.10962
549.1390, 18.63770
549.6211, 3.183350
550.1032, 2.051025
550.5853, 12.12769
551.0674, 18.20190
551.5496, 13.80737
552.0317, 4.850098
552.5138, 0.6086430
552.9959, 1.680176
553.4780, 5.705322
553.9601, 19.70776
554.4423, 28.77563
554.9244, 22.47778
555.4065, 8.677734
555.8886, 1.966797
556.3707, 5.763184
556.8528, 0.3576660
557.3350, 24.35107
557.8171, 64.27246
558.2992, 85.64014
558.7813, 81.38354
559.2634, 70.57178
559.7455, 65.88110
560.2277, 63.88721
560.7098, 53.39331
561.1919, 24.40015
561.6740, 4.224854
562.1561, 9.296387
562.6382, 22.60059
563.1204, 24.48560
563.6025, 15.03247
564.0846, 7.926025
564.5667, 14.13745
565.0488, 29.20264
565.5309, 32.66040
566.0131, 19.18311
566.4952, 11.77979
566.9773, 17.69971
567.4594, 25.38940
567.9415, 28.40308
568.4236, 26.82202
568.9058, 22.84033
569.3879, 13.16895
569.8700, 5.263428
570.3521, 9.094727
570.8342, 21.33203
571.3163, 30.40894
571.7985, 32.61011
572.2806, 32.83374
572.7627, 37.80762
573.2448, 48.97852
573.7269, 51.28833
574.2090, 35.90332
574.6912, 22.27466
575.1733, 15.44922
575.6554, 13.32715
576.1375, 14.67944
576.6196, 18.68823
577.1017, 21.73730
577.5839, 18.51685
578.0660, 11.73340
578.5481, 12.75586
579.0302, 21.42700
579.5123, 27.10596
579.9944, 22.91504
580.4766, 15.02759
580.9587, 16.78369
581.4408, 31.07275
581.9229, 40.51880
582.4050, 39.82666
582.8871, 36.16504
583.3693, 32.93848
583.8514, 30.70776
584.3335, 30.44971
584.8156, 32.66504
585.2977, 34.13647
585.7798, 26.69995
586.2620, 8.543701
586.7441, 4.464355
587.2262, 24.02002
587.7083, 43.91431
588.1904, 54.19214
588.6725, 55.25928
589.1547, 44.37329
589.6368, 13.91064
590.1189, 9.226318
590.6010, 5.825439
591.0831, 8.760254
591.5652, 14.04150
592.0474, 9.610596
592.5295, 8.270264
593.0116, 19.17236
593.4937, 37.08643
593.9758, 46.53247
594.4579, 45.78320
594.9401, 40.29956
595.4222, 20.12280
595.9043, 4.871582
596.3864, 9.816162
596.8685, 27.51538
597.3506, 38.24365
597.8328, 32.33423
598.3149, 21.86133
598.7970, 17.11963
599.2791, 16.36279
599.7612, 14.75830
600.2433, 11.41113
600.7255, 10.10083
601.2076, 13.79297
601.6897, 20.75317
602.1718, 19.53882
602.6539, 6.382568
603.1360, 17.53516
603.6182, 0.8110350
604.1003, 25.41821
604.5824, 41.61792
605.0645, 47.83838
605.5466, 46.47559
606.0287, 34.94019
606.5109, 22.00562
606.9930, 24.91138
607.4751, 40.83276
607.9572, 45.25586
608.4393, 29.57007
608.9214, 11.08716
609.4036, 8.023926
609.8857, 20.46826
610.3678, 26.80054
610.8499, 21.45190
611.3320, 17.64136
611.8141, 19.69800
612.2963, 23.93945
612.7784, 26.18457
613.2605, 26.31885
613.7426, 27.81006
614.2247, 35.25171
614.7068, 44.73193
615.1890, 41.76782
615.6711, 25.38257
616.1532, 19.45337
616.6353, 36.02051
617.1174, 56.13306
617.5995, 56.44482
618.0817, 36.45605
618.5638, 23.84546
619.0459, 27.91016
619.5280, 30.00024
620.0101, 18.93164
620.4922, 3.826904
620.9744, 4.126221
621.4565, 2.705078
621.9386, 3.975342
622.4207, 13.89893
622.9028, 25.42188
623.3849, 31.17261
623.8671, 30.04370
624.3492, 30.09790
624.8313, 36.58667
625.3134, 42.05249
625.7955, 33.92456
626.2776, 13.14526
626.7598, 1.404785
627.2419, 10.02393
627.7240, 19.35352
628.2061, 18.09692
628.6882, 11.86890
629.1703, 10.27051
629.6525, 14.90747
630.1346, 18.44409
630.6167, 11.93945
631.0988, 1.562744
631.5809, 4.080322
632.0630, 7.062256
632.5452, 19.05688
633.0273, 30.71387
633.5094, 39.01294
633.9915, 40.91431
634.4736, 36.63843
634.9557, 27.76099
635.4379, 4.091553
635.9200, 13.01855
636.4021, 3.869629
636.8842, 16.86255
637.3663, 23.69922
637.8484, 11.97656
638.3306, 0.1115720
638.8127, 7.071289
639.2948, 29.40210
639.7769, 41.34619
640.2590, 41.14600
640.7411, 36.53442
641.2233, 25.94580
641.7054, 15.42554
642.1875, 12.38062
642.6696, 16.07788
643.1517, 17.40894
643.6339, 11.04810
644.1160, 5.543945
644.5981, 6.184814
645.0802, 10.48022
645.5623, 13.43506
646.0444, 14.62769
646.5266, 20.36499
647.0087, 39.53296
647.4908, 66.34155
647.9729, 69.28076
648.4550, 41.54590
648.9371, 21.42773
649.4193, 22.86890
649.9014, 29.92017
650.3835, 25.51880
650.8656, 11.79224
651.3477, 3.966553
651.8298, 8.708984
652.3120, 15.15479
652.7941, 19.12866
653.2762, 21.55176
653.7583, 22.87476
654.2404, 23.53662
654.7225, 23.39307
655.2047, 22.28320
655.6868, 20.35083
656.1689, 18.51514
656.6510, 17.22510
657.1331, 12.48511
657.6152, 0.4040530
658.0974, 11.36450
658.5795, 8.113037
659.0616, 5.786621
659.5437, 14.39966
660.0258, 10.48999
660.5079, 7.931152
660.9901, 9.249512
661.4722, 17.12207
661.9543, 37.56128
662.4364, 66.00024
662.9185, 84.40283
663.4006, 79.57568
663.8828, 60.77979
664.3649, 46.47778
664.8470, 36.70605
665.3291, 30.98804
665.8112, 31.00879
666.2933, 30.75610
666.7755, 24.62109
667.2576, 15.59595
667.7397, 16.92554
668.2218, 35.95337
668.7039, 51.31079
669.1860, 61.50806
669.6682, 65.60571
670.1503, 58.85596
670.6324, 45.32935
671.1145, 37.02710
671.5966, 40.37891
672.0787, 47.62866
672.5609, 48.20850
673.0430, 42.79590
673.5251, 35.51611
674.0072, 26.11792
674.4893, 18.45752
674.9714, 14.75537
675.4536, 14.37158
675.9357, 15.80103
676.4178, 19.54321
676.8999, 24.08594
677.3820, 29.82349
677.8641, 35.93164
678.3463, 44.40576
678.8284, 51.83643
679.3105, 52.13354
679.7926, 43.38599
680.2747, 34.75073
680.7568, 36.80933
681.2390, 45.09888
681.7211, 49.10303
682.2032, 48.51172
682.6853, 46.88525
683.1674, 46.12109
683.6495, 43.59912
684.1317, 34.00586
684.6138, 14.31665
685.0959, 3.793701
685.5780, 10.37939
686.0601, 16.58057
686.5422, 16.00903
687.0244, 14.36621
687.5065, 20.34692
687.9886, 33.77881
688.4707, 41.34277
688.9528, 28.97095
689.4349, 11.91919
689.9171, 8.681885
690.3992, 14.53418
690.8813, 16.25708
691.3634, 10.30518
691.8455, 5.406250
692.3276, 11.16675
692.8098, 25.86719
693.2919, 33.93506
693.7740, 31.78076
694.2561, 29.67505
694.7382, 28.55908
695.2203, 27.82007
695.7025, 25.96631
696.1846, 24.02612
696.6667, 26.55127
697.1488, 40.84277
697.6309, 50.33350
698.1130, 39.63232
698.5952, 22.85181
699.0773, 18.13159
699.5594, 25.88281
700.0415, 37.01978
700.5236, 46.60327
701.0057, 52.90649
701.4879, 49.06470
701.9700, 34.01831
702.4521, 33.11914
702.9342, 55.40015
703.4163, 74.49194
703.8984, 74.68945
704.3806, 61.02588
704.8627, 44.22266
705.3448, 19.66626
705.8269, 5.220703
706.3090, 8.973877
706.7911, 17.75830
707.2733, 25.26660
707.7554, 31.80688
708.2375, 41.76147
708.7196, 55.76074
709.2017, 61.90552
709.6838, 37.98218
710.1660, 0.2973630
710.6481, 4.419434
711.1302, 22.28296
711.6123, 42.27124
712.0944, 40.72388
712.5765, 33.58350
713.0587, 42.74463
713.5408, 69.86230
714.0229, 77.67383
714.5050, 45.95581
714.9871, 22.36963
715.4692, 17.02368
715.9514, 19.61694
716.4335, 27.01270
716.9156, 36.86670
717.3977, 40.94092
717.8798, 30.78906
718.3619, 21.51147
718.8441, 29.86963
719.3262, 45.42554
719.8083, 49.26489
720.2904, 40.09033
720.7725, 29.43726
721.2546, 25.19897
721.7368, 23.93994
722.2189, 15.52686
722.7010, 2.471680
723.1831, 9.520020
723.6652, 2.291260
724.1473, 12.39575
724.6295, 4.852539
725.1116, 10.34790
725.5937, 11.04053
726.0758, 9.525391
726.5579, 21.10693
727.0400, 7.902344
727.5222, 5.250977
728.0043, 2.097656
728.4864, 10.62085
728.9685, 22.10229
729.4506, 28.95312
729.9327, 31.88403
730.4149, 29.73706
730.8970, 24.81274
731.3791, 20.91455
731.8612, 18.44971
732.3433, 22.92065
732.8254, 37.06494
733.3076, 51.39966
733.7897, 56.64771
734.2718, 53.08691
734.7539, 43.93384
735.2360, 20.07935
735.7181, 5.946533
736.2003, 8.805420
736.6824, 17.49243
737.1645, 30.35474
737.6466, 43.34155
738.1287, 45.16016
738.6108, 25.39771
739.0930, 11.46362
739.5751, 28.13745
740.0572, 52.52539
740.5393, 54.90796
741.0214, 39.58618
741.5035, 29.75806
741.9857, 36.39136
742.4678, 48.02563
742.9499, 47.89111
743.4320, 36.88330
743.9141, 26.99512
744.3962, 17.89282
744.8784, 12.99341
745.3605, 15.78711
745.8426, 19.85205
746.3247, 13.62695
746.8068, 5.699219
747.2889, 5.242432
747.7711, 35.98242
748.2532, 65.62354
748.7353, 64.72900
749.2174, 53.93433
749.6995, 51.90186
750.1816, 57.98169
750.6638, 59.78271
751.1459, 48.60962
751.6280, 36.59302
752.1101, 34.41772
752.5922, 39.51709
753.0743, 51.09985
753.5565, 66.64380
754.0386, 72.86719
754.5207, 61.16919
755.0028, 41.53955
755.4849, 34.62476
755.9670, 42.40894
756.4492, 43.96997
756.9313, 36.80542
757.4134, 28.64819
757.8955, 21.91333
758.3776, 16.64453
758.8597, 12.41602
759.3419, 8.890869
759.8240, 9.196289
760.3061, 17.65552
760.7882, 25.12256
761.2703, 28.08228
761.7524, 28.38159
762.2346, 27.16699
762.7167, 25.23975
763.1988, 24.35498
763.6809, 25.35156
764.1630, 28.09424
764.6451, 35.22119
765.1273, 43.49341
765.6094, 43.11743
766.0915, 33.69604
766.5736, 24.49365
767.0557, 20.87061
767.5378, 22.61133
768.0200, 31.99829
768.5021, 52.34180
768.9842, 57.47754
769.4663, 39.07617
769.9484, 21.57300
770.4305, 13.97241
770.9127, 14.12280
771.3948, 21.47705
771.8769, 37.16479
772.3590, 45.57007
772.8411, 35.69312
773.3232, 26.93555
773.8054, 31.42676
774.2875, 38.79053
774.7696, 36.05225
775.2517, 24.16504
775.7338, 14.57275
776.2159, 12.92578
776.6981, 17.46069
777.1802, 30.49707
777.6623, 47.17261
778.1444, 56.45117
778.6265, 57.22217
779.1086, 52.56396
779.5908, 43.81030
780.0729, 33.40869
780.5550, 25.88379
781.0371, 21.24194
781.5192, 16.73340
782.0013, 10.66846
782.4835, 7.410889
782.9656, 8.675293
783.4477, 12.96899
783.9298, 20.48535
784.4119, 30.89575
784.8940, 33.30933
785.3762, 17.94897
785.8583, 6.494873
786.3404, 4.963867
786.8225, 8.897217
787.3046, 20.38330
787.7867, 35.15820
788.2689, 40.82642
788.7510, 28.50879
789.2331, 16.35278
789.7152, 25.32837
790.1973, 41.32397
790.6794, 37.97900
791.1616, 18.81470
791.6437, 8.517090
792.1258, 17.67798
792.6079, 31.66455
793.0900, 29.69849
793.5721, 13.77710
794.0543, 3.734863
794.5364, 3.5399999E-02
795.0185, 1.362793
795.5006, 2.891357
795.9827, 0.8317870
796.4648, 19.48633
796.9470, 50.21191
797.4291, 61.59497
797.9112, 33.18848
798.3933, 14.56372
798.8754, 12.29688
799.3575, 15.93994
799.8397, 23.80688
800.3218, 32.01685
800.8039, 32.10254
801.2860, 20.03125
801.7681, 14.97144
802.2502, 40.04614
802.7324, 64.40503
803.2145, 55.44287
803.6966, 26.08447
804.1787, 0.7246090
804.6608, 17.64868
805.1429, 21.72705
805.6251, 5.702881
806.1072, 18.39014
806.5893, 19.90234
807.0714, 3.391846
807.5535, 8.364746
808.0356, 43.22461
808.5178, 70.86108
808.9999, 65.33984
809.4820, 38.92700
809.9641, 22.36621
810.4462, 18.00806
810.9283, 14.50464
811.4105, 9.295898
811.8926, 9.209961
812.3747, 24.09277
812.8568, 40.66040
813.3389, 40.61548
813.8210, 23.97852
814.3032, 15.58398
814.7853, 30.45386
815.2674, 39.58740
815.7495, 23.07837
816.2316, 4.381592
816.7137, 10.16577
817.1959, 33.37427
817.6780, 45.34546
818.1601, 31.67603
818.6422, 15.81079
819.1243, 22.81763
819.6064, 37.46948
820.0886, 32.17944
820.5707, 12.20312
821.0528, 3.052979
821.5349, 13.37256
822.0170, 27.36450
822.4991, 26.88159
822.9813, 15.94238
823.4634, 10.59375
823.9455, 10.73071
824.4276, 20.98950
824.9097, 46.60278
825.3918, 64.58594
825.8740, 54.22559
826.3561, 25.53320
826.8382, 12.97876
827.3203, 26.85840
827.8024, 33.10913
828.2845, 28.15332
828.7667, 19.80518
829.2488, 4.091553
829.7309, 9.462891
830.2130, 7.284912
830.6951, 11.22388
831.1772, 27.94238
831.6594, 40.14087
832.1415, 47.77173
832.6236, 50.78345
833.1057, 49.32788
833.5878, 40.20361
834.0699, 26.67920
834.5521, 17.65991
835.0342, 17.08447
835.5163, 22.01904
835.9984, 36.00928
836.4805, 50.37939
836.9626, 47.57471
837.4448, 31.83643
837.9269, 20.04907
838.4090, 18.28271
838.8911, 19.58447
839.3732, 16.35181
839.8553, 10.63281
840.3375, 10.39502
840.8196, 15.74268
841.3017, 22.65845
841.7838, 31.92383
842.2659, 34.42090
842.7480, 21.36670
843.2302, 0.6889650
843.7123, 6.896484
844.1944, 4.274658
844.6765, 9.329102
845.1586, 2.492432
845.6407, 1.854980
846.1229, 2.367432
846.6050, 10.44019
847.0871, 18.65161
847.5692, 26.81567
848.0513, 33.94092
848.5334, 44.46411
849.0156, 49.37988
849.4977, 39.83301
849.9798, 27.85889
850.4619, 24.86694
850.9440, 27.87305
851.4261, 26.12500
851.9083, 15.67017
852.3904, 10.39478
852.8725, 26.92188
853.3546, 46.81226
853.8367, 49.75659
854.3188, 41.40845
854.8010, 33.44897
855.2831, 29.01758
855.7652, 27.69434
856.2473, 29.34814
856.7294, 33.39233
857.2115, 40.89185
857.6937, 50.16162
858.1758, 53.01392
858.6579, 49.35864
859.1400, 43.66260
859.6221, 39.15796
860.1042, 34.77759
860.5864, 28.69360
861.0685, 21.06396
861.5506, 14.07593
862.0327, 5.309814
862.5148, 6.703613
862.9969, 28.69629
863.4791, 50.38232
863.9612, 52.65601
864.4433, 40.15674
864.9254, 30.97803
865.4075, 25.28906
865.8896, 22.57056
866.3718, 27.09473
866.8539, 29.34521
867.3360, 21.22021
867.8181, 12.13525
868.3002, 14.93726
868.7823, 29.27905
869.2645, 39.06909
869.7466, 36.66821
870.2287, 33.57666
870.7108, 33.28564
871.1929, 34.89697
871.6750, 39.21631
872.1572, 44.41187
872.6393, 46.86597
873.1214, 45.35229
873.6035, 41.57446
874.0856, 35.13330
874.5677, 28.40942
875.0499, 22.79443
875.5320, 19.33398
876.0141, 22.83105
876.4962, 32.05225
876.9783, 34.77759
877.4604, 21.02319
877.9426, 3.595215
878.4247, 6.652344
878.9068, 23.70337
879.3889, 28.55298
879.8710, 20.62305
880.3531, 16.61353
880.8353, 23.44995
881.3174, 33.48755
881.7995, 37.63696
882.2816, 36.91797
882.7637, 38.13721
883.2458, 41.83228
883.7280, 43.55103
884.2101, 42.73242
884.6922, 38.90503
885.1743, 30.08154
885.6564, 20.05835
886.1385, 17.86133
886.6207, 26.41821
887.1028, 28.94604
887.5849, 13.87646
888.0670, 10.88428
888.5491, 46.92651
889.0313, 81.08545
889.5134, 68.81030
889.9955, 22.48047
890.4776, 2.008301
890.9597, 30.67065
891.4418, 50.36865
891.9240, 47.15015
892.4061, 39.80444
892.8882, 39.71021
893.3703, 40.78662
893.8524, 30.78442
894.3345, 9.646973
894.8167, 2.772949
895.2988, 7.756348
895.7809, 21.36963
896.2630, 30.91895
896.7451, 35.64282
897.2272, 30.48633
897.7094, 20.47241
898.1915, 18.41772
898.6736, 28.94507
899.1557, 41.24048
899.6378, 49.84692
900.1199, 52.88696
900.6021, 43.46460
901.0842, 28.00195
901.5663, 18.92261
902.0484, 19.49243
902.5305, 27.17041
903.0126, 41.95386
903.4948, 54.91089
903.9769, 52.37646
904.4590, 37.86597
904.9411, 20.25708
905.4232, 1.076904
905.9053, 13.46094
906.3875, 21.30054
906.8696, 20.62061
907.3517, 7.712158
907.8338, 11.86255
908.3159, 18.64502
908.7980, 12.51587
909.2802, 10.05029
909.7623, 13.16968
910.2444, 18.84888
910.7265, 26.57568
911.2086, 33.20874
911.6907, 34.10449
912.1729, 29.29639
912.6550, 21.08105
913.1371, 4.175293
913.6192, 2.728760
914.1013, 32.93311
914.5834, 55.75171
915.0656, 37.95850
915.5477, 6.5430000E-02
916.0298, 9.467529
916.5119, 21.67969
916.9940, 36.45459
917.4761, 17.14746
917.9583, 6.549316
918.4404, 26.64502
918.9225, 48.65991
919.4046, 46.61938
919.8867, 27.16772
920.3688, 16.32886
920.8510, 20.53271
921.3331, 23.22412
921.8152, 21.43652
922.2973, 18.35425
922.7794, 12.05713
923.2615, 7.445557
923.7437, 11.09863
924.2258, 22.54736
924.7079, 34.79883
925.1900, 51.63721
925.6721, 59.29590
926.1542, 43.02441
926.6364, 23.92773
927.1185, 20.15649
927.6006, 25.30859
928.0827, 25.23047
928.5648, 17.48218
929.0469, 13.39087
929.5291, 22.69971
930.0112, 33.97290
930.4933, 42.28833
930.9754, 45.20459
931.4575, 34.55762
931.9396, 16.24048
932.4218, 7.065918
932.9039, 12.96484
933.3860, 22.98364
933.8681, 30.99536
934.3502, 35.16187
934.8323, 30.63330
935.3145, 21.24536
935.7966, 14.41650
936.2787, 11.21509
936.7608, 8.205322
937.2429, 3.228516
937.7250, 3.835693
938.2072, 29.37891
938.6893, 63.25684
939.1714, 60.66162
939.6535, 30.94629
940.1356, 14.16455
940.6177, 18.49341
941.0999, 27.51465
941.5820, 30.51611
942.0641, 30.06641
942.5462, 30.27124
943.0283, 31.09155
943.5104, 32.16724
943.9926, 33.53711
944.4747, 37.76196
944.9568, 45.84253
945.4389, 47.37915
945.9210, 32.33716
946.4031, 6.959717
946.8853, 2.691650
947.3674, 3.308594
947.8495, 7.516846
948.3316, 8.605957
948.8137, 9.975830
949.2958, 12.71533
949.7780, 16.99170
950.2601, 23.05566
950.7422, 30.74951
951.2243, 41.44336
951.7064, 57.85718
952.1885, 56.27344
952.6707, 27.20801
953.1528, 8.953369
953.6349, 21.77588
954.1170, 42.89917
954.5991, 43.55200
955.0812, 25.24341
955.5634, 22.50049
956.0455, 43.96802
956.5276, 53.44409
957.0097, 40.61572
957.4918, 27.91187
957.9739, 28.40674
958.4561, 34.86816
958.9382, 34.13037
959.4203, 24.37573
959.9024, 29.80884
960.3845, 67.58008
960.8666, 85.26025
961.3488, 60.13989
961.8309, 34.09326
962.3130, 36.57446
962.7951, 53.21021
963.2772, 54.63354
963.7593, 35.74170
964.2415, 23.77905
964.7236, 24.11523
965.2057, 25.70679
965.6878, 24.93945
966.1699, 25.38892
966.6520, 34.08545
967.1342, 44.96753
967.6163, 42.08252
968.0984, 19.04346
968.5805, 6.618164
969.0626, 12.20386
969.5447, 20.56616
970.0269, 32.26514
970.5090, 41.41602
970.9911, 43.77661
971.4732, 40.07300
971.9553, 30.86548
972.4374, 11.74976
972.9196, 3.091797
973.4017, 14.94971
973.8838, 27.64014
974.3659, 40.78906
974.8480, 48.53711
975.3301, 42.14209
975.8123, 25.49463
976.2944, 15.80249
976.7765, 17.43921
977.2586, 20.11450
977.7407, 18.82495
978.2228, 21.44629
978.7050, 38.19897
979.1871, 55.24683
979.6692, 55.76050
980.1513, 44.14697
980.6334, 39.67822
981.1155, 49.38135
981.5977, 57.20654
982.0798, 57.47314
982.5619, 55.79102
983.0440, 56.10400
983.5261, 55.20264
984.0082, 46.80908
984.4904, 33.59521
984.9725, 27.09912
985.4546, 33.05396
985.9367, 38.27881
986.4188, 37.72803
986.9009, 35.03003
987.3831, 29.29443
987.8652, 24.49585
988.3473, 27.86621
988.8294, 36.88501
989.3115, 38.54395
989.7936, 24.80908
990.2758, 15.71460
990.7579, 21.81055
991.2400, 32.66260
991.7221, 46.61743
992.2042, 58.09912
992.6863, 61.14014
993.1685, 55.66113
993.6506, 44.14746
994.1327, 23.94678
994.6148, 8.130615
995.0969, 3.340332
995.5790, 4.005371
996.0612, 11.58960
996.5433, 19.00977
997.0254, 13.06372
997.5075, 2.260498
997.9896, 3.606934
998.4717, 23.97510
998.9539, 45.32886
999.4360, 33.54346
999.9181, 21.14355
1000.400, 37.25537
1000.882, 62.01929
1001.364, 71.06860
1001.847, 62.57446
1002.329, 42.56812
1002.811, 4.598877
1003.293, 17.79688
1003.775, 3.569092
1004.257, 32.27026
1004.739, 44.66089
1005.221, 48.66846
1005.703, 57.19824
1006.186, 68.23877
1006.668, 66.63647
1007.150, 42.52588
1007.632, 21.76343
1008.114, 18.43311
1008.596, 19.79199
1009.078, 22.08667
1009.560, 21.24463
1010.043, 7.432617
1010.525, 13.92407
1011.007, 20.34863
1011.489, 0.3862300
1011.971, 17.46216
1012.453, 11.97729
1012.935, 6.887695
1013.417, 19.92212
1013.899, 38.20190
1014.382, 49.85474
1014.864, 52.59546
1015.346, 43.13574
1015.828, 15.47949
1016.310, 2.041504
1016.792, 9.653320
1017.274, 24.62329
1017.756, 28.96069
1018.239, 29.31763
1018.721, 35.85791
1019.203, 44.73291
1019.685, 41.06030
1020.167, 17.70068
1020.649, 0.8828130
1021.131, 2.619873
1021.613, 8.392822
1022.095, 10.67407
1022.578, 14.59668
1023.060, 30.00049
1023.542, 50.20825
1024.024, 56.77661
1024.506, 43.93311
1024.988, 33.26123
1025.470, 29.25098
1025.952, 29.79346
1026.435, 38.75073
1026.917, 47.76489
1027.399, 49.22217
1027.881, 45.87964
1028.363, 44.90356
1028.845, 47.88477
1029.327, 47.41479
1029.809, 37.03369
1030.292, 30.21362
1030.774, 38.69727
1031.256, 43.70117
1031.738, 24.34546
1032.220, 4.051514
1032.702, 12.23633
1033.184, 3.421875
1033.666, 16.65063
1034.148, 27.16284
1034.630, 31.61206
1035.113, 23.84106
1035.595, 15.96387
1036.077, 12.30859
1036.559, 13.87769
1037.041, 25.55884
1037.523, 47.96362
1038.005, 57.93311
1038.487, 47.28345
1038.970, 37.14600
1039.452, 26.85278
1039.934, 19.81836
1040.416, 19.34790
1040.898, 20.91309
1041.380, 21.70532
1041.862, 21.49268
1042.344, 16.82446
1042.826, 1.227295
1043.309, 2.661621
1043.791, 27.31665
1044.273, 47.58398
1044.755, 37.08472
1045.237, 19.41748
1045.719, 19.42310
1046.201, 32.48047
1046.683, 36.25708
1047.166, 25.60278
1047.648, 25.04297
1048.130, 41.06421
1048.612, 46.20508
1049.094, 27.61060
1049.576, 7.339111
1050.058, 3.783447
1050.540, 12.67627
1051.022, 23.82373
1051.505, 38.04395
1051.987, 46.48706
1052.469, 49.13770
1052.951, 44.42163
1053.433, 30.43774
1053.915, 17.70093
1054.397, 13.52759
1054.879, 13.52930
1055.361, 8.523682
1055.844, 0.4516600
1056.326, 1.359375
1056.808, 5.502197
1057.290, 14.82666
1057.772, 25.78101
1058.254, 32.22974
1058.736, 30.65649
1059.218, 26.65649
1059.701, 28.13623
1060.183, 32.68359
1060.665, 30.38672
1061.147, 22.11255
1061.629, 24.05273
1062.111, 34.56055
1062.593, 35.09082
1063.075, 19.02979
1063.557, 5.477539
1064.040, 14.47705
1064.522, 34.16040
1065.004, 44.46362
1065.486, 47.76099
1065.968, 50.09790
1066.450, 50.88281
1066.932, 45.46167
1067.414, 33.30640
1067.896, 19.47656
1068.379, 2.765869
1068.861, 7.696289
1069.343, 7.403564
1069.825, 28.33130
1070.307, 25.02954
1070.789, 9.243896
1071.271, 6.309814
1071.753, 17.51367
1072.236, 27.58569
1072.718, 29.76294
1073.200, 28.50757
1073.682, 25.50562
1074.164, 21.91772
1074.646, 19.63989
1075.128, 17.26245
1075.610, 9.777344
1076.093, 1.468262
1076.575, 6.267822
1077.057, 28.47046
1077.539, 42.97119
1078.021, 29.38281
1078.503, 18.21338
1078.985, 29.58032
1079.467, 42.51953
1079.949, 35.89575
1080.432, 21.82202
1080.914, 25.86206
1081.396, 49.17773
1081.878, 57.25806
1082.360, 24.18604
1082.842, 5.832275
1083.324, 22.08154
1083.806, 40.98071
1084.288, 54.49463
1084.771, 58.71387
1085.253, 42.19482
1085.735, 11.67529
1086.217, 0.9289550
1086.699, 21.58228
1087.181, 30.66724
1087.663, 20.91431
1088.145, 14.13013
1088.628, 15.64087
1089.110, 22.62817
1089.592, 35.90039
1090.074, 49.54175
1090.556, 50.24927
1091.038, 38.78149
1091.520, 30.66553
1092.002, 26.00098
1092.484, 25.01123
1092.967, 28.49121
1093.449, 30.89233
1093.931, 29.64429
1094.413, 25.88696
1094.895, 20.11353
1095.377, 14.14014
1095.859, 18.24121
1096.341, 29.76538
1096.823, 22.28101
1097.306, 2.816162
1097.788, 9.193359
1098.270, 13.63452
1098.752, 37.71924
1099.234, 40.28320
1099.716, 34.47778
1100.198, 43.19922
1100.680, 56.63916
1101.163, 53.61548
1101.645, 39.09521
1102.127, 23.45386
1102.609, 10.71143
1103.091, 7.359619
1103.573, 17.13110
1104.055, 25.05176
1104.537, 10.85474
1105.020, 2.349365
1105.502, 12.02417
1105.984, 35.73608
1106.466, 49.16919
1106.948, 52.07544
1107.430, 48.05591
1107.912, 38.41479
1108.394, 28.41528
1108.876, 16.41162
1109.359, 10.09668
1109.841, 18.48999
1110.323, 26.56421
1110.805, 21.52197
1111.287, 13.45947
1111.769, 16.08447
1112.251, 27.86816
1112.733, 37.15356
1113.215, 44.13843
1113.698, 45.33032
1114.180, 36.08350
1114.662, 28.53931
1115.144, 25.27710
1115.626, 24.04907
1116.108, 21.90332
1116.590, 22.71436
1117.072, 37.64307
1117.555, 66.39380
1118.037, 63.78320
1118.519, 20.96289
1119.001, 0.3874510
1119.483, 9.665527
1119.965, 24.35059
1120.447, 33.48193
1120.929, 35.13184
1121.411, 25.24316
1121.894, 11.37866
1122.376, 16.13989
1122.858, 35.09741
1123.340, 48.27930
1123.822, 53.55933
1124.304, 39.76196
1124.786, 8.457275
1125.268, 10.04541
1125.750, 2.044922
1126.233, 23.50928
1126.715, 36.09644
1127.197, 39.12964
1127.679, 20.02246
1128.161, 4.469727
1128.643, 3.214600
1129.125, 15.92358
1129.607, 22.85693
1130.090, 11.23413
1130.572, 5.418945
1131.054, 22.58081
1131.536, 39.78394
1132.018, 47.21094
1132.500, 48.25171
1132.982, 42.30933
1133.464, 33.49365
1133.947, 23.63818
1134.429, 15.11597
1134.911, 16.46704
1135.393, 34.47314
1135.875, 41.59497
1136.357, 23.58838
1136.839, 12.97559
1137.321, 20.55127
1137.803, 28.72681
1138.286, 25.11719
1138.768, 19.66455
1139.250, 29.34082
1139.732, 51.19409
1140.214, 54.70850
1140.696, 35.84863
1141.178, 32.38696
1141.660, 48.65186
1142.142, 58.12598
1142.625, 52.05347
1143.107, 41.94092
1143.589, 36.35742
1144.071, 33.75220
1144.553, 31.55322
1145.035, 30.12695
1145.517, 30.92554
1145.999, 33.48340
1146.482, 36.62280
1146.964, 39.99683
1147.446, 44.80786
1147.928, 50.93335
1148.410, 50.47876
1148.892, 33.53491
1149.374, 14.62500
1149.856, 3.135742
1150.339, 0.6225590
1150.821, 8.000000
1151.303, 21.97168
1151.785, 32.76245
1152.267, 38.92212
1152.749, 40.37134
1153.231, 34.92334
1153.713, 33.40552
1154.195, 42.06079
1154.677, 49.72827
1155.160, 54.52905
1155.642, 55.12061
1156.124, 51.81055
1156.606, 44.60522
1157.088, 30.27393
1157.570, 10.91406
1158.052, 10.31665
1158.534, 36.13232
1159.017, 42.92236
1159.499, 23.91357
1159.981, 14.09424
1160.463, 24.81030
1160.945, 39.81494
1161.427, 47.86914
1161.909, 50.67041
1162.391, 48.33643
1162.874, 44.13965
1163.356, 54.67969
1163.838, 72.50903
1164.320, 71.80737
1164.802, 53.88623
1165.284, 34.20630
1165.766, 18.90698
1166.248, 13.03564
1166.730, 23.96313
1167.213, 34.96094
1167.695, 29.17749
1168.177, 20.49341
1168.659, 22.80127
1169.141, 28.55200
1169.623, 27.52661
1170.105, 20.79395
1170.587, 13.67017
1171.069, 6.454834
1171.552, 4.420410
1172.034, 14.12646
1172.516, 19.93774
1172.998, 19.13208
1173.480, 14.28052
1173.962, 3.007080
1174.444, 7.108154
1174.926, 8.159180
1175.409, 1.929688
1175.891, 5.757568
1176.373, 14.94067
1176.855, 26.58594
1177.337, 40.18530
1177.819, 45.91064
1178.301, 41.04077
1178.783, 32.25708
1179.266, 24.30200
1179.748, 16.94482
1180.230, 8.450439
1180.712, 5.112305
1181.194, 26.93115
1181.676, 54.70288
1182.158, 50.23315
1182.640, 26.87012
1183.122, 16.37891
1183.604, 21.11743
1184.087, 24.63989
1184.569, 20.94409
1185.051, 15.92285
1185.533, 11.48291
1186.015, 7.361816
1186.497, 2.281006
1186.979, 1.297852
1187.461, 2.763184
1187.944, 0.9196780
1188.426, 7.578857
1188.908, 21.08887
1189.390, 29.60083
1189.872, 33.01953
1190.354, 31.13306
1190.836, 22.45093
1191.318, 13.29297
1191.801, 4.544189
1192.283, 0.9653320
1192.765, 1.566650
1193.247, 1.278564
1193.729, 4.786133
1194.211, 11.91064
1194.693, 35.50366
1195.175, 66.60962
1195.657, 83.27563
1196.140, 85.42383
1196.622, 72.74512
1197.104, 50.21826
1197.586, 37.15454
1198.068, 42.84985
1198.550, 50.41211
1199.032, 50.01440
1199.514, 47.48120
1199.996, 44.46802
1200.479, 42.29810
1200.961, 42.20264
1201.443, 43.40381
1201.925, 43.82471
1202.407, 47.08740
1202.889, 45.48096
1203.371, 34.57080
1203.853, 31.14062
1204.336, 38.39917
1204.818, 42.92090
1205.300, 42.46826
1205.782, 36.42407
1206.264, 23.04980
1206.746, 13.94800
1207.228, 25.69897
1207.710, 46.16357
1208.193, 41.34961
1208.675, 22.84155
1209.157, 17.72412
1209.639, 22.43921
1210.121, 24.92676
1210.603, 22.37256
1211.085, 17.92700
1211.567, 14.06348
1212.049, 12.85889
1212.531, 21.22510
1213.014, 25.52124
1213.496, 9.114746
1213.978, 3.465576
1214.460, 13.87305
1214.942, 38.29956
1215.424, 39.11963
1215.906, 21.91626
1216.388, 10.01904
1216.871, 2.855713
1217.353, 6.939697
1217.835, 27.97827
1218.317, 33.40161
1218.799, 15.59741
1219.281, 5.315186
1219.763, 15.62842
1220.245, 34.88794
1220.728, 54.78320
1221.210, 67.20068
1221.692, 47.05420
1222.174, 16.39136
1222.656, 10.29932
1223.138, 17.78491
1223.620, 14.03784
1224.102, 1.644531
1224.584, 0.4333500
1225.067, 14.11108
1225.549, 21.94458
1226.031, 9.830811
1226.513, 0.1394040
1226.995, 1.325684
1227.477, 4.025879
1227.959, 1.557373
1228.441, 0.0000000E+00
##END=



