##NAMES=Meta-autunite
##RRUFFID=R060476
##IDEAL CHEMISTRY=Ca(U^6+^O_2_)_2_(PO_4_)_2_&#183;6H_2_O
##LOCALITY=San Pedro mine, Malacheta, Minas Gerais, Brazil
##OWNER=RRUFF
##SOURCE=Michael Scott
##DESCRIPTION=Book of yellowish-green thin tabular crystals
##STATUS=The identification of this mineral has been confirmed by X-ray diffraction and chemical analysis
##URL=rruff.info/R060476
##MEASURED CHEMISTRY=(Ca_0.87_Sr_0.05_Ba_0.04_)_∑=0.96_(UO_2_)_1.95_(PO_4_)_2.08_·4.10H_2_O
153.7104, 0.0000000E+00
154.1925, 79.37549
154.6746, 37.02930
155.1567, 28.83984
155.6389, 26.46094
156.1210, 95.39665
156.6031, 164.9209
157.0852, 310.8936
157.5673, 483.0273
158.0495, 663.9648
158.5316, 848.0146
159.0137, 1024.099
159.4958, 1207.747
159.9779, 1411.374
160.4600, 1627.764
160.9422, 1835.877
161.4243, 2025.250
161.9064, 2204.394
162.3885, 2377.055
162.8706, 2543.437
163.3527, 2708.368
163.8349, 2881.840
164.3170, 3060.099
164.7991, 3226.417
165.2812, 3361.276
165.7633, 3485.214
166.2454, 3616.563
166.7276, 3758.815
167.2097, 3911.435
167.6918, 4079.429
168.1739, 4259.562
168.6560, 4446.793
169.1381, 4636.888
169.6203, 4730.781
170.1024, 4887.322
170.5845, 4886.727
171.0666, 4900.561
171.5487, 4941.270
172.0309, 5006.899
172.5130, 5079.854
172.9951, 5156.158
173.4772, 5230.645
173.9593, 5295.588
174.4414, 5333.955
174.9236, 5367.955
175.4057, 5423.379
175.8878, 5501.555
176.3699, 5577.523
176.8520, 5635.567
177.3341, 5677.382
177.8163, 5707.127
178.2984, 5724.281
178.7805, 5730.044
179.2626, 5726.045
179.7447, 5710.941
180.2268, 5685.686
180.7090, 5640.462
181.1911, 5582.740
181.6732, 5535.527
182.1553, 5520.186
182.6374, 5520.836
183.1195, 5499.021
183.6017, 5451.996
184.0838, 5398.703
184.5659, 5360.717
185.0480, 5336.035
185.5301, 5316.811
186.0123, 5300.777
186.4944, 5287.117
186.9765, 5269.857
187.4586, 5247.695
187.9407, 5227.145
188.4228, 5220.691
188.9050, 5226.500
189.3871, 5230.520
189.8692, 5224.689
190.3513, 5209.990
190.8334, 5192.143
191.3155, 5169.963
191.7977, 5147.754
192.2798, 5137.570
192.7619, 5139.588
193.2440, 5131.498
193.7261, 5101.809
194.2082, 5051.662
194.6904, 4990.010
195.1725, 4913.400
195.6546, 4833.793
196.1367, 4773.676
196.6188, 4733.770
197.1009, 4702.570
197.5831, 4678.053
198.0652, 4660.416
198.5473, 4633.156
199.0294, 4593.697
199.5115, 4546.088
199.9937, 4496.879
200.4758, 4444.914
200.9579, 4395.580
201.4400, 4353.371
201.9221, 4318.916
202.4042, 4278.652
202.8864, 4228.930
203.3685, 4175.434
203.8506, 4132.807
204.3327, 4102.740
204.8148, 4075.279
205.2969, 4046.068
205.7791, 4015.393
206.2612, 3979.709
206.7433, 3936.363
207.2254, 3889.684
207.7075, 3853.361
208.1896, 3832.654
208.6718, 3807.342
209.1539, 3763.320
209.6360, 3694.861
210.1181, 3637.791
210.6002, 3597.357
211.0823, 3568.094
211.5645, 3509.803
212.0466, 3447.688
212.5287, 3383.982
213.0108, 3320.840
213.4929, 3261.033
213.9750, 3195.514
214.4572, 3116.648
214.9393, 3033.510
215.4214, 2976.506
215.9035, 2955.607
216.3856, 2940.391
216.8678, 2913.020
217.3499, 2869.455
217.8320, 2827.117
218.3141, 2784.812
218.7962, 2743.438
219.2783, 2708.186
219.7605, 2682.963
220.2426, 2654.615
220.7247, 2613.863
221.2068, 2552.996
221.6889, 2502.318
222.1710, 2467.531
222.6532, 2443.119
223.1353, 2409.346
223.6174, 2360.592
224.0995, 2310.441
224.5816, 2267.723
225.0637, 2239.482
225.5459, 2203.182
226.0280, 2153.193
226.5101, 2095.379
226.9922, 2048.535
227.4743, 2017.250
227.9564, 1989.365
228.4386, 1960.424
228.9207, 1932.727
229.4028, 1896.084
229.8849, 1846.809
230.3670, 1789.396
230.8492, 1736.451
231.3313, 1689.180
231.8134, 1644.365
232.2955, 1600.912
232.7776, 1559.180
233.2597, 1518.543
233.7419, 1479.889
234.2240, 1442.742
234.7061, 1404.520
235.1882, 1362.723
235.6703, 1324.559
236.1524, 1293.713
236.6346, 1272.875
237.1167, 1254.137
237.5988, 1239.678
238.0809, 1226.691
238.5630, 1208.738
239.0451, 1182.773
239.5273, 1155.500
240.0094, 1128.691
240.4915, 1100.176
240.9736, 1077.010
241.4557, 1063.203
241.9378, 1052.324
242.4200, 1029.924
242.9021, 986.3711
243.3842, 946.0312
243.8663, 919.0703
244.3484, 911.0684
244.8306, 899.5176
245.3127, 883.6543
245.7948, 864.4043
246.2769, 843.5957
246.7590, 822.3320
247.2411, 797.4707
247.7233, 766.9922
248.2054, 728.6758
248.6875, 694.0137
249.1696, 663.4160
249.6517, 636.5059
250.1338, 613.3867
250.6160, 598.0586
251.0981, 579.6855
251.5802, 552.8086
252.0623, 514.2988
252.5444, 485.5527
253.0265, 470.1602
253.5087, 461.5527
253.9908, 450.7812
254.4729, 439.7598
254.9550, 423.6152
255.4371, 399.3027
255.9192, 365.1016
256.4014, 335.4766
256.8835, 310.3887
257.3656, 289.8203
257.8477, 274.2871
258.3298, 263.9980
258.8120, 258.6758
259.2941, 260.9668
259.7762, 271.9453
260.2583, 271.3574
260.7404, 253.4609
261.2225, 230.7129
261.7047, 218.0488
262.1868, 220.3652
262.6689, 219.2969
263.1510, 209.3594
263.6331, 190.3926
264.1152, 176.1504
264.5974, 167.4941
265.0795, 161.6387
265.5616, 156.3984
266.0437, 154.3145
266.5258, 146.8105
267.0079, 130.4473
267.4901, 107.3320
267.9722, 94.22461
268.4543, 97.79492
268.9364, 99.57227
269.4185, 81.98242
269.9006, 39.66406
270.3828, 2.320313
270.8649, 26.83594
271.3470, 47.08203
271.8291, 52.59570
272.3112, 39.82812
272.7933, 23.67773
273.2755, 14.62109
273.7576, 13.26367
274.2397, 17.74609
274.7218, 30.23633
275.2039, 47.63281
275.6860, 59.11719
276.1682, 63.87109
276.6503, 67.23047
277.1324, 70.01562
277.6145, 71.27734
278.0966, 80.00195
278.5787, 96.61328
279.0609, 118.8359
279.5430, 145.6406
280.0251, 178.6211
280.5072, 202.3281
280.9893, 202.1582
281.4715, 178.2090
281.9536, 166.7578
282.4357, 172.7422
282.9178, 185.1914
283.3999, 186.4434
283.8820, 176.7148
284.3642, 161.1250
284.8463, 142.0391
285.3284, 119.8281
285.8105, 94.49219
286.2926, 66.30664
286.7747, 36.89062
287.2569, 5.925781
287.7390, 25.94141
288.2211, 51.07227
288.7032, 64.95117
289.1853, 69.09180
289.6674, 70.85352
290.1496, 69.94727
290.6317, 69.68945
291.1138, 76.63672
291.5959, 89.71680
292.0780, 97.30664
292.5602, 94.57617
293.0423, 85.05469
293.5244, 74.69336
294.0065, 63.51172
294.4886, 57.67773
294.9707, 67.77148
295.4529, 89.38867
295.9350, 105.5586
296.4171, 110.8652
296.8992, 109.6367
297.3813, 106.3438
297.8634, 101.3086
298.3456, 100.5625
298.8277, 113.6895
299.3098, 134.4375
299.7919, 147.6621
300.2740, 145.8125
300.7561, 141.8125
301.2383, 154.4238
301.7204, 180.5742
302.2025, 204.0840
302.6846, 209.3711
303.1667, 208.0430
303.6488, 221.2480
304.1310, 256.3418
304.6131, 292.6680
305.0952, 304.5156
305.5773, 299.1445
306.0594, 295.7461
306.5415, 307.8125
307.0237, 327.2656
307.5058, 348.6621
307.9879, 371.0215
308.4700, 388.3457
308.9521, 391.3164
309.4343, 387.2598
309.9164, 390.4043
310.3985, 416.9707
310.8806, 444.5254
311.3627, 451.6953
311.8448, 438.9980
312.3270, 431.3359
312.8091, 441.9570
313.2912, 464.4180
313.7733, 490.7246
314.2554, 528.0742
314.7375, 559.2988
315.2197, 572.4551
315.7018, 570.2402
316.1839, 566.9766
316.6660, 568.3457
317.1481, 574.4902
317.6302, 586.7871
318.1124, 613.2324
318.5945, 629.8262
319.0766, 621.5586
319.5587, 595.3008
320.0408, 574.9062
320.5229, 568.5176
321.0051, 570.6895
321.4872, 580.0078
321.9693, 600.2246
322.4514, 615.3652
322.9335, 624.6602
323.4156, 627.3633
323.8978, 621.2188
324.3799, 592.9355
324.8620, 567.5840
325.3441, 553.6914
325.8262, 551.7266
326.3083, 558.8418
326.7905, 590.8281
327.2726, 626.8398
327.7547, 640.1348
328.2368, 599.0391
328.7189, 568.7168
329.2010, 567.1602
329.6832, 597.4258
330.1653, 613.2383
330.6474, 611.4766
331.1295, 596.5273
331.6116, 570.7891
332.0938, 516.3555
332.5759, 480.5664
333.0580, 475.4023
333.5401, 498.0430
334.0222, 514.8711
334.5043, 526.4707
334.9865, 527.7129
335.4686, 515.5605
335.9507, 483.7070
336.4328, 458.6934
336.9149, 444.5156
337.3970, 437.7910
337.8792, 425.9609
338.3613, 407.9727
338.8434, 387.1875
339.3255, 367.4570
339.8076, 348.7344
340.2898, 331.8281
340.7719, 318.4629
341.2540, 305.5664
341.7361, 288.7070
342.2182, 266.7207
342.7003, 247.2207
343.1825, 231.4941
343.6646, 220.2793
344.1467, 216.3574
344.6288, 221.5430
345.1109, 227.2754
345.5930, 222.5645
346.0752, 207.7344
346.5573, 200.7070
347.0394, 209.7773
347.5215, 225.5234
348.0036, 227.3477
348.4857, 215.0117
348.9679, 201.8867
349.4500, 200.7812
349.9321, 207.5078
350.4142, 209.4258
350.8963, 204.0156
351.3784, 195.3398
351.8606, 187.1133
352.3427, 179.2734
352.8248, 172.2656
353.3069, 163.9336
353.7890, 156.1836
354.2711, 153.7188
354.7533, 156.9609
355.2354, 160.9023
355.7175, 165.0938
356.1996, 166.6367
356.6817, 159.9375
357.1638, 130.7266
357.6460, 100.3750
358.1281, 87.30078
358.6102, 90.24609
359.0923, 95.83203
359.5744, 101.1367
360.0565, 102.5664
360.5387, 96.40625
361.0208, 77.94141
361.5029, 56.71875
361.9850, 30.53516
362.4671, 3.507813
362.9492, 12.33984
363.4314, 2.785156
363.9135, 19.05859
364.3956, 17.55078
364.8777, 15.45703
365.3598, 38.11328
365.8419, 32.05859
366.3241, 12.28125
366.8062, 1.843750
367.2883, 16.94922
367.7704, 29.50391
368.2526, 26.79297
368.7347, 2.136719
369.2168, 0.6367190
369.6989, 42.08203
370.1810, 92.64453
370.6631, 119.4961
371.1453, 111.4219
371.6274, 95.45703
372.1095, 69.09375
372.5916, 34.66406
373.0737, 10.85547
373.5558, 5.546875
374.0380, 7.695313
374.5201, 12.96875
375.0022, 72.13281
375.4843, 102.8750
375.9664, 94.92188
376.4485, 64.69141
376.9307, 39.79688
377.4128, 21.12500
377.8949, 9.972656
378.3770, 11.92578
378.8591, 4.669175
379.3412, 7.588017
379.8234, 8.476563
380.3055, 12.46094
380.7876, 20.26562
381.2697, 16.32031
381.7518, 7.679688
382.2339, 5.734375
382.7161, 21.18359
383.1982, 30.29688
383.6803, 33.70703
384.1624, 35.10938
384.6445, 35.60156
385.1266, 36.67969
385.6088, 44.12109
386.0909, 61.86328
386.5730, 79.23828
387.0551, 85.93359
387.5372, 83.09766
388.0193, 73.29297
388.5015, 53.41016
388.9836, 31.29297
389.4657, 11.69531
389.9478, 4.746094
390.4299, 7.085938
390.9120, 32.50391
391.3942, 83.19531
391.8763, 108.4219
392.3584, 71.77344
392.8405, 29.58203
393.3226, 7.621094
393.8047, 4.144531
394.2869, 9.613281
394.7690, 41.11719
395.2511, 65.48438
395.7332, 58.03906
396.2154, 71.32521
396.6975, 57.27734
397.1796, 63.26953
397.6617, 44.57812
398.1438, 31.62500
398.6259, 26.09766
399.1081, 29.86719
399.5902, 50.13281
400.0723, 92.20703
400.5544, 108.9766
401.0365, 71.22266
401.5186, 29.56250
402.0008, 28.13281
402.4829, 104.6562
402.9650, 149.1016
403.4471, 136.1172
403.9292, 81.29688
404.4113, 52.52344
404.8935, 61.37500
405.3756, 72.85938
405.8577, 68.51953
406.3398, 45.29688
406.8219, 19.65625
407.3040, 8.441406
407.7862, 34.96094
408.2683, 50.23438
408.7504, 53.47656
409.2325, 61.92188
409.7146, 84.31250
410.1967, 115.0469
410.6789, 131.7109
411.1610, 133.7188
411.6431, 123.7617
412.1252, 94.70312
412.6073, 54.85547
413.0894, 32.44531
413.5716, 40.95703
414.0537, 57.49609
414.5358, 58.66406
415.0179, 48.23438
415.5000, 30.79688
415.9821, 6.308594
416.4643, 21.41016
416.9464, 48.77734
417.4285, 74.30078
417.9106, 94.76562
418.3927, 104.5586
418.8748, 107.7852
419.3570, 107.9141
419.8391, 104.8398
420.3212, 100.5703
420.8033, 99.60156
421.2854, 102.3984
421.7675, 104.1250
422.2497, 109.3320
422.7318, 106.4883
423.2139, 87.91016
423.6960, 42.95703
424.1781, 11.86719
424.6602, 8.058594
425.1424, 16.67578
425.6245, 16.60547
426.1066, 4.359375
426.5887, 17.16016
427.0709, 19.25781
427.5530, 13.56641
428.0351, 34.68683
428.5172, 31.63281
428.9993, 64.44922
429.4814, 85.46484
429.9636, 91.26953
430.4457, 101.3477
430.9278, 120.3906
431.4099, 139.2656
431.8920, 130.7891
432.3741, 89.29688
432.8563, 56.42188
433.3384, 55.93750
433.8205, 86.85156
434.3026, 130.5000
434.7847, 189.6875
435.2668, 242.1680
435.7490, 259.0273
436.2311, 248.7305
436.7132, 238.2266
437.1953, 233.5664
437.6774, 236.9844
438.1595, 258.8672
438.6417, 293.6289
439.1238, 320.3203
439.6059, 318.3594
440.0880, 306.1602
440.5701, 303.7773
441.0522, 315.3555
441.5344, 330.5117
442.0165, 349.0586
442.4986, 365.6641
442.9807, 373.1133
443.4628, 361.5234
443.9449, 346.5391
444.4271, 336.5156
444.9092, 329.8203
445.3913, 315.8672
445.8734, 264.5273
446.3555, 224.7500
446.8376, 224.0586
447.3198, 294.1641
447.8019, 342.7656
448.2840, 350.3086
448.7661, 339.5859
449.2482, 344.2383
449.7303, 379.8555
450.2125, 408.1406
450.6946, 420.1445
451.1767, 416.5742
451.6588, 408.7734
452.1409, 392.5195
452.6230, 382.7031
453.1052, 396.9688
453.5873, 440.7070
454.0694, 457.8008
454.5515, 434.1250
455.0337, 397.6133
455.5158, 393.4961
455.9979, 420.6250
456.4800, 455.8047
456.9621, 497.1367
457.4442, 538.2148
457.9264, 560.4453
458.4085, 564.4219
458.8906, 572.1016
459.3727, 612.0625
459.8548, 664.8438
460.3369, 692.4844
460.8191, 676.2188
461.3012, 663.0312
461.7833, 699.0195
462.2654, 766.4922
462.7475, 827.6562
463.2296, 863.2656
463.7118, 892.0508
464.1939, 918.9961
464.6760, 944.8086
465.1581, 984.3359
465.6402, 1059.125
466.1223, 1136.562
466.6045, 1191.742
467.0866, 1188.176
467.5687, 1200.305
468.0508, 1242.637
468.5329, 1301.898
469.0150, 1351.074
469.4972, 1385.758
469.9793, 1415.492
470.4614, 1440.008
470.9435, 1458.547
471.4256, 1488.801
471.9077, 1537.332
472.3899, 1586.488
472.8720, 1619.930
473.3541, 1638.219
473.8362, 1652.320
474.3183, 1661.770
474.8004, 1672.031
475.2826, 1694.172
475.7647, 1727.598
476.2468, 1765.531
476.7289, 1804.488
477.2110, 1845.230
477.6931, 1894.004
478.1753, 1950.812
478.6574, 1994.566
479.1395, 1991.406
479.6216, 1968.449
480.1037, 1967.230
480.5858, 2007.027
481.0680, 2055.719
481.5501, 2102.082
482.0322, 2141.801
482.5143, 2164.414
482.9964, 2140.695
483.4786, 2122.020
483.9607, 2140.371
484.4428, 2200.793
484.9249, 2248.734
485.4070, 2263.508
485.8892, 2268.676
486.3713, 2280.156
486.8534, 2287.004
487.3355, 2316.820
487.8176, 2382.297
488.2997, 2466.535
488.7819, 2534.977
489.2640, 2580.539
489.7461, 2625.742
490.2282, 2678.250
490.7103, 2737.555
491.1924, 2786.602
491.6746, 2822.332
492.1567, 2859.723
492.6388, 2913.395
493.1209, 2981.883
493.6030, 3046.844
494.0851, 3108.820
494.5673, 3160.652
495.0494, 3182.590
495.5315, 3182.805
496.0136, 3189.305
496.4957, 3223.297
496.9778, 3266.211
497.4600, 3302.004
497.9421, 3330.352
498.4242, 3350.070
498.9063, 3359.391
499.3884, 3361.238
499.8705, 3357.113
500.3527, 3343.227
500.8348, 3333.527
501.3169, 3333.859
501.7990, 3341.113
502.2811, 3351.258
502.7632, 3379.629
503.2454, 3394.078
503.7275, 3382.777
504.2096, 3348.695
504.6917, 3319.629
505.1738, 3293.879
505.6559, 3277.074
506.1381, 3275.551
506.6202, 3296.250
507.1023, 3304.570
507.5844, 3293.949
508.0665, 3284.254
508.5486, 3304.891
509.0308, 3356.625
509.5129, 3410.566
509.9950, 3460.770
510.4771, 3505.594
510.9592, 3541.914
511.4413, 3568.875
511.9235, 3589.773
512.4056, 3610.574
512.8877, 3623.578
513.3698, 3608.008
513.8519, 3559.078
514.3340, 3524.637
514.8162, 3567.133
515.2983, 3634.238
515.7804, 3662.328
516.2625, 3605.270
516.7446, 3542.293
517.2267, 3498.953
517.7089, 3474.680
518.1910, 3467.684
518.6731, 3505.387
519.1552, 3536.238
519.6373, 3537.773
520.1194, 3506.523
520.6016, 3486.133
521.0837, 3481.980
521.5658, 3481.902
522.0479, 3476.012
522.5300, 3460.324
523.0121, 3453.051
523.4943, 3460.219
523.9764, 3468.977
524.4585, 3451.848
524.9406, 3408.664
525.4227, 3370.004
525.9048, 3347.094
526.3870, 3336.633
526.8691, 3341.188
527.3513, 3358.328
527.8334, 3351.250
528.3155, 3268.430
528.7976, 3153.859
529.2797, 3072.629
529.7618, 3035.418
530.2440, 3011.078
530.7261, 2988.816
531.2082, 2962.715
531.6903, 2926.168
532.1724, 2848.473
532.6545, 2788.801
533.1367, 2780.336
533.6188, 2807.363
534.1009, 2812.348
534.5830, 2771.012
535.0651, 2721.777
535.5472, 2675.426
536.0294, 2630.594
536.5115, 2597.465
536.9936, 2583.531
537.4757, 2571.527
537.9578, 2544.680
538.4399, 2498.602
538.9221, 2464.254
539.4042, 2446.980
539.8863, 2437.477
540.3684, 2417.367
540.8505, 2387.645
541.3326, 2361.453
541.8148, 2348.941
542.2969, 2340.445
542.7790, 2313.348
543.2611, 2270.648
543.7432, 2233.691
544.2253, 2231.805
544.7075, 2235.273
545.1896, 2206.133
545.6717, 2131.391
546.1538, 2069.684
546.6359, 2059.023
547.1180, 2072.391
547.6002, 2081.695
548.0823, 2077.289
548.5644, 2071.766
549.0465, 2067.191
549.5286, 2062.547
550.0107, 2056.473
550.4929, 2056.875
550.9750, 2042.410
551.4571, 2000.902
551.9392, 1931.461
552.4213, 1874.297
552.9034, 1828.098
553.3856, 1795.297
553.8677, 1790.000
554.3498, 1807.762
554.8319, 1789.375
555.3140, 1722.449
555.7961, 1642.172
556.2783, 1593.770
556.7604, 1570.293
557.2425, 1553.797
557.7246, 1543.340
558.2067, 1531.805
558.6888, 1513.320
559.1710, 1489.035
559.6531, 1462.285
560.1352, 1432.035
560.6173, 1403.457
561.0994, 1382.102
561.5815, 1369.027
562.0637, 1354.699
562.5458, 1326.934
563.0279, 1304.648
563.5100, 1301.508
563.9921, 1339.078
564.4742, 1353.000
564.9564, 1330.332
565.4385, 1291.262
565.9206, 1270.043
566.4027, 1268.871
566.8848, 1274.301
567.3669, 1287.219
567.8491, 1301.711
568.3312, 1297.918
568.8133, 1276.859
569.2954, 1255.316
569.7775, 1253.867
570.2596, 1258.320
570.7418, 1241.445
571.2239, 1199.699
571.7060, 1151.930
572.1881, 1095.836
572.6702, 1050.078
573.1523, 1039.219
573.6345, 1104.172
574.1166, 1145.691
574.5987, 1103.734
575.0808, 1018.250
575.5629, 953.9492
576.0450, 947.2305
576.5272, 940.1523
577.0093, 925.0391
577.4914, 901.3945
577.9735, 863.3008
578.4556, 799.3477
578.9377, 748.9492
579.4199, 736.5195
579.9020, 764.5391
580.3841, 776.7734
580.8662, 773.0195
581.3483, 760.7031
581.8304, 746.3633
582.3126, 730.6992
582.7947, 714.0508
583.2768, 694.7344
583.7589, 675.6680
584.2410, 651.5156
584.7231, 631.7773
585.2053, 634.7031
585.6874, 682.5352
586.1696, 740.6992
586.6517, 810.0586
587.1338, 878.1250
587.6159, 896.2031
588.0980, 788.5586
588.5801, 684.3008
589.0623, 645.8242
589.5444, 685.9648
590.0265, 701.3008
590.5086, 688.0234
590.9907, 658.7227
591.4728, 615.5156
591.9550, 553.6016
592.4371, 518.7891
592.9192, 522.6797
593.4013, 542.5117
593.8834, 549.1992
594.3655, 543.3945
594.8477, 526.0312
595.3298, 492.5078
595.8119, 455.2891
596.2940, 432.3125
596.7761, 422.8242
597.2582, 417.6602
597.7404, 406.8711
598.2225, 401.2578
598.7046, 413.5703
599.1867, 443.8008
599.6688, 462.5039
600.1509, 451.6328
600.6331, 431.7070
601.1152, 414.9375
601.5973, 399.5859
602.0794, 385.6602
602.5615, 379.1406
603.0436, 371.9297
603.5258, 354.7578
604.0079, 325.9297
604.4900, 300.0703
604.9721, 285.0508
605.4542, 270.8242
605.9363, 229.1406
606.4185, 165.6641
606.9006, 115.0859
607.3827, 101.8359
607.8648, 109.6016
608.3469, 123.4883
608.8290, 140.8633
609.3112, 152.4414
609.7933, 150.1836
610.2754, 139.6016
610.7575, 117.8164
611.2396, 83.86328
611.7217, 63.50781
612.2039, 78.25781
612.6860, 98.89844
613.1681, 102.0703
613.6502, 69.86328
614.1323, 54.71484
614.6144, 66.31250
615.0966, 86.35156
615.5787, 83.11328
616.0608, 52.27344
616.5429, 24.75391
617.0250, 9.894531
617.5071, 4.332031
617.9893, 6.117188
618.4714, 12.28125
618.9535, 21.56443
619.4356, 16.58203
619.9177, 51.16016
620.3998, 77.63281
620.8820, 95.58203
621.3641, 102.9766
621.8462, 90.96484
622.3283, 75.20312
622.8104, 67.88672
623.2925, 74.94922
623.7747, 78.14844
624.2568, 70.16406
624.7389, 60.30469
625.2210, 56.20312
625.7031, 60.56641
626.1852, 66.59375
626.6674, 70.99219
627.1495, 78.69531
627.6316, 103.9844
628.1137, 148.3203
628.5958, 171.5078
629.0779, 154.0312
629.5601, 117.0664
630.0422, 97.62500
630.5243, 94.04297
631.0064, 103.2148
631.4885, 139.0898
631.9706, 175.0000
632.4528, 178.6602
632.9349, 151.6328
633.4170, 134.8164
633.8991, 162.8125
634.3812, 192.7109
634.8633, 198.8281
635.3455, 168.2266
635.8276, 143.5430
636.3097, 129.2070
636.7918, 117.4062
637.2739, 102.2148
637.7560, 82.16406
638.2382, 64.85938
638.7203, 52.06641
639.2024, 41.40234
639.6845, 34.80078
640.1666, 31.57031
640.6487, 43.54488
641.1309, 29.93750
641.6130, 80.76562
642.0951, 121.6992
642.5772, 149.5430
643.0594, 160.3203
643.5415, 133.3398
644.0236, 104.9102
644.5057, 102.0859
644.9879, 121.1836
645.4700, 125.6328
645.9521, 90.61719
646.4342, 54.35547
646.9163, 36.75391
647.3984, 42.94141
647.8806, 30.86328
648.3627, 7.984375
648.8448, 49.04297
649.3269, 73.23438
649.8090, 80.01172
650.2911, 87.22266
650.7733, 98.67188
651.2554, 105.6016
651.7375, 101.1992
652.2196, 85.28125
652.7017, 57.81641
653.1838, 59.41781
653.6660, 58.16917
654.1481, 60.42969
654.6302, 83.19531
655.1123, 106.5352
655.5944, 135.4062
656.0765, 162.3086
656.5587, 185.9805
657.0408, 205.3594
657.5229, 214.2539
658.0050, 199.5156
658.4871, 198.5156
658.9692, 232.4453
659.4514, 295.7539
659.9335, 323.3750
660.4156, 312.3867
660.8977, 293.6094
661.3798, 290.5547
661.8619, 298.1758
662.3441, 299.8359
662.8262, 294.7930
663.3083, 287.6641
663.7904, 284.7656
664.2725, 281.1406
664.7546, 270.1953
665.2368, 247.3477
665.7189, 226.8867
666.2010, 211.6719
666.6831, 202.0039
667.1652, 198.8633
667.6473, 207.8281
668.1295, 213.3125
668.6116, 209.3320
669.0937, 204.0234
669.5758, 219.7188
670.0579, 259.6016
670.5400, 284.1641
671.0222, 275.0508
671.5043, 250.2109
671.9864, 240.7656
672.4685, 245.9492
672.9506, 263.0586
673.4327, 308.3008
673.9149, 351.9375
674.3970, 358.9961
674.8791, 333.9805
675.3612, 318.1992
675.8433, 338.3047
676.3254, 361.7148
676.8076, 371.0117
677.2897, 362.6484
677.7718, 359.1055
678.2539, 364.8457
678.7360, 372.4727
679.2181, 376.6172
679.7003, 378.1719
680.1824, 387.1113
680.6645, 405.2930
681.1466, 425.7891
681.6287, 440.3516
682.1108, 451.4492
682.5930, 467.8379
683.0751, 491.1719
683.5572, 515.5879
684.0393, 535.3965
684.5214, 551.7656
685.0035, 566.0117
685.4857, 577.3184
685.9678, 585.3359
686.4499, 588.9219
686.9320, 592.3086
687.4141, 601.7734
687.8962, 621.0938
688.3784, 637.9258
688.8605, 649.9512
689.3426, 656.3125
689.8247, 658.7695
690.3068, 658.4590
690.7889, 651.5645
691.2711, 628.3125
691.7532, 597.6406
692.2353, 588.4258
692.7174, 598.1035
693.1995, 600.7090
693.6816, 573.4805
694.1638, 536.1270
694.6459, 500.9121
695.1280, 469.2188
695.6101, 449.9629
696.0922, 447.2148
696.5743, 456.4492
697.0565, 478.4883
697.5386, 521.1250
698.0207, 537.9883
698.5028, 518.2031
698.9849, 499.9746
699.4670, 527.1875
699.9492, 593.1523
700.4313, 631.3809
700.9135, 631.3984
701.3956, 619.2617
701.8777, 619.7617
702.3598, 628.3965
702.8419, 637.8809
703.3240, 646.4531
703.8062, 650.6523
704.2883, 644.5234
704.7704, 634.2168
705.2525, 631.0898
705.7346, 644.5234
706.2167, 651.6973
706.6989, 648.2344
707.1810, 639.4746
707.6631, 638.6641
708.1452, 650.8223
708.6273, 648.6699
709.1094, 617.8418
709.5916, 576.1836
710.0737, 567.0781
710.5558, 586.5176
711.0379, 607.0918
711.5200, 611.6719
712.0021, 610.8848
712.4843, 613.2910
712.9664, 617.7246
713.4485, 618.1699
713.9306, 603.7441
714.4127, 591.9180
714.8948, 593.5059
715.3770, 607.7656
715.8591, 617.3418
716.3412, 623.2754
716.8233, 625.1504
717.3054, 622.1191
717.7875, 612.9141
718.2697, 605.6211
718.7518, 599.7012
719.2339, 595.2090
719.7160, 595.7793
720.1981, 596.7539
720.6802, 586.6055
721.1624, 563.2578
721.6445, 544.6777
722.1266, 546.5605
722.6087, 555.2148
723.0908, 559.8301
723.5729, 560.2930
724.0551, 554.6035
724.5372, 538.5840
725.0193, 521.2168
725.5014, 513.2754
725.9835, 516.1152
726.4656, 519.6680
726.9478, 522.1387
727.4299, 526.0742
727.9120, 541.6973
728.3941, 561.8027
728.8762, 563.5840
729.3583, 531.9590
729.8405, 498.7520
730.3226, 491.9688
730.8047, 501.2656
731.2868, 511.7207
731.7689, 522.4219
732.2510, 527.1855
732.7332, 517.6953
733.2153, 502.3164
733.6974, 498.8477
734.1795, 513.5820
734.6616, 523.5898
735.1437, 522.2520
735.6259, 513.4434
736.1080, 505.5527
736.5901, 499.0762
737.0722, 497.6699
737.5543, 506.6582
738.0364, 518.5859
738.5186, 525.8926
739.0007, 528.9883
739.4828, 528.2656
739.9649, 527.8828
740.4470, 520.2383
740.9291, 493.5938
741.4113, 451.3750
741.8934, 434.1660
742.3755, 459.0332
742.8576, 477.7441
743.3397, 466.3086
743.8218, 429.9277
744.3040, 411.4414
744.7861, 411.8496
745.2682, 416.8047
745.7503, 421.4648
746.2324, 422.2168
746.7145, 410.4668
747.1967, 386.5312
747.6788, 368.1738
748.1609, 370.6953
748.6430, 377.6074
749.1251, 376.2324
749.6072, 362.3027
750.0894, 355.4883
750.5715, 356.1855
751.0536, 365.1484
751.5357, 390.0703
752.0178, 434.4395
752.4999, 441.8125
752.9821, 407.5371
753.4642, 366.7656
753.9463, 353.0312
754.4284, 357.5703
754.9105, 364.5410
755.3926, 372.3086
755.8748, 376.8301
756.3569, 369.1055
756.8390, 359.5254
757.3211, 358.2402
757.8032, 374.3379
758.2853, 382.3789
758.7675, 375.2891
759.2496, 364.4258
759.7318, 361.1289
760.2139, 367.8535
760.6960, 366.2441
761.1781, 352.9668
761.6602, 339.2969
762.1423, 342.2031
762.6245, 355.3145
763.1066, 362.7207
763.5887, 360.3457
764.0708, 355.7812
764.5529, 353.6445
765.0350, 353.0000
765.5172, 352.7754
765.9993, 354.0059
766.4814, 353.5918
766.9635, 351.6406
767.4456, 346.8027
767.9277, 336.1680
768.4099, 317.5762
768.8920, 305.9961
769.3741, 304.8379
769.8562, 307.1406
770.3383, 301.0723
770.8204, 289.6895
771.3026, 281.6328
771.7847, 282.0742
772.2668, 281.9199
772.7489, 276.0234
773.2310, 265.8809
773.7131, 254.1211
774.1953, 234.2012
774.6774, 222.7109
775.1595, 225.3770
775.6416, 235.1836
776.1237, 239.6406
776.6058, 238.3301
777.0880, 234.1816
777.5701, 226.7129
778.0522, 219.4336
778.5343, 217.3242
779.0164, 219.9023
779.4985, 227.0098
779.9807, 246.0586
780.4628, 260.9141
780.9449, 255.2188
781.4270, 238.6992
781.9091, 230.8574
782.3912, 248.1113
782.8734, 258.5215
783.3555, 255.2207
783.8376, 244.0195
784.3197, 239.8027
784.8018, 243.0254
785.2839, 246.8750
785.7661, 251.8262
786.2482, 253.4941
786.7303, 238.8223
787.2124, 213.7344
787.6945, 194.8633
788.1766, 194.9688
788.6588, 199.1875
789.1409, 199.2500
789.6230, 196.9863
790.1051, 196.9258
790.5872, 202.5684
791.0693, 205.2812
791.5515, 201.1641
792.0336, 194.7109
792.5157, 202.5957
792.9978, 224.9492
793.4799, 239.3457
793.9620, 233.3926
794.4442, 219.8027
794.9263, 212.9180
795.4084, 213.2402
795.8905, 221.3496
796.3726, 249.5352
796.8547, 272.7402
797.3369, 276.9043
797.8190, 266.6094
798.3011, 259.1699
798.7832, 254.7695
799.2653, 251.0801
799.7474, 247.0098
800.2296, 244.0938
800.7117, 246.9590
801.1938, 254.7832
801.6759, 261.0059
802.1580, 264.6484
802.6401, 264.2246
803.1223, 255.5488
803.6044, 241.4570
804.0865, 229.8008
804.5686, 225.6582
805.0507, 222.5215
805.5328, 217.6074
806.0150, 212.8379
806.4971, 212.8496
806.9792, 218.9824
807.4613, 225.1172
807.9434, 230.2012
808.4255, 234.0469
808.9077, 234.9414
809.3898, 233.0703
809.8719, 229.3809
810.3540, 221.0000
810.8361, 212.8086
811.3182, 208.1875
811.8004, 207.0098
812.2825, 207.9551
812.7646, 215.1660
813.2467, 218.9199
813.7288, 216.6270
814.2109, 210.0488
814.6931, 204.2129
815.1752, 199.1172
815.6573, 194.8945
816.1394, 190.8516
816.6215, 188.4492
817.1037, 188.9922
817.5858, 193.4395
818.0679, 203.3848
818.5500, 226.8535
819.0322, 247.4922
819.5143, 254.0840
819.9964, 252.5938
820.4785, 256.3555
820.9606, 270.5625
821.4427, 281.8301
821.9249, 287.2246
822.4070, 289.2188
822.8891, 293.9395
823.3712, 300.8477
823.8533, 304.1621
824.3354, 300.3105
824.8176, 296.5840
825.2997, 299.1973
825.7818, 308.4375
826.2639, 325.2500
826.7460, 362.8965
827.2281, 392.9199
827.7103, 397.5410
828.1924, 396.3633
828.6745, 417.1836
829.1566, 466.9355
829.6387, 510.5312
830.1208, 541.9941
830.6030, 566.9082
831.0851, 593.3730
831.5672, 619.9355
832.0493, 642.5742
832.5314, 658.8867
833.0135, 675.0039
833.4957, 695.2070
833.9778, 717.4453
834.4599, 739.7051
834.9420, 773.5801
835.4241, 789.8086
835.9063, 783.9043
836.3884, 766.2559
836.8705, 750.1797
837.3526, 735.5762
837.8347, 711.3457
838.3168, 674.5430
838.7990, 632.5801
839.2811, 593.1172
839.7632, 552.3965
840.2453, 503.7539
840.7274, 441.0625
841.2095, 383.5430
841.6917, 340.3848
842.1738, 302.8359
842.6559, 263.0469
843.1380, 219.3438
843.6201, 178.1875
844.1022, 138.2031
844.5844, 105.1602
845.0665, 90.17383
845.5486, 85.97168
846.0307, 72.05859
846.5128, 46.40625
846.9949, 20.99414
847.4771, 1.298828
847.9592, 16.41211
848.4413, 18.70605
848.9234, 4.042969
849.4055, 4.203125
849.8876, 2.086914
850.3698, 1.384766
850.8519, 0.7646480
851.3340, 3.471680
851.8161, 9.106445
852.2982, 15.91602
852.7803, 18.44238
853.2625, 7.512695
853.7446, 6.511719
854.2267, 12.29004
854.7088, 10.15625
855.1909, 9.916016
855.6730, 17.77930
856.1552, 24.14258
856.6373, 23.04492
857.1194, 16.20312
857.6015, 20.22168
858.0836, 36.64258
858.5657, 52.27539
859.0479, 61.01953
859.5300, 65.26270
860.0121, 70.36523
860.4942, 75.01855
860.9763, 74.32617
861.4584, 59.15723
861.9406, 44.11328
862.4227, 35.80859
862.9048, 33.15234
863.3869, 31.14258
863.8690, 32.04395
864.3511, 28.10254
864.8333, 15.77344
865.3154, 0.3056640
865.7975, 6.002930
866.2796, 4.789063
866.7617, 3.246094
867.2438, 2.767578
867.7260, 3.886719
868.2081, 6.399414
868.6902, 10.48926
869.1723, 16.18945
869.6544, 29.78125
870.1365, 35.27734
870.6187, 28.20508
871.1008, 16.79004
871.5829, 13.27246
872.0650, 17.34961
872.5471, 20.28223
873.0292, 20.76465
873.5114, 20.54297
873.9935, 21.79102
874.4756, 23.44043
874.9577, 24.82422
875.4399, 27.01562
875.9220, 24.11719
876.4041, 5.250000
876.8862, 10.73828
877.3683, 9.335938
877.8505, 13.33496
878.3326, 25.00098
878.8147, 24.70703
879.2968, 19.83496
879.7789, 11.40039
880.2610, 5.224609
880.7432, 15.67871
881.2253, 42.52832
881.7074, 59.30371
882.1895, 44.00098
882.6716, 24.09570
883.1537, 14.34180
883.6359, 14.62012
884.1180, 15.14062
884.6001, 16.37891
885.0822, 17.29688
885.5643, 16.33105
886.0464, 14.73730
886.5286, 17.44238
887.0107, 23.01172
887.4928, 24.94531
887.9749, 14.14551
888.4570, 5.197266
888.9391, 9.380859
889.4213, 21.47656
889.9034, 23.35645
890.3855, 7.843750
890.8676, 0.7070310
891.3497, 9.321289
891.8318, 24.21680
892.3140, 25.25000
892.7961, 16.31250
893.2782, 12.55176
893.7603, 20.38184
894.2424, 30.53711
894.7245, 36.03418
895.2067, 39.31641
895.6888, 43.73535
896.1709, 55.82227
896.6530, 58.93066
897.1351, 48.12207
897.6172, 35.40332
898.0994, 35.03320
898.5815, 45.42285
899.0636, 56.11328
899.5457, 66.18066
900.0278, 72.17383
900.5099, 66.49316
900.9921, 59.29590
901.4742, 60.53418
901.9563, 72.77441
902.4384, 81.87109
902.9205, 88.31934
903.4026, 89.52832
903.8848, 80.74316
904.3669, 64.51074
904.8490, 63.65527
905.3311, 77.60547
905.8132, 89.76758
906.2953, 83.91699
906.7775, 76.41406
907.2596, 87.06738
907.7417, 110.0361
908.2238, 124.4463
908.7059, 119.6641
909.1880, 111.2686
909.6702, 100.5283
910.1523, 89.50391
910.6344, 83.28809
911.1165, 81.84863
911.5986, 82.77441
912.0807, 86.84375
912.5629, 89.87891
913.0450, 83.26758
913.5271, 73.52344
914.0092, 70.81641
914.4913, 85.60449
914.9734, 94.73828
915.4556, 92.32715
915.9377, 84.54883
916.4198, 74.80664
916.9019, 62.67871
917.3840, 61.61035
917.8661, 73.23535
918.3483, 86.05664
918.8304, 90.46094
919.3125, 90.14453
919.7946, 88.53223
920.2767, 85.91016
920.7589, 82.13574
921.2410, 76.20801
921.7231, 70.12109
922.2052, 64.23438
922.6873, 58.95801
923.1694, 56.16992
923.6516, 55.66992
924.1337, 57.43555
924.6158, 61.46191
925.0979, 67.48633
925.5800, 80.43066
926.0621, 95.19434
926.5443, 99.05566
927.0264, 69.86035
927.5085, 52.13086
927.9906, 59.99121
928.4727, 79.66309
928.9548, 88.43359
929.4370, 86.08789
929.9191, 84.75000
930.4012, 87.24219
930.8833, 89.04590
931.3654, 81.11719
931.8475, 71.14258
932.3297, 70.70312
932.8118, 85.82812
933.2939, 96.31348
933.7761, 93.23633
934.2582, 87.78906
934.7403, 86.13574
935.2224, 88.46094
935.7045, 93.22754
936.1866, 100.3115
936.6688, 101.4316
937.1509, 82.72754
937.6330, 60.58398
938.1151, 57.63086
938.5972, 70.03418
939.0793, 75.82422
939.5615, 61.61914
940.0436, 48.29395
940.5257, 42.77051
941.0078, 30.74023
941.4899, 32.25195
941.9720, 16.29004
942.4542, 5.962891
942.9363, 5.193359
943.4184, 9.657227
943.9005, 17.90918
944.3826, 26.88379
944.8647, 31.97266
945.3469, 29.20312
945.8290, 27.66016
946.3111, 30.47754
946.7932, 31.50879
947.2753, 22.42578
947.7574, 3.899414
948.2396, 0.9345700
948.7217, 8.695313
949.2038, 18.02637
949.6859, 15.41992
950.1680, 7.156250
950.6501, 4.434570
951.1323, 18.28418
951.6144, 22.35645
952.0965, 6.972656
952.5786, 3.748047
953.0607, 0.4033200
953.5428, 11.25391
954.0250, 12.02148
954.5071, 4.335938
954.9892, 2.871094
955.4713, 18.93457
955.9534, 33.38672
956.4355, 27.45410
956.9177, 12.50781
957.3998, 5.462891
957.8819, 16.39844
958.3640, 19.78320
958.8461, 13.33594
959.3282, 2.625000
959.8104, 8.515625
960.2925, 19.16895
960.7746, 25.71875
961.2567, 27.85645
961.7388, 27.61035
962.2209, 23.47949
962.7031, 19.65723
963.1852, 19.03613
963.6673, 21.61914
964.1494, 25.47461
964.6315, 30.51172
965.1136, 36.87988
965.5958, 45.30176
966.0779, 54.32715
966.5600, 58.62500
967.0421, 60.83496
967.5242, 68.77734
968.0063, 96.14551
968.4885, 114.8643
968.9706, 106.8252
969.4527, 88.80371
969.9348, 81.43652
970.4169, 87.81738
970.8990, 89.40039
971.3812, 83.85449
971.8633, 80.46484
972.3454, 92.08594
972.8275, 110.3193
973.3096, 122.0020
973.7917, 125.8154
974.2739, 130.7676
974.7560, 143.8076
975.2381, 154.2256
975.7202, 155.4102
976.2023, 150.6416
976.6844, 157.4893
977.1666, 175.8271
977.6487, 196.4375
978.1308, 218.4697
978.6129, 236.6445
979.0950, 242.8125
979.5771, 242.2725
980.0593, 243.5303
980.5414, 250.4932
981.0235, 256.4629
981.5056, 258.4316
981.9877, 263.3018
982.4698, 282.2578
982.9520, 311.5137
983.4341, 323.5576
983.9162, 316.8965
984.3983, 315.4375
984.8804, 342.8838
985.3625, 376.2031
985.8447, 400.8672
986.3268, 415.6396
986.8089, 422.5371
987.2910, 418.7217
987.7731, 415.5430
988.2552, 418.1074
988.7374, 421.6719
989.2195, 413.3008
989.7016, 398.1465
990.1837, 390.7871
990.6658, 403.4609
991.1479, 410.3330
991.6301, 393.8789
992.1122, 370.4531
992.5944, 356.0244
993.0765, 353.0859
993.5586, 347.0791
994.0407, 337.6562
994.5228, 326.8438
995.0049, 311.8232
995.4871, 298.7812
995.9692, 301.6904
996.4513, 317.2275
996.9334, 320.1328
997.4155, 283.1660
997.8976, 256.2529
998.3798, 251.0469
998.8619, 263.3350
999.3440, 290.5156
999.8261, 329.5410
1000.308, 351.7480
1000.790, 347.5557
1001.272, 333.4346
1001.755, 314.5557
1002.237, 297.6992
1002.719, 290.8027
1003.201, 297.2236
1003.683, 306.3652
1004.165, 319.5430
1004.647, 332.7539
1005.129, 342.3438
1005.612, 349.7324
1006.094, 360.7461
1006.576, 375.8174
1007.058, 393.8027
1007.540, 417.8877
1008.022, 440.6943
1008.504, 452.9854
1008.986, 462.1943
1009.468, 482.6426
1009.951, 517.7676
1010.433, 545.4990
1010.915, 561.4453
1011.397, 569.7148
1011.879, 571.5488
1012.361, 572.1191
1012.843, 577.8965
1013.325, 589.6973
1013.807, 597.2021
1014.290, 601.4561
1014.772, 600.9307
1015.254, 594.6826
1015.736, 581.0752
1016.218, 555.0654
1016.700, 519.0918
1017.182, 483.7334
1017.664, 454.1152
1018.147, 425.2373
1018.629, 390.3906
1019.111, 355.6328
1019.593, 330.4609
1020.075, 319.9707
1020.557, 302.7900
1021.039, 276.3428
1021.521, 250.7617
1022.003, 240.4238
1022.486, 235.5283
1022.968, 216.9609
1023.450, 184.8193
1023.932, 154.5840
1024.414, 124.0293
1024.896, 107.2422
1025.378, 113.2686
1025.860, 133.2236
1026.343, 142.7852
1026.825, 141.9980
1027.307, 133.5225
1027.789, 115.3887
1028.271, 98.80859
1028.753, 98.15137
1029.235, 101.9814
1029.717, 95.92578
1030.199, 71.79688
1030.682, 62.92383
1031.164, 75.66016
1031.646, 85.54785
1032.128, 72.46387
1032.610, 47.14941
1033.092, 36.89355
1033.574, 38.94922
1034.056, 43.80859
1034.539, 48.97363
1035.021, 54.52246
1035.503, 63.74219
1035.985, 71.20508
1036.467, 67.60254
1036.949, 52.48730
1037.431, 42.62988
1037.913, 40.44336
1038.396, 37.92871
1038.878, 22.45215
1039.360, 7.003906
1039.842, 6.369141
1040.324, 21.78809
1040.806, 30.14355
1041.288, 26.74316
1041.770, 24.84473
1042.252, 30.12305
1042.734, 37.39160
1043.217, 34.69531
1043.699, 25.41992
1044.181, 18.40820
1044.663, 16.69922
1045.145, 16.17969
1045.627, 17.41895
1046.109, 17.18848
1046.591, 12.41309
1047.074, 2.847656
1047.556, 4.661133
1048.038, 10.16016
1048.520, 10.76953
1049.002, 15.67251
1049.484, 12.16699
1049.966, 21.50977
1050.448, 26.65137
1050.931, 23.95801
1051.413, 4.033203
1051.895, 1.558594
1052.377, 14.67773
1052.859, 36.02930
1053.341, 42.57422
1053.823, 38.86914
1054.305, 33.21484
1054.787, 26.64355
1055.270, 24.51660
1055.752, 36.71289
1056.234, 45.00977
1056.716, 39.20605
1057.198, 24.36426
1057.680, 21.33496
1058.162, 29.30176
1058.644, 35.64062
1059.126, 35.81836
1059.609, 33.80371
1060.091, 33.12207
1060.573, 32.36426
1061.055, 29.40137
1061.537, 22.53711
1062.019, 19.60645
1062.501, 21.29590
1062.983, 24.86523
1063.466, 34.33496
1063.948, 41.72559
1064.430, 22.05664
1064.912, 13.33398
1065.394, 30.39258
1065.876, 5.195313
1066.358, 32.24805
1066.840, 38.21094
1067.323, 34.25293
1067.805, 31.80176
1068.287, 31.16406
1068.769, 36.00977
1069.251, 46.45215
1069.733, 58.41699
1070.215, 76.37207
1070.697, 87.72070
1071.179, 76.56152
1071.661, 50.26270
1072.144, 41.96289
1072.626, 54.82422
1073.108, 62.98730
1073.590, 58.45605
1074.072, 51.55957
1074.554, 55.81250
1075.036, 65.34766
1075.518, 72.69531
1076.001, 76.53613
1076.483, 80.01758
1076.965, 86.15039
1077.447, 86.64062
1077.929, 73.82520
1078.411, 54.45117
1078.893, 47.66992
1079.375, 51.11426
1079.858, 57.38574
1080.340, 66.78613
1080.822, 73.36035
1081.304, 72.43945
1081.786, 69.07324
1082.268, 67.45215
1082.750, 67.58496
1083.232, 66.73828
1083.714, 64.90234
1084.197, 66.67773
1084.679, 81.85352
1085.161, 96.09180
1085.643, 97.27734
1086.125, 88.58496
1086.607, 81.27441
1087.089, 74.80664
1087.571, 75.07812
1088.054, 85.16016
1088.536, 93.62500
1089.018, 82.95996
1089.500, 64.29102
1089.982, 51.29102
1090.464, 45.19531
1090.946, 50.33398
1091.428, 80.15625
1091.911, 99.77246
1092.393, 95.53418
1092.875, 77.09570
1093.357, 64.91016
1093.839, 58.24316
1094.321, 54.97656
1094.803, 55.38965
1095.285, 55.85449
1095.767, 52.78613
1096.250, 51.28516
1096.732, 56.41699
1097.214, 67.71094
1097.696, 69.12793
1098.178, 60.98535
1098.660, 54.67188
1099.142, 56.51367
1099.624, 62.33496
1100.106, 73.75195
1100.589, 84.53223
1101.071, 84.00000
1101.553, 65.95703
1102.035, 57.26367
1102.517, 59.22656
1102.999, 66.15918
1103.481, 77.09277
1103.963, 87.55273
1104.446, 89.16797
1104.928, 84.16113
1105.410, 82.91016
1105.892, 92.59766
1106.374, 97.04102
1106.856, 93.33301
1107.338, 85.58691
1107.820, 77.69531
1108.302, 70.77344
1108.785, 67.58105
1109.267, 68.38770
1109.749, 72.33984
1110.231, 82.96582
1110.713, 94.18945
1111.195, 104.8164
1111.677, 111.4951
1112.159, 101.6377
1112.641, 78.84180
1113.124, 65.59277
1113.606, 69.56348
1114.088, 76.37402
1114.570, 79.66309
1115.052, 79.41895
1115.534, 73.39941
1116.016, 61.97070
1116.498, 63.92578
1116.981, 80.42480
1117.463, 91.88965
1117.945, 87.37793
1118.427, 80.02734
1118.909, 80.32031
1119.391, 86.12988
1119.873, 94.82422
1120.355, 110.1338
1120.838, 114.4600
1121.320, 103.7471
1121.802, 97.94141
1122.284, 122.0781
1122.766, 151.5010
1123.248, 144.7539
1123.730, 115.3848
1124.212, 92.66309
1124.694, 88.27148
1125.177, 88.27539
1125.659, 92.64551
1126.141, 99.31348
1126.623, 107.4990
1127.105, 115.4893
1127.587, 121.3613
1128.069, 125.6670
1128.551, 124.3730
1129.033, 105.8750
1129.516, 93.96094
1129.998, 99.27539
1130.480, 110.5371
1130.962, 106.4648
1131.444, 91.44629
1131.926, 85.48340
1132.408, 91.50391
1132.890, 96.42285
1133.373, 88.79297
1133.855, 80.89453
1134.337, 81.65137
1134.819, 88.03223
1135.301, 88.01953
1135.783, 81.87891
1136.265, 77.13379
1136.747, 76.37109
1137.229, 75.63672
1137.712, 71.12695
1138.194, 65.64062
1138.676, 62.07520
1139.158, 60.41113
1139.640, 55.68555
1140.122, 47.64551
1140.604, 44.40234
1141.086, 51.52246
1141.569, 60.73828
1142.051, 64.70801
1142.533, 64.68652
1143.015, 61.47949
1143.497, 51.87695
1143.979, 50.52051
1144.461, 58.24707
1144.943, 70.99902
1145.426, 94.05664
1145.908, 113.3330
1146.390, 96.31348
1146.872, 58.91406
1147.354, 34.59180
1147.836, 44.12402
1148.318, 50.75391
1148.800, 53.20703
1149.282, 53.57031
1149.765, 54.24805
1150.247, 53.87012
1150.729, 46.99023
1151.211, 35.91113
1151.693, 29.95020
1152.175, 39.35352
1152.657, 45.64941
1153.139, 46.94141
1153.621, 42.83398
1154.104, 27.07031
1154.586, 6.033203
1155.068, 5.636719
1155.550, 25.19824
1156.032, 37.71875
1156.514, 19.42578
1156.996, 5.782227
1157.478, 9.782227
1157.961, 22.47461
1158.443, 28.45410
1158.925, 28.66113
1159.407, 28.58984
1159.889, 28.86719
1160.371, 29.74023
1160.853, 28.88281
1161.335, 31.10449
1161.818, 41.20703
1162.300, 55.00293
1162.782, 60.47559
1163.264, 57.95996
1163.746, 52.22949
1164.228, 43.31055
1164.710, 37.72656
1165.192, 45.50098
1165.674, 54.04297
1166.156, 55.05664
1166.639, 48.86035
1167.121, 31.60742
1167.603, 3.601563
1168.085, 12.06445
1168.567, 4.699219
1169.049, 7.527344
1169.531, 7.098633
1170.013, 5.096680
1170.496, 17.41504
1170.978, 44.60938
1171.460, 48.38965
1171.942, 27.53320
1172.424, 5.233398
1172.906, 12.26270
1173.388, 20.21875
1173.870, 1.492188
1174.353, 23.46582
1174.835, 22.91309
1175.317, 12.57715
1175.799, 21.27148
1176.281, 0.7421880
1176.763, 19.63672
1177.245, 13.84570
1177.727, 1.463867
1178.209, 11.71484
1178.692, 18.47949
1179.174, 24.83398
1179.656, 36.00586
1180.138, 31.20508
1180.620, 6.634766
1181.102, 14.95410
1181.584, 14.45312
1182.066, 3.642578
1182.548, 5.352539
1183.031, 12.44141
1183.513, 17.70215
1183.995, 25.46582
1184.477, 19.10254
1184.959, 6.972656
1185.441, 29.47656
1185.923, 19.04004
1186.405, 1.583008
1186.888, 5.588867
1187.370, 0.1252316
1187.852, 36.82617
1188.334, 1.152344
1188.816, 22.63867
1189.298, 19.93066
1189.780, 8.784180
1190.262, 4.731445
1190.745, 3.233398
1191.227, 3.357422
1191.709, 14.12402
1192.191, 22.87402
1192.673, 28.38574
1193.155, 31.07227
1193.637, 30.45410
1194.119, 29.04102
1194.601, 33.25879
1195.084, 37.44531
1195.566, 26.54688
1196.048, 2.570313
1196.530, 2.419922
1197.012, 32.36035
1197.494, 55.64746
1197.976, 54.76465
1198.458, 46.14160
1198.941, 55.00391
1199.423, 70.93848
1199.905, 73.79492
1200.387, 61.94043
1200.869, 54.85938
1201.351, 61.40918
1201.833, 60.86133
1202.315, 44.24707
1202.797, 26.60645
1203.280, 37.90234
1203.762, 62.74805
1204.244, 74.57617
1204.726, 68.75000
1205.208, 59.48145
1205.690, 45.25293
1206.172, 37.89746
1206.654, 44.12598
1207.136, 53.78125
1207.619, 46.75391
1208.101, 31.32031
1208.583, 21.76270
1209.065, 20.77734
1209.547, 23.36719
1210.029, 28.32129
1210.511, 37.45508
1210.993, 53.67090
1211.476, 71.22852
1211.958, 76.83008
1212.440, 77.88281
1212.922, 90.52246
1213.404, 123.3359
1213.886, 140.3389
1214.368, 132.1719
1214.850, 122.0889
1215.333, 119.9541
1215.815, 122.4287
1216.297, 127.2471
1216.779, 130.8496
1217.261, 124.8379
1217.743, 102.3945
1218.225, 93.15430
1218.707, 102.2715
1219.189, 115.4238
1219.672, 126.9990
1220.154, 137.7393
1220.636, 152.1416
1221.118, 165.8643
1221.600, 170.3701
1222.082, 158.8379
1222.564, 151.5791
1223.046, 149.3125
1223.528, 151.7139
1224.011, 159.3525
1224.493, 170.6299
1224.975, 188.6533
1225.457, 205.9814
1225.939, 208.9814
1226.421, 186.5156
1226.903, 178.7744
1227.385, 188.8887
1227.868, 200.8203
1228.350, 205.4922
1228.832, 207.7568
1229.314, 213.6787
1229.796, 222.0215
1230.278, 231.3594
1230.760, 244.4639
1231.242, 246.1230
1231.724, 235.4727
1232.207, 227.2061
1232.689, 232.4590
1233.171, 239.9531
1233.653, 243.8408
1234.135, 241.9316
1234.617, 223.7764
1235.099, 176.5234
1235.581, 152.8037
1236.063, 154.6348
1236.546, 167.1162
1237.028, 191.2988
1237.510, 210.0801
1237.992, 200.4131
1238.474, 178.3730
1238.956, 167.7559
1239.438, 171.3633
1239.920, 176.1426
1240.403, 181.3789
1240.885, 185.5195
1241.367, 181.5967
1241.849, 181.2910
1242.331, 201.9219
1242.813, 231.0625
1243.295, 245.5469
1243.777, 240.6953
1244.260, 244.9883
1244.742, 259.6309
1245.224, 271.5801
1245.706, 266.9902
1246.188, 259.0137
1246.670, 271.1641
1247.152, 286.1348
1247.634, 277.8105
1248.116, 242.3828
1248.599, 240.9258
1249.081, 271.3809
1249.563, 296.4258
1250.045, 284.3418
1250.527, 273.2617
1251.009, 290.9395
1251.491, 312.0332
1251.973, 306.3008
1252.455, 275.3438
1252.938, 260.8926
1253.420, 261.8066
1253.902, 263.8164
1254.384, 260.1387
1254.866, 253.9961
1255.348, 246.0801
1255.830, 237.3359
1256.313, 225.7969
1256.795, 214.0605
1257.277, 220.2715
1257.759, 241.5449
1258.241, 262.2969
1258.723, 280.1152
1259.205, 288.8418
1259.687, 282.8281
1260.169, 276.1445
1260.651, 282.1055
1261.134, 296.8867
1261.616, 311.1074
1262.098, 322.2148
1262.580, 323.6016
1263.062, 303.5625
1263.544, 286.7637
1264.026, 275.4355
1264.508, 267.2891
1264.991, 262.2637
1265.473, 258.0527
1265.955, 247.7168
1266.437, 234.9570
1266.919, 229.5723
1267.401, 238.9277
1267.883, 250.0742
1268.365, 266.1836
1268.848, 272.9238
1269.330, 247.6465
1269.812, 215.5391
1270.294, 212.7871
1270.776, 227.5352
1271.258, 232.8789
1271.740, 225.0176
1272.222, 210.2812
1272.704, 187.2207
1273.187, 168.9102
1273.669, 167.7246
1274.151, 171.4824
1274.633, 169.3008
1275.115, 165.0410
1275.597, 166.3086
1276.079, 174.8438
1276.561, 177.2754
1277.043, 173.6797
1277.526, 166.0234
1278.008, 155.6211
1278.490, 141.7363
1278.972, 118.3965
1279.454, 95.83789
1279.936, 83.91797
1280.418, 82.33008
1280.900, 92.72656
1281.383, 112.2832
1281.865, 124.4531
1282.347, 116.0547
1282.829, 105.7344
1283.311, 96.46680
1283.793, 90.58203
1284.275, 91.96289
1284.757, 97.88477
1285.240, 97.45898
1285.722, 92.04492
1286.204, 85.33008
1286.686, 76.61328
1287.168, 71.49805
1287.650, 71.59961
1288.132, 73.00391
1288.614, 73.89453
1289.096, 73.60742
1289.578, 68.00781
1290.061, 60.59961
1290.543, 59.46094
1291.025, 74.74023
1291.507, 71.21875
1291.989, 43.22266
1292.471, 22.04883
1292.953, 32.61133
1293.435, 49.97070
1293.918, 39.03320
1294.400, 17.82227
1294.882, 16.36914
1295.364, 39.14844
1295.846, 48.64844
1296.328, 45.13672
1296.810, 37.29688
1297.292, 22.34961
1297.775, 13.59570
1298.257, 37.79297
1298.739, 63.00977
1299.221, 55.25195
1299.703, 19.38477
1300.185, 9.173828
1300.667, 20.67773
1301.149, 27.09766
1301.631, 14.99023
1302.114, 0.8320310
1302.596, 0.0000000E+00
##END=



