##NAMES=Metahewettite
##RRUFFID=R070199
##IDEAL CHEMISTRY=CaV^5+^_6_O_16_&#183;3H_2_O
##LOCALITY=Fish Creek Range, south of Eureka, Eureka County, Nevada, USA
##OWNER=RRUFF
##SOURCE=James Shigley
##DESCRIPTION=Red pulverulent coating
##STATUS=The identification of this mineral is not yet confirmed.
##URL=rruff.info/R070199
149.6995, 0.0000000E+00
150.1817, 0.4886470
150.6638, 5.631104
151.1459, 14.28381
151.6280, 25.77698
152.1101, 35.41296
152.5922, 40.81030
153.0744, 44.61584
153.5565, 49.38708
154.0386, 54.25671
154.5207, 61.12708
155.0028, 71.80457
155.4849, 88.05835
155.9671, 99.97937
156.4492, 104.6381
156.9313, 104.2126
157.4134, 102.0598
157.8955, 101.0137
158.3777, 97.37097
158.8598, 87.57568
159.3419, 66.06213
159.8240, 50.11658
160.3061, 49.89746
160.7882, 59.57703
161.2704, 65.52954
161.7525, 58.39807
162.2346, 48.70862
162.7167, 45.01624
163.1988, 45.54968
163.6809, 48.91541
164.1631, 58.85852
164.6452, 69.98547
165.1273, 79.04333
165.6094, 72.65527
166.0915, 58.44580
166.5736, 49.16235
167.0558, 49.09973
167.5379, 50.95923
168.0200, 49.17261
168.5021, 41.05737
168.9842, 33.94836
169.4663, 32.52686
169.9485, 34.62964
170.4306, 37.39526
170.9127, 40.56030
171.3948, 42.25720
171.8769, 38.61804
172.3590, 29.20691
172.8412, 19.69470
173.3233, 15.49048
173.8054, 14.77087
174.2875, 13.67224
174.7696, 8.599731
175.2517, 2.661377
175.7339, 0.7662350
176.2160, 4.082642
176.6981, 8.004761
177.1802, 6.975830
177.6623, 2.226196
178.1444, 1.676147
178.6266, 0.1540530
179.1087, 4.399536
179.5908, 3.677368
180.0729, 4.439453
180.5550, 14.49316
181.0371, 18.84692
181.5193, 18.02405
182.0014, 15.94128
182.4835, 16.12390
182.9656, 17.28967
183.4477, 14.78442
183.9298, 5.660522
184.4120, 5.164917
184.8941, 7.197876
185.3762, 0.5283200
185.8583, 6.664429
186.3404, 6.524902
186.8225, 0.5040280
187.3047, 3.671753
187.7868, 3.408447
188.2689, 0.2203370
188.7510, 1.895630
189.2331, 2.888184
189.7152, 3.288330
190.1974, 4.962769
190.6795, 7.557129
191.1616, 5.739868
191.6437, 5.277832
192.1258, 22.57812
192.6080, 30.36096
193.0901, 27.38074
193.5722, 20.38684
194.0543, 17.79309
194.5364, 19.69043
195.0185, 20.99207
195.5007, 19.02893
195.9828, 14.13098
196.4649, 11.34973
196.9470, 10.65857
197.4291, 12.07104
197.9112, 16.13232
198.3934, 23.12366
198.8755, 30.52832
199.3576, 38.38782
199.8397, 46.93152
200.3218, 50.10266
200.8039, 45.96924
201.2861, 38.92505
201.7682, 38.97937
202.2503, 48.36279
202.7324, 55.14783
203.2145, 50.94543
203.6966, 33.48669
204.1788, 23.15405
204.6609, 23.33948
205.1430, 29.44177
205.6251, 28.65723
206.1072, 18.25378
206.5893, 9.009521
207.0715, 7.157104
207.5536, 13.22449
208.0357, 24.53467
208.5178, 44.39282
208.9999, 68.29309
209.4820, 79.19775
209.9642, 73.22083
210.4463, 62.83289
210.9284, 56.69763
211.4105, 56.57092
211.8926, 54.18799
212.3747, 47.15369
212.8569, 36.83838
213.3390, 31.36279
213.8211, 31.76917
214.3032, 35.24829
214.7853, 40.46289
215.2674, 48.88770
215.7496, 54.46216
216.2317, 55.51575
216.7138, 52.38965
217.1959, 50.08618
217.6780, 48.68164
218.1601, 47.97900
218.6423, 47.53198
219.1244, 46.53418
219.6065, 47.94019
220.0886, 53.46289
220.5707, 63.26587
221.0528, 69.36304
221.5350, 71.59167
222.0171, 70.48755
222.4992, 65.90930
222.9813, 55.35132
223.4634, 46.58765
223.9455, 41.06482
224.4277, 38.74438
224.9098, 40.32678
225.3919, 47.43188
225.8740, 56.90967
226.3561, 66.11792
226.8382, 78.03918
227.3204, 83.59790
227.8025, 78.05981
228.2846, 58.79358
228.7667, 47.09631
229.2488, 46.42200
229.7310, 50.81470
230.2131, 52.05823
230.6952, 47.61267
231.1773, 44.42151
231.6594, 44.66113
232.1415, 49.11511
232.6237, 53.38696
233.1058, 56.68860
233.5879, 60.25293
234.0700, 66.98450
234.5521, 81.73315
235.0342, 91.14294
235.5164, 88.28186
235.9985, 66.44971
236.4806, 57.70825
236.9627, 69.68323
237.4448, 90.42261
237.9269, 98.54138
238.4091, 85.76294
238.8912, 73.03967
239.3733, 69.12024
239.8554, 79.82239
240.3375, 81.41931
240.8196, 68.26904
241.3018, 48.62744
241.7839, 39.03833
242.2660, 43.96436
242.7481, 51.15161
243.2302, 55.87793
243.7123, 55.85388
244.1945, 59.11865
244.6766, 67.90833
245.1587, 79.15369
245.6408, 87.27454
246.1229, 93.18762
246.6050, 94.46777
247.0872, 88.76501
247.5693, 70.38257
248.0514, 59.53516
248.5335, 58.41687
249.0156, 64.27710
249.4977, 70.48694
249.9799, 78.43396
250.4620, 84.13232
250.9441, 84.92810
251.4262, 76.69495
251.9083, 73.89319
252.3904, 78.47778
252.8726, 87.93762
253.3547, 95.76904
253.8368, 102.0439
254.3189, 106.6971
254.8010, 109.6908
255.2831, 110.7959
255.7653, 110.7180
256.2474, 108.9126
256.7295, 106.1084
257.2116, 104.3229
257.6937, 103.7454
258.1758, 103.8239
258.6580, 103.9922
259.1401, 103.3824
259.6222, 106.1713
260.1043, 115.5677
260.5864, 127.2654
261.0685, 126.6956
261.5507, 105.9366
262.0328, 89.17444
262.5149, 92.15015
262.9970, 126.0145
263.4791, 140.9257
263.9612, 128.5466
264.4434, 99.35645
264.9255, 81.58643
265.4076, 76.91724
265.8897, 79.68420
266.3718, 89.26208
266.8539, 108.5796
267.3361, 121.6268
267.8182, 126.1863
268.3003, 124.9053
268.7824, 124.5398
269.2645, 125.7434
269.7466, 126.0519
270.2288, 123.3342
270.7109, 116.5157
271.1930, 112.9551
271.6751, 113.5463
272.1572, 117.1121
272.6393, 120.1346
273.1215, 121.5715
273.6036, 126.2179
274.0857, 140.1404
274.5678, 165.6215
275.0499, 177.9944
275.5320, 172.9015
276.0142, 157.4766
276.4963, 146.9280
276.9784, 141.5989
277.4605, 139.4209
277.9426, 139.9470
278.4247, 143.2511
278.9069, 146.8624
279.3890, 151.0112
279.8711, 154.8857
280.3532, 155.1787
280.8354, 150.9913
281.3175, 150.6293
281.7996, 161.8882
282.2817, 184.0740
282.7638, 198.2722
283.2459, 202.3859
283.7281, 200.2495
284.2102, 197.3658
284.6923, 193.6644
285.1744, 191.0522
285.6565, 191.1000
286.1386, 193.4458
286.6208, 195.1013
287.1029, 195.6384
287.5850, 196.1748
288.0671, 198.6906
288.5492, 203.1135
289.0313, 207.8003
289.5135, 212.3365
289.9956, 216.5316
290.4777, 220.5083
290.9598, 225.0593
291.4419, 226.6729
291.9240, 217.1311
292.4062, 198.0800
292.8883, 182.6224
293.3704, 180.4952
293.8525, 186.7111
294.3346, 186.4691
294.8167, 178.2659
295.2989, 168.8759
295.7810, 165.2750
296.2631, 167.0889
296.7452, 172.6443
297.2273, 185.7396
297.7094, 200.9821
298.1916, 207.5760
298.6737, 204.5620
299.1558, 198.0636
299.6379, 194.1943
300.1200, 191.7839
300.6021, 187.5151
301.0843, 176.0259
301.5664, 163.6360
302.0485, 160.4148
302.5306, 167.0906
303.0127, 173.5597
303.4948, 168.8542
303.9770, 157.8226
304.4591, 149.6780
304.9412, 147.6660
305.4233, 150.8022
305.9054, 160.7621
306.3875, 177.3052
306.8697, 191.7462
307.3518, 195.7383
307.8339, 194.0039
308.3160, 193.1722
308.7981, 202.1481
309.2802, 208.3053
309.7624, 197.1250
310.2445, 170.4391
310.7266, 149.1976
311.2087, 151.5922
311.6908, 163.4709
312.1729, 169.4148
312.6551, 156.0935
313.1372, 143.2889
313.6193, 145.6844
314.1014, 160.4639
314.5835, 171.0884
315.0656, 161.3694
315.5478, 148.1770
316.0299, 145.9886
316.5120, 172.5626
316.9941, 195.0736
317.4762, 198.1002
317.9583, 185.8624
318.4405, 175.5691
318.9226, 173.7480
319.4047, 175.7103
319.8868, 178.6670
320.3689, 183.6700
320.8510, 187.4163
321.3332, 190.1840
321.8153, 191.3502
322.2974, 189.3285
322.7795, 179.0089
323.2616, 168.2694
323.7437, 160.6333
324.2259, 158.8154
324.7080, 157.7883
325.1901, 157.8114
325.6722, 158.7286
326.1543, 160.1112
326.6364, 162.5474
327.1186, 164.8361
327.6007, 167.7645
328.0828, 175.8740
328.5649, 174.4180
329.0470, 154.0844
329.5291, 126.2936
330.0113, 110.1138
330.4934, 112.9031
330.9755, 119.0914
331.4576, 125.5271
331.9397, 133.0734
332.4218, 136.5858
332.9040, 135.3264
333.3861, 130.6111
333.8682, 123.2344
334.3503, 110.1708
334.8324, 101.3567
335.3145, 100.2939
335.7967, 107.2987
336.2788, 112.7312
336.7609, 117.1831
337.2430, 119.1810
337.7251, 116.0216
338.2072, 105.9276
338.6894, 99.18677
339.1715, 99.46216
339.6536, 104.4934
340.1357, 100.4585
340.6178, 85.20801
341.0999, 70.35266
341.5821, 68.14539
342.0642, 79.02612
342.5463, 84.57788
343.0284, 80.30994
343.5105, 69.15137
343.9926, 58.73145
344.4748, 49.17749
344.9569, 43.49670
345.4390, 47.58313
345.9211, 59.17139
346.4032, 63.71033
346.8853, 56.18274
347.3675, 44.93835
347.8496, 46.72791
348.3317, 60.30469
348.8138, 72.79285
349.2959, 77.38818
349.7780, 75.14661
350.2602, 66.42175
350.7423, 49.77649
351.2244, 34.10022
351.7065, 30.17871
352.1887, 34.23218
352.6708, 37.12500
353.1529, 32.65869
353.6350, 26.16846
354.1171, 24.70996
354.5992, 29.23303
355.0814, 32.45142
355.5635, 26.20471
356.0456, 15.27734
356.5277, 7.273804
357.0098, 9.327148
357.4919, 12.34070
357.9741, 8.015869
358.4562, 3.238647
358.9383, 10.39856
359.4204, 3.768188
359.9025, 8.172363
360.3846, 17.20691
360.8668, 21.26685
361.3489, 21.72729
361.8310, 16.12878
362.3131, 5.836060
362.7952, 0.5882570
363.2773, 3.375366
363.7595, 9.819580
364.2416, 13.95410
364.7237, 13.53857
365.2058, 12.64526
365.6879, 11.41797
366.1700, 10.14771
366.6522, 9.672485
367.1343, 11.64124
367.6164, 13.11865
368.0985, 12.96191
368.5806, 10.64636
369.0627, 8.084839
369.5449, 5.930908
370.0270, 2.886597
370.5091, 3.310303
370.9912, 17.78589
371.4733, 27.82385
371.9554, 28.67139
372.4376, 18.93433
372.9197, 11.31396
373.4018, 5.935181
373.8839, 2.608521
374.3660, 1.988403
374.8481, 5.678833
375.3303, 6.364990
375.8124, 1.252075
376.2945, 8.498047
376.7766, 15.12305
377.2587, 18.52539
377.7408, 18.94043
378.2230, 15.55896
378.7051, 8.385864
379.1872, 1.381104
379.6693, 5.806274
380.1514, 11.31409
380.6335, 7.806763
381.1157, 4.763550
381.5978, 14.05249
382.0799, 7.359375
382.5620, 9.678955
383.0441, 16.95312
383.5262, 10.96509
384.0084, 0.4604490
384.4905, 4.987671
384.9726, 5.922485
385.4547, 4.523071
385.9368, 3.053955
386.4189, 10.26917
386.9011, 5.563843
387.3832, 12.26648
387.8653, 28.92786
388.3474, 32.73779
388.8295, 28.00635
389.3116, 21.22241
389.7938, 10.74170
390.2759, 2.477539
390.7580, 2.003418
391.2401, 8.448242
391.7222, 13.89368
392.2043, 14.59973
392.6865, 12.59607
393.1686, 9.343750
393.6507, 3.327759
394.1328, 1.339478
394.6149, 2.619629
395.0970, 1.478027
395.5792, 0.7076420
396.0613, 4.541992
396.5434, 5.992310
397.0255, 0.8494870
397.5076, 17.27612
397.9897, 28.75842
398.4719, 29.09387
398.9540, 22.94775
399.4361, 16.86414
399.9182, 6.810181
400.4003, 2.027588
400.8824, 7.500610
401.3646, 25.34705
401.8467, 32.66174
402.3288, 25.14722
402.8109, 12.27979
403.2930, 1.582642
403.7751, 8.411499
404.2573, 10.95203
404.7394, 2.284912
405.2215, 14.43799
405.7036, 24.94348
406.1857, 28.76416
406.6678, 28.35828
407.1500, 24.58093
407.6321, 17.49316
408.1142, 8.241333
408.5963, 4.699585
409.0784, 16.18201
409.5605, 15.72864
410.0427, 4.192261
410.5248, 8.560791
411.0069, 19.35913
411.4890, 27.69128
411.9711, 31.10828
412.4532, 29.20142
412.9354, 26.60046
413.4175, 27.90393
413.8996, 31.86853
414.3817, 36.02710
414.8638, 39.16919
415.3459, 42.28882
415.8281, 47.57214
416.3102, 54.34961
416.7923, 58.07886
417.2744, 55.99194
417.7565, 50.02100
418.2386, 41.15686
418.7208, 25.36560
419.2029, 14.06677
419.6850, 15.10864
420.1671, 24.08972
420.6492, 31.16174
421.1313, 27.98132
421.6135, 26.78174
422.0956, 35.27283
422.5777, 59.41150
423.0598, 73.45703
423.5420, 67.45850
424.0241, 52.66577
424.5062, 41.60034
424.9883, 36.62183
425.4704, 32.41785
425.9525, 25.81848
426.4347, 17.51587
426.9168, 20.99585
427.3989, 43.96204
427.8810, 68.02344
428.3631, 79.37915
428.8452, 72.90454
429.3274, 70.40332
429.8095, 76.09460
430.2916, 86.19043
430.7737, 90.21240
431.2558, 87.51514
431.7379, 82.34216
432.2201, 75.47864
432.7022, 67.07825
433.1843, 60.29663
433.6664, 55.35730
434.1485, 53.29028
434.6306, 58.27600
435.1128, 68.05884
435.5949, 73.45154
436.0770, 68.61658
436.5591, 59.73242
437.0412, 55.32336
437.5233, 54.78589
438.0055, 56.85217
438.4876, 64.80859
438.9697, 74.45667
439.4518, 79.26343
439.9339, 77.05542
440.4160, 71.11719
440.8982, 60.60449
441.3803, 49.54907
441.8624, 44.61499
442.3445, 52.35205
442.8266, 62.54297
443.3087, 70.43152
443.7909, 75.03235
444.2730, 78.63818
444.7551, 85.75977
445.2372, 91.76672
445.7193, 91.54993
446.2014, 75.14954
446.6836, 63.35315
447.1657, 60.43750
447.6478, 64.66809
448.1299, 65.41577
448.6120, 58.04846
449.0941, 53.86670
449.5763, 59.78882
450.0584, 81.45154
450.5405, 94.83704
451.0226, 97.85913
451.5047, 94.77429
451.9868, 92.90979
452.4690, 93.05774
452.9511, 90.78992
453.4332, 83.57800
453.9153, 72.26575
454.3974, 61.51685
454.8795, 51.26880
455.3617, 46.29846
455.8438, 55.04846
456.3259, 72.55957
456.8080, 82.01746
457.2901, 77.44373
457.7722, 67.27332
458.2544, 58.73413
458.7365, 53.33887
459.2186, 55.10620
459.7007, 74.55408
460.1828, 97.09094
460.6649, 107.5691
461.1471, 103.3964
461.6292, 95.47009
462.1113, 87.03650
462.5934, 80.61597
463.0755, 78.48462
463.5576, 82.63245
464.0398, 89.16663
464.5219, 98.49841
465.0040, 109.5729
465.4861, 115.7357
465.9682, 110.7476
466.4503, 103.8533
466.9325, 99.96912
467.4146, 103.0488
467.8967, 104.6296
468.3788, 104.6572
468.8609, 102.8760
469.3430, 98.20349
469.8252, 87.83765
470.3073, 81.80737
470.7894, 84.95959
471.2715, 96.22681
471.7536, 99.54639
472.2357, 93.01660
472.7179, 85.36609
473.2000, 84.77686
473.6821, 90.65881
474.1642, 94.96472
474.6463, 95.94617
475.1284, 95.92993
475.6106, 100.4939
476.0927, 108.3986
476.5748, 112.4628
477.0569, 103.9657
477.5390, 91.63953
478.0211, 90.25781
478.5033, 100.8000
478.9854, 108.2927
479.4675, 95.72021
479.9496, 75.75122
480.4317, 63.92053
480.9138, 73.02771
481.3960, 82.45874
481.8781, 81.53638
482.3602, 73.18701
482.8423, 67.21289
483.3244, 67.64478
483.8065, 69.97083
484.2887, 72.26587
484.7708, 74.55298
485.2529, 77.18494
485.7350, 79.96008
486.2171, 82.88208
486.6992, 86.68982
487.1814, 95.64795
487.6635, 96.56274
488.1456, 82.55774
488.6277, 58.06604
489.1098, 49.51868
489.5919, 61.18445
490.0741, 74.82874
490.5562, 79.50049
491.0383, 75.34119
491.5204, 68.48975
492.0026, 58.47009
492.4847, 48.27124
492.9668, 42.33044
493.4489, 39.92041
493.9310, 37.69031
494.4131, 34.36035
494.8953, 30.47571
495.3774, 25.83203
495.8595, 20.74951
496.3416, 18.15430
496.8237, 21.74341
497.3058, 27.80493
497.7880, 33.26392
498.2701, 38.46826
498.7522, 40.30066
499.2343, 33.83496
499.7164, 23.65417
500.1985, 16.93250
500.6807, 20.07874
501.1628, 22.70520
501.6449, 19.78101
502.1270, 10.80066
502.6091, 8.659302
503.0912, 19.26306
503.5734, 31.64844
504.0555, 39.51489
504.5376, 41.88293
505.0197, 41.97583
505.5018, 39.97107
505.9839, 35.65283
506.4661, 27.01709
506.9482, 12.56628
507.4303, 2.465942
507.9124, 2.582764
508.3945, 10.13245
508.8766, 10.72083
509.3588, 3.998291
509.8409, 2.370117
510.3230, 0.6553960
510.8051, 6.376587
511.2872, 11.12158
511.7693, 10.65198
512.2515, 11.69629
512.7336, 26.60876
513.2157, 48.20447
513.6978, 60.48328
514.1799, 45.87878
514.6620, 27.69690
515.1442, 20.91113
515.6263, 25.98291
516.1084, 31.70361
516.5905, 35.11401
517.0726, 37.30896
517.5547, 39.00562
518.0369, 40.91504
518.5190, 41.54932
519.0011, 43.00122
519.4832, 42.63159
519.9653, 34.24133
520.4474, 10.59338
520.9296, 7.416748
521.4117, 13.56519
521.8938, 8.276733
522.3759, 1.286377
522.8580, 16.63672
523.3401, 31.30286
523.8223, 42.43188
524.3044, 49.39160
524.7865, 43.75037
525.2686, 20.42542
525.7507, 4.704712
526.2328, 6.429688
526.7150, 10.20349
527.1971, 26.59314
527.6792, 35.51599
528.1613, 38.24792
528.6434, 32.83667
529.1255, 20.31091
529.6077, 10.67358
530.0898, 8.572754
530.5719, 12.33752
531.0540, 22.04016
531.5361, 43.87122
532.0182, 58.73682
532.5004, 58.65601
532.9825, 49.50854
533.4646, 40.40820
533.9467, 30.58813
534.4288, 22.53711
534.9109, 16.31299
535.3931, 11.97314
535.8752, 11.34741
536.3573, 15.60132
536.8394, 21.54175
537.3215, 28.12524
537.8036, 35.44995
538.2858, 38.87354
538.7679, 37.15259
539.2500, 32.47217
539.7321, 25.47290
540.2142, 17.01978
540.6964, 12.24805
541.1785, 13.42944
541.6606, 19.15747
542.1427, 31.67725
542.6248, 48.80420
543.1069, 57.83350
543.5891, 41.01318
544.0712, 18.23218
544.5533, 7.433838
545.0354, 12.44531
545.5175, 21.91357
545.9996, 35.45679
546.4818, 49.28906
546.9639, 59.15869
547.4460, 64.86133
547.9281, 66.23413
548.4102, 60.53076
548.8923, 49.28760
549.3745, 39.79736
549.8566, 31.24316
550.3387, 26.10107
550.8208, 26.83911
551.3029, 34.15649
551.7850, 36.09082
552.2672, 31.99414
552.7493, 25.31958
553.2314, 16.69873
553.7135, 7.257813
554.1956, 4.775635
554.6777, 13.05200
555.1599, 24.23950
555.6420, 24.93530
556.1241, 18.32910
556.6062, 14.84912
557.0883, 22.37231
557.5704, 33.69775
558.0526, 43.35522
558.5347, 51.12402
559.0168, 57.34155
559.4989, 62.86182
559.9810, 66.29761
560.4631, 66.35010
560.9453, 60.48047
561.4274, 55.36279
561.9095, 54.98071
562.3916, 54.59546
562.8737, 46.19043
563.3558, 19.31982
563.8380, 4.864258
564.3201, 14.66870
564.8022, 42.88330
565.2843, 53.67310
565.7664, 42.66309
566.2485, 33.48828
566.7307, 47.43457
567.2128, 78.85229
567.6949, 89.80566
568.1770, 76.56323
568.6591, 56.57397
569.1412, 46.88135
569.6234, 44.37427
570.1055, 41.95288
570.5876, 34.90576
571.0697, 30.75830
571.5518, 41.11401
572.0339, 59.52612
572.5161, 68.73022
572.9982, 51.25928
573.4803, 32.81250
573.9624, 25.47974
574.4445, 31.02954
574.9266, 36.79712
575.4088, 43.58398
575.8909, 48.77563
576.3730, 50.12256
576.8551, 45.01245
577.3372, 43.05786
577.8193, 46.89038
578.3015, 52.52661
578.7836, 53.16724
579.2657, 49.55835
579.7478, 46.21802
580.2299, 45.04468
580.7120, 44.28027
581.1942, 39.80322
581.6763, 32.05493
582.1584, 24.39478
582.6405, 19.54370
583.1226, 15.80493
583.6047, 9.715088
584.0869, 0.1503910
584.5690, 3.720459
585.0511, 7.204102
585.5332, 24.72583
586.0153, 39.96655
586.4974, 58.82617
586.9796, 66.41748
587.4617, 52.07959
587.9438, 24.66309
588.4259, 7.421875
588.9080, 2.816162
589.3901, 5.513916
589.8723, 17.95459
590.3544, 39.08569
590.8365, 43.56616
591.3186, 27.67065
591.8007, 9.881348
592.2828, 6.131592
592.7650, 13.78003
593.2471, 15.35767
593.7292, 8.480225
594.2113, 0.7646480
594.6934, 8.299316
595.1755, 12.94434
595.6577, 11.99976
596.1398, 0.9997560
596.6219, 13.60400
597.1040, 16.43701
597.5862, 11.70483
598.0683, 6.413086
598.5504, 1.593506
599.0325, 5.101807
599.5146, 1.739990
599.9968, 21.45728
600.4789, 33.18970
600.9610, 32.42896
601.4431, 28.07397
601.9252, 25.57642
602.4073, 24.62915
602.8895, 27.87109
603.3716, 38.56152
603.8537, 48.16260
604.3358, 39.15308
604.8179, 13.59155
605.3000, 4.231934
605.7822, 4.987793
606.2643, 4.399902
606.7464, 17.79980
607.2285, 33.14893
607.7106, 42.08716
608.1927, 35.10571
608.6749, 22.70605
609.1570, 11.52783
609.6391, 1.827637
610.1212, 2.017578
610.6033, 6.080322
611.0854, 17.62695
611.5676, 26.59058
612.0497, 33.89209
612.5318, 35.88965
613.0139, 29.74927
613.4960, 20.36157
613.9781, 15.21606
614.4603, 14.95093
614.9424, 16.21484
615.4245, 18.70435
615.9066, 21.84204
616.3887, 25.02344
616.8708, 28.10107
617.3530, 28.08594
617.8351, 19.86035
618.3172, 8.737305
618.7993, 2.435059
619.2814, 1.318848
619.7635, 4.744141
620.2457, 18.17969
620.7278, 32.77026
621.2099, 39.54688
621.6920, 32.68848
622.1741, 26.81567
622.6563, 26.64819
623.1384, 29.21631
623.6205, 30.49927
624.1026, 31.41113
624.5847, 29.07520
625.0668, 20.85229
625.5490, 9.586182
626.0311, 6.198975
626.5132, 11.98828
626.9953, 17.98071
627.4774, 19.77783
627.9595, 18.34668
628.4417, 18.13452
628.9238, 19.13306
629.4059, 17.96851
629.8880, 8.177734
630.3701, 3.949707
630.8522, 9.453369
631.3344, 5.901855
631.8165, 0.3449710
632.2986, 9.047119
632.7807, 17.27344
633.2628, 21.48853
633.7449, 20.95972
634.2271, 16.18530
634.7092, 0.3676760
635.1913, 18.79541
635.6734, 20.09644
636.1555, 6.923584
636.6376, 27.88257
637.1198, 30.16260
637.6019, 16.89014
638.0840, 5.884277
638.5661, 2.931641
639.0482, 8.437012
639.5303, 8.665771
640.0125, 5.130371
640.4946, 0.1459960
640.9767, 6.346436
641.4588, 10.41968
641.9409, 5.476074
642.4230, 2.523682
642.9052, 5.771484
643.3873, 0.3959960
643.8694, 5.451904
644.3515, 0.5397950
644.8336, 6.370850
645.3157, 0.1274410
645.7979, 39.99756
646.2800, 62.80103
646.7621, 52.39941
647.2442, 18.28247
647.7263, 3.024658
648.2084, 9.695557
648.6906, 19.24487
649.1727, 21.22974
649.6548, 18.01465
650.1369, 19.76343
650.6190, 26.49927
651.1011, 32.65942
651.5833, 34.31421
652.0654, 32.13110
652.5475, 26.56665
653.0296, 17.11646
653.5117, 8.124268
653.9938, 0.4587400
654.4760, 6.225098
654.9581, 6.102539
655.4402, 8.493164
655.9223, 18.92603
656.4044, 22.24634
656.8865, 20.68311
657.3687, 19.35645
657.8508, 18.80762
658.3329, 15.34229
658.8150, 5.868896
659.2971, 6.533936
659.7792, 10.11743
660.2614, 5.052002
660.7435, 2.532959
661.2256, 12.27393
661.7077, 20.67090
662.1898, 19.25708
662.6719, 7.748779
663.1541, 0.5344240
663.6362, 15.53418
664.1183, 34.90869
664.6004, 41.28247
665.0825, 23.39502
665.5646, 11.66431
666.0468, 15.85059
666.5289, 25.63501
667.0110, 31.63110
667.4931, 34.48682
667.9752, 30.05176
668.4573, 14.66089
668.9395, 3.969238
669.4216, 6.682373
669.9037, 5.860840
670.3858, 17.22363
670.8679, 20.51514
671.3500, 19.09619
671.8322, 16.60913
672.3143, 13.73267
672.7964, 13.57617
673.2785, 20.54297
673.7606, 28.91919
674.2427, 35.42480
674.7249, 39.90332
675.2070, 40.89893
675.6891, 35.64844
676.1712, 28.60596
676.6533, 21.78442
677.1354, 14.11963
677.6176, 10.92285
678.0997, 13.95386
678.5818, 18.16968
679.0639, 16.01294
679.5460, 8.004150
680.0281, 6.260498
680.5103, 14.35522
680.9924, 25.74048
681.4745, 34.19556
681.9566, 38.99512
682.4387, 38.17822
682.9208, 22.36328
683.4030, 8.640869
683.8851, 8.832764
684.3672, 19.74756
684.8493, 30.63745
685.3314, 43.05811
685.8135, 50.78979
686.2957, 51.33936
686.7778, 44.84277
687.2599, 36.67920
687.7420, 24.80054
688.2241, 16.11182
688.7062, 18.07056
689.1884, 29.55908
689.6705, 31.14160
690.1526, 21.34644
690.6347, 11.67041
691.1168, 16.11157
691.5989, 26.85889
692.0811, 30.43628
692.5632, 21.93237
693.0453, 13.26685
693.5274, 14.17212
694.0095, 20.29810
694.4916, 23.94116
694.9738, 19.78027
695.4559, 18.26855
695.9380, 22.02563
696.4201, 27.97925
696.9022, 30.51270
697.3843, 29.40259
697.8665, 26.68701
698.3486, 21.50659
698.8307, 15.97681
699.3128, 18.84912
699.7949, 28.82104
700.2770, 35.13599
700.7592, 27.26270
701.2413, 15.67139
701.7234, 12.61353
702.2055, 17.42749
702.6876, 20.47461
703.1697, 15.14941
703.6519, 9.055908
704.1340, 6.145752
704.6161, 6.632813
705.0982, 11.72314
705.5803, 22.93066
706.0624, 36.95288
706.5446, 54.26074
707.0267, 76.58716
707.5088, 81.59082
707.9909, 64.34058
708.4730, 42.91211
708.9551, 40.95410
709.4373, 52.70044
709.9194, 62.47803
710.4015, 65.96558
710.8836, 67.13965
711.3657, 68.77515
711.8478, 70.32715
712.3300, 70.73755
712.8121, 71.43604
713.2942, 69.57251
713.7763, 61.72461
714.2584, 50.58301
714.7405, 43.45068
715.2227, 40.17871
715.7048, 41.40234
716.1869, 49.61670
716.6690, 61.94849
717.1511, 64.83716
717.6332, 58.51782
718.1154, 52.01904
718.5975, 53.24609
719.0796, 56.15186
719.5617, 49.07837
720.0438, 32.81372
720.5259, 22.81982
721.0081, 28.53491
721.4902, 42.94214
721.9723, 65.59644
722.4544, 103.0176
722.9365, 119.8774
723.4186, 102.2029
723.9008, 77.56055
724.3829, 66.67114
724.8650, 72.26538
725.3471, 73.33667
725.8292, 67.09448
726.3113, 61.86523
726.7935, 69.47607
727.2756, 86.19556
727.7577, 102.9326
728.2398, 119.7578
728.7219, 129.3982
729.2040, 118.0066
729.6862, 97.45312
730.1683, 86.08130
730.6504, 100.4414
731.1325, 111.7307
731.6146, 111.7458
732.0967, 104.7688
732.5789, 99.12378
733.0610, 94.82275
733.5431, 91.88159
734.0252, 90.64062
734.5073, 90.63770
734.9894, 90.26196
735.4716, 89.62793
735.9537, 90.11523
736.4358, 93.55591
736.9179, 97.88599
737.4000, 100.2520
737.8821, 100.9822
738.3643, 102.2646
738.8464, 104.6208
739.3286, 108.2322
739.8107, 114.5085
740.2928, 124.3281
740.7749, 128.4473
741.2570, 124.2964
741.7391, 118.3088
742.2213, 113.6838
742.7034, 110.3845
743.1855, 109.5193
743.6676, 111.2107
744.1497, 114.2659
744.6318, 117.7764
745.1140, 121.8125
745.5961, 126.6655
746.0782, 132.5549
746.5603, 138.3948
747.0424, 147.2563
747.5245, 153.8384
748.0067, 152.7314
748.4888, 132.2058
748.9709, 120.0940
749.4530, 119.9790
749.9351, 126.0857
750.4172, 131.5715
750.8994, 136.5225
751.3815, 141.3586
751.8636, 147.7415
752.3457, 150.6150
752.8278, 134.9402
753.3099, 108.3774
753.7921, 94.84497
754.2742, 113.9436
754.7563, 135.3003
755.2384, 134.7166
755.7205, 120.8613
756.2026, 113.3853
756.6848, 126.1531
757.1669, 136.0581
757.6490, 138.0203
758.1311, 132.9819
758.6132, 124.2883
759.0953, 109.9316
759.5775, 101.6182
760.0596, 106.2019
760.5417, 119.0408
761.0238, 127.4700
761.5059, 132.0000
761.9880, 135.2710
762.4702, 139.4304
762.9523, 142.6501
763.4344, 144.3806
763.9165, 144.3262
764.3986, 139.4446
764.8807, 119.2021
765.3629, 103.2380
765.8450, 101.8508
766.3271, 116.3738
766.8092, 125.0969
767.2913, 126.7656
767.7734, 122.7629
768.2556, 106.7122
768.7377, 85.33203
769.2198, 88.47583
769.7019, 116.5601
770.1840, 143.7173
770.6661, 151.1201
771.1483, 145.9102
771.6304, 130.4861
772.1125, 99.35327
772.5946, 84.18652
773.0767, 113.9307
773.5588, 148.2764
774.0410, 154.5051
774.5231, 116.7922
775.0052, 99.44824
775.4873, 108.7678
775.9694, 125.7527
776.4515, 129.7683
776.9337, 122.9756
777.4158, 113.2864
777.8979, 100.7109
778.3800, 90.59497
778.8621, 86.88550
779.3442, 88.67578
779.8264, 94.95337
780.3085, 109.6104
780.7906, 122.5144
781.2727, 136.3459
781.7548, 145.1277
782.2369, 138.7051
782.7191, 111.5701
783.2012, 94.10449
783.6833, 89.60278
784.1654, 93.48047
784.6475, 100.1616
785.1296, 108.1826
785.6118, 110.9209
786.0939, 103.4473
786.5760, 94.69141
787.0581, 92.51172
787.5402, 94.37500
788.0223, 95.38794
788.5045, 93.24072
788.9866, 92.35767
789.4687, 94.82275
789.9508, 97.06519
790.4329, 89.55420
790.9150, 68.80884
791.3972, 55.66138
791.8793, 58.49048
792.3614, 69.15137
792.8435, 68.98901
793.3256, 60.60278
793.8077, 55.06348
794.2899, 65.06226
794.7720, 73.53711
795.2541, 62.92358
795.7362, 39.66943
796.2183, 26.60278
796.7004, 34.06885
797.1826, 47.21631
797.6647, 68.47290
798.1468, 93.42847
798.6289, 94.79028
799.1110, 69.36035
799.5931, 44.12427
800.0753, 28.71240
800.5574, 22.72217
801.0395, 28.22852
801.5216, 43.24854
802.0037, 58.14307
802.4858, 72.05469
802.9680, 79.74854
803.4501, 74.74927
803.9322, 57.97803
804.4143, 45.72827
804.8964, 41.63354
805.3785, 38.35303
805.8607, 31.86670
806.3428, 23.29883
806.8249, 25.93262
807.3070, 40.52661
807.7891, 51.48254
808.2712, 44.35278
808.7534, 29.58240
809.2355, 24.08630
809.7176, 27.21057
810.1997, 27.51965
810.6818, 13.70715
811.1639, 0.6903080
811.6461, 2.587158
812.1282, 5.090332
812.6103, 10.03857
813.0924, 12.92212
813.5745, 12.70715
814.0566, 5.846069
814.5388, 5.971436
815.0209, 8.390747
815.5030, 1.369629
815.9851, 8.971680
816.4672, 23.05212
816.9493, 35.13940
817.4315, 37.48145
817.9136, 29.68030
818.3957, 21.94885
818.8778, 14.78625
819.3599, 11.23022
819.8420, 13.67468
820.3242, 22.78088
820.8063, 29.20825
821.2884, 32.98059
821.7705, 33.84766
822.2526, 31.44177
822.7347, 26.02222
823.2169, 15.60132
823.6990, 0.6339110
824.1811, 9.292114
824.6632, 0.2296140
825.1453, 11.30750
825.6274, 9.908447
826.1096, 8.926880
826.5917, 16.63586
827.0738, 1.935181
827.5559, 12.76160
828.0380, 13.21777
828.5201, 1.042114
829.0023, 2.156006
829.4844, 11.04956
829.9665, 22.04077
830.4486, 11.02820
830.9307, 7.525146
831.4128, 9.817871
831.8950, 6.169556
832.3771, 21.26331
832.8592, 28.49536
833.3413, 29.85559
833.8234, 24.02161
834.3055, 9.529785
834.7877, 2.886230
835.2698, 6.678467
835.7519, 12.35217
836.2340, 14.52356
836.7161, 12.64514
837.1982, 11.28845
837.6804, 11.40857
838.1625, 12.59644
838.6446, 19.62000
839.1267, 24.22998
839.6088, 13.91492
840.0909, 14.81604
840.5731, 27.56445
841.0552, 2.572510
841.5373, 23.85400
842.0194, 35.33459
842.5015, 31.55090
842.9836, 23.69739
843.4658, 10.60730
843.9479, 3.855347
844.4300, 23.27393
844.9121, 50.03467
845.3942, 47.43262
845.8763, 15.66943
846.3585, 11.57654
846.8406, 17.64331
847.3227, 13.39905
847.8048, 1.433960
848.2869, 18.51245
848.7690, 29.22180
849.2512, 27.87390
849.7333, 23.96277
850.2154, 23.27222
850.6975, 24.67493
851.1796, 21.05530
851.6617, 12.93652
852.1439, 7.181030
852.6260, 11.33667
853.1081, 17.42859
853.5902, 19.61597
854.0723, 17.53784
854.5544, 12.36646
855.0366, 4.169800
855.5187, 13.51746
856.0008, 5.707275
856.4829, 16.44470
856.9650, 25.02869
857.4471, 19.35229
857.9293, 14.02930
858.4114, 20.83130
858.8935, 31.56165
859.3756, 32.62427
859.8577, 25.93433
860.3398, 21.30176
860.8220, 26.76257
861.3041, 31.67993
861.7862, 30.52051
862.2683, 24.45374
862.7504, 18.65820
863.2325, 11.61377
863.7147, 12.10303
864.1968, 27.81860
864.6789, 49.00781
865.1610, 47.60120
865.6431, 28.61975
866.1252, 14.49390
866.6074, 25.69287
867.0895, 37.44788
867.5716, 31.98572
868.0537, 14.27576
868.5358, 5.114868
869.0179, 12.73450
869.5001, 16.34265
869.9822, 9.191284
870.4643, 3.457642
870.9464, 6.627930
871.4285, 0.9993900
871.9106, 7.703979
872.3928, 17.82422
872.8749, 29.00793
873.3570, 45.11487
873.8391, 61.77368
874.3212, 70.14246
874.8033, 61.23022
875.2855, 51.94519
875.7676, 44.90515
876.2497, 39.39709
876.7318, 33.91699
877.2139, 28.32703
877.6960, 24.90527
878.1782, 24.84241
878.6603, 25.52490
879.1424, 22.27576
879.6245, 17.18335
880.1067, 14.32068
880.5888, 15.53979
881.0709, 18.23474
881.5530, 24.42993
882.0352, 29.55627
882.5173, 28.69531
882.9994, 17.29517
883.4815, 15.08704
883.9636, 25.27820
884.4457, 38.38611
884.9279, 42.47913
885.4100, 40.67493
885.8921, 44.65698
886.3742, 59.20483
886.8563, 66.24695
887.3384, 42.09363
887.8206, 13.29065
888.3027, 7.291382
888.7848, 39.85583
889.2669, 54.45483
889.7490, 46.85339
890.2311, 31.86230
890.7133, 20.81360
891.1954, 13.79858
891.6775, 14.20801
892.1596, 22.38672
892.6417, 26.63855
893.1238, 6.212524
893.6060, 13.34729
894.0881, 5.031494
894.5702, 39.97278
895.0523, 62.32141
895.5344, 47.51453
896.0165, 26.96704
896.4987, 14.62976
896.9808, 10.23022
897.4629, 12.49841
897.9450, 19.86255
898.4271, 25.52808
898.9092, 26.45569
899.3914, 25.08374
899.8735, 23.60559
900.3556, 22.21997
900.8377, 21.47815
901.3198, 19.41638
901.8019, 20.60669
902.2841, 28.30237
902.7662, 40.10986
903.2483, 46.60437
903.7304, 47.79077
904.2125, 45.68042
904.6946, 42.86060
905.1768, 38.25781
905.6589, 26.40027
906.1410, 11.50598
906.6231, 3.405273
907.1052, 10.20959
907.5873, 18.99268
908.0695, 30.27283
908.5516, 39.89807
909.0337, 38.29724
909.5158, 23.97449
909.9979, 17.17896
910.4800, 24.51648
910.9622, 34.64795
911.4443, 29.06177
911.9264, 16.78235
912.4085, 14.22119
912.8906, 31.91394
913.3727, 44.73303
913.8549, 42.80994
914.3370, 36.14160
914.8191, 32.03296
915.3012, 30.81726
915.7833, 30.70447
916.2654, 32.08984
916.7476, 32.88940
917.2297, 31.13391
917.7118, 27.37219
918.1939, 21.52563
918.6760, 13.36462
919.1581, 7.607422
919.6403, 10.13562
920.1224, 12.43945
920.6045, 6.674683
921.0866, 8.309326
921.5687, 3.979004
922.0508, 24.66541
922.5330, 46.95593
923.0151, 34.83459
923.4972, 6.619873
923.9793, 1.322754
924.4614, 8.725220
924.9435, 22.17102
925.4257, 39.48120
925.9078, 50.98621
926.3899, 48.25525
926.8720, 36.19031
927.3541, 29.98926
927.8362, 31.05334
928.3184, 29.45789
928.8005, 21.28479
929.2826, 12.13745
929.7647, 12.11560
930.2468, 18.21716
930.7289, 23.22449
931.2111, 24.97192
931.6932, 24.31226
932.1753, 17.92798
932.6574, 10.99878
933.1395, 11.86206
933.6216, 24.71216
934.1038, 29.03503
934.5859, 21.36707
935.0680, 9.709351
935.5501, 1.400879
936.0322, 3.214233
936.5143, 2.836060
936.9965, 3.317871
937.4786, 10.39905
937.9607, 18.98560
938.4428, 25.25366
938.9249, 26.16980
939.4070, 20.99634
939.8892, 16.31616
940.3713, 11.73438
940.8534, 8.973755
941.3355, 10.66431
941.8176, 14.80603
942.2997, 15.41284
942.7819, 13.43384
943.2640, 15.77905
943.7461, 35.21460
944.2282, 50.06616
944.7103, 45.56628
945.1924, 28.16077
945.6746, 22.66577
946.1567, 31.81335
946.6388, 36.64771
947.1209, 28.74573
947.6030, 16.03003
948.0851, 9.849121
948.5673, 9.168457
949.0494, 11.99390
949.5315, 23.33264
950.0136, 30.53894
950.4957, 25.94006
950.9778, 17.09521
951.4600, 12.06335
951.9421, 13.32410
952.4242, 14.84705
952.9063, 15.09143
953.3884, 15.57043
953.8705, 17.70312
954.3527, 21.10645
954.8348, 26.25061
955.3169, 33.74097
955.7990, 38.55005
956.2811, 36.68433
956.7632, 33.65564
957.2454, 33.02710
957.7275, 34.66138
958.2096, 29.36975
958.6917, 16.66418
959.1738, 8.525879
959.6559, 15.01892
960.1381, 28.53210
960.6202, 45.47437
961.1023, 62.02808
961.5844, 65.32996
962.0665, 32.06213
962.5486, 9.355957
963.0308, 12.26086
963.5129, 28.53223
963.9950, 27.47925
964.4771, 9.996216
964.9592, 6.024414
965.4413, 27.70349
965.9235, 51.40161
966.4056, 50.77002
966.8877, 39.22473
967.3698, 34.68567
967.8519, 50.33594
968.3340, 51.54822
968.8162, 26.63245
969.2983, 1.988647
969.7804, 1.278564
970.2625, 21.77222
970.7446, 42.73242
971.2267, 63.33228
971.7089, 75.12354
972.1910, 64.68433
972.6731, 48.87964
973.1552, 39.34265
973.6373, 36.86365
974.1194, 39.85388
974.6016, 53.92004
975.0837, 59.60986
975.5658, 45.94714
976.0479, 23.41809
976.5300, 19.57153
977.0121, 30.15161
977.4943, 39.02429
977.9764, 39.02551
978.4585, 36.33826
978.9406, 27.67688
979.4227, 21.00342
979.9048, 29.62830
980.3870, 62.35388
980.8691, 80.73035
981.3512, 80.54224
981.8333, 70.24695
982.3154, 52.21033
982.7975, 34.05042
983.2797, 36.53723
983.7618, 63.26294
984.2439, 80.70288
984.7260, 58.50427
985.2081, 36.50500
985.6902, 39.73035
986.1724, 65.94946
986.6545, 72.56396
987.1366, 57.97046
987.6187, 45.88245
988.1008, 50.58923
988.5829, 62.33264
989.0651, 71.04431
989.5472, 76.41895
990.0293, 77.68640
990.5114, 71.26465
990.9935, 64.68579
991.4756, 57.50769
991.9578, 52.37341
992.4399, 54.78113
992.9220, 63.99475
993.4041, 70.03381
993.8862, 70.73242
994.3683, 72.02954
994.8505, 82.97290
995.3326, 94.90015
995.8147, 98.76416
996.2968, 91.52563
996.7789, 80.67358
997.2610, 63.36072
997.7432, 49.47217
998.2253, 46.01465
998.7074, 50.34949
999.1895, 54.71204
999.6716, 57.93958
1000.154, 58.25134
1000.636, 50.53967
1001.118, 43.68896
1001.600, 40.90796
1002.082, 42.45374
1002.564, 49.76013
1003.046, 66.05615
1003.529, 72.76770
1004.011, 64.63501
1004.493, 54.18298
1004.975, 60.65186
1005.457, 74.48242
1005.939, 79.48474
1006.421, 71.35522
1006.903, 61.94666
1007.385, 56.44873
1007.868, 48.71899
1008.350, 32.96313
1008.832, 10.04492
1009.314, 1.719604
1009.796, 7.693970
1010.278, 17.81848
1010.760, 27.53442
1011.242, 37.62341
1011.725, 53.33215
1012.207, 69.59656
1012.689, 70.07458
1013.171, 40.02502
1013.653, 18.38940
1014.135, 10.53833
1014.617, 12.03796
1015.099, 21.02319
1015.581, 33.61536
1016.064, 35.81921
1016.546, 23.42493
1017.028, 11.50391
1017.510, 7.926758
1017.992, 8.981201
1018.474, 13.30212
1018.956, 21.14465
1019.438, 22.81274
1019.921, 17.34741
1020.403, 12.48865
1020.885, 13.13440
1021.367, 16.69983
1021.849, 22.54114
1022.331, 28.76636
1022.813, 27.80701
1023.295, 8.596313
1023.778, 5.391602
1024.260, 9.822632
1024.742, 7.885132
1025.224, 2.553223
1025.706, 5.582153
1026.188, 10.59656
1026.670, 11.13562
1027.152, 13.26416
1027.634, 27.26404
1028.117, 41.78955
1028.599, 44.36938
1029.081, 33.57568
1029.563, 25.82019
1030.045, 20.85779
1030.527, 20.19775
1031.009, 26.64880
1031.491, 36.23328
1031.974, 40.34253
1032.456, 40.30347
1032.938, 39.38989
1033.420, 39.16846
1033.902, 38.11646
1034.384, 37.60474
1034.866, 34.77661
1035.348, 22.43274
1035.830, 0.4473880
1036.313, 3.223755
1036.795, 15.40063
1037.277, 32.24768
1037.759, 19.04993
1038.241, 0.9375000
1038.723, 3.971924
1039.205, 11.95068
1039.687, 20.66211
1040.169, 19.28674
1040.652, 14.05774
1041.134, 4.771973
1041.616, 4.447998
1042.098, 2.176636
1042.580, 7.906128
1043.062, 15.50269
1043.544, 16.40405
1044.026, 15.34192
1044.509, 11.49915
1044.991, 8.380249
1045.473, 8.796509
1045.955, 12.71460
1046.437, 23.16272
1046.919, 40.84692
1047.401, 53.66638
1047.883, 48.42566
1048.365, 36.45215
1048.848, 25.98181
1049.330, 18.07922
1049.812, 17.68945
1050.294, 31.20374
1050.776, 39.47021
1051.258, 37.94714
1051.740, 29.61548
1052.222, 13.95264
1052.704, 3.618286
1053.187, 5.965820
1053.669, 17.21924
1054.151, 33.78723
1054.633, 22.89307
1055.115, 4.699219
1055.597, 8.343994
1056.079, 16.35376
1056.561, 12.70630
1057.044, 2.903320
1057.526, 16.90247
1058.008, 19.18164
1058.490, 17.23364
1058.972, 16.62366
1059.454, 17.54761
1059.936, 20.70068
1060.418, 29.67957
1060.901, 33.26636
1061.383, 28.53601
1061.865, 22.08191
1062.347, 22.95471
1062.829, 28.32935
1063.311, 30.77502
1063.793, 29.21448
1064.275, 30.31311
1064.757, 39.64807
1065.240, 48.60522
1065.722, 57.06848
1066.204, 63.23743
1066.686, 54.81519
1067.168, 32.35535
1067.650, 12.68127
1068.132, 0.8112790
1068.614, 4.009155
1069.096, 1.216187
1069.579, 11.18311
1070.061, 18.29968
1070.543, 18.83105
1071.025, 25.49939
1071.507, 41.40027
1071.989, 53.44409
1072.471, 47.75037
1072.953, 32.61328
1073.436, 21.73462
1073.918, 14.64270
1074.400, 11.45361
1074.882, 14.75928
1075.364, 20.48328
1075.846, 29.71399
1076.328, 38.65857
1076.810, 38.10669
1077.292, 29.85437
1077.775, 27.67969
1078.257, 35.78687
1078.739, 40.00146
1079.221, 17.35693
1079.703, 3.976929
1080.185, 7.015381
1080.667, 49.71216
1081.149, 63.20703
1081.631, 42.42004
1082.114, 24.63586
1082.596, 31.46619
1083.078, 46.40186
1083.560, 48.33948
1084.042, 40.42908
1084.524, 28.48523
1085.006, 1.073486
1085.488, 8.755615
1085.971, 6.781738
1086.453, 27.16956
1086.935, 32.09192
1087.417, 26.09656
1087.899, 24.80811
1088.381, 27.89417
1088.863, 28.87170
1089.345, 16.53699
1089.828, 10.43311
1090.310, 24.22571
1090.792, 47.03589
1091.274, 51.77283
1091.756, 39.02942
1092.238, 30.22107
1092.720, 30.43726
1093.202, 32.07922
1093.684, 24.96619
1094.167, 17.99377
1094.649, 23.48608
1095.131, 44.18481
1095.613, 48.63062
1096.095, 32.25073
1096.577, 18.37085
1097.059, 20.17334
1097.541, 29.32520
1098.024, 35.39697
1098.506, 38.36145
1098.988, 37.96545
1099.470, 30.98438
1099.952, 24.74841
1100.434, 17.44824
1100.916, 14.53223
1101.398, 25.17688
1101.880, 44.76941
1102.363, 51.47607
1102.845, 46.10706
1103.327, 41.19275
1103.809, 48.59839
1104.291, 51.98950
1104.773, 38.43945
1105.255, 18.88855
1105.737, 18.18042
1106.219, 35.88989
1106.702, 45.76782
1107.184, 42.49475
1107.666, 35.20935
1108.148, 27.65198
1108.630, 22.65063
1109.112, 24.54224
1109.594, 33.62573
1110.076, 37.31274
1110.559, 34.76868
1111.041, 28.38196
1111.523, 17.21240
1112.005, 6.545776
1112.487, 3.091919
1112.969, 6.617432
1113.451, 17.30688
1113.933, 45.09912
1114.416, 59.46057
1114.898, 55.62903
1115.380, 45.94727
1115.862, 38.50439
1116.344, 33.16187
1116.826, 31.07874
1117.308, 31.32068
1117.790, 29.78784
1118.272, 17.01819
1118.755, 12.40295
1119.237, 28.48157
1119.719, 48.85974
1120.201, 49.10303
1120.683, 31.32263
1121.165, 12.52649
1121.647, 5.757446
1122.129, 14.59009
1122.611, 1.0620000E-02
1123.094, 19.12805
1123.576, 31.05298
1124.058, 36.83533
1124.540, 42.32483
1125.022, 47.59668
1125.504, 52.41870
1125.986, 57.70044
1126.468, 58.78601
1126.951, 48.25110
1127.433, 33.13391
1127.915, 21.52563
1128.397, 14.81323
1128.879, 10.71631
1129.361, 10.30249
1129.843, 7.957520
1130.325, 2.955566
1130.807, 13.77173
1131.290, 6.461304
1131.772, 11.94006
1132.254, 26.63147
1132.736, 30.10217
1133.218, 34.42725
1133.700, 40.62585
1134.182, 47.11963
1134.664, 53.95105
1135.146, 59.80298
1135.629, 60.04126
1136.111, 55.26685
1136.593, 49.51599
1137.075, 47.30298
1137.557, 39.97107
1138.039, 21.66504
1138.521, 2.238037
1139.003, 0.9263920
1139.486, 14.30823
1139.968, 20.85498
1140.450, 17.58630
1140.932, 12.66272
1141.414, 6.241943
1141.896, 5.084473
1142.378, 16.87476
1142.860, 36.78894
1143.343, 47.42566
1143.825, 50.30566
1144.307, 41.86084
1144.789, 17.49414
1145.271, 2.297363
1145.753, 8.893311
1146.235, 29.92603
1146.717, 38.56104
1147.199, 32.95642
1147.682, 28.98694
1148.164, 26.71997
1148.646, 25.89160
1149.128, 27.39612
1149.610, 28.97705
1150.092, 27.90186
1150.574, 25.03918
1151.056, 21.74731
1151.538, 17.57129
1152.021, 14.62146
1152.503, 12.64697
1152.985, 12.05420
1153.467, 14.42139
1153.949, 17.60742
1154.431, 17.26746
1154.913, 14.59802
1155.395, 13.77808
1155.878, 15.78406
1156.360, 20.99280
1156.842, 31.36243
1157.324, 41.15344
1157.806, 43.13416
1158.288, 39.63159
1158.770, 35.65161
1159.252, 31.61377
1159.734, 26.75378
1160.217, 15.37988
1160.699, 10.91016
1161.181, 19.78137
1161.663, 33.84753
1162.145, 37.81250
1162.627, 33.33911
1163.109, 23.09131
1163.591, 5.604126
1164.073, 1.578857
1164.556, 25.02600
1165.038, 48.42578
1165.520, 48.78479
1166.002, 32.67761
1166.484, 26.78735
1166.966, 29.74121
1167.448, 33.57690
1167.930, 36.83252
1168.413, 37.30334
1168.895, 30.60522
1169.377, 23.16357
1169.859, 20.00623
1170.341, 21.05151
1170.823, 24.28564
1171.305, 29.47034
1171.787, 32.37878
1172.270, 28.43005
1172.752, 24.60315
1173.234, 29.49011
1173.716, 34.82080
1174.198, 13.48657
1174.680, 31.74805
1175.162, 41.81250
1175.644, 44.11963
1176.126, 15.43530
1176.609, 26.76672
1177.091, 22.06299
1177.573, 16.70142
1178.055, 33.66650
1178.537, 9.488892
1179.019, 26.09863
1179.501, 25.99463
1179.983, 32.80518
1180.465, 24.36316
1180.948, 20.98816
1181.430, 33.75562
1181.912, 37.58594
1182.394, 27.37073
1182.876, 35.62378
1183.358, 10.88037
1183.840, 15.09143
1184.322, 31.79773
1184.805, 16.79590
1185.287, 10.57751
1185.769, 2.932251
1186.251, 1.223633
1186.733, 1.270142
1187.215, 1.270630
1187.697, 6.822876
1188.179, 12.82275
1188.661, 18.31311
1189.144, 24.08716
1189.626, 32.38513
1190.108, 38.83044
1190.590, 36.13269
1191.072, 19.96338
1191.554, 10.08154
1192.036, 7.539307
1192.518, 11.26733
1193.000, 25.10986
1193.483, 39.36792
1193.965, 31.24536
1194.447, 12.97717
1194.929, 8.168335
1195.411, 33.34399
1195.893, 47.45850
1196.375, 46.73425
1196.857, 39.43005
1197.340, 27.63684
1197.822, 15.20862
1198.304, 12.25293
1198.786, 15.14148
1199.268, 14.89221
1199.750, 1.335449
1200.232, 2.767212
1200.714, 8.567261
1201.197, 18.57764
1201.679, 5.316650
1202.161, 16.63672
1202.643, 11.73901
1203.125, 14.11768
1203.607, 36.36499
1204.089, 45.16797
1204.571, 51.07715
1205.053, 56.30603
1205.536, 57.28015
1206.018, 44.01489
1206.500, 25.37610
1206.982, 26.78162
1207.464, 45.80579
1207.946, 52.87024
1208.428, 21.80225
1208.910, 0.3525390
1209.392, 2.803101
1209.875, 4.757324
1210.357, 15.47937
1210.839, 27.63489
1211.321, 37.53406
1211.803, 44.82996
1212.285, 52.99988
1212.767, 66.45471
1213.249, 69.66089
1213.732, 55.83875
1214.214, 36.01733
1214.696, 29.60132
1215.178, 32.42395
1215.660, 35.48254
1216.142, 37.19360
1216.624, 40.71765
1217.106, 52.03662
1217.589, 56.69250
1218.071, 46.47095
1218.553, 30.87622
1219.035, 32.11731
1219.517, 43.55762
1219.999, 49.87964
1220.481, 46.73535
1220.963, 43.18311
1221.445, 39.97864
1221.927, 38.20984
1222.410, 40.09583
1222.892, 42.46313
1223.374, 32.65894
1223.856, 18.39905
1224.338, 19.88245
1224.820, 54.66150
1225.302, 69.21082
1225.784, 47.21899
1226.267, 22.92468
1226.749, 15.39258
1227.231, 18.60791
1227.713, 18.85278
1228.195, 17.59363
1228.677, 18.50281
1229.159, 25.06982
1229.641, 28.94336
1230.124, 27.88831
1230.606, 27.50623
1231.088, 34.34424
1231.570, 43.41492
1232.052, 40.59766
1232.534, 30.03967
1233.016, 22.81018
1233.498, 21.18701
1233.980, 27.48547
1234.463, 46.05603
1234.945, 61.49438
1235.427, 58.40332
1235.909, 44.24878
1236.391, 28.24060
1236.873, 13.47449
1237.355, 9.353638
1237.837, 31.27515
1238.320, 41.69299
1238.802, 35.55542
1239.284, 26.49683
1239.766, 28.38110
1240.248, 35.03870
1240.730, 37.08142
1241.212, 35.02832
1241.694, 31.38672
1242.177, 20.05383
1242.659, 24.65039
1243.141, 52.20886
1243.623, 78.48120
1244.105, 73.16504
1244.587, 54.46606
1245.069, 43.78333
1245.551, 41.51904
1246.033, 43.09961
1246.516, 50.85266
1246.998, 51.80103
1247.480, 42.56531
1247.962, 33.01465
1248.444, 34.93298
1248.926, 39.54468
1249.408, 46.37109
1249.890, 51.57959
1250.372, 47.44995
1250.855, 30.77551
1251.337, 19.11523
1251.819, 15.71716
1252.301, 16.97278
1252.783, 22.64526
1253.265, 29.50574
1253.747, 34.08313
1254.229, 36.86316
1254.712, 43.43372
1255.194, 55.03979
1255.676, 59.46045
1256.158, 53.74255
1256.640, 43.32410
1257.122, 27.52051
1257.604, 13.85461
1258.086, 9.522461
1258.568, 13.20801
1259.051, 20.88977
1259.533, 32.52844
1260.015, 41.45007
1260.497, 46.53186
1260.979, 46.03259
1261.461, 28.36169
1261.943, 14.51331
1262.425, 24.01892
1262.907, 49.03101
1263.390, 53.49475
1263.872, 40.33923
1264.354, 34.24182
1264.836, 43.83142
1265.318, 50.32190
1265.800, 36.13428
1266.282, 21.85352
1266.764, 19.39246
1267.247, 25.63696
1267.729, 33.12402
1268.211, 39.50867
1268.693, 32.17236
1269.175, 1.242065
1269.657, 18.40234
1270.139, 6.453979
1270.621, 14.96423
1271.104, 41.62097
1271.586, 67.09033
1272.068, 67.55481
1272.550, 51.51355
1273.032, 43.10034
1273.514, 53.42163
1273.996, 53.56372
1274.478, 30.02283
1274.960, 11.46167
1275.443, 13.50635
1275.925, 26.39258
1276.407, 32.75354
1276.889, 32.93079
1277.371, 26.77808
1277.853, 9.445190
1278.335, 2.854492
1278.817, 10.98108
1279.299, 20.02625
1279.782, 21.39575
1280.264, 22.32776
1280.746, 38.03052
1281.228, 58.94141
1281.710, 69.55688
1282.192, 64.21118
1282.674, 50.71021
1283.156, 46.90747
1283.639, 42.62146
1284.121, 35.97900
1284.603, 30.21875
1285.085, 30.77698
1285.567, 32.82544
1286.049, 27.79553
1286.531, 13.25586
1287.013, 13.27246
1287.495, 31.01929
1287.978, 39.93799
1288.460, 20.98730
1288.942, 1.652222
1289.424, 2.721558
1289.906, 11.29163
1290.388, 15.63452
1290.870, 15.48816
1291.352, 11.21216
1291.834, 4.247314
1292.317, 0.6754150
1292.799, 10.55200
1293.281, 20.61450
1293.763, 13.41772
1294.245, 6.044922
1294.727, 0.0000000E+00
##END=



