##NAMES=Meta-autunite
##RRUFFID=R060434
##IDEAL CHEMISTRY=Ca(U^6+^O_2_)_2_(PO_4_)_2_&#183;6H_2_O
##LOCALITY=Hyverneresse, Creuse, France
##OWNER=RRUFF
##SOURCE=Michael Scott
##DESCRIPTION=Yellow thin tabular crystal
##STATUS=The identification of this mineral has been confirmed by X-ray diffraction and chemical analysis
##URL=rruff.info/R060434
##MEASURED CHEMISTRY=(Ca_0.88_Sr_0.10_)_∑=0.98_(UO_2_)_1.96_(PO_4_)_2.05_·3.60H_2_O
170.5845, 85816.40
171.0666, 86330.77
171.5487, 86866.96
172.0309, 87421.30
172.5130, 87947.15
172.9951, 88414.58
173.4772, 88833.56
173.9593, 89219.73
174.4414, 89575.89
174.9236, 89902.62
175.4057, 90197.23
175.8878, 90462.27
176.3699, 90685.63
176.8520, 90856.45
177.3341, 90979.66
177.8163, 91066.95
178.2984, 91108.19
178.7805, 91119.24
179.2626, 91121.31
179.7447, 91113.80
180.2268, 91098.52
180.7090, 91053.48
181.1911, 90996.34
181.6732, 90984.30
182.1553, 91067.38
182.6374, 91210.11
183.1195, 91334.48
183.6017, 91437.64
184.0838, 91537.80
184.5659, 91664.27
185.0480, 91810.62
185.5301, 91951.62
186.0123, 92065.95
186.4944, 92163.14
186.9765, 92269.85
187.4586, 92387.09
187.9407, 92512.11
188.4228, 92646.30
188.9050, 92787.17
189.3871, 92923.02
189.8692, 93049.20
190.3513, 93164.27
190.8334, 93264.98
191.3155, 93350.92
191.7977, 93423.08
192.2798, 93489.48
192.7619, 93551.05
193.2440, 93584.69
193.7261, 93569.13
194.2082, 93509.82
194.6904, 93456.77
195.1725, 93412.27
195.6546, 93377.89
196.1367, 93358.95
196.6188, 93355.86
197.1009, 93361.11
197.5831, 93376.90
198.0652, 93402.93
198.5473, 93407.69
199.0294, 93381.70
199.5115, 93342.27
199.9937, 93322.55
200.4758, 93321.74
200.9579, 93337.89
201.4400, 93374.80
201.9221, 93433.52
202.4042, 93485.33
202.8864, 93527.60
203.3685, 93561.37
203.8506, 93586.45
204.3327, 93598.79
204.8148, 93615.54
205.2969, 93655.41
205.7791, 93726.52
206.2612, 93756.23
206.7433, 93727.63
207.2254, 93665.01
207.7075, 93632.85
208.1896, 93640.80
208.6718, 93651.75
209.1539, 93643.67
209.6360, 93612.02
210.1181, 93588.94
210.6002, 93579.16
211.0823, 93579.29
211.5645, 93577.12
212.0466, 93570.28
212.5287, 93572.30
213.0108, 93597.78
213.4929, 93661.27
213.9750, 93695.82
214.4572, 93688.05
214.9393, 93653.94
215.4214, 93639.40
215.9035, 93647.38
216.3856, 93667.37
216.8678, 93697.27
217.3499, 93745.31
217.8320, 93769.32
218.3141, 93756.36
218.7962, 93717.52
219.2783, 93689.95
219.7605, 93673.80
220.2426, 93663.13
220.7247, 93653.97
221.2068, 93643.08
221.6889, 93639.32
222.1710, 93643.62
222.6532, 93655.66
223.1353, 93677.22
223.6174, 93724.11
224.0995, 93757.80
224.5816, 93756.56
225.0637, 93705.25
225.5459, 93659.98
226.0280, 93619.16
226.5101, 93587.11
226.9922, 93579.98
227.4743, 93612.34
227.9564, 93646.69
228.4386, 93663.84
228.9207, 93653.67
229.4028, 93649.67
229.8849, 93662.70
230.3670, 93678.40
230.8492, 93651.97
231.3313, 93550.74
231.8134, 93456.70
232.2955, 93406.75
232.7776, 93414.85
233.2597, 93441.77
233.7419, 93500.27
234.2240, 93576.27
234.7061, 93626.80
235.1882, 93631.92
235.6703, 93645.56
236.1524, 93694.04
236.6346, 93798.02
237.1167, 93891.45
237.5988, 93969.48
238.0809, 94039.12
238.5630, 94117.43
239.0451, 94202.43
239.5273, 94296.04
240.0094, 94399.66
240.4915, 94517.62
240.9736, 94627.85
241.4557, 94722.83
241.9378, 94810.98
242.4200, 94912.50
242.9021, 95039.14
243.3842, 95159.70
243.8663, 95260.33
244.3484, 95331.62
244.8306, 95411.02
245.3127, 95503.77
245.7948, 95601.34
246.2769, 95685.36
246.7590, 95741.27
247.2411, 95808.55
247.7233, 95908.13
248.2054, 96058.96
248.6875, 96172.25
249.1696, 96227.67
249.6517, 96259.82
250.1338, 96326.29
250.6160, 96448.12
251.0981, 96568.38
251.5802, 96668.20
252.0623, 96744.95
252.5444, 96819.55
253.0265, 96889.11
253.5087, 96959.41
253.9908, 97037.69
254.4729, 97128.20
254.9550, 97220.41
255.4371, 97311.40
255.9192, 97399.70
256.4014, 97494.10
256.8835, 97599.18
257.3656, 97705.80
257.8477, 97804.67
258.3298, 97890.91
258.8120, 97979.76
259.2941, 98074.07
259.7762, 98173.66
260.2583, 98282.26
260.7404, 98405.84
261.2225, 98529.38
261.7047, 98635.93
262.1868, 98712.11
262.6689, 98803.08
263.1510, 98927.08
263.6331, 99080.63
264.1152, 99198.38
264.5974, 99262.64
265.0795, 99316.73
265.5616, 99406.04
266.0437, 99549.99
266.5258, 99670.68
267.0079, 99742.44
267.4901, 99776.58
267.9722, 99868.98
268.4543, 100052.7
268.9364, 100236.4
269.4185, 100331.5
269.9006, 100309.0
270.3828, 100331.9
270.8649, 100432.6
271.3470, 100596.5
271.8291, 100757.3
272.3112, 100911.6
272.7933, 101070.2
273.2755, 101245.0
273.7576, 101439.7
274.2397, 101608.5
274.7218, 101738.8
275.2039, 101839.1
275.6860, 101936.3
276.1682, 102031.5
276.6503, 102122.6
277.1324, 102206.1
277.6145, 102281.2
278.0966, 102373.8
278.5787, 102493.3
279.0609, 102629.1
279.5430, 102754.9
280.0251, 102869.5
280.5072, 102997.6
280.9893, 103165.5
281.4715, 103372.8
281.9536, 103550.1
282.4357, 103686.0
282.9178, 103806.7
283.3999, 103949.6
283.8820, 104112.6
284.3642, 104300.8
284.8463, 104527.6
285.3284, 104786.8
285.8105, 105012.0
286.2926, 105193.2
286.7747, 105364.4
287.2569, 105578.3
287.7390, 105831.9
288.2211, 106077.4
288.7032, 106296.5
289.1853, 106491.3
289.6674, 106676.6
290.1496, 106854.5
290.6317, 107020.9
291.1138, 107166.0
291.5959, 107294.5
292.0780, 107426.3
292.5602, 107572.9
293.0423, 107729.0
293.5244, 107882.3
294.0065, 108033.0
294.4886, 108178.9
294.9707, 108307.9
295.4529, 108429.9
295.9350, 108578.6
296.4171, 108772.8
296.8992, 108991.2
297.3813, 109199.7
297.8634, 109397.4
298.3456, 109582.9
298.8277, 109740.3
299.3098, 109883.4
299.7919, 110043.3
300.2740, 110228.0
300.7561, 110427.0
301.2383, 110620.8
301.7204, 110813.5
302.2025, 111011.4
302.6846, 111219.5
303.1667, 111436.6
303.6488, 111667.5
304.1310, 111912.4
304.6131, 112164.8
305.0952, 112424.4
305.5773, 112684.7
306.0594, 112927.1
306.5415, 113128.9
307.0237, 113315.4
307.5058, 113518.2
307.9879, 113740.7
308.4700, 113964.9
308.9521, 114184.7
309.4343, 114396.3
309.9164, 114598.1
310.3985, 114781.5
310.8806, 114961.6
311.3627, 115146.5
311.8448, 115338.1
312.3270, 115542.0
312.8091, 115772.1
313.2912, 116013.7
313.7733, 116249.3
314.2554, 116469.6
314.7375, 116685.3
315.2197, 116894.1
315.7018, 117100.3
316.1839, 117322.5
316.6660, 117587.6
317.1481, 117864.6
317.6302, 118126.1
318.1124, 118379.7
318.5945, 118601.5
319.0766, 118767.7
319.5587, 118892.3
320.0408, 119027.4
320.5229, 119186.7
321.0051, 119362.1
321.4872, 119550.4
321.9693, 119751.5
322.4514, 119960.6
322.9335, 120184.0
323.4156, 120414.0
323.8978, 120636.3
324.3799, 120831.8
324.8620, 121033.4
325.3441, 121256.7
325.8262, 121509.9
326.3083, 121755.4
326.7905, 121994.8
327.2726, 122224.4
327.7547, 122436.4
328.2368, 122587.9
328.7189, 122768.3
329.2010, 123010.7
329.6832, 123322.1
330.1653, 123594.6
330.6474, 123822.6
331.1295, 124015.5
331.6116, 124178.4
332.0938, 124269.1
332.5759, 124397.7
333.0580, 124584.1
333.5401, 124822.6
334.0222, 125060.5
334.5043, 125300.4
334.9865, 125537.8
335.4686, 125772.6
335.9507, 126006.8
336.4328, 126232.4
336.9149, 126446.1
337.3970, 126655.6
337.8792, 126873.0
338.3613, 127100.9
338.8434, 127338.3
339.3255, 127591.7
339.8076, 127867.0
340.2898, 128130.8
340.7719, 128389.1
341.2540, 128633.6
341.7361, 128846.9
342.2182, 129020.5
342.7003, 129217.0
343.1825, 129468.2
343.6646, 129764.2
344.1467, 130020.4
344.6288, 130234.2
345.1109, 130429.9
345.5930, 130618.8
346.0752, 130802.4
346.5573, 131032.7
347.0394, 131342.5
347.5215, 131687.9
348.0036, 131970.3
348.4857, 132189.3
348.9679, 132411.8
349.4500, 132699.6
349.9321, 133033.0
350.4142, 133358.5
350.8963, 133673.9
351.3784, 133967.4
351.8606, 134198.7
352.3427, 134383.5
352.8248, 134585.0
353.3069, 134853.0
353.7890, 135151.0
354.2711, 135432.8
354.7533, 135692.6
355.2354, 135951.1
355.7175, 136238.2
356.1996, 136532.3
356.6817, 136795.8
357.1638, 136963.7
357.6460, 137130.1
358.1281, 137382.5
358.6102, 137713.7
359.0923, 138040.2
359.5744, 138297.2
360.0565, 138531.3
360.5387, 138789.0
361.0208, 139108.5
361.5029, 139424.0
361.9850, 139677.2
362.4671, 139896.9
362.9492, 140167.8
363.4314, 140592.1
363.9135, 141023.4
364.3956, 141372.2
364.8777, 141582.4
365.3598, 141820.7
365.8419, 142136.5
366.3241, 142499.2
366.8062, 142860.4
367.2883, 143217.3
367.7704, 143568.1
368.2526, 143910.2
368.7347, 144242.5
369.2168, 144575.2
369.6989, 144897.2
370.1810, 145226.8
370.6631, 145584.5
371.1453, 146000.3
371.6274, 146399.0
372.1095, 146764.1
372.5916, 147104.8
373.0737, 147470.6
373.5558, 147877.1
374.0380, 148289.0
374.5201, 148689.7
375.0022, 149065.8
375.4843, 149458.7
375.9664, 149868.5
376.4485, 150296.2
376.9307, 150764.7
377.4128, 151282.6
377.8949, 151787.0
378.3770, 152241.9
378.8591, 152648.1
379.3412, 153074.8
379.8234, 153524.7
380.3055, 153971.9
380.7876, 154367.7
381.2697, 154719.6
381.7518, 155097.5
382.2339, 155534.8
382.7161, 155999.0
383.1982, 156415.2
383.6803, 156782.0
384.1624, 157149.6
384.6445, 157552.9
385.1266, 157982.6
385.6088, 158415.8
386.0909, 158846.7
386.5730, 159284.9
387.0551, 159739.3
387.5372, 160203.7
388.0193, 160668.6
388.5015, 161123.0
388.9836, 161572.9
389.4657, 162025.2
389.9478, 162479.9
390.4299, 162930.3
390.9120, 163362.7
391.3942, 163791.6
391.8763, 164229.6
392.3584, 164718.5
392.8405, 165182.1
393.3226, 165562.5
393.8047, 165877.2
394.2869, 166205.5
394.7690, 166564.0
395.2511, 166956.3
395.7332, 167392.4
396.2154, 167907.3
396.6975, 168395.6
397.1796, 168816.3
397.6617, 169204.9
398.1438, 169618.6
398.6259, 170094.8
399.1081, 170570.5
399.5902, 171036.9
400.0723, 171498.9
400.5544, 171907.8
401.0365, 172196.9
401.5186, 172479.7
402.0008, 172851.4
402.4829, 173383.5
402.9650, 173865.3
403.4471, 174253.5
403.9292, 174574.0
404.4113, 174936.1
404.8935, 175366.3
405.3756, 175781.9
405.8577, 176137.7
406.3398, 176423.9
406.8219, 176707.1
407.3040, 176987.3
407.7862, 177273.2
408.2683, 177582.9
408.7504, 177918.9
409.2325, 178271.5
409.7146, 178647.4
410.1967, 179037.5
410.6789, 179420.5
411.1610, 179797.0
411.6431, 180207.9
412.1252, 180699.2
412.6073, 181251.7
413.0894, 181811.6
413.5716, 182361.8
414.0537, 182902.7
414.5358, 183420.5
415.0179, 183917.9
415.5000, 184425.1
415.9821, 184967.1
416.4643, 185510.2
416.9464, 186009.5
417.4285, 186453.5
417.9106, 186896.0
418.3927, 187373.5
418.8748, 187865.7
419.3570, 188340.8
419.8391, 188760.4
420.3212, 189191.7
420.8033, 189694.6
421.2854, 190247.7
421.7675, 190757.5
422.2497, 191175.0
422.7318, 191562.5
423.2139, 191948.6
423.6960, 192337.8
424.1781, 192731.3
424.6602, 193139.9
425.1424, 193552.8
425.6245, 193947.1
426.1066, 194271.6
426.5887, 194636.6
427.0709, 195070.0
427.5530, 195570.7
428.0351, 196069.6
428.5172, 196580.9
428.9993, 197074.3
429.4814, 197525.2
429.9636, 197922.5
430.4457, 198315.7
430.9278, 198714.8
431.4099, 199104.2
431.8920, 199429.5
432.3741, 199680.2
432.8563, 199968.7
433.3384, 200365.2
433.8205, 200853.3
434.3026, 201316.5
434.7847, 201758.1
435.2668, 202167.8
435.7490, 202502.6
436.2311, 202791.9
436.7132, 203134.0
437.1953, 203576.1
437.6774, 204053.7
438.1595, 204508.3
438.6417, 204935.3
439.1238, 205315.0
439.6059, 205580.0
440.0880, 205821.5
440.5701, 206150.8
441.0522, 206595.3
441.5344, 207035.2
442.0165, 207397.3
442.4986, 207711.9
442.9807, 208014.0
443.4628, 208292.7
443.9449, 208582.4
444.4271, 208898.1
444.9092, 209236.3
445.3913, 209583.4
445.8734, 209888.8
446.3555, 210228.1
446.8376, 210646.5
447.3198, 211214.5
447.8019, 211725.5
448.2840, 212143.4
448.7661, 212510.9
449.2482, 212884.8
449.7303, 213265.3
450.2125, 213648.8
450.6946, 214043.9
451.1767, 214450.4
451.6588, 214821.0
452.1409, 215141.0
452.6230, 215468.4
453.1052, 215853.0
453.5873, 216305.8
454.0694, 216713.8
454.5515, 217058.4
455.0337, 217372.6
455.5158, 217684.0
455.9979, 217997.5
456.4800, 218358.8
456.9621, 218839.6
457.4442, 219369.6
457.9264, 219764.3
458.4085, 220028.0
458.8906, 220297.0
459.3727, 220724.9
459.8548, 221220.8
460.3369, 221617.0
460.8191, 221845.3
461.3012, 222062.3
461.7833, 222396.2
462.2654, 222814.7
462.7475, 223247.4
463.2296, 223682.5
463.7118, 224113.4
464.1939, 224537.1
464.6760, 224955.9
465.1581, 225359.3
465.6402, 225720.8
466.1223, 226070.9
466.6045, 226425.5
467.0866, 226793.0
467.5687, 227147.4
468.0508, 227465.5
468.5329, 227770.1
469.0150, 228125.2
469.4972, 228585.8
469.9793, 229005.5
470.4614, 229320.1
470.9435, 229522.9
471.4256, 229792.3
471.9077, 230169.3
472.3899, 230538.8
472.8720, 230773.2
473.3541, 230860.8
473.8362, 231022.5
474.3183, 231313.7
474.8004, 231658.1
475.2826, 231899.4
475.7647, 232043.4
476.2468, 232176.7
476.7289, 232326.7
477.2110, 232498.5
477.6931, 232718.5
478.1753, 232985.7
478.6574, 233235.3
479.1395, 233393.9
479.6216, 233505.5
480.1037, 233638.9
480.5858, 233830.0
481.0680, 234015.7
481.5501, 234150.9
482.0322, 234252.8
482.5143, 234353.5
482.9964, 234450.7
483.4786, 234568.1
483.9607, 234727.4
484.4428, 234933.2
484.9249, 235135.0
485.4070, 235323.2
485.8892, 235505.1
486.3713, 235684.2
486.8534, 235809.3
487.3355, 236007.0
487.8176, 236318.6
488.2997, 236689.5
488.7819, 237006.8
489.2640, 237244.0
489.7461, 237485.1
490.2282, 237761.5
490.7103, 238069.7
491.1924, 238333.5
491.6746, 238544.4
492.1567, 238742.2
492.6388, 238952.7
493.1209, 239177.1
493.6030, 239421.3
494.0851, 239699.6
494.5673, 239963.5
495.0494, 240118.3
495.5315, 240191.6
496.0136, 240278.5
496.4957, 240451.3
496.9778, 240647.0
497.4600, 240809.7
497.9421, 240938.8
498.4242, 241031.7
498.9063, 241042.3
499.3884, 241044.5
499.8705, 241116.6
500.3527, 241322.8
500.8348, 241477.0
501.3169, 241446.8
501.7990, 241341.7
502.2811, 241315.5
502.7632, 241525.7
503.2454, 241680.8
503.7275, 241691.6
504.2096, 241575.0
504.6917, 241505.3
505.1738, 241495.5
505.6559, 241521.6
506.1381, 241580.4
506.6202, 241688.8
507.1023, 241768.5
507.5844, 241803.3
508.0665, 241843.8
508.5486, 241971.9
509.0308, 242190.2
509.5129, 242380.1
509.9950, 242492.3
510.4771, 242569.6
510.9592, 242715.1
511.4413, 242918.0
511.9235, 243116.9
512.4056, 243281.1
512.8877, 243407.4
513.3698, 243468.7
513.8519, 243454.2
514.3340, 243480.6
514.8162, 243730.2
515.2983, 244034.7
515.7804, 244187.5
516.2625, 244005.3
516.7446, 243823.2
517.2267, 243777.5
517.7089, 243837.4
518.1910, 243924.3
518.6731, 244069.9
519.1552, 244202.8
519.6373, 244289.1
520.1194, 244323.4
520.6016, 244382.5
521.0837, 244469.1
521.5658, 244572.9
522.0479, 244696.0
522.5300, 244855.1
523.0121, 244950.5
523.4943, 244951.7
523.9764, 244914.3
524.4585, 244944.1
524.9406, 245041.8
525.4227, 245134.0
525.9048, 245181.8
526.3870, 245213.3
526.8691, 245339.8
527.3513, 245551.8
527.8334, 245689.3
528.3155, 245591.6
528.7976, 245366.9
529.2797, 245149.9
529.7618, 244946.0
530.2440, 244815.3
530.7261, 244868.4
531.2082, 244997.8
531.6903, 245065.2
532.1724, 244967.0
532.6545, 244860.3
533.1367, 244805.5
533.6188, 244784.2
534.1009, 244728.3
534.5830, 244599.9
535.0651, 244463.7
535.5472, 244348.5
536.0294, 244262.2
536.5115, 244139.3
536.9936, 243971.7
537.4757, 243782.0
537.9578, 243578.3
538.4399, 243349.3
538.9221, 243176.9
539.4042, 243083.5
539.8863, 243022.7
540.3684, 242914.5
540.8505, 242761.0
541.3326, 242588.7
541.8148, 242400.1
542.2969, 242204.7
542.7790, 242016.8
543.2611, 241836.6
543.7432, 241658.3
544.2253, 241477.8
544.7075, 241298.0
545.1896, 241118.7
545.6717, 240937.5
546.1538, 240771.7
546.6359, 240654.2
547.1180, 240546.4
547.6002, 240408.9
548.0823, 240201.1
548.5644, 239998.1
549.0465, 239825.0
549.5286, 239664.5
550.0107, 239469.6
550.4929, 239234.0
550.9750, 238967.0
551.4571, 238656.9
551.9392, 238300.5
552.4213, 237995.7
552.9034, 237751.6
553.3856, 237520.5
553.8677, 237275.8
554.3498, 237015.2
554.8319, 236708.0
555.3140, 236346.1
555.7961, 235954.2
556.2783, 235538.1
556.7604, 235119.0
557.2425, 234765.8
557.7246, 234562.3
558.2067, 234377.3
558.6888, 234087.0
559.1710, 233711.7
559.6531, 233317.8
560.1352, 232906.0
560.6173, 232516.6
561.0994, 232196.0
561.5815, 231957.6
562.0637, 231683.0
562.5458, 231298.8
563.0279, 230902.4
563.5100, 230560.7
563.9921, 230306.8
564.4742, 230044.0
564.9564, 229770.7
565.4385, 229482.2
565.9206, 229163.2
566.4027, 228803.6
566.8848, 228463.7
567.3669, 228170.5
567.8491, 227904.3
568.3312, 227615.8
568.8133, 227306.8
569.2954, 226987.3
569.7775, 226679.0
570.2596, 226364.5
570.7418, 226022.6
571.2239, 225650.7
571.7060, 225242.7
572.1881, 224739.5
572.6702, 224224.2
573.1523, 223793.7
573.6345, 223550.9
574.1166, 223262.2
574.5987, 222793.1
575.0808, 222236.0
575.5629, 221734.8
576.0450, 221377.5
576.5272, 221018.0
577.0093, 220641.9
577.4914, 220248.8
577.9735, 219809.5
578.4556, 219290.4
578.9377, 218806.0
579.4199, 218419.3
579.9020, 218138.8
580.3841, 217858.0
580.8662, 217586.1
581.3483, 217283.3
581.8304, 216876.5
582.3126, 216404.7
582.7947, 216011.0
583.2768, 215742.4
583.7589, 215495.8
584.2410, 215132.6
584.7231, 214710.8
585.2053, 214346.0
585.6874, 214088.5
586.1696, 213892.3
586.6517, 213806.7
587.1338, 213779.3
587.6159, 213596.1
588.0980, 213059.5
588.5801, 212473.2
589.0623, 211958.0
589.5444, 211522.2
590.0265, 211107.6
590.5086, 210739.4
590.9907, 210363.7
591.4728, 209938.0
591.9550, 209464.0
592.4371, 208971.7
592.9192, 208463.8
593.4013, 207963.8
593.8834, 207526.6
594.3655, 207142.5
594.8477, 206727.4
595.3298, 206242.2
595.8119, 205740.5
596.2940, 205283.7
596.7761, 204872.6
597.2582, 204495.0
597.7404, 204149.9
598.2225, 203828.0
598.7046, 203536.5
599.1867, 203272.8
599.6688, 202968.3
600.1509, 202600.8
600.6331, 202177.4
601.1152, 201695.4
601.5973, 201102.8
602.0794, 200566.3
602.5615, 200123.6
603.0436, 199705.2
603.5258, 199237.1
604.0079, 198713.2
604.4900, 198195.0
604.9721, 197706.2
605.4542, 197224.8
605.9363, 196687.2
606.4185, 196110.0
606.9006, 195578.4
607.3827, 195187.5
607.8648, 194843.7
608.3469, 194404.6
608.8290, 193885.4
609.3112, 193395.2
609.7933, 193032.8
610.2754, 192692.8
610.7575, 192272.5
611.2396, 191752.7
611.7217, 191265.5
612.2039, 190872.8
612.6860, 190512.3
613.1681, 190129.9
613.6502, 189699.6
614.1323, 189293.0
614.6144, 188937.8
615.0966, 188584.4
615.5787, 188128.3
616.0608, 187546.6
616.5429, 187032.4
617.0250, 186652.7
617.5071, 186345.7
617.9893, 185996.8
618.4714, 185605.8
618.9535, 185176.0
619.4356, 184662.1
619.9177, 184130.7
620.3998, 183669.7
620.8820, 183274.9
621.3641, 182892.3
621.8462, 182497.9
622.3283, 182092.2
622.8104, 181671.9
623.2925, 181222.4
623.7747, 180798.1
624.2568, 180422.2
624.7389, 180062.8
625.2210, 179694.7
625.7031, 179310.9
626.1852, 178929.5
626.6674, 178565.8
627.1495, 178191.9
627.6316, 177750.0
628.1137, 177236.8
628.5958, 176746.8
629.0779, 176314.0
629.5601, 175915.2
630.0422, 175522.7
630.5243, 175133.5
631.0064, 174709.0
631.4885, 174178.8
631.9706, 173641.0
632.4528, 173203.9
632.9349, 172865.6
633.4170, 172513.6
633.8991, 172074.5
634.3812, 171628.0
634.8633, 171217.1
635.3455, 170860.5
635.8276, 170511.5
636.3097, 170182.7
636.7918, 169847.5
637.2739, 169467.9
637.7560, 169015.8
638.2382, 168645.8
638.7203, 168393.3
639.2024, 168179.5
639.6845, 167870.6
640.1666, 167475.8
640.6487, 167105.8
641.1309, 166808.5
641.6130, 166517.5
642.0951, 166148.9
642.5772, 165714.0
643.0594, 165263.0
643.5415, 164799.1
644.0236, 164340.4
644.5057, 163903.1
644.9879, 163483.1
645.4700, 163047.9
645.9521, 162580.8
646.4342, 162106.4
646.9163, 161643.1
647.3984, 161198.8
647.8806, 160710.1
648.3627, 160162.8
648.8448, 159602.0
649.3269, 159039.4
649.8090, 158477.6
650.2911, 158002.4
650.7733, 157624.2
651.2554, 157291.2
651.7375, 156921.5
652.2196, 156544.1
652.7017, 156231.9
653.1838, 156030.8
653.6660, 155844.6
654.1481, 155596.3
654.6302, 155309.0
655.1123, 155021.1
655.5944, 154753.5
656.0765, 154474.9
656.5587, 154154.6
657.0408, 153806.7
657.5229, 153498.0
658.0050, 153251.4
658.4871, 153009.6
658.9692, 152762.8
659.4514, 152506.8
659.9335, 152190.5
660.4156, 151809.9
660.8977, 151415.7
661.3798, 151048.3
661.8619, 150701.0
662.3441, 150342.5
662.8262, 149971.9
663.3083, 149606.7
663.7904, 149270.9
664.2725, 148945.3
664.7546, 148610.6
665.2368, 148266.6
665.7189, 147907.9
666.2010, 147504.8
666.6831, 147099.1
667.1652, 146740.9
667.6473, 146466.9
668.1295, 146183.2
668.6116, 145874.8
669.0937, 145558.0
669.5758, 145280.5
670.0579, 145048.9
670.5400, 144773.3
671.0222, 144405.6
671.5043, 143997.7
671.9864, 143636.0
672.4685, 143319.3
672.9506, 143047.9
673.4327, 142882.7
673.9149, 142718.6
674.3970, 142440.7
674.8791, 142060.1
675.3612, 141691.9
675.8433, 141396.9
676.3254, 141108.2
676.8076, 140795.6
677.2897, 140458.0
677.7718, 140105.9
678.2539, 139734.3
678.7360, 139367.2
679.2181, 139022.1
679.7003, 138705.5
680.1824, 138396.2
680.6645, 138096.4
681.1466, 137806.5
681.6287, 137541.2
682.1108, 137284.2
682.5930, 136994.4
683.0751, 136652.2
683.5572, 136299.7
684.0393, 135957.0
684.5214, 135624.0
685.0035, 135299.2
685.4857, 134991.7
685.9678, 134676.9
686.4499, 134338.6
686.9320, 133991.8
687.4141, 133666.0
687.8962, 133375.3
688.3784, 133085.3
688.8605, 132794.0
689.3426, 132497.5
689.8247, 132185.3
690.3068, 131856.5
690.7889, 131498.1
691.2711, 131089.3
691.7532, 130653.1
692.2353, 130249.1
692.7174, 129873.8
693.1995, 129482.0
693.6816, 129028.8
694.1638, 128562.4
694.6459, 128114.7
695.1280, 127688.3
695.6101, 127303.3
696.0922, 126986.7
696.5743, 126698.5
697.0565, 126424.4
697.5386, 126178.6
698.0207, 125870.5
698.5028, 125467.0
698.9849, 125074.7
699.4670, 124821.9
699.9492, 124690.7
700.4313, 124487.8
700.9135, 124185.5
701.3956, 123848.6
701.8777, 123534.8
702.3598, 123235.4
702.8419, 122934.1
703.3240, 122613.7
703.8062, 122308.4
704.2883, 122047.0
704.7704, 121807.2
705.2525, 121562.9
705.7346, 121322.3
706.2167, 121056.9
706.6989, 120756.6
707.1810, 120435.9
707.6631, 120127.6
708.1452, 119844.3
708.6273, 119542.9
709.1094, 119204.7
709.5916, 118851.3
710.0737, 118526.7
710.5558, 118231.9
711.0379, 117954.0
711.5200, 117705.6
712.0021, 117456.7
712.4843, 117157.1
712.9664, 116818.6
713.4485, 116508.8
713.9306, 116289.5
714.4127, 116071.2
714.8948, 115808.3
715.3770, 115496.4
715.8591, 115213.3
716.3412, 114981.9
716.8233, 114735.4
717.3054, 114427.3
717.7875, 114059.5
718.2697, 113739.4
718.7518, 113468.5
719.2339, 113202.4
719.7160, 112900.8
720.1981, 112581.1
720.6802, 112263.7
721.1624, 111953.8
721.6445, 111651.4
722.1266, 111346.5
722.6087, 111057.8
723.0908, 110809.7
723.5729, 110656.1
724.0551, 110442.8
724.5372, 110126.1
725.0193, 109784.8
725.5014, 109506.5
725.9835, 109304.3
726.4656, 109082.2
726.9478, 108818.6
727.4299, 108556.8
727.9120, 108385.6
728.3941, 108269.5
728.8762, 108100.0
729.3583, 107832.4
729.8405, 107533.1
730.3226, 107229.5
730.8047, 106935.4
731.2868, 106683.9
731.7689, 106523.4
732.2510, 106356.6
732.7332, 106156.6
733.2153, 105937.9
733.6974, 105726.9
734.1795, 105530.5
734.6616, 105327.2
735.1437, 105117.4
735.6259, 104894.9
736.1080, 104626.8
736.5901, 104320.9
737.0722, 104050.7
737.5543, 103873.4
738.0364, 103731.6
738.5186, 103560.2
739.0007, 103367.3
739.4828, 103177.2
739.9649, 103058.0
740.4470, 102889.4
740.9291, 102570.5
741.4113, 102119.3
741.8934, 101793.2
742.3755, 101663.5
742.8576, 101530.3
743.3397, 101298.5
743.8218, 100986.9
744.3040, 100756.1
744.7861, 100610.8
745.2682, 100463.9
745.7503, 100253.9
746.2324, 100003.9
746.7145, 99745.08
747.1967, 99478.67
747.6788, 99233.17
748.1609, 99044.43
748.6430, 98865.83
749.1251, 98663.48
749.6072, 98427.77
750.0894, 98196.80
750.5715, 97962.15
751.0536, 97747.14
751.5357, 97586.98
752.0178, 97491.23
752.4999, 97306.13
752.9821, 97018.87
753.4642, 96721.64
753.9463, 96508.38
754.4284, 96348.39
754.9105, 96179.64
755.3926, 95990.77
755.8748, 95807.89
756.3569, 95648.27
756.8390, 95498.32
757.3211, 95345.56
757.8032, 95198.02
758.2853, 95020.93
758.7675, 94789.34
759.2496, 94551.89
759.7318, 94358.83
760.2139, 94222.77
760.6960, 94040.39
761.1781, 93792.63
761.6602, 93544.13
762.1423, 93391.89
762.6245, 93299.77
763.1066, 93180.14
763.5887, 93013.91
764.0708, 92822.11
764.5529, 92590.25
765.0350, 92355.13
765.5172, 92160.05
765.9993, 92061.64
766.4814, 91938.13
766.9635, 91769.20
767.4456, 91580.41
767.9277, 91410.22
768.4099, 91262.84
768.8920, 91081.00
769.3741, 90842.41
769.8562, 90595.02
770.3383, 90413.27
770.8204, 90277.65
771.3026, 90136.06
771.7847, 89972.50
772.2668, 89800.67
772.7489, 89631.17
773.2310, 89460.45
773.7131, 89284.86
774.1953, 89103.17
774.6774, 88919.21
775.1595, 88733.22
775.6416, 88547.54
776.1237, 88363.93
776.6058, 88181.27
777.0880, 88008.20
777.5701, 87848.01
778.0522, 87697.83
778.5343, 87551.66
779.0164, 87411.40
779.4985, 87285.47
779.9807, 87202.92
780.4628, 87103.66
780.9449, 86931.84
781.4270, 86718.67
781.9091, 86525.72
782.3912, 86395.39
782.8734, 86250.39
783.3555, 86076.16
783.8376, 85883.10
784.3197, 85697.67
784.8018, 85518.96
785.2839, 85351.58
785.7661, 85208.44
786.2482, 85062.17
786.7303, 84853.86
787.2124, 84604.55
787.6945, 84368.35
788.1766, 84170.25
788.6588, 83992.25
789.1409, 83824.15
789.6230, 83666.59
790.1051, 83517.30
790.5872, 83382.83
791.0693, 83247.36
791.5515, 83107.39
792.0336, 82966.13
792.5157, 82842.59
792.9978, 82737.28
793.4799, 82614.32
793.9620, 82449.73
794.4442, 82271.84
794.9263, 82115.98
795.4084, 81978.83
795.8905, 81849.19
796.3726, 81721.76
796.8547, 81600.23
797.3369, 81478.70
797.8190, 81362.36
798.3011, 81268.14
798.7832, 81206.48
799.2653, 81141.43
799.7474, 81064.41
800.2296, 80976.57
800.7117, 80883.29
801.1938, 80783.95
801.6759, 80673.44
802.1580, 80548.85
802.6401, 80413.89
803.1223, 80267.38
803.6044, 80115.61
804.0865, 79976.47
804.5686, 79859.58
805.0507, 79754.60
805.5328, 79666.42
806.0150, 79588.40
806.4971, 79496.27
806.9792, 79376.42
807.4613, 79291.30
807.9434, 79269.66
808.4255, 79280.01
808.9077, 79252.80
809.3898, 79191.99
809.8719, 79116.95
810.3540, 79019.18
810.8361, 78926.37
811.3182, 78853.15
811.8004, 78801.25
812.2825, 78774.05
812.7646, 78797.70
813.2467, 78815.46
813.7288, 78821.35
814.2109, 78813.47
814.6931, 78782.14
815.1752, 78724.73
815.6573, 78675.68
816.1394, 78648.23
816.6215, 78630.13
817.1037, 78599.64
817.5858, 78561.73
818.0679, 78528.09
818.5500, 78503.20
819.0322, 78483.37
819.5143, 78459.02
819.9964, 78438.45
820.4785, 78443.07
820.9606, 78494.33
821.4427, 78527.08
821.9249, 78526.88
822.4070, 78506.32
822.8891, 78480.78
823.3712, 78453.34
823.8533, 78457.05
824.3354, 78500.44
824.8176, 78582.93
825.2997, 78714.20
825.7818, 78883.03
826.2639, 79066.67
826.7460, 79253.98
827.2281, 79463.96
827.7103, 79684.84
828.1924, 79941.98
828.6745, 80283.88
829.1566, 80727.42
829.6387, 81174.52
830.1208, 81604.23
830.6030, 82038.16
831.0851, 82512.71
831.5672, 83005.98
832.0493, 83471.21
832.5314, 83910.15
833.0135, 84264.84
833.4957, 84478.43
833.9778, 84587.29
834.4599, 84636.30
834.9420, 84696.70
835.4241, 84595.91
835.9063, 84317.06
836.3884, 83900.52
836.8705, 83392.73
837.3526, 82794.27
837.8347, 82091.89
838.3168, 81265.98
838.7990, 80386.39
839.2811, 79508.30
839.7632, 78614.59
840.2453, 77674.52
840.7274, 76649.51
841.2095, 75656.32
841.6917, 74703.85
842.1738, 73821.69
842.6559, 73019.88
843.1380, 72302.95
843.6201, 71646.67
844.1022, 71047.78
844.5844, 70521.03
845.0665, 70103.25
845.5486, 69765.63
846.0307, 69436.55
846.5128, 69108.05
846.9949, 68799.34
847.4771, 68520.34
847.9592, 68269.30
848.4413, 68049.29
848.9234, 67866.55
849.4055, 67682.70
849.8876, 67485.63
850.3698, 67306.22
850.8519, 67170.42
851.3340, 67073.30
851.8161, 66967.27
852.2982, 66851.70
852.7803, 66729.11
853.2625, 66593.52
853.7446, 66456.52
854.2267, 66325.33
854.7088, 66200.68
855.1909, 66084.30
855.6730, 65989.58
856.1552, 65892.89
856.6373, 65789.63
857.1194, 65679.21
857.6015, 65539.41
858.0836, 65361.76
858.5657, 65217.04
859.0479, 65160.24
859.5300, 65141.61
860.0121, 65063.44
860.4942, 64939.52
860.9763, 64817.23
861.4584, 64710.86
861.9406, 64624.33
862.4227, 64573.79
862.9048, 64546.38
863.3869, 64500.24
863.8690, 64431.98
864.3511, 64347.94
864.8333, 64238.41
865.3154, 64125.79
865.7975, 64065.31
866.2796, 64043.40
866.7617, 64000.01
867.2438, 63902.84
867.7260, 63794.74
868.2081, 63692.77
868.6902, 63604.24
869.1723, 63538.47
869.6544, 63535.34
870.1365, 63499.56
870.6187, 63420.18
871.1008, 63313.86
871.5829, 63193.67
872.0650, 63061.93
872.5471, 62966.95
873.0292, 62923.88
873.5114, 62879.59
873.9935, 62769.73
874.4756, 62630.89
874.9577, 62510.73
875.4399, 62423.93
875.9220, 62335.38
876.4041, 62236.14
876.8862, 62133.51
877.3683, 62031.06
877.8505, 61927.72
878.3326, 61829.61
878.8147, 61737.30
879.2968, 61643.60
879.7789, 61528.98
880.2610, 61415.68
880.7432, 61357.14
881.2253, 61352.84
881.7074, 61309.64
882.1895, 61137.91
882.6716, 60957.45
883.1537, 60845.45
883.6359, 60797.70
884.1180, 60697.26
884.6001, 60531.34
885.0822, 60367.02
885.5643, 60237.87
886.0464, 60132.41
886.5286, 60025.57
887.0107, 59918.09
887.4928, 59811.44
887.9749, 59708.06
888.4570, 59606.69
888.9391, 59517.05
889.4213, 59428.93
889.9034, 59307.81
890.3855, 59131.59
890.8676, 58978.25
891.3497, 58870.18
891.8318, 58782.29
892.3140, 58658.59
892.7961, 58508.55
893.2782, 58368.57
893.7603, 58250.09
894.2424, 58145.97
894.7245, 58064.49
895.2067, 57990.15
895.6888, 57902.68
896.1709, 57783.46
896.6530, 57677.95
897.1351, 57592.42
897.6172, 57512.09
898.0994, 57422.52
898.5815, 57324.92
899.0636, 57228.89
899.5457, 57136.51
900.0278, 57049.03
900.5099, 56975.63
900.9921, 56901.97
901.4742, 56806.73
901.9563, 56682.80
902.4384, 56587.33
902.9205, 56547.85
903.4026, 56507.59
903.8848, 56433.07
904.3669, 56331.59
904.8490, 56269.47
905.3311, 56244.95
905.8132, 56210.09
906.2953, 56117.36
906.7775, 56013.51
907.2596, 55947.58
907.7417, 55910.29
908.2238, 55866.02
908.7059, 55790.30
909.1880, 55727.35
909.6702, 55698.87
910.1523, 55681.24
910.6344, 55604.15
911.1165, 55469.75
911.5986, 55375.00
912.0807, 55359.01
912.5629, 55362.01
913.0450, 55317.77
913.5271, 55247.32
914.0092, 55179.83
914.4913, 55117.48
914.9734, 55072.66
915.4556, 55064.66
915.9377, 55057.49
916.4198, 55012.42
916.9019, 54925.87
917.3840, 54869.20
917.8661, 54849.24
918.3483, 54826.73
918.8304, 54746.14
919.3125, 54653.10
919.7946, 54616.14
920.2767, 54643.10
920.7589, 54642.00
921.2410, 54556.57
921.7231, 54466.49
922.2052, 54398.43
922.6873, 54351.94
923.1694, 54331.26
923.6516, 54337.24
924.1337, 54334.05
924.6158, 54300.04
925.0979, 54249.38
925.5800, 54198.09
926.0621, 54145.55
926.5443, 54089.94
927.0264, 54014.39
927.5085, 53957.58
927.9906, 53939.72
928.4727, 53934.89
928.9548, 53900.13
929.4370, 53835.25
929.9191, 53761.20
930.4012, 53680.25
930.8833, 53601.76
931.3654, 53536.06
931.8475, 53479.80
932.3297, 53427.29
932.8118, 53377.53
933.2939, 53331.01
933.7761, 53302.26
934.2582, 53260.16
934.7403, 53179.21
935.2224, 53056.82
935.7045, 52964.61
936.1866, 52902.49
936.6688, 52846.71
937.1509, 52788.89
937.6330, 52723.04
938.1151, 52637.10
938.5972, 52535.38
939.0793, 52441.83
939.5615, 52378.98
940.0436, 52306.02
940.5257, 52207.36
941.0078, 52097.17
941.4899, 52019.07
941.9720, 51972.04
942.4542, 51924.38
942.9363, 51865.34
943.4184, 51804.20
943.9005, 51740.98
944.3826, 51685.14
944.8647, 51650.41
945.3469, 51662.11
945.8290, 51650.73
946.3111, 51605.47
946.7932, 51542.59
947.2753, 51473.08
947.7574, 51396.46
948.2396, 51320.20
948.7217, 51244.44
949.2038, 51177.13
949.6859, 51137.49
950.1680, 51100.38
950.6501, 51033.75
951.1323, 50939.79
951.6144, 50880.01
952.0965, 50889.97
952.5786, 50886.15
953.0607, 50839.32
953.5428, 50763.87
954.0250, 50700.94
954.5071, 50648.59
954.9892, 50596.34
955.4713, 50537.33
955.9534, 50481.96
956.4355, 50443.50
956.9177, 50411.45
957.3998, 50369.80
957.8819, 50308.52
958.3640, 50252.66
958.8461, 50202.71
959.3282, 50158.98
959.8104, 50129.48
960.2925, 50107.63
960.7746, 50063.71
961.2567, 49995.61
961.7388, 49941.49
962.2209, 49942.70
962.7031, 49951.25
963.1852, 49923.21
963.6673, 49934.65
964.1494, 49854.50
964.6315, 49925.11
965.1136, 49971.08
965.5958, 49946.48
966.0779, 49880.77
966.5600, 49816.21
967.0421, 49760.98
967.5242, 49740.98
968.0063, 49801.20
968.4885, 49849.87
968.9706, 49844.38
969.4527, 49813.72
969.9348, 49793.48
970.4169, 49787.51
970.8990, 49768.74
971.3812, 49730.23
971.8633, 49709.70
972.3454, 49764.76
972.8275, 49851.98
973.3096, 49906.20
973.7917, 49921.13
974.2739, 49936.07
974.7560, 49946.01
975.2381, 49979.71
975.7202, 50050.79
976.2023, 50154.04
976.6844, 50269.29
977.1666, 50397.45
977.6487, 50519.68
978.1308, 50620.80
978.6129, 50723.56
979.0950, 50859.45
979.5771, 51012.77
980.0593, 51158.14
980.5414, 51280.39
981.0235, 51405.79
981.5056, 51530.34
981.9877, 51667.23
982.4698, 51842.49
982.9520, 52046.95
983.4341, 52218.55
983.9162, 52353.40
984.3983, 52490.89
984.8804, 52673.34
985.3625, 52857.41
985.8447, 53010.16
986.3268, 53130.43
986.8089, 53245.56
987.2910, 53364.32
987.7731, 53455.02
988.2552, 53507.20
988.7374, 53526.99
989.2195, 53528.54
989.7016, 53507.93
990.1837, 53453.07
990.6658, 53354.77
991.1479, 53232.47
991.6301, 53093.29
992.1122, 52932.73
992.5944, 52740.49
993.0765, 52508.68
993.5586, 52305.81
994.0407, 52134.11
994.5228, 51975.77
995.0049, 51801.98
995.4871, 51641.33
995.9692, 51533.20
996.4513, 51474.20
996.9334, 51432.21
997.4155, 51392.29
997.8976, 51375.23
998.3798, 51383.58
998.8619, 51419.18
999.3440, 51487.27
999.8261, 51587.79
1000.308, 51721.63
1000.790, 51898.39
1001.272, 52075.93
1001.755, 52197.97
1002.237, 52315.79
1002.719, 52486.31
1003.201, 52737.81
1003.683, 52982.32
1004.165, 53223.89
1004.647, 53455.64
1005.129, 53677.27
1005.612, 53889.46
1006.094, 54095.90
1006.576, 54297.86
1007.058, 54508.51
1007.540, 54765.06
1008.022, 54995.40
1008.504, 55165.86
1008.986, 55295.51
1009.468, 55418.04
1009.951, 55535.04
1010.433, 55624.73
1010.915, 55683.33
1011.397, 55717.41
1011.879, 55730.29
1012.361, 55724.38
1012.843, 55703.04
1013.325, 55666.77
1013.807, 55609.13
1014.290, 55529.72
1014.772, 55428.88
1015.254, 55307.40
1015.736, 55165.21
1016.218, 54993.70
1016.700, 54795.47
1017.182, 54585.16
1017.664, 54360.10
1018.147, 54134.54
1018.629, 53921.81
1019.111, 53713.23
1019.593, 53490.17
1020.075, 53244.65
1020.557, 53013.46
1021.039, 52804.39
1021.521, 52585.24
1022.003, 52301.80
1022.486, 51996.06
1022.968, 51754.99
1023.450, 51576.79
1023.932, 51394.29
1024.414, 51153.39
1024.896, 50938.17
1025.378, 50778.54
1025.860, 50660.77
1026.343, 50544.07
1026.825, 50431.43
1027.307, 50346.09
1027.789, 50305.80
1028.271, 50257.80
1028.753, 50133.95
1029.235, 49987.52
1029.717, 49882.05
1030.199, 49839.98
1030.682, 49782.33
1031.164, 49699.10
1031.646, 49626.86
1032.128, 49597.10
1032.610, 49590.98
1033.092, 49553.42
1033.574, 49495.02
1034.056, 49455.84
1034.539, 49494.27
1035.021, 49505.08
1035.503, 49432.17
1035.985, 49328.99
1036.467, 49267.70
1036.949, 49249.95
1037.431, 49220.45
1037.913, 49173.24
1038.396, 49114.38
1038.878, 49034.70
1039.360, 48956.00
1039.842, 48897.98
1040.324, 48863.16
1040.806, 48839.46
1041.288, 48837.56
1041.770, 48816.57
1042.252, 48754.07
1042.734, 48677.08
1043.217, 48645.59
1043.699, 48644.29
1044.181, 48631.72
1044.663, 48589.79
1045.145, 48547.76
1045.627, 48524.29
1046.109, 48498.04
1046.591, 48446.15
1047.074, 48366.02
1047.556, 48336.05
1048.038, 48356.25
1048.520, 48377.40
1049.002, 48364.39
1049.484, 48340.30
1049.966, 48329.13
1050.448, 48322.87
1050.931, 48295.05
1051.413, 48220.33
1051.895, 48178.04
1052.377, 48184.05
1052.859, 48206.88
1053.341, 48214.30
1053.823, 48207.77
1054.305, 48183.10
1054.787, 48139.74
1055.270, 48113.57
1055.752, 48137.04
1056.234, 48163.70
1056.716, 48174.77
1057.198, 48172.75
1057.680, 48167.48
1058.162, 48158.55
1058.644, 48139.88
1059.126, 48103.71
1059.609, 48071.14
1060.091, 48066.59
1060.573, 48073.14
1061.055, 48071.80
1061.537, 48058.37
1062.019, 48046.79
1062.501, 48037.11
1062.983, 48031.37
1063.466, 48040.17
1063.948, 48049.94
1064.430, 48024.32
1064.912, 47977.21
1065.394, 47949.13
1065.876, 47982.30
1066.358, 48000.21
1066.840, 47983.35
1067.323, 47954.48
1067.805, 47933.19
1068.287, 47921.93
1068.769, 47948.51
1069.251, 48014.25
1069.733, 48080.67
1070.215, 48135.48
1070.697, 48166.55
1071.179, 48145.99
1071.661, 48090.57
1072.144, 48075.09
1072.626, 48106.34
1073.108, 48131.09
1073.590, 48135.47
1074.072, 48130.13
1074.554, 48125.32
1075.036, 48121.25
1075.518, 48117.81
1076.001, 48115.36
1076.483, 48118.23
1076.965, 48132.45
1077.447, 48143.00
1077.929, 48142.70
1078.411, 48133.19
1078.893, 48106.40
1079.375, 48072.65
1079.858, 48066.88
1080.340, 48129.02
1080.822, 48182.65
1081.304, 48187.10
1081.786, 48179.98
1082.268, 48199.69
1082.750, 48246.65
1083.232, 48254.38
1083.714, 48221.84
1084.197, 48198.26
1084.679, 48232.00
1085.161, 48277.04
1085.643, 48307.19
1086.125, 48320.13
1086.607, 48312.22
1087.089, 48274.23
1087.571, 48254.10
1088.054, 48261.48
1088.536, 48280.01
1089.018, 48297.57
1089.500, 48309.94
1089.982, 48303.23
1090.464, 48275.28
1090.946, 48271.16
1091.428, 48312.87
1091.911, 48355.55
1092.393, 48383.84
1092.875, 48405.32
1093.357, 48446.09
1093.839, 48495.85
1094.321, 48520.43
1094.803, 48501.45
1095.285, 48486.15
1095.767, 48500.23
1096.250, 48523.66
1096.732, 48541.11
1097.214, 48553.88
1097.696, 48587.80
1098.178, 48642.40
1098.660, 48700.34
1099.142, 48749.30
1099.624, 48803.20
1100.106, 48890.48
1100.589, 48982.72
1101.071, 49031.98
1101.553, 49018.50
1102.035, 49025.32
1102.517, 49054.89
1102.999, 49100.63
1103.481, 49166.81
1103.963, 49238.92
1104.446, 49289.96
1104.928, 49326.79
1105.410, 49383.67
1105.892, 49504.54
1106.374, 49576.45
1106.856, 49568.51
1107.338, 49536.00
1107.820, 49550.81
1108.302, 49600.34
1108.785, 49662.47
1109.267, 49734.13
1109.749, 49791.80
1110.231, 49806.43
1110.713, 49829.74
1111.195, 49889.06
1111.677, 49965.88
1112.159, 50005.85
1112.641, 50014.77
1113.124, 50027.29
1113.606, 50054.31
1114.088, 50079.66
1114.570, 50088.81
1115.052, 50095.55
1115.534, 50108.87
1116.016, 50128.99
1116.498, 50164.58
1116.981, 50216.55
1117.463, 50262.38
1117.945, 50290.04
1118.427, 50310.25
1118.909, 50322.21
1119.391, 50337.87
1119.873, 50377.85
1120.355, 50458.74
1120.838, 50513.38
1121.320, 50535.97
1121.802, 50554.99
1122.284, 50606.07
1122.766, 50655.41
1123.248, 50632.07
1123.730, 50565.61
1124.212, 50535.85
1124.694, 50604.07
1125.177, 50654.66
1125.659, 50670.23
1126.141, 50686.73
1126.623, 50751.14
1127.105, 50844.46
1127.587, 50919.70
1128.069, 50974.85
1128.551, 51015.32
1129.033, 51028.92
1129.516, 51045.60
1129.998, 51078.19
1130.480, 51112.31
1130.962, 51116.36
1131.444, 51098.41
1131.926, 51105.59
1132.408, 51145.31
1132.890, 51187.88
1133.373, 51210.29
1133.855, 51236.38
1134.337, 51292.22
1134.819, 51361.38
1135.301, 51375.66
1135.783, 51337.73
1136.265, 51308.75
1136.747, 51303.24
1137.229, 51317.11
1137.712, 51361.74
1138.194, 51413.04
1138.676, 51450.85
1139.158, 51474.74
1139.640, 51479.94
1140.122, 51462.52
1140.604, 51462.62
1141.086, 51500.41
1141.569, 51555.56
1142.051, 51620.88
1142.533, 51682.63
1143.015, 51720.32
1143.497, 51719.85
1143.979, 51733.34
1144.461, 51763.04
1144.943, 51795.98
1145.426, 51817.68
1145.908, 51841.97
1146.390, 51901.98
1146.872, 51978.90
1147.354, 52034.65
1147.836, 52033.62
1148.318, 52049.25
1148.800, 52091.89
1149.282, 52131.30
1149.765, 52139.86
1150.247, 52127.91
1150.729, 52107.04
1151.211, 52085.05
1151.693, 52089.36
1152.175, 52155.53
1152.657, 52217.41
1153.139, 52266.82
1153.621, 52305.32
1154.104, 52326.20
1154.586, 52338.22
1155.068, 52371.36
1155.550, 52426.86
1156.032, 52490.41
1156.514, 52566.06
1156.996, 52634.59
1157.478, 52687.56
1157.961, 52732.51
1158.443, 52777.14
1158.925, 52824.38
1159.407, 52896.69
1159.889, 52997.16
1160.371, 53095.79
1160.853, 53172.46
1161.335, 53243.39
1161.818, 53317.33
1162.300, 53391.61
1162.782, 53454.89
1163.264, 53508.45
1163.746, 53576.87
1164.228, 53669.21
1164.710, 53755.58
1165.192, 53810.94
1165.674, 53855.39
1166.156, 53903.43
1166.639, 53954.63
1167.121, 53998.59
1167.603, 54035.66
1168.085, 54077.36
1168.567, 54132.94
1169.049, 54180.09
1169.531, 54172.10
1170.013, 54165.15
1170.496, 54231.16
1170.978, 54371.48
1171.460, 54451.50
1171.942, 54467.48
1172.424, 54488.46
1172.906, 54545.70
1173.388, 54617.66
1173.870, 54689.54
1174.353, 54758.88
1174.835, 54821.54
1175.317, 54877.15
1175.799, 54935.24
1176.281, 54998.12
1176.763, 55051.60
1177.245, 55077.42
1177.727, 55102.84
1178.209, 55171.02
1178.692, 55256.64
1179.174, 55312.67
1179.656, 55303.91
1180.138, 55355.31
1180.620, 55479.28
1181.102, 55599.62
1181.584, 55656.57
1182.066, 55681.96
1182.548, 55697.36
1183.031, 55715.61
1183.513, 55769.03
1183.995, 55879.13
1184.477, 55987.43
1184.959, 56097.10
1185.441, 56188.41
1185.923, 56226.10
1186.405, 56246.99
1186.888, 56306.18
1187.370, 56394.38
1187.852, 56471.82
1188.334, 56533.70
1188.816, 56573.04
1189.298, 56576.95
1189.780, 56596.65
1190.262, 56696.78
1190.745, 56839.54
1191.227, 56984.07
1191.709, 57120.73
1192.191, 57218.10
1192.673, 57250.48
1193.155, 57278.82
1193.637, 57308.53
1194.119, 57345.20
1194.601, 57393.96
1195.084, 57455.83
1195.566, 57534.23
1196.048, 57629.03
1196.530, 57732.44
1197.012, 57861.02
1197.494, 57960.82
1197.976, 58014.78
1198.458, 58052.14
1198.941, 58118.46
1199.423, 58193.73
1199.905, 58234.28
1200.387, 58237.08
1200.869, 58266.34
1201.351, 58350.61
1201.833, 58427.14
1202.315, 58479.20
1202.797, 58520.58
1203.280, 58563.95
1203.762, 58615.86
1204.244, 58696.42
1204.726, 58810.45
1205.208, 58901.84
1205.690, 58950.08
1206.172, 59000.32
1206.654, 59065.73
1207.136, 59142.37
1207.619, 59220.06
1208.101, 59304.80
1208.583, 59413.97
1209.065, 59555.77
1209.547, 59673.98
1210.029, 59742.44
1210.511, 59828.64
1210.993, 59965.04
1211.476, 60119.98
1211.958, 60238.68
1212.440, 60336.21
1212.922, 60439.84
1213.404, 60560.71
1213.886, 60659.23
1214.368, 60724.64
1214.850, 60786.57
1215.333, 60854.50
1215.815, 60931.13
1216.297, 61041.02
1216.779, 61158.10
1217.261, 61226.46
1217.743, 61211.05
1218.225, 61250.19
1218.707, 61371.76
1219.189, 61496.69
1219.672, 61583.12
1220.154, 61658.57
1220.636, 61786.81
1221.118, 61937.59
1221.600, 62054.28
1222.082, 62104.74
1222.564, 62174.56
1223.046, 62264.30
1223.528, 62381.34
1224.011, 62542.79
1224.493, 62717.86
1224.975, 62861.32
1225.457, 62977.90
1225.939, 63074.17
1226.421, 63130.84
1226.903, 63232.56
1227.385, 63395.05
1227.868, 63547.33
1228.350, 63638.36
1228.832, 63709.24
1229.314, 63818.76
1229.796, 63952.88
1230.278, 64090.11
1230.760, 64237.09
1231.242, 64352.57
1231.724, 64431.65
1232.207, 64504.89
1232.689, 64593.99
1233.171, 64683.24
1233.653, 64745.24
1234.135, 64797.18
1234.617, 64873.59
1235.099, 64999.01
1235.581, 65072.73
1236.063, 65084.23
1236.546, 65120.87
1237.028, 65281.52
1237.510, 65447.61
1237.992, 65453.24
1238.474, 65395.61
1238.956, 65447.43
1239.438, 65658.33
1239.920, 65787.30
1240.403, 65825.64
1240.885, 65870.73
1241.367, 65990.05
1241.849, 66133.80
1242.331, 66267.80
1242.813, 66390.95
1243.295, 66500.27
1243.777, 66594.98
1244.260, 66675.83
1244.742, 66743.33
1245.224, 66827.45
1245.706, 66954.55
1246.188, 67098.23
1246.670, 67265.20
1247.152, 67426.51
1247.634, 67536.73
1248.116, 67591.68
1248.599, 67694.51
1249.081, 67842.66
1249.563, 67988.34
1250.045, 68092.58
1250.527, 68197.30
1251.009, 68341.56
1251.491, 68483.87
1251.973, 68570.98
1252.455, 68605.87
1252.938, 68688.16
1253.420, 68813.46
1253.902, 68944.87
1254.384, 69078.17
1254.866, 69192.60
1255.348, 69257.66
1255.830, 69326.71
1256.313, 69451.44
1256.795, 69623.76
1257.277, 69797.84
1257.759, 69972.09
1258.241, 70135.93
1258.723, 70294.81
1259.205, 70426.63
1259.687, 70505.90
1260.169, 70592.79
1260.651, 70756.47
1261.134, 70965.95
1261.616, 71120.42
1262.098, 71230.59
1262.580, 71344.27
1263.062, 71490.51
1263.544, 71619.83
1264.026, 71723.41
1264.508, 71820.52
1264.991, 71923.32
1265.473, 72032.02
1265.955, 72146.93
1266.437, 72269.92
1266.919, 72405.02
1267.401, 72555.83
1267.883, 72724.02
1268.365, 72919.35
1268.848, 73101.80
1269.330, 73224.90
1269.812, 73328.11
1270.294, 73468.95
1270.776, 73629.02
1271.258, 73762.02
1271.740, 73850.98
1272.222, 73958.01
1272.704, 74084.11
1273.187, 74211.89
1273.669, 74313.48
1274.151, 74424.99
1274.633, 74611.19
1275.115, 74696.38
1275.597, 74923.47
1276.079, 74927.98
1276.561, 74992.81
1277.043, 75117.33
1277.526, 75241.95
1278.008, 75327.43
1278.490, 75406.80
1278.972, 75495.45
1279.454, 75591.67
1279.936, 75694.60
1280.418, 75802.86
1280.900, 75919.89
1281.383, 76042.84
1281.865, 76158.40
1282.347, 76237.34
1282.829, 76340.02
1283.311, 76504.64
1283.793, 76675.33
1284.275, 76807.50
1284.757, 76910.21
1285.240, 77021.09
1285.722, 77138.52
1286.204, 77254.58
1286.686, 77366.67
1287.168, 77479.70
1287.650, 77593.80
1288.132, 77710.61
1288.614, 77832.48
1289.096, 77956.23
1289.578, 78069.89
1290.061, 78180.58
1290.543, 78305.41
1291.025, 78470.80
1291.507, 78578.13
1291.989, 78609.96
1292.471, 78659.68
1292.953, 78794.05
1293.435, 78955.45
1293.918, 79081.05
1294.400, 79184.98
1294.882, 79295.56
1295.364, 79421.16
1295.846, 79485.14
1296.328, 79487.69
1296.810, 79528.00
1297.292, 79665.89
1297.775, 79819.28
1298.257, 79959.67
1298.739, 80071.06
1299.221, 80127.64
1299.703, 80137.95
1300.185, 80208.86
1300.667, 80329.11
1301.149, 80419.58
1301.631, 80422.93
1302.114, 80429.03
1302.596, 80557.45
##END=



