##NAMES=Metahewettite
##RRUFFID=R070199
##IDEAL CHEMISTRY=CaV^5+^_6_O_16_&#183;3H_2_O
##LOCALITY=Fish Creek Range, south of Eureka, Eureka County, Nevada, USA
##OWNER=RRUFF
##SOURCE=James Shigley
##DESCRIPTION=Red pulverulent coating
##STATUS=The identification of this mineral is not yet confirmed.
##URL=rruff.info/R070199
151.2007, 0.0000000E+00
151.6828, 22.38428
152.1649, 48.87842
152.6470, 75.21997
153.1292, 98.19507
153.6113, 114.9519
154.0934, 124.0474
154.5755, 128.1089
155.0576, 128.7905
155.5397, 124.2336
156.0219, 120.4021
156.5040, 120.3677
156.9861, 121.8206
157.4682, 121.2524
157.9503, 116.2864
158.4324, 107.5061
158.9146, 99.02832
159.3967, 89.87842
159.8788, 77.77563
160.3609, 56.43848
160.8430, 32.89868
161.3251, 21.18945
161.8073, 26.54248
162.2894, 46.11133
162.7715, 69.94385
163.2536, 95.20068
163.7357, 121.8643
164.2178, 132.6487
164.7000, 117.5771
165.1821, 104.4485
165.6642, 83.69702
166.1463, 63.34814
166.6284, 58.91626
167.1105, 69.50317
167.5927, 76.67407
168.0748, 68.24414
168.5569, 50.72461
169.0390, 41.59839
169.5211, 47.06567
170.0032, 56.36768
170.4854, 59.62256
170.9675, 57.30200
171.4496, 50.64600
171.9317, 37.52002
172.4138, 20.16040
172.8959, 5.593506
173.3781, 4.691406
173.8602, 12.39551
174.3423, 18.59424
174.8244, 23.53345
175.3065, 28.78345
175.7886, 39.22534
176.2708, 51.57544
176.7529, 51.28955
177.2350, 28.04590
177.7171, 4.284424
178.1992, 0.3308110
178.6813, 12.48535
179.1634, 22.35645
179.6456, 18.32153
180.1277, 2.734131
180.6098, 12.89038
181.0919, 25.96143
181.5740, 41.61987
182.0561, 64.54028
182.5383, 93.05029
183.0204, 120.6726
183.5025, 142.6365
183.9846, 160.0310
184.4667, 179.1077
184.9488, 202.2119
185.4310, 223.7532
185.9131, 239.3423
186.3952, 250.5962
186.8773, 262.4697
187.3594, 279.9541
187.8415, 301.3411
188.3237, 317.1575
188.8058, 323.4756
189.2879, 329.1958
189.7700, 339.9434
190.2521, 353.7061
190.7342, 365.9644
191.2164, 372.3469
191.6985, 374.4438
192.1806, 380.8611
192.6627, 395.0830
193.1448, 408.6719
193.6269, 418.1394
194.1091, 424.4067
194.5912, 429.0071
195.0733, 430.8235
195.5554, 431.8186
196.0375, 442.6963
196.5196, 477.8569
197.0018, 499.6936
197.4839, 483.3567
197.9660, 447.3679
198.4481, 422.1465
198.9302, 426.4573
199.4123, 452.0293
199.8945, 471.1511
200.3766, 483.7034
200.8587, 488.9675
201.3408, 480.6196
201.8229, 467.7341
202.3050, 464.3342
202.7872, 480.6406
203.2693, 506.5947
203.7514, 512.2241
204.2335, 484.6709
204.7156, 460.6631
205.1977, 455.9536
205.6799, 458.6643
206.1620, 453.9521
206.6441, 433.8809
207.1262, 407.1667
207.6083, 394.3896
208.0904, 403.3994
208.5726, 409.9585
209.0547, 406.3765
209.5368, 398.3179
210.0189, 390.8381
210.5010, 385.9939
210.9831, 381.3489
211.4653, 371.8215
211.9474, 354.9155
212.4295, 339.6895
212.9116, 326.3491
213.3937, 316.3086
213.8758, 312.6396
214.3580, 316.2876
214.8401, 321.4944
215.3222, 318.5198
215.8043, 303.7092
216.2864, 292.7505
216.7685, 294.0588
217.2507, 296.1594
217.7328, 290.4172
218.2149, 275.3101
218.6970, 257.5610
219.1791, 246.3982
219.6612, 244.0786
220.1434, 237.6335
220.6255, 217.6104
221.1076, 198.6768
221.5897, 190.6631
222.0718, 193.6445
222.5539, 198.2837
223.0361, 193.1450
223.5182, 176.3438
224.0003, 166.2710
224.4824, 173.5122
224.9645, 180.0393
225.4466, 177.4255
225.9288, 166.0156
226.4109, 150.7058
226.8930, 132.9292
227.3751, 112.6914
227.8572, 100.3657
228.3393, 101.1155
228.8215, 104.9004
229.3036, 107.7014
229.7857, 109.7822
230.2678, 112.3887
230.7499, 115.6084
231.2320, 119.5488
231.7142, 126.7234
232.1963, 144.2439
232.6784, 154.7126
233.1605, 148.3313
233.6426, 130.8247
234.1247, 111.8950
234.6069, 95.38574
235.0890, 84.62427
235.5711, 87.10156
236.0532, 107.4866
236.5353, 128.4856
237.0174, 146.0432
237.4996, 160.6240
237.9817, 172.3596
238.4638, 180.4802
238.9459, 185.1125
239.4280, 185.6572
239.9101, 180.2888
240.3923, 176.2871
240.8744, 173.3364
241.3565, 174.1802
241.8386, 182.8706
242.3207, 201.4856
242.8028, 223.8730
243.2850, 241.4421
243.7671, 253.0740
244.2492, 267.4443
244.7313, 293.8105
245.2134, 319.5647
245.6955, 333.9644
246.1777, 335.1179
246.6598, 332.3181
247.1419, 331.7664
247.6240, 333.5273
248.1061, 342.5269
248.5882, 366.1555
249.0704, 391.2639
249.5525, 408.8950
250.0346, 418.8435
250.5167, 423.3313
250.9988, 418.8567
251.4809, 408.5540
251.9631, 408.4485
252.4452, 422.6726
252.9273, 444.3232
253.4094, 472.6121
253.8915, 504.6680
254.3736, 529.0317
254.8558, 533.0962
255.3379, 526.7146
255.8200, 534.2273
256.3021, 561.9851
256.7842, 588.0842
257.2664, 589.8533
257.7485, 578.9617
258.2306, 578.2932
258.7127, 603.7463
259.1948, 637.1392
259.6769, 655.0371
260.1591, 656.3479
260.6412, 653.7920
261.1233, 653.9924
261.6054, 654.8254
262.0875, 651.6182
262.5696, 639.1843
263.0518, 629.1465
263.5339, 636.3459
264.0160, 657.7903
264.4981, 667.2649
264.9802, 646.8943
265.4623, 614.8608
265.9445, 606.5168
266.4266, 630.4688
266.9087, 651.7959
267.3908, 651.0554
267.8729, 634.7661
268.3550, 618.5886
268.8372, 606.4165
269.3193, 597.1841
269.8014, 590.2441
270.2835, 585.7378
270.7656, 581.0320
271.2477, 571.4219
271.7299, 562.8152
272.2120, 565.3701
272.6941, 581.4275
273.1762, 599.3147
273.6583, 606.0542
274.1404, 600.4441
274.6226, 600.1494
275.1047, 610.5789
275.5868, 623.3416
276.0689, 630.9290
276.5510, 633.7322
277.0331, 638.5535
277.5153, 651.7456
277.9974, 672.2288
278.4795, 683.8459
278.9616, 677.2070
279.4437, 672.5500
279.9258, 680.9900
280.4080, 698.0625
280.8901, 712.4688
281.3722, 718.0879
281.8543, 717.8247
282.3364, 721.8108
282.8185, 734.0918
283.3007, 745.3584
283.7828, 754.0776
284.2649, 761.3516
284.7470, 768.4666
285.2291, 775.8577
285.7112, 783.3555
286.1934, 791.0588
286.6755, 802.7610
287.1576, 806.4014
287.6397, 795.1226
288.1218, 781.2874
288.6039, 774.2949
289.0861, 774.6379
289.5682, 776.2463
290.0503, 772.5437
290.5324, 762.3108
291.0145, 754.3281
291.4966, 747.9402
291.9788, 744.2307
292.4609, 749.0400
292.9430, 757.2319
293.4251, 757.0439
293.9072, 739.0996
294.3893, 706.6277
294.8715, 682.0164
295.3536, 669.9351
295.8357, 659.7710
296.3178, 656.1448
296.7999, 652.4741
297.2820, 636.8340
297.7642, 602.4963
298.2463, 561.7297
298.7284, 539.9580
299.2105, 545.5535
299.6926, 548.2163
300.1747, 545.0481
300.6569, 534.2695
301.1390, 510.5779
301.6211, 475.8499
302.1032, 445.9602
302.5853, 442.1670
303.0674, 464.9746
303.5495, 469.9182
304.0316, 436.3464
304.5138, 403.2859
304.9959, 397.3203
305.4780, 413.3167
305.9601, 428.5388
306.4422, 424.3655
306.9243, 408.6943
307.4065, 407.6516
307.8886, 429.3530
308.3707, 446.2366
308.8528, 431.2581
309.3349, 402.8074
309.8170, 387.9893
310.2992, 398.2876
310.7813, 417.2698
311.2634, 427.8577
311.7455, 430.4065
312.2276, 432.6160
312.7097, 437.9644
313.1919, 444.1726
313.6740, 447.7668
314.1561, 448.6697
314.6382, 447.4358
315.1203, 442.9741
315.6024, 436.7007
316.0846, 431.3735
316.5667, 427.5132
317.0488, 425.2034
317.5309, 423.8899
318.0130, 423.1484
318.4951, 428.3743
318.9773, 451.0789
319.4594, 472.8142
319.9415, 471.8269
320.4236, 449.6731
320.9057, 431.3923
321.3878, 437.9424
321.8700, 467.0129
322.3521, 481.3633
322.8342, 472.8640
323.3163, 461.0449
323.7984, 450.5681
324.2805, 441.7637
324.7627, 435.1040
325.2448, 430.8901
325.7269, 427.6853
326.2090, 421.9067
326.6911, 411.4236
327.1732, 401.0989
327.6554, 391.7991
328.1375, 382.0757
328.6196, 368.6416
329.1017, 352.0054
329.5838, 338.4922
330.0659, 337.5049
330.5481, 354.0862
331.0302, 355.3291
331.5123, 323.4883
331.9944, 293.5662
332.4765, 276.9880
332.9586, 272.1299
333.4408, 274.6162
333.9229, 284.2629
334.4050, 296.3818
334.8871, 291.5491
335.3692, 259.5889
335.8513, 229.8555
336.3335, 209.7776
336.8156, 195.7458
337.2977, 185.3071
337.7798, 177.9258
338.2619, 171.9209
338.7440, 168.1287
339.2262, 167.0129
339.7083, 155.0210
340.1904, 119.3176
340.6725, 82.98242
341.1546, 63.68237
341.6367, 60.57153
342.1189, 63.34277
342.6010, 75.07251
343.0831, 86.84082
343.5652, 75.31006
344.0473, 33.55469
344.5294, 2.497314
345.0116, 1.140869
345.4937, 25.07324
345.9758, 39.52856
346.4579, 30.41455
346.9400, 16.54077
347.4221, 10.54688
347.9043, 10.63428
348.3864, 10.53882
348.8685, 7.980957
349.3506, 3.655762
349.8327, 1.547363
350.3148, 8.801758
350.7970, 14.95752
351.2791, 19.90137
351.7612, 22.88794
352.2433, 20.86084
352.7254, 14.22144
353.2076, 10.79126
353.6897, 19.92944
354.1718, 44.26270
354.6539, 56.32520
355.1360, 48.41528
355.6181, 39.57153
356.1003, 39.92480
356.5824, 44.50928
357.0645, 41.19263
357.5466, 22.70728
358.0287, 2.995117
358.5108, 10.93481
358.9930, 14.01123
359.4751, 30.70532
359.9572, 32.26953
360.4393, 27.40527
360.9214, 19.93115
361.4035, 11.63062
361.8857, 7.642578
362.3678, 17.44092
362.8499, 42.24219
363.3320, 54.66211
363.8141, 50.92749
364.2962, 37.66504
364.7784, 9.379639
365.2605, 24.81274
365.7426, 44.71069
366.2247, 33.77954
366.7068, 10.19141
367.1889, 6.516602
367.6711, 25.27490
368.1532, 40.88208
368.6353, 39.02979
369.1174, 31.09790
369.5995, 34.40601
370.0816, 52.91895
370.5638, 69.20435
371.0459, 70.46045
371.5280, 63.21973
372.0101, 61.45850
372.4922, 68.18115
372.9743, 78.77368
373.4565, 88.27100
373.9386, 96.60571
374.4207, 109.5503
374.9028, 137.0117
375.3849, 160.7046
375.8670, 165.6335
376.3492, 156.2800
376.8313, 147.6089
377.3134, 148.1147
377.7955, 154.5305
378.2776, 155.9873
378.7597, 143.3655
379.2419, 137.2510
379.7240, 142.0498
380.2061, 151.3516
380.6882, 162.3313
381.1703, 173.0159
381.6524, 178.1228
382.1346, 168.6345
382.6167, 141.2239
383.0988, 131.2778
383.5809, 163.3113
384.0630, 188.1794
384.5451, 184.5168
385.0273, 164.4636
385.5094, 150.0469
385.9915, 153.2764
386.4736, 164.3765
386.9557, 163.1111
387.4378, 146.1455
387.9200, 134.6194
388.4021, 140.4580
388.8842, 149.4248
389.3663, 148.5862
389.8484, 137.1511
390.3305, 125.3301
390.8127, 119.1956
391.2948, 116.8701
391.7769, 113.0002
392.2590, 106.2839
392.7411, 103.3281
393.2232, 113.1399
393.7054, 131.6318
394.1875, 138.5002
394.6696, 125.1392
395.1517, 107.7939
395.6338, 92.64966
396.1159, 79.99805
396.5981, 70.21436
397.0802, 63.47949
397.5623, 59.94751
398.0444, 60.65771
398.5265, 71.56201
399.0086, 72.58081
399.4908, 48.24146
399.9729, 26.93555
400.4550, 33.34302
400.9371, 61.54419
401.4192, 85.49414
401.9013, 84.87744
402.3835, 64.05005
402.8656, 52.85303
403.3477, 60.78564
403.8298, 64.19482
404.3119, 53.75146
404.7940, 39.90747
405.2762, 34.00073
405.7583, 38.62744
406.2404, 44.97827
406.7225, 40.98096
407.2046, 27.16064
407.6867, 22.64819
408.1689, 34.53760
408.6510, 47.43530
409.1331, 51.79639
409.6152, 49.36963
410.0973, 44.33276
410.5794, 37.85449
411.0616, 29.65771
411.5437, 16.35938
412.0258, 1.838623
412.5079, 14.22437
412.9900, 13.81104
413.4721, 6.240234
413.9543, 3.130859
414.4364, 5.630615
414.9185, 7.806152
415.4006, 6.999756
415.8827, 4.646484
416.3648, 4.765381
416.8470, 8.106201
417.3291, 10.54395
417.8112, 7.709961
418.2933, 0.5339360
418.7754, 10.54175
419.2575, 28.73047
419.7397, 40.85596
420.2218, 39.92749
420.7039, 31.74609
421.1860, 24.30054
421.6681, 20.77612
422.1502, 19.43213
422.6324, 17.47681
423.1145, 13.70093
423.5966, 13.58423
424.0787, 16.51489
424.5608, 24.31445
425.0429, 45.87451
425.5251, 73.11279
426.0072, 85.22021
426.4893, 66.81836
426.9714, 38.08862
427.4535, 25.97021
427.9356, 29.98633
428.4178, 37.61011
428.8999, 46.96484
429.3820, 55.16455
429.8641, 56.71680
430.3462, 50.67578
430.8283, 47.50879
431.3105, 55.10449
431.7926, 63.69238
432.2747, 60.65991
432.7568, 47.00879
433.2389, 35.55884
433.7210, 35.20264
434.2032, 44.40405
434.6853, 54.22778
435.1674, 71.67114
435.6495, 80.73608
436.1316, 69.35547
436.6137, 54.63501
437.0959, 56.40771
437.5780, 76.71289
438.0601, 98.27856
438.5422, 100.7573
439.0243, 83.15601
439.5064, 71.71411
439.9886, 68.19238
440.4707, 68.93164
440.9528, 74.49438
441.4349, 82.32397
441.9170, 88.31152
442.3991, 90.42310
442.8813, 92.72119
443.3634, 102.2764
443.8455, 117.5103
444.3276, 125.0918
444.8097, 120.2803
445.2918, 110.5728
445.7740, 102.5730
446.2561, 96.17285
446.7382, 91.67212
447.2203, 88.59351
447.7024, 87.91528
448.1845, 92.94946
448.6667, 101.3425
449.1488, 104.1462
449.6309, 96.06128
450.1130, 85.14258
450.5951, 89.99219
451.0772, 127.7878
451.5594, 151.3508
452.0415, 152.5405
452.5236, 147.3774
453.0057, 144.6577
453.4878, 144.8442
453.9699, 144.3220
454.4521, 139.4861
454.9342, 133.1143
455.4163, 137.0935
455.8984, 157.3591
456.3805, 172.8552
456.8626, 172.4407
457.3448, 167.3013
457.8269, 167.0859
458.3090, 173.5029
458.7911, 177.5049
459.2732, 168.2869
459.7553, 153.2075
460.2375, 149.4370
460.7196, 159.1272
461.2017, 167.8911
461.6838, 162.4282
462.1659, 149.2341
462.6480, 155.5547
463.1302, 205.8350
463.6123, 240.4158
464.0944, 228.9136
464.5765, 199.2903
465.0586, 185.1350
465.5407, 193.2646
466.0229, 210.7659
466.5050, 225.0283
466.9871, 236.0793
467.4692, 239.4319
467.9513, 223.2402
468.4334, 213.0427
468.9156, 222.9822
469.3977, 237.8691
469.8798, 235.9644
470.3619, 210.7544
470.8440, 183.6091
471.3261, 181.1367
471.8083, 200.7146
472.2904, 213.8015
472.7725, 216.8467
473.2546, 214.4485
473.7367, 205.7607
474.2188, 193.9250
474.7010, 187.0901
475.1831, 192.4290
475.6652, 197.0706
476.1473, 191.6956
476.6294, 179.4487
477.1115, 166.4229
477.5937, 154.1223
478.0758, 145.2478
478.5579, 143.9338
479.0400, 152.1060
479.5221, 158.3215
480.0042, 164.8323
480.4864, 167.2690
480.9685, 158.2266
481.4506, 145.4067
481.9327, 144.4702
482.4148, 162.4316
482.8969, 182.2256
483.3791, 170.8467
483.8612, 121.8557
484.3433, 90.80615
484.8254, 94.93237
485.3075, 104.2529
485.7896, 99.43579
486.2718, 84.95386
486.7539, 72.88428
487.2360, 65.25024
487.7181, 63.87939
488.2002, 75.04102
488.6823, 95.14990
489.1645, 109.3188
489.6466, 112.6648
490.1287, 108.8889
490.6108, 101.7153
491.0929, 89.39941
491.5750, 81.63940
492.0572, 81.70020
492.5393, 83.01465
493.0214, 80.57520
493.5035, 77.17847
493.9856, 80.77954
494.4677, 95.15430
494.9499, 110.7275
495.4320, 107.3743
495.9141, 78.26221
496.3962, 58.00684
496.8783, 53.50952
497.3604, 54.01709
497.8426, 54.24902
498.3247, 55.10986
498.8068, 60.14282
499.2889, 75.30713
499.7710, 88.83105
500.2531, 82.17188
500.7353, 59.62793
501.2174, 48.61865
501.6995, 60.28564
502.1816, 76.72485
502.6637, 74.83789
503.1458, 50.91626
503.6280, 34.79883
504.1101, 31.89258
504.5922, 32.31763
505.0743, 31.19702
505.5564, 29.70361
506.0385, 30.36841
506.5207, 34.24561
507.0028, 41.10352
507.4849, 52.06738
507.9670, 69.88647
508.4491, 80.46436
508.9312, 79.55835
509.4134, 75.39404
509.8955, 70.40698
510.3776, 64.97510
510.8597, 59.06934
511.3418, 51.43945
511.8239, 46.22632
512.3061, 48.76611
512.7882, 57.68774
513.2703, 68.39600
513.7524, 80.86011
514.2346, 89.99707
514.7167, 89.05688
515.1988, 77.58740
515.6809, 72.30933
516.1630, 78.13892
516.6451, 84.63696
517.1273, 88.55981
517.6094, 90.25171
518.0915, 89.08105
518.5736, 85.32520
519.0557, 82.92847
519.5378, 87.94727
520.0200, 101.2720
520.5021, 109.5676
520.9842, 110.0359
521.4663, 109.3816
521.9484, 112.3870
522.4305, 115.0913
522.9127, 110.4111
523.3948, 94.82959
523.8769, 81.77856
524.3590, 85.26685
524.8411, 99.19531
525.3232, 107.6599
525.8054, 108.1865
526.2875, 104.0972
526.7696, 96.13965
527.2517, 85.73474
527.7338, 83.20581
528.2159, 91.96753
528.6981, 102.3422
529.1802, 117.2001
529.6623, 130.1461
530.1444, 132.8824
530.6265, 126.5408
531.1086, 121.0522
531.5908, 126.0869
532.0729, 138.1296
532.5550, 139.2998
533.0371, 126.0978
533.5192, 115.1771
534.0013, 113.5399
534.4835, 115.9365
534.9656, 116.4904
535.4477, 114.7419
535.9298, 113.8470
536.4119, 117.7997
536.8940, 121.5592
537.3762, 117.1342
537.8583, 105.9862
538.3404, 97.84277
538.8225, 97.96240
539.3046, 102.4275
539.7867, 102.8542
540.2689, 97.69995
540.7510, 91.55298
541.2331, 77.90601
541.7152, 69.49121
542.1973, 78.87842
542.6794, 98.75757
543.1616, 110.4764
543.6437, 104.9250
544.1258, 90.93091
544.6079, 80.76868
545.0900, 74.39624
545.5721, 67.87317
546.0543, 58.29626
546.5364, 53.17688
547.0185, 65.86963
547.5006, 90.17871
547.9827, 99.08740
548.4648, 75.35889
548.9469, 50.29126
549.4290, 36.98254
549.9111, 32.64172
550.3932, 35.54346
550.8754, 44.06836
551.3575, 51.13928
551.8396, 49.19141
552.3217, 38.89673
552.8038, 35.62549
553.2859, 44.72412
553.7681, 50.82397
554.2502, 50.52686
554.7323, 47.65698
555.2144, 47.14941
555.6965, 50.13208
556.1786, 50.26074
556.6608, 40.11609
557.1429, 26.11755
557.6250, 19.05066
558.1071, 19.32947
558.5892, 26.28687
559.0714, 42.20801
559.5535, 60.30969
560.0356, 66.11914
560.5177, 53.46912
560.9998, 41.37561
561.4819, 24.88745
561.9641, 13.71167
562.4462, 18.79871
562.9283, 33.35840
563.4104, 42.27771
563.8925, 37.94934
564.3746, 28.04858
564.8568, 24.74622
565.3389, 28.32043
565.8210, 31.65881
566.3031, 34.85083
566.7852, 36.56628
567.2673, 32.54663
567.7495, 24.96692
568.2316, 22.82214
568.7137, 33.79492
569.1958, 40.76770
569.6779, 31.54773
570.1600, 15.51599
570.6422, 4.883667
571.1243, 1.766479
571.6064, 3.030762
572.0885, 6.703857
572.5706, 12.06042
573.0527, 13.92480
573.5349, 8.994873
574.0170, 7.055664
574.4991, 14.50574
574.9812, 22.41296
575.4633, 22.37317
575.9454, 15.57727
576.4276, 11.72937
576.9097, 19.08105
577.3918, 29.73376
577.8739, 33.33948
578.3560, 31.13110
578.8381, 29.42651
579.3203, 30.53015
579.8024, 31.85327
580.2845, 30.31665
580.7666, 25.99854
581.2487, 18.00549
581.7308, 2.0264000E-02
582.2130, 13.86487
582.6951, 16.63904
583.1772, 13.99829
583.6593, 13.00098
584.1414, 15.54663
584.6235, 18.28845
585.1057, 18.44983
585.5878, 16.16187
586.0699, 10.59631
586.5520, 0.6815190
587.0341, 5.403931
587.5162, 2.193481
587.9984, 5.823975
588.4805, 10.74658
588.9626, 13.52295
589.4447, 10.55640
589.9268, 8.182861
590.4089, 24.29626
590.8911, 20.93823
591.3732, 5.199585
591.8553, 4.748047
592.3374, 0.7122800
592.8195, 9.640869
593.3016, 13.95227
593.7838, 11.63013
594.2659, 10.14832
594.7480, 10.10876
595.2301, 10.48669
595.7122, 10.40894
596.1943, 10.44751
596.6765, 11.43347
597.1586, 13.12415
597.6407, 16.72949
598.1228, 28.96948
598.6049, 39.81702
599.0870, 31.72339
599.5692, 7.877441
600.0513, 8.262207
600.5334, 1.214111
601.0155, 20.34204
601.4976, 32.48303
601.9797, 33.35083
602.4619, 29.72070
602.9440, 16.36523
603.4261, 4.118896
603.9082, 6.9458000E-02
604.3903, 1.027222
604.8724, 1.290039
605.3546, 12.08386
605.8367, 21.18884
606.3188, 17.64197
606.8009, 7.238037
607.2830, 3.139893
607.7651, 7.204468
608.2473, 10.05664
608.7294, 3.414795
609.2115, 9.746704
609.6936, 13.11743
610.1757, 6.915527
610.6578, 14.47705
611.1400, 9.523804
611.6221, 31.47424
612.1042, 23.12427
612.5863, 7.328979
613.0684, 28.94312
613.5505, 24.68982
614.0327, 9.343506
614.5148, 1.276855
614.9969, 8.196899
615.4790, 15.94189
615.9611, 25.71802
616.4432, 34.27820
616.9254, 39.35229
617.4075, 40.74548
617.8896, 35.66296
618.3717, 12.21375
618.8538, 1.853394
619.3359, 2.322998
619.8181, 12.53455
620.3002, 20.27148
620.7823, 24.64197
621.2644, 28.41992
621.7465, 34.64062
622.2286, 39.23779
622.7108, 34.04285
623.1929, 20.12854
623.6750, 5.614868
624.1571, 9.594849
624.6392, 16.66394
625.1213, 3.490601
625.6035, 29.15320
626.0856, 47.53772
626.5677, 45.40979
627.0498, 39.04980
627.5319, 23.95923
628.0140, 11.33472
628.4962, 17.76672
628.9783, 39.22351
629.4604, 50.72839
629.9425, 30.43262
630.4246, 3.902954
630.9067, 16.14783
631.3889, 6.934326
631.8710, 2.806641
632.3531, 8.306519
632.8352, 12.88000
633.3173, 20.80261
633.7994, 31.77734
634.2816, 37.19263
634.7637, 34.07776
635.2458, 29.56262
635.7279, 22.21973
636.2100, 16.41724
636.6921, 16.27856
637.1743, 22.10034
637.6564, 32.97388
638.1385, 51.95410
638.6206, 70.48254
639.1027, 65.86084
639.5848, 37.74597
640.0670, 13.67114
640.5491, 0.7437740
641.0312, 4.332031
641.5133, 9.013062
641.9954, 37.24133
642.4775, 48.63269
642.9597, 27.48511
643.4418, 10.61499
643.9239, 8.029541
644.4060, 13.81323
644.8881, 27.17566
645.3702, 43.29419
645.8524, 47.57141
646.3345, 26.23474
646.8166, 4.646240
647.2987, 9.332031
647.7808, 12.14441
648.2629, 27.95386
648.7451, 30.39001
649.2272, 28.81689
649.7093, 31.77441
650.1914, 38.86731
650.6735, 39.88135
651.1556, 25.68616
651.6378, 17.04590
652.1199, 23.18164
652.6020, 32.50049
653.0841, 34.69531
653.5662, 30.26233
654.0483, 24.95276
654.5305, 20.85522
655.0126, 21.28528
655.4947, 35.64197
655.9768, 62.17639
656.4589, 80.49072
656.9410, 86.50171
657.4232, 86.34399
657.9053, 82.78162
658.3874, 77.43970
658.8695, 72.66296
659.3516, 63.51660
659.8337, 60.94971
660.3159, 71.49719
660.7980, 84.15222
661.2801, 92.80042
661.7622, 96.47644
662.2443, 94.79028
662.7264, 86.13232
663.2086, 76.52344
663.6907, 75.45874
664.1728, 81.76611
664.6549, 87.18469
665.1370, 90.24158
665.6191, 92.01001
666.1013, 92.70325
666.5834, 94.20374
667.0655, 100.6321
667.5476, 114.8567
668.0297, 127.3210
668.5118, 142.5653
668.9940, 153.2383
669.4761, 149.2100
669.9582, 137.5033
670.4403, 129.5725
670.9224, 128.8534
671.4045, 133.6560
671.8867, 144.9709
672.3688, 159.1106
672.8509, 168.5411
673.3330, 172.6803
673.8151, 171.1028
674.2972, 162.2878
674.7794, 151.4994
675.2615, 148.6355
675.7436, 155.1023
676.2257, 164.7036
676.7078, 185.9211
677.1899, 200.5698
677.6721, 200.2538
678.1542, 191.3750
678.6363, 179.1082
679.1184, 164.7323
679.6005, 157.0740
680.0826, 167.0637
680.5648, 183.1091
681.0469, 188.3057
681.5290, 185.7898
682.0111, 191.3584
682.4932, 211.0831
682.9753, 229.0315
683.4575, 221.2504
683.9396, 187.1466
684.4217, 166.7704
684.9038, 165.8346
685.3859, 168.5839
685.8680, 175.8635
686.3502, 181.6656
686.8323, 177.6801
687.3144, 165.5515
687.7965, 161.0787
688.2786, 181.0177
688.7607, 197.7618
689.2429, 189.8694
689.7250, 168.7339
690.2071, 152.0624
690.6892, 143.5609
691.1713, 138.6854
691.6534, 133.9427
692.1356, 129.6289
692.6177, 126.3903
693.0998, 123.7987
693.5819, 124.9644
694.0640, 132.4043
694.5461, 140.7146
695.0283, 147.0140
695.5104, 150.8619
695.9925, 150.6831
696.4746, 145.2223
696.9567, 137.6285
697.4388, 125.2874
697.9210, 113.9001
698.4031, 107.6718
698.8852, 106.8157
699.3673, 112.3947
699.8494, 125.5621
700.3315, 137.3478
700.8137, 130.8942
701.2958, 110.5103
701.7779, 104.3517
702.2600, 115.9385
702.7421, 128.9026
703.2242, 134.8790
703.7064, 136.8669
704.1885, 141.6467
704.6706, 153.3870
705.1527, 154.9462
705.6348, 134.2012
706.1169, 117.9258
706.5991, 119.9557
707.0812, 130.4209
707.5633, 136.4775
708.0454, 135.6316
708.5275, 133.8795
709.0096, 136.0541
709.4918, 139.2004
709.9739, 138.5876
710.4560, 135.1682
710.9381, 133.5699
711.4202, 135.2042
711.9023, 134.8491
712.3845, 125.3312
712.8666, 108.4106
713.3487, 106.2754
713.8308, 126.6726
714.3129, 145.4331
714.7950, 163.2406
715.2772, 172.9781
715.7593, 163.4552
716.2414, 140.8563
716.7235, 128.2104
717.2056, 134.7146
717.6877, 145.7058
718.1699, 159.2354
718.6520, 170.3066
719.1341, 169.9141
719.6162, 160.9326
720.0983, 156.1389
720.5804, 162.8447
721.0626, 174.6680
721.5447, 180.8733
722.0268, 181.7750
722.5089, 184.0613
722.9910, 188.9396
723.4731, 191.6650
723.9553, 189.0035
724.4374, 183.3953
724.9195, 179.4922
725.4016, 177.5953
725.8837, 176.5901
726.3658, 182.6572
726.8480, 182.5980
727.3301, 162.9391
727.8122, 138.6965
728.2943, 130.2825
728.7764, 140.0042
729.2585, 149.9655
729.7407, 146.4530
730.2228, 137.5104
730.7049, 133.8918
731.1870, 134.1063
731.6691, 133.4612
732.1512, 130.7788
732.6334, 127.0127
733.1155, 122.9628
733.5976, 118.5688
734.0797, 112.1779
734.5618, 99.30591
735.0439, 97.92493
735.5261, 120.5791
736.0082, 143.4614
736.4903, 153.2888
736.9724, 151.8229
737.4545, 141.5656
737.9366, 116.9172
738.4188, 97.73047
738.9009, 93.37061
739.3830, 94.62781
739.8651, 96.41003
740.3472, 97.00623
740.8293, 93.15149
741.3115, 83.84448
741.7936, 75.87109
742.2757, 78.45911
742.7578, 88.66003
743.2399, 98.21228
743.7220, 106.9452
744.2042, 107.3905
744.6863, 95.59778
745.1684, 78.51001
745.6505, 62.51660
746.1326, 47.34229
746.6147, 44.92297
747.0969, 66.20032
747.5790, 84.57983
748.0611, 101.9935
748.5432, 110.9723
749.0253, 99.45056
749.5074, 74.07275
749.9896, 58.58777
750.4717, 63.44727
750.9538, 71.82056
751.4359, 79.40625
751.9180, 82.84875
752.4001, 71.37854
752.8823, 50.53271
753.3644, 43.81055
753.8465, 63.77979
754.3286, 92.90625
754.8107, 103.7908
755.2928, 97.92188
755.7750, 93.32385
756.2571, 90.35681
756.7392, 90.30273
757.2213, 94.27002
757.7034, 98.19495
758.1855, 98.40942
758.6677, 94.84949
759.1498, 90.61694
759.6319, 86.02380
760.1140, 80.02087
760.5961, 68.67798
761.0782, 59.28320
761.5604, 58.65454
762.0425, 65.66467
762.5246, 75.10718
763.0067, 86.85498
763.4888, 96.90918
763.9709, 101.4911
764.4531, 102.5021
764.9352, 103.7361
765.4173, 104.8186
765.8994, 100.2924
766.3815, 86.64209
766.8636, 71.81946
767.3458, 71.80859
767.8279, 86.70947
768.3100, 95.06641
768.7921, 95.91711
769.2742, 92.04565
769.7563, 83.86401
770.2385, 72.68103
770.7206, 57.82056
771.2027, 37.10278
771.6848, 31.66956
772.1669, 61.81555
772.6490, 80.45081
773.1312, 63.36426
773.6133, 39.61475
774.0954, 36.24451
774.5775, 51.23303
775.0596, 65.89124
775.5417, 73.96326
776.0239, 75.89929
776.5060, 67.29626
776.9881, 55.15784
777.4702, 52.92993
777.9523, 58.89050
778.4344, 58.30005
778.9166, 43.41028
779.3987, 24.78088
779.8808, 19.31482
780.3629, 26.50378
780.8450, 36.16724
781.3271, 50.25256
781.8093, 57.24683
782.2914, 48.74512
782.7735, 35.82373
783.2556, 32.20947
783.7377, 38.34619
784.2198, 42.97766
784.7020, 44.38684
785.1841, 46.69971
785.6662, 53.44714
786.1483, 59.08423
786.6304, 59.07251
787.1125, 53.45764
787.5947, 45.14099
788.0768, 33.29651
788.5589, 23.94507
789.0410, 21.75745
789.5231, 23.35974
790.0052, 25.19495
790.4874, 27.23535
790.9695, 31.24939
791.4516, 37.75537
791.9337, 43.33057
792.4158, 43.96912
792.8979, 40.34290
793.3801, 33.48669
793.8622, 23.34326
794.3443, 21.07373
794.8264, 29.45410
795.3085, 39.92834
795.7906, 44.15710
796.2728, 43.07898
796.7549, 42.05176
797.2370, 39.54126
797.7191, 38.30396
798.2012, 41.11841
798.6833, 42.68115
799.1655, 40.96277
799.6476, 36.15479
800.1297, 26.90259
800.6118, 10.93591
801.0939, 2.305664
801.5760, 13.15271
802.0582, 25.82202
802.5403, 28.84863
803.0224, 25.00012
803.5045, 18.52393
803.9866, 11.10144
804.4688, 4.760376
804.9509, 2.000244
805.4330, 0.3660890
805.9151, 9.457397
806.3972, 22.47217
806.8793, 31.49402
807.3615, 35.21887
807.8436, 26.98071
808.3257, 0.2180180
808.8078, 32.41614
809.2899, 41.75671
809.7720, 23.32507
810.2542, 8.295044
810.7363, 3.699707
811.2184, 10.47388
811.7005, 9.471680
812.1826, 5.605103
812.6647, 5.142334
813.1469, 8.055542
813.6290, 11.60376
814.1111, 22.20300
814.5932, 24.70532
815.0753, 6.016724
815.5574, 12.61694
816.0396, 10.50879
816.5217, 5.815063
817.0038, 14.65332
817.4859, 6.605591
817.9680, 2.573486
818.4501, 0.5004880
818.9323, 6.192993
819.4144, 2.048340
819.8965, 9.257080
820.3786, 18.10229
820.8607, 21.55701
821.3428, 23.46887
821.8250, 28.14197
822.3071, 33.94092
822.7892, 35.12268
823.2713, 31.81104
823.7534, 28.23474
824.2355, 25.35681
824.7177, 20.99500
825.1998, 13.07800
825.6819, 3.967896
826.1640, 1.137573
826.6461, 7.952637
827.1282, 11.63562
827.6104, 9.372559
828.0925, 8.867920
828.5746, 15.33850
829.0567, 23.94873
829.5388, 28.28833
830.0209, 29.24597
830.5031, 31.54724
830.9852, 40.76489
831.4673, 45.21240
831.9494, 35.05981
832.4315, 24.00708
832.9136, 24.87830
833.3958, 35.21960
833.8779, 44.21606
834.3600, 48.40674
834.8421, 47.83154
835.3242, 39.16699
835.8063, 28.08252
836.2885, 21.84949
836.7706, 19.48596
837.2527, 17.23169
837.7348, 13.76587
838.2169, 8.868530
838.6990, 5.8594000E-02
839.1812, 7.903809
839.6633, 3.274292
840.1454, 30.96069
840.6275, 43.22693
841.1096, 33.41931
841.5917, 20.86035
842.0739, 18.74194
842.5560, 22.19922
843.0381, 18.33081
843.5202, 3.291382
844.0023, 1.129150
844.4844, 10.47729
844.9666, 22.14526
845.4487, 30.04834
845.9308, 34.10803
846.4129, 33.42847
846.8950, 28.28870
847.3771, 24.42517
847.8593, 22.99194
848.3414, 23.30908
848.8235, 25.87036
849.3056, 29.60791
849.7877, 38.00378
850.2698, 45.91919
850.7520, 40.37903
851.2341, 15.65918
851.7162, 1.332153
852.1983, 14.29358
852.6804, 33.81921
853.1625, 29.66711
853.6447, 12.75415
854.1268, 1.766846
854.6089, 0.8056640
855.0910, 6.123291
855.5731, 16.93225
856.0552, 28.01819
856.5374, 29.68567
857.0195, 25.55627
857.5016, 28.53516
857.9837, 38.47168
858.4658, 42.00098
858.9479, 32.52417
859.4301, 18.90027
859.9122, 12.63074
860.3943, 13.35693
860.8764, 18.88232
861.3585, 30.42920
861.8406, 39.20398
862.3228, 43.61279
862.8049, 42.94226
863.2870, 34.61255
863.7691, 21.68433
864.2512, 15.85974
864.7333, 21.38135
865.2155, 24.88757
865.6976, 24.53992
866.1797, 26.57886
866.6618, 37.38074
867.1439, 47.05005
867.6260, 40.69128
868.1082, 18.89404
868.5903, 6.928467
869.0724, 19.16223
869.5545, 28.17126
870.0366, 24.79077
870.5187, 15.78235
871.0009, 0.7238770
871.4830, 14.32642
871.9651, 16.26892
872.4472, 0.3360600
872.9293, 17.48889
873.4114, 23.75171
873.8936, 23.45874
874.3757, 16.64417
874.8578, 7.725342
875.3399, 6.586548
875.8220, 13.25110
876.3041, 17.44434
876.7863, 11.36621
877.2684, 4.061768
877.7505, 11.67383
878.2326, 26.87268
878.7147, 27.23267
879.1968, 13.51025
879.6790, 3.191895
880.1611, 3.293091
880.6432, 8.386230
881.1253, 13.40308
881.6074, 17.23804
882.0895, 11.78748
882.5717, 3.950562
883.0538, 9.981445
883.5359, 0.9012450
884.0180, 8.965454
884.5001, 11.00720
884.9822, 6.988647
885.4644, 0.3834230
885.9465, 14.36145
886.4286, 13.74170
886.9107, 12.43701
887.3928, 31.66943
887.8749, 33.24634
888.3571, 25.52148
888.8392, 11.66907
889.3213, 6.031982
889.8034, 12.88953
890.2855, 1.935791
890.7676, 8.807617
891.2498, 20.42114
891.7319, 28.95056
892.2140, 31.39697
892.6961, 30.21509
893.1782, 28.37463
893.6603, 26.28735
894.1425, 24.15552
894.6246, 20.12952
895.1067, 18.43640
895.5888, 23.96204
896.0709, 30.36267
896.5530, 28.50989
897.0352, 22.31299
897.5173, 25.44312
897.9994, 42.36292
898.4815, 58.22461
898.9636, 62.80872
899.4457, 60.95105
899.9279, 56.39978
900.4100, 49.78687
900.8921, 38.94739
901.3742, 25.58972
901.8563, 22.00085
902.3384, 39.30103
902.8206, 56.03381
903.3027, 33.82605
903.7848, 8.323608
904.2669, 20.27075
904.7490, 4.244873
905.2311, 13.85559
905.7133, 25.22437
906.1954, 31.99207
906.6775, 35.91016
907.1596, 37.37671
907.6417, 36.57703
908.1238, 33.73376
908.6060, 33.88129
909.0881, 37.68311
909.5702, 42.08453
910.0523, 48.11993
910.5344, 52.12408
911.0165, 48.69531
911.4987, 37.94904
911.9808, 28.59125
912.4629, 20.04803
912.9450, 18.63159
913.4271, 28.74353
913.9092, 38.63312
914.3914, 39.61298
914.8735, 35.16156
915.3556, 34.16937
915.8377, 38.57355
916.3198, 38.95490
916.8019, 31.13739
917.2841, 25.78802
917.7662, 29.26581
918.2483, 33.25043
918.7304, 27.22211
919.2125, 14.90778
919.6946, 13.02448
920.1768, 30.10522
920.6589, 42.25958
921.1410, 44.80719
921.6231, 45.01233
922.1052, 45.61816
922.5873, 46.25580
923.0695, 35.60931
923.5516, 53.15619
924.0337, 63.92664
924.5158, 68.30066
924.9979, 47.04120
925.4800, 58.86902
925.9622, 57.30444
926.4443, 54.86182
926.9264, 71.22192
927.4085, 53.64886
927.8906, 69.77948
928.3727, 72.30402
928.8549, 80.45258
929.3370, 74.32391
929.8191, 72.28833
930.3012, 73.69257
930.7833, 78.27893
931.2654, 84.10626
931.7476, 83.28180
932.2297, 72.70288
932.7118, 65.00732
933.1939, 74.31128
933.6760, 89.09546
934.1581, 95.66290
934.6403, 96.78577
935.1224, 100.2303
935.6045, 105.5721
936.0866, 101.1045
936.5687, 79.10547
937.0508, 58.39032
937.5330, 68.43707
938.0151, 92.96313
938.4972, 96.24420
938.9793, 83.36682
939.4614, 76.34070
939.9435, 79.86505
940.4257, 85.18872
940.9078, 87.15076
941.3899, 86.59357
941.8720, 81.60400
942.3541, 73.34930
942.8362, 66.56104
943.3184, 61.87787
943.8005, 67.13989
944.2826, 86.01971
944.7647, 100.1356
945.2468, 87.75067
945.7289, 60.92743
946.2111, 57.32166
946.6932, 75.61389
947.1753, 86.43866
947.6574, 87.49091
948.1395, 89.31854
948.6216, 96.04858
949.1038, 100.8381
949.5859, 93.99359
950.0680, 79.36139
950.5501, 83.61731
951.0322, 111.4705
951.5143, 117.1030
951.9965, 89.94739
952.4786, 64.34521
952.9607, 56.55212
953.4428, 61.95624
953.9249, 76.30371
954.4070, 98.83154
954.8892, 108.9377
955.3713, 102.2426
955.8534, 98.20703
956.3355, 100.7672
956.8176, 103.3201
957.2997, 101.1702
957.7819, 97.79144
958.2640, 100.2340
958.7461, 109.5823
959.2282, 112.7318
959.7103, 107.9790
960.1924, 100.3561
960.6746, 85.18488
961.1567, 75.01978
961.6388, 78.03723
962.1209, 90.73474
962.6030, 109.9224
963.0851, 141.3896
963.5673, 148.5261
964.0494, 108.1508
964.5315, 78.43372
965.0136, 72.70923
965.4957, 79.41284
965.9778, 97.56812
966.4600, 120.8490
966.9421, 132.1237
967.4242, 126.0165
967.9063, 125.2334
968.3884, 137.3633
968.8705, 145.7693
969.3527, 136.8843
969.8348, 130.8411
970.3169, 153.9282
970.7990, 192.5468
971.2811, 202.0769
971.7632, 164.0443
972.2454, 141.4663
972.7275, 152.1774
973.2096, 166.5761
973.6917, 176.6801
974.1738, 184.2552
974.6559, 191.1394
975.1381, 196.8585
975.6202, 199.3983
976.1023, 196.6521
976.5844, 196.0198
977.0665, 201.8420
977.5486, 206.2593
978.0308, 202.3633
978.5129, 197.6889
978.9950, 200.3840
979.4771, 209.7030
979.9592, 220.6188
980.4413, 235.6339
980.9235, 243.1071
981.4056, 235.4051
981.8877, 223.9609
982.3698, 213.0432
982.8519, 202.9813
983.3340, 191.1840
983.8162, 180.3002
984.2983, 178.8365
984.7804, 194.0498
985.2625, 201.5923
985.7446, 181.7345
986.2267, 163.7598
986.7089, 170.8799
987.1910, 186.2714
987.6731, 187.4542
988.1552, 175.1753
988.6373, 165.9484
989.1194, 164.0850
989.6016, 167.5577
990.0837, 181.6509
990.5658, 194.2681
991.0479, 196.4570
991.5300, 192.9630
992.0121, 190.2880
992.4943, 188.7142
992.9764, 183.7068
993.4585, 169.3108
993.9406, 162.1766
994.4227, 180.7911
994.9048, 197.5751
995.3870, 186.4908
995.8691, 165.9551
996.3512, 165.0455
996.8333, 182.1364
997.3154, 189.1836
997.7975, 171.9725
998.2797, 154.1091
998.7618, 147.6528
999.2439, 143.4604
999.7260, 134.6161
1000.208, 124.1013
1000.690, 116.3988
1001.172, 111.7775
1001.654, 107.8566
1002.137, 102.7253
1002.619, 100.9434
1003.101, 113.3448
1003.583, 120.7375
1004.065, 101.8261
1004.547, 74.20844
1005.029, 63.45105
1005.511, 68.95538
1005.994, 71.33118
1006.476, 63.40344
1006.958, 52.96936
1007.440, 38.97339
1007.922, 28.80835
1008.404, 31.45679
1008.886, 38.42822
1009.368, 38.21991
1009.850, 32.26337
1010.333, 27.45630
1010.815, 27.29651
1011.297, 30.33423
1011.779, 40.84436
1012.261, 48.86285
1012.743, 45.52399
1013.225, 37.78259
1013.707, 32.53937
1014.190, 31.16571
1014.672, 35.53839
1015.154, 50.54034
1015.636, 56.41254
1016.118, 36.55011
1016.600, 15.39758
1017.082, 3.183777
1017.564, 1.4038000E-02
1018.046, 9.388184
1018.529, 26.97675
1019.011, 39.36224
1019.493, 42.11627
1019.975, 43.81879
1020.457, 51.84546
1020.939, 54.10199
1021.421, 39.18604
1021.903, 19.91907
1022.385, 7.310303
1022.868, 1.608521
1023.350, 0.5263060
1023.832, 4.522156
1024.314, 9.372009
1024.796, 12.75159
1025.278, 15.31671
1025.760, 21.26080
1026.242, 25.74390
1026.725, 21.92145
1027.207, 13.74689
1027.689, 11.15424
1028.171, 16.04498
1028.653, 23.48535
1029.135, 41.74213
1029.617, 49.89850
1030.099, 33.56830
1030.582, 12.54846
1031.064, 0.7008060
1031.546, 7.454651
1032.028, 11.29242
1032.510, 12.30499
1032.992, 12.53455
1033.474, 15.29956
1033.956, 12.89508
1034.438, 2.333252
1034.921, 16.77209
1035.403, 21.57056
1035.885, 20.61066
1036.367, 21.54498
1036.849, 25.10242
1037.331, 22.60693
1037.813, 6.360352
1038.295, 4.670349
1038.777, 8.463806
1039.260, 7.095642
1039.742, 5.252197
1040.224, 17.37024
1040.706, 10.10077
1041.188, 15.06537
1041.670, 22.27795
1042.152, 0.3556520
1042.634, 17.00122
1043.116, 25.43799
1043.599, 28.18762
1044.081, 24.42590
1044.563, 17.48737
1045.045, 9.690613
1045.527, 1.899353
1046.009, 0.4655760
1046.491, 4.949829
1046.973, 8.476685
1047.456, 8.706726
1047.938, 10.69977
1048.420, 17.59271
1048.902, 23.10352
1049.384, 20.71259
1049.866, 13.46771
1050.348, 11.40527
1050.830, 15.40649
1051.313, 18.30988
1051.795, 19.46948
1052.277, 23.99573
1052.759, 34.77283
1053.241, 41.35516
1053.723, 34.58185
1054.205, 22.65631
1054.687, 24.47784
1055.169, 39.28778
1055.651, 38.13306
1056.134, 20.24518
1056.616, 10.20319
1057.098, 12.90295
1057.580, 17.93762
1058.062, 19.38336
1058.544, 19.92694
1059.026, 24.54816
1059.508, 32.43488
1059.991, 31.49768
1060.473, 21.56030
1060.955, 17.52930
1061.437, 21.27954
1061.919, 22.83063
1062.401, 17.88550
1062.883, 14.55878
1063.365, 22.82019
1063.848, 35.85120
1064.330, 38.36829
1064.812, 33.93976
1065.294, 35.12524
1065.776, 39.67883
1066.258, 30.09143
1066.740, 3.823547
1067.222, 12.59338
1067.704, 3.446350
1068.187, 28.76117
1068.669, 32.33765
1069.151, 26.73059
1069.633, 36.01398
1070.115, 51.22577
1070.597, 45.52344
1071.079, 19.68890
1071.561, 3.648254
1072.043, 14.05005
1072.526, 28.68744
1073.008, 31.20349
1073.490, 28.34467
1073.972, 24.10797
1074.454, 20.22937
1074.936, 18.93188
1075.418, 19.72455
1075.900, 20.87518
1076.383, 21.88788
1076.865, 21.54492
1077.347, 16.97632
1077.829, 13.77130
1078.311, 16.83618
1078.793, 20.79987
1079.275, 21.46893
1079.757, 19.34265
1080.240, 15.86621
1080.722, 11.25934
1081.204, 5.533936
1081.686, 8.689758
1082.168, 12.82758
1082.650, 7.739197
1083.132, 26.76617
1083.614, 26.46185
1084.096, 20.02533
1084.578, 25.21143
1085.061, 40.18182
1085.543, 47.25806
1086.025, 43.05035
1086.507, 37.72021
1086.989, 27.52655
1087.471, 23.00244
1087.953, 30.52185
1088.435, 39.54504
1088.918, 41.28638
1089.400, 38.61517
1089.882, 39.30890
1090.364, 44.01398
1090.846, 49.10315
1091.328, 57.06232
1091.810, 50.89319
1092.292, 23.63440
1092.775, 2.751709
1093.257, 4.750366
1093.739, 16.88177
1094.221, 21.60889
1094.703, 20.69141
1095.185, 23.43335
1095.667, 29.44342
1096.149, 32.31281
1096.631, 31.66949
1097.114, 32.31671
1097.596, 36.07483
1098.078, 39.66461
1098.560, 40.85547
1099.042, 39.10291
1099.524, 32.37274
1100.006, 26.53461
1100.488, 35.18201
1100.970, 52.18524
1101.453, 55.65717
1101.935, 44.01599
1102.417, 34.52997
1102.899, 36.36377
1103.381, 39.97797
1103.863, 37.64789
1104.345, 31.41553
1104.827, 18.57190
1105.310, 6.672058
1105.792, 10.62439
1106.274, 24.25226
1106.756, 27.05011
1107.238, 14.38959
1107.720, 5.495850
1108.202, 13.00964
1108.684, 21.79639
1109.167, 26.50171
1109.649, 28.15759
1110.131, 23.40875
1110.613, 18.68628
1111.095, 26.20392
1111.577, 43.08813
1112.059, 47.26929
1112.541, 26.71405
1113.023, 14.59680
1113.505, 19.17822
1113.988, 26.08777
1114.470, 34.72058
1114.952, 40.65808
1115.434, 42.70374
1115.916, 38.32483
1116.398, 18.77942
1116.880, 18.28888
1117.362, 30.05103
1117.845, 9.254211
1118.327, 10.65808
1118.809, 26.43799
1119.291, 35.90967
1119.773, 36.73389
1120.255, 36.61182
1120.737, 45.10968
1121.219, 58.11346
1121.702, 62.14124
1122.184, 57.84863
1122.666, 49.69336
1123.148, 38.55695
1123.630, 29.00610
1124.112, 22.37775
1124.594, 18.87402
1125.076, 17.92944
1125.558, 20.41174
1126.041, 25.88739
1126.523, 31.62140
1127.005, 33.30829
1127.487, 31.60364
1127.969, 24.72284
1128.451, 16.14709
1128.933, 16.51471
1129.415, 28.28253
1129.897, 39.61871
1130.380, 44.08783
1130.862, 44.68127
1131.344, 40.86115
1131.826, 36.52008
1132.308, 33.03351
1132.790, 32.19391
1133.272, 39.74878
1133.754, 52.29303
1134.237, 53.18799
1134.719, 32.18896
1135.201, 23.48138
1135.683, 48.61157
1136.165, 64.12762
1136.647, 49.86719
1137.129, 32.01917
1137.611, 26.43909
1138.094, 26.28040
1138.576, 19.88892
1139.058, 7.753113
1139.540, 1.673767
1140.022, 3.378540
1140.504, 8.640930
1140.986, 17.24188
1141.468, 21.10278
1141.950, 16.51501
1142.432, 13.70514
1142.915, 22.39813
1143.397, 34.35327
1143.879, 29.08655
1144.361, 12.34595
1144.843, 13.72052
1145.325, 28.38031
1145.807, 33.50055
1146.289, 27.31116
1146.772, 22.48236
1147.254, 24.28772
1147.736, 27.91199
1148.218, 30.75104
1148.700, 30.98083
1149.182, 24.85126
1149.664, 16.45221
1150.146, 8.265686
1150.629, 2.749573
1151.111, 5.384033
1151.593, 14.86700
1152.075, 23.32190
1152.557, 29.30566
1153.039, 29.59027
1153.521, 17.60107
1154.003, 7.277039
1154.485, 0.2177120
1154.968, 0.4527590
1155.450, 12.98206
1155.932, 31.41388
1156.414, 38.95990
1156.896, 35.98584
1157.378, 34.40259
1157.860, 35.48810
1158.342, 33.94696
1158.824, 27.89569
1159.307, 23.82782
1159.789, 24.56781
1160.271, 27.46808
1160.753, 31.48511
1161.235, 32.68433
1161.717, 19.19531
1162.199, 3.630310
1162.681, 3.397644
1163.164, 14.33960
1163.646, 19.86206
1164.128, 12.88672
1164.610, 16.94800
1165.092, 39.21417
1165.574, 58.06659
1166.056, 55.89886
1166.538, 47.22797
1167.021, 48.25806
1167.503, 49.64600
1167.985, 37.13800
1168.467, 20.64905
1168.949, 16.69470
1169.431, 23.02466
1169.913, 25.63312
1170.395, 20.46625
1170.877, 18.44452
1171.359, 27.96429
1171.842, 33.16589
1172.324, 24.12036
1172.806, 16.82867
1173.288, 22.92419
1173.770, 31.69360
1174.252, 30.79773
1174.734, 21.42627
1175.216, 14.57654
1175.699, 11.83118
1176.181, 16.96051
1176.663, 30.56244
1177.145, 42.64325
1177.627, 52.03888
1178.109, 49.14832
1178.591, 27.86639
1179.073, 6.403809
1179.556, 6.265686
1180.038, 19.85126
1180.520, 38.07245
1181.002, 54.17291
1181.484, 47.20648
1181.966, 25.66522
1182.448, 14.18512
1182.930, 15.84967
1183.412, 18.34863
1183.895, 16.43402
1184.377, 14.20172
1184.859, 13.27124
1185.341, 13.88257
1185.823, 16.83978
1186.305, 20.71808
1186.787, 27.47467
1187.269, 32.53662
1187.751, 26.55157
1188.234, 10.91156
1188.716, 4.759155
1189.198, 14.59247
1189.680, 17.07507
1190.162, 8.159546
1190.644, 2.800232
1191.126, 4.544983
1191.608, 10.54016
1192.091, 20.27216
1192.573, 28.11871
1193.055, 24.50568
1193.537, 14.91998
1194.019, 19.00061
1194.501, 32.72125
1194.983, 40.58545
1195.465, 42.13123
1195.948, 35.57227
1196.430, 22.98401
1196.912, 16.63062
1197.394, 23.33600
1197.876, 30.29633
1198.358, 26.11310
1198.840, 18.67145
1199.322, 15.25641
1199.804, 14.41138
1200.286, 17.87244
1200.769, 22.25574
1201.251, 20.88184
1201.733, 14.54950
1202.215, 14.16925
1202.697, 27.45831
1203.179, 29.83789
1203.661, 12.27881
1204.143, 3.297302
1204.626, 11.95587
1205.108, 21.35913
1205.590, 21.93390
1206.072, 19.04047
1206.554, 19.71179
1207.036, 22.50195
1207.518, 22.95679
1208.000, 21.26538
1208.483, 15.97095
1208.965, 9.392700
1209.447, 15.38928
1209.929, 32.35297
1210.411, 35.81683
1210.893, 14.62061
1211.375, 4.589294
1211.857, 1.093994
1212.339, 11.93970
1212.822, 35.74506
1213.304, 53.81152
1213.786, 48.09979
1214.268, 30.52118
1214.750, 14.60889
1215.232, 2.461487
1215.714, 4.039551
1216.196, 4.950684
1216.678, 1.307373
1217.161, 20.43353
1217.643, 32.27832
1218.125, 32.69312
1218.607, 30.13617
1219.089, 27.61444
1219.571, 26.43237
1220.053, 27.91223
1220.535, 31.53241
1221.018, 39.02472
1221.500, 46.94281
1221.982, 40.84778
1222.464, 26.13281
1222.946, 15.30182
1223.428, 10.23132
1223.910, 22.56671
1224.392, 50.57550
1224.875, 67.73242
1225.357, 51.86414
1225.839, 35.10577
1226.321, 42.30884
1226.803, 46.67560
1227.285, 27.04211
1227.767, 4.660828
1228.249, 0.2192990
1228.731, 6.322388
1229.214, 11.73822
1229.696, 16.06281
1230.178, 19.87537
1230.660, 22.47931
1231.142, 32.74414
1231.624, 52.60559
1232.106, 57.82916
1232.588, 41.49274
1233.070, 20.58350
1233.553, 5.198914
1234.035, 9.2162997E-02
1234.517, 0.0000000E+00
##END=



