##NAMES=Miassite
##RRUFFID=R070075
##IDEAL CHEMISTRY=Rh_17_S_15_
##LOCALITY=Yukhtochka placer, Tributary of Aldan River, Yakutia, Russia
##OWNER=RRUFF
##SOURCE=Michael Scott
##DESCRIPTION=A mechanical mixture of dark gray metallic polished grains and pale yellow vanadinite embedded in epoxy
##STATUS=The identification of this mineral has been confirmed only by chemical analysis
##URL=rruff.info/R070075
##MEASURED CHEMISTRY=(Rh_11.58_Cu_1.47_Ru_1.76_Fe_1.35_Pt_0.35_Ir_0.25_Ni_0.19_Os_0.05_)_Î£=17_S_15.00_
134.2708, 0.0000000E+00
134.7529, 2.402710
135.2350, 3.481384
135.7171, 2.029663
136.1992, 0.9105220
136.6814, 2.285522
137.1635, 5.098633
137.6456, 13.45721
138.1277, 32.21356
138.6098, 62.09998
139.0919, 74.12164
139.5741, 66.25702
140.0562, 49.02246
140.5383, 34.15277
141.0204, 21.86420
141.5025, 11.97083
141.9846, 4.195313
142.4668, 2.031067
142.9489, 3.353455
143.4310, 2.473083
143.9131, 12.07977
144.3952, 19.07623
144.8773, 20.66803
145.3595, 23.16748
145.8416, 29.33350
146.3237, 44.22925
146.8058, 54.13214
147.2879, 59.34412
147.7700, 59.65466
148.2522, 54.13971
148.7343, 33.28552
149.2164, 13.83038
149.6985, 3.703308
150.1806, 11.50909
150.6627, 19.07629
151.1449, 26.05029
151.6270, 32.32550
152.1091, 36.95306
152.5912, 37.32977
153.0733, 37.40723
153.5554, 40.13928
154.0376, 49.98169
154.5197, 58.46039
155.0018, 64.91302
155.4839, 69.61078
155.9660, 68.40613
156.4481, 54.62079
156.9303, 36.42261
157.4124, 22.69330
157.8945, 16.75952
158.3766, 14.70660
158.8587, 15.79517
159.3409, 20.72266
159.8230, 25.68811
160.3051, 28.24860
160.7872, 30.04504
161.2693, 33.92133
161.7514, 44.62390
162.2336, 55.29895
162.7157, 61.57959
163.1978, 61.19910
163.6799, 59.72394
164.1620, 60.27930
164.6441, 61.94818
165.1263, 62.17938
165.6084, 59.41064
166.0905, 54.83917
166.5726, 49.11243
167.0547, 40.09375
167.5368, 32.94482
168.0190, 32.26904
168.5011, 37.18030
168.9832, 42.73138
169.4653, 44.80786
169.9474, 46.02655
170.4295, 49.84003
170.9117, 63.29120
171.3938, 75.29913
171.8759, 71.16565
172.3580, 51.91254
172.8401, 35.73248
173.3222, 41.95270
173.8044, 60.95020
174.2865, 75.17267
174.7686, 74.31012
175.2507, 66.10095
175.7328, 59.93182
176.2149, 56.06342
176.6971, 53.14099
177.1792, 49.67285
177.6613, 46.11670
178.1434, 43.70868
178.6255, 44.68890
179.1076, 46.86646
179.5898, 45.81146
180.0719, 40.80182
180.5540, 34.68195
181.0361, 30.68524
181.5182, 28.48456
182.0003, 26.61340
182.4825, 23.25787
182.9646, 19.55316
183.4467, 18.81512
183.9288, 21.96613
184.4109, 27.66486
184.8930, 33.57312
185.3752, 42.76318
185.8573, 49.10443
186.3394, 52.60510
186.8215, 54.30737
187.3036, 53.59961
187.7857, 49.77374
188.2679, 44.34125
188.7500, 40.66956
189.2321, 38.80664
189.7142, 37.17017
190.1963, 32.14087
190.6784, 24.65070
191.1606, 25.59473
191.6427, 41.69574
192.1248, 65.22784
192.6069, 68.42914
193.0890, 48.50928
193.5712, 25.60852
194.0533, 19.41766
194.5354, 29.91663
195.0175, 39.81036
195.4996, 44.72235
195.9817, 45.64276
196.4639, 48.00549
196.9460, 52.52930
197.4281, 56.24847
197.9102, 54.76361
198.3923, 47.55035
198.8744, 41.85974
199.3566, 40.68939
199.8387, 43.63361
200.3208, 43.88824
200.8029, 40.64642
201.2850, 36.61469
201.7671, 34.63000
202.2493, 34.99591
202.7314, 38.21082
203.2135, 46.11951
203.6956, 58.98615
204.1777, 62.01624
204.6598, 52.19196
205.1420, 37.25818
205.6241, 30.10876
206.1062, 33.00708
206.5883, 35.66479
207.0704, 33.52252
207.5525, 25.49512
208.0347, 19.36206
208.5168, 14.93201
208.9989, 12.56964
209.4810, 13.40094
209.9631, 18.28577
210.4452, 24.10205
210.9274, 30.42102
211.4095, 38.56757
211.8916, 41.76642
212.3737, 38.89655
212.8558, 31.54388
213.3379, 22.50079
213.8201, 9.014893
214.3022, 0.4560550
214.7843, 8.2764000E-02
215.2664, 15.58075
215.7485, 25.04016
216.2306, 25.42841
216.7128, 19.55438
217.1949, 17.10608
217.6770, 19.85938
218.1591, 22.98987
218.6412, 23.48425
219.1233, 19.77368
219.6055, 17.77551
220.0876, 18.75806
220.5697, 21.86206
221.0518, 23.78937
221.5339, 22.65588
222.0160, 20.06177
222.4982, 18.84845
222.9803, 19.75098
223.4624, 21.17719
223.9445, 23.88385
224.4266, 27.28046
224.9087, 27.15381
225.3909, 21.58350
225.8730, 14.74408
226.3551, 9.724365
226.8372, 6.711609
227.3193, 4.996887
227.8014, 4.727295
228.2836, 5.815735
228.7657, 7.078979
229.2478, 8.112488
229.7299, 9.809204
230.2120, 13.23022
230.6942, 20.28937
231.1763, 25.36432
231.6584, 28.07379
232.1405, 28.26544
232.6226, 24.31555
233.1047, 12.55078
233.5869, 0.5601810
234.0690, 4.354797
234.5511, 3.775452
235.0332, 7.630432
235.5153, 1.612610
235.9974, 14.45300
236.4796, 20.63593
236.9617, 11.40259
237.4438, 2.552551
237.9259, 10.85632
238.4080, 9.634399
238.8901, 9.896667
239.3723, 14.75519
239.8544, 24.61700
240.3365, 30.00452
240.8186, 28.73010
241.3007, 24.93732
241.7828, 22.67841
242.2650, 22.34521
242.7471, 22.89594
243.2292, 24.52478
243.7113, 27.32983
244.1934, 29.16132
244.6755, 30.57007
245.1577, 30.51477
245.6398, 27.43134
246.1219, 18.74506
246.6040, 11.61218
247.0861, 7.395264
247.5682, 6.159424
248.0504, 7.715332
248.5325, 14.83588
249.0146, 22.23877
249.4967, 23.30975
249.9788, 14.02045
250.4609, 5.858826
250.9431, 1.484924
251.4252, 1.124573
251.9073, 2.112061
252.3894, 4.538269
252.8715, 8.252441
253.3536, 13.65936
253.8358, 23.34302
254.3179, 29.46942
254.8000, 28.40936
255.2821, 19.00891
255.7642, 15.33813
256.2463, 19.14557
256.7285, 26.97247
257.2106, 36.37109
257.6927, 52.32458
258.1748, 58.76105
258.6569, 48.05811
259.1390, 17.60468
259.6212, 1.847046
260.1033, 8.285706
260.5854, 6.162476
261.0675, 0.3645630
261.5496, 14.00983
262.0317, 25.12836
262.5139, 30.54468
262.9960, 29.74493
263.4781, 29.69012
263.9602, 30.19043
264.4423, 31.66467
264.9244, 35.46704
265.4066, 43.32300
265.8887, 48.37524
266.3708, 47.84967
266.8529, 41.53656
267.3350, 35.90985
267.8171, 30.02197
268.2993, 26.24890
268.7814, 29.86853
269.2635, 45.07471
269.7456, 52.69934
270.2277, 43.75708
270.7098, 17.92737
271.1920, 6.271667
271.6741, 12.94995
272.1562, 25.66522
272.6383, 29.35760
273.1204, 21.40619
273.6025, 16.84338
274.0847, 21.69049
274.5668, 35.35693
275.0489, 41.95697
275.5310, 40.15851
276.0131, 34.61664
276.4952, 31.29034
276.9774, 30.98615
277.4595, 26.23413
277.9416, 10.91211
278.4237, 12.51709
278.9058, 17.54419
279.3879, 0.2118530
279.8701, 22.55841
280.3522, 32.49841
280.8343, 29.05438
281.3164, 22.93152
281.7986, 14.76245
282.2807, 6.078552
282.7628, 6.602905
283.2449, 17.81812
283.7270, 31.25439
284.2091, 38.97266
284.6913, 41.05200
285.1734, 39.78760
285.6555, 33.42230
286.1376, 24.72174
286.6197, 26.61035
287.1018, 40.63458
287.5840, 52.80969
288.0661, 44.43597
288.5482, 18.58777
289.0303, 3.185791
289.5124, 9.853699
289.9945, 29.13568
290.4767, 35.81409
290.9588, 29.26410
291.4409, 20.98389
291.9230, 22.23285
292.4051, 31.48767
292.8872, 38.64960
293.3694, 40.82318
293.8515, 38.87842
294.3336, 37.20520
294.8157, 36.71527
295.2978, 35.48615
295.7799, 29.33185
296.2621, 20.06561
296.7442, 12.91309
297.2263, 8.282410
297.7084, 7.211121
298.1905, 15.33258
298.6726, 31.16498
299.1548, 42.67059
299.6369, 33.52820
300.1190, 14.11975
300.6011, 5.036804
301.0832, 13.94104
301.5653, 28.33112
302.0475, 34.54541
302.5296, 33.52271
303.0117, 30.06396
303.4938, 23.45056
303.9759, 17.42468
304.4580, 18.54199
304.9402, 31.08307
305.4223, 44.01367
305.9044, 46.59894
306.3865, 41.00684
306.8686, 33.93060
307.3507, 26.51404
307.8329, 20.64496
308.3150, 18.88434
308.7971, 22.80640
309.2792, 27.19177
309.7613, 28.50421
310.2434, 27.50757
310.7256, 25.82312
311.2077, 22.31567
311.6898, 19.64355
312.1719, 21.04401
312.6540, 28.62207
313.1361, 34.97180
313.6183, 34.28937
314.1004, 29.97906
314.5825, 27.75171
315.0646, 33.56482
315.5467, 39.32690
316.0288, 39.55255
316.5110, 32.59796
316.9931, 27.34363
317.4752, 28.15149
317.9573, 31.89172
318.4394, 35.20435
318.9215, 38.74536
319.4037, 40.26721
319.8858, 37.62140
320.3679, 30.18036
320.8500, 24.62323
321.3321, 25.67334
321.8142, 28.05127
322.2964, 26.66193
322.7785, 10.30212
323.2606, 0.4348750
323.7427, 6.992432
324.2248, 30.59198
324.7069, 44.57666
325.1891, 36.98700
325.6712, 23.73871
326.1533, 16.92694
326.6354, 21.77435
327.1175, 28.23346
327.5996, 37.10681
328.0818, 47.81091
328.5639, 54.49945
329.0460, 56.72827
329.5281, 55.29260
330.0102, 50.27686
330.4923, 38.36182
330.9745, 27.95972
331.4566, 19.15576
331.9387, 12.19769
332.4208, 8.297974
332.9029, 7.595337
333.3850, 9.788635
333.8672, 15.56458
334.3493, 27.81476
334.8314, 36.27997
335.3135, 40.61560
335.7956, 40.90594
336.2777, 35.21985
336.7599, 21.11578
337.2420, 10.43561
337.7241, 8.051575
338.2062, 15.69647
338.6883, 20.05817
339.1704, 19.85236
339.6526, 17.98035
340.1347, 19.85114
340.6168, 26.26263
341.0989, 31.91827
341.5810, 34.64136
342.0631, 34.56512
342.5453, 33.75092
343.0274, 32.44678
343.5095, 29.61346
343.9916, 21.54053
344.4737, 8.643494
344.9558, 1.124573
345.4380, 5.751038
345.9201, 17.81946
346.4022, 20.83765
346.8843, 13.96741
347.3664, 5.871216
347.8485, 4.212769
348.3307, 7.938599
348.8128, 13.30725
349.2949, 20.35999
349.7770, 27.59003
350.2591, 33.63409
350.7412, 38.26868
351.2234, 39.14966
351.7055, 30.86957
352.1876, 18.27979
352.6697, 10.01227
353.1519, 8.688232
353.6340, 10.72229
354.1161, 15.15405
354.5982, 20.59454
355.0803, 22.01154
355.5624, 10.55731
356.0446, 3.360901
356.5267, 8.393433
357.0088, 0.6090090
357.4909, 9.384827
357.9730, 16.68964
358.4551, 21.17639
358.9373, 22.64612
359.4194, 18.61072
359.9015, 13.31165
360.3836, 8.303162
360.8657, 3.198975
361.3478, 1.652527
361.8300, 9.659729
362.3121, 20.57361
362.7942, 26.43573
363.2763, 19.06555
363.7584, 11.96210
364.2405, 10.83563
364.7227, 15.04565
365.2048, 17.56982
365.6869, 17.40021
366.1690, 15.64856
366.6511, 13.14459
367.1332, 9.073547
367.6154, 5.274780
368.0975, 0.9044190
368.5796, 8.176208
369.0617, 6.043274
369.5438, 16.78192
370.0259, 38.73419
370.5081, 47.81665
370.9902, 33.58167
371.4723, 25.68280
371.9544, 28.84302
372.4365, 37.75421
372.9186, 37.57336
373.4008, 21.56482
373.8829, 7.359924
374.3650, 5.055359
374.8471, 17.83850
375.3292, 26.47028
375.8113, 30.15302
376.2935, 30.81317
376.7756, 31.25446
377.2577, 31.64954
377.7398, 30.78772
378.2219, 28.07935
378.7040, 23.64819
379.1862, 18.37177
379.6683, 11.85901
380.1504, 6.083862
380.6325, 3.722717
381.1146, 4.325256
381.5967, 4.056641
382.0789, 0.4326780
382.5610, 3.617676
383.0431, 0.6641850
383.5252, 8.919556
384.0073, 19.07898
384.4894, 26.01697
384.9716, 30.02899
385.4537, 31.41180
385.9358, 29.94189
386.4179, 26.52014
386.9000, 19.95184
387.3821, 11.81689
387.8643, 6.937622
388.3464, 10.57257
388.8285, 17.53992
389.3106, 22.39868
389.7927, 24.17133
390.2748, 26.48804
390.7570, 35.73517
391.2391, 46.27698
391.7212, 49.93042
392.2033, 35.44916
392.6854, 19.71442
393.1675, 10.58575
393.6497, 8.453247
394.1318, 10.33337
394.6139, 21.08655
395.0960, 32.42841
395.5781, 37.66992
396.0602, 30.80896
396.5424, 22.89984
397.0245, 13.67151
397.5066, 4.157288
397.9887, 0.1768800
398.4708, 4.636719
398.9529, 11.93292
399.4351, 19.15240
399.9172, 28.24237
400.3993, 33.74902
400.8814, 35.42316
401.3635, 33.61792
401.8456, 28.06598
402.3278, 13.68073
402.8099, 4.286743
403.2920, 6.721741
403.7741, 22.75836
404.2562, 29.99280
404.7383, 25.11023
405.2205, 17.08685
405.7026, 17.68726
406.1847, 28.71735
406.6668, 34.50385
407.1489, 29.32788
407.6310, 16.62347
408.1132, 8.871460
408.5953, 6.362610
409.0774, 5.805725
409.5595, 4.790649
410.0416, 3.531616
410.5237, 2.884583
411.0059, 2.752197
411.4880, 3.802002
411.9701, 7.515442
412.4522, 13.53540
412.9343, 20.31403
413.4164, 27.81134
413.8986, 34.28546
414.3807, 37.85675
414.8628, 39.22083
415.3449, 37.39673
415.8270, 28.59967
416.3091, 16.53461
416.7913, 7.351379
417.2734, 3.311279
417.7555, 3.127502
418.2376, 8.243896
418.7197, 17.82422
419.2018, 24.95770
419.6840, 27.54523
420.1661, 25.96576
420.6482, 19.95044
421.1303, 0.6563720
421.6124, 11.17786
422.0945, 5.709595
422.5767, 11.01801
423.0588, 22.55011
423.5409, 20.96948
424.0230, 19.39343
424.5052, 23.08368
424.9873, 34.97833
425.4694, 43.18091
425.9515, 46.69604
426.4336, 46.72522
426.9157, 45.38354
427.3979, 42.02515
427.8800, 39.22034
428.3621, 39.06189
428.8442, 40.73706
429.3263, 33.01758
429.8084, 11.64258
430.2906, 7.971069
430.7727, 11.57642
431.2548, 1.714966
431.7369, 12.06812
432.2190, 16.63330
432.7011, 18.02930
433.1833, 21.73779
433.6654, 27.65063
434.1475, 32.05017
434.6296, 32.40674
435.1117, 29.75793
435.5938, 25.69348
436.0760, 19.88049
436.5581, 16.48315
437.0402, 22.68103
437.5223, 34.24634
438.0044, 42.33911
438.4865, 43.49817
438.9687, 40.05664
439.4508, 30.85376
439.9329, 17.33630
440.4150, 6.884521
440.8971, 6.540649
441.3792, 9.968872
441.8614, 11.92542
442.3435, 10.64050
442.8256, 9.383423
443.3077, 8.754150
443.7898, 9.021240
444.2719, 10.67493
444.7541, 17.64905
445.2362, 22.52466
445.7183, 21.94958
446.2004, 14.63525
446.6825, 8.513184
447.1646, 3.836670
447.6468, 0.3865970
448.1289, 2.128784
448.6110, 4.326782
449.0931, 4.317139
449.5752, 0.9263920
450.0573, 4.805542
450.5395, 7.466797
451.0216, 4.472656
451.5037, 4.935913
451.9858, 17.99158
452.4679, 45.29077
452.9500, 55.87927
453.4322, 45.29980
453.9143, 27.01428
454.3964, 21.04114
454.8785, 26.53845
455.3606, 32.06116
455.8427, 33.47632
456.3249, 32.16980
456.8070, 31.31714
457.2891, 30.79993
457.7712, 28.16199
458.2533, 16.33655
458.7354, 2.413818
459.2176, 0.8458250
459.6997, 13.93494
460.1818, 29.70398
460.6639, 31.03992
461.1460, 22.73706
461.6281, 15.41418
462.1103, 15.06592
462.5924, 16.33032
463.0745, 15.53906
463.5566, 11.95959
464.0387, 10.65332
464.5208, 16.96680
465.0030, 24.36658
465.4851, 26.94775
465.9672, 16.67627
466.4493, 9.827026
466.9314, 10.00916
467.4135, 15.55396
467.8957, 20.17798
468.3778, 26.16589
468.8599, 28.22205
469.3420, 22.46387
469.8241, 4.977539
470.3062, 4.189087
470.7884, 2.223999
471.2705, 4.202271
471.7526, 5.873779
472.2347, 2.134766
472.7168, 0.9844970
473.1989, 1.939697
473.6811, 1.000977
474.1632, 1.408813
474.6453, 5.303833
475.1274, 9.075317
475.6095, 12.01917
476.0916, 13.95508
476.5738, 13.39661
477.0559, 9.039917
477.5380, 6.090820
478.0201, 12.28381
478.5022, 23.89294
478.9843, 32.97473
479.4665, 33.48425
479.9486, 31.64221
480.4307, 31.12280
480.9128, 31.56836
481.3949, 31.99231
481.8770, 33.43530
482.3592, 33.83594
482.8413, 31.30627
483.3234, 19.88135
483.8055, 13.21936
484.2876, 18.14917
484.7697, 29.65540
485.2519, 35.32227
485.7340, 27.98291
486.2161, 22.25720
486.6982, 23.35242
487.1803, 32.68518
487.6624, 36.50598
488.1446, 32.23169
488.6267, 24.94666
489.1088, 19.38232
489.5909, 13.48584
490.0730, 12.81177
490.5551, 20.92773
491.0373, 32.30164
491.5194, 30.40332
492.0015, 15.09875
492.4836, 4.178223
492.9657, 14.33350
493.4479, 36.50366
493.9300, 43.15979
494.4121, 32.46851
494.8942, 17.22534
495.3763, 6.399048
495.8585, 7.2509997E-02
496.3406, 1.446289
496.8227, 4.336426
497.3048, 12.20837
497.7869, 20.62915
498.2690, 28.41907
498.7512, 31.21216
499.2333, 18.68616
499.7154, 7.027222
500.1975, 8.135620
500.6796, 27.84009
501.1617, 40.29578
501.6439, 34.72034
502.1260, 22.13916
502.6081, 14.44470
503.0902, 13.88623
503.5723, 15.53174
504.0544, 20.08325
504.5366, 26.58154
505.0187, 30.11279
505.5008, 29.43591
505.9829, 28.25525
506.4650, 29.00269
506.9471, 32.12781
507.4293, 33.26404
507.9114, 32.15271
508.3935, 29.30933
508.8756, 25.04565
509.3577, 19.54211
509.8398, 13.55298
510.3220, 4.835938
510.8041, 1.701782
511.2862, 6.641113
511.7683, 26.81140
512.2504, 41.69153
512.7325, 34.49817
513.2147, 19.29358
513.6968, 11.42090
514.1789, 13.61084
514.6610, 17.83545
515.1431, 21.63330
515.6252, 24.36621
516.1074, 25.27124
516.5895, 23.90967
517.0716, 20.79041
517.5537, 13.92712
518.0358, 4.476929
518.5179, 0.8404540
519.0001, 9.150391
519.4822, 17.33752
519.9643, 21.10229
520.4464, 19.35132
520.9285, 18.11743
521.4106, 17.10876
521.8928, 17.01135
522.3749, 21.03857
522.8570, 29.20142
523.3391, 30.66565
523.8212, 20.35181
524.3033, 5.359009
524.7855, 5.900513
525.2676, 21.53516
525.7497, 36.68799
526.2318, 43.28125
526.7139, 42.59778
527.1960, 33.73230
527.6782, 15.52563
528.1603, 1.518799
528.6424, 10.85608
529.1245, 30.44348
529.6066, 41.28223
530.0887, 29.14966
530.5709, 15.64624
531.0530, 11.72925
531.5351, 14.90808
532.0172, 17.01892
532.4993, 15.22278
532.9814, 12.33801
533.4636, 9.207642
533.9457, 5.546509
534.4278, 2.916748
534.9099, 0.5267330
535.3920, 1.289917
535.8741, 5.262085
536.3563, 23.53308
536.8384, 35.26111
537.3205, 37.01477
537.8026, 31.62683
538.2847, 23.86938
538.7668, 13.38916
539.2490, 6.722290
539.7311, 8.965942
540.2132, 17.61902
540.6953, 25.65332
541.1774, 33.00317
541.6595, 37.77356
542.1417, 35.77722
542.6238, 30.73132
543.1059, 29.26270
543.5880, 35.42163
544.0701, 40.09619
544.5522, 35.88513
545.0344, 25.81738
545.5165, 15.75317
545.9986, 1.849976
546.4807, 6.087402
546.9628, 2.116699
547.4449, 14.21057
547.9271, 29.82349
548.4092, 46.68530
548.8913, 59.34314
549.3734, 64.27051
549.8555, 58.71448
550.3376, 51.30237
550.8198, 39.84595
551.3019, 28.96509
551.7840, 27.91663
552.2661, 38.35999
552.7482, 44.64563
553.2303, 40.59583
553.7125, 30.11401
554.1946, 22.78674
554.6767, 18.92871
555.1588, 19.22034
555.6409, 31.48340
556.1230, 46.04431
556.6052, 42.95276
557.0873, 17.89880
557.5694, 4.137451
558.0515, 0.1539310
558.5336, 16.11450
559.0157, 27.53174
559.4979, 24.09851
559.9800, 19.73792
560.4621, 16.87122
560.9442, 16.32104
561.4263, 20.61816
561.9084, 40.41724
562.3906, 54.80798
562.8727, 56.02148
563.3548, 42.09619
563.8369, 31.20264
564.3190, 22.88013
564.8011, 18.47412
565.2833, 21.07153
565.7654, 31.62170
566.2475, 36.64868
566.7296, 32.78345
567.2117, 26.29712
567.6938, 28.62646
568.1760, 38.43860
568.6581, 47.68298
569.1402, 52.59583
569.6223, 55.15735
570.1044, 59.91284
570.5865, 65.96497
571.0687, 66.31018
571.5508, 51.00574
572.0329, 31.68738
572.5150, 16.56812
572.9971, 5.417603
573.4792, 4.452026
573.9614, 31.63721
574.4435, 63.43835
574.9256, 72.78088
575.4077, 29.70361
575.8898, 0.7479250
576.3719, 10.77539
576.8541, 3.561890
577.3362, 14.40430
577.8183, 52.52026
578.3004, 75.55420
578.7825, 59.90515
579.2646, 10.11499
579.7468, 15.29419
580.2289, 14.28345
580.7110, 1.924316
581.1931, 14.61841
581.6752, 31.71216
582.1573, 37.35168
582.6395, 26.06738
583.1216, 12.62915
583.6037, 11.28870
584.0858, 17.89343
584.5679, 24.74414
585.0500, 30.08081
585.5322, 33.54468
586.0143, 33.72034
586.4964, 31.51599
586.9785, 30.71655
587.4606, 35.57495
587.9427, 39.56470
588.4249, 39.86719
588.9070, 35.94775
589.3891, 29.88306
589.8712, 19.25806
590.3533, 9.733765
590.8354, 7.813599
591.3176, 14.08252
591.7997, 23.83154
592.2818, 38.47583
592.7639, 52.31909
593.2460, 52.20935
593.7281, 40.55420
594.2103, 30.73523
594.6924, 30.96277
595.1745, 35.83728
595.6566, 39.70703
596.1387, 42.35608
596.6208, 42.04626
597.1030, 33.95679
597.5851, 25.01233
598.0672, 20.80322
598.5493, 23.53040
599.0315, 26.86670
599.5136, 32.15137
599.9957, 36.04919
600.4778, 34.57642
600.9600, 21.73889
601.4421, 13.73364
601.9242, 13.09180
602.4063, 18.09412
602.8884, 26.55688
603.3705, 40.62292
603.8527, 46.37329
604.3348, 31.95129
604.8169, 4.938599
605.2990, 5.439087
605.7811, 0.6619870
606.2632, 10.69360
606.7454, 15.43530
607.2275, 17.38379
607.7096, 20.49646
608.1917, 25.70203
608.6738, 30.08545
609.1559, 30.12744
609.6381, 28.95862
610.1202, 30.45093
610.6023, 41.62512
611.0844, 48.89185
611.5665, 47.57996
612.0486, 39.86047
612.5308, 32.42432
613.0129, 23.95630
613.4950, 17.95959
613.9771, 15.83936
614.4592, 17.48169
614.9413, 20.25647
615.4235, 24.37219
615.9056, 27.61255
616.3877, 25.74194
616.8698, 20.50293
617.3519, 21.54456
617.8340, 30.99963
618.3162, 39.77832
618.7983, 36.45581
619.2804, 26.21277
619.7625, 17.98303
620.2446, 12.14160
620.7267, 12.57166
621.2089, 29.41052
621.6910, 54.28687
622.1731, 66.72876
622.6552, 50.69751
623.1373, 32.29163
623.6194, 15.85547
624.1016, 1.670898
624.5837, 2.785889
625.0658, 29.78564
625.5479, 54.16797
626.0300, 56.61804
626.5121, 35.14734
626.9943, 19.68726
627.4764, 11.53174
627.9585, 7.165039
628.4406, 2.015869
628.9227, 2.652588
629.4048, 2.756592
629.8870, 3.200195
630.3691, 13.06445
630.8512, 28.78137
631.3333, 46.51501
631.8154, 58.21460
632.2975, 59.80383
632.7797, 55.31885
633.2618, 42.37952
633.7439, 22.43372
634.2260, 9.414063
634.7081, 8.857544
635.1902, 13.65735
635.6724, 22.59180
636.1545, 37.15308
636.6366, 45.53845
637.1187, 46.95239
637.6008, 42.94800
638.0829, 34.31567
638.5651, 22.50403
639.0472, 16.70471
639.5293, 18.96057
640.0114, 24.21008
640.4935, 27.13782
640.9756, 28.18347
641.4578, 28.39209
641.9399, 30.11682
642.4220, 29.17151
642.9041, 17.28613
643.3862, 0.2583010
643.8683, 7.214478
644.3505, 15.58203
644.8326, 36.65845
645.3147, 42.35486
645.7968, 32.38672
646.2789, 21.65222
646.7610, 5.609009
647.2432, 3.987061
647.7253, 3.581787
648.2074, 30.26270
648.6895, 47.85986
649.1716, 55.08557
649.6537, 55.61145
650.1359, 51.26562
650.6180, 43.59412
651.1001, 37.18481
651.5822, 32.78528
652.0643, 30.46094
652.5464, 31.15247
653.0286, 33.81140
653.5107, 36.48047
653.9928, 36.98193
654.4749, 38.70276
654.9570, 46.06677
655.4391, 57.30078
655.9213, 59.35388
656.4034, 43.66907
656.8855, 29.42651
657.3676, 23.83020
657.8497, 27.19177
658.3318, 32.47070
658.8140, 41.01245
659.2961, 46.39160
659.7782, 39.59204
660.2603, 24.24731
660.7424, 17.57190
661.2245, 22.45154
661.7067, 29.53662
662.1888, 31.20447
662.6709, 28.64233
663.1530, 23.08643
663.6351, 12.89917
664.1172, 4.078613
664.5994, 1.252686
665.0815, 3.235107
665.5636, 2.141968
666.0457, 7.864746
666.5278, 13.84949
667.0099, 10.28247
667.4921, 0.1568600
667.9742, 1.654419
668.4563, 18.33337
668.9384, 33.80005
669.4205, 38.95532
669.9026, 35.59534
670.3848, 33.79822
670.8669, 32.98181
671.3490, 32.34875
671.8311, 30.96619
672.3132, 29.65649
672.7953, 30.08911
673.2775, 33.01416
673.7596, 34.80994
674.2417, 34.88684
674.7238, 32.22778
675.2059, 25.83093
675.6880, 6.042358
676.1702, 4.956299
676.6523, 1.913940
677.1344, 8.731323
677.6165, 14.59875
678.0986, 13.82507
678.5807, 15.19958
679.0629, 21.31323
679.5450, 30.59204
680.0271, 40.47583
680.5092, 50.60400
680.9913, 55.71716
681.4734, 49.01160
681.9556, 38.13501
682.4377, 32.27356
682.9198, 31.34729
683.4019, 32.24231
683.8840, 37.48926
684.3661, 40.93030
684.8483, 36.88257
685.3304, 21.38306
685.8125, 12.44556
686.2946, 16.31812
686.7767, 21.89722
687.2589, 19.95422
687.7410, 7.219238
688.2231, 2.899292
688.7052, 10.70752
689.1873, 21.27795
689.6694, 20.17737
690.1516, 9.915894
690.6337, 2.731689
691.1158, 2.109497
691.5979, 5.511597
692.0800, 13.00867
692.5621, 22.34595
693.0443, 28.79431
693.5264, 26.57092
694.0085, 24.92151
694.4906, 28.23523
694.9727, 35.74719
695.4548, 42.49463
695.9370, 51.14917
696.4191, 54.80725
696.9012, 49.19055
697.3833, 34.95496
697.8654, 26.78833
698.3475, 25.47791
698.8297, 25.64355
699.3118, 23.16821
699.7939, 19.09607
700.2760, 17.01880
700.7581, 17.27197
701.2402, 16.87793
701.7224, 10.68909
702.2045, 4.072632
702.6866, 2.235229
703.1687, 8.054199
703.6508, 15.29016
704.1329, 23.11414
704.6151, 30.62988
705.0972, 37.42346
705.5793, 46.35474
706.0614, 48.91101
706.5435, 42.96521
707.0256, 31.52917
707.5078, 18.82104
707.9899, 4.941162
708.4720, 1.586792
708.9541, 5.367676
709.4362, 17.30823
709.9183, 19.95166
710.4005, 15.47717
710.8826, 11.22546
711.3647, 9.307861
711.8468, 10.21838
712.3289, 17.61145
712.8110, 30.56445
713.2932, 37.70337
713.7753, 30.32019
714.2574, 23.09595
714.7395, 22.10950
715.2216, 28.10779
715.7037, 31.17810
716.1859, 30.35217
716.6680, 29.70007
717.1501, 34.95105
717.6322, 43.66162
718.1143, 42.83618
718.5964, 30.67847
719.0786, 17.92859
719.5607, 14.77856
720.0428, 16.99841
720.5249, 19.33984
721.0070, 20.14172
721.4891, 22.09424
721.9713, 31.11658
722.4534, 39.87463
722.9355, 37.86670
723.4176, 12.84973
723.8997, 0.8988040
724.3818, 1.992432
724.8640, 15.50305
725.3461, 32.45410
725.8282, 53.15234
726.3103, 58.56140
726.7924, 35.90674
727.2745, 3.715698
727.7567, 8.016479
728.2388, 3.941162
728.7209, 1.960449
729.2030, 0.5177000
729.6851, 0.3045650
730.1672, 8.120972
730.6494, 22.78833
731.1315, 35.28687
731.6136, 48.57434
732.0957, 54.21619
732.5778, 47.02966
733.0599, 27.08276
733.5421, 11.97949
734.0242, 1.628540
734.5063, 3.995728
734.9884, 3.720825
735.4705, 1.075195
735.9526, 6.309692
736.4348, 11.82068
736.9169, 16.57532
737.3990, 15.64246
737.8811, 15.73718
738.3632, 27.61450
738.8453, 60.19116
739.3275, 77.52649
739.8096, 54.70239
740.2917, 21.18579
740.7739, 3.602539
741.2560, 9.388794
741.7381, 13.01465
742.2202, 12.33105
742.7023, 11.19983
743.1844, 17.52002
743.6666, 29.78674
744.1487, 33.84497
744.6308, 23.82617
745.1129, 11.06555
745.5950, 9.680298
746.0771, 15.12463
746.5593, 18.43237
747.0414, 11.12866
747.5235, 6.677368
748.0056, 13.37158
748.4877, 26.52625
748.9698, 33.66919
749.4520, 31.74707
749.9341, 28.06714
750.4162, 23.62842
750.8983, 19.29419
751.3804, 19.36633
751.8625, 23.90186
752.3447, 25.95471
752.8268, 19.44763
753.3089, 9.612183
753.7910, 7.819946
754.2731, 12.86792
754.7552, 17.27222
755.2374, 13.40674
755.7195, 10.69250
756.2016, 17.66248
756.6837, 35.28760
757.1658, 42.84619
757.6479, 33.23889
758.1301, 21.69617
758.6122, 15.90894
759.0943, 15.59131
759.5764, 11.48694
760.0585, 2.996826
760.5406, 4.591187
761.0228, 6.272583
761.5049, 3.109741
761.9870, 1.199341
762.4691, 4.716553
762.9512, 6.943970
763.4333, 2.719604
763.9155, 0.8028560
764.3976, 3.782593
764.8797, 24.13452
765.3618, 36.28223
765.8439, 36.06494
766.3260, 30.06628
766.8082, 23.58167
767.2903, 16.39221
767.7724, 9.290894
768.2545, 1.536499
768.7366, 3.365356
769.2188, 1.646118
769.7009, 12.87036
770.1830, 21.07349
770.6651, 23.45154
771.1472, 23.59253
771.6293, 22.80835
772.1115, 21.66125
772.5936, 20.92200
773.0757, 22.44971
773.5578, 21.89526
774.0399, 16.04578
774.5220, 9.643188
775.0042, 13.02063
775.4863, 28.31372
775.9684, 38.03174
776.4505, 37.08484
776.9326, 29.82959
777.4147, 19.05444
777.8969, 7.815063
778.3790, 5.663574
778.8611, 29.60864
779.3432, 51.73254
779.8253, 48.31091
780.3074, 29.00586
780.7896, 20.25537
781.2717, 43.76367
781.7538, 58.34729
782.2359, 53.66541
782.7180, 34.61646
783.2001, 18.84534
783.6823, 6.352173
784.1644, 1.782349
784.6465, 4.928955
785.1286, 3.451416
785.6107, 3.856934
786.0928, 16.11792
786.5750, 26.21802
787.0571, 28.64807
787.5392, 28.92590
788.0213, 30.45862
788.5034, 33.21411
788.9855, 34.83862
789.4677, 33.95691
789.9498, 33.54797
790.4319, 35.66394
790.9140, 39.72668
791.3961, 36.10535
791.8782, 23.66748
792.3604, 16.37634
792.8425, 29.28101
793.3246, 51.88782
793.8067, 67.03943
794.2888, 73.95801
794.7709, 71.13721
795.2531, 43.49939
795.7352, 16.90430
796.2173, 10.73999
796.6994, 29.78577
797.1815, 43.40735
797.6636, 50.33057
798.1458, 52.51660
798.6279, 49.74756
799.1100, 42.05933
799.5921, 36.75488
800.0742, 33.96729
800.5563, 32.12537
801.0385, 28.37341
801.5206, 25.46741
802.0027, 29.47009
802.4848, 41.53027
802.9669, 49.20959
803.4490, 42.06958
803.9312, 31.84021
804.4133, 28.03662
804.8954, 34.47290
805.3775, 32.02100
805.8596, 15.91113
806.3417, 0.3697510
806.8239, 1.819824
807.3060, 7.870483
807.7881, 20.19751
808.2702, 35.30408
808.7523, 43.39160
809.2344, 27.12085
809.7166, 3.364746
810.1987, 7.929443
810.6808, 1.237183
811.1629, 8.750122
811.6450, 21.26514
812.1271, 32.77246
812.6093, 41.05994
813.0914, 46.76111
813.5735, 46.65295
814.0556, 39.83167
814.5377, 29.67798
815.0198, 16.05615
815.5020, 1.875732
815.9841, 2.296997
816.4662, 6.285767
816.9483, 15.81812
817.4304, 20.06934
817.9125, 19.27722
818.3947, 11.58032
818.8768, 12.98865
819.3589, 20.64417
819.8410, 2.023682
820.3231, 30.58472
820.8052, 41.73645
821.2874, 33.87183
821.7695, 26.86731
822.2516, 23.03833
822.7337, 19.86206
823.2158, 13.12390
823.6979, 5.894653
824.1801, 3.801270
824.6622, 9.348511
825.1443, 15.06055
825.6264, 16.29749
826.1085, 16.20422
826.5906, 17.66052
827.0728, 21.19946
827.5549, 27.85034
828.0370, 41.12317
828.5191, 51.69263
829.0012, 45.33704
829.4833, 24.80737
829.9655, 13.42432
830.4476, 15.37512
830.9297, 21.28870
831.4118, 23.53418
831.8939, 23.91064
832.3760, 24.86719
832.8582, 27.88892
833.3403, 29.37561
833.8224, 28.58289
834.3045, 25.76416
834.7866, 20.27319
835.2687, 10.75403
835.7509, 4.554810
836.2330, 1.758423
836.7151, 3.306519
837.1972, 11.69214
837.6793, 25.04785
838.1614, 40.95911
838.6436, 61.08875
839.1257, 74.31934
839.6078, 67.92383
840.0899, 54.33313
840.5720, 45.87634
841.0541, 50.37231
841.5363, 46.99915
842.0184, 29.95911
842.5005, 13.06506
842.9826, 13.74255
843.4647, 30.75269
843.9468, 40.42444
844.4290, 40.02502
844.9111, 35.22546
845.3932, 28.81799
845.8753, 22.64929
846.3574, 19.32764
846.8395, 20.16980
847.3217, 21.18506
847.8038, 20.77722
848.2859, 20.52014
848.7680, 22.11914
849.2501, 27.03589
849.7322, 27.09277
850.2144, 21.12915
850.6965, 14.40955
851.1786, 11.43457
851.6607, 11.89673
852.1428, 15.97668
852.6249, 24.04468
853.1071, 32.02905
853.5892, 40.91113
854.0713, 46.29431
854.5534, 43.16455
855.0355, 26.29956
855.5176, 16.41870
855.9998, 15.86951
856.4819, 18.31140
856.9640, 18.82544
857.4461, 17.77942
857.9282, 18.90918
858.4103, 22.44202
858.8925, 26.31531
859.3746, 26.21960
859.8567, 23.55603
860.3388, 22.58044
860.8209, 24.02466
861.3030, 23.47791
861.7852, 17.84595
862.2673, 11.75269
862.7494, 6.458496
863.2315, 1.674072
863.7136, 4.655151
864.1957, 16.43945
864.6779, 27.52307
865.1600, 31.45605
865.6421, 30.29065
866.1242, 26.10828
866.6063, 19.39587
867.0884, 15.04333
867.5706, 14.54761
868.0527, 17.34705
868.5348, 26.63843
869.0169, 41.82361
869.4990, 52.24268
869.9811, 56.57544
870.4633, 57.39062
870.9454, 54.99951
871.4275, 50.22559
871.9096, 45.77551
872.3917, 41.60449
872.8738, 37.14832
873.3560, 28.32202
873.8381, 22.04846
874.3202, 28.01172
874.8023, 43.65894
875.2844, 46.90112
875.7665, 25.32825
876.2487, 10.61169
876.7308, 13.77747
877.2129, 29.85889
877.6950, 44.29749
878.1771, 55.20813
878.6592, 54.47388
879.1414, 24.62097
879.6235, 6.463379
880.1056, 6.640015
880.5877, 14.29443
881.0698, 30.14661
881.5520, 29.31812
882.0341, 26.96289
882.5162, 26.71777
882.9984, 26.99170
883.4805, 22.75476
883.9626, 13.51819
884.4447, 8.210938
884.9268, 10.48926
885.4089, 15.68347
885.8911, 18.94507
886.3732, 20.06689
886.8553, 18.54968
887.3374, 10.56165
887.8195, 4.627808
888.3016, 4.872192
888.7838, 7.783691
889.2659, 7.838501
889.7480, 2.985596
890.2301, 5.883423
890.7122, 20.26599
891.1943, 35.51282
891.6765, 33.44360
892.1586, 21.46777
892.6407, 17.62097
893.1228, 29.62549
893.6049, 37.63037
894.0870, 20.32056
894.5692, 2.3071000E-02
895.0513, 1.237183
895.5334, 42.45239
896.0155, 56.29822
896.4976, 31.64099
896.9797, 2.963013
897.4619, 7.414185
897.9440, 35.11157
898.4261, 50.49805
898.9082, 50.49084
899.3903, 47.11865
899.8724, 48.56982
900.3546, 50.20288
900.8367, 47.46155
901.3188, 38.46069
901.8009, 34.10974
902.2830, 36.55994
902.7651, 39.80151
903.2473, 39.92822
903.7294, 37.78906
904.2115, 40.28406
904.6936, 46.87634
905.1757, 50.28076
905.6578, 39.10437
906.1400, 28.18713
906.6221, 32.61426
907.1042, 50.26746
907.5863, 59.53088
908.0684, 53.83557
908.5505, 45.18945
909.0327, 35.80933
909.5148, 26.50574
909.9969, 20.06311
910.4790, 16.76892
910.9611, 16.10876
911.4432, 17.88794
911.9254, 23.26904
912.4075, 39.59839
912.8896, 59.85522
913.3717, 68.44995
913.8538, 50.69910
914.3359, 34.85840
914.8181, 25.75781
915.3002, 19.50354
915.7823, 5.118408
916.2644, 16.65356
916.7465, 18.44250
917.2286, 10.67395
917.7108, 43.01086
918.1929, 47.93298
918.6750, 38.23926
919.1571, 31.13574
919.6392, 32.39954
920.1213, 32.66748
920.6035, 28.88562
921.0856, 25.21777
921.5677, 26.19653
922.0498, 32.14111
922.5319, 32.73474
923.0140, 26.90967
923.4962, 22.18274
923.9783, 29.41235
924.4604, 39.23816
924.9425, 39.40210
925.4246, 28.30249
925.9067, 16.83069
926.3889, 2.007080
926.8710, 5.950195
927.3531, 0.4094240
927.8352, 17.43323
928.3173, 28.39429
928.7994, 32.37964
929.2816, 32.79089
929.7637, 29.78491
930.2458, 25.65503
930.7279, 23.07886
931.2100, 21.69983
931.6921, 20.47363
932.1743, 15.50659
932.6564, 15.45959
933.1385, 24.65186
933.6206, 38.87549
934.1027, 48.72534
934.5848, 54.35828
935.0670, 51.55090
935.5491, 35.89294
936.0312, 18.58850
936.5133, 13.32898
936.9954, 15.54993
937.4775, 17.63330
937.9597, 18.41809
938.4418, 18.80786
938.9239, 19.13916
939.4060, 18.20764
939.8881, 13.49451
940.3702, 4.672607
940.8524, 1.110229
941.3345, 3.791138
941.8166, 9.655273
942.2987, 16.72864
942.7808, 24.83740
943.2629, 35.62061
943.7451, 50.04407
944.2272, 56.71790
944.7093, 48.11523
945.1914, 36.13782
945.6735, 25.05017
946.1556, 14.93201
946.6378, 5.947144
947.1199, 1.903442
947.6020, 4.789551
948.0841, 4.929688
948.5662, 16.46558
949.0483, 16.96277
949.5305, 10.54346
950.0126, 11.72852
950.4947, 38.20764
950.9768, 55.34680
951.4589, 55.96045
951.9410, 44.22449
952.4232, 22.88232
952.9053, 6.108154
953.3874, 14.49719
953.8695, 12.22070
954.3516, 42.96802
954.8337, 45.05249
955.3159, 33.21838
955.7980, 26.33252
956.2801, 32.10583
956.7622, 36.37354
957.2443, 38.89978
957.7264, 39.13525
958.2086, 34.75891
958.6907, 26.82812
959.1728, 25.47327
959.6549, 31.28186
960.1370, 35.27576
960.6191, 27.52112
961.1013, 17.41663
961.5834, 13.52063
962.0655, 16.49976
962.5476, 16.29114
963.0297, 9.426025
963.5118, 5.469116
963.9940, 9.009644
964.4761, 17.72534
964.9582, 26.83533
965.4403, 35.20471
965.9224, 37.51343
966.4045, 26.11145
966.8867, 13.31775
967.3688, 1.520630
967.8509, 5.578125
968.3330, 0.8146970
968.8151, 31.92480
969.2972, 45.98669
969.7794, 33.69006
970.2615, 14.23254
970.7436, 15.24561
971.2257, 29.20679
971.7078, 37.20251
972.1899, 35.13232
972.6721, 31.78870
973.1542, 30.94519
973.6363, 31.51099
974.1184, 32.72192
974.6005, 36.16479
975.0826, 33.05981
975.5648, 20.27417
976.0469, 10.17712
976.5290, 11.75146
977.0111, 20.80713
977.4932, 33.77722
977.9753, 48.59900
978.4575, 56.90393
978.9396, 48.72241
979.4217, 40.77051
979.9038, 39.01196
980.3859, 40.94678
980.8680, 40.38318
981.3502, 37.10681
981.8323, 36.80505
982.3144, 42.23730
982.7965, 46.72766
983.2786, 39.14355
983.7607, 26.76404
984.2429, 20.73596
984.7250, 28.40808
985.2071, 30.10400
985.6892, 19.79895
986.1713, 7.271606
986.6534, 0.7845460
987.1356, 4.491577
987.6177, 5.886841
988.0998, 4.992920
988.5819, 2.109741
989.0640, 0.2564700
989.5461, 6.432983
990.0283, 26.66370
990.5104, 57.37109
990.9925, 66.66064
991.4746, 39.69983
991.9567, 20.76929
992.4388, 25.28308
992.9210, 40.81018
993.4031, 37.91174
993.8852, 22.85156
994.3673, 17.59192
994.8494, 36.12952
995.3315, 52.01624
995.8137, 47.28210
996.2958, 34.45325
996.7779, 27.67273
997.2600, 29.02942
997.7421, 29.66162
998.2242, 29.20801
998.7064, 29.18958
999.1885, 32.37659
999.6706, 36.27466
1000.153, 35.54663
1000.635, 30.42944
1001.117, 27.93262
1001.599, 38.15210
1002.081, 42.79797
1002.563, 32.02234
1003.045, 11.71436
1003.528, 6.216553
1004.010, 15.56152
1004.492, 19.10181
1004.974, 4.209229
1005.456, 9.847778
1005.938, 3.360962
1006.420, 28.93176
1006.902, 44.98999
1007.384, 39.10645
1007.867, 35.93652
1008.349, 34.34631
1008.831, 33.32446
1009.313, 31.78955
1009.795, 30.19702
1010.277, 31.71460
1010.759, 35.94849
1011.241, 37.14246
1011.724, 25.61169
1012.206, 17.09204
1012.688, 27.03674
1013.170, 51.74353
1013.652, 61.07153
1014.134, 52.09399
1014.616, 40.49731
1015.098, 30.35217
1015.580, 21.70728
1016.063, 11.04639
1016.545, 2.508911
1017.027, 5.393677
1017.509, 34.76160
1017.991, 54.31360
1018.473, 48.12183
1018.955, 36.65332
1019.437, 38.28003
1019.919, 53.07202
1020.402, 63.38428
1020.884, 68.59607
1021.366, 68.10181
1021.848, 55.81384
1022.330, 42.06323
1022.812, 35.83569
1023.294, 37.02637
1023.776, 38.73804
1024.259, 40.22131
1024.741, 43.00293
1025.223, 48.55115
1025.705, 53.65710
1026.187, 52.05652
1026.669, 45.70154
1027.151, 39.07422
1027.633, 32.75708
1028.115, 29.83826
1028.598, 34.16235
1029.080, 40.92761
1029.562, 45.94604
1030.044, 49.20874
1030.526, 51.23438
1031.008, 52.12036
1031.490, 50.55225
1031.972, 41.45264
1032.455, 32.11584
1032.937, 31.21118
1033.419, 38.04553
1033.901, 47.33813
1034.383, 64.80664
1034.865, 73.79944
1035.347, 68.48828
1035.829, 55.78833
1036.312, 48.86133
1036.794, 46.65540
1037.276, 45.15247
1037.758, 43.33069
1038.240, 42.09290
1038.722, 44.42712
1039.204, 45.79260
1039.686, 41.74854
1040.168, 30.83179
1040.651, 24.48132
1041.133, 23.74976
1041.615, 25.06604
1042.097, 26.57446
1042.579, 28.26953
1043.061, 29.52954
1043.543, 30.92444
1044.025, 34.24744
1044.507, 42.87073
1044.990, 49.81836
1045.472, 55.39697
1045.954, 57.63037
1046.436, 48.97009
1046.918, 32.66919
1047.400, 30.98560
1047.882, 49.31970
1048.364, 63.03101
1048.847, 45.82703
1049.329, 23.88110
1049.811, 20.21802
1050.293, 35.14172
1050.775, 40.16431
1051.257, 33.17578
1051.739, 26.93628
1052.221, 26.95740
1052.703, 31.21265
1053.186, 40.53052
1053.668, 51.12451
1054.150, 54.92297
1054.632, 36.44043
1055.114, 30.14587
1055.596, 45.69080
1056.078, 65.44983
1056.560, 70.14062
1057.042, 62.21655
1057.525, 57.90710
1058.007, 57.45618
1058.489, 52.59497
1058.971, 31.09558
1059.453, 9.464966
1059.935, 4.059814
1060.417, 8.656250
1060.899, 0.4291990
1061.382, 26.37036
1061.864, 47.52710
1062.346, 57.92664
1062.828, 60.65649
1063.310, 60.11169
1063.792, 55.06799
1064.274, 39.20129
1064.756, 0.5961910
1065.239, 18.73816
1065.721, 7.232300
1066.203, 10.34717
1066.685, 17.64746
1067.167, 16.83459
1067.649, 18.27136
1068.131, 21.32886
1068.613, 22.25659
1069.095, 14.70264
1069.578, 9.130371
1070.060, 13.53699
1070.542, 22.22522
1071.024, 23.93738
1071.506, 17.09717
1071.988, 18.08813
1072.470, 29.92004
1072.952, 44.38367
1073.434, 58.60974
1073.917, 67.34155
1074.399, 60.95813
1074.881, 37.17126
1075.363, 24.16101
1075.845, 25.92297
1076.327, 34.82495
1076.809, 53.48438
1077.291, 73.17480
1077.774, 67.28479
1078.256, 44.83435
1078.738, 31.44641
1079.220, 43.08691
1079.702, 52.33411
1080.184, 50.03186
1080.666, 41.20923
1081.148, 26.94812
1081.630, 6.819458
1082.113, 0.1325680
1082.595, 5.980347
1083.077, 11.94800
1083.559, 2.455444
1084.041, 5.186035
1084.523, 6.437866
1085.005, 31.47070
1085.487, 47.82031
1085.969, 53.88977
1086.452, 52.33264
1086.934, 41.44507
1087.416, 29.88110
1087.898, 28.33862
1088.380, 33.55261
1088.862, 43.87109
1089.344, 60.80603
1089.826, 63.83740
1090.309, 35.12122
1090.791, 12.02539
1091.273, 11.94214
1091.755, 27.60620
1092.237, 36.50867
1092.719, 39.51550
1093.201, 40.39490
1093.683, 40.65967
1094.166, 39.01392
1094.648, 33.77026
1095.130, 26.95740
1095.612, 20.89355
1096.094, 16.01733
1096.576, 6.107544
1097.058, 9.317871
1097.540, 17.41724
1098.022, 3.364868
1098.505, 17.76245
1098.987, 37.68628
1099.469, 53.63330
1099.951, 56.25537
1100.433, 37.64319
1100.915, 28.23340
1101.397, 35.23218
1101.879, 45.98511
1102.362, 44.69983
1102.844, 35.66943
1103.326, 24.07715
1103.808, 9.281616
1104.290, 2.680908
1104.772, 9.963745
1105.254, 22.41772
1105.736, 40.21997
1106.219, 59.06458
1106.701, 65.00354
1107.183, 60.10889
1107.665, 52.41760
1108.147, 42.76172
1108.629, 35.09204
1109.111, 33.36768
1109.593, 33.08374
1110.075, 28.90906
1110.557, 19.74280
1111.040, 22.40662
1111.522, 36.72791
1112.004, 50.48572
1112.486, 60.26160
1112.968, 61.66479
1113.450, 44.47742
1113.932, 16.72339
1114.414, 0.2774660
1114.897, 5.378906
1115.379, 0.1517330
1115.861, 17.87402
1116.343, 35.22705
1116.825, 32.83118
1117.307, 22.97192
1117.789, 23.71240
1118.271, 36.35107
1118.754, 46.39282
1119.236, 53.65979
1119.718, 51.27820
1120.200, 32.50378
1120.682, 9.209839
1121.164, 9.054321
1121.646, 24.14709
1122.128, 33.61646
1122.610, 30.04504
1123.093, 27.01843
1123.575, 39.45764
1124.057, 47.47742
1124.539, 35.55164
1125.021, 7.870239
1125.503, 1.445313
1125.985, 13.47961
1126.467, 24.86462
1126.949, 26.99280
1127.432, 24.53528
1127.914, 16.57629
1128.396, 7.616455
1128.878, 2.913086
1129.360, 2.405273
1129.842, 3.899902
1130.324, 7.391479
1130.806, 14.14539
1131.289, 34.26062
1131.771, 50.03723
1132.253, 38.26611
1132.735, 6.933960
1133.217, 5.961670
1133.699, 7.863403
1134.181, 14.98975
1134.663, 7.828247
1135.146, 0.1162110
1135.628, 12.98669
1136.110, 33.54736
1136.592, 44.32935
1137.074, 43.02856
1137.556, 35.78711
1138.038, 19.52295
1138.520, 6.267090
1139.002, 0.3994140
1139.484, 0.2425540
1139.967, 1.506104
1140.449, 4.781860
1140.931, 7.385864
1141.413, 9.270386
1141.895, 8.638428
1142.377, 1.339233
1142.859, 2.259888
1143.341, 6.242554
1143.824, 23.70618
1144.306, 36.11414
1144.788, 43.22437
1145.270, 44.22278
1145.752, 30.07373
1146.234, 20.12964
1146.716, 25.33704
1147.198, 36.65063
1147.681, 46.54663
1148.163, 55.04370
1148.645, 56.03015
1149.127, 49.35107
1149.609, 40.11694
1150.091, 29.14331
1150.573, 19.43176
1151.055, 10.79773
1151.537, 5.797852
1152.020, 12.99744
1152.502, 34.87305
1152.984, 44.94617
1153.466, 38.07349
1153.948, 27.20923
1154.430, 23.64124
1154.912, 22.40515
1155.394, 20.69568
1155.876, 19.28467
1156.359, 13.30884
1156.841, 0.8343510
1157.323, 3.910522
1157.805, 13.39172
1158.287, 34.47314
1158.769, 39.59607
1159.251, 34.06824
1159.733, 22.87292
1160.216, 3.692017
1160.698, 4.373413
1161.180, 2.841309
1161.662, 11.13342
1162.144, 13.50464
1162.626, 12.53467
1163.108, 9.424072
1163.590, 7.415894
1164.073, 14.04321
1164.555, 45.80798
1165.037, 58.15991
1165.519, 39.67554
1166.001, 17.51038
1166.483, 13.90283
1166.965, 21.82861
1167.447, 18.52600
1167.929, 7.525635
1168.411, 3.075806
1168.894, 20.24939
1169.376, 32.01440
1169.858, 32.00586
1170.340, 27.28979
1170.822, 25.10522
1171.304, 25.33203
1171.786, 28.96033
1172.268, 35.48584
1172.751, 39.09802
1173.233, 36.97412
1173.715, 31.91052
1174.197, 22.48340
1174.679, 13.03479
1175.161, 13.35669
1175.643, 21.88037
1176.125, 29.33594
1176.608, 34.33496
1177.090, 37.76062
1177.572, 43.28076
1178.054, 43.74158
1178.536, 32.45374
1179.018, 14.03821
1179.500, 6.108154
1179.982, 7.993408
1180.464, 13.49939
1180.947, 22.28052
1181.429, 29.01196
1181.911, 29.16772
1182.393, 26.07483
1182.875, 21.85547
1183.357, 16.70251
1183.839, 14.12488
1184.321, 13.99963
1184.803, 11.51611
1185.286, 2.853760
1185.768, 5.671387
1186.250, 11.66870
1186.732, 13.07336
1187.214, 6.192383
1187.696, 10.44946
1188.178, 19.91150
1188.660, 22.00610
1189.143, 20.59888
1189.625, 12.35425
1190.107, 7.189819
1190.589, 17.74365
1191.071, 34.93054
1191.553, 45.01379
1192.035, 46.49060
1192.517, 40.96704
1193.000, 27.34460
1193.482, 18.72156
1193.964, 32.07507
1194.446, 49.24451
1194.928, 53.56152
1195.410, 47.35571
1195.892, 38.89661
1196.374, 26.96960
1196.856, 20.78369
1197.339, 22.29529
1197.821, 23.32629
1198.303, 10.35974
1198.785, 3.042725
1199.267, 0.1107180
1199.749, 17.21936
1200.231, 24.34814
1200.713, 16.95520
1201.195, 14.79065
1201.678, 22.82471
1202.160, 30.60120
1202.642, 22.03845
1203.124, 9.305176
1203.606, 6.607422
1204.088, 15.64844
1204.570, 24.74109
1205.052, 35.44250
1205.535, 37.88232
1206.017, 26.47095
1206.499, 13.20801
1206.981, 12.04883
1207.463, 19.11609
1207.945, 32.56299
1208.427, 54.46460
1208.909, 59.49365
1209.391, 42.35144
1209.874, 28.89661
1210.356, 31.78149
1210.838, 39.98206
1211.320, 39.27710
1211.802, 33.01685
1212.284, 25.57117
1212.766, 16.49170
1213.248, 10.31958
1213.730, 6.418579
1214.213, 8.364990
1214.695, 22.63745
1215.177, 40.06409
1215.659, 42.63391
1216.141, 35.84875
1216.623, 31.33521
1217.105, 31.23120
1217.587, 33.87573
1218.070, 40.31787
1218.552, 45.02539
1219.034, 44.65674
1219.516, 40.71155
1219.998, 30.91809
1220.480, 20.11511
1220.962, 20.63684
1221.444, 46.13232
1221.927, 51.80151
1222.409, 31.13843
1222.891, 13.15601
1223.373, 29.77161
1223.855, 57.53564
1224.337, 68.19031
1224.819, 64.71594
1225.301, 58.87927
1225.783, 51.55054
1226.266, 43.80164
1226.748, 35.34155
1227.230, 28.23730
1227.712, 24.21497
1228.194, 22.96057
1228.676, 24.99255
1229.158, 29.88879
1229.640, 35.04712
1230.122, 42.32300
1230.605, 42.30457
1231.087, 31.50061
1231.569, 23.03149
1232.051, 35.69543
1232.533, 54.08350
1233.015, 63.66736
1233.497, 62.77429
1233.979, 50.85156
1234.462, 22.79553
1234.944, 7.675903
1235.426, 13.07068
1235.908, 23.81287
1236.390, 22.52051
1236.872, 18.85168
1237.354, 24.91504
1237.836, 40.66699
1238.318, 47.66577
1238.801, 45.17163
1239.283, 36.70251
1239.765, 20.40845
1240.247, 10.19861
1240.729, 32.46826
1241.211, 60.15479
1241.693, 62.17053
1242.175, 38.83374
1242.658, 25.77332
1243.140, 23.62048
1243.622, 21.46252
1244.104, 14.19910
1244.586, 11.20264
1245.068, 33.10339
1245.550, 55.61743
1246.032, 48.34290
1246.515, 13.73267
1246.997, 2.012573
1247.479, 13.23657
1247.961, 20.19434
1248.443, 9.737793
1248.925, 0.4893800
1249.407, 4.087036
1249.889, 15.36694
1250.371, 26.24915
1250.854, 36.60767
1251.336, 47.48901
1251.818, 58.57971
1252.300, 62.26025
1252.782, 53.40417
1253.264, 40.63586
1253.746, 21.70154
1254.228, 8.065186
1254.710, 11.87659
1255.193, 31.37488
1255.675, 35.97205
1256.157, 27.76575
1256.639, 24.27844
1257.121, 38.73901
1257.603, 50.26086
1258.085, 42.84070
1258.567, 34.26892
1259.050, 40.83838
1259.532, 59.58704
1260.014, 61.29590
1260.496, 49.63818
1260.978, 43.12073
1261.460, 56.89856
1261.942, 67.85181
1262.424, 72.37427
1262.906, 69.09912
1263.389, 49.91028
1263.871, 21.94373
1264.353, 18.84607
1264.835, 34.85083
1265.317, 46.75024
1265.799, 43.51282
1266.281, 36.41870
1266.763, 24.57434
1267.245, 14.53870
1267.728, 12.81506
1268.210, 16.94006
1268.692, 22.31714
1269.174, 28.35669
1269.656, 33.63623
1270.138, 40.57751
1270.620, 41.82336
1271.102, 36.82727
1271.585, 26.48547
1272.067, 2.172363
1272.549, 21.13147
1273.031, 12.90295
1273.513, 17.95728
1273.995, 39.48474
1274.477, 44.03491
1274.959, 43.67810
1275.442, 37.81616
1275.924, 34.27246
1276.406, 47.03186
1276.888, 60.52515
1277.370, 50.49658
1277.852, 26.70605
1278.334, 23.51514
1278.816, 48.48926
1279.298, 61.85181
1279.781, 59.62585
1280.263, 52.39746
1280.745, 47.64099
1281.227, 42.51648
1281.709, 31.14099
1282.191, 18.96191
1282.673, 20.41016
1283.155, 36.23352
1283.637, 47.36670
1284.120, 52.01892
1284.602, 49.84839
1285.084, 34.57874
1285.566, 18.89343
1286.048, 6.140869
1286.530, 0.5170900
1287.012, 8.107666
1287.494, 29.35803
1287.977, 43.66833
1288.459, 49.22522
1288.941, 48.58545
1289.423, 37.37659
1289.905, 27.42542
1290.387, 22.21948
1290.869, 20.42065
1291.351, 20.02612
1291.833, 21.37732
1292.316, 27.43530
1292.798, 33.53479
1293.280, 36.42029
1293.762, 31.49670
1294.244, 24.32251
1294.726, 15.02942
1295.208, 6.495850
1295.690, 0.4865720
1296.172, 0.9821780
1296.655, 9.122437
1297.137, 29.23315
1297.619, 39.96924
1298.101, 36.14941
1298.583, 33.62207
1299.065, 35.73267
1299.547, 36.45142
1300.029, 23.11133
1300.512, 10.17175
1300.994, 12.71570
1301.476, 28.36694
1301.958, 37.03149
1302.440, 38.02051
1302.922, 36.36511
1303.404, 32.76782
1303.886, 28.50940
1304.369, 22.84338
1304.851, 17.81738
1305.333, 18.68384
1305.815, 21.35535
1306.297, 17.55249
1306.779, 8.278198
1307.261, 6.278442
1307.743, 13.49060
1308.225, 18.01025
1308.708, 6.596313
1309.190, 1.238525
1309.672, 3.088135
1310.154, 13.31995
1310.636, 19.25061
1311.118, 16.03296
1311.600, 11.92505
1312.082, 4.398560
1312.564, 0.0000000E+00
##END=



