##NAMES=Microlite
##RRUFFID=R070058
##IDEAL CHEMISTRY=(Ca,Na)_2_Ta_2_(O,OH,F)_7_
##LOCALITY=Kyoktogai pegmatite field, Altai, Xinjinag Province, China
##OWNER=RRUFF
##SOURCE=Michael Scott
##DESCRIPTION=Bluish-green fragments embedded in epoxy, co-type material. Originally labeled as 'natrobistantite', a discredited species.
##STATUS=The identification of this mineral is not yet confirmed.
##URL=rruff.info/R070058
183.5031, 0.0000000E+00
183.9852, 5.314842
184.4673, 6.502598
184.9494, 1.366762
185.4316, 10.45203
185.9137, 52.65254
186.3958, 90.57746
186.8779, 98.43736
187.3600, 77.24786
187.8421, 47.63850
188.3243, 32.08990
188.8064, 40.14811
189.2885, 37.12212
189.7706, 17.65504
190.2527, 2.627323
190.7348, 7.058170
191.2170, 28.54079
191.6991, 52.74438
192.1812, 65.79809
192.6633, 67.02448
193.1454, 59.13007
193.6275, 8.968018
194.1097, 19.94506
194.5918, 26.70360
195.0739, 132.1417
195.5560, 227.5761
196.0381, 247.3428
196.5202, 179.8744
197.0024, 144.4768
197.4845, 156.1809
197.9666, 178.1075
198.4487, 199.1288
198.9308, 216.2831
199.4129, 227.5822
199.8951, 230.4394
200.3772, 224.6164
200.8593, 221.2756
201.3414, 232.6268
201.8235, 234.2250
202.3056, 200.8750
202.7878, 147.4509
203.2699, 115.5022
203.7520, 137.4028
204.2341, 209.4464
204.7162, 250.5055
205.1983, 251.7205
205.6805, 238.4826
206.1626, 205.3166
206.6447, 163.6513
207.1268, 138.3974
207.6089, 147.0906
208.0910, 182.7611
208.5732, 197.0857
209.0553, 167.5851
209.5374, 145.3718
210.0195, 150.7276
210.5016, 171.6733
210.9837, 184.7819
211.4659, 177.3846
211.9480, 156.0001
212.4301, 146.5343
212.9122, 153.6417
213.3943, 165.4948
213.8764, 187.3783
214.3586, 211.3878
214.8407, 224.3295
215.3228, 220.0969
215.8049, 204.6832
216.2870, 192.8904
216.7691, 175.0065
217.2513, 174.2393
217.7334, 211.7519
218.2155, 260.7715
218.6976, 284.4036
219.1797, 269.7031
219.6618, 240.3551
220.1440, 242.0507
220.6261, 313.6894
221.1082, 350.3560
221.5903, 308.2532
222.0724, 249.7078
222.5546, 247.1907
223.0367, 317.1046
223.5188, 402.9115
224.0009, 423.9706
224.4830, 344.8903
224.9651, 277.1095
225.4473, 211.9331
225.9294, 163.4883
226.4115, 153.6068
226.8936, 181.0505
227.3757, 213.5418
227.8578, 212.9268
228.3400, 165.5561
228.8221, 139.5786
229.3042, 148.0171
229.7863, 164.8792
230.2684, 177.8234
230.7505, 184.6019
231.2327, 185.1767
231.7148, 176.5879
232.1969, 155.9183
232.6790, 162.1155
233.1611, 228.1543
233.6432, 284.9115
234.1254, 293.5130
234.6075, 263.7258
235.0896, 229.8515
235.5717, 215.8839
236.0538, 220.9424
236.5359, 226.5444
237.0181, 234.3360
237.5002, 240.7921
237.9823, 238.7621
238.4644, 234.9881
238.9465, 245.7101
239.4286, 282.3755
239.9108, 334.6678
240.3929, 354.5336
240.8750, 311.2298
241.3571, 267.5656
241.8392, 226.6176
242.3213, 199.5039
242.8035, 204.9390
243.2856, 251.5722
243.7677, 315.7120
244.2498, 340.5044
244.7319, 277.0991
245.2140, 235.2412
245.6962, 232.0327
246.1783, 242.0859
246.6604, 242.1300
247.1425, 225.4236
247.6246, 201.5460
248.1067, 185.7582
248.5889, 184.0154
249.0710, 178.1138
249.5531, 159.3806
250.0352, 143.3161
250.5173, 145.5473
250.9994, 164.8256
251.4816, 183.1721
251.9637, 178.3779
252.4458, 143.0327
252.9279, 121.8693
253.4100, 114.3070
253.8921, 119.3396
254.3743, 146.3477
254.8564, 187.5905
255.3385, 224.0033
255.8206, 242.1658
256.3027, 240.1692
256.7849, 219.1756
257.2670, 122.1591
257.7491, 64.41452
258.2312, 108.0920
258.7133, 209.2891
259.1954, 286.2962
259.6776, 287.0660
260.1597, 226.3973
260.6418, 199.2495
261.1239, 245.0827
261.6060, 273.0571
262.0881, 254.5404
262.5703, 217.2425
263.0524, 192.9126
263.5345, 195.7700
264.0166, 212.7194
264.4987, 212.0817
264.9808, 184.9121
265.4630, 159.6667
265.9451, 128.9855
266.4272, 106.1538
266.9093, 109.0141
267.3914, 138.4390
267.8735, 166.4441
268.3557, 149.5899
268.8378, 73.13599
269.3199, 26.74235
269.8020, 38.68626
270.2841, 68.20152
270.7662, 107.7960
271.2484, 151.7357
271.7305, 186.2670
272.2126, 194.4629
272.6947, 177.6053
273.1768, 175.0456
273.6589, 204.3878
274.1411, 223.0681
274.6232, 205.4780
275.1053, 163.5349
275.5874, 122.3719
276.0695, 91.72725
276.5516, 72.82931
277.0338, 74.07550
277.5159, 107.9979
277.9980, 130.8598
278.4801, 106.5033
278.9622, 67.10633
279.4443, 51.60783
279.9265, 75.17932
280.4086, 116.8577
280.8907, 159.8648
281.3728, 206.3873
281.8549, 228.4856
282.3370, 194.7015
282.8192, 145.2341
283.3013, 123.3771
283.7834, 137.1763
284.2655, 160.3176
284.7476, 173.2518
285.2297, 177.6899
285.7119, 188.5528
286.1940, 213.6721
286.6761, 238.3646
287.1582, 251.6376
287.6403, 253.9092
288.1224, 237.0017
288.6046, 172.4736
289.0867, 93.50258
289.5688, 62.68426
290.0509, 92.82514
290.5330, 137.6148
291.0151, 164.3950
291.4973, 173.8101
291.9794, 168.9344
292.4615, 128.3458
292.9436, 89.40382
293.4257, 95.85042
293.9078, 141.8752
294.3900, 171.7162
294.8721, 147.8253
295.3542, 84.33386
295.8363, 40.31108
296.3184, 30.50491
296.8005, 19.92197
297.2827, 18.97176
297.7648, 40.45361
298.2469, 25.24605
298.7290, 41.59255
299.2111, 25.00661
299.6932, 62.76064
300.1754, 55.60514
300.6575, 55.52096
301.1396, 75.36662
301.6217, 99.99167
302.1038, 112.7221
302.5859, 111.2238
303.0681, 107.2878
303.5501, 114.8493
304.0323, 139.8465
304.5144, 158.0417
304.9965, 167.7811
305.4786, 169.6016
305.9607, 158.5866
306.4428, 140.7433
306.9250, 127.4495
307.4071, 126.5345
307.8892, 135.5683
308.3713, 140.8818
308.8534, 146.9205
309.3355, 143.9145
309.8177, 122.1408
310.2998, 93.36134
310.7819, 73.56251
311.2640, 69.44542
311.7461, 71.84404
312.2282, 57.77182
312.7104, 2.486633
313.1925, 15.09961
313.6746, 52.51226
314.1567, 123.7450
314.6388, 143.7391
315.1209, 106.4221
315.6031, 41.58342
316.0852, 33.62497
316.5673, 66.66473
317.0494, 100.7469
317.5315, 1.210659
318.0136, 29.07693
318.4958, 52.94585
318.9779, 24.84722
319.4600, 4.865477
319.9421, 5.468111
320.4242, 10.83773
320.9063, 8.865028
321.3885, 20.56371
321.8706, 18.39888
322.3527, 16.86604
322.8348, 29.55625
323.3169, 1.880590
323.7990, 43.78281
324.2812, 86.56811
324.7633, 100.4186
325.2454, 87.56295
325.7275, 80.55559
326.2096, 88.45329
326.6917, 105.1741
327.1739, 132.7450
327.6560, 172.0706
328.1381, 184.4456
328.6202, 131.6634
329.1023, 47.85983
329.5844, 10.84749
330.0666, 11.24914
330.5487, 13.48600
331.0308, 5.327387
331.5129, 69.97398
331.9950, 103.4198
332.4771, 67.83458
332.9593, 29.06223
333.4414, 46.29686
333.9235, 104.9542
334.4056, 134.7450
334.8877, 95.45772
335.3698, 11.41677
335.8520, 7.953711
336.3341, 30.34312
336.8162, 33.16617
337.2983, 0.4989850
337.7804, 9.770782
338.2625, 33.60628
338.7447, 29.91244
339.2268, 15.35762
339.7089, 12.91333
340.1910, 31.02071
340.6731, 31.30378
341.1552, 11.23746
341.6374, 25.15761
342.1195, 0.4298870
342.6016, 42.06157
343.0837, 101.7618
343.5658, 109.5206
344.0479, 74.11705
344.5301, 59.80906
345.0122, 89.60127
345.4943, 109.9195
345.9764, 99.05201
346.4585, 80.17461
346.9406, 84.35948
347.4228, 123.0769
347.9049, 165.4331
348.3870, 162.2892
348.8691, 101.0922
349.3512, 59.21730
349.8333, 57.99442
350.3155, 70.13456
350.7976, 84.60644
351.2797, 99.85544
351.7618, 113.6744
352.2439, 121.5335
352.7260, 128.4760
353.2082, 148.3936
353.6903, 187.0491
354.1724, 217.9886
354.6545, 225.4811
355.1366, 215.0610
355.6187, 185.3704
356.1009, 122.0253
356.5830, 64.27839
357.0651, 60.44531
357.5472, 98.89731
358.0293, 124.7144
358.5114, 116.0509
358.9936, 90.33812
359.4757, 79.38992
359.9578, 88.40640
360.4399, 81.39141
360.9220, 27.72974
361.4041, 13.06001
361.8863, 38.47173
362.3684, 21.35196
362.8505, 2.135262
363.3326, 1.867514
363.8147, 33.94245
364.2968, 37.34914
364.7790, 9.978856
365.2611, 37.38599
365.7432, 72.72317
366.2253, 94.74165
366.7074, 101.4064
367.1895, 93.38262
367.6717, 74.25749
368.1538, 62.93666
368.6359, 59.87518
369.1180, 64.85440
369.6001, 84.46410
370.0822, 105.9446
370.5644, 125.3466
371.0465, 138.5412
371.5286, 139.7004
372.0107, 112.3848
372.4928, 58.83255
372.9749, 49.89917
373.4571, 128.5514
373.9392, 190.0567
374.4213, 188.3667
374.9034, 153.0224
375.3855, 132.6823
375.8676, 143.3944
376.3498, 162.7412
376.8319, 156.4609
377.3140, 122.2403
377.7961, 104.7550
378.2782, 127.0267
378.7603, 155.4646
379.2425, 152.9217
379.7246, 120.9981
380.2067, 96.09425
380.6888, 106.9506
381.1709, 132.8631
381.6530, 128.1962
382.1352, 86.84993
382.6173, 49.80668
383.0994, 50.80215
383.5815, 83.12240
384.0636, 98.04456
384.5457, 88.91625
385.0279, 70.08112
385.5100, 31.21704
385.9921, 10.69164
386.4742, 12.18864
386.9563, 25.51237
387.4384, 87.42918
387.9206, 117.5394
388.4027, 101.6794
388.8848, 88.03609
389.3669, 79.69841
389.8490, 68.36517
390.3311, 40.79229
390.8133, 4.124279
391.2954, 18.02022
391.7775, 7.189373
392.2596, 31.55809
392.7417, 57.94876
393.2238, 59.21539
393.7060, 65.28146
394.1881, 85.73854
394.6702, 112.2977
395.1523, 140.5103
395.6344, 168.6401
396.1165, 188.2756
396.5987, 188.3076
397.0808, 170.6456
397.5629, 152.8110
398.0450, 128.1429
398.5271, 112.7626
399.0092, 120.6109
399.4914, 145.1795
399.9735, 166.0043
400.4556, 170.8519
400.9377, 164.3800
401.4198, 145.1103
401.9019, 114.5661
402.3841, 96.65342
402.8662, 109.0531
403.3483, 130.4605
403.8304, 114.7907
404.3125, 42.76624
404.7946, 3.825644
405.2768, 16.64027
405.7589, 61.66766
406.2410, 86.40101
406.7231, 84.08856
407.2052, 69.20666
407.6873, 53.47029
408.1695, 36.84035
408.6516, 21.95165
409.1337, 13.26903
409.6158, 1.060081
410.0979, 9.506152
410.5800, 22.73667
411.0622, 24.41806
411.5443, 15.36237
412.0264, 31.88594
412.5085, 71.44980
412.9906, 91.48349
413.4727, 98.57269
413.9549, 62.61000
414.4370, 41.03915
414.9191, 75.24486
415.4012, 148.0728
415.8833, 206.4078
416.3654, 216.2698
416.8476, 198.2872
417.3297, 194.1627
417.8118, 209.7775
418.2939, 215.0419
418.7760, 190.2644
419.2581, 151.0753
419.7403, 124.5383
420.2224, 116.5435
420.7045, 108.2318
421.1866, 78.30065
421.6687, 44.67665
422.1508, 51.31758
422.6330, 105.7205
423.1151, 148.3933
423.5972, 114.7570
424.0793, 12.99520
424.5614, 17.90003
425.0435, 92.58043
425.5257, 182.9575
426.0078, 190.0259
426.4899, 146.5550
426.9720, 94.59592
427.4541, 50.27119
427.9362, 19.26824
428.4184, 13.78618
428.9005, 45.83538
429.3826, 65.05015
429.8647, 61.79771
430.3468, 55.11719
430.8289, 47.95778
431.3111, 43.60271
431.7932, 49.09661
432.2753, 72.42328
432.7574, 100.4996
433.2395, 105.2448
433.7216, 83.16343
434.2038, 55.98024
434.6859, 16.58196
435.1680, 13.67572
435.6501, 12.37080
436.1322, 21.38996
436.6143, 62.99230
437.0965, 116.6946
437.5786, 164.4515
438.0607, 166.2587
438.5428, 120.7543
439.0249, 90.96236
439.5070, 128.7446
439.9892, 212.7123
440.4713, 239.2378
440.9534, 153.4665
441.4355, 83.83820
441.9176, 63.43631
442.3997, 73.37411
442.8819, 98.42897
443.3640, 132.9759
443.8461, 167.0829
444.3282, 194.9600
444.8103, 220.8271
445.2924, 227.1638
445.7746, 198.2182
446.2567, 165.8306
446.7388, 129.5435
447.2209, 97.24659
447.7030, 82.74081
448.1852, 92.30354
448.6673, 104.7093
449.1494, 80.65553
449.6315, 23.37895
450.1136, 5.022430
450.5957, 54.28727
451.0779, 115.5584
451.5600, 152.3284
452.0421, 166.0966
452.5242, 157.3730
453.0063, 110.5191
453.4884, 53.79279
453.9706, 1.323832
454.4527, 4.419451
454.9348, 4.386311
455.4169, 24.42417
455.8990, 117.0534
456.3811, 132.7356
456.8633, 15.65406
457.3454, 8.538441
457.8275, 11.71278
458.3096, 78.31979
458.7917, 83.48003
459.2738, 39.16004
459.7560, 2.642435
460.2381, 10.14471
460.7202, 7.228493
461.2023, 21.70750
461.6844, 33.28255
462.1665, 42.74858
462.6487, 39.05337
463.1308, 41.75061
463.6129, 70.69045
464.0950, 122.2732
464.5771, 164.5928
465.0592, 165.4128
465.5414, 142.8112
466.0235, 144.1203
466.5056, 172.8965
466.9877, 201.2221
467.4698, 218.5252
467.9519, 221.3154
468.4341, 206.7751
468.9162, 167.4639
469.3983, 137.0465
469.8804, 139.1251
470.3625, 148.8584
470.8446, 136.4634
471.3268, 100.2175
471.8089, 62.69850
472.2910, 42.90073
472.7731, 39.06437
473.2552, 29.40232
473.7373, 14.49755
474.2195, 26.82417
474.7016, 14.48823
475.1837, 79.00030
475.6658, 138.9817
476.1479, 184.5221
476.6300, 202.7077
477.1122, 163.5930
477.5943, 73.92618
478.0764, 24.53526
478.5585, 27.58470
479.0406, 45.56451
479.5227, 82.86713
480.0049, 115.7952
480.4870, 99.54925
480.9691, 3.284229
481.4512, 19.34398
481.9333, 3.902315
482.4154, 11.89925
482.8976, 77.58712
483.3797, 122.3129
483.8618, 154.6648
484.3439, 185.6214
484.8260, 213.9602
485.3081, 208.3405
485.7903, 127.9661
486.2724, 71.76699
486.7545, 77.18932
487.2366, 110.4801
487.7187, 138.0236
488.2008, 149.2090
488.6830, 153.9631
489.1651, 165.1686
489.6472, 185.7111
490.1293, 198.0403
490.6114, 196.5182
491.0935, 190.6935
491.5757, 183.4434
492.0578, 174.5842
492.5399, 162.4129
493.0220, 143.2839
493.5041, 128.3973
493.9862, 132.2425
494.4684, 149.3097
494.9505, 163.8072
495.4326, 169.4848
495.9147, 159.9389
496.3968, 118.2748
496.8789, 46.95961
497.3611, 1.706593
497.8432, 18.64196
498.3253, 14.68238
498.8074, 43.21434
499.2895, 112.7364
499.7716, 128.7859
500.2538, 79.34360
500.7359, 19.48348
501.2180, 18.45316
501.7001, 80.80920
502.1822, 117.3010
502.6643, 109.5410
503.1465, 100.6778
503.6286, 99.31084
504.1107, 107.7937
504.5928, 135.6303
505.0749, 189.4533
505.5570, 231.9952
506.0392, 218.1349
506.5213, 167.4703
507.0034, 144.2355
507.4855, 160.9120
507.9676, 177.1551
508.4497, 158.5662
508.9319, 112.1044
509.4140, 91.06268
509.8961, 110.5308
510.3782, 134.6514
510.8603, 159.2564
511.3424, 180.8811
511.8246, 197.4814
512.3067, 205.9502
512.7888, 202.3826
513.2709, 179.9021
513.7531, 137.8711
514.2352, 115.8850
514.7173, 133.9538
515.1994, 135.8446
515.6815, 98.14202
516.1636, 48.80478
516.6458, 12.32508
517.1279, 6.658435
517.6100, 4.511023
518.0921, 33.07738
518.5742, 92.69618
519.0563, 151.6237
519.5385, 208.6841
520.0206, 231.9889
520.5027, 188.0357
520.9848, 104.3092
521.4669, 76.80362
521.9490, 152.4641
522.4312, 193.8336
522.9133, 155.5177
523.3954, 93.70970
523.8775, 48.53261
524.3596, 26.16027
524.8417, 21.29582
525.3239, 32.59202
525.8060, 54.31340
526.2881, 62.20863
526.7702, 44.57657
527.2523, 44.82428
527.7344, 99.87869
528.2166, 155.1928
528.6987, 171.1710
529.1808, 149.3993
529.6629, 119.5320
530.1450, 88.35010
530.6271, 61.08230
531.1093, 45.14262
531.5914, 38.08337
532.0735, 32.54764
532.5556, 27.68430
533.0377, 28.46366
533.5198, 49.68647
534.0020, 108.2785
534.4841, 136.7496
534.9662, 107.5978
535.4483, 76.98697
535.9304, 73.48289
536.4125, 90.02139
536.8947, 109.4499
537.3768, 126.4624
537.8589, 135.5276
538.3410, 126.0419
538.8231, 96.68131
539.3052, 61.71327
539.7874, 21.54988
540.2695, 9.106217
540.7516, 22.43515
541.2337, 22.52060
541.7158, 16.29261
542.1979, 6.504341
542.6801, 18.94381
543.1622, 20.58749
543.6443, 28.99281
544.1264, 13.22929
544.6085, 40.08691
545.0906, 137.6559
545.5728, 152.8294
546.0549, 89.12975
546.5370, 36.71113
547.0191, 16.64518
547.5012, 5.269661
547.9833, 14.86177
548.4655, 91.39398
548.9476, 125.6096
549.4297, 110.0306
549.9117, 75.17789
550.3939, 38.17451
550.8760, 0.7881090
551.3581, 3.644550
551.8402, 57.91478
552.3223, 61.84052
552.8044, 3.315384
553.2866, 141.9593
553.7687, 172.5544
554.2508, 67.60918
554.7329, 4.526239
555.2150, 41.16011
555.6971, 95.65430
556.1793, 116.8632
556.6614, 114.2893
557.1435, 117.7481
557.6256, 142.8158
558.1077, 176.0042
558.5898, 189.1729
559.0720, 174.5224
559.5541, 181.4299
560.0362, 240.6260
560.5183, 288.3232
561.0004, 288.2504
561.4825, 254.7747
561.9647, 214.0893
562.4468, 164.9112
562.9289, 127.3456
563.4110, 125.3986
563.8931, 143.5212
564.3752, 148.7489
564.8574, 135.4951
565.3395, 121.9791
565.8216, 124.1304
566.3037, 139.7576
566.7858, 149.7864
567.2679, 157.8496
567.7501, 154.6271
568.2322, 125.9350
568.7143, 95.38288
569.1964, 81.09571
569.6785, 84.15197
570.1606, 96.94312
570.6428, 121.6527
571.1249, 146.7366
571.6070, 141.9722
572.0891, 106.7617
572.5712, 82.24389
573.0533, 82.52108
573.5355, 97.23511
574.0176, 118.6906
574.4997, 148.3604
574.9818, 159.2290
575.4639, 128.5211
575.9460, 103.0361
576.4282, 112.3864
576.9103, 139.6149
577.3924, 159.9952
577.8745, 164.5388
578.3566, 153.3279
578.8387, 116.3936
579.3209, 53.87281
579.8030, 36.51145
580.2851, 85.06349
580.7672, 137.6305
581.2493, 177.6538
581.7314, 202.0437
582.2136, 199.2845
582.6957, 162.7511
583.1778, 138.5802
583.6599, 174.3579
584.1420, 215.2952
584.6241, 183.4270
585.1063, 92.96033
585.5884, 24.48137
586.0705, 21.98989
586.5526, 59.64223
587.0347, 83.26649
587.5168, 87.90175
587.9990, 90.59098
588.4811, 82.14670
588.9632, 81.04163
589.4453, 104.7169
589.9274, 138.5625
590.4095, 156.2121
590.8917, 147.1070
591.3738, 127.6303
591.8559, 113.6568
592.3380, 100.4014
592.8201, 63.62969
593.3022, 1.005968
593.7844, 3.964302
594.2665, 24.57796
594.7486, 142.2066
595.2307, 193.0454
595.7128, 93.49297
596.1949, 41.25629
596.6771, 90.16347
597.1592, 146.8238
597.6413, 136.5011
598.1234, 74.25292
598.6055, 27.47612
599.0876, 37.65871
599.5698, 74.80331
600.0519, 96.74911
600.5340, 102.2257
601.0161, 85.03894
601.4982, 36.36617
601.9803, 8.787384
602.4625, 14.45881
602.9446, 8.403000
603.4267, 25.63676
603.9088, 114.2308
604.3909, 172.9182
604.8730, 149.8701
605.3552, 104.6476
605.8373, 101.8956
606.3194, 140.0671
606.8015, 175.8409
607.2836, 177.2677
607.7657, 151.5883
608.2479, 110.6310
608.7300, 49.61415
609.2121, 1.581398
609.6942, 4.765882
610.1763, 6.631487
610.6584, 1.285943
611.1406, 13.39764
611.6227, 6.770784
612.1048, 13.97060
612.5869, 12.72801
613.0690, 15.34555
613.5511, 59.77896
614.0333, 83.50129
614.5154, 79.68795
614.9975, 59.53810
615.4796, 28.36030
615.9617, 8.482172
616.4438, 14.25859
616.9260, 16.61487
617.4081, 42.31587
617.8902, 37.10613
618.3723, 29.30989
618.8544, 51.75527
619.3365, 99.86805
619.8187, 127.6365
620.3008, 109.3849
620.7829, 78.28900
621.2650, 45.29413
621.7471, 19.01746
622.2292, 23.86137
622.7114, 63.15006
623.1935, 98.18431
623.6756, 81.51496
624.1577, 19.53651
624.6398, 16.74506
625.1219, 115.6524
625.6041, 188.1842
626.0862, 187.8444
626.5683, 156.8986
627.0504, 112.3704
627.5325, 60.34956
628.0146, 38.75406
628.4968, 84.67767
628.9789, 147.7312
629.4610, 199.9317
629.9431, 233.4694
630.4252, 218.1823
630.9073, 148.1509
631.3895, 70.98628
631.8716, 41.10247
632.3537, 57.48386
632.8358, 72.15604
633.3179, 88.96606
633.8000, 97.17423
634.2822, 80.43278
634.7643, 64.27687
635.2464, 74.40574
635.7285, 109.3585
636.2106, 139.9866
636.6927, 164.1926
637.1749, 168.7068
637.6570, 118.9394
638.1391, 40.13264
638.6212, 5.630260
639.1033, 36.08854
639.5854, 79.82779
640.0676, 77.68007
640.5497, 31.12196
641.0318, 8.321400
641.5139, 21.74716
641.9960, 38.55550
642.4781, 60.35191
642.9603, 76.17152
643.4424, 71.89328
643.9245, 50.14609
644.4066, 34.21527
644.8887, 34.93335
645.3708, 45.64311
645.8530, 69.66227
646.3351, 97.85961
646.8172, 101.9592
647.2993, 75.22267
647.7814, 49.17339
648.2635, 58.81927
648.7457, 100.3712
649.2278, 114.6183
649.7099, 78.16216
650.1920, 56.64725
650.6741, 72.72205
651.1563, 99.55928
651.6384, 124.4749
652.1205, 145.8618
652.6026, 153.2956
653.0847, 140.7683
653.5668, 115.5301
654.0490, 75.20959
654.5311, 28.35787
655.0132, 13.25473
655.4953, 0.3446120
655.9774, 4.344044
656.4595, 4.107426
656.9417, 78.84241
657.4238, 125.3554
657.9059, 121.2707
658.3880, 112.7902
658.8701, 120.2995
659.3522, 113.6291
659.8344, 55.92731
660.3165, 13.72806
660.7986, 46.77947
661.2807, 51.36705
661.7628, 35.20870
662.2449, 11.74190
662.7271, 13.00499
663.2092, 24.63013
663.6913, 22.00941
664.1734, 15.64666
664.6555, 5.051334
665.1376, 37.44241
665.6198, 78.78683
666.1019, 142.7095
666.5840, 163.0663
667.0661, 95.51134
667.5482, 25.38859
668.0303, 12.88075
668.5125, 39.11007
668.9946, 61.44471
669.4767, 79.27478
669.9588, 80.80296
670.4409, 40.79011
670.9230, 2.771811
671.4052, 7.142832
671.8873, 24.47972
672.3694, 62.34499
672.8515, 89.76936
673.3336, 112.3036
673.8157, 151.5532
674.2979, 210.4849
674.7800, 207.8331
675.2621, 100.0336
675.7442, 8.168259
676.2263, 16.68627
676.7084, 82.51736
677.1906, 115.3256
677.6727, 104.0915
678.1548, 90.00246
678.6369, 81.04297
679.1190, 74.06071
679.6011, 64.77822
680.0833, 55.99640
680.5654, 53.02774
681.0475, 58.00111
681.5296, 70.48687
682.0117, 98.87168
682.4938, 137.4565
682.9760, 144.1044
683.4581, 112.8701
683.9402, 81.30840
684.4223, 58.54432
684.9044, 52.51551
685.3865, 88.27640
685.8687, 186.8701
686.3508, 215.7195
686.8329, 92.81863
687.3150, 8.746149
687.7971, 2.278990
688.2792, 55.39889
688.7614, 97.85094
689.2435, 111.2919
689.7256, 114.7485
690.2077, 125.1393
690.6898, 133.5817
691.1719, 115.5803
691.6541, 75.92723
692.1362, 52.30996
692.6183, 56.22462
693.1004, 74.26505
693.5825, 95.22018
694.0646, 118.4924
694.5468, 135.0193
695.0289, 132.5898
695.5110, 140.5830
695.9931, 185.4167
696.4752, 221.7996
696.9573, 200.2769
697.4395, 139.8761
697.9216, 113.4643
698.4037, 170.7799
698.8858, 232.0141
699.3679, 219.6633
699.8500, 165.5397
700.3322, 123.9794
700.8143, 103.9550
701.2964, 105.7947
701.7785, 133.2563
702.2606, 169.9746
702.7427, 167.7460
703.2249, 107.4991
703.7070, 80.58347
704.1891, 101.6424
704.6712, 139.8622
705.1533, 198.5553
705.6354, 256.6200
706.1176, 276.5960
706.5997, 245.4478
707.0818, 215.7845
707.5639, 210.7546
708.0460, 209.9481
708.5281, 187.8493
709.0103, 158.3148
709.4924, 158.8517
709.9745, 200.7876
710.4566, 247.3492
710.9387, 255.0988
711.4208, 229.5250
711.9030, 194.2329
712.3851, 144.5649
712.8672, 135.7522
713.3493, 208.5377
713.8314, 292.8145
714.3135, 295.4026
714.7957, 207.3913
715.2778, 160.7829
715.7599, 209.1699
716.2420, 230.3829
716.7241, 155.7447
717.2062, 66.58338
717.6884, 42.34729
718.1705, 78.34057
718.6526, 117.5852
719.1347, 138.4203
719.6168, 138.5408
720.0989, 85.09944
720.5811, 9.055820
721.0632, 17.63469
721.5453, 126.8575
722.0274, 235.5718
722.5095, 273.6431
722.9916, 261.0567
723.4738, 251.2602
723.9559, 249.4019
724.4380, 234.6342
724.9201, 189.2505
725.4022, 152.0418
725.8843, 155.7635
726.3665, 172.0063
726.8486, 148.7112
727.3307, 67.30270
727.8128, 17.80964
728.2949, 67.52489
728.7770, 132.1746
729.2592, 148.3132
729.7413, 125.7063
730.2234, 75.83824
730.7055, 8.607689
731.1876, 27.83313
731.6697, 40.66937
732.1519, 175.6071
732.6340, 198.4400
733.1161, 99.68768
733.5982, 43.15480
734.0803, 87.61081
734.5624, 156.6106
735.0446, 173.9742
735.5267, 142.1627
736.0088, 112.0589
736.4909, 70.46275
736.9730, 48.78532
737.4551, 66.87799
737.9373, 91.76826
738.4194, 101.1630
738.9015, 97.41395
739.3836, 88.92326
739.8657, 72.09341
740.3478, 74.49070
740.8300, 146.0449
741.3121, 239.2209
741.7942, 279.2373
742.2763, 263.5229
742.7584, 203.3960
743.2405, 99.92966
743.7227, 6.217949
744.2048, 24.97062
744.6869, 16.64702
745.1690, 42.20473
745.6511, 19.48569
746.1332, 26.99939
746.6154, 136.4394
747.0975, 254.4948
747.5796, 242.7911
748.0617, 99.54902
748.5438, 16.64931
749.0259, 54.49786
749.5081, 111.4484
749.9902, 183.2899
750.4723, 232.8974
750.9544, 199.7085
751.4365, 101.7310
751.9186, 28.94518
752.4008, 35.54257
752.8829, 82.82393
753.3650, 141.7550
753.8471, 200.2238
754.3292, 212.1613
754.8113, 176.2670
755.2935, 148.6660
755.7756, 165.6978
756.2577, 201.3159
756.7398, 196.5280
757.2219, 139.3183
757.7040, 89.76520
758.1862, 45.31390
758.6683, 12.71641
759.1504, 1.384747
759.6325, 0.4614930
760.1146, 11.59400
760.5967, 16.49127
761.0789, 22.72871
761.5610, 49.28785
762.0431, 120.7154
762.5252, 146.6821
763.0073, 145.0124
763.4894, 130.4391
763.9716, 108.1641
764.4537, 100.1470
764.9358, 125.4778
765.4179, 159.8437
765.9000, 157.3192
766.3821, 128.7868
766.8643, 130.0008
767.3464, 169.4882
767.8285, 196.8896
768.3106, 180.3460
768.7927, 132.5718
769.2748, 75.10638
769.7570, 15.46054
770.2391, 17.08001
770.7212, 111.8488
771.2033, 218.8602
771.6854, 200.0709
772.1675, 123.8654
772.6497, 53.37869
773.1318, 7.408714
773.6139, 10.71711
774.0960, 3.545494
774.5781, 46.58159
775.0602, 55.52402
775.5424, 53.31807
776.0245, 79.38169
776.5066, 129.0782
776.9887, 156.2244
777.4708, 129.0073
777.9529, 71.59874
778.4351, 1.891979
778.9172, 31.14489
779.3993, 33.85187
779.8814, 2.569584
780.3635, 64.36150
780.8456, 69.89809
781.3278, 42.90736
781.8099, 40.54951
782.2920, 68.42999
782.7741, 91.60730
783.2562, 106.1246
783.7383, 122.8332
784.2205, 155.2255
784.7026, 184.8716
785.1847, 187.7678
785.6668, 164.9451
786.1489, 151.5324
786.6310, 172.6906
787.1132, 180.8110
787.5953, 135.4080
788.0774, 83.74307
788.5595, 83.18365
789.0416, 121.3073
789.5237, 142.6188
790.0059, 112.0396
790.4880, 72.89779
790.9701, 74.17781
791.4522, 102.0750
791.9343, 130.0345
792.4164, 154.4980
792.8986, 173.3519
793.3807, 186.3425
793.8628, 185.2833
794.3449, 143.5862
794.8270, 57.80691
795.3091, 27.41813
795.7913, 70.63078
796.2734, 114.5738
796.7555, 146.7589
797.2376, 163.6977
797.7197, 161.2732
798.2018, 139.5986
798.6840, 105.0997
799.1661, 40.27634
799.6482, 12.37521
800.1303, 23.51562
800.6124, 45.51178
801.0945, 9.133218
801.5767, 67.48067
802.0588, 133.6055
802.5409, 153.4220
803.0230, 144.9590
803.5051, 112.3518
803.9872, 64.98659
804.4694, 8.429559
804.9515, 44.88979
805.4336, 54.35350
805.9157, 14.14000
806.3978, 49.99742
806.8799, 64.46676
807.3621, 38.03357
807.8442, 25.35020
808.3263, 26.29555
808.8084, 32.56884
809.2905, 45.32630
809.7726, 48.07967
810.2548, 24.00862
810.7369, 11.19771
811.2190, 16.52019
811.7011, 17.09934
812.1832, 62.67187
812.6653, 155.3563
813.1475, 212.2837
813.6296, 188.1015
814.1117, 130.6261
814.5938, 86.11124
815.0759, 58.01017
815.5580, 43.21740
816.0402, 38.84671
816.5223, 54.81503
817.0044, 101.7970
817.4865, 160.3798
817.9686, 232.5974
818.4507, 300.3384
818.9329, 302.0038
819.4150, 200.3721
819.8971, 78.07651
820.3792, 8.448687
820.8613, 12.92547
821.3434, 24.86695
821.8256, 107.6670
822.3077, 167.1815
822.7898, 177.3913
823.2719, 159.2843
823.7540, 131.5951
824.2361, 98.49942
824.7183, 92.86443
825.2004, 121.5317
825.6825, 130.9271
826.1646, 97.93171
826.6467, 75.28381
827.1288, 113.3895
827.6110, 188.2622
828.0931, 220.6767
828.5752, 194.1909
829.0573, 161.5019
829.5394, 91.29347
830.0215, 51.45992
830.5037, 95.59110
830.9858, 167.8835
831.4679, 201.6433
831.9500, 192.1101
832.4321, 172.5379
832.9142, 145.6571
833.3964, 122.6824
833.8785, 103.2194
834.3606, 97.60483
834.8427, 127.2862
835.3248, 179.2800
835.8069, 196.1726
836.2891, 144.0621
836.7712, 79.05983
837.2533, 70.35837
837.7354, 102.4371
838.2175, 135.3966
838.6996, 167.3520
839.1818, 209.6549
839.6639, 266.1847
840.1460, 307.3277
840.6281, 296.7596
841.1102, 244.9140
841.5923, 204.5761
842.0745, 175.8005
842.5566, 158.3177
843.0387, 154.7841
843.5208, 154.0119
844.0029, 145.7202
844.4850, 136.8736
844.9672, 147.9490
845.4493, 193.8524
845.9314, 218.6542
846.4135, 203.9596
846.8956, 190.5688
847.3777, 194.2324
847.8599, 201.8999
848.3420, 194.8446
848.8241, 175.3789
849.3062, 173.2997
849.7883, 250.1932
850.2704, 274.5865
850.7526, 127.5343
851.2347, 9.330511
851.7168, 19.28656
852.1989, 7.126167
852.6810, 70.66167
853.1631, 89.77651
853.6453, 91.49659
854.1274, 81.51343
854.6095, 77.74670
855.0916, 114.6439
855.5737, 175.4395
856.0558, 225.3091
856.5380, 251.9285
857.0201, 235.0869
857.5022, 148.7734
857.9843, 33.77135
858.4664, 21.37531
858.9485, 22.35802
859.4307, 13.23730
859.9128, 87.42892
860.3949, 146.8073
860.8770, 165.1942
861.3591, 162.8740
861.8412, 173.1787
862.3234, 195.8062
862.8055, 171.5679
863.2876, 72.31786
863.7697, 21.17116
864.2518, 68.59635
864.7339, 131.4402
865.2161, 145.9559
865.6982, 126.3975
866.1803, 130.6946
866.6624, 189.2963
867.1445, 208.3161
867.6266, 162.0781
868.1088, 102.4148
868.5909, 24.86664
869.0730, 10.21424
869.5551, 1.784349
870.0372, 13.50209
870.5193, 26.95801
871.0015, 53.86358
871.4836, 74.14425
871.9657, 107.9056
872.4478, 123.6826
872.9299, 60.49103
873.4120, 7.161320
873.8942, 33.04563
874.3763, 18.71993
874.8584, 50.73903
875.3405, 18.14799
875.8226, 4.853361
876.3047, 4.008821
876.7869, 1.863161
877.2690, 49.16024
877.7511, 92.07054
878.2332, 113.9381
878.7153, 100.9283
879.1974, 74.78463
879.6796, 60.20757
880.1617, 59.19718
880.6438, 94.61671
881.1259, 167.0952
881.6080, 214.9176
882.0901, 210.2794
882.5723, 189.6675
883.0544, 202.4946
883.5365, 239.5409
884.0186, 206.1889
884.5007, 74.87241
884.9828, 3.165581
885.4650, 37.76067
885.9471, 87.39455
886.4292, 93.54221
886.9113, 68.55482
887.3934, 42.12479
887.8755, 1.448826
888.3577, 10.58938
888.8398, 127.8344
889.3219, 214.1300
889.8040, 233.4884
890.2861, 208.5734
890.7682, 126.0765
891.2504, 9.005661
891.7325, 15.54162
892.2146, 75.40863
892.6967, 148.2240
893.1788, 102.8372
893.6609, 51.90273
894.1431, 78.08486
894.6252, 138.3354
895.1073, 156.4495
895.5894, 121.4868
896.0715, 93.53143
896.5536, 107.7676
897.0358, 128.5571
897.5179, 131.4533
898.0000, 129.0877
898.4821, 139.9644
898.9642, 159.0480
899.4464, 164.6902
899.9285, 147.7425
900.4106, 132.3963
900.8927, 144.7336
901.3748, 168.5905
901.8569, 186.6661
902.3391, 195.6244
902.8212, 178.0361
903.3033, 137.9711
903.7854, 123.5038
904.2675, 171.9545
904.7496, 238.0573
905.2318, 244.7968
905.7139, 204.3292
906.1960, 158.2131
906.6781, 110.7063
907.1602, 79.07835
907.6423, 69.45028
908.1245, 81.54874
908.6066, 120.1042
909.0887, 171.2091
909.5708, 190.1004
910.0529, 180.8996
910.5350, 158.6684
911.0172, 121.2273
911.4993, 95.26266
911.9814, 98.20577
912.4635, 113.8034
912.9456, 117.0961
913.4277, 108.0020
913.9099, 118.6576
914.3920, 165.7740
914.8741, 188.3394
915.3562, 165.5925
915.8383, 129.9507
916.3204, 95.70003
916.8026, 67.16159
917.2847, 51.73795
917.7668, 51.29689
918.2489, 51.87584
918.7310, 30.28787
919.2131, 37.85601
919.6953, 142.3751
920.1774, 235.9403
920.6595, 198.0869
921.1416, 62.88964
921.6237, 12.23871
922.1058, 15.20298
922.5880, 55.14840
923.0701, 121.5742
923.5522, 162.1404
924.0343, 129.2650
924.5164, 65.65514
924.9985, 19.03727
925.4807, 3.225273
925.9628, 2.514671
926.4449, 33.11984
926.9270, 70.91325
927.4091, 107.8236
927.8912, 136.4850
928.3734, 144.8640
928.8555, 139.0632
929.3376, 131.3678
929.8197, 125.5317
930.3018, 124.3067
930.7839, 139.3982
931.2661, 147.0321
931.7482, 119.5569
932.2303, 84.24355
932.7124, 69.84267
933.1945, 75.28556
933.6766, 87.96181
934.1588, 105.8637
934.6409, 125.3576
935.1230, 148.2751
935.6051, 161.3688
936.0872, 131.8687
936.5693, 80.71281
937.0515, 61.84996
937.5336, 78.37765
938.0157, 91.42876
938.4978, 78.65292
938.9799, 50.33017
939.4620, 5.983927
939.9442, 4.738636
940.4263, 5.419025
940.9084, 2.400688
941.3905, 61.33754
941.8726, 128.6142
942.3547, 150.5235
942.8369, 76.51879
943.3190, 8.618848
943.8011, 18.34340
944.2832, 13.92101
944.7653, 61.59523
945.2474, 159.5293
945.7296, 188.7875
946.2117, 113.9597
946.6938, 26.35046
947.1759, 18.94031
947.6580, 67.26048
948.1401, 90.89294
948.6223, 89.75584
949.1044, 58.07943
949.5865, 13.28529
950.0686, 9.682627
950.5507, 14.91986
951.0328, 11.77357
951.5150, 1.287228
951.9971, 3.988094
952.4792, 17.61584
952.9613, 121.1684
953.4434, 171.2146
953.9255, 74.18608
954.4077, 8.3212003E-02
954.8898, 51.67449
955.3719, 147.1718
955.8540, 156.2471
956.3361, 77.11144
956.8182, 36.31152
957.3004, 48.58572
957.7825, 60.84029
958.2646, 69.82131
958.7467, 67.11868
959.2288, 36.02529
959.7109, 1.135292
960.1931, 7.619087
960.6752, 59.89959
961.1573, 114.7151
961.6394, 194.3352
962.1215, 235.3300
962.6036, 202.7194
963.0858, 157.0146
963.5679, 138.9426
964.0500, 137.6166
964.5321, 124.4622
965.0142, 90.35065
965.4963, 77.55145
965.9785, 124.7247
966.4606, 140.1479
966.9427, 61.99973
967.4248, 15.21888
967.9069, 2.470404
968.3890, 64.44717
968.8712, 74.43879
969.3533, 19.01110
969.8354, 2.911066
970.3175, 112.2808
970.7996, 214.0644
971.2817, 128.3518
971.7639, 13.90455
972.2460, 22.03532
972.7281, 120.3417
973.2102, 179.0776
973.6923, 180.8400
974.1744, 151.2879
974.6566, 47.20299
975.1387, 9.784476
975.6208, 15.33326
976.1029, 18.99906
976.5850, 60.97183
977.0671, 90.07910
977.5493, 107.3093
978.0314, 102.3625
978.5135, 116.2525
978.9956, 184.7835
979.4777, 235.5095
979.9598, 229.4457
980.4420, 191.1471
980.9241, 131.9537
981.4062, 66.07658
981.8883, 46.12496
982.3704, 111.7708
982.8525, 163.4320
983.3347, 153.6902
983.8168, 140.2836
984.2989, 162.0576
984.7810, 194.8572
985.2631, 213.4885
985.7452, 216.0099
986.2274, 212.8319
986.7095, 211.1418
987.1916, 195.2209
987.6737, 138.9199
988.1558, 88.35646
988.6379, 81.01667
989.1201, 94.69424
989.6022, 101.3636
990.0843, 97.27999
990.5664, 86.80532
991.0485, 57.93192
991.5306, 50.34089
992.0128, 116.4304
992.4949, 174.1474
992.9770, 127.3061
993.4591, 52.00054
993.9412, 76.65935
994.4233, 196.7786
994.9055, 276.6512
995.3876, 253.0859
995.8697, 209.2637
996.3518, 164.5177
996.8339, 127.8381
997.3160, 100.7509
997.7982, 86.22993
998.2803, 96.55264
998.7624, 130.3395
999.2445, 162.7742
999.7266, 191.4661
1000.209, 204.5252
1000.691, 180.8219
1001.173, 154.0810
1001.655, 151.2947
1002.137, 164.2604
1002.619, 185.3873
1003.101, 206.2910
1003.584, 196.0498
1004.066, 113.7575
1004.548, 58.10528
1005.030, 115.4019
1005.512, 176.5691
1005.994, 139.8141
1006.476, 65.72516
1006.958, 49.82881
1007.440, 95.06310
1007.923, 132.9164
1008.405, 141.4247
1008.887, 135.3397
1009.369, 114.1745
1009.851, 84.38190
1010.333, 32.17859
1010.815, 10.90359
1011.297, 10.59262
1011.780, 86.81122
1012.262, 129.4801
1012.744, 93.49519
1013.226, 54.38435
1013.708, 35.17526
1014.190, 32.21181
1014.672, 59.61649
1015.154, 91.35296
1015.636, 94.33533
1016.119, 68.77447
1016.601, 33.48684
1017.083, 12.53539
1017.565, 4.695982
1018.047, 66.10261
1018.529, 160.3058
1019.011, 119.7551
1019.493, 37.70009
1019.976, 38.26604
1020.458, 110.2810
1020.940, 146.0693
1021.422, 101.1932
1021.904, 66.92632
1022.386, 80.97179
1022.868, 101.9740
1023.350, 98.28468
1023.832, 98.45065
1024.315, 149.2023
1024.797, 233.2156
1025.279, 275.2423
1025.761, 251.2291
1026.243, 222.8122
1026.725, 193.3834
1027.207, 177.0211
1027.689, 202.2184
1028.172, 228.7387
1028.654, 206.4619
1029.136, 152.8139
1029.618, 127.9393
1030.100, 144.6271
1030.582, 172.6233
1031.064, 239.4379
1031.546, 274.8833
1032.028, 256.1214
1032.511, 199.1992
1032.993, 76.25904
1033.475, 20.59067
1033.957, 61.69445
1034.439, 5.443766
1034.921, 45.75396
1035.403, 11.17338
1035.885, 29.79862
1036.368, 5.159130
1036.850, 84.41059
1037.332, 136.8515
1037.814, 160.3509
1038.296, 168.9206
1038.778, 158.9130
1039.260, 157.8000
1039.742, 196.5034
1040.224, 192.2888
1040.707, 88.80449
1041.189, 2.162237
1041.671, 17.14961
1042.153, 18.63405
1042.635, 83.07378
1043.117, 180.0097
1043.599, 202.0664
1044.081, 104.5137
1044.563, 32.90622
1045.046, 4.806860
1045.528, 2.405926
1046.010, 82.63804
1046.492, 179.7763
1046.974, 221.6410
1047.456, 211.2790
1047.938, 183.7607
1048.420, 134.8047
1048.902, 80.76271
1049.385, 12.77528
1049.867, 20.56385
1050.349, 14.04790
1050.831, 25.64689
1051.313, 77.09937
1051.795, 127.7862
1052.277, 115.4065
1052.759, 29.96023
1053.242, 17.27119
1053.724, 12.91678
1054.206, 16.78659
1054.688, 7.896665
1055.170, 7.839188
1055.652, 13.26547
1056.134, 27.26255
1056.616, 46.48030
1057.099, 69.70192
1057.581, 65.34101
1058.063, 30.94402
1058.545, 29.95940
1059.027, 77.36028
1059.509, 125.3430
1059.991, 142.3963
1060.473, 134.5121
1060.955, 97.17461
1061.438, 44.89967
1061.920, 40.87072
1062.402, 76.61903
1062.884, 117.2268
1063.366, 152.3696
1063.848, 156.6444
1064.330, 116.8112
1064.812, 77.48118
1065.294, 101.5379
1065.777, 151.7350
1066.259, 149.8271
1066.741, 114.4425
1067.223, 86.18693
1067.705, 68.99378
1068.187, 52.54782
1068.669, 32.98832
1069.151, 22.89781
1069.634, 30.52997
1070.116, 50.55781
1070.598, 74.83442
1071.080, 110.6160
1071.562, 187.9131
1072.044, 277.0532
1072.526, 311.8072
1073.008, 283.0534
1073.490, 226.8035
1073.973, 142.4438
1074.455, 86.03728
1074.937, 129.9388
1075.419, 184.0167
1075.901, 159.8140
1076.383, 100.0935
1076.865, 71.79092
1077.347, 75.97654
1077.829, 69.16601
1078.312, 24.54297
1078.794, 20.84175
1079.276, 152.3906
1079.758, 252.0642
1080.240, 198.2536
1080.722, 109.6147
1081.204, 101.0345
1081.686, 147.8058
1082.169, 175.5224
1082.651, 177.7507
1083.133, 146.1007
1083.615, 26.21778
1084.097, 4.522245
1084.579, 0.6703760
1085.061, 6.110901
1085.543, 78.63026
1086.026, 166.1916
1086.508, 195.2491
1086.990, 166.5371
1087.472, 121.1376
1087.954, 35.76538
1088.436, 8.450526
1088.918, 7.350813
1089.400, 35.44515
1089.882, 61.93402
1090.365, 83.99723
1090.847, 97.44078
1091.329, 104.4181
1091.811, 128.1928
1092.293, 183.6449
1092.775, 174.1927
1093.257, 82.92507
1093.739, 57.84010
1094.221, 150.1919
1094.704, 231.1812
1095.186, 208.9596
1095.668, 143.3397
1096.150, 146.8584
1096.632, 200.1994
1097.114, 186.1264
1097.596, 116.0965
1098.078, 51.12904
1098.561, 4.388248
1099.043, 10.13220
1099.525, 13.17417
1100.007, 76.44209
1100.489, 212.3546
1100.971, 337.9979
1101.453, 275.0162
1101.935, 124.6520
1102.417, 86.38157
1102.900, 137.0459
1103.382, 165.5468
1103.864, 145.7965
1104.346, 126.2223
1104.828, 137.0936
1105.310, 150.9299
1105.792, 140.8368
1106.274, 128.7244
1106.756, 146.0223
1107.239, 166.9494
1107.721, 137.6676
1108.203, 78.39726
1108.685, 69.95105
1109.167, 146.2832
1109.649, 195.1471
1110.131, 162.4724
1110.613, 114.7748
1111.096, 43.07217
1111.578, 1.288574
1112.060, 48.44370
1112.542, 139.4469
1113.024, 178.2173
1113.506, 157.4592
1113.988, 114.2525
1114.470, 4.694994
1114.953, 15.14102
1115.435, 11.74329
1115.917, 65.14418
1116.399, 56.63528
1116.881, 57.40044
1117.363, 154.8343
1117.845, 307.1828
1118.327, 357.5906
1118.809, 290.8936
1119.292, 230.1389
1119.774, 176.3574
1120.256, 118.1078
1120.738, 51.58154
1121.220, 8.104185
1121.702, 4.427059
1122.184, 6.260536
1122.666, 17.68718
1123.148, 149.0052
1123.631, 145.4763
1124.113, 48.55773
1124.595, 39.19068
1125.077, 116.4495
1125.559, 163.8225
1126.041, 142.5323
1126.523, 98.77013
1127.005, 64.39955
1127.488, 33.66333
1127.970, 11.02517
1128.452, 11.98476
1128.934, 12.55973
1129.416, 17.85189
1129.898, 30.58531
1130.380, 90.12470
1130.862, 148.5750
1131.344, 204.9711
1131.827, 236.0281
1132.309, 224.6835
1132.791, 192.7888
1133.273, 129.0120
1133.755, 71.23666
1134.237, 38.14881
1134.719, 36.85462
1135.201, 90.94395
1135.683, 201.5848
1136.166, 266.4801
1136.648, 270.7006
1137.130, 239.8320
1137.612, 135.0736
1138.094, 65.43317
1138.576, 87.90691
1139.058, 125.3229
1139.540, 105.1815
1140.023, 52.09460
1140.505, 31.67258
1140.987, 44.31780
1141.469, 83.99511
1141.951, 151.0743
1142.433, 217.3595
1142.915, 279.6344
1143.397, 268.5911
1143.880, 144.4042
1144.362, 21.63234
1144.844, 40.52943
1145.326, 133.8768
1145.808, 160.9751
1146.290, 143.0607
1146.772, 142.0517
1147.254, 147.1767
1147.736, 94.99400
1148.219, 10.71483
1148.701, 3.855721
1149.183, 15.38911
1149.665, 62.80440
1150.147, 124.8954
1150.629, 159.7571
1151.111, 155.4444
1151.593, 120.5365
1152.075, 30.53783
1152.558, 6.450283
1153.040, 23.03169
1153.522, 3.389805
1154.004, 83.57148
1154.486, 180.7213
1154.968, 235.0986
1155.450, 212.0162
1155.932, 176.6926
1156.415, 139.6472
1156.897, 118.9364
1157.379, 148.2472
1157.861, 199.8941
1158.343, 181.3662
1158.825, 75.51159
1159.307, 69.86149
1159.789, 188.2518
1160.271, 228.1669
1160.754, 146.2872
1161.236, 85.68619
1161.718, 118.9967
1162.200, 176.7423
1162.682, 179.9698
1163.164, 149.0853
1163.646, 118.7415
1164.128, 95.64536
1164.610, 107.2853
1165.093, 141.4309
1165.575, 161.1937
1166.057, 159.2249
1166.539, 129.0717
1167.021, 60.52006
1167.503, 34.66557
1167.985, 191.1020
1168.467, 317.8216
1168.950, 201.1030
1169.432, 29.29835
1169.914, 2.014000
1170.396, 55.37947
1170.878, 39.56275
1171.360, 7.309731
1171.842, 38.51403
1172.324, 24.94046
1172.807, 4.077347
1173.289, 9.201445
1173.771, 7.223995
1174.253, 94.88746
1174.735, 191.9611
1175.217, 260.6366
1175.699, 298.2968
1176.181, 296.2583
1176.663, 257.2365
1177.146, 215.3900
1177.628, 170.9341
1178.110, 154.7986
1178.592, 168.3275
1179.074, 170.7560
1179.556, 148.2206
1180.038, 118.9230
1180.520, 96.02474
1181.002, 88.92041
1181.485, 133.3287
1181.967, 187.2419
1182.449, 182.9700
1182.931, 144.1944
1183.413, 107.5682
1183.895, 78.44144
1184.377, 42.14300
1184.859, 1.976980
1185.342, 4.492067
1185.824, 154.5870
1186.306, 259.9292
1186.788, 243.4145
1187.270, 188.4593
1187.752, 107.0585
1188.234, 35.52694
1188.716, 18.65759
1189.198, 36.82089
1189.681, 35.40366
1190.163, 10.93369
1190.645, 3.147552
1191.127, 8.519766
1191.609, 4.153038
1192.091, 35.62866
1192.573, 100.1963
1193.055, 208.0787
1193.537, 297.2916
1194.020, 306.2808
1194.502, 267.8144
1194.984, 239.7802
1195.466, 215.7916
1195.948, 166.2974
1196.430, 112.7629
1196.912, 119.1826
1197.394, 177.6778
1197.877, 215.6091
1198.359, 207.2112
1198.841, 181.9098
1199.323, 156.4273
1199.805, 126.9261
1200.287, 64.56861
1200.769, 17.43689
1201.251, 28.46221
1201.734, 62.30328
1202.216, 81.27264
1202.698, 86.44456
1203.180, 87.82313
1203.662, 83.27926
1204.144, 88.28195
1204.626, 101.3274
1205.108, 133.6264
1205.590, 193.3443
1206.073, 237.0489
1206.555, 246.0534
1207.037, 233.1390
1207.519, 207.4406
1208.001, 178.6669
1208.483, 163.5842
1208.965, 163.0062
1209.447, 139.7473
1209.929, 104.6284
1210.412, 85.70650
1210.894, 85.93807
1211.376, 105.3003
1211.858, 140.6953
1212.340, 153.4376
1212.822, 100.0451
1213.304, 58.49779
1213.786, 73.06062
1214.269, 103.8191
1214.751, 151.0621
1215.233, 181.9963
1215.715, 134.3660
1216.197, 55.90706
1216.679, 71.54321
1217.161, 187.9609
1217.643, 267.4885
1218.125, 314.7706
1218.608, 277.5960
1219.090, 131.7923
1219.572, 61.35980
1220.054, 133.1495
1220.536, 216.7122
1221.018, 212.4624
1221.500, 167.1756
1221.982, 157.4726
1222.464, 153.6766
1222.947, 69.21516
1223.429, 20.30681
1223.911, 4.150959
1224.393, 12.02647
1224.875, 130.1709
1225.357, 275.3096
1225.839, 316.3380
1226.321, 135.8460
1226.804, 32.20696
1227.286, 190.0187
1227.768, 322.6555
1228.250, 307.3489
1228.732, 243.8618
1229.214, 168.4412
1229.696, 112.1825
1230.178, 126.6003
1230.661, 198.1258
1231.143, 253.7545
1231.625, 294.3857
1232.107, 266.7913
1232.589, 173.7420
1233.071, 102.0890
1233.553, 71.77910
1234.035, 85.94053
1234.517, 135.4006
1235.000, 182.2517
1235.482, 157.1258
1235.964, 103.0337
1236.446, 38.11762
1236.928, 5.309781
1237.410, 24.90672
1237.892, 87.26389
1238.374, 130.8417
1238.856, 148.8678
1239.339, 137.7041
1239.821, 87.55492
1240.303, 70.11633
1240.785, 124.9192
1241.267, 126.0539
1241.749, 40.38722
1242.231, 1.421169
1242.713, 19.07502
1243.196, 70.75920
1243.678, 39.50359
1244.160, 3.233308
1244.642, 0.0000000E+00
##END=



