##NAMES=Millerite
##RRUFFID=R080122
##IDEAL CHEMISTRY=NiS
##LOCALITY=Eugenia mine, Bellmunt del Priorat, Tarragona, Catalonia, Spain
##OWNER=RRUFF
##SOURCE=Joan Abella i Creus
##DESCRIPTION=Metallic-bronze striated crystals
##STATUS=The identification of this mineral has been confirmed by single-crystal X-ray diffraction.
##URL=rruff.info/R080122
135.2453, 0.0000000E+00
135.7274, 0.1554700
136.2095, 9.4469003E-02
136.6916, 6.4989999E-03
137.1737, 4.2008001E-02
137.6559, 0.1719240
138.1380, 0.3196820
138.6201, 0.5058510
139.1022, 0.5876040
139.5843, 0.5834180
140.0664, 0.5502920
140.5486, 0.4634230
141.0307, 0.2875920
141.5128, 0.1313050
141.9949, 0.1498490
142.4770, 0.4363290
142.9591, 0.6734840
143.4413, 0.6675540
143.9234, 0.4907980
144.4055, 0.3065180
144.8876, 0.2815460
145.3697, 0.4149070
145.8518, 0.5824760
146.3340, 1.021884
146.8161, 1.425247
147.2982, 1.598300
147.7803, 1.458829
148.2624, 1.167690
148.7445, 0.9476730
149.2267, 0.8916770
149.7088, 0.7894860
150.1909, 0.6156120
150.6730, 0.4518570
151.1551, 0.3300990
151.6372, 0.2639950
152.1194, 0.2523910
152.6015, 0.2810100
153.0836, 0.3793350
153.5657, 0.4389310
154.0478, 0.4012060
154.5299, 0.3336850
155.0121, 0.3238170
155.4942, 0.3892680
155.9763, 0.4676720
156.4584, 0.4495950
156.9405, 0.3292030
157.4227, 0.1878430
157.9048, 1.5513000E-02
158.3869, 4.6633001E-02
158.8690, 6.5365002E-02
159.3511, 8.6664997E-02
159.8332, 3.7726000E-02
160.3154, 3.9664000E-02
160.7975, 7.7320002E-02
161.2796, 3.1548999E-02
161.7617, 0.1571440
162.2438, 0.2954150
162.7259, 0.4389790
163.2081, 0.6656280
163.6902, 0.8811720
164.1723, 0.9062350
164.6544, 0.7284420
165.1365, 0.5499450
165.6186, 0.5446980
166.1008, 0.7178760
166.5829, 0.8531360
167.0650, 0.9516970
167.5471, 1.003723
168.0292, 0.9679320
168.5113, 0.8427800
168.9935, 0.7090800
169.4756, 0.7188080
169.9577, 1.018852
170.4398, 1.162997
170.9219, 0.9975140
171.4040, 0.7608400
171.8862, 0.6639790
172.3683, 0.7766270
172.8504, 1.002908
173.3325, 1.095924
173.8146, 0.8879890
174.2967, 0.7356150
174.7789, 0.6781970
175.2610, 0.6651090
175.7431, 0.6310340
176.2252, 0.5467750
176.7073, 0.4467400
177.1894, 0.4420330
177.6716, 0.6334460
178.1537, 0.7856610
178.6358, 0.8659890
179.1179, 0.8768140
179.6000, 0.8022490
180.0821, 0.6068260
180.5643, 0.3582860
181.0464, 0.2665210
181.5285, 0.3935020
182.0106, 0.5518400
182.4927, 0.6914280
182.9749, 0.8019670
183.4570, 0.8231920
183.9391, 0.6694790
184.4212, 0.4421340
184.9033, 0.3596210
185.3854, 0.4864490
185.8676, 0.6568160
186.3497, 0.7565700
186.8318, 0.7855850
187.3139, 0.7443290
187.7960, 0.5353600
188.2781, 0.2996910
188.7603, 0.2167360
189.2424, 0.3693140
189.7245, 0.5730980
190.2066, 0.5641620
190.6887, 0.2748990
191.1708, 1.7335000E-02
191.6530, 9.2841998E-02
192.1351, 4.5045000E-02
192.6172, 0.1056160
193.0993, 0.1202850
193.5814, 0.3784790
194.0635, 0.4234540
194.5457, 0.1106410
195.0278, 9.5738001E-02
195.5099, 2.9033000E-02
195.9920, 6.1843999E-02
196.4741, 9.3742996E-02
196.9562, 7.1680001E-03
197.4384, 8.9475997E-02
197.9205, 0.1831000
198.4026, 0.2831030
198.8847, 0.3640870
199.3668, 0.4262450
199.8489, 0.4686030
200.3311, 0.4916280
200.8132, 0.4942900
201.2953, 0.4749440
201.7774, 0.4308400
202.2595, 0.3178790
202.7416, 0.2263380
203.2238, 0.1447830
203.7059, 9.5321000E-02
204.1880, 0.1261080
204.6701, 0.2502710
205.1522, 0.4446140
205.6344, 0.5818920
206.1165, 0.6887170
206.5986, 0.7301980
207.0807, 0.6348020
207.5628, 0.4722830
208.0449, 0.3852960
208.5271, 0.4627290
209.0092, 0.6462840
209.4913, 0.6938720
209.9734, 0.4916070
210.4555, 0.3224670
210.9376, 0.3286780
211.4198, 0.4571090
211.9019, 0.5419100
212.3840, 0.4917810
212.8661, 0.3546780
213.3482, 0.2799840
213.8303, 0.2529420
214.3125, 0.2797180
214.7946, 0.3881810
215.2767, 0.5626070
215.7588, 0.7243820
216.2409, 0.8624790
216.7230, 0.9380300
217.2052, 0.8785200
217.6873, 0.6115650
218.1694, 0.3769630
218.6515, 0.4087370
219.1336, 0.6997120
219.6157, 0.9289770
220.0979, 0.9200230
220.5800, 0.8233330
221.0621, 0.8133510
221.5442, 0.9238350
222.0263, 1.053650
222.5084, 1.091519
222.9906, 1.026641
223.4727, 0.9884000
223.9548, 1.047117
224.4369, 1.132230
224.9190, 1.185386
225.4011, 1.194067
225.8833, 1.206067
226.3654, 1.290623
226.8475, 1.467851
227.3296, 1.619134
227.8117, 1.735687
228.2938, 1.808814
228.7760, 1.802443
229.2581, 1.714871
229.7402, 1.618075
230.2223, 1.604421
230.7044, 1.684908
231.1866, 1.819529
231.6687, 2.120167
232.1508, 2.387506
232.6329, 2.446931
233.1150, 2.287677
233.5971, 2.086957
234.0793, 2.129443
234.5614, 2.607181
235.0435, 2.844980
235.5256, 2.570910
236.0077, 2.277487
236.4898, 2.321018
236.9720, 2.734431
237.4541, 3.251795
237.9362, 3.502380
238.4183, 3.340685
238.9004, 3.252696
239.3825, 3.239230
239.8647, 3.285058
240.3468, 3.402201
240.8289, 3.581228
241.3110, 3.780694
241.7931, 3.959452
242.2752, 4.142736
242.7574, 4.207200
243.2395, 4.028397
243.7216, 3.843516
244.2037, 3.825726
244.6858, 3.982541
245.1679, 4.185456
245.6501, 4.300420
246.1322, 4.321212
246.6143, 4.238129
247.0964, 3.951888
247.5785, 3.649420
248.0606, 3.487731
248.5428, 3.461576
249.0249, 3.413869
249.5070, 3.178890
249.9891, 2.727883
250.4712, 2.321267
250.9533, 1.960049
251.4355, 1.645469
251.9176, 1.384574
252.3997, 1.174528
252.8818, 0.9958340
253.3639, 0.8523180
253.8460, 0.7471620
254.3282, 0.6594610
254.8103, 0.6151330
255.2924, 0.5711070
255.7745, 0.4941370
256.2566, 0.3866090
256.7387, 0.2821500
257.2209, 0.2034180
257.7030, 0.1501400
258.1851, 0.1055380
258.6672, 3.1353999E-02
259.1493, 1.2667000E-02
259.6314, 6.0341999E-02
260.1136, 0.2312520
260.5957, 0.3179050
261.0778, 0.1521070
261.5599, 0.1115820
262.0420, 1.0457000E-02
262.5241, 8.9773998E-02
263.0063, 0.1502570
263.4884, 0.2662880
263.9705, 0.2668020
264.4526, 0.2173810
264.9347, 0.1042420
265.4168, 1.1462000E-02
265.8990, 8.0540003E-03
266.3811, 0.1841260
266.8632, 0.3584250
267.3453, 0.3479610
267.8275, 0.1684220
268.3096, 1.5784999E-02
268.7917, 6.7658000E-02
269.2738, 3.9283998E-02
269.7559, 6.3607000E-02
270.2380, 9.5100002E-04
270.7202, 0.1068710
271.2023, 2.2841001E-02
271.6844, 0.2106670
272.1665, 0.3715070
272.6486, 0.4969870
273.1307, 0.5773870
273.6129, 0.6101130
274.0950, 0.5947840
274.5771, 0.5395420
275.0592, 0.4047220
275.5413, 0.2154330
276.0234, 0.1269320
276.5056, 0.2096090
276.9877, 0.3492120
277.4698, 0.4558570
277.9519, 0.5290190
278.4340, 0.5713140
278.9161, 0.2915460
279.3983, 0.5802540
279.8804, 0.7316760
280.3625, 0.7531890
280.8446, 0.2556860
281.3267, 0.4284010
281.8088, 0.3325310
282.2910, 0.2256470
282.7731, 0.4926960
283.2552, 7.0708998E-02
283.7373, 0.3350030
284.2194, 0.3245070
284.7015, 0.4377500
285.1837, 0.3040980
285.6658, 0.5336130
286.1479, 0.6676810
286.6300, 0.5477160
287.1121, 0.3005030
287.5942, 0.1971370
288.0764, 0.2776920
288.5585, 0.1377410
289.0406, 0.4532660
289.5227, 0.6315030
290.0048, 0.6798280
290.4869, 0.2091390
290.9691, 0.4086520
291.4512, 0.3395810
291.9333, 0.2594970
292.4154, 0.5533430
292.8975, 0.1581500
293.3796, 0.4460670
293.8618, 0.4613020
294.3439, 0.6013380
294.8260, 0.4711300
295.3081, 0.4243940
295.7902, 0.1073420
296.2723, 0.4225730
296.7545, 0.6005150
297.2366, 0.6485440
297.7187, 0.1775590
298.2008, 0.3767760
298.6829, 0.3074070
299.1650, 0.2270260
299.6472, 0.5205740
300.1293, 0.1250820
300.6114, 0.4127010
301.0935, 0.4276360
301.5756, 0.5673720
302.0577, 0.4368650
302.5399, 0.3898270
303.0220, 0.6131230
303.5041, 0.6867330
303.9862, 0.5251180
304.4683, 0.6727910
304.9504, 0.2678650
305.4326, 0.3478620
305.9147, 0.6370890
306.3968, 0.4890990
306.8789, 0.6417490
307.3610, 0.6799250
307.8431, 0.4020880
308.3253, 0.2715570
308.8074, 0.1789830
309.2895, 0.2047820
309.7716, 0.2778240
310.2537, 0.3087530
310.7358, 0.2544820
311.2180, 0.1575020
311.7001, 0.1096410
312.1822, 0.1174940
312.6643, 0.1630840
313.1464, 0.3241470
313.6285, 0.4697070
314.1107, 0.4611840
314.5928, 0.2668670
315.0749, 2.5958000E-02
315.5570, 4.3021999E-02
316.0392, 0.1243300
316.5213, 0.2266870
317.0034, 0.1737090
317.4855, 9.5576003E-02
317.9676, 5.6791000E-02
318.4497, 6.3438997E-02
318.9319, 8.5476004E-02
319.4140, 8.1129000E-02
319.8961, 5.6836002E-02
320.3782, 5.8139998E-02
320.8603, 0.1292770
321.3424, 0.1933760
321.8246, 0.2378850
322.3067, 0.2543160
322.7888, 0.2246210
323.2709, 0.1156640
323.7530, 5.3137999E-02
324.2351, 3.2494001E-02
324.7173, 6.5575004E-02
325.1994, 1.4080000E-03
325.6815, 9.8670004E-03
326.1636, 1.3459000E-02
326.6457, 2.6110999E-02
327.1278, 6.0660001E-03
327.6100, 5.0795998E-02
328.0921, 1.7864000E-02
328.5742, 5.2890000E-03
329.0563, 8.0656998E-02
329.5384, 7.0004001E-02
330.0205, 0.1776830
330.5027, 0.2912910
330.9848, 0.2161520
331.4669, 8.6782001E-02
331.9490, 0.1237210
332.4311, 0.3968450
332.9132, 0.5280470
333.3954, 0.2791420
333.8775, 5.4009999E-03
334.3596, 6.7782000E-02
334.8417, 3.8222998E-02
335.3238, 0.1019190
335.8059, 0.2703820
336.2881, 0.4706830
336.7702, 0.5442710
337.2523, 0.3646010
337.7344, 0.1800380
338.2165, 8.4950998E-02
338.6986, 6.1691999E-02
339.1808, 7.3297001E-02
339.6629, 0.1228800
340.1450, 0.1894410
340.6271, 0.1677930
341.1092, 4.2498998E-02
341.5913, 8.8970000E-03
342.0735, 0.1238280
342.5556, 0.5014260
343.0377, 0.6519260
343.5198, 0.4189930
344.0019, 2.2411000E-02
344.4840, 5.8168001E-02
344.9662, 0.1073630
345.4483, 5.8621999E-02
345.9304, 6.9201998E-02
346.4125, 0.3595750
346.8946, 0.5420250
347.3767, 0.5966730
347.8589, 0.6077600
348.3410, 0.6569570
348.8231, 0.7429570
349.3052, 0.8029280
349.7873, 0.8500570
350.2694, 0.8379840
350.7516, 0.6767150
351.2337, 0.4132230
351.7158, 0.2441080
352.1979, 0.3751510
352.6800, 0.6969510
353.1621, 0.8393390
353.6443, 0.7479600
354.1264, 0.5857590
354.6085, 0.3793320
355.0906, 0.1786150
355.5727, 8.0966003E-02
356.0548, 0.1636080
356.5370, 0.3085110
357.0191, 0.3505700
357.5012, 0.2799340
357.9833, 0.2131790
358.4654, 0.1796710
358.9475, 0.1885440
359.4297, 0.2696320
359.9118, 0.4466560
360.3939, 0.5934270
360.8760, 0.5786870
361.3581, 0.4388560
361.8402, 0.3699880
362.3224, 0.4538950
362.8045, 0.5676730
363.2866, 0.5620860
363.7687, 0.4445350
364.2508, 0.3528270
364.7329, 0.3951820
365.2151, 0.4877270
365.6972, 0.4567600
366.1793, 0.2611030
366.6614, 0.1093130
367.1436, 0.2277180
367.6257, 0.5187430
368.1078, 0.6763100
368.5899, 0.5484120
369.0720, 0.3686750
369.5541, 0.3317640
370.0363, 0.4198250
370.5184, 0.5206460
371.0005, 0.6055480
371.4826, 0.6476740
371.9647, 0.5744390
372.4468, 0.3206060
372.9290, 0.1291910
373.4111, 0.1085320
373.8932, 0.2144660
374.3753, 0.3879610
374.8574, 0.6315780
375.3395, 0.8288500
375.8217, 0.7915140
376.3038, 0.4833360
376.7859, 0.2735060
377.2680, 0.2766920
377.7501, 0.3370840
378.2322, 0.3060540
378.7144, 0.1854640
379.1965, 9.0291999E-02
379.6786, 0.1092090
380.1607, 0.2337140
380.6428, 0.3471510
381.1249, 0.5168440
381.6071, 0.6005290
382.0892, 0.4794550
382.5713, 0.2496800
383.0534, 0.1032590
383.5355, 0.1203220
384.0176, 0.2303490
384.4998, 0.2873630
384.9819, 0.2750770
385.4640, 0.2252300
385.9461, 6.4681999E-02
386.4282, 4.1731998E-02
386.9103, 1.7055999E-02
387.3925, 1.8100000E-03
387.8746, 0.1536150
388.3567, 0.2142010
388.8388, 0.1622550
389.3209, 0.1756880
389.8030, 0.3762220
390.2852, 0.5237860
390.7673, 0.4648770
391.2494, 0.2830800
391.7315, 0.1486740
392.2136, 0.1594850
392.6957, 0.2708830
393.1779, 0.2788810
393.6600, 7.2718002E-02
394.1421, 5.6324001E-02
394.6242, 6.7117997E-02
395.1063, 0.1277980
395.5884, 7.1727999E-02
396.0706, 4.2925999E-02
396.5527, 0.1459180
397.0348, 0.2013510
397.5169, 6.5788001E-02
397.9990, 2.9948000E-02
398.4811, 0.2508930
398.9633, 0.4267990
399.4454, 0.4210010
399.9275, 0.2816010
400.4096, 0.1062410
400.8917, 4.1889001E-02
401.3738, 1.3139000E-02
401.8560, 5.2561000E-02
402.3381, 3.6830001E-03
402.8202, 6.4689003E-02
403.3023, 2.3383999E-02
403.7844, 0.1125080
404.2665, 0.1677950
404.7487, 0.1786660
405.2308, 0.1834470
405.7129, 0.2470010
406.1950, 0.3762150
406.6771, 0.4376660
407.1592, 0.3428070
407.6414, 0.2398020
408.1235, 0.2573710
408.6056, 0.3737810
409.0877, 0.4603520
409.5698, 0.4255970
410.0519, 0.3114780
410.5341, 0.2013920
411.0162, 8.5486002E-02
411.4983, 2.2087000E-02
411.9804, 8.1834003E-02
412.4625, 0.2120580
412.9446, 0.3300750
413.4268, 0.4265420
413.9089, 0.5026660
414.3910, 0.5771730
414.8731, 0.6309550
415.3553, 0.6071090
415.8374, 0.4552310
416.3195, 0.2708150
416.8016, 0.2037950
417.2837, 0.2553340
417.7658, 0.3110360
418.2480, 0.3792030
418.7301, 0.4164030
419.2122, 0.3413550
419.6943, 0.1526100
420.1764, 2.2762001E-02
420.6585, 4.4190999E-02
421.1407, 4.4861000E-02
421.6228, 2.2739001E-02
422.1049, 0.1683200
422.5870, 0.2798110
423.0691, 0.2814710
423.5512, 0.2236870
424.0334, 0.2076130
424.5155, 0.2754780
424.9976, 0.3711900
425.4797, 0.3811500
425.9618, 0.1949040
426.4439, 0.1528080
426.9261, 0.4393880
427.4082, 0.7230650
427.8903, 0.7098660
428.3724, 0.4384470
428.8545, 0.2029540
429.3366, 0.2653370
429.8188, 0.6048780
430.3009, 0.7512600
430.7830, 0.4577620
431.2651, 0.2350320
431.7472, 0.2089140
432.2293, 0.2792740
432.7115, 0.3303140
433.1936, 0.3181870
433.6757, 0.2682520
434.1578, 0.2097240
434.6399, 0.1238900
435.1220, 9.3901001E-02
435.6042, 0.1929490
436.0863, 0.2933670
436.5684, 0.3418840
437.0505, 0.3379860
437.5326, 0.2975320
438.0147, 0.2037220
438.4969, 8.9195997E-02
438.9790, 9.6450999E-02
439.4611, 0.2990690
439.9432, 0.4367770
440.4253, 0.3273660
440.9074, 0.1310490
441.3896, 5.7199998E-03
441.8717, 1.5380000E-02
442.3538, 3.0029999E-02
442.8359, 0.1498940
443.3180, 0.3245400
443.8001, 0.4200240
444.2823, 0.3760740
444.7644, 0.2985110
445.2465, 0.3258400
445.7286, 0.4195790
446.2107, 0.4078210
446.6928, 9.1845997E-02
447.1750, 0.1217270
447.6571, 0.1570020
448.1392, 3.3596002E-02
448.6213, 0.2231000
449.1034, 0.3452800
449.5855, 0.3748930
450.0677, 0.4380340
450.5498, 0.5877840
451.0319, 0.6586740
451.5140, 0.5545020
451.9961, 0.3632390
452.4782, 0.1808120
452.9604, 3.1700999E-02
453.4425, 4.5469001E-02
453.9246, 2.4720000E-03
454.4067, 0.1738400
454.8888, 0.3005180
455.3709, 0.4189250
455.8531, 0.4526010
456.3352, 0.2812560
456.8173, 2.5819000E-02
457.2994, 2.8506000E-02
457.7815, 2.0659000E-02
458.2636, 0.1956140
458.7458, 0.3557240
459.2279, 0.4799930
459.7100, 0.5066990
460.1921, 0.3559580
460.6742, 0.1947590
461.1563, 0.1232160
461.6385, 0.1334480
462.1206, 0.1793280
462.6027, 0.2352930
463.0848, 0.2952830
463.5669, 0.3246010
464.0491, 0.3081180
464.5312, 0.2992320
465.0133, 0.3073520
465.4954, 0.3282620
465.9775, 0.3835060
466.4597, 0.4800960
466.9418, 0.5389990
467.4239, 0.4375200
467.9060, 0.2113750
468.3881, 0.1173900
468.8702, 0.2495940
469.3524, 0.4099860
469.8345, 0.4215520
470.3166, 0.3229390
470.7987, 0.2134910
471.2808, 4.4165000E-02
471.7629, 4.1147999E-02
472.2451, 4.8216999E-02
472.7272, 0.3492270
473.2093, 0.5221770
473.6914, 0.4044810
474.1735, 0.1536150
474.6556, 8.8643998E-02
475.1378, 0.2725490
475.6199, 0.3982820
476.1020, 0.3635980
476.5841, 0.2901760
477.0662, 0.2926800
477.5483, 0.3711480
478.0305, 0.4494550
478.5126, 0.4728350
478.9947, 0.4514710
479.4768, 0.4106150
479.9589, 0.2428180
480.4410, 0.1780980
480.9232, 0.3585430
481.4053, 0.5969810
481.8874, 0.6973620
482.3695, 0.6157090
482.8516, 0.4467370
483.3337, 0.2908620
483.8159, 0.1435990
484.2980, 4.5187999E-02
484.7801, 2.0400001E-02
485.2622, 2.1585001E-02
485.7443, 2.7811000E-02
486.2264, 4.9447000E-02
486.7086, 0.1190140
487.1907, 0.2671920
487.6728, 0.4091250
488.1549, 0.3912490
488.6370, 0.1999230
489.1191, 7.7846996E-02
489.6013, 0.1221660
490.0834, 0.2046030
490.5655, 0.1850460
491.0476, 8.4055997E-02
491.5297, 4.4633001E-02
492.0118, 0.2026170
492.4940, 0.4088640
492.9761, 0.4416250
493.4582, 0.3078150
493.9403, 0.2175610
494.4224, 0.2940060
494.9045, 0.4671620
495.3867, 0.5597970
495.8688, 0.5623040
496.3509, 0.5290450
496.8330, 0.4462460
497.3151, 0.3502020
497.7972, 0.2713690
498.2794, 0.2163750
498.7615, 0.1912230
499.2436, 0.2097730
499.7257, 0.2658990
500.2078, 0.2658090
500.6899, 9.0705000E-02
501.1721, 1.0800000E-04
501.6542, 0.1331520
502.1363, 0.3222170
502.6184, 0.3682290
503.1005, 0.2276750
503.5826, 3.2492001E-02
504.0648, 5.9137002E-02
504.5469, 4.0601000E-02
505.0290, 4.1870000E-03
505.5111, 0.1080170
505.9932, 0.2094760
506.4753, 0.2563190
506.9575, 0.2545590
507.4396, 0.2059230
507.9217, 9.2665002E-02
508.4038, 1.4840000E-03
508.8859, 6.2431000E-02
509.3680, 0.2742180
509.8502, 0.4380370
510.3323, 0.5008840
510.8144, 0.5203820
511.2965, 0.5681860
511.7786, 0.6378650
512.2607, 0.6349310
512.7429, 0.4672390
513.2250, 0.2715560
513.7071, 0.1647620
514.1892, 0.1344290
514.6713, 0.1071690
515.1534, 4.0104002E-02
515.6356, 1.7354000E-02
516.1177, 1.8591000E-02
516.5998, 0.2259040
517.0819, 0.3431650
517.5640, 0.2979410
518.0461, 0.2146250
518.5283, 0.1681550
519.0104, 0.1605970
519.4925, 0.1743080
519.9746, 0.2029890
520.4567, 0.2288230
520.9388, 0.1759080
521.4210, 3.7539002E-02
521.9031, 4.6611000E-02
522.3852, 5.2042000E-02
522.8673, 5.2149999E-03
523.3494, 4.8351001E-02
523.8315, 2.6660999E-02
524.3137, 3.2795001E-02
524.7958, 0.1274960
525.2779, 0.2299530
525.7600, 6.9907191E-03
526.2421, 0.2771375
526.7242, 0.4268877
527.2064, 0.4627083
527.6885, 4.3377358E-02
528.1706, 0.2117820
528.6527, 0.1446487
529.1348, 6.7857042E-02
529.6169, 0.3189836
530.0991, -3.4148045E-02
530.5812, 0.2117783
531.0633, 0.2185717
531.5454, 0.3348100
532.0275, 0.2140557
532.5096, 0.1665015
532.9918, 0.3560140
533.4739, 0.4142616
533.9560, 0.2662256
534.4381, 0.3894209
534.9202, 2.8011642E-02
535.4023, 9.1850221E-02
535.8845, 0.3391619
536.3666, 0.2030425
536.8487, 0.3305708
537.3308, 0.3576871
537.8129, -7.1526259E-02
538.2951, 0.2928631
538.7772, 0.3140455
539.2593, 2.8865464E-02
539.7415, 0.2883177
540.2236, -5.6487955E-02
540.7057, 0.1977631
541.1878, 0.2128818
541.6699, 0.3374455
542.1520, 0.2250160
542.6342, 0.1857874
543.1163, 0.3836260
543.5984, 0.4501984
544.0805, 0.3104877
544.5626, 0.4420083
545.0447, 8.8924028E-02
545.5269, 0.1610882
546.0090, 0.4167261
546.4911, 0.2889314
546.9732, 0.4247851
547.4553, 0.4602268
547.9374, 3.9338380E-02
548.4196, 0.4120546
548.9017, 0.4415620
549.3838, 0.1186708
549.8659, 0.4641939
550.3480, 0.1898848
550.8301, 0.1368174
551.3123, 0.2502504
551.7944, 0.1901128
552.2765, 0.4036278
552.7586, 0.3535138
553.2407, 0.2798460
553.7228, 0.3089685
554.2050, 4.6814799E-02
554.6871, 0.3250385
555.1692, 0.2341381
555.6513, 0.3267214
556.1334, 0.4608935
556.6155, 0.2766196
557.0977, 0.4294790
557.5798, 5.9524786E-02
558.0619, 0.1270272
558.5440, 0.1474235
559.0261, 0.4474325
559.5082, 8.0026709E-02
559.9904, 0.1353758
560.4725, 0.3707258
560.9546, 0.3542115
561.4367, 0.4430031
561.9188, 0.2200453
562.4009, 0.2899519
562.8831, 0.2791353
563.3652, 0.5472664
563.8473, 0.5951799
564.3294, 0.3775121
564.8115, 0.1609692
565.2936, 0.4491758
565.7758, 0.2589766
566.2579, 0.3268712
566.7400, 0.1282078
567.2221, 0.1596979
567.7042, 0.1875384
568.1863, 0.3333606
568.6685, 0.1214297
569.1506, 0.3735613
569.6327, 0.3574767
570.1148, 0.2950160
570.5969, 0.1947660
571.0790, 8.3848000E-02
571.5612, 4.4647001E-02
572.0433, 0.1089250
572.5254, 0.1720460
573.0075, 0.1602170
573.4896, 0.1224990
573.9717, 0.1349230
574.4539, 0.2210300
574.9360, 0.2870050
575.4181, 0.2529200
575.9002, 0.1888460
576.3823, 0.2092540
576.8644, 0.3196740
577.3466, 0.4311120
577.8287, 0.4738560
578.3108, 0.4478280
578.7929, 0.3773170
579.2750, 0.1486160
579.7571, 2.0605000E-02
580.2393, 0.1089750
580.7214, 0.2354680
581.2035, 0.2361610
581.6856, 0.1237600
582.1677, 3.2880999E-02
582.6498, 7.6053999E-02
583.1320, 0.2017620
583.6141, 0.2090330
584.0962, 3.7900001E-02
584.5783, 4.3379001E-02
585.0604, 0.1884470
585.5425, 0.4248480
586.0247, 0.3363740
586.5068, 5.2462999E-02
586.9889, 0.2034460
587.4710, 9.5694996E-02
587.9531, 5.6960002E-02
588.4352, 0.2283560
588.9174, 0.3053270
589.3995, 0.3580400
589.8816, 0.4215660
590.3637, 0.4593680
590.8458, 0.3962810
591.3279, 0.1606130
591.8101, 3.3780001E-02
592.2922, 0.1307280
592.7743, 0.2212930
593.2564, 0.1355590
593.7385, 3.9489001E-02
594.2206, 1.3595000E-02
594.7028, 3.7199999E-03
595.1849, 0.1924200
595.6670, 0.2976360
596.1491, 0.2954500
596.6312, 0.3305310
597.1133, 0.4746720
597.5955, 0.5736030
598.0776, 0.5150060
598.5597, 0.3636560
599.0418, 0.2416670
599.5239, 0.1835410
600.0060, 0.1550640
600.4882, 0.1230400
600.9703, 0.1004930
601.4524, 0.1467470
601.9345, 0.2781260
602.4166, 0.3594140
602.8987, 0.2437970
603.3809, 4.6907999E-02
603.8630, 7.9599999E-02
604.3451, 3.7055999E-02
604.8272, 8.7544002E-02
605.3093, 0.1295920
605.7914, 0.1346290
606.2736, 0.1456670
606.7557, 0.1699100
607.2378, 0.1902140
607.7199, 0.1839010
608.2020, 0.1651070
608.6841, 0.2271680
609.1663, 0.4353900
609.6484, 0.5337610
610.1305, 0.3235360
610.6126, 5.9023999E-02
611.0947, 2.6371000E-02
611.5768, 6.8135999E-02
612.0590, 0.1535310
612.5411, 0.1318630
613.0232, 7.2428003E-02
613.5053, 5.8460001E-02
613.9874, 7.6683998E-02
614.4695, 7.7945001E-02
614.9517, 3.7043002E-02
615.4338, 5.1940000E-03
615.9159, 2.3859000E-02
616.3980, 0.1594000
616.8801, 0.2449680
617.3622, 0.2537290
617.8444, 0.2477990
618.3265, 0.2337770
618.8086, 0.2288300
619.2907, 0.2583480
619.7728, 0.3313230
620.2549, 0.4258150
620.7371, 0.5517210
621.2192, 0.7023500
621.7013, 0.6765980
622.1834, 0.3733710
622.6655, 0.1010230
623.1476, 5.3259000E-02
623.6298, 0.1496490
624.1119, 0.2766910
624.5940, 0.4588770
625.0761, 0.5648850
625.5582, 0.4906220
626.0403, 0.3304060
626.5225, 0.1790340
627.0046, 5.5048000E-02
627.4867, 1.5222000E-02
627.9688, 8.6399997E-03
628.4509, 4.6743002E-02
628.9330, 5.1266000E-02
629.4152, 6.1710002E-03
629.8973, 5.7509998E-03
630.3794, 0.1625510
630.8615, 0.4181320
631.3436, 0.4787200
631.8257, 0.3926170
632.3079, 0.3163430
632.7900, 0.3391340
633.2721, 0.3806070
633.7542, 0.2804750
634.2363, 5.0682001E-02
634.7184, 1.8044000E-02
635.2006, 3.7420999E-02
635.6827, 7.8837998E-02
636.1648, 0.2246370
636.6469, 0.3886560
637.1291, 0.4877830
637.6112, 0.4424400
638.0933, 0.4130890
638.5754, 0.4776260
639.0576, 0.5679260
639.5397, 0.6020960
640.0218, 0.5721690
640.5039, 0.5322120
640.9860, 0.5322810
641.4681, 0.5521640
641.9503, 0.4804910
642.4324, 0.2576690
642.9145, 8.9197002E-02
643.3966, 4.8053999E-02
643.8787, 4.4082999E-02
644.3608, 1.2437000E-02
644.8430, 5.0629001E-02
645.3251, 1.6589999E-02
645.8072, 4.2284001E-02
646.2893, 1.2833000E-02
646.7714, 1.3767000E-02
647.2535, 3.3426002E-02
647.7357, 9.2269003E-02
648.2178, 0.2054400
648.6999, 0.3330470
649.1820, 0.4330870
649.6641, 0.5056440
650.1462, 0.5465240
650.6284, 0.5628440
651.1105, 0.5396900
651.5926, 0.4102650
652.0747, 0.2744280
652.5568, 0.2366320
653.0389, 0.3047940
653.5211, 0.4263920
654.0032, 0.6133000
654.4853, 0.8047210
654.9674, 0.7635320
655.4495, 0.4482510
655.9316, 0.2182640
656.4138, 0.2300450
656.8959, 0.3512310
657.3780, 0.4334030
657.8601, 0.4792320
658.3422, 0.4731950
658.8243, 0.3290960
659.3065, 0.2243930
659.7886, 0.2902270
660.2707, 0.4353560
660.7528, 0.5289590
661.2349, 0.5238350
661.7170, 0.4498810
662.1992, 0.3333780
662.6813, 0.1776890
663.1634, 0.1246120
663.6455, 0.2363870
664.1276, 0.3269950
664.6097, 0.3098210
665.0919, 0.2629100
665.5740, 0.2576860
666.0561, 0.2972080
666.5382, 0.3260640
667.0203, 0.3217700
667.5024, 0.2927610
667.9846, 0.2318260
668.4667, 0.1518890
668.9488, 9.8688997E-02
669.4309, 9.0769999E-02
669.9130, 9.6934997E-02
670.3951, 6.3963003E-02
670.8773, 2.7714999E-02
671.3594, 5.1699998E-04
671.8415, 0.3418000
672.3236, 0.5722940
672.8057, 0.5211790
673.2878, 0.3590480
673.7700, 0.2443590
674.2521, 0.2057020
674.7342, 0.2464120
675.2163, 0.4671940
675.6984, 0.7350700
676.1805, 0.7245390
676.6627, 0.4471030
677.1448, 0.2446100
677.6269, 0.2635800
678.1090, 0.3642010
678.5911, 0.3419040
679.0732, 0.1572640
679.5554, 8.7020002E-02
680.0375, 0.2377690
680.5196, 0.3781330
681.0017, 0.3987620
681.4838, 0.3616420
681.9659, 0.3475950
682.4481, 0.3702710
682.9302, 0.3743900
683.4123, 0.2841240
683.8944, 0.1373300
684.3765, 9.1058999E-02
684.8586, 0.1587470
685.3408, 0.2550420
685.8229, 0.3940010
686.3050, 0.5086710
686.7871, 0.4859460
687.2692, 0.3257330
687.7513, 0.2003270
688.2335, 0.1734940
688.7156, 0.1591830
689.1977, 0.1297440
689.6798, 9.3092002E-02
690.1619, 4.8880000E-03
690.6440, 6.1845999E-02
691.1262, 0.1339630
691.6083, 6.7520002E-03
692.0904, 0.2265090
692.5725, 0.3448990
693.0546, 0.2204890
693.5367, 9.9239998E-02
694.0189, 5.4939999E-03
694.5010, 3.0920001E-02
694.9831, 5.1173002E-02
695.4652, 0.2315180
695.9473, 0.3519510
696.4294, 0.3054450
696.9116, 0.2454150
697.3937, 0.2891460
697.8758, 0.3905720
698.3579, 0.4597760
698.8400, 0.4780890
699.3221, 0.5006380
699.8043, 0.5944610
700.2864, 0.7338320
700.7685, 0.7102380
701.2506, 0.4099320
701.7327, 0.1726570
702.2148, 4.9749002E-02
702.6970, 7.8630000E-03
703.1791, 7.8039996E-02
703.6612, 0.2263510
704.1433, 0.3400010
704.6254, 0.3728010
705.1075, 0.3530500
705.5897, 0.2749250
706.0718, 0.1678900
706.5539, 8.8281997E-02
707.0360, 4.8188001E-02
707.5181, 5.4412000E-02
708.0002, 0.1225820
708.4824, 0.2326700
708.9645, 0.2736010
709.4466, 0.1753550
709.9287, 0.1344230
710.4108, 0.2804490
710.8929, 0.3808040
711.3751, 0.2310810
711.8572, 3.2251000E-02
712.3393, 0.1335260
712.8214, 3.5808001E-02
713.3035, 2.7962999E-02
713.7856, 9.7411998E-02
714.2678, 0.1046280
714.7499, 0.1241420
715.2320, 0.1632370
715.7141, 0.1570720
716.1962, 4.7614001E-02
716.6783, 6.2469998E-03
717.1605, 1.3695000E-02
717.6426, 0.3056260
718.1247, 0.5003350
718.6068, 0.3588280
719.0889, 0.1990440
719.5710, 0.1619580
720.0532, 0.1979350
720.5353, 0.2249890
721.0174, 0.2235480
721.4995, 0.2024350
721.9816, 0.1474560
722.4637, 8.4927998E-02
722.9459, 5.3672999E-02
723.4280, 6.0187999E-02
723.9101, 0.1620440
724.3922, 0.4179800
724.8743, 0.6836110
725.3564, 0.6627070
725.8386, 0.2185240
726.3207, 1.8978000E-02
726.8028, 0.1323190
727.2849, 0.2714940
727.7670, 0.2207170
728.2491, 0.1199430
728.7313, 0.1869130
729.2134, 0.4546660
729.6955, 0.6374340
730.1776, 0.4336370
730.6597, 7.6626003E-02
731.1418, 3.2019001E-02
731.6240, 1.4660000E-03
732.1061, 6.2600002E-02
732.5882, 6.7087002E-02
733.0703, 7.0955001E-02
733.5524, 0.1605430
734.0345, 0.3427700
734.5167, 0.4445550
734.9988, 0.4472090
735.4809, 0.3883160
735.9631, 0.2281830
736.4452, 4.3779001E-02
736.9273, 4.8395000E-02
737.4094, 0.2165380
737.8915, 0.2428420
738.3737, 1.7178999E-02
738.8558, 0.2246060
739.3379, 0.3360120
739.8200, 0.2896330
740.3021, 0.1993230
740.7842, 8.9139000E-02
741.2664, 1.6113000E-02
741.7485, 3.5301998E-02
742.2306, 0.1219550
742.7127, 0.1536250
743.1948, 9.3409002E-02
743.6769, 4.4741001E-02
744.1591, 8.2120001E-03
744.6412, 2.8207000E-02
745.1233, 6.8194002E-02
745.6054, 0.2005280
746.0875, 0.1658380
746.5696, 3.3378001E-02
747.0518, 0.2641180
747.5339, 5.0815001E-02
748.0160, 0.4562660
748.4981, 0.6245340
748.9802, 0.4305130
749.4623, 0.2673130
749.9445, 0.3344010
750.4266, 0.4883880
750.9087, 0.4600820
751.3908, 0.1818750
751.8729, 4.1944999E-02
752.3550, 0.1089310
752.8372, 0.2303710
753.3193, 0.4286240
753.8014, 0.6013380
754.2835, 0.6050130
754.7656, 0.4291430
755.2477, 0.2788710
755.7299, 0.2959930
756.2120, 0.3429520
756.6941, 0.2810240
757.1762, 0.1450310
757.6583, 6.1369999E-03
758.1404, 6.0219001E-02
758.6226, 1.0938000E-02
759.1047, 8.5849002E-02
759.5868, 8.2919002E-02
760.0689, 0.1704210
760.5510, 0.1414720
761.0331, 0.1114080
761.5153, 8.2989000E-02
761.9974, 7.6605998E-02
762.4795, 0.1357920
762.9616, 0.2297260
763.4437, 0.2556580
763.9258, 0.1531170
764.4080, 5.0469998E-02
764.8901, 8.4429998E-03
765.3722, 2.8599999E-04
765.8543, 1.9783000E-02
766.3364, 3.9041001E-02
766.8185, 1.5450000E-02
767.3007, 0.1897030
767.7828, 0.3790100
768.2649, 0.3630220
768.7470, 0.1299290
769.2291, 2.9228000E-02
769.7112, 0.1159060
770.1934, 0.2023380
770.6755, 0.2052870
771.1576, 0.1732910
771.6397, 0.1997180
772.1218, 0.3077330
772.6039, 0.3106310
773.0861, 3.8867999E-02
773.5682, 3.6106002E-02
774.0503, 4.8370998E-02
774.5324, 5.5314001E-02
775.0145, 3.1659000E-02
775.4966, 4.2374000E-02
775.9788, 1.1028000E-02
776.4609, 5.2170999E-02
776.9430, 0.1133440
777.4251, 6.3468002E-02
777.9072, 9.3370996E-02
778.3893, 0.1762510
778.8715, 0.1276910
779.3536, 5.7797000E-02
779.8357, 6.3715003E-02
780.3178, 0.1327630
780.7999, 0.1778870
781.2820, 0.1758860
781.7642, 0.1841500
782.2463, 0.2332080
782.7284, 0.2672980
783.2105, 0.2383380
783.6926, 0.1698880
784.1747, 0.1026320
784.6569, 5.2827001E-02
785.1390, 4.4176999E-02
785.6211, 0.1249250
786.1032, 0.2534630
786.5853, 0.3625910
787.0674, 0.4442660
787.5496, 0.4807360
788.0317, 0.4637550
788.5138, 0.3948190
788.9959, 0.2508160
789.4780, 2.3674000E-02
789.9601, 3.5834000E-02
790.4423, 0.2161540
790.9244, 0.4014620
791.4065, 0.3850580
791.8886, 0.3063680
792.3707, 0.2704330
792.8528, 0.2752430
793.3350, 0.2688180
793.8171, 0.2078840
794.2992, 0.1666100
794.7813, 0.2165790
795.2634, 0.2889650
795.7455, 0.3044140
796.2277, 0.2688870
796.7098, 0.1997520
797.1919, 0.1036250
797.6740, 1.1938000E-02
798.1561, 7.4780001E-03
798.6382, 4.8163000E-02
799.1204, 0.1014790
799.6025, 0.1514070
800.0846, 0.1915050
800.5667, 0.2195860
801.0488, 0.2356000
801.5309, 0.2232980
802.0131, 0.1636680
802.4952, 0.1825420
802.9773, 0.4234940
803.4594, 0.5984120
803.9415, 0.5475920
804.4236, 0.3810180
804.9058, 0.1954090
805.3879, 5.2186001E-02
805.8700, 1.3515000E-02
806.3521, 3.7648000E-02
806.8342, 0.1551160
807.3163, 0.2908910
807.7985, 0.4295600
808.2806, 0.4900440
808.7627, 0.4564450
809.2448, 0.4290180
809.7269, 0.4887740
810.2090, 0.5915560
810.6912, 0.5915610
811.1733, 0.4052530
811.6554, 0.3163080
812.1375, 0.4366350
812.6196, 0.5266140
813.1017, 0.4506680
813.5839, 0.3145580
814.0660, 0.2556400
814.5481, 0.2933000
815.0302, 0.3737090
815.5123, 0.5585990
815.9944, 0.6926330
816.4766, 0.6005420
816.9587, 0.3916000
817.4408, 0.2915770
817.9229, 0.3350760
818.4050, 0.4066260
818.8871, 0.4083030
819.3693, 0.3736070
819.8514, 0.4057750
820.3335, 0.5092880
820.8156, 0.5616740
821.2977, 0.5268200
821.7798, 0.4932250
822.2620, 0.5265170
822.7441, 0.6017710
823.2262, 0.6525850
823.7083, 0.7179430
824.1904, 0.6642840
824.6725, 0.2891120
825.1547, 1.8662000E-02
825.6368, 0.1445270
826.1189, 0.4430450
826.6010, 0.6135620
827.0831, 0.6023450
827.5652, 0.5590150
828.0474, 0.5808450
828.5295, 0.6215990
829.0116, 0.6281950
829.4937, 0.6086590
829.9758, 0.5749440
830.4579, 0.5327220
830.9401, 0.5032930
831.4222, 0.4948040
831.9043, 0.5231680
832.3864, 0.6639930
832.8685, 0.9763500
833.3506, 1.094854
833.8328, 0.8921400
834.3149, 0.6768320
834.7971, 0.6209820
835.2792, 0.6631660
835.7613, 0.6745590
836.2434, 0.6388370
836.7255, 0.6400630
837.2076, 0.6962280
837.6898, 0.7869620
838.1719, 0.9986670
838.6540, 1.184127
839.1361, 1.126129
839.6182, 0.8323720
840.1003, 0.5263010
840.5825, 0.3206070
841.0646, 0.2263490
841.5467, 0.3291950
842.0288, 0.5545010
842.5109, 0.6226340
842.9930, 0.5071680
843.4752, 0.4793230
843.9573, 0.7205570
844.4394, 1.061133
844.9215, 1.143283
845.4036, 0.9030720
845.8857, 0.7275450
846.3679, 0.6202240
846.8500, 0.5714560
847.3321, 0.6339790
847.8142, 0.7131100
848.2963, 0.6788910
848.7784, 0.5399200
849.2606, 0.5115720
849.7427, 0.7391460
850.2248, 0.9466330
850.7069, 1.042125
851.1890, 1.052420
851.6711, 0.9750240
852.1533, 0.8394390
852.6354, 0.7051860
853.1175, 0.5957890
853.5996, 0.5350490
854.0817, 0.5858990
854.5638, 0.7051540
855.0460, 0.7728070
855.5281, 0.7798560
856.0102, 0.7588830
856.4923, 0.7225280
856.9744, 0.6865620
857.4565, 0.6620970
857.9387, 0.6499220
858.4208, 0.6752620
858.9029, 0.7414870
859.3850, 0.8403060
859.8671, 1.027011
860.3492, 1.185287
860.8314, 1.248757
861.3135, 1.213881
861.7956, 1.053302
862.2777, 0.6593230
862.7598, 0.3842850
863.2419, 0.3619400
863.7241, 0.4446250
864.2062, 0.5990420
864.6883, 0.7635610
865.1704, 0.8576010
865.6525, 0.8611570
866.1346, 0.8105650
866.6168, 0.7120450
867.0989, 0.5987970
867.5810, 0.5336190
868.0631, 0.5015130
868.5452, 0.4638660
869.0273, 0.4185140
869.5095, 0.4073710
869.9916, 0.4663190
870.4737, 0.5631500
870.9558, 0.6151840
871.4379, 0.6117230
871.9200, 0.6638770
872.4022, 0.8430000
872.8843, 0.9307010
873.3664, 0.7261240
873.8485, 0.4467780
874.3306, 0.4522620
874.8127, 0.7557780
875.2949, 0.9635720
875.7770, 1.040143
876.2591, 1.030944
876.7412, 0.8473540
877.2233, 0.6697580
877.7054, 0.6883160
878.1876, 0.8387110
878.6697, 0.8723990
879.1518, 0.6625330
879.6339, 0.4519240
880.1160, 0.5050190
880.5981, 0.6307030
881.0803, 0.4980290
881.5624, 0.1884110
882.0445, 4.8351999E-02
882.5266, 0.1879090
883.0087, 0.3854660
883.4908, 0.4045990
883.9730, 0.2972610
884.4551, 0.2680920
884.9372, 0.3205630
885.4193, 0.3979260
885.9014, 0.4988980
886.3835, 0.5987630
886.8657, 0.7027800
887.3478, 0.7765930
887.8299, 0.7153420
888.3120, 0.4395570
888.7941, 0.2427340
889.2762, 0.1305590
889.7584, 8.9722998E-02
890.2405, 0.1712280
890.7226, 0.2909950
891.2047, 0.3543400
891.6868, 0.3610160
892.1689, 0.3367010
892.6511, 0.2649610
893.1332, 0.1968710
893.6153, 0.1556840
894.0974, 0.1327620
894.5795, 8.4169999E-02
895.0616, 4.7646001E-02
895.5438, 0.1738830
896.0259, 0.5251300
896.5080, 0.8144190
896.9901, 0.6105860
897.4722, 0.1610520
897.9543, 9.8173000E-02
898.4365, 0.3547360
898.9186, 0.4868040
899.4007, 0.3702180
899.8828, 0.1610850
900.3649, 2.5005000E-02
900.8470, 6.2886998E-02
901.3292, 0.1035750
901.8113, 0.1672850
902.2934, 0.3043200
902.7755, 0.2089650
903.2576, 8.6344004E-02
903.7397, 1.6251000E-02
904.2219, 4.2650001E-03
904.7040, 4.3866001E-02
905.1861, 0.1783830
905.6682, 0.2256960
906.1503, 4.0089000E-02
906.6324, 3.4734000E-02
907.1146, 0.2348620
907.5967, 0.5195770
908.0788, 0.5047330
908.5609, 0.2769190
909.0430, 0.1591740
909.5251, 0.2742480
910.0073, 0.3483140
910.4894, 0.2185550
910.9715, 2.0726999E-02
911.4536, 2.3119999E-02
911.9357, 0.1006720
912.4178, 0.1404900
912.9000, 9.2141002E-02
913.3821, 1.6101001E-02
913.8642, 2.0005999E-02
914.3463, 0.1983630
914.8284, 0.3013400
915.3105, 0.3336570
915.7927, 0.3040930
916.2748, 0.2159480
916.7569, 0.1173880
917.2390, 3.1679999E-02
917.7211, 3.5016999E-02
918.2032, 6.8585999E-02
918.6854, 5.0747000E-02
919.1675, 5.2361000E-02
919.6496, 7.5098999E-02
920.1317, 0.1543250
920.6138, 0.1259430
921.0959, 7.5906999E-02
921.5781, 8.4899999E-02
922.0602, 0.1362390
922.5423, 0.1477870
923.0244, 0.1065600
923.5065, 5.1716000E-02
923.9886, 5.9051000E-02
924.4708, 1.2763000E-02
924.9529, 2.7406000E-02
925.4350, 1.3250000E-02
925.9171, 1.0659000E-02
926.3992, 2.5485000E-02
926.8813, 2.5367999E-02
927.3635, 2.6800999E-02
927.8456, 2.6039001E-02
928.3277, 1.6401000E-02
928.8098, 4.4489000E-02
929.2919, 3.6476001E-02
929.7740, 0.1581740
930.2562, 0.1965800
930.7383, 0.1072730
931.2204, 2.0176999E-02
931.7025, 3.5620001E-03
932.1846, 5.5962998E-02
932.6667, 0.2293950
933.1489, 0.4540290
933.6310, 0.4473000
934.1132, 0.1662700
934.5953, 2.1550000E-02
935.0774, 3.0904001E-02
935.5595, 0.2903170
936.0416, 0.3760290
936.5237, 0.2864480
937.0059, 0.2500360
937.4880, 0.2800900
937.9701, 0.3526140
938.4522, 0.4770020
938.9343, 0.5965820
939.4164, 0.6466200
939.8986, 0.6290060
940.3807, 0.5734660
940.8628, 0.4518600
941.3449, 0.3482490
941.8270, 0.2789980
942.3091, 0.2192450
942.7913, 0.1276490
943.2734, 4.9334999E-02
943.7555, 7.7440999E-02
944.2376, 0.2356460
944.7197, 0.3336160
945.2018, 0.2709600
945.6840, 0.2502250
946.1661, 0.3752980
946.6482, 0.4925760
947.1303, 0.3828690
947.6124, 0.1323200
948.0945, 2.6660000E-03
948.5767, 0.1147770
949.0588, 0.2554690
949.5409, 0.2630920
950.0230, 0.2645980
950.5051, 0.4301400
950.9872, 0.6589070
951.4694, 0.7318940
951.9515, 0.6259260
952.4336, 0.4776850
952.9157, 0.3638410
953.3978, 0.3019460
953.8799, 0.3417330
954.3621, 0.4416240
954.8442, 0.4918180
955.3263, 0.4868860
955.8084, 0.4607280
956.2905, 0.4268180
956.7726, 0.3769170
957.2548, 0.2928080
957.7369, 0.1914230
958.2190, 0.1437530
958.7011, 0.1482720
959.1832, 0.1971350
959.6653, 0.3106010
960.1475, 0.4016390
960.6296, 0.4275740
961.1117, 0.3920460
961.5938, 0.2793910
962.0759, 6.3196003E-02
962.5580, 3.9864998E-02
963.0402, 0.3215630
963.5223, 0.5639530
964.0044, 0.7346860
964.4865, 0.7932110
964.9686, 0.6682710
965.4507, 0.4116810
965.9329, 0.1773970
966.4150, 0.1077310
966.8971, 0.1956130
967.3792, 0.1274500
967.8613, 0.3823830
968.3434, 0.3557440
968.8256, 0.2440880
969.3077, 0.2642150
969.7898, 0.3899260
970.2719, 0.4184410
970.7540, 0.2221600
971.2361, 9.9382997E-02
971.7183, 0.2633460
972.2004, 0.4545140
972.6825, 0.1918040
973.1646, 0.4967910
973.6467, 0.6644820
974.1288, 0.7022550
974.6110, 0.2210030
975.0931, 0.4099500
975.5752, 0.3278620
976.0573, 0.2326260
976.5394, 0.5124110
977.0215, 0.1030360
977.5037, 0.3803590
977.9858, 0.3849950
978.4679, 0.5144260
978.9500, 0.3736070
979.4321, 0.3162540
979.9142, 0.5292280
980.3964, 0.5925090
980.8785, 0.4205620
981.3606, 0.5578970
981.8427, 0.1384230
982.3248, 0.2080730
982.8069, 0.4846920
983.2891, 0.3249420
983.7712, 0.4659780
984.2533, 0.4915620
984.7354, 1.0329999E-03
985.2175, 0.4089960
985.6996, 0.4276920
986.1818, 4.5127999E-02
986.6639, 0.4229870
987.1460, 0.1773200
987.6281, 0.2938470
988.1102, 0.2690590
988.5923, 8.2592003E-02
989.0745, 1.9091001E-02
989.5566, 5.8010999E-02
990.0387, 2.6134999E-02
990.5208, 0.3773660
991.0029, 0.7270860
991.4850, 0.6108950
991.9672, 0.1782520
992.4493, 1.1102000E-02
992.9314, 0.2868200
993.4135, 0.4399820
993.8956, 0.4012010
994.3777, 0.3313420
994.8599, 0.2073110
995.3420, 0.1304920
995.8241, 0.2500340
996.3062, 0.5195980
996.7883, 0.6679420
997.2704, 0.6242470
997.7526, 0.5472490
998.2347, 0.4088440
998.7168, 0.2972350
999.1989, 0.2542920
999.6810, 0.2634230
1000.163, 0.3334420
1000.645, 0.4467140
1001.127, 0.4869540
1001.609, 0.3850470
1002.092, 0.2629960
1002.574, 4.4337001E-02
1003.056, 0.2620430
1003.538, 7.3926002E-02
1004.020, 0.2726020
1004.502, 0.3413650
1004.984, 0.1088910
1005.466, 0.1109900
1005.949, 6.3049003E-02
1006.431, 3.3300000E-03
1006.913, 0.3175290
1007.395, 5.7312001E-02
1007.877, 0.2509190
1008.359, 0.2864630
1008.841, 6.0956001E-02
1009.323, 1.4816000E-02
1009.805, 1.4627000E-02
1010.288, 0.2000230
1010.770, 0.4810030
1011.252, 0.4454110
1011.734, 0.2530840
1012.216, 0.1927010
1012.698, 0.2693780
1013.180, 0.3668670
1013.662, 0.4343300
1014.145, 0.4577640
1014.627, 0.4078280
1015.109, 0.3173680
1015.591, 0.2285200
1016.073, 0.1569130
1016.555, 0.1852450
1017.037, 0.3045070
1017.519, 0.3764770
1018.001, 0.3313880
1018.484, 0.2269820
1018.966, 0.1129500
1019.448, 1.2830000E-02
1019.930, 3.4139998E-02
1020.412, 0.1626180
1020.894, 0.2555530
1021.376, 0.2838790
1021.858, 0.3148390
1022.341, 0.3885570
1022.823, 0.4756600
1023.305, 0.5394360
1023.787, 0.5749990
1024.269, 0.5087960
1024.751, 0.3384450
1025.233, 0.2756640
1025.715, 0.3571150
1026.198, 0.4269320
1026.680, 0.3848690
1027.162, 0.2773500
1027.644, 0.1788280
1028.126, 8.7752998E-02
1028.608, 0.1102090
1029.090, 0.2666400
1029.572, 0.3783320
1030.054, 0.3847440
1030.536, 0.4033650
1031.019, 0.5335130
1031.501, 0.7024940
1031.983, 0.7440140
1032.465, 0.6317870
1032.947, 0.6106080
1033.429, 0.7628040
1033.911, 0.8082420
1034.393, 0.6252140
1034.876, 0.3918800
1035.358, 0.1942610
1035.840, 6.8457000E-02
1036.322, 0.1214770
1036.804, 0.4151230
1037.286, 0.5930600
1037.768, 0.6387750
1038.250, 0.5917140
1038.733, 0.3635320
1039.215, 0.1619180
1039.697, 0.1597450
1040.179, 0.2884860
1040.661, 0.3945920
1041.143, 0.5080640
1041.625, 0.5097430
1042.107, 0.2420830
1042.589, 7.8644998E-02
1043.072, 0.1469960
1043.554, 0.2929660
1044.036, 0.4663080
1044.518, 0.6263650
1045.000, 0.6657710
1045.482, 0.5411530
1045.964, 0.4589550
1046.446, 0.4371510
1046.928, 0.4488000
1047.411, 0.5609340
1047.893, 0.6452600
1048.375, 0.5720790
1048.857, 0.3991500
1049.339, 0.2656010
1049.821, 0.1715800
1050.303, 0.1824030
1050.785, 0.4785980
1051.268, 0.6639430
1051.750, 0.4956670
1052.232, 0.2730620
1052.714, 0.2343080
1053.196, 0.3232740
1053.678, 0.3839830
1054.160, 0.3871890
1054.642, 0.4095790
1055.125, 0.5017220
1055.607, 0.5731010
1056.089, 0.5615390
1056.571, 0.5416490
1057.053, 0.6109950
1057.535, 0.7142720
1058.017, 0.6980850
1058.499, 0.5261780
1058.981, 0.3715400
1059.464, 0.2300370
1059.946, 0.1889990
1060.428, 0.4193070
1060.910, 0.6228700
1061.392, 0.5735260
1061.874, 0.3457210
1062.356, 0.1553170
1062.838, 3.7199002E-02
1063.320, 4.7366001E-02
1063.803, 6.5219998E-02
1064.285, 9.6694000E-02
1064.767, 0.1188490
1065.249, 0.4811290
1065.731, 0.4750450
1066.213, 0.2490040
1066.695, 0.1458870
1067.177, 0.2284120
1067.660, 0.3016210
1068.142, 2.8798999E-02
1068.624, 0.3380870
1069.106, 0.5130260
1069.588, 0.5551160
1070.070, 7.8194000E-02
1070.552, 0.2714750
1071.034, 0.1961710
1071.516, 0.1098580
1071.999, 0.3974660
1072.481, 1.6080000E-03
1072.963, 0.2828960
1073.445, 0.2919040
1073.927, 0.4257140
1074.409, 0.2892820
1074.891, 0.2363220
1075.373, 0.3458730
1075.855, 0.5692060
1076.338, 0.7077220
1076.820, 0.6584570
1077.302, 0.5489890
1077.784, 0.3742040
1078.266, 0.2307710
1078.748, 0.2378480
1079.230, 0.3029810
1079.712, 0.2628460
1080.195, 0.1178870
1080.677, 3.0196000E-02
1081.159, 7.9379998E-02
1081.641, 0.1568580
1082.123, 0.2491240
1082.605, 0.3120870
1083.087, 0.2803390
1083.569, 0.2195500
1084.052, 0.2465440
1084.534, 0.3407390
1085.016, 0.3236760
1085.498, 4.6691000E-02
1085.980, 4.2401999E-02
1086.462, 0.3196510
1086.944, 0.6955590
1087.426, 0.5866320
1087.908, 0.3059120
1088.391, 0.2735170
1088.873, 0.4416770
1089.355, 0.4701520
1089.837, 0.2284290
1090.319, 7.8180004E-03
1090.801, 7.0220999E-02
1091.283, 0.1430410
1091.765, 2.5455000E-02
1092.248, 0.1300030
1092.730, 0.2541840
1093.212, 0.2748480
1093.694, 0.2270900
1094.176, 0.1024180
1094.658, 5.0004002E-02
1095.140, 0.2350450
1095.622, 0.3605890
1096.104, 0.2227690
1096.587, 3.0835999E-02
1097.069, 3.9090998E-02
1097.551, 3.1367000E-02
1098.033, 8.8549003E-02
1098.515, 0.4782820
1098.997, 0.6888770
1099.479, 0.4763120
1099.961, 0.2580860
1100.443, 0.1563990
1100.926, 0.1168150
1101.408, 0.1006560
1101.890, 0.1136480
1102.372, 0.2137170
1102.854, 0.3958040
1103.336, 0.4723260
1103.818, 0.2987840
1104.300, 0.1678030
1104.783, 0.1469640
1105.265, 0.1795440
1105.747, 0.3177760
1106.229, 0.4463620
1106.711, 0.3963360
1107.193, 0.1858310
1107.675, 2.7944000E-02
1108.157, 2.8146001E-02
1108.640, 2.4474001E-02
1109.122, 0.1140960
1109.604, 0.2831750
1110.086, 0.3393190
1110.568, 0.3497000
1111.050, 0.3833180
1111.532, 0.4281160
1112.014, 0.4262460
1112.496, 0.3440660
1112.979, 0.3009520
1113.461, 0.3866190
1113.943, 0.3950190
1114.425, 0.1640310
1114.907, 4.5759998E-02
1115.389, 1.1290000E-02
1115.871, 0.1638840
1116.353, 0.2419040
1116.835, 0.1997350
1117.318, 0.2088430
1117.800, 0.3539430
1118.282, 0.3952370
1118.764, 0.2093490
1119.246, 4.7378998E-02
1119.728, 5.8281001E-02
1120.210, 0.1629370
1120.692, 0.2460200
1121.175, 0.3055790
1121.657, 0.3620470
1122.139, 0.4188320
1122.621, 0.5030930
1123.103, 0.6466620
1123.585, 0.6998680
1124.067, 0.5800550
1124.549, 0.3752310
1125.031, 0.1595150
1125.514, 4.4422001E-02
1125.996, 3.3039000E-02
1126.478, 4.3533999E-02
1126.960, 1.0262000E-02
1127.442, 2.6453000E-02
1127.924, 9.8254003E-02
1128.406, 0.2856440
1128.888, 0.3941360
1129.370, 0.2378550
1129.853, 3.3647999E-02
1130.335, 4.1049998E-02
1130.817, 0.2036380
1131.299, 0.3023280
1131.781, 0.2464160
1132.263, 0.1393390
1132.745, 4.8110001E-03
1133.227, 1.3567000E-02
1133.710, 6.8560001E-03
1134.192, 1.2072000E-02
1134.674, 0.2501140
1135.156, 0.5509890
1135.638, 0.5846670
1136.120, 0.3855600
1136.602, 0.1982540
1137.084, 5.7326999E-02
1137.567, 1.3300000E-03
1138.049, 4.3747000E-02
1138.531, 0.1042630
1139.013, 0.1052560
1139.495, 8.0973998E-02
1139.977, 0.1040060
1140.459, 0.1548590
1140.941, 0.1531530
1141.423, 0.1255860
1141.906, 0.2226210
1142.388, 0.4539720
1142.870, 0.6160200
1143.352, 0.5639160
1143.834, 0.4495190
1144.316, 0.4964810
1144.798, 0.5762580
1145.280, 0.4590890
1145.762, 0.2456820
1146.245, 0.1474100
1146.727, 0.1680760
1147.209, 0.1858750
1147.691, 0.1540000
1148.173, 0.1589060
1148.655, 0.3390900
1149.137, 0.4912330
1149.619, 0.3861670
1150.102, 0.2103410
1150.584, 0.1787830
1151.066, 0.2504330
1151.548, 0.3112800
1152.030, 0.3344800
1152.512, 0.3325900
1152.994, 0.2940430
1153.476, 0.2703840
1153.958, 0.3617610
1154.441, 0.4010070
1154.923, 0.1820850
1155.405, 1.0209000E-02
1155.887, 6.7039996E-02
1156.369, 2.4173001E-02
1156.851, 6.1404001E-02
1157.333, 6.9802001E-02
1157.815, 5.6309000E-02
1158.297, 1.5609000E-02
1158.780, 3.2427002E-02
1159.262, 5.0840002E-02
1159.744, 0.1597030
1160.226, 0.2358580
1160.708, 0.2658030
1161.190, 0.2040690
1161.672, 4.0291999E-02
1162.154, 3.0471999E-02
1162.637, 7.8153998E-02
1163.119, 0.1137350
1163.601, 9.0000003E-06
1164.083, 1.3255000E-02
1164.565, 2.5640000E-03
1165.047, 2.7100000E-04
1165.529, 7.8721002E-02
1166.011, 0.1640400
1166.494, 0.2846530
1166.976, 0.4759460
1167.458, 0.5302390
1167.940, 0.4100490
1168.422, 0.3497650
1168.904, 0.4213170
1169.386, 0.4685020
1169.868, 0.3757400
1170.350, 0.2497160
1170.833, 0.2880110
1171.315, 0.4459490
1171.797, 0.5037070
1172.279, 0.4676720
1172.761, 0.3425030
1173.243, 0.1475120
1173.725, 1.2400000E-03
1174.207, 2.6585000E-02
1174.689, 1.2608000E-02
1175.172, 0.2763410
1175.654, 0.5450700
1176.136, 0.3888620
1176.618, 3.5957001E-02
1177.100, 6.0692001E-02
1177.582, 0.3369940
1178.064, 0.4143720
1178.546, 0.2492670
1179.029, 0.1413780
1179.511, 0.2417430
1179.993, 0.3528760
1180.475, 0.2405770
1180.957, 0.1255320
1181.439, 0.3200450
1181.921, 0.5698270
1182.403, 0.5106290
1182.885, 0.2506800
1183.368, 7.3330998E-02
1183.850, 4.1708000E-02
1184.332, 4.4305000E-02
1184.814, 3.7778001E-02
1185.296, 5.1318999E-02
1185.778, 0.1348570
1186.260, 0.2005030
1186.742, 0.1332360
1187.225, 6.8255000E-02
1187.707, 0.2063750
1188.189, 0.4755530
1188.671, 0.5836480
1189.153, 0.4468900
1189.635, 0.3504910
1190.117, 0.3279530
1190.599, 0.3223030
1191.082, 0.3552630
1191.564, 0.3575570
1192.046, 0.2763610
1192.528, 0.1618080
1193.010, 8.1191003E-02
1193.492, 3.4040000E-02
1193.974, 1.1343000E-02
1194.456, 1.0337000E-02
1194.938, 5.5234000E-02
1195.421, 0.1606120
1195.903, 0.2312910
1196.385, 0.2394920
1196.867, 0.2060560
1197.349, 0.1414970
1197.831, 0.1097440
1198.313, 0.2955730
1198.795, 0.6052580
1199.277, 0.4861550
1199.760, 5.2184999E-02
1200.242, 4.5426000E-02
1200.724, 0.2067140
1201.206, 0.3502850
1201.688, 0.2143930
1202.170, 4.4199999E-02
1202.652, 3.7485000E-02
1203.134, 9.9698998E-02
1203.617, 0.1251990
1204.099, 0.1336950
1204.581, 0.1661090
1205.063, 0.1968340
1205.545, 0.1569770
1206.027, 6.5016001E-02
1206.509, 2.0420000E-02
1206.991, 6.2194999E-02
1207.474, 0.1108700
1207.956, 0.1222320
1208.438, 0.1314690
1208.920, 0.1850790
1209.402, 0.2194090
1209.884, 0.1057630
1210.366, 2.7649000E-02
1210.848, 4.9286999E-02
1211.330, 0.3231900
1211.813, 0.5036290
1212.295, 0.5718990
1212.777, 0.5165630
1213.259, 0.1845650
1213.741, 2.1252001E-02
1214.223, 8.0291003E-02
1214.705, 0.2247070
1215.187, 0.2180330
1215.669, 0.1545070
1216.152, 0.2174540
1216.634, 0.3943470
1217.116, 0.4620180
1217.598, 0.4116210
1218.080, 0.3012850
1218.562, 0.1294080
1219.044, 4.2647000E-02
1219.526, 9.3515001E-02
1220.009, 0.1702450
1220.491, 0.1866350
1220.973, 0.1940680
1221.455, 0.3346500
1221.937, 0.5146700
1222.419, 0.4547830
1222.901, 0.2491960
1223.383, 0.1350440
1223.865, 0.1391110
1224.348, 0.2344950
1224.830, 0.4018970
1225.312, 0.5048940
1225.794, 0.4186100
1226.276, 0.2967760
1226.758, 0.2706540
1227.240, 0.2432980
1227.722, 6.5612003E-02
1228.204, 3.0378999E-02
1228.687, 6.3140001E-03
1229.169, 8.6649001E-02
1229.651, 0.2040950
1230.133, 0.2081880
1230.615, 0.1662900
1231.097, 2.8769000E-02
1231.579, 2.4026999E-02
1232.061, 1.3045000E-02
1232.544, 9.8430002E-03
1233.026, 3.0827999E-02
1233.508, 1.0796000E-02
1233.990, 0.1222780
1234.472, 0.2542630
1234.954, 0.3262840
1235.436, 0.3316590
1235.918, 0.3192100
1236.401, 0.2870140
1236.883, 0.2549950
1237.365, 0.2262790
1237.847, 0.2263430
1238.329, 0.2708070
1238.811, 0.3112420
1239.293, 0.2870200
1239.775, 0.2296140
1240.257, 0.1964550
1240.740, 0.1845280
1241.222, 0.1945260
1241.704, 0.2181130
1242.186, 0.2148060
1242.668, 0.1962110
1243.150, 0.2676870
1243.632, 0.4884070
1244.114, 0.6150930
1244.596, 0.3713160
1245.079, 0.1474650
1245.561, 0.2572220
1246.043, 0.4311220
1246.525, 0.4513140
1247.007, 0.3727600
1247.489, 0.2782820
1247.971, 0.1847030
1248.453, 0.1316620
1248.936, 0.1413620
1249.418, 0.1450120
1249.900, 0.1606530
1250.382, 0.1423220
1250.864, 2.8291000E-02
1251.346, 7.8339996E-03
1251.828, 0.2355150
1252.310, 0.4740500
1252.792, 0.3816060
1253.275, 6.1207000E-02
1253.757, 3.0183000E-02
1254.239, 2.5202001E-02
1254.721, 9.0286002E-02
1255.203, 0.1328440
1255.685, 0.1586250
1256.167, 0.1674010
1256.649, 0.1387120
1257.131, 6.1386000E-02
1257.614, 1.0073000E-02
1258.096, 2.4281999E-02
1258.578, 2.8813999E-02
1259.060, 0.1044190
1259.542, 0.2717020
1260.024, 0.4220360
1260.506, 0.5096840
1260.988, 0.4097070
1261.471, 0.1573380
1261.953, 3.4729999E-03
1262.435, 2.6844000E-02
1262.917, 9.0838000E-02
1263.399, 0.2415350
1263.881, 0.3126450
1264.363, 0.1804300
1264.845, 5.4609001E-02
1265.328, 5.9656002E-02
1265.810, 9.7797997E-02
1266.292, 3.5510000E-02
1266.774, 1.1673000E-02
1267.256, 8.1800000E-04
1267.738, 0.2987260
1268.220, 0.4062240
1268.702, 0.3152490
1269.184, 0.3022220
1269.667, 0.4113710
1270.149, 0.4700390
1270.631, 0.3950810
1271.113, 0.2848690
1271.595, 0.2744380
1272.077, 0.2892660
1272.559, 0.1809600
1273.041, 6.2852003E-02
1273.523, 0.2651050
1274.006, 0.5715700
1274.488, 0.4861590
1274.970, 0.1227060
1275.452, 4.9593002E-02
1275.934, 0.4202780
1276.416, 0.6678020
1276.898, 0.4281890
1277.380, 0.2514850
1277.863, 0.4733000
1278.345, 0.6387070
1278.827, 0.4586050
1279.309, 0.2053350
1279.791, 7.7592000E-02
1280.273, 5.3546000E-02
1280.755, 0.1096350
1281.237, 0.2456670
1281.719, 0.2054600
1282.202, 1.6616000E-02
1282.684, 3.3000000E-03
1283.166, 0.2212730
1283.648, 0.3718380
1284.130, 0.2917520
1284.612, 0.2007280
1285.094, 0.1694000
1285.576, 0.1658820
1286.059, 0.2360610
1286.541, 0.2458460
1287.023, 0.1650490
1287.505, 0.0000000E+00
##END=



