##NAMES=Minasragrite
##RRUFFID=R130365
##IDEAL CHEMISTRY=V^4+^O(S^6+^O_4_)&#183;5H_2_O
##LOCALITY=Minas Ragra mine, Pasco, Peru
##OWNER=RRUFF
##SOURCE=Tom Loomis
##DESCRIPTION=Glassy blue crystals on patronite, associated with R130366 retgersite
##STATUS=The identification of this mineral has been confirmed only by single crystal X-ray diffraction.
##URL=rruff.info/R130365
103.2525, 0.0000000E+00
103.7346, 0.1073330
104.2167, 7.3032998E-02
104.6988, 0.2013820
105.1810, 0.5198000
105.6631, 0.6948660
106.1452, 0.5325350
106.6273, 0.1265790
107.1094, 7.2940001E-03
107.5915, 0.4796420
108.0737, 0.9013850
108.5558, 0.8653150
109.0379, 0.5186340
109.5200, 0.1608560
110.0021, 9.7370997E-02
110.4842, 0.4243050
110.9664, 0.5632550
111.4485, 0.2803790
111.9306, 3.0600000E-04
112.4127, 2.2913000E-02
112.8948, 8.5946999E-02
113.3769, 0.2115940
113.8591, 0.3259480
114.3412, 0.5031370
114.8233, 0.5748000
115.3054, 0.6421140
115.7875, 0.6460330
116.2696, 0.4848280
116.7517, 0.1869310
117.2339, 0.1293440
117.7160, 0.2366840
118.1981, 2.2365000E-02
118.6802, 0.2242320
119.1623, 0.4286580
119.6444, 0.5115090
120.1266, 0.5411290
120.6087, 0.5969210
121.0908, 0.6524580
121.5729, 0.7455520
122.0550, 1.121208
122.5371, 1.480895
123.0193, 1.474040
123.5014, 0.9768340
123.9835, 0.5728750
124.4656, 0.6459770
124.9477, 0.9537610
125.4298, 1.137013
125.9120, 1.170817
126.3941, 1.108292
126.8762, 1.052903
127.3583, 1.032217
127.8404, 0.9863720
128.3225, 0.8816510
128.8047, 0.7537430
129.2868, 0.6458090
129.7689, 0.5900590
130.2510, 0.5855540
130.7331, 0.5931260
131.2152, 0.6993020
131.6974, 0.7220620
132.1795, 0.5412220
132.6616, 0.2269120
133.1437, 8.4881999E-02
133.6258, 0.1875610
134.1079, 8.9184999E-02
134.5901, 0.1031560
135.0722, 0.5391440
135.5543, 0.8932420
136.0364, 0.8784890
136.5185, 0.5024620
137.0006, 8.6952001E-02
137.4828, 3.7400000E-02
137.9649, 0.4639980
138.4470, 0.6917070
138.9291, 0.4353140
139.4112, 5.3945001E-02
139.8933, 5.7337001E-02
140.3755, 0.6356080
140.8576, 1.326629
141.3397, 1.228340
141.8218, 0.3863650
142.3039, 0.1266450
142.7860, 0.5080120
143.2681, 0.8979100
143.7503, 1.053129
144.2324, 0.4425640
144.7145, 0.6893460
145.1966, 0.5121700
145.6787, 0.2625850
146.1608, 0.4659790
146.6430, 0.3285030
147.1251, 1.4672000E-02
147.6072, 9.2951000E-02
148.0893, 0.1370140
148.5714, 0.1052810
149.0535, 8.4199999E-03
149.5357, 0.3287150
150.0178, 0.6646430
150.4999, 0.7279060
150.9820, 0.4026690
151.4641, 3.8795002E-02
151.9462, 0.3960670
152.4284, 0.8512070
152.9105, 1.033398
153.3926, 0.8621140
153.8747, 0.4939310
154.3568, 0.3151500
154.8389, 0.5894740
155.3211, 0.7643630
155.8032, 0.7170020
156.2853, 0.5749870
156.7674, 0.4738830
157.2495, 0.4501760
157.7316, 0.4910140
158.2138, 0.5925660
158.6959, 0.9020140
159.1780, 1.102002
159.6601, 1.016214
160.1422, 0.7545650
160.6243, 0.5592980
161.1065, 0.5672040
161.5886, 0.7365790
162.0707, 0.8774540
162.5528, 0.9772650
163.0349, 1.072656
163.5170, 1.219063
163.9991, 1.389271
164.4813, 1.505414
164.9634, 1.466162
165.4455, 1.345946
165.9276, 1.295737
166.4097, 1.354494
166.8918, 1.468808
167.3740, 1.619277
167.8561, 1.836134
168.3382, 1.953067
168.8203, 1.749052
169.3024, 1.409676
169.7845, 1.158710
170.2667, 1.102407
170.7488, 1.182293
171.2309, 1.250031
171.7130, 1.323017
172.1951, 1.341046
172.6772, 1.211316
173.1594, 1.034595
173.6415, 0.9737810
174.1236, 1.171888
174.6057, 1.555988
175.0878, 1.667608
175.5699, 1.239271
176.0521, 0.8662230
176.5342, 0.6919410
177.0163, 0.6688280
177.4984, 0.7172910
177.9805, 0.7873240
178.4626, 0.8780280
178.9448, 0.9465160
179.4269, 0.9798110
179.9090, 1.009797
180.3911, 1.024295
180.8732, 1.037228
181.3553, 1.092571
181.8375, 1.247001
182.3196, 1.534180
182.8017, 1.598066
183.2838, 1.270840
183.7659, 0.9203440
184.2480, 0.7374930
184.7301, 0.7153950
185.2123, 0.7130690
185.6944, 0.5785280
186.1765, 0.2803830
186.6586, 0.2080100
187.1407, 0.5830340
187.6228, 1.017850
188.1050, 1.237265
188.5871, 1.210759
189.0692, 1.054538
189.5513, 0.8180020
190.0334, 0.5091530
190.5155, 0.3368150
190.9977, 0.3994850
191.4798, 0.5713700
191.9619, 0.7355830
192.4440, 0.8874710
192.9261, 1.005916
193.4082, 1.080430
193.8904, 1.105358
194.3725, 1.019412
194.8546, 0.6563720
195.3367, 0.1923830
195.8188, 1.6038001E-02
196.3009, 0.2600980
196.7831, 0.5338340
197.2652, 0.5169800
197.7473, 0.3032160
198.2294, 0.1069830
198.7115, 9.9170003E-03
199.1936, 1.4540000E-03
199.6758, 6.4432003E-02
200.1579, 0.2858580
200.6400, 0.4644110
201.1221, 0.3777400
201.6042, 0.1291790
202.0863, 2.3159999E-02
202.5685, 0.1537120
203.0506, 0.6349480
203.5327, 0.9914060
204.0148, 1.165969
204.4969, 1.215973
204.9790, 1.249574
205.4612, 1.229172
205.9433, 1.100622
206.4254, 0.7657500
206.9075, 0.1921580
207.3896, 0.1510270
207.8717, 3.8362000E-02
208.3539, 0.2099620
208.8360, 0.1867030
209.3181, 1.1888000E-02
209.8002, 0.1578240
210.2823, 8.4780999E-02
210.7644, 0.1196890
211.2466, 9.1222003E-02
211.7287, 0.3480760
212.2108, 0.6551950
212.6929, 0.5256540
213.1750, 6.6220999E-02
213.6571, 1.5020000E-03
214.1393, 3.4690001E-03
214.6214, 0.1649350
215.1035, 0.4567370
215.5856, 0.4260720
216.0677, 0.3300120
216.5498, 0.2894470
217.0320, 0.3056390
217.5141, 0.3128920
217.9962, 0.2441960
218.4783, 8.5331999E-02
218.9604, 4.4030002E-03
219.4425, 5.4683000E-02
219.9247, 0.1106010
220.4068, 2.3658000E-02
220.8889, 0.1874400
221.3710, 2.8329000E-02
221.8531, 8.1467003E-02
222.3352, 1.5206000E-02
222.8174, 0.2469470
223.2995, 0.5354120
223.7816, 0.7689750
224.2637, 0.8730350
224.7458, 0.8478150
225.2279, 0.7636330
225.7100, 0.6646110
226.1922, 0.5500000
226.6743, 0.4241600
227.1564, 0.2328570
227.6385, 6.3153997E-02
228.1206, 6.4380001E-03
228.6027, 2.8542001E-02
229.0849, 0.1466820
229.5670, 0.3902940
230.0491, 0.7066890
230.5312, 0.9497430
231.0133, 1.083650
231.4954, 1.139622
231.9776, 1.120677
232.4597, 1.011331
232.9418, 0.9389600
233.4239, 1.020228
233.9060, 1.185566
234.3881, 1.335522
234.8703, 1.433708
235.3524, 1.516991
235.8345, 1.648795
236.3166, 1.848599
236.7987, 2.018962
237.2808, 2.040771
237.7630, 2.026526
238.2451, 2.115606
238.7272, 2.385723
239.2093, 2.727044
239.6914, 2.946906
240.1735, 2.997372
240.6557, 3.084424
241.1378, 3.362210
241.6199, 3.683169
242.1020, 3.884805
242.5841, 3.891113
243.0662, 3.830538
243.5484, 3.930928
244.0305, 4.249833
244.5126, 4.574080
244.9947, 4.835488
245.4768, 5.114068
245.9589, 5.450352
246.4410, 5.826997
246.9232, 6.195776
247.4053, 6.446547
247.8874, 6.503509
248.3695, 6.638102
248.8516, 7.029738
249.3337, 7.443303
249.8159, 7.649557
250.2980, 7.591115
250.7801, 7.402606
251.2622, 7.297075
251.7443, 7.304401
252.2264, 7.331424
252.7086, 7.440395
253.1907, 7.515707
253.6728, 7.470105
254.1549, 7.285654
254.6370, 7.013258
255.1191, 6.725573
255.6013, 6.428122
256.0834, 6.099675
256.5655, 5.577712
257.0476, 5.141635
257.5297, 5.086525
258.0118, 5.409984
258.4940, 5.764617
258.9761, 5.638751
259.4582, 4.708762
259.9403, 4.118877
260.4224, 4.088540
260.9045, 4.155409
261.3867, 4.011190
261.8688, 3.639751
262.3509, 3.252355
262.8330, 3.102091
263.3151, 3.284073
263.7972, 3.361883
264.2794, 3.356213
264.7615, 3.251477
265.2436, 2.965806
265.7257, 2.566149
266.2078, 2.190161
266.6899, 1.957205
267.1721, 1.890937
267.6542, 1.909896
268.1363, 2.131873
268.6184, 2.335188
269.1005, 2.445093
269.5826, 2.468597
270.0648, 2.366993
270.5469, 2.066533
271.0290, 1.566679
271.5111, 1.397770
271.9932, 1.909492
272.4753, 2.360498
272.9575, 2.328049
273.4396, 1.943802
273.9217, 1.647904
274.4038, 1.755113
274.8859, 2.219920
275.3680, 2.464916
275.8501, 2.370542
276.3322, 2.244560
276.8144, 2.156119
277.2965, 2.114495
277.7786, 2.139897
278.2607, 2.255882
278.7428, 2.416474
279.2249, 2.487961
279.7071, 2.477393
280.1892, 2.385113
280.6713, 2.126435
281.1534, 1.788146
281.6355, 1.532682
282.1176, 1.438840
282.5998, 1.442045
283.0819, 1.376731
283.5640, 1.196450
284.0461, 1.045323
284.5282, 0.9486470
285.0103, 0.9005410
285.4925, 0.9252730
285.9746, 1.045737
286.4567, 1.157826
286.9388, 1.044568
287.4209, 0.6034360
287.9030, 0.3115970
288.3852, 0.3200970
288.8673, 0.4889900
289.3494, 0.6937270
289.8315, 0.9066680
290.3136, 1.049836
290.7957, 1.025095
291.2779, 0.8089070
291.7600, 0.6348270
292.2421, 0.5269770
292.7242, 0.4746330
293.2063, 0.5022260
293.6884, 0.5989290
294.1706, 0.7037710
294.6527, 0.7605900
295.1348, 0.7645520
295.6169, 0.7173710
296.0990, 0.5819230
296.5811, 0.4331430
297.0633, 0.2987150
297.5454, 0.1742830
298.0275, 6.6701002E-02
298.5096, 1.0030000E-02
298.9917, 3.6803000E-02
299.4738, 3.7292000E-02
299.9560, 0.3584940
300.4381, 0.6404000
300.9202, 0.7459580
301.4023, 0.6794460
301.8844, 0.4342670
302.3665, 0.5570060
302.8487, 0.3304680
303.3308, 0.5417970
303.8129, 0.1170280
304.2950, 6.0520999E-02
304.7771, 0.1660310
305.2592, 0.2124950
305.7414, 0.1606670
306.2235, 6.1880001E-03
306.7056, 0.1691970
307.1877, 5.0774999E-02
307.6698, 0.4245210
308.1519, 0.8183830
308.6341, 0.9844210
309.1162, 0.9789220
309.5983, 0.8594220
310.0804, 0.6179600
310.5625, 0.3639080
311.0446, 0.2694530
311.5268, 0.3393350
312.0089, 0.3633590
312.4910, 0.2350960
312.9731, 6.9668002E-02
313.4552, 3.0250000E-03
313.9373, 3.5877001E-02
314.4195, 0.1595790
314.9016, 0.4141330
315.3837, 0.7744720
315.8658, 0.9160250
316.3479, 0.6044030
316.8300, 0.2120960
317.3121, 2.9132999E-02
317.7943, 6.1661001E-02
318.2764, 0.2156290
318.7585, 0.4863280
319.2406, 0.8225610
319.7227, 1.005406
320.2048, 0.9394280
320.6870, 0.8228550
321.1691, 0.7908400
321.6512, 0.8060840
322.1333, 0.7078870
322.6154, 0.3695280
323.0975, 6.3859001E-02
323.5797, 0.1424530
324.0618, 5.8219001E-02
324.5439, 0.3157780
325.0260, 0.4802520
325.5081, 0.5363030
325.9902, 0.3979840
326.4724, 7.5280000E-03
326.9545, 0.1072250
327.4366, 0.1405600
327.9187, 1.6786000E-02
328.4008, 0.2850250
328.8829, 0.1154320
329.3651, 0.1047130
329.8472, 3.7940000E-03
330.3293, 0.1152540
330.8114, 0.2010230
331.2935, 0.4862260
331.7756, 0.7353890
332.2578, 0.8627340
332.7399, 0.7640210
333.2220, 0.6167010
333.7041, 0.5565180
334.1862, 0.5800750
334.6683, 0.5989120
335.1505, 0.5536930
335.6326, 0.4493240
336.1147, 0.3377840
336.5968, 0.1180920
337.0789, 8.9499997E-03
337.5610, 0.1877470
338.0432, 0.5294940
338.5253, 0.7386610
339.0074, 0.6667820
339.4895, 0.4235170
339.9716, 0.2998870
340.4537, 0.3140740
340.9359, 0.3933400
341.4180, 0.6329730
341.9001, 0.8903370
342.3822, 0.9326350
342.8643, 0.6928570
343.3464, 0.3880160
343.8286, 0.3373390
344.3107, 0.6946450
344.7928, 0.8536670
345.2749, 0.6724110
345.7570, 0.3880570
346.2391, 0.1253070
346.7213, 7.9650998E-02
347.2034, 8.9001998E-02
347.6855, 1.9258000E-02
348.1676, 0.3633810
348.6497, 0.4993760
349.1318, 0.1702730
349.6140, 0.1052800
350.0961, 1.6926000E-02
350.5782, 0.1130120
351.0603, 6.5557003E-02
351.5424, 0.2968200
352.0245, 0.5343820
352.5067, 0.5975560
352.9888, 0.3276820
353.4709, 8.3044000E-02
353.9530, 5.1376000E-02
354.4351, 0.1369130
354.9172, 8.5151002E-02
355.3994, 5.3404000E-02
355.8815, 0.4831190
356.3636, 0.6498240
356.8457, 0.2856620
357.3278, 0.2149010
357.8099, 0.7516040
358.2920, 1.314848
358.7741, 1.450689
359.2563, 1.165499
359.7384, 0.8107490
360.2205, 0.7027440
360.7026, 0.8275930
361.1847, 0.9458010
361.6668, 1.213579
362.1490, 1.384255
362.6311, 1.266695
363.1132, 0.9893870
363.5953, 0.8063610
364.0774, 0.8755430
364.5595, 1.126651
365.0417, 1.324721
365.5238, 1.457087
366.0059, 1.532785
366.4880, 1.565703
366.9701, 1.537826
367.4522, 1.353849
367.9344, 1.007058
368.4165, 0.7187090
368.8986, 0.9213650
369.3807, 1.959796
369.8628, 2.526390
370.3449, 2.276926
370.8271, 1.819736
371.3092, 1.354946
371.7913, 0.9627400
372.2734, 0.7128490
372.7555, 0.6804390
373.2376, 0.8602880
373.7198, 1.141072
374.2019, 1.767684
374.6840, 2.178185
375.1661, 2.041011
375.6482, 1.617814
376.1303, 1.319453
376.6125, 1.364402
377.0946, 1.596918
377.5767, 1.651331
378.0588, 1.439756
378.5409, 1.299199
379.0230, 1.455293
379.5052, 1.637322
379.9873, 1.582996
380.4694, 1.243312
380.9515, 0.8923950
381.4336, 0.8460370
381.9157, 1.116020
382.3979, 1.338399
382.8800, 1.509268
383.3621, 1.570764
383.8442, 1.489213
384.3263, 1.282812
384.8084, 0.9755750
385.2906, 0.4244600
385.7727, 3.6109000E-02
386.2548, 3.2175999E-02
386.7369, 0.3507360
387.2190, 0.9258040
387.7011, 1.224072
388.1833, 1.314683
388.6654, 1.246721
389.1475, 0.9277860
389.6296, 0.6131950
390.1117, 0.5220440
390.5938, 0.6394510
391.0760, 0.8879880
391.5581, 1.371795
392.0402, 1.812269
392.5223, 1.793435
393.0044, 1.296104
393.4865, 0.7659250
393.9687, 0.2742940
394.4508, 9.5050000E-02
394.9329, 2.4759000E-02
395.4150, 4.5106001E-02
395.8971, 0.2313860
396.3792, 0.4557500
396.8614, 0.6152210
397.3435, 0.6591030
397.8256, 0.4527820
398.3077, 0.2474030
398.7898, 0.2199210
399.2719, 0.3379960
399.7540, 0.4743480
400.2361, 0.5708090
400.7183, 0.6359770
401.2004, 0.6946630
401.6825, 0.7982450
402.1646, 0.8134050
402.6467, 0.6134600
403.1288, 0.3582130
403.6110, 0.2396310
404.0931, 0.2988800
404.5752, 0.4333650
405.0573, 0.5501360
405.5394, 0.6836210
406.0215, 0.6794110
406.5037, 0.3789320
406.9858, 0.1022160
407.4679, 3.7693001E-02
407.9500, 2.1485999E-02
408.4321, 0.1709200
408.9142, 0.5962530
409.3964, 1.137437
409.8785, 1.309379
410.3606, 0.7038850
410.8427, 0.2346580
411.3248, 6.5660002E-03
411.8069, 0.1008070
412.2891, 6.8203002E-02
412.7712, 7.5870000E-02
413.2533, 0.2490880
413.7354, 0.2775280
414.2175, 7.1342997E-02
414.6996, 7.7621996E-02
415.1818, 0.7293470
415.6639, 1.196233
416.1460, 0.9445290
416.6281, 0.2313520
417.1102, 1.1193000E-02
417.5923, 0.1019880
418.0745, 0.3895790
418.5566, 0.8316980
419.0387, 1.176816
419.5208, 1.304382
420.0029, 0.9821260
420.4850, 0.5467180
420.9672, 0.3337970
421.4493, 0.4301180
421.9314, 0.5929030
422.4135, 0.5128410
422.8956, 0.1912380
423.3777, 7.3169000E-02
423.8599, 0.4041960
424.3420, 0.7291720
424.8241, 0.6628970
425.3062, 0.2931150
425.7883, 6.0858998E-02
426.2704, 4.9757000E-02
426.7526, 0.1853580
427.2347, 0.1765800
427.7168, 1.6228000E-02
428.1989, 7.0501998E-02
428.6810, 0.1812470
429.1631, 0.4083240
429.6453, 0.4575900
430.1274, 0.2344090
430.6095, 4.6436001E-02
431.0916, 9.2014998E-02
431.5737, 0.2746530
432.0558, 0.3889730
432.5380, 0.3645430
433.0201, 0.3241860
433.5022, 0.4458000
433.9843, 0.7614740
434.4664, 0.9686870
434.9485, 1.037062
435.4307, 1.032143
435.9128, 0.9318710
436.3949, 0.7503450
436.8770, 0.6066420
437.3591, 0.5723740
437.8412, 0.6358060
438.3234, 0.7322960
438.8055, 1.087160
439.2876, 1.176246
439.7697, 0.5873220
440.2518, 6.6813000E-02
440.7339, 7.4184999E-02
441.2160, 0.6359720
441.6982, 1.447797
442.1803, 1.622585
442.6624, 1.044921
443.1445, 0.6804580
443.6266, 0.6560180
444.1087, 0.7093440
444.5909, 0.7558860
445.0730, 0.8293330
445.5551, 1.052198
446.0372, 1.508273
446.5193, 2.036848
447.0014, 2.284560
447.4836, 2.211852
447.9657, 1.974761
448.4478, 1.245705
448.9299, 0.6128190
449.4120, 0.5634430
449.8941, 1.070004
450.3763, 1.610247
450.8584, 1.801924
451.3405, 1.701194
451.8226, 1.489912
452.3047, 1.076258
452.7868, 0.7513300
453.2690, 0.7426870
453.7511, 0.9217510
454.2332, 1.138458
454.7153, 1.417122
455.1974, 1.612677
455.6795, 1.543202
456.1617, 1.270120
456.6438, 1.060245
457.1259, 0.9913380
457.6080, 1.008276
458.0901, 1.081320
458.5722, 1.214573
459.0544, 1.252049
459.5365, 1.061541
460.0186, 0.8393560
460.5007, 0.7730290
460.9828, 0.8495370
461.4649, 0.9243960
461.9471, 0.9140560
462.4292, 0.8403410
462.9113, 0.7942570
463.3934, 0.8139440
463.8755, 0.8098020
464.3576, 0.7564890
464.8398, 0.6818190
465.3219, 0.5996870
465.8040, 0.5227900
466.2861, 0.4679750
466.7682, 0.4450530
467.2503, 0.4479750
467.7325, 0.5298290
468.2146, 0.8197890
468.6967, 1.047638
469.1788, 1.096471
469.6609, 1.043944
470.1430, 1.025390
470.6252, 1.099127
471.1073, 1.214849
471.5894, 1.318882
472.0715, 1.442486
472.5536, 1.411080
473.0357, 1.016853
473.5179, 0.6172450
474.0000, 0.4260960
474.4821, 0.4167630
474.9642, 0.4243430
475.4463, 0.3257820
475.9284, 0.2257190
476.4106, 0.3888780
476.8927, 0.8776500
477.3748, 1.218662
477.8569, 1.138067
478.3390, 0.7942390
478.8211, 0.4006660
479.3033, 0.1049290
479.7854, 0.1136810
480.2675, 0.1270540
480.7496, 0.4201910
481.2317, 0.7028690
481.7138, 0.6173530
482.1959, 0.5124270
482.6780, 0.7471380
483.1602, 1.304609
483.6423, 1.537903
484.1244, 1.192984
484.6065, 0.8141680
485.0886, 0.5631520
485.5707, 0.4611210
486.0529, 0.5708490
486.5350, 0.9134370
487.0171, 1.287174
487.4992, 1.356492
487.9813, 1.000234
488.4634, 0.6596690
488.9456, 0.2232030
489.4277, 9.2657998E-02
489.9098, 9.2372999E-02
490.3919, 0.1109470
490.8740, 0.2641720
491.3561, 0.2146830
491.8383, 1.8679000E-02
492.3204, 9.0221003E-02
492.8025, 0.2389300
493.2846, 0.3907350
493.7667, 0.1173770
494.2488, 7.9755999E-02
494.7310, 7.2269000E-02
495.2131, 3.4711000E-02
495.6952, 2.9115001E-02
496.1773, 4.8985999E-02
496.6594, 7.4479999E-03
497.1415, 0.1942060
497.6237, 0.6120260
498.1058, 0.9348580
498.5879, 0.9592430
499.0700, 0.8069810
499.5521, 0.7084380
500.0342, 0.7231910
500.5164, 0.7220140
500.9985, 0.5947610
501.4806, 0.4207720
501.9627, 0.3614350
502.4448, 0.4507620
502.9269, 0.5612220
503.4091, 0.5768780
503.8912, 0.4942300
504.3733, 0.3740980
504.8554, 0.1306450
505.3375, 4.9332000E-02
505.8196, 8.0698997E-02
506.3018, 1.0170000E-02
506.7839, 0.1092070
507.2660, 0.2580180
507.7481, 0.3778760
508.2302, 0.3423290
508.7123, 4.7366999E-02
509.1945, 2.6196999E-02
509.6766, 0.4381920
510.1587, 0.8070620
510.6408, 0.7449020
511.1229, 0.4252440
511.6050, 0.2044510
512.0872, 0.2706190
512.5693, 0.4765110
513.0514, 0.5936580
513.5335, 0.6308780
514.0156, 0.6954960
514.4977, 0.8804740
514.9799, 1.024925
515.4620, 0.9838420
515.9441, 0.7781260
516.4262, 0.5721920
516.9083, 0.3345290
517.3904, 0.1295720
517.8726, 9.8099997E-03
518.3547, 2.4106000E-02
518.8368, 2.6750000E-02
519.3189, 0.1840880
519.8010, 0.4022760
520.2831, 0.5819030
520.7653, 0.7595270
521.2474, 0.8439280
521.7295, 0.7436780
522.2116, 0.6182490
522.6937, 0.6535760
523.1758, 0.8423570
523.6580, 1.062845
524.1401, 1.239926
524.6222, 1.357319
525.1043, 1.414244
525.5864, 1.380139
526.0685, 1.340630
526.5507, 1.286521
527.0328, 1.240646
527.5149, 1.220781
527.9970, 1.228893
528.4791, 1.262972
528.9612, 1.365315
529.4434, 1.501468
529.9255, 1.419745
530.4076, 0.9971210
530.8897, 0.6459290
531.3718, 0.5110560
531.8539, 0.5546080
532.3361, 0.8309220
532.8182, 1.398524
533.3003, 1.842272
533.7824, 1.749516
534.2645, 1.377509
534.7466, 1.288421
535.2288, 1.566193
535.7109, 1.884767
536.1930, 1.998405
536.6751, 1.953735
537.1572, 2.030298
537.6393, 2.499589
538.1215, 2.765876
538.6036, 2.391573
539.0857, 1.828236
539.5678, 1.704783
540.0499, 2.130207
540.5320, 2.765703
541.0142, 3.297351
541.4963, 3.732236
541.9784, 3.808489
542.4604, 3.079051
542.9426, 2.511903
543.4247, 2.365040
543.9068, 2.449380
544.3889, 2.581409
544.8710, 2.701776
545.3531, 2.782771
545.8353, 2.791574
546.3174, 2.731100
546.7995, 2.629154
547.2816, 2.478658
547.7637, 2.297747
548.2458, 2.074959
548.7280, 1.829851
549.2101, 1.604318
549.6922, 1.410666
550.1743, 1.217053
550.6564, 0.9051620
551.1385, 0.6019370
551.6207, 0.6872050
552.1028, 1.238666
552.5849, 1.755409
553.0670, 1.748203
553.5491, 1.211641
554.0313, 0.7385890
554.5134, 0.3071690
554.9955, 3.8447000E-02
555.4776, 2.3422001E-02
555.9597, 0.1920830
556.4418, 0.1271190
556.9240, 0.2363050
557.4061, 0.1592380
557.8882, 0.3334810
558.3703, 0.3583630
558.8524, 0.3934190
559.3345, 0.4561220
559.8167, 0.5113840
560.2988, 0.5293910
560.7809, 0.5270770
561.2630, 0.5314580
561.7451, 0.5536560
562.2272, 0.5328300
562.7094, 0.3202880
563.1915, 1.1223000E-02
563.6736, 2.5826000E-02
564.1557, 0.2991230
564.6378, 0.6932740
565.1199, 0.9797270
565.6021, 1.163179
566.0842, 1.300610
566.5663, 1.474500
567.0484, 1.486157
567.5305, 1.195862
568.0126, 0.7475000
568.4948, 0.2305090
568.9769, 6.1189998E-03
569.4590, 0.3148070
569.9411, 0.1925100
570.4232, 3.9462999E-02
570.9053, 0.3562920
571.3875, 0.2658680
571.8696, 0.2082570
572.3517, 0.2668320
572.8338, 0.3801690
573.3159, 0.3249620
573.7980, 0.3340950
574.2802, 0.3457910
574.7623, 0.7463090
575.2444, 0.8815770
575.7265, 7.9570003E-03
576.2086, 0.3958710
576.6907, 0.2557760
577.1729, 7.7619001E-02
577.6550, 0.5969510
578.1371, 0.2173310
578.6192, 0.2565250
579.1013, 0.1923250
579.5834, 0.3495970
580.0656, 0.5290420
580.5477, 0.5407090
581.0298, 6.3933000E-02
581.5119, 5.1624000E-02
581.9940, 4.7263999E-02
582.4761, 0.5769860
582.9583, 1.077042
583.4404, 1.603998
583.9225, 1.751107
584.4046, 1.118185
584.8867, 0.4544630
585.3688, 0.3040810
585.8510, 0.5801510
586.3331, 0.8639260
586.8152, 0.9020940
587.2973, 0.7669980
587.7794, 0.5954360
588.2615, 0.3739150
588.7437, 0.2050060
589.2258, 0.1278080
589.7079, 0.1014580
590.1900, 0.1128880
590.6721, 0.1491210
591.1542, 0.1243700
591.6364, 9.4687000E-02
592.1185, 6.0608000E-02
592.6006, 0.1088070
593.0827, 2.0814000E-02
593.5648, 0.1924180
594.0469, 0.3316220
594.5291, 0.3828130
595.0112, 0.2995040
595.4933, 6.3950000E-03
595.9754, 7.1396999E-02
596.4575, 0.2615540
596.9396, 0.5625760
597.4218, 0.6553570
597.9039, 0.6279320
598.3860, 0.5714680
598.8681, 0.5254340
599.3502, 0.5977260
599.8323, 1.102114
600.3145, 2.004508
600.7966, 2.201762
601.2787, 1.308217
601.7608, 0.4264660
602.2429, 0.2491690
602.7250, 0.4679970
603.2072, 0.6602510
603.6893, 0.7953170
604.1714, 0.8437800
604.6535, 0.6853500
605.1356, 0.4787440
605.6177, 0.5010630
606.0999, 0.7606400
606.5820, 1.006760
607.0641, 1.059841
607.5462, 0.9548110
608.0283, 0.8432070
608.5104, 0.6184760
608.9926, 0.5460280
609.4747, 0.8196490
609.9568, 1.095125
610.4389, 1.103573
610.9210, 0.8839030
611.4031, 0.6660360
611.8853, 0.6164970
612.3674, 0.6167680
612.8495, 0.3063210
613.3316, 4.1161999E-02
613.8137, 0.1699700
614.2958, 0.2017890
614.7780, 1.143902
615.2601, 1.300968
615.7422, 0.7978480
616.2243, 0.3326010
616.7064, 9.1034003E-02
617.1885, 0.1234090
617.6707, 2.2468001E-02
618.1528, 0.5185760
618.6349, 0.8463260
619.1170, 0.8396530
619.5991, 0.6549460
620.0812, 0.5369130
620.5634, 0.4885900
621.0455, 0.5005290
621.5276, 0.5986280
622.0097, 0.7333030
622.4918, 0.9899640
622.9739, 1.217367
623.4561, 1.228021
623.9382, 0.9986100
624.4203, 0.7212800
624.9023, 0.4769490
625.3845, 0.3171540
625.8666, 0.4504350
626.3487, 0.9086630
626.8308, 1.273246
627.3129, 1.358018
627.7950, 1.259526
628.2772, 1.108293
628.7593, 0.8187100
629.2414, 0.5456920
629.7235, 0.1830300
630.2056, 3.6908999E-02
630.6877, 0.1772080
631.1699, 0.6538990
631.6520, 0.9488750
632.1341, 0.9130960
632.6162, 0.7315920
633.0983, 0.7754000
633.5804, 1.117264
634.0626, 1.297870
634.5447, 1.197992
635.0268, 1.087946
635.5089, 1.164312
635.9910, 1.264495
636.4731, 1.129366
636.9553, 0.5853810
637.4374, 0.1803150
637.9195, 0.4137510
638.4016, 0.9946400
638.8837, 1.437570
639.3658, 1.667093
639.8480, 1.648461
640.3301, 1.297641
640.8122, 0.7286860
641.2943, 0.3392860
641.7764, 0.2316130
642.2585, 0.1633890
642.7407, 0.1536330
643.2228, 0.1648460
643.7049, 0.1676110
644.1870, 0.1726240
644.6691, 0.1997720
645.1512, 0.2659630
645.6334, 0.4135050
646.1155, 0.8326430
646.5976, 1.516083
647.0797, 1.966921
647.5618, 2.074120
648.0439, 1.952154
648.5261, 1.529438
649.0082, 0.9705800
649.4903, 0.7690800
649.9724, 1.269960
650.4545, 1.675654
650.9366, 1.590319
651.4188, 1.288683
651.9009, 1.036505
652.3830, 0.9040830
652.8651, 0.9685040
653.3472, 1.323051
653.8293, 1.831165
654.3115, 1.983981
654.7936, 1.600045
655.2757, 1.317175
655.7578, 1.238961
656.2399, 1.231058
656.7220, 1.252915
657.2042, 1.304941
657.6863, 1.407826
658.1684, 1.652498
658.6505, 1.810052
659.1326, 1.590898
659.6147, 1.134137
660.0969, 0.8327910
660.5790, 0.7756340
661.0611, 0.8591520
661.5432, 1.027267
662.0253, 1.262373
662.5074, 1.361998
662.9896, 1.190021
663.4717, 1.058544
663.9538, 1.068014
664.4359, 1.074574
664.9180, 0.8893340
665.4001, 0.5767950
665.8823, 0.4156240
666.3644, 0.6133130
666.8465, 1.000183
667.3286, 1.363635
667.8107, 1.693062
668.2928, 1.598512
668.7750, 0.7989180
669.2571, 2.4081999E-02
669.7392, 5.6058999E-02
670.2213, 0.8080710
670.7034, 1.272640
671.1855, 1.177281
671.6677, 1.083234
672.1498, 1.346934
672.6319, 1.619134
673.1140, 1.411724
673.5961, 0.7702350
674.0782, 0.2692370
674.5604, 0.3958680
675.0425, 2.6165999E-02
675.5246, 0.8507050
676.0067, 2.5459001E-02
676.4888, 0.2233370
676.9709, 0.4287090
677.4531, 1.297634
677.9352, 1.430814
678.4173, 1.017290
678.8994, 0.7209170
679.3815, 0.7818610
679.8636, 0.8873170
680.3458, 0.8114880
680.8279, 0.6738430
681.3100, 0.7332810
681.7921, 0.9973480
682.2742, 1.140051
682.7563, 0.8594770
683.2385, 0.2781420
683.7206, 2.8597999E-02
684.2027, 0.3335010
684.6848, 0.4826540
685.1669, 3.0080000E-02
685.6490, 0.2549200
686.1312, 0.1946480
686.6133, 1.179375
687.0954, 1.682355
687.5775, 1.132742
688.0596, 0.3445310
688.5417, 1.2989000E-02
689.0239, 7.6930001E-03
689.5060, 1.8293001E-02
689.9881, 8.4100002E-03
690.4702, 0.1151230
690.9523, 0.6037250
691.4344, 1.319829
691.9166, 1.560274
692.3987, 0.8833950
692.8808, 0.4292520
693.3629, 0.3150790
693.8450, 0.3633250
694.3271, 0.5940850
694.8093, 0.8906910
695.2914, 0.9825260
695.7735, 0.7048590
696.2556, 0.3496490
696.7377, 0.2593810
697.2198, 0.3609390
697.7020, 0.3817380
698.1841, 0.2734040
698.6662, 0.2017100
699.1483, 0.3040590
699.6304, 0.5193740
700.1125, 0.6093700
700.5947, 0.5105580
701.0768, 0.3693300
701.5589, 0.1830450
702.0410, 3.5905000E-02
702.5231, 0.2175640
703.0052, 8.5557997E-02
703.4874, 0.3438670
703.9695, 0.5361240
704.4516, 0.5967460
704.9337, 0.4053110
705.4158, 1.6899999E-03
705.8979, 5.2749999E-02
706.3801, 0.5479370
706.8622, 0.9238180
707.3442, 0.7973790
707.8264, 0.3941060
708.3085, 0.2844050
708.7906, 0.6334010
709.2727, 0.8133510
709.7548, 0.6835760
710.2369, 0.4955450
710.7191, 0.4119750
711.2012, 0.3763820
711.6833, 0.2109290
712.1654, 0.1409250
712.6475, 3.8747001E-02
713.1296, 0.1276560
713.6118, 0.5565510
714.0939, 0.7536050
714.5760, 0.3550780
715.0581, 1.5509000E-02
715.5402, 0.1229030
716.0223, 2.4319999E-03
716.5045, 0.3996370
716.9866, 1.154796
717.4687, 1.634211
717.9508, 1.702205
718.4329, 1.571390
718.9150, 1.157860
719.3972, 0.6909100
719.8793, 0.5120900
720.3614, 0.6887090
720.8435, 0.9647700
721.3256, 1.091447
721.8077, 1.114457
722.2899, 1.253006
722.7720, 1.539093
723.2541, 1.654251
723.7362, 1.393419
724.2183, 1.079898
724.7004, 1.154041
725.1826, 1.606314
725.6647, 1.841195
726.1468, 1.687481
726.6289, 1.483428
727.1110, 1.348292
727.5931, 1.238355
728.0753, 1.032990
728.5574, 0.7647050
729.0395, 0.7280380
729.5216, 1.243523
730.0037, 1.996984
730.4858, 2.230179
730.9680, 1.924373
731.4501, 1.529072
731.9322, 1.018933
732.4143, 0.7134930
732.8964, 1.029318
733.3785, 1.793767
733.8607, 2.094439
734.3428, 1.481191
734.8249, 1.101152
735.3070, 1.446746
735.7891, 1.848994
736.2712, 1.653022
736.7534, 1.024019
737.2355, 0.5698520
737.7176, 0.5993730
738.1997, 0.8432890
738.6818, 0.9047410
739.1639, 0.7921420
739.6461, 0.6870900
740.1282, 0.5988070
740.6103, 0.5872740
741.0924, 0.7205590
741.5745, 0.9294350
742.0566, 1.055987
742.5388, 1.082654
743.0209, 1.094655
743.5030, 1.024220
743.9851, 1.025445
744.4672, 1.188107
744.9493, 1.412566
745.4315, 1.559798
745.9136, 1.588637
746.3957, 1.558654
746.8778, 1.503710
747.3599, 1.417356
747.8420, 1.350084
748.3242, 1.306327
748.8063, 1.203592
749.2884, 0.9748790
749.7705, 0.7733230
750.2526, 0.7783390
750.7347, 0.9972350
751.2169, 1.284275
751.6990, 1.984428
752.1811, 2.302071
752.6632, 1.657370
753.1453, 0.8516270
753.6274, 0.6755020
754.1096, 1.072801
754.5917, 1.442831
755.0738, 1.465063
755.5559, 1.265293
756.0380, 0.9321270
756.5201, 0.5292520
757.0023, 0.2220300
757.4844, 1.6647000E-02
757.9665, 0.1298210
758.4486, 0.8385420
758.9307, 1.856295
759.4128, 2.200629
759.8950, 1.263964
760.3771, 0.7337380
760.8592, 0.9458740
761.3413, 1.199757
761.8234, 1.249307
762.3055, 1.106944
762.7877, 0.7633150
763.2698, 0.2104530
763.7519, 0.1740880
764.2340, 9.7586997E-02
764.7161, 0.2226480
765.1982, 0.2115980
765.6804, 7.2663002E-02
766.1625, 0.1888740
766.6446, 3.8123000E-02
767.1267, 0.4600320
767.6088, 0.9315320
768.0909, 1.477722
768.5731, 1.560469
769.0552, 0.7321430
769.5373, 0.1675780
770.0194, 0.3546260
770.5015, 0.6909490
770.9836, 0.7037670
771.4658, 0.4356740
771.9479, 0.2333770
772.4300, 0.2274300
772.9121, 0.3054680
773.3942, 0.4070540
773.8763, 0.5517690
774.3585, 0.7995400
774.8406, 1.099265
775.3227, 1.218951
775.8048, 0.9993460
776.2869, 0.6291350
776.7690, 0.4839000
777.2512, 0.5780330
777.7333, 0.6762830
778.2154, 0.7713440
778.6975, 0.9037140
779.1796, 1.218411
779.6617, 1.530104
780.1439, 1.480180
780.6260, 0.9683720
781.1081, 0.5499180
781.5902, 0.3920400
782.0723, 0.3318950
782.5544, 0.3372560
783.0366, 0.3445850
783.5187, 0.2349270
784.0008, 7.5429999E-03
784.4829, 0.1624100
784.9650, 5.3907000E-02
785.4471, 0.1591710
785.9293, 0.1667930
786.4114, 0.5050420
786.8935, 1.015272
787.3756, 1.050100
787.8577, 0.9489920
788.3398, 1.032823
788.8220, 1.264192
789.3040, 1.304003
789.7861, 0.8640290
790.2682, 0.6704140
790.7504, 1.103348
791.2325, 1.489544
791.7146, 1.265738
792.1967, 0.6717980
792.6788, 0.2671900
793.1609, 0.2658570
793.6431, 0.3946200
794.1252, 0.4936740
794.6073, 0.5230270
795.0894, 0.3175780
795.5715, 7.0564002E-02
796.0536, 0.1468480
796.5358, 0.1158100
797.0179, 0.2304190
797.5000, 0.5672500
797.9821, 0.8955960
798.4642, 1.285258
798.9464, 1.940728
799.4285, 2.288766
799.9106, 1.970514
800.3927, 1.458811
800.8748, 0.9804940
801.3569, 0.5905330
801.8391, 0.4935250
802.3212, 1.093433
802.8033, 1.487546
803.2854, 0.8516460
803.7675, 2.5710000E-02
804.2496, 0.1249330
804.7318, 0.4702000
805.2139, 1.065471
805.6960, 1.291984
806.1781, 1.265158
806.6602, 1.045324
807.1423, 0.6670730
807.6245, 0.7466470
808.1066, 1.434590
808.5887, 1.917836
809.0708, 1.723536
809.5529, 1.293029
810.0350, 1.349171
810.5172, 2.030437
810.9993, 2.251070
811.4814, 1.634042
811.9635, 1.051821
812.4456, 0.7959080
812.9277, 0.6395910
813.4099, 0.2468850
813.8920, 0.1544710
814.3741, 4.3200000E-04
814.8562, 0.1813290
815.3383, 0.9707280
815.8204, 1.346658
816.3026, 1.402629
816.7847, 1.264766
817.2668, 0.9766820
817.7489, 0.7156620
818.2310, 0.5760850
818.7131, 0.5702670
819.1953, 0.7453730
819.6774, 1.144448
820.1595, 1.455070
820.6416, 1.736967
821.1237, 1.815803
821.6058, 1.429199
822.0880, 0.9379050
822.5701, 0.6913850
823.0522, 0.6870390
823.5343, 0.8606440
824.0164, 1.603971
824.4985, 2.039758
824.9807, 1.424071
825.4628, 0.5227530
825.9449, 0.2801290
826.4270, 0.6401230
826.9091, 0.8705710
827.3912, 0.5141850
827.8734, 9.4594002E-02
828.3555, 0.5231680
828.8376, 1.543259
829.3197, 2.102597
829.8018, 2.106730
830.2839, 1.723023
830.7661, 0.9319630
831.2482, 9.9875003E-02
831.7303, 0.1097960
832.2124, 0.4642860
832.6945, 0.5584360
833.1766, 0.1092680
833.6588, 0.4998580
834.1409, 0.3850610
834.6230, 5.7748999E-02
835.1051, 0.2004170
835.5872, 0.8926760
836.0693, 1.287284
836.5515, 1.115191
837.0336, 0.8773840
837.5157, 0.8742110
837.9978, 0.9903910
838.4799, 1.149571
838.9620, 1.299137
839.4442, 1.343859
839.9263, 1.239121
840.4084, 1.033033
840.8905, 0.6235150
841.3726, 0.1290330
841.8547, 0.4342330
842.3369, 1.610566
842.8190, 2.358073
843.3011, 2.132360
843.7832, 1.489053
844.2653, 1.001117
844.7474, 0.6572630
845.2296, 0.4724810
845.7117, 0.2537820
846.1938, 8.7122001E-02
846.6759, 9.8754004E-02
847.1580, 8.7785996E-02
847.6401, 8.1670001E-02
848.1223, 7.6339999E-03
848.6044, 0.5556700
849.0865, 1.372261
849.5686, 1.919305
850.0507, 1.716027
850.5328, 1.260765
851.0150, 1.048803
851.4971, 1.018268
851.9792, 0.9154960
852.4613, 0.6745710
852.9434, 0.4850830
853.4255, 0.5590880
853.9077, 0.7916150
854.3898, 0.8750400
854.8719, 0.8149310
855.3540, 0.6437220
855.8361, 0.3190650
856.3182, 0.1635450
856.8004, 0.3715700
857.2825, 0.8061080
857.7646, 1.013612
858.2467, 0.8943490
858.7288, 0.7671520
859.2109, 0.5811030
859.6931, 0.4409980
860.1752, 0.3807250
860.6573, 0.3898970
861.1394, 0.4491010
861.6215, 0.5558490
862.1036, 0.7547520
862.5858, 1.356377
863.0679, 1.774209
863.5500, 1.333643
864.0321, 0.6087460
864.5142, 0.4383070
864.9963, 0.8455660
865.4785, 1.381671
865.9606, 1.811329
866.4427, 2.050717
866.9248, 1.801374
867.4069, 1.206084
867.8890, 1.146744
868.3712, 1.694305
868.8533, 1.973755
869.3354, 1.550902
869.8175, 0.9681680
870.2996, 0.9712480
870.7817, 1.566094
871.2639, 1.983174
871.7459, 2.239278
872.2280, 2.268236
872.7101, 1.942790
873.1923, 1.494578
873.6744, 0.9212740
874.1565, 0.3562090
874.6386, 0.1323150
875.1207, 0.4198490
875.6028, 0.6824640
876.0850, 0.7194920
876.5671, 0.6787140
877.0492, 0.6835580
877.5313, 0.6862500
878.0134, 0.5503000
878.4955, 0.2133570
878.9777, 4.4775002E-02
879.4598, 0.4860310
879.9419, 1.032986
880.4240, 0.6486290
880.9061, 5.6058999E-02
881.3882, 0.4369040
881.8704, 0.2477600
882.3525, 0.1676080
882.8346, 0.1627680
883.3167, 0.5964870
883.7988, 1.247805
884.2809, 2.245479
884.7631, 2.572844
885.2452, 1.919948
885.7273, 1.352421
886.2094, 1.288426
886.6915, 1.425583
887.1736, 1.443394
887.6558, 1.359361
888.1379, 1.282175
888.6200, 1.212091
889.1021, 1.138760
889.5842, 0.1684880
890.0663, 0.8465720
890.5485, 1.419819
891.0306, 1.568293
891.5127, 8.2755998E-02
891.9948, 0.6937530
892.4769, 0.4443890
892.9590, 0.1652210
893.4412, 1.050516
893.9233, 0.2522630
894.4054, 1.012094
894.8875, 1.288229
895.3696, 1.200050
895.8517, 1.055341
896.3339, 1.076225
896.8160, 1.188712
897.2981, 1.265162
897.7802, 1.305421
898.2623, 1.267938
898.7444, 1.142394
899.2266, 1.154500
899.7087, 1.458393
900.1908, 1.821471
900.6729, 1.943503
901.1550, 1.841540
901.6371, 1.475209
902.1193, 0.4772820
902.6014, 8.2483001E-02
903.0835, 0.2847210
903.5656, 0.8422720
904.0477, 1.157494
904.5298, 1.283156
905.0120, 1.300923
905.4941, 1.223853
905.9762, 1.099136
906.4583, 0.7405240
906.9404, 0.5177910
907.4225, 0.8597260
907.9047, 1.378376
908.3868, 1.496507
908.8689, 1.165656
909.3510, 0.8237450
909.8331, 0.6890420
910.3152, 0.7086080
910.7974, 0.9381210
911.2795, 1.242061
911.7616, 1.434301
912.2437, 1.450225
912.7258, 1.032321
913.2079, 5.5955000E-02
913.6901, 0.5626320
914.1722, 0.1021770
914.6543, 1.121090
915.1364, 1.575080
915.6185, 0.9924790
916.1006, 0.9726400
916.5828, 2.080534
917.0649, 3.081953
917.5470, 2.914168
918.0291, 1.882967
918.5112, 1.076040
918.9933, 0.4756410
919.4755, 0.1331420
919.9576, 0.1532140
920.4397, 0.2877720
920.9218, 0.5498190
921.4039, 0.8048330
921.8860, 0.9137590
922.3682, 0.8787050
922.8503, 0.7476130
923.3324, 0.3302510
923.8145, 8.2584001E-02
924.2966, 0.1680410
924.7787, 0.4391070
925.2609, 0.9887850
925.7430, 1.573542
926.2251, 1.643851
926.7072, 1.020053
927.1893, 0.4975430
927.6714, 0.8597240
928.1536, 1.341442
928.6357, 0.9334670
929.1178, 0.1426340
929.5999, 0.1294010
930.0820, 0.9315390
930.5641, 1.518025
931.0463, 1.203068
931.5284, 0.5133110
932.0105, 0.2169720
932.4926, 0.2635900
932.9747, 0.5642240
933.4568, 1.080267
933.9390, 1.228711
934.4211, 0.7603200
934.9032, 0.1699830
935.3853, 0.4813330
935.8674, 0.1934450
936.3495, 0.6065870
936.8317, 0.7711850
937.3138, 3.1979999E-03
937.7959, 0.3934750
938.2780, 0.2955360
938.7601, 0.1565900
939.2422, 0.6664590
939.7244, 6.4305998E-02
940.2065, 0.3882200
940.6886, 0.3494970
941.1707, 0.5141520
941.6528, 0.1812650
942.1349, 0.1318470
942.6171, 0.1344540
943.0992, 0.3035820
943.5813, 0.5388260
944.0634, 0.5399430
944.5455, 0.1742240
945.0276, 0.1284120
945.5098, 0.1098420
945.9919, 0.1440330
946.4740, 0.1307980
946.9561, 3.4118000E-02
947.4382, 0.6256870
947.9203, 1.517628
948.4025, 1.809765
948.8846, 0.7272410
949.3667, 1.0795000E-02
949.8488, 0.1681920
950.3309, 0.1582930
950.8130, 0.1825970
951.2952, 0.4548450
951.7773, 0.1833930
952.2594, 0.9970410
952.7415, 1.780330
953.2236, 1.350735
953.7057, 0.3024190
954.1878, 0.2420390
954.6699, 0.9761630
955.1520, 1.143795
955.6342, 0.5572060
956.1163, 0.1236320
956.5984, 9.7278997E-02
957.0805, 0.2720230
957.5626, 4.5194998E-02
958.0447, 8.3981000E-02
958.5269, 0.3492450
959.0090, 0.2052310
959.4911, 4.4381998E-02
959.9732, 3.4678001E-02
960.4553, 0.1545800
960.9374, 0.2201080
961.4196, 0.6267390
961.9017, 1.051829
962.3838, 0.9404820
962.8659, 0.7485840
963.3480, 0.2011110
963.8301, 4.8301000E-02
964.3123, 0.4021590
964.7944, 1.068371
965.2765, 1.525715
965.7586, 1.763378
966.2407, 1.854649
966.7228, 1.767693
967.2050, 1.648819
967.6871, 1.545982
968.1692, 1.444969
968.6513, 1.248552
969.1334, 1.090670
969.6155, 1.241021
970.0977, 1.638881
970.5798, 1.886702
971.0619, 1.697244
971.5440, 1.547716
972.0261, 1.972550
972.5082, 2.542518
972.9904, 2.828545
973.4725, 2.850220
973.9546, 2.737486
974.4367, 2.541068
974.9188, 2.281256
975.4009, 1.767715
975.8831, 1.428361
976.3652, 2.237407
976.8473, 3.525458
977.3294, 3.567693
977.8115, 2.477974
978.2936, 1.905644
978.7758, 2.630272
979.2579, 3.780768
979.7400, 4.323040
980.2221, 4.408702
980.7042, 4.545841
981.1863, 4.697102
981.6685, 4.388331
982.1506, 3.533874
982.6327, 3.189512
983.1148, 4.128561
983.5969, 5.600411
984.0790, 6.088431
984.5612, 5.579558
985.0433, 5.645753
985.5254, 6.456358
986.0075, 6.790792
986.4896, 6.164193
986.9717, 5.503301
987.4539, 5.583711
987.9360, 6.193856
988.4181, 6.701282
988.9002, 7.192163
989.3823, 7.194427
989.8644, 6.352704
990.3466, 5.712574
990.8287, 5.658776
991.3108, 5.877984
991.7929, 6.238271
992.2750, 6.645095
992.7571, 6.510594
993.2393, 5.088706
993.7214, 4.455209
994.2035, 5.424402
994.6856, 6.176004
995.1677, 5.729056
995.6498, 4.911261
996.1320, 4.663045
996.6141, 4.937063
997.0962, 5.000877
997.5783, 4.544375
998.0604, 4.138145
998.5425, 3.923047
999.0247, 3.786717
999.5068, 3.644436
999.9889, 3.487281
1000.471, 3.279298
1000.953, 3.037322
1001.435, 2.928191
1001.917, 3.265928
1002.399, 3.370996
1002.882, 2.571291
1003.364, 1.624773
1003.846, 1.295022
1004.328, 1.353842
1004.810, 1.118973
1005.292, 0.4884510
1005.774, 0.2834100
1006.256, 1.326270
1006.739, 2.587489
1007.221, 3.279714
1007.703, 3.498954
1008.185, 3.143909
1008.667, 2.390972
1009.149, 1.565343
1009.631, 0.8034270
1010.113, 0.3978430
1010.595, 0.8583570
1011.078, 1.530476
1011.560, 1.322234
1012.042, 0.5922100
1012.524, 0.1090210
1013.006, 4.5483999E-02
1013.488, 3.0321000E-02
1013.970, 7.8978002E-02
1014.452, 0.3677590
1014.935, 1.135217
1015.417, 2.014573
1015.899, 1.754677
1016.381, 0.6493630
1016.863, 0.2871320
1017.345, 0.8308490
1017.827, 1.272582
1018.309, 1.101520
1018.791, 0.6398300
1019.274, 0.2114970
1019.756, 0.1187380
1020.238, 0.3029300
1020.720, 1.7143000E-02
1021.202, 5.6001998E-02
1021.684, 1.2491000E-02
1022.166, 7.6453000E-02
1022.648, 6.5725997E-02
1023.130, 0.2938830
1023.613, 0.1058890
1024.095, 0.5428900
1024.577, 0.1755670
1025.059, 1.244859
1025.541, 2.322951
1026.023, 1.327997
1026.505, 5.6348000E-02
1026.987, 0.3512250
1027.469, 0.1182710
1027.952, 0.1828680
1028.434, 2.205441
1028.916, 3.437183
1029.398, 3.276145
1029.880, 2.784740
1030.362, 1.988019
1030.844, 1.277555
1031.326, 0.9078640
1031.809, 0.8066510
1032.291, 0.8783630
1032.773, 1.184435
1033.255, 1.093335
1033.737, 0.1287740
1034.219, 0.1417100
1034.701, 0.9567200
1035.183, 2.266286
1035.666, 3.241882
1036.148, 3.746271
1036.630, 3.345097
1037.112, 1.723479
1037.594, 0.9537450
1038.076, 1.554509
1038.558, 2.179000
1039.040, 2.841319
1039.522, 3.177880
1040.005, 2.650109
1040.487, 1.723855
1040.969, 1.372171
1041.451, 1.658046
1041.933, 2.163664
1042.415, 3.382434
1042.897, 4.114008
1043.379, 3.765398
1043.861, 3.249996
1044.344, 3.165733
1044.826, 3.331670
1045.308, 3.393643
1045.790, 3.330371
1046.272, 3.222342
1046.754, 2.893201
1047.236, 2.724548
1047.718, 2.801318
1048.201, 3.140129
1048.683, 4.009441
1049.165, 4.970870
1049.647, 5.121491
1050.129, 4.288669
1050.611, 3.461387
1051.093, 2.605609
1051.575, 2.080659
1052.057, 2.159392
1052.540, 2.434460
1053.022, 2.718934
1053.504, 2.945623
1053.986, 2.942898
1054.468, 2.674808
1054.950, 2.739286
1055.432, 3.798964
1055.914, 4.532549
1056.396, 4.260536
1056.879, 3.720107
1057.361, 3.343363
1057.843, 3.149559
1058.325, 3.130363
1058.807, 3.279032
1059.289, 3.407134
1059.771, 3.569725
1060.253, 3.555268
1060.736, 3.074288
1061.218, 2.563878
1061.700, 2.420104
1062.182, 2.450442
1062.664, 2.220997
1063.146, 1.729052
1063.628, 1.567228
1064.110, 2.333089
1064.593, 2.940670
1065.075, 2.859254
1065.557, 2.525991
1066.039, 2.198533
1066.521, 1.885159
1067.003, 1.525229
1067.485, 1.130065
1067.967, 0.8504210
1068.449, 0.8391040
1068.932, 0.8007900
1069.414, 0.3600220
1069.896, 0.1389620
1070.378, 0.8760440
1070.860, 1.984996
1071.342, 2.718428
1071.824, 2.953772
1072.306, 2.766660
1072.788, 1.942110
1073.271, 1.364765
1073.753, 1.696763
1074.235, 2.149165
1074.717, 2.196670
1075.199, 1.996836
1075.681, 1.804265
1076.163, 1.619456
1076.645, 1.202215
1077.127, 0.2439980
1077.610, 0.2242550
1078.092, 0.7780160
1078.574, 1.916102
1079.056, 2.469583
1079.538, 2.509363
1080.020, 1.969708
1080.502, 1.155465
1080.984, 0.8074900
1081.467, 1.219009
1081.949, 1.674878
1082.431, 2.212627
1082.913, 2.480378
1083.395, 1.915957
1083.877, 1.137833
1084.359, 0.7174190
1084.841, 0.6559820
1085.323, 0.9947170
1085.806, 1.844731
1086.288, 2.322774
1086.770, 1.337238
1087.252, 0.7413020
1087.734, 2.157282
1088.216, 3.833041
1088.698, 4.002069
1089.180, 3.148346
1089.662, 2.492145
1090.145, 2.284902
1090.627, 2.301610
1091.109, 2.966617
1091.591, 3.163192
1092.073, 1.510894
1092.555, 8.9119002E-02
1093.037, 1.115234
1093.519, 3.246708
1094.002, 4.076530
1094.484, 3.316732
1094.966, 2.461459
1095.448, 1.759827
1095.930, 1.369638
1096.412, 1.655824
1096.894, 1.921487
1097.376, 1.638058
1097.859, 1.124175
1098.341, 0.7085730
1098.823, 0.4841200
1099.305, 0.7023610
1099.787, 1.816091
1100.269, 2.520564
1100.751, 2.325057
1101.233, 1.837874
1101.715, 1.244413
1102.198, 0.5925550
1102.680, 0.2132830
1103.162, 0.1169510
1103.644, 0.2633130
1104.126, 0.1096120
1104.608, 0.2354970
1105.090, 0.6829560
1105.572, 1.069806
1106.054, 1.138839
1106.537, 1.558501
1107.019, 1.283074
1107.501, 1.561301
1107.983, 1.472556
1108.465, 0.9091830
1108.947, 0.7096830
1109.429, 1.442965
1109.911, 1.837719
1110.394, 1.290101
1110.876, 0.6926600
1111.358, 0.5993180
1111.840, 0.7927290
1112.322, 0.8815540
1112.804, 0.8465820
1113.286, 1.066137
1113.768, 1.853025
1114.250, 2.350672
1114.733, 2.569401
1115.215, 2.397913
1115.697, 1.515438
1116.179, 0.4733050
1116.661, 6.7657001E-02
1117.143, 0.1772340
1117.625, 0.4034590
1118.107, 0.1546520
1118.589, 2.1894000E-02
1119.072, 0.2968620
1119.554, 0.3245320
1120.036, 0.3025870
1120.518, 0.9141810
1121.000, 1.416168
1121.482, 1.763502
1121.964, 1.770363
1122.446, 1.943925
1122.929, 2.049725
1123.411, 1.754014
1123.893, 1.937868
1124.375, 1.565946
1124.857, 0.9771830
1125.339, 0.2560440
1125.821, 0.2651720
1126.303, 0.1035070
1126.786, 1.279416
1127.268, 1.745955
1127.750, 1.438974
1128.232, 0.8480080
1128.714, 8.0006003E-02
1129.196, 0.2734160
1129.678, 0.8811960
1130.160, 2.166314
1130.642, 2.133657
1131.125, 1.209317
1131.607, 0.9356850
1132.089, 1.268324
1132.571, 1.277824
1133.053, 0.9187420
1133.535, 0.5675440
1134.017, 0.3411130
1134.499, 0.3145810
1134.981, 0.5867030
1135.464, 0.8586610
1135.946, 0.3978860
1136.428, 0.4505380
1136.910, 0.1267210
1137.392, 1.140383
1137.874, 2.189008
1138.356, 2.797305
1138.838, 3.238962
1139.321, 3.662830
1139.803, 3.785194
1140.285, 3.081404
1140.767, 2.067382
1141.249, 1.739618
1141.731, 1.814724
1142.213, 1.729814
1142.695, 1.444099
1143.177, 0.9998160
1143.660, 0.4598780
1144.142, 0.1379030
1144.624, 0.2661920
1145.106, 0.6758910
1145.588, 1.442164
1146.070, 2.199410
1146.552, 2.383726
1147.034, 2.249535
1147.516, 2.366203
1147.999, 2.721434
1148.481, 2.760140
1148.963, 2.185784
1149.445, 1.685224
1149.927, 1.796789
1150.409, 1.997836
1150.891, 1.802248
1151.373, 1.612294
1151.856, 1.985318
1152.338, 2.662055
1152.820, 2.870963
1153.302, 2.449776
1153.784, 2.257840
1154.266, 2.845051
1154.748, 3.355726
1155.230, 3.668272
1155.713, 3.646361
1156.195, 2.680065
1156.677, 1.701648
1157.159, 2.242424
1157.641, 4.049348
1158.123, 4.564707
1158.605, 2.601217
1159.087, 1.396912
1159.569, 1.515821
1160.052, 1.929359
1160.534, 2.756541
1161.016, 3.299594
1161.498, 2.795382
1161.980, 1.845554
1162.462, 1.797053
1162.944, 1.236453
1163.426, 0.6135990
1163.908, 0.9427450
1164.391, 0.1234550
1164.873, 0.7550660
1165.355, 1.604882
1165.837, 2.090563
1166.319, 2.326612
1166.801, 2.359415
1167.283, 2.309293
1167.765, 2.716250
1168.247, 3.604996
1168.730, 4.301801
1169.212, 4.789293
1169.694, 4.421172
1170.176, 2.880547
1170.658, 1.753048
1171.140, 2.145456
1171.622, 3.364566
1172.104, 4.702610
1172.587, 5.934523
1173.069, 6.128698
1173.551, 5.479134
1174.033, 4.531854
1174.515, 3.494760
1174.997, 2.940936
1175.479, 3.050994
1175.961, 3.286260
1176.443, 3.053142
1176.926, 2.910659
1177.408, 3.935967
1177.890, 5.264765
1178.372, 5.605546
1178.854, 5.172843
1179.336, 4.322546
1179.818, 3.331344
1180.300, 2.788391
1180.782, 3.001539
1181.265, 3.203900
1181.747, 2.827421
1182.229, 2.446147
1182.711, 2.301028
1183.193, 2.373816
1183.675, 2.960239
1184.157, 3.733086
1184.639, 3.938052
1185.122, 3.498292
1185.604, 3.112753
1186.086, 2.793641
1186.568, 2.758900
1187.050, 3.270600
1187.532, 3.846630
1188.014, 4.523243
1188.496, 4.832386
1188.979, 4.201581
1189.461, 3.040269
1189.943, 2.548597
1190.425, 2.858464
1190.907, 3.083487
1191.389, 3.188630
1191.871, 3.231397
1192.353, 3.129992
1192.835, 3.319535
1193.318, 4.186754
1193.800, 4.907452
1194.282, 4.305289
1194.764, 2.904112
1195.246, 2.629589
1195.728, 3.422141
1196.210, 3.974495
1196.692, 4.219776
1197.174, 4.195174
1197.657, 3.926764
1198.139, 3.716154
1198.621, 3.750434
1199.103, 3.841007
1199.585, 3.692744
1200.067, 3.442388
1200.549, 3.338197
1201.031, 3.366926
1201.514, 3.629054
1201.996, 3.985898
1202.478, 3.931376
1202.960, 3.423254
1203.442, 3.192598
1203.924, 3.792332
1204.406, 4.401777
1204.888, 4.671742
1205.370, 4.410615
1205.853, 2.847850
1206.335, 1.118062
1206.817, 0.7906770
1207.299, 1.426905
1207.781, 1.380093
1208.263, 0.2460820
1208.745, 6.0091998E-02
1209.227, 2.043419
1209.709, 3.325721
1210.192, 2.047032
1210.674, 1.065201
1211.156, 2.521123
1211.638, 4.328312
1212.120, 4.349440
1212.602, 2.994486
1213.084, 1.632544
1213.566, 3.9193001E-02
1214.049, 0.2596470
1214.531, 1.210224
1215.013, 2.042762
1215.495, 1.693996
1215.977, 1.119928
1216.459, 0.7980700
1216.941, 0.6216110
1217.423, 0.4767310
1217.906, 0.3971250
1218.388, 0.3691900
1218.870, 0.4008420
1219.352, 0.2880700
1219.834, 0.1118720
1220.316, 0.5115520
1220.798, 1.481423
1221.280, 1.961096
1221.762, 1.364178
1222.245, 0.6339390
1222.727, 0.3677790
1223.209, 0.8910330
1223.691, 1.600197
1224.173, 1.787916
1224.655, 3.2752000E-02
1225.137, 0.6829580
1225.619, 0.3475060
1226.101, 5.4517001E-02
1226.584, 0.9479960
1227.066, 0.7076340
1227.548, 1.416465
1228.030, 1.353056
1228.512, 0.7985820
1228.994, 0.1546790
1229.476, 0.9662020
1229.958, 1.125759
1230.441, 0.7213590
1230.923, 0.4398210
1231.405, 0.2824380
1231.887, 0.1945430
1232.369, 0.2471780
1232.851, 6.8199001E-02
1233.333, 5.6047000E-02
1233.815, 0.2106550
1234.297, 0.1283250
1234.780, 0.1271440
1235.262, 0.6689550
1235.744, 1.017056
1236.226, 0.7609940
1236.708, 9.2540003E-02
1237.190, 0.1717410
1237.672, 6.8683997E-02
1238.154, 0.4089750
1238.636, 0.1325380
1239.119, 0.9599680
1239.601, 6.5347001E-02
1240.083, 0.2237900
1240.565, 1.8000000E-03
1241.047, 0.9739460
1241.529, 1.346773
1242.011, 1.404563
1242.493, 1.266611
1242.975, 1.118222
1243.458, 1.341114
1243.940, 1.655963
1244.422, 1.258670
1244.904, 0.1280290
1245.386, 0.1170580
1245.868, 1.103764
1246.350, 2.201545
1246.832, 2.923799
1247.315, 3.088385
1247.797, 1.907438
1248.279, 0.9299130
1248.761, 1.259729
1249.243, 2.268005
1249.725, 3.205139
1250.207, 3.968200
1250.689, 4.337280
1251.172, 4.286289
1251.654, 4.098341
1252.136, 3.782535
1252.618, 3.384416
1253.100, 2.901425
1253.582, 2.590848
1254.064, 2.833976
1254.546, 3.321906
1255.028, 3.892741
1255.510, 4.245104
1255.993, 3.194846
1256.475, 1.740037
1256.957, 1.090671
1257.439, 0.8988810
1257.921, 0.8716350
1258.403, 0.9330580
1258.885, 0.8908910
1259.367, 0.6726460
1259.850, 0.6769120
1260.332, 0.6788580
1260.814, 0.7383910
1261.296, 1.276433
1261.778, 1.901728
1262.260, 1.870393
1262.742, 1.867471
1263.224, 2.444932
1263.707, 3.428813
1264.189, 3.895991
1264.671, 3.648123
1265.153, 3.237377
1265.635, 2.988875
1266.117, 2.353810
1266.599, 1.073338
1267.081, 0.4349520
1267.563, 1.121955
1268.046, 2.138678
1268.528, 2.384097
1269.010, 1.993682
1269.492, 0.9466820
1269.974, 0.2291710
1270.456, 7.2522998E-02
1270.938, 1.080522
1271.420, 2.586355
1271.902, 4.054308
1272.385, 4.678225
1272.867, 4.167704
1273.349, 3.357516
1273.831, 2.591489
1274.313, 1.757728
1274.795, 5.0749999E-02
1275.277, 6.9624998E-02
1275.759, 1.490693
1276.242, 4.571555
1276.724, 4.971699
1277.206, 3.214808
1277.688, 1.932239
1278.170, 1.120512
1278.652, 0.6992240
1279.134, 0.7500560
1279.616, 0.8474830
1280.099, 0.6063300
1280.581, 0.7862070
1281.063, 1.061870
1281.545, 1.409645
1282.027, 1.877441
1282.509, 2.190941
1282.991, 1.310194
1283.473, 3.1030001E-03
1283.955, 0.0000000E+00
##END=



