##NAMES=Miserite
##RRUFFID=R060393
##IDEAL CHEMISTRY=K_1.5-x_(Ca,Y,REE)_5_[Si_6_O_15_][Si_2_O_7_](OH,F)_2_&#183;yH_2_O
##LOCALITY=Wilson Springs, Garland County, Arkansas, USA
##OWNER=RRUFF
##SOURCE=Michael Scott
##DESCRIPTION=Pale purple mass of prismatic to flaky fragments
##STATUS=The identification of this mineral has been confirmed by X-ray diffraction.
##URL=rruff.info/R060393
127.2463, 411.1263
127.7284, 411.6454
128.2105, 411.9361
128.6927, 411.6263
129.1748, 410.3727
129.6569, 409.0705
130.1390, 408.7074
130.6211, 409.4518
131.1032, 410.1320
131.5854, 410.0980
132.0675, 409.7784
132.5496, 409.5033
133.0317, 409.3368
133.5138, 409.3620
133.9959, 409.8235
134.4781, 411.0424
134.9602, 412.2112
135.4423, 413.2624
135.9244, 414.1045
136.4065, 414.5522
136.8886, 414.4204
137.3708, 413.7833
137.8529, 413.6942
138.3350, 414.8078
138.8171, 415.8513
139.2992, 416.4098
139.7813, 416.6416
140.2635, 416.9913
140.7456, 417.8800
141.2277, 419.4287
141.7098, 420.3798
142.1919, 420.4279
142.6740, 420.2711
143.1561, 420.0447
143.6383, 419.8553
144.1204, 420.1255
144.6025, 421.5575
145.0846, 424.4508
145.5667, 425.9925
146.0488, 424.8971
146.5310, 422.9308
147.0131, 421.9111
147.4952, 422.1833
147.9773, 423.2401
148.4594, 424.9806
148.9415, 427.2614
149.4237, 429.0591
149.9058, 429.9639
150.3879, 430.1004
150.8700, 429.5737
151.3521, 427.5605
151.8342, 426.1299
152.3164, 427.2205
152.7985, 430.5449
153.2806, 433.9648
153.7627, 435.7183
154.2448, 435.7709
154.7269, 436.1379
155.2091, 437.4885
155.6912, 438.9153
156.1733, 439.8596
156.6554, 440.3216
157.1375, 440.7718
157.6196, 441.9248
158.1018, 444.2609
158.5839, 445.8599
159.0660, 445.9047
159.5481, 445.7646
160.0302, 446.2926
160.5123, 447.6949
160.9945, 449.5904
161.4766, 451.3262
161.9587, 453.0323
162.4408, 454.3418
162.9229, 454.7207
163.4050, 454.9854
163.8871, 455.9500
164.3693, 457.9156
164.8514, 460.4893
165.3335, 462.7461
165.8156, 464.8846
166.2977, 466.4200
166.7798, 466.6586
167.2620, 466.3778
167.7441, 466.8471
168.2262, 468.7147
168.7083, 471.4337
169.1904, 473.4207
169.6725, 474.3569
170.1547, 475.3215
170.6368, 476.8612
171.1189, 478.8025
171.6010, 480.4805
172.0831, 481.3518
172.5652, 481.9941
173.0474, 483.6222
173.5295, 486.7250
174.0116, 489.8676
174.4937, 491.5918
174.9758, 491.9062
175.4579, 492.9168
175.9401, 496.3676
176.4222, 500.6076
176.9043, 503.8381
177.3864, 505.6253
177.8685, 506.6398
178.3506, 507.6721
178.8328, 508.7342
179.3149, 509.7807
179.7970, 510.5172
180.2791, 511.3565
180.7612, 512.7430
181.2433, 514.8979
181.7255, 517.4673
182.2076, 519.6863
182.6897, 521.3177
183.1718, 523.0134
183.6539, 524.9910
184.1360, 527.0579
184.6181, 529.0319
185.1003, 530.8316
185.5824, 532.4519
186.0645, 533.8525
186.5466, 534.8090
187.0287, 535.8072
187.5108, 536.7620
187.9930, 537.8245
188.4751, 539.2259
188.9572, 541.1058
189.4393, 543.3600
189.9214, 545.3856
190.4035, 547.0877
190.8857, 548.6676
191.3678, 550.0204
191.8499, 551.2795
192.3320, 552.7139
192.8141, 554.5240
193.2962, 556.6169
193.7784, 558.2627
194.2605, 558.9064
194.7426, 559.7959
195.2247, 561.6426
195.7068, 564.1345
196.1889, 566.3303
196.6711, 567.5573
197.1532, 568.0543
197.6353, 569.1228
198.1174, 571.0274
198.5995, 573.1888
199.0816, 575.4902
199.5638, 577.8781
200.0459, 579.9783
200.5280, 581.5526
201.0101, 582.6547
201.4922, 583.5421
201.9743, 583.8578
202.4565, 584.3372
202.9386, 585.7318
203.4207, 588.0688
203.9028, 590.4868
204.3849, 592.4819
204.8670, 594.2913
205.3492, 596.3111
205.8313, 598.9151
206.3134, 601.3617
206.7955, 602.3215
207.2776, 601.3173
207.7597, 601.0602
208.2419, 603.7297
208.7240, 607.4366
209.2061, 610.4073
209.6882, 612.0057
210.1703, 612.7758
210.6524, 613.5557
211.1346, 614.2491
211.6167, 615.1975
212.0988, 616.6163
212.5809, 618.2548
213.0630, 619.7537
213.5451, 620.8777
214.0273, 622.1286
214.5094, 624.9457
214.9915, 631.1535
215.4736, 635.5254
215.9557, 635.9648
216.4378, 634.8920
216.9200, 634.6622
217.4021, 636.3242
217.8842, 639.3190
218.3663, 642.0484
218.8484, 643.9090
219.3305, 646.4223
219.8127, 650.1708
220.2948, 654.4456
220.7769, 658.5751
221.2590, 662.2543
221.7411, 665.5400
222.2232, 668.5817
222.7054, 670.5958
223.1875, 673.3461
223.6696, 677.7088
224.1517, 682.5889
224.6338, 686.4746
225.1159, 688.6952
225.5980, 690.0787
226.0802, 693.0516
226.5623, 699.6191
227.0444, 705.4205
227.5265, 710.0715
228.0086, 713.8047
228.4907, 716.4567
228.9729, 717.8702
229.4550, 718.9684
229.9371, 722.2967
230.4192, 730.0568
230.9013, 736.4820
231.3834, 739.6328
231.8656, 741.1385
232.3477, 743.4503
232.8298, 747.5607
233.3119, 752.6376
233.7940, 756.9258
234.2761, 760.2813
234.7583, 763.4283
235.2404, 766.6148
235.7225, 769.6898
236.2046, 772.2970
236.6867, 774.2043
237.1688, 775.9226
237.6510, 778.6082
238.1331, 782.4899
238.6152, 785.7789
239.0973, 787.2246
239.5794, 787.6923
240.0615, 789.1984
240.5437, 792.6432
241.0258, 796.5339
241.5079, 798.8514
241.9900, 799.6751
242.4721, 800.1872
242.9542, 800.5137
243.4364, 800.8887
243.9185, 802.0837
244.4006, 804.6654
244.8827, 807.3232
245.3648, 808.8508
245.8469, 809.3534
246.3290, 809.1786
246.8112, 807.9151
247.2933, 806.0511
247.7754, 805.1827
248.2575, 805.9890
248.7396, 807.0229
249.2217, 807.3569
249.7039, 807.0405
250.1860, 806.1439
250.6681, 804.1766
251.1502, 801.5658
251.6323, 800.0526
252.1144, 800.5305
252.5966, 800.7646
253.0787, 799.1790
253.5608, 796.3876
254.0429, 793.7172
254.5250, 791.6863
255.0071, 790.3577
255.4893, 790.1589
255.9714, 792.0238
256.4535, 793.5233
256.9356, 793.1486
257.4177, 791.8021
257.8998, 790.9531
258.3820, 791.4620
258.8641, 793.0211
259.3462, 794.5383
259.8283, 795.8193
260.3104, 797.4066
260.7925, 799.6057
261.2747, 802.1332
261.7568, 804.6674
262.2389, 807.1186
262.7210, 809.3768
263.2031, 810.9420
263.6852, 810.5544
264.1674, 811.7560
264.6495, 816.3626
265.1316, 822.2991
265.6137, 827.2930
266.0958, 830.3326
266.5779, 832.2375
267.0601, 834.8287
267.5422, 837.9227
268.0243, 842.1879
268.5064, 848.4293
268.9885, 855.2929
269.4706, 861.5416
269.9528, 866.7482
270.4349, 871.3840
270.9170, 876.2708
271.3991, 881.1341
271.8812, 886.8177
272.3633, 894.2777
272.8455, 901.8533
273.3276, 908.0179
273.8097, 912.5201
274.2918, 916.4550
274.7739, 921.5259
275.2560, 928.4215
275.7382, 935.0397
276.2202, 941.3204
276.7024, 947.4398
277.1845, 953.0873
277.6666, 958.4789
278.1487, 964.6205
278.6308, 973.0742
279.1129, 985.2205
279.5951, 994.7239
280.0772, 999.7072
280.5593, 1004.189
281.0414, 1010.286
281.5235, 1017.988
282.0056, 1026.080
282.4878, 1033.447
282.9699, 1040.104
283.4520, 1046.140
283.9341, 1050.750
284.4162, 1055.644
284.8983, 1061.609
285.3805, 1068.475
285.8626, 1075.670
286.3447, 1082.811
286.8268, 1089.873
287.3089, 1096.686
287.7910, 1104.107
288.2732, 1110.403
288.7553, 1113.978
289.2374, 1116.086
289.7195, 1119.149
290.2016, 1124.726
290.6837, 1132.212
291.1659, 1138.395
291.6480, 1142.446
292.1301, 1146.118
292.6122, 1149.447
293.0943, 1152.613
293.5764, 1155.768
294.0586, 1158.983
294.5407, 1162.352
295.0228, 1166.145
295.5049, 1170.847
295.9870, 1175.408
296.4691, 1179.711
296.9513, 1183.896
297.4334, 1188.255
297.9155, 1192.844
298.3976, 1197.262
298.8797, 1200.778
299.3618, 1202.623
299.8440, 1204.976
300.3261, 1207.999
300.8082, 1211.395
301.2903, 1215.154
301.7724, 1219.178
302.2545, 1223.078
302.7367, 1226.446
303.2188, 1229.226
303.7009, 1231.408
304.1830, 1232.514
304.6651, 1233.469
305.1472, 1234.644
305.6294, 1236.159
306.1115, 1238.273
306.5936, 1241.390
307.0757, 1245.631
307.5578, 1248.320
308.0399, 1248.071
308.5221, 1247.942
309.0042, 1249.869
309.4863, 1253.087
309.9684, 1255.359
310.4505, 1255.148
310.9326, 1252.862
311.4148, 1251.324
311.8969, 1250.917
312.3790, 1250.686
312.8611, 1250.346
313.3432, 1250.052
313.8253, 1249.949
314.3075, 1250.072
314.7896, 1250.654
315.2717, 1252.357
315.7538, 1256.408
316.2359, 1259.834
316.7180, 1261.851
317.2001, 1263.376
317.6823, 1265.338
318.1644, 1268.022
318.6465, 1271.239
319.1286, 1274.753
319.6107, 1278.727
320.0928, 1282.555
320.5750, 1286.181
321.0571, 1289.704
321.5392, 1293.427
322.0213, 1297.255
322.5034, 1300.551
322.9855, 1302.537
323.4677, 1302.946
323.9498, 1304.011
324.4319, 1304.873
324.9140, 1307.035
325.3961, 1312.246
325.8782, 1319.593
326.3604, 1326.345
326.8425, 1330.458
327.3246, 1332.252
327.8067, 1335.404
328.2888, 1341.272
328.7709, 1346.781
329.2531, 1350.676
329.7352, 1353.783
330.2173, 1357.671
330.6994, 1363.146
331.1815, 1369.373
331.6636, 1374.114
332.1458, 1374.912
332.6279, 1377.260
333.1100, 1382.034
333.5921, 1388.059
334.0742, 1394.430
334.5563, 1400.789
335.0385, 1407.074
335.5206, 1413.188
336.0027, 1419.370
336.4848, 1424.646
336.9669, 1427.518
337.4490, 1430.779
337.9312, 1436.874
338.4133, 1445.505
338.8954, 1454.121
339.3775, 1460.280
339.8596, 1463.751
340.3417, 1467.769
340.8239, 1472.335
341.3060, 1477.336
341.7881, 1482.928
342.2702, 1488.925
342.7523, 1495.015
343.2344, 1501.009
343.7166, 1506.854
344.1987, 1512.223
344.6808, 1516.883
345.1629, 1521.282
345.6450, 1525.292
346.1271, 1529.099
346.6093, 1533.099
347.0914, 1537.378
347.5735, 1541.401
348.0556, 1543.931
348.5377, 1543.445
349.0198, 1544.279
349.5020, 1546.603
349.9841, 1549.923
350.4662, 1554.803
350.9483, 1560.746
351.4304, 1565.717
351.9125, 1567.046
352.3947, 1563.799
352.8768, 1563.178
353.3589, 1566.477
353.8410, 1571.068
354.3231, 1576.801
354.8052, 1583.106
355.2874, 1589.245
355.7695, 1594.782
356.2516, 1599.622
356.7337, 1603.313
357.2158, 1604.869
357.6979, 1606.535
358.1800, 1608.087
358.6621, 1610.214
359.1443, 1614.036
359.6264, 1619.989
360.1085, 1626.610
360.5906, 1631.081
361.0727, 1632.240
361.5548, 1634.303
362.0370, 1637.782
362.5191, 1642.152
363.0012, 1647.473
363.4833, 1653.588
363.9654, 1659.711
364.4475, 1665.004
364.9297, 1669.405
365.4118, 1673.982
365.8939, 1679.225
366.3760, 1684.065
366.8581, 1687.540
367.3402, 1690.306
367.8224, 1693.730
368.3045, 1698.713
368.7866, 1704.774
369.2687, 1710.613
369.7508, 1716.328
370.2329, 1721.544
370.7151, 1725.822
371.1972, 1729.753
371.6793, 1734.029
372.1614, 1738.855
372.6435, 1743.759
373.1256, 1747.959
373.6078, 1751.368
374.0899, 1755.309
374.5720, 1760.320
375.0541, 1765.769
375.5362, 1771.642
376.0183, 1777.777
376.5005, 1782.912
376.9826, 1786.009
377.4647, 1787.417
377.9468, 1788.141
378.4289, 1787.541
378.9110, 1787.797
379.3932, 1791.419
379.8753, 1796.818
380.3574, 1801.004
380.8395, 1802.912
381.3216, 1803.315
381.8037, 1802.768
382.2859, 1801.247
382.7680, 1799.965
383.2501, 1799.938
383.7322, 1800.103
384.2143, 1798.735
384.6964, 1795.444
385.1786, 1791.952
385.6607, 1789.895
386.1428, 1788.444
386.6249, 1785.142
387.1070, 1779.131
387.5891, 1772.055
388.0713, 1765.688
388.5534, 1759.968
389.0355, 1754.101
389.5176, 1748.475
389.9997, 1742.291
390.4818, 1734.324
390.9640, 1724.611
391.4461, 1715.064
391.9282, 1707.151
392.4103, 1700.452
392.8924, 1692.614
393.3745, 1682.404
393.8567, 1672.480
394.3388, 1664.221
394.8209, 1656.940
395.3030, 1649.435
395.7851, 1641.175
396.2672, 1632.495
396.7494, 1623.878
397.2315, 1615.458
397.7136, 1606.800
398.1957, 1596.879
398.6778, 1587.297
399.1599, 1579.801
399.6420, 1574.279
400.1241, 1568.831
400.6063, 1561.672
401.0884, 1552.691
401.5705, 1544.998
402.0526, 1538.742
402.5347, 1533.407
403.0168, 1529.256
403.4990, 1525.853
403.9811, 1522.561
404.4632, 1519.089
404.9453, 1515.647
405.4274, 1512.741
405.9095, 1510.524
406.3917, 1508.708
406.8738, 1507.019
407.3559, 1505.873
407.8380, 1505.521
408.3201, 1506.012
408.8022, 1507.305
409.2844, 1509.574
409.7665, 1512.901
410.2486, 1515.549
410.7307, 1516.002
411.2128, 1517.421
411.6949, 1521.263
412.1771, 1526.555
412.6592, 1531.560
413.1413, 1535.279
413.6234, 1538.734
414.1055, 1544.299
414.5876, 1552.670
415.0698, 1561.124
415.5519, 1569.168
416.0340, 1576.954
416.5161, 1584.442
416.9982, 1591.706
417.4803, 1599.022
417.9625, 1606.289
418.4446, 1613.673
418.9267, 1622.487
419.4088, 1632.724
419.8909, 1644.578
420.3730, 1659.461
420.8552, 1675.810
421.3373, 1690.111
421.8194, 1699.781
422.3015, 1708.342
422.7836, 1720.531
423.2657, 1736.271
423.7479, 1751.039
424.2300, 1762.140
424.7121, 1772.113
425.1942, 1785.184
425.6763, 1801.854
426.1584, 1818.703
426.6406, 1834.824
427.1227, 1850.053
427.6048, 1863.276
428.0869, 1874.203
428.5690, 1885.939
429.0511, 1902.118
429.5333, 1922.678
430.0154, 1939.453
430.4975, 1949.264
430.9796, 1958.281
431.4617, 1969.854
431.9438, 1983.341
432.4260, 1996.957
432.9081, 2009.815
433.3902, 2022.169
433.8723, 2034.611
434.3544, 2047.830
434.8365, 2059.851
435.3187, 2069.688
435.8008, 2078.904
436.2829, 2088.532
436.7650, 2098.789
437.2471, 2109.722
437.7292, 2121.671
438.2114, 2134.780
438.6935, 2144.889
439.1756, 2148.608
439.6577, 2153.103
440.1398, 2160.615
440.6219, 2169.671
441.1040, 2178.358
441.5862, 2185.843
442.0683, 2192.202
442.5504, 2197.466
443.0325, 2201.628
443.5146, 2204.798
443.9967, 2207.279
444.4789, 2208.517
444.9610, 2207.662
445.4431, 2205.120
445.9252, 2202.360
446.4073, 2200.971
446.8894, 2200.132
447.3716, 2196.173
447.8537, 2187.546
448.3358, 2179.651
448.8179, 2176.372
449.3000, 2174.374
449.7821, 2170.010
450.2643, 2162.322
450.7464, 2153.193
451.2285, 2144.401
451.7106, 2135.620
452.1927, 2125.113
452.6748, 2111.755
453.1570, 2098.310
453.6391, 2088.708
454.1212, 2081.935
454.6033, 2072.944
455.0854, 2058.677
455.5675, 2043.167
456.0497, 2030.405
456.5318, 2019.992
457.0139, 2008.611
457.4960, 1994.413
457.9781, 1978.370
458.4602, 1962.978
458.9424, 1948.391
459.4245, 1934.001
459.9066, 1919.949
460.3887, 1905.966
460.8708, 1891.875
461.3529, 1877.607
461.8351, 1862.997
462.3172, 1847.675
462.7993, 1831.681
463.2814, 1816.456
463.7635, 1802.786
464.2456, 1788.926
464.7278, 1774.401
465.2099, 1759.304
465.6920, 1743.681
466.1741, 1727.496
466.6562, 1711.272
467.1383, 1695.804
467.6205, 1680.876
468.1026, 1666.985
468.5847, 1655.342
469.0668, 1643.661
469.5489, 1631.038
470.0310, 1617.530
470.5132, 1603.606
470.9953, 1589.333
471.4774, 1575.036
471.9595, 1561.463
472.4416, 1548.588
472.9237, 1536.633
473.4059, 1526.767
473.8880, 1517.281
474.3701, 1506.320
474.8522, 1493.685
475.3343, 1481.419
475.8164, 1470.988
476.2986, 1461.967
476.7807, 1453.471
477.2628, 1445.634
477.7449, 1437.232
478.2270, 1426.932
478.7091, 1415.220
479.1913, 1404.374
479.6734, 1394.352
480.1555, 1385.394
480.6376, 1378.541
481.1197, 1372.751
481.6018, 1365.571
482.0839, 1356.125
482.5660, 1346.009
483.0482, 1337.367
483.5303, 1330.621
484.0124, 1324.124
484.4945, 1318.362
484.9766, 1312.395
485.4587, 1305.404
485.9409, 1297.768
486.4230, 1290.545
486.9051, 1284.342
487.3872, 1278.672
487.8693, 1272.081
488.3514, 1263.414
488.8336, 1255.939
489.3157, 1251.202
489.7978, 1246.531
490.2799, 1239.627
490.7620, 1230.840
491.2441, 1222.634
491.7263, 1217.272
492.2084, 1214.139
492.6905, 1210.155
493.1726, 1204.851
493.6547, 1199.869
494.1368, 1197.005
494.6190, 1194.296
495.1011, 1189.343
495.5832, 1181.477
496.0653, 1173.473
496.5474, 1167.615
497.0295, 1163.327
497.5117, 1158.830
497.9938, 1153.722
498.4759, 1148.981
498.9580, 1145.757
499.4401, 1143.649
499.9222, 1140.530
500.4044, 1135.060
500.8865, 1129.785
501.3686, 1126.161
501.8507, 1123.635
502.3328, 1121.068
502.8149, 1118.092
503.2971, 1114.848
503.7792, 1111.513
504.2613, 1107.984
504.7434, 1104.678
505.2255, 1101.889
505.7076, 1099.023
506.1898, 1095.429
506.6719, 1091.580
507.1540, 1088.597
507.6361, 1087.107
508.1182, 1086.359
508.6003, 1084.489
509.0825, 1080.798
509.5646, 1077.865
510.0467, 1077.036
510.5288, 1076.091
511.0109, 1073.763
511.4930, 1070.192
511.9752, 1066.220
512.4573, 1062.068
512.9394, 1058.053
513.4215, 1055.085
513.9036, 1053.343
514.3857, 1051.443
514.8679, 1048.875
515.3500, 1045.830
515.8321, 1042.559
516.3142, 1039.039
516.7963, 1035.537
517.2784, 1031.827
517.7606, 1028.344
518.2427, 1026.046
518.7248, 1024.922
519.2069, 1023.360
519.6890, 1020.118
520.1711, 1015.624
520.6533, 1012.142
521.1354, 1010.202
521.6175, 1008.361
522.0996, 1006.868
522.5817, 1005.097
523.0638, 1002.223
523.5460, 998.2521
524.0281, 993.9252
524.5102, 989.8138
524.9923, 985.9586
525.4744, 983.5668
525.9565, 984.4631
526.4387, 984.4752
526.9208, 982.2971
527.4029, 979.1082
527.8850, 976.0775
528.3671, 973.5170
528.8492, 971.1500
529.3314, 968.8214
529.8135, 966.5015
530.2956, 963.7297
530.7777, 960.2268
531.2598, 956.8241
531.7419, 954.1271
532.2241, 951.8634
532.7062, 949.5456
533.1883, 946.9260
533.6704, 944.5850
534.1525, 943.0315
534.6346, 942.0330
535.1168, 941.1563
535.5989, 940.3418
536.0810, 939.2055
536.5631, 937.3126
537.0452, 934.6098
537.5273, 931.9385
538.0095, 929.2421
538.4916, 926.6244
538.9737, 923.8952
539.4558, 921.3327
539.9379, 919.4636
540.4200, 918.4211
540.9022, 917.6459
541.3843, 916.3869
541.8664, 914.5872
542.3485, 912.6359
542.8306, 910.2755
543.3127, 908.0662
543.7948, 905.9854
544.2769, 904.2366
544.7590, 903.3396
545.2411, 903.6116
545.7233, 903.8467
546.2054, 902.2665
546.6875, 899.0106
547.1696, 896.2494
547.6517, 894.2917
548.1339, 892.9119
548.6160, 892.1876
549.0981, 891.9184
549.5802, 891.5665
550.0623, 890.9082
550.5444, 890.2714
551.0266, 889.9492
551.5087, 889.7979
551.9908, 889.3790
552.4729, 888.5418
552.9550, 887.8270
553.4371, 888.0145
553.9193, 889.3928
554.4014, 889.9150
554.8835, 889.6788
555.3656, 888.6327
555.8477, 885.9587
556.3298, 882.7243
556.8120, 880.3688
557.2941, 879.4219
557.7762, 879.6155
558.2583, 880.9395
558.7404, 883.6419
559.2225, 885.3347
559.7047, 885.6984
560.1868, 885.2859
560.6689, 883.7347
561.1510, 881.8232
561.6331, 881.0143
562.1152, 882.1142
562.5974, 883.3685
563.0795, 882.8640
563.5616, 881.1196
564.0437, 880.1918
564.5258, 880.6601
565.0079, 881.1435
565.4901, 880.2322
565.9722, 878.0073
566.4543, 876.4908
566.9364, 875.5594
567.4185, 875.4715
567.9006, 877.2263
568.3828, 879.5490
568.8649, 880.5300
569.3470, 879.7367
569.8291, 878.3160
570.3112, 877.6248
570.7933, 877.7327
571.2755, 877.2721
571.7576, 875.7160
572.2397, 874.2277
572.7218, 872.6560
573.2039, 871.4965
573.6860, 871.5876
574.1682, 873.0894
574.6503, 874.5771
575.1324, 874.4281
575.6145, 873.0612
576.0966, 872.4301
576.5787, 872.8135
577.0609, 873.3175
577.5430, 873.6768
578.0251, 873.6672
578.5072, 872.8439
578.9893, 870.9963
579.4714, 868.7898
579.9536, 866.1971
580.4357, 863.5355
580.9178, 860.8986
581.3999, 858.4530
581.8820, 857.0183
582.3641, 857.4308
582.8463, 859.2142
583.3284, 859.5710
583.8105, 857.5988
584.2926, 855.4329
584.7747, 852.6371
585.2568, 850.1664
585.7390, 849.0667
586.2211, 849.1163
586.7032, 848.9867
587.1853, 847.5564
587.6674, 845.3968
588.1495, 844.1017
588.6317, 843.7740
589.1138, 843.7030
589.5959, 843.8867
590.0780, 844.0095
590.5601, 843.7206
591.0422, 843.0261
591.5244, 842.1426
592.0065, 841.1012
592.4886, 839.9229
592.9707, 838.8672
593.4528, 837.7339
593.9349, 835.5882
594.4171, 831.9066
594.8992, 827.9196
595.3813, 825.8613
595.8634, 826.5992
596.3455, 826.7159
596.8276, 825.7045
597.3098, 824.6914
597.7919, 824.0105
598.2740, 823.6843
598.7561, 823.9387
599.2382, 824.9163
599.7203, 825.5490
600.2025, 823.7455
600.6846, 819.6135
601.1667, 817.5421
601.6488, 818.7029
602.1309, 820.5054
602.6130, 821.5724
603.0952, 821.9741
603.5773, 821.6342
604.0594, 820.0099
604.5415, 818.6699
605.0236, 818.6490
605.5057, 819.3293
605.9879, 819.7601
606.4700, 819.7963
606.9521, 819.8415
607.4342, 820.2487
607.9163, 820.9475
608.3984, 821.4096
608.8806, 820.8790
609.3627, 821.1714
609.8448, 823.4280
610.3269, 825.7868
610.8090, 826.6570
611.2911, 826.1152
611.7733, 825.3817
612.2554, 825.2895
612.7375, 825.5843
613.2196, 825.5006
613.7017, 824.9349
614.1838, 825.2005
614.6660, 827.1707
615.1481, 829.5670
615.6302, 830.7152
616.1123, 830.7256
616.5944, 831.2482
617.0765, 832.7086
617.5587, 834.7003
618.0408, 837.4368
618.5229, 840.4339
619.0050, 842.5805
619.4871, 843.5024
619.9692, 843.9519
620.4514, 844.8528
620.9335, 846.1670
621.4156, 848.2742
621.8977, 852.9388
622.3798, 856.2653
622.8619, 855.9965
623.3441, 854.5016
623.8262, 854.6823
624.3083, 857.1888
624.7904, 859.9708
625.2725, 860.8918
625.7546, 860.7919
626.2367, 862.4916
626.7188, 866.3800
627.2009, 869.0325
627.6830, 868.1432
628.1652, 865.3307
628.6473, 864.3748
629.1294, 865.7941
629.6115, 867.0004
630.0936, 867.2257
630.5757, 867.4496
631.0579, 868.2089
631.5400, 869.5844
632.0221, 871.7634
632.5042, 874.8596
632.9863, 878.2132
633.4684, 880.4641
633.9506, 881.3270
634.4327, 882.5406
634.9148, 884.2836
635.3969, 886.2714
635.8790, 888.0039
636.3611, 889.9390
636.8433, 893.2754
637.3254, 899.0769
637.8075, 903.7726
638.2896, 903.7658
638.7717, 901.1086
639.2538, 900.2414
639.7360, 901.6761
640.2181, 901.9675
640.7002, 898.4901
641.1823, 892.1428
641.6644, 886.5353
642.1465, 883.1310
642.6287, 878.4548
643.1108, 871.6007
643.5929, 864.2385
644.0750, 857.3785
644.5571, 850.9843
645.0392, 844.4996
645.5214, 837.6017
646.0035, 830.6354
646.4856, 823.9921
646.9677, 817.6749
647.4498, 812.5560
647.9319, 809.2021
648.4141, 806.2679
648.8962, 802.9236
649.3783, 799.1081
649.8604, 794.6727
650.3425, 788.5826
650.8246, 783.2519
651.3068, 780.3878
651.7889, 778.4177
652.2710, 775.2603
652.7531, 770.7874
653.2352, 766.4371
653.7173, 763.3758
654.1995, 761.2659
654.6816, 758.6334
655.1637, 755.1931
655.6458, 751.9299
656.1279, 748.9967
656.6100, 746.2938
657.0922, 743.8578
657.5743, 741.6203
658.0564, 739.4001
658.5385, 737.1599
659.0206, 734.8515
659.5027, 732.4196
659.9849, 729.8876
660.4670, 727.1632
660.9491, 724.2161
661.4312, 721.5959
661.9133, 719.8820
662.3954, 718.9890
662.8776, 717.7281
663.3597, 715.6038
663.8418, 713.7678
664.3239, 713.0311
664.8060, 712.0948
665.2881, 709.5325
665.7703, 705.6507
666.2524, 702.1400
666.7345, 700.2289
667.2166, 699.0289
667.6987, 696.7609
668.1808, 693.4604
668.6630, 690.3771
669.1451, 687.7050
669.6272, 685.5964
670.1093, 684.4755
670.5914, 684.2316
671.0735, 683.4752
671.5557, 681.9666
672.0378, 680.2018
672.5199, 678.2626
673.0020, 676.2020
673.4841, 673.8350
673.9662, 671.3107
674.4484, 669.3573
674.9305, 668.6939
675.4126, 668.7576
675.8947, 667.4714
676.3768, 664.3963
676.8589, 661.9811
677.3411, 661.3217
677.8232, 660.7713
678.3053, 658.6179
678.7874, 655.4108
679.2695, 653.2148
679.7516, 653.4123
680.2338, 653.5807
680.7159, 651.8316
681.1980, 649.3102
681.6801, 648.1116
682.1622, 648.4220
682.6443, 648.4086
683.1265, 646.4591
683.6086, 643.0800
684.0907, 640.6768
684.5728, 639.2483
685.0549, 638.8005
685.5370, 641.0300
686.0192, 642.7340
686.5013, 641.4069
686.9834, 637.9886
687.4655, 635.4621
687.9476, 635.5079
688.4297, 635.7545
688.9119, 633.7426
689.3940, 630.3959
689.8761, 627.6639
690.3582, 625.9040
690.8403, 625.3867
691.3224, 626.7134
691.8046, 629.1213
692.2867, 628.8782
692.7688, 623.1389
693.2509, 619.3273
693.7330, 619.4075
694.2151, 619.8558
694.6973, 617.9572
695.1794, 614.7484
695.6615, 613.2442
696.1436, 615.1067
696.6257, 617.7960
697.1078, 618.8434
697.5900, 618.4050
698.0721, 616.4785
698.5542, 612.9088
699.0363, 610.4227
699.5184, 611.3765
700.0005, 614.4475
700.4827, 614.9415
700.9648, 609.9912
701.4469, 607.1317
701.9290, 607.9871
702.4111, 609.5128
702.8932, 610.4518
703.3754, 610.5457
703.8575, 609.3626
704.3396, 606.6301
704.8217, 603.9785
705.3038, 603.6155
705.7859, 605.1147
706.2681, 606.5831
706.7502, 607.9388
707.2323, 608.7321
707.7144, 608.5720
708.1965, 607.8070
708.6786, 607.2057
709.1607, 606.7626
709.6428, 606.4813
710.1249, 606.5613
710.6071, 606.6013
711.0892, 606.1545
711.5713, 605.5779
712.0534, 605.4514
712.5355, 605.9759
713.0176, 606.9761
713.4998, 608.7654
713.9819, 610.9820
714.4640, 611.2300
714.9461, 609.0381
715.4282, 607.8835
715.9103, 609.8363
716.3925, 612.9125
716.8746, 613.8324
717.3567, 612.2803
717.8388, 611.6222
718.3209, 612.8299
718.8030, 614.2292
719.2852, 615.1902
719.7673, 615.7842
720.2494, 616.0074
720.7315, 615.9494
721.2136, 616.0850
721.6957, 616.9647
722.1779, 618.3268
722.6600, 618.9039
723.1421, 618.4501
723.6242, 619.5980
724.1063, 624.0070
724.5884, 628.8360
725.0706, 630.7786
725.5527, 630.0829
726.0348, 629.9418
726.5169, 630.7147
726.9990, 631.8370
727.4811, 633.3613
727.9633, 634.9934
728.4454, 636.3846
728.9275, 637.5369
729.4096, 638.7394
729.8917, 640.2542
730.3738, 641.7717
730.8560, 642.3074
731.3381, 641.8029
731.8202, 642.6124
732.3023, 645.5859
732.7844, 648.7933
733.2665, 650.9867
733.7487, 652.2487
734.2308, 653.0256
734.7129, 653.0468
735.1950, 653.0942
735.6771, 653.2935
736.1592, 653.6049
736.6414, 653.8452
737.1235, 654.1870
737.6056, 655.1870
738.0877, 657.1259
738.5698, 659.1335
739.0519, 659.7448
739.5341, 659.1749
740.0162, 659.5094
740.4983, 661.0284
740.9804, 662.6008
741.4625, 663.7454
741.9446, 664.5505
742.4268, 665.1301
742.9089, 665.4460
743.3910, 665.7532
743.8731, 666.0100
744.3552, 666.3259
744.8373, 666.8969
745.3195, 667.4963
745.8016, 667.5804
746.2837, 667.1552
746.7658, 667.1893
747.2479, 668.8781
747.7300, 671.4914
748.2122, 672.9036
748.6943, 673.0994
749.1764, 673.4390
749.6585, 674.3844
750.1406, 675.3648
750.6227, 675.6248
751.1049, 675.2157
751.5870, 675.8079
752.0691, 678.6735
752.5512, 680.7371
753.0333, 680.9092
753.5154, 680.4995
753.9976, 680.3580
754.4797, 680.6434
754.9618, 681.3201
755.4439, 682.3591
755.9260, 683.8302
756.4081, 686.0751
756.8903, 688.8646
757.3724, 691.1960
757.8545, 692.9392
758.3366, 694.5021
758.8187, 696.2172
759.3008, 697.8018
759.7830, 698.4318
760.2651, 696.9606
760.7472, 697.3050
761.2293, 701.1006
761.7114, 704.7590
762.1935, 706.6053
762.6757, 707.5479
763.1578, 708.8571
763.6399, 710.8238
764.1220, 713.0016
764.6041, 715.2227
765.0862, 717.3766
765.5684, 719.2664
766.0505, 720.9317
766.5326, 722.4348
767.0147, 723.7807
767.4968, 725.3506
767.9789, 727.6755
768.4611, 730.6999
768.9432, 732.7618
769.4253, 733.3919
769.9074, 733.8475
770.3895, 733.5636
770.8716, 733.8239
771.3538, 736.0230
771.8359, 739.5305
772.3180, 742.2430
772.8001, 743.1700
773.2822, 743.8149
773.7643, 745.7307
774.2465, 747.7258
774.7286, 747.5535
775.2107, 745.4850
775.6928, 743.9244
776.1749, 744.2216
776.6570, 745.6526
777.1392, 747.1420
777.6213, 748.9402
778.1034, 748.8151
778.5855, 745.4851
779.0676, 742.7178
779.5497, 743.0594
780.0319, 744.3261
780.5140, 743.5931
780.9961, 740.6606
781.4782, 737.8044
781.9603, 735.9048
782.4424, 733.8710
782.9246, 730.8025
783.4067, 727.2987
783.8888, 724.3555
784.3709, 722.0837
784.8530, 719.7654
785.3351, 716.7990
785.8173, 713.4371
786.2994, 710.3444
786.7815, 707.5318
787.2636, 704.6939
787.7457, 701.8373
788.2278, 698.6951
788.7100, 694.6971
789.1921, 690.3560
789.6742, 687.8760
790.1563, 689.0364
790.6384, 688.6967
791.1205, 685.1583
791.6026, 681.5016
792.0847, 679.8919
792.5668, 679.2031
793.0490, 677.0640
793.5311, 672.8273
794.0132, 668.9133
794.4953, 667.8126
794.9774, 668.0969
795.4595, 667.1925
795.9417, 665.2498
796.4238, 663.6982
796.9059, 663.0424
797.3880, 662.1295
797.8701, 659.4611
798.3522, 655.2268
798.8344, 652.9625
799.3165, 654.1107
799.7986, 654.4141
800.2807, 652.7662
800.7628, 650.4512
801.2449, 647.8581
801.7271, 645.2068
802.2092, 643.0125
802.6913, 641.4139
803.1734, 640.2430
803.6555, 639.6158
804.1376, 639.2570
804.6198, 639.0822
805.1019, 638.9097
805.5840, 638.1932
806.0661, 636.7195
806.5482, 635.2151
807.0303, 635.0473
807.5125, 635.9268
807.9946, 634.5187
808.4767, 630.1512
808.9588, 627.4306
809.4409, 628.6271
809.9230, 630.8771
810.4052, 630.7808
810.8873, 628.3351
811.3694, 627.0890
811.8515, 628.3047
812.3336, 628.9828
812.8157, 627.7447
813.2979, 626.3984
813.7800, 626.5668
814.2621, 627.8887
814.7442, 629.0473
815.2263, 629.4919
815.7084, 629.6133
816.1906, 629.6182
816.6727, 629.6254
817.1548, 629.6967
817.6369, 629.9332
818.1190, 631.1805
818.6011, 633.9187
819.0833, 636.7318
819.5654, 637.3828
820.0475, 635.7524
820.5296, 635.4869
821.0117, 637.6877
821.4938, 638.9425
821.9760, 636.6130
822.4581, 634.5599
822.9402, 636.8311
823.4223, 642.3830
823.9044, 646.2062
824.3865, 646.6120
824.8687, 646.2830
825.3508, 645.6259
825.8329, 645.1954
826.3150, 645.7206
826.7971, 646.9537
827.2792, 648.0411
827.7614, 648.6053
828.2435, 649.2314
828.7256, 650.8651
829.2077, 653.1649
829.6898, 654.6989
830.1719, 655.4244
830.6541, 656.4205
831.1362, 658.1808
831.6183, 659.9807
832.1004, 660.9333
832.5825, 661.0468
833.0646, 661.2858
833.5468, 661.5076
834.0289, 662.0883
834.5110, 663.2293
834.9931, 664.5679
835.4752, 666.0369
835.9573, 667.5131
836.4395, 668.7193
836.9216, 669.5092
837.4037, 670.2883
837.8858, 671.7792
838.3679, 672.9827
838.8500, 672.2493
839.3322, 670.4080
839.8143, 669.7166
840.2964, 670.9131
840.7785, 672.8352
841.2606, 674.5165
841.7427, 675.7516
842.2249, 675.1259
842.7070, 672.4910
843.1891, 671.8541
843.6712, 674.7874
844.1533, 677.9350
844.6354, 678.2811
845.1176, 676.4598
845.5997, 675.5976
846.0818, 676.8469
846.5639, 677.2271
847.0460, 676.1954
847.5281, 674.9142
848.0103, 673.8273
848.4924, 672.8820
848.9745, 671.9041
849.4566, 670.8619
849.9387, 670.0496
850.4208, 670.0219
850.9030, 669.9262
851.3851, 669.0422
851.8672, 667.4954
852.3493, 665.2628
852.8314, 662.5441
853.3135, 660.2845
853.7957, 659.3238
854.2778, 658.9762
854.7599, 657.5778
855.2420, 655.1555
855.7241, 653.2252
856.2062, 652.0121
856.6884, 650.9877
857.1705, 649.9193
857.6526, 648.8075
858.1347, 647.6340
858.6168, 646.3624
859.0989, 645.1876
859.5811, 644.3582
860.0632, 643.2948
860.5453, 641.6593
861.0274, 639.8829
861.5095, 638.2655
861.9916, 636.8538
862.4738, 635.7227
862.9559, 635.1348
863.4380, 634.3560
863.9201, 632.2488
864.4022, 630.1354
864.8843, 630.0955
865.3665, 631.5775
865.8486, 632.3577
866.3307, 631.5134
866.8128, 630.2474
867.2949, 630.2825
867.7770, 631.1519
868.2592, 630.3203
868.7413, 627.7484
869.2234, 626.7299
869.7055, 628.4583
870.1876, 630.7678
870.6697, 631.6003
871.1519, 631.2798
871.6340, 631.6804
872.1161, 633.7060
872.5981, 634.7039
873.0803, 633.1788
873.5624, 632.0845
874.0445, 633.1562
874.5266, 635.1666
875.0087, 636.2523
875.4908, 636.1146
875.9730, 636.2260
876.4551, 637.5427
876.9372, 638.7576
877.4193, 638.6458
877.9014, 638.1760
878.3835, 638.8542
878.8657, 640.6239
879.3478, 642.1861
879.8299, 642.7238
880.3120, 642.9075
880.7941, 643.5811
881.2762, 644.6788
881.7584, 646.0273
882.2405, 647.5990
882.7226, 649.2701
883.2047, 650.9964
883.6868, 652.7044
884.1689, 654.3378
884.6511, 655.8846
885.1332, 656.7636
885.6153, 656.6251
886.0974, 656.7957
886.5795, 657.7755
887.0616, 658.8121
887.5438, 659.1644
888.0259, 659.1319
888.5080, 659.7129
888.9901, 661.4933
889.4722, 662.5152
889.9543, 661.5060
890.4365, 660.7515
890.9186, 661.7297
891.4007, 663.5507
891.8828, 665.0721
892.3649, 666.0724
892.8470, 666.7333
893.3292, 667.0751
893.8113, 667.2333
894.2934, 667.3863
894.7755, 667.4291
895.2576, 667.1779
895.7397, 666.6235
896.2219, 665.6539
896.7040, 664.1879
897.1861, 663.0421
897.6682, 663.8240
898.1503, 666.1988
898.6324, 667.6019
899.1146, 668.0312
899.5967, 667.0783
900.0788, 664.2294
900.5609, 661.3544
901.0430, 660.3550
901.5251, 660.9115
902.0073, 661.0128
902.4894, 660.2489
902.9715, 659.8732
903.4536, 660.5186
903.9357, 660.8835
904.4178, 660.2783
904.9000, 659.1157
905.3821, 657.7534
905.8642, 656.1827
906.3463, 655.3397
906.8284, 656.5312
907.3105, 657.1965
907.7927, 655.4025
908.2748, 653.0379
908.7569, 652.0787
909.2390, 652.4421
909.7211, 653.1278
910.2032, 653.8099
910.6854, 653.9879
911.1675, 652.8812
911.6496, 651.1490
912.1317, 649.9221
912.6138, 649.0667
913.0959, 647.7599
913.5781, 645.8039
914.0602, 644.0712
914.5423, 643.4875
915.0244, 643.5422
915.5065, 642.7093
915.9886, 640.9836
916.4708, 638.5279
916.9529, 635.0340
917.4350, 632.6866
917.9171, 633.0994
918.3992, 634.5662
918.8813, 633.9865
919.3635, 630.9928
919.8456, 628.7962
920.3277, 628.1418
920.8098, 627.0704
921.2919, 624.9582
921.7740, 622.4857
922.2562, 619.6721
922.7383, 616.8971
923.2204, 615.3316
923.7025, 615.5923
924.1846, 615.8069
924.6667, 615.8588
925.1489, 615.3639
925.6310, 613.7606
926.1131, 611.6378
926.5952, 609.7781
927.0773, 608.2858
927.5594, 606.7630
928.0416, 604.9010
928.5237, 603.0807
929.0058, 601.6503
929.4879, 600.4692
929.9700, 599.4872
930.4521, 598.5410
930.9343, 597.0652
931.4164, 594.8476
931.8985, 592.6159
932.3806, 591.2799
932.8627, 590.6009
933.3448, 589.9402
933.8270, 589.2685
934.3091, 588.0441
934.7912, 586.1201
935.2733, 584.4479
935.7554, 583.8037
936.2375, 582.0387
936.7197, 582.3616
937.2018, 579.6879
937.6839, 577.9622
938.1660, 577.3365
938.6481, 577.3291
939.1302, 578.3140
939.6124, 579.1815
940.0945, 578.5452
940.5766, 576.6202
941.0587, 575.4669
941.5408, 575.7724
942.0229, 575.7465
942.5051, 574.5329
942.9872, 573.8102
943.4693, 575.0258
943.9514, 576.8955
944.4335, 577.5809
944.9156, 576.8906
945.3978, 576.1455
945.8799, 575.3371
946.3620, 575.1501
946.8441, 576.4398
947.3262, 578.1472
947.8083, 579.1123
948.2905, 579.5387
948.7726, 580.1455
949.2547, 581.1949
949.7368, 582.9198
950.2189, 586.2909
950.7010, 589.8830
951.1832, 591.8185
951.6653, 592.4122
952.1474, 592.1708
952.6295, 591.4123
953.1116, 591.0399
953.5938, 591.6301
954.0759, 592.9319
954.5580, 594.7557
955.0400, 596.9558
955.5222, 598.5170
956.0043, 599.4496
956.4864, 601.3152
956.9685, 604.7039
957.4506, 608.3754
957.9327, 610.9334
958.4149, 612.9794
958.8970, 617.2501
959.3791, 624.4195
959.8612, 630.3134
960.3433, 633.8763
960.8254, 638.1935
961.3076, 644.7407
961.7897, 652.6735
962.2718, 661.4069
962.7539, 670.9963
963.2360, 677.8783
963.7181, 682.0547
964.2003, 683.4203
964.6824, 681.6604
965.1645, 677.5222
965.6466, 669.6362
966.1287, 660.2960
966.6108, 653.8162
967.0930, 650.9724
967.5751, 646.5234
968.0572, 637.1255
968.5393, 628.7451
969.0214, 623.8417
969.5035, 620.9327
969.9857, 618.8641
970.4678, 617.5506
970.9499, 617.5914
971.4320, 619.4520
971.9141, 620.4716
972.3962, 617.9955
972.8784, 615.0764
973.3605, 614.6954
973.8426, 615.5652
974.3247, 615.2809
974.8068, 613.8459
975.2889, 613.1766
975.7711, 614.3964
976.2532, 616.3528
976.7353, 618.1082
977.2174, 619.5333
977.6995, 620.4443
978.1816, 620.8229
978.6638, 620.4646
979.1459, 619.3981
979.6280, 618.2320
980.1101, 617.3058
980.5922, 617.0866
981.0743, 619.3343
981.5565, 623.3916
982.0386, 624.6799
982.5207, 622.9742
983.0028, 622.4427
983.4849, 624.8085
983.9670, 627.7204
984.4492, 628.4575
984.9313, 630.6213
985.4134, 632.2369
985.8955, 632.6127
986.3776, 634.4819
986.8597, 633.5827
987.3419, 632.7549
987.8240, 633.3557
988.3061, 634.7704
988.7882, 636.2882
989.2703, 637.8972
989.7524, 638.6122
990.2346, 637.7783
990.7167, 637.5012
991.1988, 638.1423
991.6809, 639.2733
992.1630, 641.4284
992.6451, 643.5309
993.1273, 643.3055
993.6094, 640.2961
994.0915, 638.3588
994.5736, 638.0682
995.0557, 638.1237
995.5378, 638.2432
996.0200, 638.6781
996.5021, 640.0429
996.9842, 641.7140
997.4663, 642.3358
997.9484, 641.5597
998.4305, 640.9938
998.9127, 641.3262
999.3948, 641.5789
999.8769, 641.3808
1000.359, 640.8736
1000.841, 639.6578
1001.323, 638.3403
1001.805, 638.5875
1002.287, 641.1165
1002.770, 643.3488
1003.252, 643.7313
1003.734, 643.5906
1004.216, 643.7128
1004.698, 644.0197
1005.180, 644.6459
1005.662, 645.3112
1006.144, 645.0233
1006.627, 643.1973
1007.109, 641.5219
1007.591, 641.3884
1008.073, 642.1568
1008.555, 643.6296
1009.037, 645.2203
1009.519, 645.7142
1010.001, 645.1013
1010.483, 644.4598
1010.966, 644.4086
1011.448, 644.0907
1011.930, 644.4047
1012.412, 644.1517
1012.894, 644.3679
1013.376, 644.8429
1013.858, 644.6770
1014.340, 643.7727
1014.823, 643.0662
1015.305, 643.2003
1015.787, 643.9556
1016.269, 645.5742
1016.751, 647.4759
1017.233, 646.9235
1017.715, 644.2038
1018.197, 642.2377
1018.679, 641.8532
1019.162, 642.1234
1019.644, 642.2620
1020.126, 642.6663
1020.608, 644.8460
1021.090, 645.0110
1021.572, 645.3076
1022.054, 647.0243
1022.536, 645.8280
1023.018, 647.1995
1023.501, 649.1053
1023.983, 649.6692
1024.465, 651.1968
1024.947, 652.4814
1025.429, 653.1770
1025.911, 654.7642
1026.393, 655.0553
1026.875, 655.4967
1027.358, 656.5511
1027.840, 658.0549
1028.322, 659.9902
1028.804, 662.1183
1029.286, 663.3611
1029.768, 663.5159
1030.250, 663.5865
1030.732, 663.4678
1031.214, 663.6357
1031.697, 664.3238
1032.179, 665.2621
1032.661, 666.2039
1033.143, 667.1613
1033.625, 668.1337
1034.107, 668.7448
1034.589, 670.4361
1035.071, 674.1214
1035.553, 677.2481
1036.036, 678.6603
1036.518, 679.4123
1037.000, 680.4936
1037.482, 681.8371
1037.964, 683.0496
1038.446, 683.6942
1038.928, 685.0661
1039.410, 688.0558
1039.893, 690.5460
1040.375, 691.0536
1040.857, 691.3673
1041.339, 693.6653
1041.821, 697.4329
1042.303, 699.7673
1042.785, 699.4248
1043.267, 699.9955
1043.750, 702.5408
1044.232, 704.8743
1044.714, 706.2665
1045.196, 707.0590
1045.678, 707.1338
1046.160, 706.8295
1046.642, 707.5378
1047.124, 709.1932
1047.606, 712.2881
1048.089, 719.2645
1048.571, 724.7691
1049.053, 725.7167
1049.535, 724.9425
1050.017, 724.8173
1050.499, 725.5132
1050.981, 726.9290
1051.463, 729.3675
1051.945, 731.6656
1052.428, 733.9800
1052.910, 735.6365
1053.392, 736.1311
1053.874, 735.9929
1054.356, 735.2667
1054.838, 734.3890
1055.320, 734.7664
1055.802, 737.2457
1056.285, 739.0051
1056.767, 738.3494
1057.249, 737.8670
1057.731, 738.7363
1058.213, 740.4455
1058.695, 742.9290
1059.177, 745.7073
1059.659, 747.5087
1060.141, 747.7748
1060.624, 748.3429
1061.106, 750.7109
1061.588, 752.5000
1062.070, 751.9924
1062.552, 750.7304
1063.034, 749.6882
1063.516, 749.3504
1063.998, 750.8447
1064.480, 754.8049
1064.963, 757.6774
1065.445, 757.0324
1065.927, 756.1967
1066.409, 756.8909
1066.891, 758.2355
1067.373, 759.4407
1067.855, 760.5065
1068.337, 761.7122
1068.820, 763.1334
1069.302, 764.4683
1069.784, 765.3982
1070.266, 766.4461
1070.748, 767.7009
1071.230, 769.3629
1071.712, 772.3560
1072.194, 775.6750
1072.677, 776.9520
1073.159, 775.7296
1073.641, 775.1721
1074.123, 776.9525
1074.605, 779.3563
1075.087, 782.1107
1075.569, 784.5609
1076.051, 785.3610
1076.533, 785.7656
1077.016, 788.4899
1077.498, 793.7985
1077.980, 798.3035
1078.462, 799.5943
1078.944, 801.2402
1079.426, 805.8494
1079.908, 810.6720
1080.390, 813.6990
1080.872, 815.3118
1081.354, 816.0594
1081.837, 816.2126
1082.319, 816.6058
1082.801, 817.5244
1083.283, 818.8026
1083.765, 820.2706
1084.247, 822.1616
1084.729, 824.7655
1085.211, 827.8181
1085.694, 831.1049
1086.176, 834.5023
1086.658, 837.7757
1087.140, 840.9540
1087.622, 843.6887
1088.104, 845.4870
1088.586, 847.2133
1089.068, 850.1074
1089.551, 852.7297
1090.033, 852.0170
1090.515, 849.4568
1090.997, 850.8463
1091.479, 858.7236
1091.961, 866.0510
1092.443, 870.2932
1092.925, 873.1845
1093.407, 874.7686
1093.890, 876.0894
1094.372, 878.0272
1094.854, 880.5317
1095.336, 883.3685
1095.818, 886.5538
1096.300, 889.4095
1096.782, 891.1959
1097.264, 893.3146
1097.746, 896.5011
1098.229, 900.0920
1098.711, 903.7368
1099.193, 907.3204
1099.675, 910.8121
1100.157, 914.2021
1100.639, 917.1974
1101.121, 919.3512
1101.603, 921.6038
1102.086, 923.5914
1102.568, 926.4172
1103.050, 931.4460
1103.532, 937.3227
1104.014, 942.2365
1104.496, 946.0976
1104.978, 949.6014
1105.460, 951.6326
1105.943, 955.3738
1106.425, 963.0464
1106.907, 970.4537
1107.389, 975.6049
1107.871, 979.6910
1108.353, 983.7278
1108.835, 987.8458
1109.317, 992.2722
1109.799, 996.9289
1110.281, 1002.146
1110.764, 1008.505
1111.246, 1014.660
1111.728, 1020.936
1112.210, 1026.247
1112.692, 1028.414
1113.174, 1029.187
1113.656, 1033.442
1114.138, 1042.278
1114.621, 1049.509
1115.103, 1053.991
1115.585, 1058.686
1116.067, 1063.898
1116.549, 1069.683
1117.031, 1076.818
1117.513, 1083.947
1117.995, 1088.400
1118.478, 1090.097
1118.960, 1094.376
1119.442, 1102.300
1119.924, 1110.370
1120.406, 1118.607
1120.888, 1126.357
1121.370, 1133.138
1121.852, 1139.702
1122.334, 1146.945
1122.817, 1154.689
1123.299, 1161.892
1123.781, 1168.341
1124.263, 1175.521
1124.745, 1184.220
1125.227, 1190.525
1125.709, 1192.371
1126.191, 1194.171
1126.673, 1199.463
1127.156, 1207.443
1127.638, 1216.539
1128.120, 1226.771
1128.602, 1235.567
1129.084, 1242.665
1129.566, 1250.347
1130.048, 1258.953
1130.530, 1269.046
1131.013, 1281.106
1131.495, 1293.988
1131.977, 1305.924
1132.459, 1317.188
1132.941, 1329.000
1133.423, 1341.444
1133.905, 1354.598
1134.387, 1368.425
1134.870, 1381.637
1135.352, 1393.727
1135.834, 1406.132
1136.316, 1420.464
1136.798, 1435.373
1137.280, 1448.201
1137.762, 1459.129
1138.244, 1469.099
1138.726, 1477.858
1139.208, 1483.739
1139.691, 1486.547
1140.173, 1487.919
1140.655, 1488.897
1141.137, 1488.913
1141.619, 1487.476
1142.101, 1484.461
1142.583, 1478.747
1143.065, 1471.596
1143.548, 1465.302
1144.030, 1460.405
1144.512, 1457.322
1144.994, 1456.147
1145.476, 1455.681
1145.958, 1454.821
1146.440, 1454.408
1146.922, 1456.045
1147.405, 1458.052
1147.887, 1457.268
1148.369, 1455.508
1148.851, 1457.072
1149.333, 1462.353
1149.815, 1467.753
1150.297, 1471.466
1150.779, 1475.320
1151.261, 1480.590
1151.744, 1486.162
1152.226, 1491.277
1152.708, 1496.179
1153.190, 1500.778
1153.672, 1505.534
1154.154, 1511.660
1154.636, 1519.557
1155.118, 1528.055
1155.600, 1537.453
1156.083, 1546.514
1156.565, 1554.583
1157.047, 1562.453
1157.529, 1570.383
1158.011, 1578.713
1158.493, 1588.218
1158.975, 1598.947
1159.457, 1608.563
1159.940, 1615.899
1160.422, 1623.865
1160.904, 1633.296
1161.386, 1642.332
1161.868, 1649.941
1162.350, 1657.336
1162.832, 1665.498
1163.314, 1674.347
1163.796, 1683.522
1164.279, 1692.791
1164.761, 1703.877
1165.243, 1717.672
1165.725, 1729.906
1166.207, 1739.566
1166.689, 1748.209
1167.171, 1756.417
1167.653, 1765.243
1168.135, 1776.881
1168.618, 1790.155
1169.100, 1797.217
1169.582, 1798.183
1170.064, 1803.692
1170.546, 1814.539
1171.028, 1826.728
1171.510, 1838.944
1171.992, 1849.750
1172.474, 1857.823
1172.957, 1864.774
1173.439, 1873.394
1173.921, 1883.213
1174.403, 1893.232
1174.885, 1903.200
1175.367, 1912.288
1175.849, 1920.540
1176.331, 1928.380
1176.814, 1936.070
1177.296, 1944.463
1177.778, 1954.778
1178.260, 1965.557
1178.742, 1975.217
1179.224, 1984.226
1179.706, 1993.268
1180.188, 2002.203
1180.671, 2010.192
1181.153, 2017.362
1181.635, 2025.177
1182.117, 2034.289
1182.599, 2043.907
1183.081, 2054.324
1183.563, 2064.217
1184.045, 2072.294
1184.527, 2079.841
1185.010, 2088.020
1185.492, 2096.805
1185.974, 2106.017
1186.456, 2115.708
1186.938, 2124.710
1187.420, 2131.317
1187.902, 2139.562
1188.384, 2150.881
1188.866, 2162.968
1189.349, 2175.336
1189.831, 2187.399
1190.313, 2198.093
1190.795, 2207.898
1191.277, 2219.045
1191.759, 2232.227
1192.241, 2243.015
1192.723, 2249.986
1193.206, 2259.786
1193.688, 2274.505
1194.170, 2289.319
1194.652, 2301.482
1195.134, 2311.766
1195.616, 2320.787
1196.098, 2329.215
1196.580, 2340.092
1197.063, 2353.198
1197.545, 2367.528
1198.027, 2382.609
1198.509, 2394.550
1198.991, 2402.639
1199.473, 2412.858
1199.955, 2429.615
1200.437, 2447.756
1200.919, 2460.049
1201.401, 2469.740
1201.884, 2482.375
1202.366, 2496.891
1202.848, 2511.089
1203.330, 2524.997
1203.812, 2539.367
1204.294, 2554.480
1204.776, 2570.708
1205.258, 2589.284
1205.741, 2606.789
1206.223, 2619.739
1206.705, 2632.001
1207.187, 2646.370
1207.669, 2662.009
1208.151, 2677.569
1208.633, 2693.254
1209.115, 2710.801
1209.598, 2731.184
1210.080, 2749.105
1210.562, 2761.419
1211.044, 2774.949
1211.526, 2793.290
1212.008, 2810.218
1212.490, 2820.927
1212.972, 2830.854
1213.454, 2846.575
1213.937, 2866.924
1214.419, 2886.384
1214.901, 2904.970
1215.383, 2922.550
1215.865, 2939.058
1216.347, 2954.976
1216.829, 2970.345
1217.311, 2984.982
1217.793, 2998.616
1218.276, 3012.734
1218.758, 3029.444
1219.240, 3047.872
1219.722, 3065.567
1220.204, 3082.964
1220.686, 3101.489
1221.168, 3121.078
1221.650, 3140.980
1222.133, 3161.072
1222.615, 3181.412
1223.097, 3202.038
1223.579, 3223.023
1224.061, 3244.316
1224.543, 3266.135
1225.025, 3289.142
1225.507, 3312.104
1225.990, 3332.673
1226.472, 3352.275
1226.954, 3374.866
1227.436, 3400.483
1227.918, 3424.251
1228.400, 3442.521
1228.882, 3463.372
1229.364, 3489.791
1229.846, 3517.713
1230.328, 3546.728
1230.811, 3575.524
1231.293, 3602.358
1231.775, 3628.894
1232.257, 3658.044
1232.739, 3689.796
1233.221, 3722.137
1233.703, 3755.048
1234.185, 3789.277
1234.668, 3825.179
1235.150, 3860.887
1235.632, 3895.901
1236.114, 3930.279
1236.596, 3963.983
1237.078, 3997.750
1237.560, 4033.143
1238.042, 4069.776
1238.525, 4106.905
1239.007, 4144.884
1239.489, 4185.333
1239.971, 4228.086
1240.453, 4272.351
1240.935, 4317.802
1241.417, 4363.677
1241.899, 4409.658
1242.381, 4455.761
1242.864, 4501.195
1243.346, 4548.340
1243.828, 4599.563
1244.310, 4653.444
1244.792, 4709.092
1245.274, 4765.525
1245.756, 4820.448
1246.238, 4873.433
1246.720, 4926.491
1247.203, 4977.078
1247.685, 5032.778
1248.167, 5097.521
1248.649, 5162.120
1249.131, 5223.160
1249.613, 5284.125
1250.095, 5347.580
1250.577, 5413.492
1251.059, 5482.611
1251.542, 5554.440
1252.024, 5621.989
1252.506, 5685.533
1252.988, 5750.756
1253.470, 5818.351
1253.952, 5890.903
1254.434, 5968.562
1254.916, 6048.279
1255.399, 6127.414
1255.881, 6205.394
1256.363, 6279.460
1256.845, 6352.983
1257.327, 6429.143
1257.809, 6507.711
1258.291, 6589.260
1258.773, 6672.822
1259.255, 6757.950
1259.738, 6843.949
1260.220, 6929.064
1260.702, 7013.790
1261.184, 7094.484
1261.666, 7161.960
1262.148, 7236.624
1262.630, 7334.613
1263.112, 7434.447
1263.594, 7519.989
1264.077, 7597.985
1264.559, 7675.447
1265.041, 7753.156
1265.523, 7837.821
1266.005, 7931.083
1266.487, 8018.974
1266.969, 8100.459
1267.451, 8184.115
1267.934, 8272.039
1268.416, 8359.428
1268.898, 8444.421
1269.380, 8524.842
1269.862, 8595.826
1270.344, 8665.123
1270.826, 8750.171
1271.308, 8842.596
1271.791, 8927.772
1272.273, 9006.442
1272.755, 9080.876
1273.237, 9153.312
1273.719, 9228.460
1274.201, 9308.256
1274.683, 9390.561
1275.165, 9478.407
1275.647, 9564.084
1276.130, 9645.678
1276.612, 9723.884
1277.094, 9796.690
1277.576, 9868.561
1278.058, 9943.745
1278.540, 10020.75
1279.022, 10094.53
1279.504, 10164.25
1279.986, 10246.11
1280.469, 10342.57
1280.951, 10430.98
1281.433, 10508.66
1281.915, 10580.19
1282.397, 10647.63
1282.879, 10719.70
1283.361, 10803.73
1283.843, 10893.20
1284.326, 10980.47
1284.808, 11064.86
##END=



