##NAMES=Molybdenum
##RRUFFID=R100216
##IDEAL CHEMISTRY=Mo
##LOCALITY=Mining concentrate
##OWNER=RRUFF
##SOURCE=Mike Carducci, Climax Molybdenum Technology Center
##DESCRIPTION=Black unconsolidated powder
##STATUS=The identification of this mineral has been confirmed by X-ray diffraction.
##URL=rruff.info/R100216
166.7798, 0.0000000E+00
167.2620, 0.7212830
167.7441, 0.1201100
168.2262, 1.4786000E-02
168.7083, 0.7502590
169.1904, 1.048378
169.6725, 0.6388470
170.1547, 0.5478440
170.6368, 1.649124
171.1189, 3.525124
171.6010, 4.526894
172.0831, 3.697098
172.5652, 1.617134
173.0474, 0.6539610
173.5295, 1.165390
174.0116, 2.105042
174.4937, 2.934860
174.9758, 3.657349
175.4579, 3.788254
175.9401, 2.448769
176.4222, 0.7171330
176.9043, 0.2242130
177.3864, 6.7970000E-02
177.8685, 0.6783600
178.3506, 1.438034
178.8327, 2.231926
179.3149, 2.996468
179.7970, 3.818108
180.2791, 4.568443
180.7612, 5.160408
181.2433, 5.568741
181.7254, 5.719559
182.2076, 5.355858
182.6897, 4.032814
183.1718, 3.018539
183.6539, 2.574715
184.1360, 2.516846
184.6181, 2.728020
185.1003, 3.168419
185.5824, 3.737648
186.0645, 4.060158
186.5466, 3.697601
187.0287, 3.646599
187.5108, 4.719841
187.9930, 6.054031
188.4751, 6.440125
188.9572, 5.153336
189.4393, 2.569031
189.9214, 0.7922130
190.4035, 0.2572480
190.8857, 4.7286998E-02
191.3678, 0.1499400
191.8499, 0.4607700
192.3320, 0.8906780
192.8141, 1.463860
193.2962, 2.042809
193.7784, 2.080269
194.2605, 0.8541180
194.7426, 2.1095000E-02
195.2247, 0.3827060
195.7068, 1.659111
196.1889, 2.570168
196.6711, 2.283058
197.1532, 1.048706
197.6353, 0.2990570
198.1174, 2.5978001E-02
198.5995, 0.1725310
199.0816, 1.022263
199.5638, 2.441856
200.0459, 3.485260
200.5280, 3.317825
201.0101, 2.453484
201.4922, 2.458275
201.9743, 4.214088
202.4565, 6.018311
202.9386, 6.269875
203.4207, 4.931206
203.9028, 3.461037
204.3849, 2.642815
204.8670, 2.178062
205.3492, 1.578018
205.8313, 0.4782030
206.3134, 0.3362350
206.7955, 0.3032300
207.2776, 2.950371
207.7597, 4.923164
208.2419, 4.049904
208.7240, 2.223228
209.2061, 1.284119
209.6882, 1.978981
210.1703, 3.477592
210.6524, 4.450394
211.1346, 4.911537
211.6167, 4.760071
212.0988, 3.455765
212.5809, 1.834717
213.0630, 0.6716000
213.5451, 0.2868420
214.0273, 0.4874800
214.5094, 0.9022450
214.9915, 1.736572
215.4736, 2.405830
215.9557, 3.021194
216.4378, 3.359924
216.9200, 3.023544
217.4021, 1.806000
217.8842, 0.1963730
218.3663, 0.3717040
218.8484, 1.118034
219.3305, 2.234688
219.8126, 2.654686
220.2948, 2.611877
220.7769, 2.217735
221.2590, 1.521866
221.7411, 0.7687450
222.2232, 0.7031860
222.7053, 2.699776
223.1875, 3.721107
223.6696, 2.700645
224.1517, 0.9332200
224.6338, 6.3304998E-02
225.1159, 0.3467600
225.5980, 1.757740
226.0802, 3.009911
226.5623, 4.693260
227.0444, 5.494648
227.5265, 4.610722
228.0086, 2.984272
228.4907, 1.872700
228.9729, 1.819462
229.4550, 2.378391
229.9371, 2.376083
230.4192, 1.161846
230.9013, 0.4302220
231.3834, 0.8893740
231.8656, 1.892323
232.3477, 2.382130
232.8298, 1.884972
233.3119, 0.9873430
233.7940, 1.114426
234.2761, 2.802605
234.7583, 3.967422
235.2404, 3.770672
235.7225, 2.789764
236.2046, 1.959190
236.6867, 1.561642
237.1688, 1.479305
237.6510, 1.586597
238.1331, 1.926147
238.6152, 2.167168
239.0973, 2.169647
239.5794, 1.996994
240.0615, 1.768272
240.5436, 1.490429
241.0258, 1.213326
241.5079, 0.8673130
241.9900, 0.4158360
242.4721, 0.4243240
242.9542, 1.871788
243.4363, 3.979683
243.9185, 4.536537
244.4006, 2.400909
244.8827, 0.2039680
245.3648, 0.8786960
245.8469, 0.1157490
246.3290, 1.126648
246.8112, 1.130127
247.2933, 0.4945410
247.7754, 0.4111600
248.2575, 1.290199
248.7396, 2.302101
249.2217, 2.845631
249.7039, 2.997616
250.1860, 2.975384
250.6681, 2.787807
251.1502, 2.500267
251.6323, 2.333977
252.1144, 2.248775
252.5966, 2.390530
253.0787, 3.239017
253.5608, 4.381649
254.0429, 4.822140
254.5250, 3.441891
255.0071, 0.9003260
255.4893, 0.1268270
255.9714, 1.213013
256.4535, 2.782646
256.9356, 3.777718
257.4177, 4.296703
257.8998, 4.483150
258.3820, 4.355553
258.8641, 3.975754
259.3462, 3.492344
259.8283, 2.566830
260.3104, 2.143917
260.7925, 2.996876
261.2747, 4.382286
261.7568, 5.038139
262.2389, 4.113243
262.7210, 2.418201
263.2031, 2.269707
263.6852, 5.047794
264.1674, 7.002281
264.6495, 6.709167
265.1316, 5.522892
265.6137, 4.892899
266.0958, 5.453560
266.5779, 6.772629
267.0601, 7.868576
267.5422, 8.736713
268.0243, 9.343727
268.5064, 9.723965
268.9885, 9.883396
269.4706, 9.768108
269.9528, 9.279251
270.4349, 8.664730
270.9170, 8.418064
271.3991, 8.823246
271.8812, 9.047630
272.3633, 9.142944
272.8454, 9.004776
273.3275, 8.378510
273.8097, 7.273849
274.2918, 6.137749
274.7739, 5.729671
275.2560, 6.657433
275.7381, 7.011589
276.2202, 6.279114
276.7024, 5.483391
277.1845, 5.342621
277.6666, 5.889797
278.1487, 6.551041
278.6308, 6.614265
279.1129, 5.877708
279.5951, 5.221928
280.0772, 4.348892
280.5593, 3.781639
281.0414, 4.104996
281.5235, 5.114326
282.0056, 5.937572
282.4878, 5.632839
282.9699, 3.920818
283.4520, 3.160572
283.9341, 4.219730
284.4162, 5.240044
284.8983, 5.456066
285.3805, 4.984993
285.8626, 4.315098
286.3447, 3.801853
286.8268, 3.445824
287.3089, 3.154469
287.7910, 3.074745
288.2732, 2.899803
288.7553, 2.492985
289.2374, 1.929485
289.7195, 1.338146
290.2016, 0.7847210
290.6837, 0.2905080
291.1659, 2.6768001E-02
291.6480, 0.2819020
292.1301, 0.2272260
292.6122, 0.4010960
293.0943, 1.310551
293.5764, 2.139507
294.0586, 2.730503
294.5407, 3.082726
295.0228, 3.193535
295.5049, 2.786133
295.9870, 2.464203
296.4691, 2.357723
296.9513, 2.299953
297.4334, 2.032715
297.9155, 1.487213
298.3976, 0.9430770
298.8797, 0.9112430
299.3618, 2.042412
299.8440, 2.422722
300.3261, 1.417503
300.8082, 7.5142004E-02
301.2903, 0.8824310
301.7724, 1.273716
302.2545, 1.165886
302.7367, 0.5746270
303.2188, 0.6962970
303.7009, 1.608269
304.1830, 1.952126
304.6651, 2.060497
305.1472, 1.980717
305.6294, 1.807358
306.1115, 1.837273
306.5936, 2.381668
307.0757, 3.488552
307.5578, 4.147461
308.0399, 4.404747
308.5221, 4.269356
309.0042, 3.477703
309.4863, 2.266693
309.9684, 1.138088
310.4505, 0.3540950
310.9326, 2.9995000E-02
311.4148, 0.4658510
311.8969, 3.005791
312.3790, 4.947891
312.8611, 5.415131
313.3432, 4.907909
313.8253, 4.221931
314.3074, 3.684494
314.7896, 3.273766
315.2717, 2.930977
315.7538, 2.470013
316.2359, 2.352150
316.7180, 3.298611
317.2001, 4.307434
317.6823, 3.834145
318.1644, 1.498833
318.6465, 1.022186
319.1286, 1.112026
319.6107, 2.801929
320.0928, 5.495354
320.5750, 6.460278
321.0571, 6.610405
321.5392, 6.555378
322.0213, 6.401348
322.5034, 5.958267
322.9855, 4.920860
323.4677, 3.078194
323.9498, 2.329456
324.4319, 4.030487
324.9140, 5.394886
325.3961, 4.609566
325.8782, 2.193516
326.3604, 3.5912000E-02
326.8425, 0.7893600
327.3246, 0.2620620
327.8067, 0.1943970
328.2888, 0.4167210
328.7709, 0.7692260
329.2531, 1.475780
329.7352, 2.350609
330.2173, 3.150913
330.6994, 3.774769
331.1815, 4.151920
331.6636, 4.085945
332.1458, 2.833916
332.6279, 2.046360
333.1100, 1.876640
333.5921, 2.143646
334.0742, 2.927700
334.5563, 4.172600
335.0385, 5.263763
335.5206, 5.199986
336.0027, 3.106014
336.4848, 2.141861
336.9669, 3.164307
337.4490, 4.504513
337.9312, 5.214203
338.4133, 5.180595
338.8954, 4.632870
339.3775, 3.687012
339.8596, 2.249447
340.3417, 1.590481
340.8239, 2.360226
341.3060, 3.120094
341.7881, 3.277584
342.2702, 3.039131
342.7523, 2.947460
343.2344, 3.368336
343.7166, 4.120758
344.1987, 4.316902
344.6808, 3.240726
345.1629, 2.392204
345.6450, 1.853008
346.1271, 1.634243
346.6093, 1.796631
347.0914, 2.347862
347.5735, 3.139133
348.0556, 3.892574
348.5377, 4.634686
349.0198, 5.278255
349.5020, 6.085464
349.9841, 6.628872
350.4662, 6.384220
350.9483, 5.420490
351.4304, 4.462120
351.9125, 4.395714
352.3947, 5.465843
352.8768, 5.792622
353.3589, 4.389301
353.8410, 3.228462
354.3231, 3.257038
354.8052, 4.068989
355.2873, 4.681114
355.7694, 4.371422
356.2516, 3.371384
356.7337, 3.010994
357.2158, 3.739704
357.6979, 4.548607
358.1800, 5.462406
358.6621, 6.265575
359.1443, 6.696953
359.6264, 6.713287
360.1085, 6.376839
360.5906, 5.583046
361.0727, 3.751312
361.5548, 2.998077
362.0370, 4.642105
362.5191, 6.518181
363.0012, 7.257088
363.4833, 6.777756
363.9654, 5.912655
364.4475, 5.369011
364.9297, 5.140663
365.4118, 5.375740
365.8939, 6.841179
366.3760, 8.083279
366.8581, 8.234882
367.3402, 7.559891
367.8224, 6.768200
368.3045, 6.348408
368.7866, 6.138477
369.2687, 5.537182
369.7508, 4.194740
370.2329, 3.245647
370.7151, 3.305912
371.1972, 3.791950
371.6793, 4.131924
372.1614, 4.146641
372.6435, 4.135231
373.1256, 4.576294
373.6078, 5.523510
374.0899, 6.144772
374.5720, 6.190430
375.0541, 5.889004
375.5362, 5.260052
376.0183, 4.365948
376.5005, 3.576820
376.9826, 3.384853
377.4647, 3.685707
377.9468, 3.682453
378.4289, 3.174152
378.9110, 2.713825
379.3932, 2.971657
379.8753, 3.523273
380.3574, 3.474689
380.8395, 2.026661
381.3216, 0.3372840
381.8037, 9.5798001E-02
382.2859, 1.338596
382.7680, 2.150105
383.2501, 1.294228
383.7322, 0.2097630
384.2143, 0.7083700
384.6964, 3.4409999E-03
385.1786, 1.006157
385.6607, 1.906708
386.1428, 2.633110
386.6249, 3.036240
387.1070, 3.069473
387.5891, 2.797153
388.0713, 1.978642
388.5534, 0.6806910
389.0355, 9.6534997E-02
389.5176, 1.092602
389.9997, 2.525658
390.4818, 3.259434
390.9640, 3.251213
391.4461, 3.030785
391.9282, 2.963562
392.4103, 2.970291
392.8924, 2.664478
393.3745, 1.508251
393.8567, 0.6513560
394.3387, 0.8033600
394.8209, 1.544250
395.3030, 2.051273
395.7851, 2.010765
396.2672, 1.677593
396.7493, 1.483879
397.2314, 1.437550
397.7136, 1.535362
398.1957, 1.826450
398.6778, 2.228897
399.1599, 2.831646
399.6420, 3.555683
400.1241, 4.002647
400.6063, 3.776028
401.0884, 2.849674
401.5705, 2.103657
402.0526, 1.560055
402.5347, 1.144390
403.0168, 0.8280260
403.4990, 0.6240390
403.9811, 0.5744480
404.4632, 0.7000500
404.9453, 0.9567530
405.4274, 1.199047
405.9095, 1.002743
406.3917, 1.567059
406.8738, 4.215660
407.3559, 6.626339
407.8380, 6.811653
408.3201, 4.774860
408.8022, 2.218349
409.2844, 0.7436180
409.7665, 0.3983380
410.2486, 0.5375900
410.7307, 1.586838
411.2128, 2.688503
411.6949, 3.874584
412.1771, 4.885975
412.6592, 5.289349
413.1413, 4.801636
413.6234, 3.831074
414.1055, 3.278324
414.5876, 3.298222
415.0698, 3.255718
415.5519, 2.795696
416.0340, 2.366211
416.5161, 2.433540
416.9982, 3.002850
417.4803, 3.403618
417.9625, 2.835968
418.4446, 1.491108
418.9267, 0.6751520
419.4088, 0.5517920
419.8909, 0.8516460
420.3730, 1.735519
420.8552, 2.870750
421.3373, 3.572231
421.8194, 3.676472
422.3015, 3.195316
422.7836, 1.712444
423.2657, 0.7467920
423.7479, 2.416904
424.2300, 2.388470
424.7121, 1.338032
425.1942, 0.2780150
425.6763, 0.8858530
426.1584, 1.601284
426.6406, 1.274357
427.1227, 0.4464530
427.6048, 1.3607000E-02
428.0869, 3.3413000E-02
428.5690, 0.4890860
429.0511, 1.465240
429.5333, 2.927181
430.0154, 3.683109
430.4975, 3.284836
430.9796, 2.601505
431.4617, 1.848007
431.9438, 1.187981
432.4260, 1.011875
432.9081, 1.529293
433.3902, 2.529705
433.8723, 3.561626
434.3544, 5.063438
434.8365, 5.821102
435.3186, 5.325127
435.8008, 4.382008
436.2829, 3.523174
436.7650, 2.878956
437.2471, 2.460449
437.7292, 2.289265
438.2113, 2.380737
438.6935, 2.654488
439.1756, 3.208572
439.6577, 3.539509
440.1398, 3.585232
440.6219, 3.391468
441.1040, 2.900986
441.5862, 2.082714
442.0683, 1.278740
442.5504, 1.314831
443.0325, 2.521584
443.5146, 3.565956
443.9967, 4.323940
444.4789, 4.739891
444.9610, 4.707245
445.4431, 4.275280
445.9252, 3.596592
446.4073, 2.595562
446.8894, 1.460945
447.3716, 1.001953
447.8537, 1.448002
448.3358, 1.994205
448.8179, 2.370918
449.3000, 2.625484
449.7821, 2.765163
450.2643, 2.762306
450.7464, 2.789371
451.2285, 2.958107
451.7106, 3.271244
452.1927, 3.888802
452.6748, 5.134247
453.1570, 6.079063
453.6391, 5.313763
454.1212, 3.249329
454.6033, 1.765537
455.0854, 1.682796
455.5675, 2.079670
456.0497, 2.125046
456.5318, 1.867306
457.0139, 1.796780
457.4960, 2.254265
457.9781, 2.945854
458.4602, 3.005981
458.9424, 2.045635
459.4245, 1.379292
459.9066, 1.202301
460.3887, 1.449196
460.8708, 2.294094
461.3529, 3.645786
461.8351, 4.838470
462.3172, 5.213036
462.7993, 4.791073
463.2814, 4.584866
463.7635, 4.675716
464.2456, 4.729523
464.7278, 4.497646
465.2099, 4.216087
465.6920, 4.329376
466.1741, 4.993881
466.6562, 5.741409
467.1383, 5.740448
467.6205, 4.750904
468.1026, 3.765697
468.5847, 2.301815
469.0668, 1.323792
469.5489, 1.792660
470.0310, 3.217724
470.5132, 4.120705
470.9953, 3.433186
471.4774, 1.895618
471.9595, 1.319256
472.4416, 1.949890
472.9237, 2.634480
473.4059, 2.912067
473.8880, 3.086880
474.3701, 3.486687
474.8522, 4.155704
475.3343, 4.733459
475.8164, 5.156475
476.2985, 5.299267
476.7806, 4.601810
477.2628, 2.806049
477.7449, 1.253483
478.2270, 1.148430
478.7091, 2.167248
479.1912, 2.825760
479.6733, 2.838589
480.1555, 2.725941
480.6376, 2.565781
481.1197, 2.421989
481.6018, 2.595428
482.0839, 3.338955
482.5660, 4.199078
483.0482, 4.411915
483.5303, 3.635616
484.0124, 3.195923
484.4945, 3.540886
484.9766, 3.777565
485.4587, 3.174255
485.9409, 2.077942
486.4230, 1.377708
486.9051, 1.591400
487.3872, 2.417816
487.8693, 3.027988
488.3514, 3.541576
488.8336, 3.586685
489.3157, 2.601177
489.7978, 1.640121
490.2799, 1.550674
490.7620, 2.244175
491.2441, 2.946037
491.7263, 3.014355
492.2084, 2.578575
492.6905, 2.240871
493.1726, 1.984573
493.6547, 1.869770
494.1368, 2.344887
494.6190, 2.769447
495.1011, 2.180267
495.5832, 0.2293400
496.0653, 1.280113
496.5474, 0.5001750
497.0295, 1.825546
497.5117, 3.514225
497.9938, 4.263153
498.4759, 4.290222
498.9580, 3.505772
499.4401, 2.063263
499.9222, 0.8588490
500.4044, 0.5156330
500.8865, 1.171597
501.3686, 2.2327000E-02
501.8507, 2.092796
502.3328, 3.404976
502.8149, 3.294827
503.2971, 2.509441
503.7792, 2.066589
504.2613, 2.019623
504.7434, 2.165440
505.2255, 2.872967
505.7076, 3.391254
506.1898, 3.238716
506.6719, 2.631733
507.1540, 1.968571
507.6361, 1.439659
508.1182, 1.162579
508.6003, 1.545841
509.0825, 3.083359
509.5646, 3.953087
510.0467, 3.534916
510.5288, 2.785042
511.0109, 2.051975
511.4930, 1.419109
511.9752, 0.9591410
512.4573, 0.6751210
512.9394, 0.6214290
513.4215, 1.009182
513.9036, 1.918201
514.3857, 2.789021
514.8679, 3.561577
515.3500, 4.060661
515.8321, 4.008610
516.3142, 3.333824
516.7963, 2.721146
517.2784, 2.504421
517.7606, 2.500874
518.2427, 2.591068
518.7248, 2.742992
519.2069, 2.457821
519.6890, 1.185535
520.1711, 0.6708070
520.6533, 1.013218
521.1354, 1.707348
521.6175, 3.628910
522.0996, 3.717503
522.5817, 2.943329
523.0638, 1.976707
523.5460, 1.113579
524.0281, 0.8084980
524.5102, 1.864719
524.9923, 4.220760
525.4744, 5.051964
525.9565, 3.005047
526.4387, 1.121395
526.9208, 0.4633870
527.4029, 1.337055
527.8850, 0.6129340
528.3671, 1.758942
528.8492, 4.023705
529.3314, 4.073307
529.8135, 2.209000
530.2956, 1.246181
530.7777, 1.640717
531.2598, 2.318523
531.7419, 2.832748
532.2241, 3.131836
532.7062, 3.059978
533.1883, 2.374283
533.6704, 1.748035
534.1525, 1.557011
534.6346, 1.774109
535.1168, 2.609310
535.5989, 4.198662
536.0810, 5.352505
536.5631, 4.602135
537.0452, 1.825054
537.5273, 0.4187660
538.0094, 1.291111
538.4915, 2.381561
538.9736, 3.153484
539.4557, 3.592236
539.9379, 3.648808
540.4200, 3.334682
540.9021, 2.912735
541.3842, 2.781384
541.8663, 3.034195
542.3484, 3.041595
542.8306, 2.254646
543.3127, 1.826977
543.7948, 2.610687
544.2769, 3.838940
544.7590, 4.178894
545.2411, 3.026363
545.7233, 1.713139
546.2054, 2.291859
546.6875, 4.578438
547.1696, 5.663364
547.6517, 4.600037
548.1339, 3.224514
548.6160, 3.218914
549.0981, 4.148502
549.5802, 4.846436
550.0623, 4.940144
550.5444, 4.911606
551.0266, 5.111404
551.5087, 5.419720
551.9908, 5.602322
552.4729, 5.592823
552.9550, 5.312420
553.4371, 4.567005
553.9193, 3.107353
554.4014, 2.309612
554.8835, 2.553020
555.3656, 2.898266
555.8477, 2.971943
556.3298, 2.957676
556.8120, 3.278416
557.2941, 4.063263
557.7762, 4.780228
558.2583, 4.398754
558.7404, 2.692169
559.2225, 2.051414
559.7047, 3.440704
560.1868, 4.582138
560.6689, 4.072338
561.1510, 2.722721
561.6331, 1.933792
562.1152, 2.252331
562.5974, 2.937519
563.0795, 3.404972
563.5616, 3.683159
564.0437, 3.671383
564.5258, 3.262871
565.0079, 2.988026
565.4901, 3.501701
565.9722, 4.729912
566.4543, 5.236443
566.9364, 4.371269
567.4185, 3.535015
567.9006, 3.332664
568.3828, 3.457100
568.8649, 3.444363
569.3470, 3.179798
569.8291, 2.886024
570.3112, 2.828743
570.7933, 3.025486
571.2755, 3.194321
571.7576, 3.437744
572.2397, 3.510635
572.7218, 3.137772
573.2039, 2.677052
573.6860, 2.687870
574.1682, 3.285027
574.6503, 3.667072
575.1324, 2.601059
575.6145, 0.5814630
576.0966, 2.3212001E-02
576.5787, 1.218758
577.0609, 2.763218
577.5430, 3.902309
578.0251, 4.541702
578.5072, 4.740768
578.9893, 4.675579
579.4714, 4.034885
579.9536, 1.906155
580.4357, 0.4183430
580.9178, 1.102352
581.3999, 0.1008000
581.8820, 1.079700
582.3641, 1.256447
582.8463, 0.6199840
583.3284, 0.3346370
583.8105, 0.9312630
584.2926, 1.096996
584.7747, 0.1512680
585.2568, 0.8825950
585.7390, 1.042603
586.2211, 0.3557010
586.7032, 0.4615670
587.1853, 1.019672
587.6674, 1.313068
588.1495, 1.134483
588.6317, 0.3259240
589.1138, 0.1131170
589.5959, 1.236881
590.0780, 2.807377
590.5601, 3.946747
591.0422, 4.663250
591.5244, 4.662899
592.0065, 2.914787
592.4886, 1.151329
592.9707, 1.361301
593.4528, 3.001488
593.9349, 3.985367
594.4171, 3.345234
594.8992, 1.977104
595.3813, 1.471123
595.8634, 2.282387
596.3455, 2.686237
596.8276, 2.297813
597.3098, 1.956966
597.7919, 2.230305
598.2740, 2.737564
598.7561, 2.687515
599.2382, 1.728664
599.7203, 0.6751710
600.2025, 0.8038670
600.6846, 2.072231
601.1667, 2.858070
601.6488, 2.935463
602.1309, 2.652149
602.6130, 1.838657
603.0952, 0.8862300
603.5773, 0.6921840
604.0594, 1.754875
604.5415, 2.865196
605.0236, 3.438084
605.5057, 3.658775
605.9879, 3.863087
606.4700, 4.081688
606.9521, 3.967701
607.4342, 3.149109
607.9163, 1.773930
608.3984, 0.9940870
608.8806, 0.9642560
609.3627, 1.250740
609.8448, 2.337181
610.3269, 3.391026
610.8090, 3.729843
611.2911, 3.371193
611.7733, 2.770405
612.2554, 2.130287
612.7375, 1.560925
613.2196, 1.399555
613.7017, 1.696598
614.1838, 1.853207
614.6660, 1.643257
615.1481, 1.276474
615.6302, 0.9126130
616.1123, 0.5568470
616.5944, 0.4560170
617.0765, 1.015041
617.5587, 1.508732
618.0408, 1.354984
618.5229, 0.7719350
619.0050, 0.1487730
619.4871, 0.3657950
619.9692, 0.5314600
620.4513, 3.8722999E-02
620.9334, 1.468178
621.4155, 2.724606
621.8976, 4.391815
622.3798, 5.137512
622.8619, 3.817703
623.3440, 1.807076
623.8261, 0.6840820
624.3082, 0.8203200
624.7903, 1.423729
625.2725, 2.091732
625.7546, 2.686256
626.2367, 2.749176
626.7188, 2.222107
627.2009, 1.542412
627.6830, 0.7821010
628.1652, 0.1316910
628.6473, 5.7911001E-02
629.1294, 0.5984340
629.6115, 1.434990
630.0936, 3.232014
630.5757, 4.706146
631.0579, 4.715218
631.5400, 3.595753
632.0221, 2.383286
632.5042, 1.589771
632.9863, 1.167690
633.4684, 1.095394
633.9506, 1.455315
634.4327, 1.749146
634.9148, 2.050877
635.3969, 2.104050
635.8790, 1.540993
636.3611, 0.7326280
636.8433, 0.3839450
637.3254, 0.8236620
637.8075, 1.249203
638.2896, 0.8677410
638.7717, 7.2430000E-02
639.2538, 0.3065260
639.7360, 0.2090300
640.2181, 0.2719840
640.7002, 1.169582
641.1823, 2.317291
641.6644, 3.034126
642.1465, 2.674728
642.6287, 2.758755
643.1108, 4.039837
643.5929, 5.090961
644.0750, 4.820503
644.5571, 3.526318
645.0392, 2.235771
645.5214, 1.496643
646.0035, 1.173573
646.4856, 1.093792
646.9677, 1.257874
647.4498, 1.558762
647.9319, 2.094173
648.4141, 2.500751
648.8962, 2.316147
649.3783, 1.731045
649.8604, 1.468048
650.3425, 1.567554
650.8246, 2.016457
651.3068, 3.384895
651.7889, 4.799557
652.2710, 4.874462
652.7531, 3.648510
653.2352, 2.614021
653.7173, 3.042099
654.1995, 4.417526
654.6816, 4.385880
655.1637, 1.907063
655.6458, 0.5150950
656.1279, 1.948647
656.6100, 3.645863
657.0922, 4.096535
657.5743, 3.543060
658.0564, 3.075012
658.5385, 3.278534
659.0206, 3.493488
659.5027, 2.815975
659.9849, 1.669655
660.4670, 1.308014
660.9491, 1.854855
661.4312, 2.772213
661.9133, 3.560253
662.3954, 4.208412
662.8776, 4.551785
663.3597, 4.759712
663.8418, 4.421322
664.3239, 2.976906
664.8060, 1.357887
665.2881, 9.8449998E-02
665.7703, 0.6355780
666.2524, 0.6307110
666.7345, 0.4847410
667.2166, 2.057121
667.6987, 2.938530
668.1808, 3.138348
668.6630, 2.927990
669.1451, 2.222775
669.6272, 1.469906
670.1093, 1.065594
670.5914, 1.012283
671.0735, 1.160118
671.5557, 1.977238
672.0378, 2.418465
672.5199, 1.453873
673.0020, 0.3438840
673.4841, 0.7810360
673.9662, 2.718658
674.4484, 4.607933
674.9305, 5.297741
675.4126, 4.983566
675.8947, 4.135178
676.3768, 2.500217
676.8589, 1.457253
677.3411, 1.466362
677.8232, 2.005154
678.3053, 3.007256
678.7874, 4.220139
679.2695, 4.499367
679.7516, 2.691231
680.2338, 1.019096
680.7159, 0.9813310
681.1980, 1.866962
681.6801, 2.727932
682.1622, 3.285160
682.6443, 3.296169
683.1265, 2.432625
683.6086, 0.9849620
684.0907, 0.4091420
684.5728, 1.146587
685.0549, 1.790913
685.5370, 2.304928
686.0192, 2.537624
686.5013, 2.289810
686.9834, 1.722786
687.4655, 1.070412
687.9476, 0.3214720
688.4297, 0.1836660
688.9119, 8.4137000E-02
689.3940, 0.7770420
689.8761, 1.019413
690.3582, 0.6683080
690.8403, 0.2888760
691.3224, 0.3638920
691.8046, 0.7784230
692.2867, 1.089035
692.7688, 1.238712
693.2509, 1.417332
693.7330, 1.704330
694.2151, 1.952797
694.6973, 2.137283
695.1794, 2.207851
695.6615, 2.039078
696.1436, 1.542713
696.6257, 0.9605220
697.1078, 0.4526900
697.5900, 0.1300770
698.0721, 0.5446890
698.5542, 1.836792
699.0363, 2.706890
699.5184, 2.114246
700.0005, 0.5459330
700.4827, 0.2831420
700.9648, 9.6386001E-02
701.4469, 0.4793430
701.9290, 0.9860310
702.4111, 1.365192
702.8932, 1.399651
703.3753, 1.254425
703.8574, 1.100697
704.3395, 1.043732
704.8217, 0.9971390
705.3038, 0.7084730
705.7859, 0.2876320
706.2680, 0.3759460
706.7501, 1.113659
707.2322, 1.686527
707.7144, 1.502533
708.1965, 0.9859160
708.6786, 1.224945
709.1607, 2.740700
709.6428, 3.446541
710.1249, 2.529251
710.6071, 1.444187
711.0892, 0.9873770
711.5713, 0.9477010
712.0534, 0.8644680
712.5355, 0.5840380
713.0176, 0.3227540
713.4998, 0.2774120
713.9819, 0.4520300
714.4640, 0.9552150
714.9461, 1.858589
715.4282, 2.666378
715.9103, 3.363064
716.3925, 3.631855
716.8746, 2.546047
717.3567, 0.2178690
717.8388, 1.399807
718.3209, 0.9677770
718.8030, 3.153076
719.2852, 3.061630
719.7673, 1.853088
720.2494, 1.176888
720.7315, 1.396103
721.2136, 1.762566
721.6957, 1.548565
722.1779, 0.9578970
722.6600, 0.7665440
723.1421, 1.027390
723.6242, 1.164494
724.1063, 0.9963570
724.5884, 0.8197400
725.0706, 0.8024220
725.5527, 0.9594610
726.0348, 1.476841
726.5169, 2.904034
726.9990, 4.032120
727.4811, 4.338047
727.9633, 4.219547
728.4454, 4.057110
728.9275, 3.907631
729.4096, 3.638485
729.8917, 3.117336
730.3738, 2.531799
730.8560, 2.280739
731.3381, 2.370510
731.8202, 2.694134
732.3023, 3.464695
732.7844, 3.900803
733.2665, 3.266994
733.7487, 1.831554
734.2308, 0.6245160
734.7129, 0.6703030
735.1950, 1.138508
735.6771, 0.1372070
736.1592, 1.690079
736.6414, 2.566338
737.1235, 2.722080
737.6056, 2.206783
738.0877, 1.017773
738.5698, 0.1453700
739.0519, 0.2343440
739.5341, 0.6407780
740.0162, 1.560993
740.4983, 2.538406
740.9804, 3.292774
741.4625, 3.739174
741.9446, 3.831783
742.4268, 3.398144
742.9089, 2.337509
743.3910, 1.337013
743.8731, 1.2035000E-02
744.3552, 0.7657510
744.8373, 0.2099420
745.3195, 0.9913670
745.8016, 2.028034
746.2837, 2.619244
746.7658, 2.720947
747.2479, 2.094490
747.7300, 0.9983290
748.2122, 6.1070002E-03
748.6943, 0.8888360
749.1764, 1.172428
749.6585, 0.5619510
750.1406, 0.3464970
750.6227, 0.9950450
751.1049, 1.384251
751.5870, 1.717289
752.0691, 2.338226
752.5512, 2.447701
753.0333, 0.9702570
753.5154, 0.3428000
753.9976, 0.4025000
754.4797, 2.682716
754.9618, 4.426186
755.4439, 4.506409
755.9260, 3.874290
756.4081, 3.830555
756.8903, 4.154518
757.3724, 3.768581
757.8545, 2.490372
758.3366, 1.448414
758.8187, 1.532764
759.3008, 2.170162
759.7830, 1.909927
760.2651, 4.0509999E-03
760.7472, 1.019115
761.2293, 0.5553050
761.7114, 9.5856003E-02
762.1935, 0.5083960
762.6757, 0.7498930
763.1578, 0.9382670
763.6399, 1.103062
764.1220, 1.260555
764.6041, 1.359730
765.0862, 1.494129
765.5684, 1.972919
766.0505, 2.664955
766.5326, 2.738152
767.0147, 1.880825
767.4968, 1.216850
767.9789, 2.202652
768.4611, 4.708611
768.9432, 5.449272
769.4253, 3.121681
769.9074, 1.250515
770.3895, 0.3133390
770.8716, 2.6394000E-02
771.3538, 0.6209110
771.8359, 1.744453
772.3180, 2.341644
772.8001, 1.820507
773.2822, 1.227604
773.7643, 1.534473
774.2465, 2.080849
774.7286, 1.688187
775.2107, 0.4376950
775.6928, 0.6241610
776.1749, 0.7260820
776.6570, 0.2057110
777.1392, 0.5323830
777.6213, 1.529091
778.1034, 2.454197
778.5855, 3.259853
779.0676, 4.093323
779.5497, 5.322685
780.0319, 6.422932
780.5140, 6.596561
780.9961, 5.766247
781.4782, 5.036819
781.9603, 5.115944
782.4424, 4.897991
782.9246, 3.005833
783.4067, 0.7359500
783.8888, 0.3222240
784.3709, 1.921879
784.8530, 3.535244
785.3351, 3.502659
785.8172, 2.488861
786.2993, 2.089569
786.7814, 2.306862
787.2635, 2.724243
787.7457, 3.312588
788.2278, 3.967224
788.7099, 4.749928
789.1920, 5.502239
789.6741, 5.532986
790.1563, 4.089657
790.6384, 3.342983
791.1205, 4.016834
791.6026, 4.801853
792.0847, 4.787235
792.5668, 4.394657
793.0490, 4.618053
793.5311, 5.825748
794.0132, 6.953861
794.4953, 7.157433
794.9774, 6.757862
795.4595, 6.132324
795.9417, 5.373596
796.4238, 4.892166
796.9059, 4.828594
797.3880, 5.225357
797.8701, 6.191639
798.3522, 7.661613
798.8344, 8.436787
799.3165, 7.943874
799.7986, 7.863155
800.2807, 9.039726
800.7628, 10.17785
801.2449, 10.35124
801.7271, 9.870186
802.2092, 9.626976
802.6913, 10.07544
803.1734, 10.42895
803.6555, 10.02476
804.1376, 9.491650
804.6198, 9.464161
805.1019, 9.927963
805.5840, 10.77383
806.0661, 11.93529
806.5482, 12.94873
807.0303, 13.17896
807.5125, 12.78068
807.9946, 12.75169
808.4767, 13.13288
808.9588, 13.49324
809.4409, 13.87903
809.9230, 13.85685
810.4052, 12.54583
810.8873, 9.964161
811.3694, 8.938740
811.8515, 10.84374
812.3336, 12.48191
812.8157, 13.19646
813.2979, 13.43850
813.7800, 13.43375
814.2621, 13.28036
814.7442, 13.11271
815.2263, 13.00560
815.7084, 12.80444
816.1906, 12.34826
816.6727, 11.69495
817.1548, 10.70445
817.6369, 9.514290
818.1190, 9.215305
818.6011, 10.31429
819.0833, 11.80175
819.5654, 12.07348
820.0475, 11.05265
820.5296, 10.18598
821.0117, 9.464603
821.4938, 8.904613
821.9760, 8.628101
822.4581, 8.416832
822.9402, 7.971848
823.4223, 7.402828
823.9044, 7.250618
824.3865, 8.022823
824.8687, 8.612591
825.3508, 8.543346
825.8329, 8.134567
826.3150, 7.556103
826.7971, 6.927952
827.2792, 6.407639
827.7614, 6.061008
828.2435, 5.951771
828.7256, 6.476536
829.2077, 7.307163
829.6898, 7.001869
830.1719, 5.530579
830.6541, 4.150009
831.1362, 3.317768
831.6183, 2.765327
832.1004, 2.120728
832.5825, 2.046329
833.0646, 1.278694
833.5468, 2.246281
834.0289, 3.055931
834.5110, 3.507465
834.9931, 3.843433
835.4752, 4.318840
835.9573, 4.798405
836.4395, 4.880482
836.9216, 4.317291
837.4037, 3.845322
837.8858, 3.945435
838.3679, 4.257420
838.8500, 4.542336
839.3322, 4.697819
839.8143, 4.416107
840.2964, 3.653053
840.7785, 3.081249
841.2606, 3.574429
841.7427, 4.757008
842.2249, 4.901302
842.7070, 3.957626
843.1891, 3.149361
843.6712, 2.758171
844.1533, 2.633873
844.6354, 2.721146
845.1176, 2.957687
845.5997, 3.029118
846.0818, 2.457092
846.5639, 2.493042
847.0460, 4.027328
847.5281, 5.251404
848.0103, 5.057022
848.4924, 4.091904
848.9745, 3.288445
849.4566, 2.860394
849.9387, 2.805470
850.4208, 3.523045
850.9030, 4.238728
851.3851, 4.019627
851.8672, 3.317146
852.3493, 3.033424
852.8314, 3.315666
853.3135, 3.721275
853.7957, 3.925282
854.2778, 4.001827
854.7599, 4.279617
855.2420, 4.740120
855.7241, 4.158226
856.2062, 2.114491
856.6884, 0.4942400
857.1705, 0.4256400
857.6526, 1.252270
858.1347, 1.776993
858.6168, 1.886196
859.0989, 2.201859
859.5811, 3.258282
860.0632, 3.826466
860.5453, 2.921276
861.0274, 1.948311
861.5095, 2.467964
861.9916, 4.170334
862.4738, 5.278748
862.9559, 5.105373
863.4380, 4.467358
863.9201, 3.279503
864.4022, 2.152676
864.8843, 1.839779
865.3665, 2.214672
865.8486, 2.791927
866.3307, 3.351204
866.8128, 3.721905
867.2949, 3.595657
867.7770, 3.102177
868.2591, 2.854153
868.7412, 2.883953
869.2233, 2.731743
869.7054, 2.236988
870.1876, 1.677208
870.6697, 1.219234
871.1518, 0.9295960
871.6339, 1.231647
872.1160, 2.650661
872.5981, 3.651188
873.0803, 4.372425
873.5624, 4.421616
874.0445, 2.837452
874.5266, 0.8377040
875.0087, 0.1588520
875.4908, 1.063076
875.9730, 2.502003
876.4551, 5.406116
876.9372, 7.332520
877.4193, 5.892555
877.9014, 3.040813
878.3835, 1.145397
878.8657, 0.6018560
879.3478, 1.036484
879.8299, 2.589745
880.3120, 4.122761
880.7941, 3.602200
881.2762, 1.886539
881.7584, 1.445107
882.2405, 2.358150
882.7226, 3.065220
883.2047, 2.872322
883.6868, 2.180904
884.1689, 1.412399
884.6511, 0.5935130
885.1332, 0.7658420
885.6153, 2.556328
886.0974, 3.576893
886.5795, 3.062992
887.0616, 2.125134
887.5438, 1.452618
888.0259, 1.092655
888.5080, 0.9916990
888.9901, 1.213036
889.4722, 1.536961
889.9543, 2.222195
890.4365, 2.688805
890.9186, 2.500530
891.4007, 1.974533
891.8828, 1.406586
892.3649, 0.9189680
892.8470, 0.8480760
893.3292, 1.815987
893.8113, 2.734245
894.2934, 2.133171
894.7755, 0.9365460
895.2576, 1.054150
895.7397, 2.361797
896.2219, 3.070297
896.7040, 2.227646
897.1861, 0.7591710
897.6682, 0.1611330
898.1503, 0.5180550
898.6324, 5.4455001E-02
899.1146, 1.655647
899.5967, 2.554058
900.0788, 2.064014
900.5609, 1.283752
901.0430, 1.273071
901.5251, 1.915100
902.0073, 2.533302
902.4894, 3.563797
902.9715, 3.662731
903.4536, 1.905190
903.9357, 0.2017360
904.4178, 0.6512340
904.9000, 0.9272120
905.3821, 0.8982120
905.8642, 0.5689620
906.3463, 0.3144450
906.8284, 0.5584720
907.3105, 0.4942360
907.7927, 0.7467960
908.2748, 2.122528
908.7569, 2.484303
909.2390, 1.945168
909.7211, 1.265987
910.2032, 0.7446520
910.6854, 0.4072110
911.1675, 0.3113370
911.6496, 0.3938520
912.1317, 0.5417180
912.6138, 0.7727130
913.0959, 1.304390
913.5781, 2.155201
914.0602, 2.724876
914.5423, 2.385616
915.0244, 1.455601
915.5065, 0.8316190
915.9886, 0.5136300
916.4708, 0.5290070
916.9529, 0.9328080
917.4350, 1.413666
917.9171, 1.863464
918.3992, 2.187500
918.8813, 2.235199
919.3635, 2.014347
919.8456, 1.403538
920.3277, 0.3789180
920.8098, 1.264660
921.2919, 5.2719001E-02
921.7740, 1.631943
922.2562, 2.113121
922.7383, 1.764614
923.2204, 1.421562
923.7025, 1.120937
924.1846, 0.9821360
924.6667, 1.351826
925.1489, 1.556507
925.6310, 0.7697110
926.1131, 0.2105140
926.5952, 3.2368001E-02
927.0773, 1.296322
927.5594, 2.193207
928.0416, 1.408997
928.5237, 0.4737630
929.0058, 1.143253
929.4879, 2.385868
929.9700, 2.373241
930.4521, 1.305153
930.9343, 0.5679210
931.4164, 0.7487220
931.8985, 1.408333
932.3806, 2.210278
932.8627, 3.014069
933.3448, 3.337879
933.8270, 3.206566
934.3091, 2.822510
934.7912, 2.212852
935.2733, 1.714767
935.7554, 1.639740
936.2375, 1.650330
936.7197, 0.6780550
937.2018, 1.768780
937.6839, 2.186859
938.1660, 0.3634070
938.6481, 2.596264
939.1302, 3.572529
939.6124, 3.631611
940.0945, 2.713120
940.5766, 1.015369
941.0587, 0.4217300
941.5408, 2.094028
942.0229, 3.046345
942.5051, 2.925133
942.9872, 2.289223
943.4693, 0.6520160
943.9514, 0.9395480
944.4335, 0.7181090
944.9156, 1.426506
945.3978, 2.863682
945.8799, 2.055660
946.3620, 1.109283
946.8441, 1.151340
947.3262, 1.546589
947.8083, 1.630447
948.2905, 1.478802
948.7726, 1.546120
949.2547, 2.012981
949.7368, 2.421165
950.2189, 2.046021
950.7010, 1.522110
951.1831, 1.869816
951.6652, 2.668606
952.1473, 2.773670
952.6295, 2.072849
953.1116, 1.385471
953.5937, 1.235897
954.0758, 1.377842
954.5579, 1.449238
955.0400, 1.452515
955.5222, 1.255657
956.0043, 0.8609280
956.4864, 1.215141
956.9685, 2.690289
957.4506, 3.890942
957.9327, 3.314564
958.4149, 1.511108
958.8970, 0.9446370
959.3791, 1.959442
959.8612, 2.373302
960.3433, 1.676517
960.8254, 1.376366
961.3076, 2.424171
961.7897, 3.905666
962.2718, 4.586254
962.7539, 4.481182
963.2360, 4.054234
963.7181, 2.793800
964.2003, 2.051281
964.6824, 2.426815
965.1645, 2.786827
965.6466, 2.319954
966.1287, 1.519096
966.6108, 1.378098
967.0930, 2.106106
967.5751, 2.625149
968.0572, 2.489380
968.5393, 2.445396
969.0214, 2.708744
969.5035, 3.241566
969.9857, 4.401752
970.4678, 5.736595
970.9499, 5.998970
971.4320, 4.634312
971.9141, 3.495068
972.3962, 4.376774
972.8784, 5.255543
973.3605, 3.647369
973.8426, 1.198215
974.3247, 0.8648870
974.8068, 2.622723
975.2889, 4.126652
975.7711, 4.073524
976.2532, 3.404610
976.7353, 2.784725
977.2174, 2.463123
977.6995, 3.173824
978.1816, 4.571056
978.6638, 5.465370
979.1459, 5.701843
979.6280, 5.734554
980.1101, 5.979408
980.5922, 6.297184
981.0743, 6.421841
981.5565, 6.358757
982.0386, 5.959530
982.5207, 5.244377
983.0028, 5.346169
983.4849, 6.811073
983.9670, 8.062508
984.4492, 7.244896
984.9313, 4.999332
985.4134, 4.488392
985.8955, 6.015968
986.3776, 7.011280
986.8597, 7.158691
987.3419, 6.970005
987.8240, 6.580833
988.3061, 6.188343
988.7882, 6.100216
989.2703, 6.314320
989.7524, 6.397552
990.2346, 6.383446
990.7167, 6.143074
991.1988, 5.403912
991.6809, 4.798611
992.1630, 4.753277
992.6451, 5.031410
993.1273, 5.317398
993.6094, 5.687145
994.0915, 5.510078
994.5736, 4.082108
995.0557, 2.945690
995.5378, 2.868694
996.0200, 3.123978
996.5021, 3.046410
996.9842, 2.654919
997.4663, 2.138939
997.9484, 1.493896
998.4305, 0.9639170
998.9127, 0.3343960
999.3948, 0.1790160
999.8769, 1.048409
1000.359, 2.250118
1000.841, 3.378773
1001.323, 4.246029
1001.805, 4.435692
1002.287, 3.876339
1002.770, 3.295025
1003.252, 2.776875
1003.734, 2.506195
1004.216, 2.989853
1004.698, 3.570469
1005.180, 3.305576
1005.662, 2.275150
1006.144, 1.072174
1006.627, 0.1549840
1007.109, 0.7219660
1007.591, 0.6178700
1008.073, 2.358437
1008.555, 2.511734
1009.037, 1.778568
1009.519, 1.657356
1010.001, 2.326736
1010.483, 3.106457
1010.966, 3.647861
1011.448, 3.850227
1011.930, 3.443779
1012.412, 2.685268
1012.894, 1.891685
1013.376, 1.208405
1013.858, 1.225204
1014.340, 1.953129
1014.823, 2.391922
1015.305, 1.798866
1015.787, 0.7808800
1016.269, 0.3005450
1016.751, 0.2515530
1017.233, 0.2720070
1017.715, 0.3438990
1018.197, 0.4171790
1018.679, 0.4835700
1019.162, 0.8369980
1019.644, 1.816620
1020.126, 2.886288
1020.608, 2.580460
1021.090, 1.048840
1021.572, 0.4586980
1022.054, 0.9242060
1022.536, 1.283546
1023.018, 1.176571
1023.501, 0.7095030
1023.983, 0.1640820
1024.465, 1.065357
1024.947, 0.5237730
1025.429, 1.679798
1025.911, 2.508156
1026.393, 1.551193
1026.875, 0.9333150
1027.358, 1.522408
1027.840, 2.217453
1028.322, 1.899120
1028.804, 0.8476330
1029.286, 0.1730380
1029.768, 0.1770130
1030.250, 0.1145060
1030.732, 1.327305
1031.214, 2.794422
1031.697, 4.540272
1032.179, 5.531727
1032.661, 4.272835
1033.143, 1.406239
1033.625, 0.2863580
1034.107, 1.925049
1034.589, 2.684654
1035.071, 1.584351
1035.553, 1.435978
1036.036, 4.432709
1036.518, 7.409225
1037.000, 6.735535
1037.482, 3.160572
1037.964, 0.9351960
1038.446, 0.6841550
1038.928, 0.7071230
1039.410, 0.9893460
1039.893, 1.569324
1040.375, 3.166462
1040.857, 4.507874
1041.339, 3.931515
1041.821, 1.884754
1042.303, 0.8175240
1042.785, 1.171230
1043.267, 1.719349
1043.750, 2.506721
1044.232, 3.359146
1044.714, 4.454914
1045.196, 5.399334
1045.678, 5.751621
1046.160, 5.595352
1046.642, 5.375305
1047.124, 5.125057
1047.606, 4.869949
1048.089, 4.520103
1048.571, 4.164352
1049.053, 3.814331
1049.535, 3.475479
1050.017, 3.038834
1050.499, 2.605911
1050.981, 2.621464
1051.463, 3.533524
1051.945, 3.870609
1052.428, 2.935337
1052.910, 1.831959
1053.392, 0.5540540
1053.874, 0.2601050
1054.356, 0.4508900
1054.838, 2.168533
1055.320, 3.000370
1055.802, 2.319412
1056.285, 1.607170
1056.767, 0.8389280
1057.249, 0.6694830
1057.731, 2.131866
1058.213, 3.790733
1058.695, 4.025623
1059.177, 3.210892
1059.659, 2.862240
1060.141, 3.473007
1060.624, 3.877567
1061.106, 3.472961
1061.588, 3.003693
1062.070, 2.755089
1062.552, 2.701000
1063.034, 2.869698
1063.516, 3.185570
1063.998, 3.550156
1064.480, 3.985584
1064.963, 3.991848
1065.445, 3.137012
1065.927, 2.238823
1066.409, 1.598640
1066.891, 1.253769
1067.373, 1.401295
1067.855, 1.823391
1068.337, 2.001274
1068.820, 1.794567
1069.302, 1.713825
1069.784, 2.083961
1070.266, 2.504894
1070.748, 2.890919
1071.230, 3.125179
1071.712, 2.942886
1072.194, 2.581364
1072.677, 2.603134
1073.159, 3.118431
1073.641, 3.445538
1074.123, 2.884090
1074.605, 2.577831
1075.087, 3.584080
1075.569, 4.662354
1076.051, 4.521675
1076.533, 3.720581
1077.016, 3.484207
1077.498, 3.991470
1077.980, 4.310932
1078.462, 3.968842
1078.944, 3.473137
1079.426, 3.001194
1079.908, 2.545422
1080.390, 1.707043
1080.872, 1.073101
1081.354, 1.909847
1081.837, 4.132095
1082.319, 5.672630
1082.801, 5.719357
1083.283, 5.330883
1083.765, 4.580044
1084.247, 3.941944
1084.729, 4.012909
1085.211, 4.261791
1085.694, 3.899914
1086.176, 2.949638
1086.658, 2.065540
1087.140, 1.534744
1087.622, 0.8699110
1088.104, 0.9971960
1088.586, 2.071877
1089.068, 0.3050800
1089.551, 2.404488
1090.033, 4.148724
1090.515, 4.726154
1090.997, 4.243412
1091.479, 2.435249
1091.961, 0.9179690
1092.443, 0.4309460
1092.925, 0.2213970
1093.407, 6.2477000E-02
1093.890, 0.1319390
1094.372, 0.9614070
1094.854, 1.765778
1095.336, 0.5884360
1095.818, 3.294975
1096.300, 5.879013
1096.782, 4.738754
1097.264, 3.570633
1097.746, 4.120163
1098.229, 4.942142
1098.711, 4.999855
1099.193, 4.416027
1099.675, 3.334034
1100.157, 1.781235
1100.639, 0.9890590
1101.121, 1.946854
1101.603, 2.723953
1102.086, 2.605061
1102.568, 2.361061
1103.050, 2.739079
1103.532, 3.133408
1104.014, 2.295624
1104.496, 0.3678510
1104.978, 0.3563770
1105.460, 1.374626
1105.943, 2.864548
1106.425, 3.802116
1106.907, 4.289913
1107.389, 4.018597
1107.871, 3.590031
1108.353, 3.830036
1108.835, 4.513905
1109.317, 4.426121
1109.799, 2.839321
1110.281, 2.066475
1110.764, 3.270824
1111.246, 3.980007
1111.728, 2.744648
1112.210, 1.445244
1112.692, 1.584709
1113.174, 2.717113
1113.656, 3.808716
1114.138, 5.036579
1114.621, 5.392189
1115.103, 4.417244
1115.585, 3.295269
1116.067, 1.712753
1116.549, 0.6995740
1117.031, 1.212944
1117.513, 2.375679
1117.995, 2.665302
1118.478, 2.061737
1118.960, 2.319901
1119.442, 4.219639
1119.924, 5.069866
1120.406, 4.146053
1120.888, 3.154530
1121.370, 2.699436
1121.852, 2.747902
1122.334, 3.496849
1122.817, 4.660988
1123.299, 4.512558
1123.781, 2.477142
1124.263, 1.650692
1124.745, 2.558044
1125.227, 2.935760
1125.709, 1.857159
1126.191, 0.8285100
1126.673, 1.137634
1127.156, 2.311710
1127.638, 3.332886
1128.120, 4.218384
1128.602, 4.090408
1129.084, 2.790367
1129.566, 2.226772
1130.048, 2.870277
1130.530, 3.422710
1131.013, 3.098297
1131.495, 2.491291
1131.977, 2.554680
1132.459, 2.075584
1132.941, 2.720802
1133.423, 1.624161
1133.905, 1.062706
1134.387, 1.178829
1134.870, 1.966408
1135.352, 3.422962
1135.834, 4.307743
1136.316, 3.290283
1136.798, 1.297718
1137.280, 0.1400070
1137.762, 0.2914390
1138.244, 0.2714880
1138.726, 0.1137810
1139.208, 0.6564140
1139.691, 1.266773
1140.173, 1.727867
1140.655, 1.892189
1141.137, 1.996819
1141.619, 2.436386
1142.101, 2.960110
1142.583, 3.208340
1143.065, 3.150543
1143.548, 2.453876
1144.030, 1.388828
1144.512, 1.014156
1144.994, 1.716373
1145.476, 2.708214
1145.958, 3.613819
1146.440, 4.031036
1146.922, 3.422390
1147.405, 2.414230
1147.887, 1.651199
1148.369, 1.260551
1148.851, 1.375633
1149.333, 1.961281
1149.815, 2.787781
1150.297, 4.116104
1150.779, 4.653084
1151.261, 2.790535
1151.744, 0.7803540
1152.226, 0.3728640
1152.708, 0.6295620
1153.190, 0.3778610
1153.672, 0.2165760
1154.154, 0.1055530
1154.636, 1.106945
1155.118, 1.943344
1155.600, 1.694157
1156.083, 1.377655
1156.565, 1.100307
1157.047, 1.129749
1157.529, 2.094555
1158.011, 3.254475
1158.493, 3.224758
1158.975, 1.976284
1159.457, 1.380573
1159.939, 1.621174
1160.422, 2.425213
1160.904, 4.678265
1161.386, 6.192741
1161.868, 6.101421
1162.350, 5.115627
1162.832, 3.590256
1163.314, 1.839909
1163.796, 0.9298780
1164.279, 1.028988
1164.761, 1.016624
1165.243, 0.8266330
1165.725, 0.7661670
1166.207, 0.9221420
1166.689, 1.107254
1167.171, 1.189465
1167.653, 1.334480
1168.135, 1.821793
1168.618, 2.556328
1169.100, 3.224228
1169.582, 3.822769
1170.064, 4.036316
1170.546, 3.842319
1171.028, 3.462425
1171.510, 2.970592
1171.992, 2.389885
1172.474, 1.673729
1172.957, 1.221130
1173.439, 2.197403
1173.921, 3.850224
1174.403, 3.508881
1174.885, 1.959599
1175.367, 2.392994
1175.849, 4.789360
1176.331, 5.613640
1176.814, 3.389355
1177.296, 0.9706990
1177.778, 1.121208
1178.260, 2.054016
1178.742, 1.720959
1179.224, 0.8682630
1179.706, 0.3499640
1180.188, 0.2002330
1180.671, 0.4028630
1181.153, 0.8672410
1181.635, 1.263077
1182.117, 1.459381
1182.599, 1.523174
1183.081, 1.171959
1183.563, 1.076317
1184.045, 2.007942
1184.527, 3.096230
1185.010, 3.540672
1185.492, 3.420765
1185.974, 2.987434
1186.456, 2.247284
1186.938, 1.781700
1187.420, 1.906979
1187.902, 1.974266
1188.384, 1.967567
1188.866, 1.769283
1189.349, 0.9992330
1189.831, 0.3364180
1190.313, 0.5808830
1190.795, 1.508442
1191.277, 2.281952
1191.759, 2.995228
1192.241, 3.035923
1192.723, 2.126617
1193.206, 1.476192
1193.688, 1.260365
1194.170, 1.778511
1194.652, 3.461082
1195.134, 4.958351
1195.616, 4.082954
1196.098, 4.827251
1196.580, 4.676991
1197.063, 3.740208
1197.545, 3.927475
1198.027, 2.208260
1198.509, 1.147949
1198.991, 1.448723
1199.473, 2.013344
1199.955, 2.108864
1200.437, 1.928692
1200.919, 1.466572
1201.401, 1.080902
1201.884, 1.647995
1202.366, 2.646698
1202.848, 3.135326
1203.330, 3.058369
1203.812, 2.428692
1204.294, 1.382431
1204.776, 1.085510
1205.258, 2.654568
1205.741, 4.285419
1206.223, 4.983070
1206.705, 5.122944
1207.187, 4.731922
1207.669, 4.150528
1208.151, 3.727604
1208.633, 3.460827
1209.115, 3.296265
1209.598, 3.266960
1210.080, 3.090641
1210.562, 2.253223
1211.044, 1.969528
1211.526, 3.338184
1212.008, 4.223873
1212.490, 3.314651
1212.972, 1.751530
1213.454, 0.7749480
1213.937, 0.3348500
1214.419, 0.1816640
1214.901, 0.2853320
1215.383, 0.9013480
1215.865, 2.134491
1216.347, 3.378838
1216.829, 4.587612
1217.311, 4.903522
1217.793, 3.753403
1218.276, 1.981060
1218.758, 0.5604170
1219.240, 0.3996160
1219.722, 0.3554190
1220.204, 0.7119640
1220.686, 0.5485120
1221.168, 0.3114780
1221.650, 1.029861
1222.133, 2.750698
1222.615, 3.450760
1223.097, 1.830070
1223.579, 0.3665470
1224.061, 2.302353
1224.543, 4.400578
1225.025, 2.584179
1225.507, 0.1470380
1225.990, 0.1058810
1226.472, 2.214931
1226.954, 3.469635
1227.436, 3.397522
1227.918, 2.790695
1228.400, 1.294403
1228.882, 0.4905200
1229.364, 1.162037
1229.846, 2.046658
1230.328, 3.460533
1230.811, 4.055733
1231.293, 2.040485
1231.775, 0.9272040
1232.257, 1.634548
1232.739, 0.1039510
1233.221, 1.010971
1233.703, 1.714573
1234.185, 1.887634
1234.668, 1.383354
1235.150, 1.242805
1235.632, 1.880413
1236.114, 2.268608
1236.596, 1.527843
1237.078, 0.4728740
1237.560, 0.5806540
1238.042, 1.510269
1238.524, 2.334892
1239.007, 2.957279
1239.489, 3.014950
1239.971, 2.572643
1240.453, 1.849201
1240.935, 1.007404
1241.417, 0.6417390
1241.899, 1.288254
1242.381, 1.922382
1242.864, 1.560585
1243.346, 1.033329
1243.828, 1.028229
1244.310, 1.246006
1244.792, 1.126274
1245.274, 0.9925420
1245.756, 1.840874
1246.238, 3.796043
1246.720, 4.993023
1247.203, 5.072094
1247.685, 4.454842
1248.167, 2.122433
1248.649, 0.7703130
1249.131, 1.594086
1249.613, 3.087978
1250.095, 4.392174
1250.577, 5.218334
1251.059, 4.853172
1251.542, 3.425102
1252.024, 2.501564
1252.506, 1.978729
1252.988, 1.200367
1253.470, 0.2433620
1253.952, 0.5867770
1254.434, 2.602173
1254.916, 4.454483
1255.399, 4.832733
1255.881, 4.375065
1256.363, 3.131641
1256.845, 2.055382
1257.327, 3.187347
1257.809, 5.004543
1258.291, 4.934715
1258.773, 3.239452
1259.255, 2.748665
1259.738, 3.378433
1260.220, 3.349224
1260.702, 1.564419
1261.184, 0.4066890
1261.666, 1.344170
1262.148, 2.113110
1262.630, 1.602074
1263.112, 0.8335690
1263.594, 0.5224610
1264.077, 0.4263110
1264.559, 9.0126000E-02
1265.041, 0.3410530
1265.523, 8.2103997E-02
1266.005, 1.166725
1266.487, 2.317928
1266.969, 3.384384
1267.451, 3.913483
1267.934, 3.793850
1268.416, 3.076103
1268.898, 1.742287
1269.380, 0.6393780
1269.862, 0.9546280
1270.344, 0.4894450
1270.826, 1.810535
1271.308, 1.406662
1271.791, 2.403427
1272.273, 3.983391
1272.755, 3.822819
1273.237, 2.193962
1273.719, 1.793861
1274.201, 3.640678
1274.683, 4.885933
1275.165, 3.863918
1275.647, 2.507992
1276.130, 1.307976
1276.612, 0.4259220
1277.094, 1.1800000E-04
1277.576, 4.7591999E-02
1278.058, 0.4172290
1278.540, 1.083607
1279.022, 0.9809840
1279.504, 3.6160001E-03
1279.986, 4.1435000E-02
1280.469, 1.052334
1280.951, 1.884659
1281.433, 2.204224
1281.915, 2.047626
1282.397, 1.216850
1282.879, 0.4561390
1283.361, 0.6237490
1283.843, 0.9572870
1284.326, 0.7468450
1284.808, 0.0000000E+00
##END=



