##NAMES=Molybdenum
##RRUFFID=R100216
##IDEAL CHEMISTRY=Mo
##LOCALITY=Mining concentrate
##OWNER=RRUFF
##SOURCE=Mike Carducci, Climax Molybdenum Technology Center
##DESCRIPTION=Black unconsolidated powder
##STATUS=The identification of this mineral has been confirmed by X-ray diffraction.
##URL=rruff.info/R100216
181.1911, 0.0000000E+00
181.6732, 3.165493
182.1553, 3.687771
182.6374, 1.440666
183.1195, 0.1608310
183.6017, 1.033997
184.0838, 3.105854
184.5659, 5.452656
185.0480, 7.992001
185.5301, 9.998680
186.0123, 13.10629
186.4944, 12.83579
186.9765, 13.41696
187.4586, 16.51472
187.9407, 19.60244
188.4228, 18.75538
188.9050, 14.28771
189.3871, 9.301800
189.8692, 4.491051
190.3513, 1.4439000E-02
190.8334, 1.714561
191.3155, 5.3318001E-02
191.7977, 3.265808
192.2798, 6.040394
192.7619, 8.275131
193.2440, 9.533474
193.7261, 9.041065
194.2082, 6.764496
194.6904, 6.171558
195.1725, 7.938465
195.6546, 10.48014
196.1367, 10.70075
196.6188, 8.453781
197.1009, 5.984455
197.5831, 4.066566
198.0652, 2.588852
198.5473, 3.361851
199.0294, 7.334286
199.5115, 12.39751
199.9937, 13.41200
200.4758, 9.635868
200.9579, 6.545174
201.4400, 8.310318
201.9221, 15.50885
202.4042, 19.01535
202.8864, 17.53907
203.3685, 12.91454
203.8506, 9.687420
204.3327, 8.153767
204.8148, 7.017483
205.2969, 5.028690
205.7791, 1.824501
206.2612, 1.313366
206.7433, 4.733212
207.2254, 10.12177
207.7075, 11.61552
208.1896, 7.896648
208.6718, 4.258179
209.1539, 3.854221
209.6360, 7.419937
210.1181, 10.55544
210.6002, 13.36909
211.0823, 15.44217
211.5645, 15.27206
212.0466, 12.09298
212.5287, 8.490479
213.0108, 5.606964
213.4929, 3.174610
213.9750, 2.489273
214.4572, 4.401482
214.9393, 7.778065
215.4214, 9.491352
215.9035, 9.108902
216.3856, 7.963085
216.8678, 6.545395
217.3499, 4.418205
217.8320, 3.470421
218.3141, 4.265850
218.7962, 6.158592
219.2783, 7.103573
219.7605, 6.791275
220.2426, 6.079113
220.7247, 5.237968
221.2068, 3.850193
221.6889, 3.695442
222.1710, 5.699234
222.6532, 8.772537
223.1353, 9.230885
223.6174, 5.422222
224.0995, 1.760254
224.5816, 0.5632710
225.0637, 2.723198
225.5459, 5.230553
226.0280, 8.820614
226.5101, 12.52916
226.9922, 12.93060
227.4743, 7.895199
227.9564, 2.919437
228.4386, 0.8743480
228.9207, 3.600033
229.4028, 4.792469
229.8849, 3.513805
230.3670, 0.8460580
230.8492, 6.5434001E-02
231.3313, 1.900013
231.8134, 3.905281
232.2955, 4.432644
232.7776, 1.999283
233.2597, 1.711884
233.7419, 4.973995
234.2240, 10.02461
234.7061, 11.98661
235.1882, 9.165627
235.6703, 5.869953
236.1524, 3.996490
236.6346, 3.483749
237.1167, 3.736156
237.5988, 5.514523
238.0809, 7.976875
238.5630, 9.120850
239.0451, 8.462357
239.5273, 7.289948
240.0094, 5.999447
240.4915, 4.157265
240.9736, 3.327831
241.4557, 3.650269
241.9378, 4.938656
242.4200, 7.126835
242.9021, 11.95439
243.3842, 15.03264
243.8663, 14.07386
244.3484, 6.610310
244.8306, 2.225536
245.3127, 2.402622
245.7948, 4.975910
246.2769, 5.742958
246.7590, 3.404057
247.2411, 1.459599
247.7233, 1.224205
248.2054, 3.178692
248.6875, 4.785183
249.1696, 6.380341
249.6517, 7.698551
250.1338, 8.194496
250.6160, 7.245373
251.0981, 6.560249
251.5802, 6.704659
252.0623, 7.813835
252.5444, 9.211658
253.0265, 11.62954
253.5087, 13.73112
253.9908, 13.22041
254.4729, 8.372841
254.9550, 4.430317
255.4371, 3.086773
255.9192, 4.722397
256.4014, 6.004082
256.8835, 7.038586
257.3656, 7.612743
257.8477, 7.389580
258.3298, 5.950321
258.8120, 4.628201
259.2941, 3.615932
259.7762, 2.883556
260.2583, 3.181725
260.7404, 5.360249
261.2225, 7.787338
261.7047, 7.709736
262.1868, 3.593563
262.6689, 1.253193
263.1510, 2.778175
263.6331, 7.963821
264.1152, 9.754383
264.5974, 6.586376
265.0795, 2.453041
265.5616, 1.374237
266.0437, 4.175926
266.5258, 7.327957
267.0079, 10.60975
267.4901, 13.86387
267.9722, 15.20274
268.4543, 14.15567
268.9364, 12.16690
269.4185, 10.21186
269.9006, 8.210247
270.3828, 6.890827
270.8649, 6.400803
271.3470, 6.575756
271.8291, 7.032505
272.3112, 8.087700
272.7933, 8.669411
273.2755, 7.516163
273.7576, 4.152737
274.2397, 2.501785
274.7218, 3.682873
275.2039, 6.503685
275.6860, 6.966770
276.1682, 4.446980
276.6503, 1.977081
277.1324, 1.820747
277.6145, 4.219643
278.0966, 5.673306
278.5787, 5.775253
279.0609, 4.961884
279.5430, 3.887924
280.0251, 2.418655
280.5072, 1.583748
280.9893, 2.412952
281.4715, 4.886650
281.9536, 6.082249
282.4357, 5.506729
282.9178, 4.361946
283.3999, 4.993202
283.8820, 7.518925
284.3642, 9.585144
284.8463, 9.852337
285.3284, 8.479603
285.8105, 7.277416
286.2926, 6.208790
286.7747, 5.437141
287.2569, 5.446716
287.7390, 6.190437
288.2211, 6.433228
288.7032, 5.467587
289.1853, 3.586372
289.6674, 1.834167
290.1496, 0.1484760
290.6317, 1.131252
291.1138, 1.619724
291.5959, 1.336655
292.0780, 0.4577480
292.5602, 1.270870
293.0423, 3.446613
293.5244, 5.134983
294.0065, 6.326591
294.4886, 7.015667
294.9707, 6.797386
295.4529, 5.985252
295.9350, 5.824795
296.4171, 7.147202
296.8992, 8.810509
297.3813, 8.390530
297.8634, 6.068527
298.3456, 3.849823
298.8277, 3.943127
299.3098, 5.249378
299.7919, 5.133354
300.2740, 2.467941
300.7561, 0.7827000
301.2383, 2.172611
301.7204, 1.906334
302.2025, 0.7894590
302.6846, 1.532612
303.1667, 4.135494
303.6488, 5.503765
304.1310, 5.120998
304.6131, 4.313805
305.0952, 4.095352
305.5773, 4.462543
306.0594, 5.393230
306.5415, 7.562542
307.0237, 9.935593
307.5058, 11.55159
307.9879, 12.32701
308.4700, 12.19888
308.9521, 10.58152
309.4343, 8.080750
309.9164, 5.733978
310.3985, 2.990208
310.8806, 1.228363
311.3627, 2.156605
311.8448, 5.883316
312.3270, 9.253975
312.8091, 10.38624
313.2912, 10.10432
313.7733, 9.381821
314.2554, 8.266651
314.7375, 7.054363
315.2197, 5.647377
315.7018, 4.123154
316.1839, 3.213558
316.6660, 4.523075
317.1481, 5.923336
317.6302, 5.514572
318.1124, 0.2786870
318.5945, 4.057747
319.0766, 1.951218
319.5587, 4.488506
320.0408, 9.879005
320.5229, 12.69787
321.0051, 13.89192
321.4872, 13.88117
321.9693, 12.34319
322.4514, 10.33121
322.9335, 6.461964
323.4156, 2.371666
323.8978, 1.230274
324.3799, 8.468452
324.8620, 14.48880
325.3441, 15.24835
325.8262, 8.336437
326.3083, 2.926056
326.7905, 0.1203960
327.2726, 0.9845120
327.7547, 1.400620
328.2368, 0.9417270
328.7189, 3.8371999E-02
329.2010, 1.819683
329.6832, 4.544312
330.1653, 6.341972
330.6474, 7.144459
331.1295, 7.067894
331.6116, 6.052738
332.0938, 2.516373
332.5759, 0.5993920
333.0580, 1.360439
333.5401, 4.402935
334.0222, 6.837475
334.5043, 9.117947
334.9865, 10.19515
335.4686, 9.004501
335.9507, 3.914738
336.4328, 1.083015
336.9149, 1.470406
337.3970, 3.991444
337.8792, 5.870655
338.3613, 7.174774
338.8434, 7.738289
339.3255, 7.139843
339.8076, 5.083305
340.2898, 4.255421
340.7719, 4.972595
341.2540, 6.359276
341.7361, 7.142693
342.2182, 7.253887
342.7003, 7.320225
343.1825, 7.713852
343.6646, 8.293621
344.1467, 7.913521
344.6288, 6.412170
345.1109, 4.749016
345.5930, 3.720245
346.0752, 3.339756
346.5573, 3.652351
347.0394, 4.918312
347.5215, 6.664925
348.0036, 7.728424
348.4857, 8.058086
348.9679, 8.543518
349.4500, 10.83464
349.9321, 13.93301
350.4142, 14.35279
350.8963, 10.71731
351.3784, 6.337234
351.8606, 6.291599
352.3427, 9.478558
352.8248, 11.82706
353.3069, 9.566910
353.7890, 5.659557
354.2711, 4.584641
354.7533, 6.989464
355.2354, 9.427032
355.7175, 8.009811
356.1996, 4.691677
356.6817, 2.880341
357.1638, 5.421249
357.6460, 8.983120
358.1281, 11.18508
358.6102, 11.98890
359.0923, 12.25247
359.5744, 12.86480
360.0565, 13.19611
360.5387, 12.45022
361.0208, 8.583172
361.5029, 5.751793
361.9850, 7.064190
362.4671, 11.12416
362.9492, 13.62085
363.4314, 11.37317
363.9135, 8.384815
364.3956, 6.875259
364.8777, 7.629028
365.3598, 8.719635
365.8419, 10.32389
366.3241, 11.92472
366.8062, 12.89654
367.2883, 12.26990
367.7704, 11.21945
368.2526, 10.07436
368.7347, 8.951839
369.2168, 7.759422
369.6989, 5.836330
370.1810, 4.236168
370.6631, 3.883339
371.1453, 6.151695
371.6274, 7.595932
372.1095, 7.401676
372.5916, 5.908779
373.0737, 5.435642
373.5558, 6.483204
374.0380, 7.798653
374.5201, 8.825382
375.0022, 9.717972
375.4843, 9.622219
375.9664, 7.923389
376.4485, 5.477108
376.9307, 5.028446
377.4128, 7.089382
377.8949, 8.842655
378.3770, 9.031334
378.8591, 7.750301
379.3412, 7.032860
379.8234, 7.085503
380.3055, 6.995892
380.7876, 5.280769
381.2697, 2.063702
381.7518, 0.1144220
382.2339, 0.2062720
382.7161, 0.8717310
383.1982, 0.8196680
383.6803, 0.3174400
384.1624, 1.241524
384.6445, 0.8249890
385.1266, 0.4753950
385.6088, 1.799377
386.0909, 3.143410
386.5730, 4.319523
387.0551, 5.092609
387.5372, 5.429176
388.0193, 5.266838
388.5015, 3.462547
388.9836, 1.732906
389.4657, 2.477917
389.9478, 5.906616
390.4299, 8.979401
390.9120, 9.414810
391.3942, 8.366428
391.8763, 7.244164
392.3584, 6.426003
392.8405, 5.758224
393.3226, 5.067379
393.8047, 4.423641
394.2869, 4.147793
394.7690, 4.820820
395.2511, 5.590725
395.7332, 5.878269
396.2154, 5.248585
396.6975, 4.858440
397.1796, 5.173698
397.6617, 5.844387
398.1438, 6.266762
398.6259, 5.813396
399.1081, 5.639149
399.5902, 6.358147
400.0723, 8.254044
400.5544, 9.067818
401.0365, 8.283409
401.5186, 6.793953
402.0008, 5.262554
402.4829, 3.328594
402.9650, 2.033600
403.4471, 1.660160
403.9292, 2.010059
404.4113, 2.244274
404.8935, 2.278141
405.3756, 2.392834
405.8577, 2.393314
406.3398, 2.005993
406.8219, 4.151577
407.3040, 10.06472
407.7862, 16.22071
408.2683, 16.84454
408.7504, 11.76650
409.2325, 6.866890
409.7146, 3.856495
410.1967, 2.613457
410.6789, 2.893341
411.1610, 4.737137
411.6431, 7.028900
412.1252, 9.401344
412.6073, 11.49238
413.0894, 11.97375
413.5716, 10.07119
414.0537, 7.609791
414.5358, 6.834049
415.0179, 7.390522
415.5000, 8.100002
415.9821, 8.568691
416.4643, 8.726032
416.9464, 8.441586
417.4285, 7.689610
417.9106, 6.727913
418.3927, 5.437679
418.8748, 4.123665
419.3570, 3.170933
419.8391, 2.725735
420.3212, 2.636497
420.8033, 2.977238
421.2854, 3.668362
421.7675, 4.339325
422.2497, 6.028931
422.7318, 6.814613
423.2139, 5.258503
423.6960, 0.8134570
424.1781, 4.779469
424.6602, 4.862167
425.1424, 2.700363
425.6245, 0.6242100
426.1066, 1.927071
426.5887, 3.596535
427.0709, 3.770744
427.5530, 2.450962
428.0351, 1.697601
428.5172, 1.460697
428.9993, 1.850018
429.4814, 3.254089
429.9636, 6.267662
430.4457, 7.929981
430.9278, 7.752098
431.4099, 6.339737
431.8920, 4.674713
432.3741, 2.603752
432.8563, 1.365898
433.3384, 1.615414
433.8205, 3.230671
434.3026, 5.872860
434.7847, 9.781631
435.2668, 12.92844
435.7490, 12.65153
436.2311, 9.759937
436.7132, 7.076935
437.1953, 5.211147
437.6774, 4.075672
438.1595, 3.553413
438.6417, 3.639538
439.1238, 4.323025
439.6059, 6.882805
440.0880, 9.425022
440.5701, 9.742565
441.0522, 7.502979
441.5344, 5.151863
442.0165, 3.741211
442.4986, 3.289543
442.9807, 3.762257
443.4628, 6.253578
443.9449, 8.505676
444.4271, 9.749435
444.9092, 9.995914
445.3913, 9.689655
445.8734, 8.881374
446.3555, 7.674496
446.8376, 5.986561
447.3198, 2.999142
447.8019, 1.169979
448.2840, 1.085472
448.7661, 1.957371
449.2482, 2.714256
449.7303, 3.191326
450.2125, 3.839924
450.6946, 4.893745
451.1767, 6.297707
451.6588, 7.094109
452.1409, 7.048660
452.6230, 6.954441
453.1052, 7.821541
453.5873, 9.870781
454.0694, 9.633221
454.5515, 6.194225
455.0337, 1.721054
455.5158, 9.2891999E-02
455.9979, 1.121761
456.4800, 2.247894
456.9621, 2.351398
457.4442, 1.806427
457.9264, 1.375160
458.4085, 1.063232
458.8906, 1.009705
459.3727, 1.579376
459.8548, 2.424362
460.3369, 2.849266
460.8191, 2.378368
461.3012, 2.251602
461.7833, 4.065224
462.2654, 6.944134
462.7475, 9.061710
463.2296, 9.338585
463.7118, 8.950684
464.1939, 8.256004
464.6760, 7.124302
465.1581, 6.416267
465.6402, 6.682034
466.1223, 7.366653
466.6045, 8.082378
467.0866, 9.671055
467.5687, 10.17776
468.0508, 8.940117
468.5329, 6.603008
469.0150, 4.472446
469.4972, 1.882332
469.9793, 0.5969310
470.4614, 1.832676
470.9435, 5.924149
471.4256, 7.362869
471.9077, 5.004860
472.3899, 1.966721
472.8720, 1.071136
473.3541, 2.511429
473.8362, 3.655918
474.3183, 4.138329
474.8004, 4.230412
475.2826, 5.048386
475.7647, 6.545300
476.2468, 7.926472
476.7289, 9.187241
477.2110, 9.968838
477.6931, 8.917751
478.1753, 6.035770
478.6574, 3.547894
479.1395, 3.758392
479.6216, 5.402512
480.1037, 6.630219
480.5858, 6.891262
481.0680, 6.779720
481.5501, 6.263386
482.0322, 5.441151
482.5143, 5.224724
482.9964, 6.869232
483.4786, 8.571121
483.9607, 9.304108
484.4428, 8.917099
484.9249, 8.500851
485.4070, 8.557953
485.8892, 8.477161
486.3713, 7.790661
486.8534, 5.649483
487.3355, 4.159760
487.8176, 3.425354
488.2997, 3.354385
488.7819, 3.889404
489.2640, 5.514095
489.7461, 6.622540
490.2282, 6.471096
490.7103, 5.166615
491.1924, 4.665508
491.6746, 5.101452
492.1567, 5.771133
492.6388, 6.210850
493.1209, 6.400795
493.6030, 6.051441
494.0851, 4.989250
494.5673, 3.748089
495.0494, 3.422413
495.5315, 3.666363
496.0136, 3.248783
496.4957, 4.0421002E-02
496.9778, 3.321409
497.4600, 2.713730
497.9421, 1.410927
498.4242, 5.237480
498.9063, 6.755859
499.3884, 6.840855
499.8705, 6.122471
500.3527, 4.379948
500.8348, 2.701427
501.3169, 0.7634810
501.7990, 0.6678240
502.2811, 0.5039100
502.7632, 4.124222
503.2454, 7.496075
503.7275, 7.599403
504.2096, 4.832447
504.6917, 3.619965
505.1738, 4.746082
505.6559, 6.371269
506.1381, 7.656353
506.6202, 8.681252
507.1023, 8.978645
507.5844, 8.390289
508.0665, 7.363873
508.5486, 6.219593
509.0308, 4.932907
509.5129, 4.701763
509.9950, 6.371006
510.4771, 8.740520
510.9592, 9.082146
511.4413, 7.545773
511.9235, 5.631298
512.4056, 3.952457
512.8877, 2.620399
513.3698, 1.770977
513.8519, 1.416904
514.3340, 1.513054
514.8162, 2.198658
515.2983, 3.252445
515.7804, 4.444836
516.2625, 6.249699
516.7446, 7.491924
517.2267, 7.230522
517.7089, 6.037865
518.1910, 5.319393
518.6731, 6.421375
519.1552, 7.062119
519.6373, 6.175716
520.1194, 3.572643
520.6016, 1.496391
521.0837, 0.5730440
521.5658, 1.613953
522.0479, 0.4253600
522.5300, 4.127293
523.0121, 6.600319
523.4943, 6.165081
523.9764, 4.122059
524.4585, 2.287014
524.9406, 0.7997230
525.4227, 0.9738390
525.9048, 4.087015
526.3870, 8.289854
526.8691, 8.460835
527.3513, 4.837009
527.8334, 1.053240
528.3155, 1.036694
528.7976, 1.404593
529.2797, 0.8886280
529.7618, 6.718779
530.2440, 11.15447
530.7261, 8.534252
531.2082, 2.827305
531.6903, 0.7892360
532.1724, 1.251467
532.6545, 3.798397
533.1367, 5.605333
533.6188, 6.659739
534.1009, 7.025640
534.5830, 5.640213
535.0651, 4.591419
535.5472, 4.633759
536.0294, 5.922968
536.5115, 7.355875
536.9936, 9.620722
537.4757, 11.07100
537.9578, 9.594004
538.4399, 4.303267
538.9221, 1.984034
539.4042, 4.095140
539.8863, 8.079151
540.3684, 9.330517
540.8505, 8.052042
541.3326, 6.664036
541.8148, 6.154139
542.2969, 6.142551
542.7790, 5.943352
543.2611, 5.592506
543.7432, 5.367193
544.2253, 5.249252
544.7075, 5.460865
545.1896, 6.623892
545.6717, 9.176750
546.1538, 10.63848
546.6359, 8.239477
547.1180, 4.767248
547.6002, 3.216272
548.0823, 6.928715
548.5644, 9.565250
549.0465, 8.972553
549.5286, 6.445057
550.0107, 5.843487
550.4929, 8.759163
550.9750, 11.18484
551.4571, 11.54993
551.9392, 9.839088
552.4213, 9.513109
552.9034, 10.97628
553.3856, 12.54906
553.8677, 12.91964
554.3498, 12.14108
554.8319, 10.57836
555.3140, 8.374798
555.7961, 6.352419
556.2783, 5.250990
556.7604, 4.891167
557.2425, 4.787270
557.7246, 4.723385
558.2067, 4.877895
558.6888, 5.656595
559.1710, 6.853348
559.6531, 7.710909
560.1352, 7.297964
560.6173, 7.036671
561.0994, 8.173737
561.5815, 11.13610
562.0637, 12.58100
562.5458, 10.22610
563.0279, 7.176193
563.5100, 5.695942
563.9921, 6.804350
564.4742, 7.741812
564.9564, 8.528915
565.4385, 9.053432
565.9206, 8.972855
566.4027, 8.101534
566.8848, 7.592680
567.3669, 7.938465
567.8491, 8.797409
568.3312, 8.989189
568.8133, 8.538719
569.2954, 8.105879
569.7775, 8.329000
570.2596, 8.799692
570.7418, 8.605938
571.2239, 7.667839
571.7060, 6.916698
572.1881, 7.406878
572.6702, 8.314266
573.1523, 8.698196
573.6345, 8.030231
574.1166, 7.342173
574.5987, 7.012568
575.0808, 6.914841
575.5629, 6.834515
576.0450, 7.482832
576.5272, 7.251802
577.0093, 5.063519
577.4914, 1.468040
577.9735, 0.2421040
578.4556, 2.252766
578.9377, 4.816864
579.4199, 6.919436
579.9020, 8.680653
580.3841, 9.749411
580.8662, 10.18807
581.3483, 9.344339
581.8304, 4.934929
582.3126, 1.533216
582.7947, 4.337805
583.2768, 1.582319
583.7589, 2.531071
584.2410, 3.640152
584.7231, 2.802546
585.2053, 2.111282
585.6874, 3.298914
586.1696, 3.977432
586.6517, 2.301254
587.1338, 0.9474980
587.6159, 3.008371
588.0980, 2.594835
588.5801, 1.332479
589.0623, 0.3960230
589.5444, 2.674833
590.0265, 4.004463
590.5086, 3.416494
590.9907, 2.912537
591.4728, 4.461670
591.9550, 8.613798
592.4371, 11.18030
592.9192, 11.74095
593.4013, 10.87653
593.8834, 8.454540
594.3655, 4.925127
594.8477, 3.347944
595.3298, 5.835518
595.8119, 9.336245
596.2940, 9.298195
596.7761, 6.652393
597.2582, 4.542446
597.7404, 5.304798
598.2225, 6.666164
598.7046, 6.903330
599.1867, 5.932272
599.6688, 5.373051
600.1509, 6.631268
600.6331, 7.781555
601.1152, 7.444807
601.5973, 4.220736
602.0794, 2.655994
602.5615, 3.589165
603.0436, 5.413034
603.5258, 6.413200
604.0079, 6.549400
604.4900, 5.900780
604.9721, 4.057287
605.4542, 2.062258
605.9363, 2.379192
606.4185, 4.760508
606.9006, 7.045723
607.3827, 8.128292
607.8648, 8.589622
608.3469, 9.463659
608.8290, 10.57666
609.3112, 10.90057
609.7933, 9.063141
610.2754, 6.745890
610.7575, 4.989510
611.2396, 3.978388
611.7217, 4.092686
612.2039, 6.383638
612.6860, 8.922461
613.1681, 10.43901
613.6502, 10.60048
614.1323, 10.19704
614.6144, 8.904699
615.0966, 7.343054
615.5787, 6.462093
616.0608, 6.402945
616.5429, 6.131556
617.0250, 5.330572
617.5071, 4.267105
617.9893, 3.457064
618.4714, 2.911215
618.9535, 2.728256
619.4356, 3.291225
619.9177, 4.057947
620.3998, 4.395317
620.8820, 4.303997
621.3641, 3.888203
621.8462, 2.289450
622.3283, 1.013702
622.8104, 1.396563
623.2925, 4.103317
623.7747, 6.406023
624.2568, 8.297993
624.7389, 9.262800
625.2210, 8.744965
625.7031, 5.649109
626.1852, 3.464571
626.6674, 2.471502
627.1495, 2.377008
627.6316, 3.071564
628.1137, 4.617342
628.5958, 5.348331
629.0779, 4.475037
629.5601, 2.868382
630.0422, 2.243256
630.5243, 2.444553
631.0064, 2.711670
631.4885, 1.897999
631.9706, 1.448097
632.4528, 3.715836
632.9349, 8.346401
633.4170, 11.11037
633.8991, 8.354889
634.3812, 4.517092
634.8633, 2.196081
635.3455, 2.050835
635.8276, 2.273001
636.3097, 3.237631
636.7918, 4.229650
637.2739, 4.667938
637.7560, 4.454096
638.2382, 3.988987
638.7203, 3.163515
639.2024, 2.369671
639.6845, 2.347795
640.1666, 2.856644
640.6487, 2.982853
641.1309, 2.698639
641.6130, 2.385738
642.0951, 2.298866
642.5772, 2.494282
643.0594, 3.138733
643.5415, 5.151131
644.0236, 6.911415
644.5057, 7.006168
644.9879, 5.566589
645.4700, 4.883545
645.9521, 7.665829
646.4342, 9.655506
646.9163, 8.549484
647.3984, 3.464699
647.8806, 0.6029240
648.3627, 0.6430440
648.8448, 1.582367
649.3269, 1.716984
649.8090, 1.050846
650.2911, 1.387447
650.7733, 3.109886
651.2554, 4.759163
651.7375, 4.018608
652.2196, 1.876572
652.7017, 0.7525940
653.1838, 1.444317
653.6660, 3.099583
654.1481, 6.395325
654.6302, 9.978489
655.1123, 11.49165
655.5944, 7.331699
656.0765, 3.941689
656.5587, 4.427780
657.0408, 7.655952
657.5229, 7.958485
658.0050, 2.883373
658.4871, 0.8940730
658.9692, 0.4666670
659.4514, 3.655201
659.9335, 5.633507
660.4156, 5.267971
660.8977, 4.382504
661.3798, 4.450764
661.8619, 4.985966
662.3441, 4.340763
662.8262, 2.380020
663.3083, 0.8672260
663.7904, 1.437775
664.2725, 3.236111
664.7546, 5.075859
665.2368, 7.266117
665.7189, 8.626019
666.2010, 8.683941
666.6831, 7.763695
667.1652, 6.159527
667.6473, 3.186882
668.1295, 0.6486890
668.6116, 1.752270
669.0937, 3.368752
669.5758, 2.415133
670.0579, 1.448444
670.5400, 4.642735
671.0222, 6.124588
671.5043, 6.288128
671.9864, 5.527630
672.4685, 4.050011
672.9506, 2.879353
673.4327, 2.383766
673.9149, 2.607838
674.3970, 4.410660
674.8791, 7.396351
675.3612, 8.779415
675.8433, 4.768848
676.3254, 1.149052
676.8076, 1.591339
677.2897, 7.233341
677.7718, 10.68135
678.2539, 11.35873
678.7360, 10.60866
679.2181, 8.827999
679.7003, 5.799240
680.1824, 4.319809
680.6645, 4.658909
681.1466, 5.795906
681.6287, 7.276340
682.1108, 8.667770
682.5930, 8.399414
683.0751, 5.632542
683.5572, 3.008007
684.0393, 3.092293
684.5214, 4.622894
685.0035, 5.787289
685.4857, 6.058647
685.9678, 5.843346
686.4499, 4.672379
686.9320, 3.153175
687.4141, 2.636276
687.8962, 3.709412
688.3784, 4.717636
688.8605, 5.412140
689.3426, 5.741074
689.8247, 5.388359
690.3068, 4.326115
690.7889, 3.252102
691.2711, 2.373138
691.7532, 1.828514
692.2353, 1.886322
692.7174, 2.489773
693.1995, 2.904396
693.6816, 2.319386
694.1638, 1.643276
694.6459, 1.649216
695.1280, 2.458836
695.6101, 3.210304
696.0922, 3.578445
696.5743, 3.762642
697.0565, 3.932110
697.5386, 4.139462
698.0207, 4.287090
698.5028, 4.344700
698.9849, 4.409573
699.4670, 4.816189
699.9492, 5.458485
700.4313, 4.856171
700.9135, 2.552570
701.3956, 0.5838050
701.8777, 2.517509
702.3598, 6.110245
702.8419, 7.260258
703.3240, 3.425533
703.8062, 0.1425970
704.2883, 0.1828540
704.7704, 1.581818
705.2525, 2.639950
705.7346, 1.593384
706.2167, 1.115955
706.6989, 1.800434
707.1810, 3.054256
707.6631, 3.480335
708.1452, 2.923847
708.6273, 2.425091
709.1094, 2.281605
709.5916, 2.408154
710.0737, 2.685547
710.5558, 3.082485
711.0379, 3.448105
711.5200, 3.403011
712.0021, 3.514969
712.4843, 4.882278
712.9664, 7.096954
713.4485, 8.025879
713.9306, 5.377693
714.4127, 2.612339
714.8948, 1.420135
715.3770, 1.821804
715.8591, 2.183189
716.3412, 2.578045
716.8233, 2.744438
717.3054, 2.207798
717.7875, 1.020218
718.2697, 1.077099
718.7518, 2.447598
719.2339, 4.132504
719.7160, 6.167301
720.1981, 7.632366
720.6802, 6.205040
721.1624, 1.257679
721.6445, 2.278078
722.1266, 0.2880060
722.6087, 4.531879
723.0908, 6.560863
723.5729, 4.101742
724.0551, 2.905754
724.5372, 4.043419
725.0193, 5.566597
725.5014, 5.515713
725.9835, 3.527596
726.4656, 2.129562
726.9478, 1.651806
727.4299, 1.738846
727.9120, 1.732780
728.3941, 1.615108
728.8762, 1.684315
729.3583, 1.885517
729.8405, 2.600765
730.3226, 4.748058
730.8047, 7.508698
731.2868, 9.584801
731.7689, 10.18932
732.2510, 10.10990
732.7332, 9.111050
733.2153, 7.618366
733.6974, 6.353844
734.1795, 5.158459
734.6616, 4.720715
735.1437, 5.445744
735.6259, 6.829849
736.1080, 7.703041
736.5901, 8.068203
737.0722, 7.951199
737.5543, 7.322033
738.0364, 6.248943
738.5186, 4.103863
739.0007, 1.368752
739.4828, 0.1687740
739.9649, 3.319664
740.4470, 6.363537
740.9291, 7.183151
741.4113, 5.822876
741.8934, 4.553921
742.3755, 3.230709
742.8576, 2.247772
743.3397, 1.661880
743.8218, 1.520393
744.3040, 2.615898
744.7861, 4.982830
745.2682, 6.874523
745.7503, 6.546928
746.2324, 5.207012
746.7145, 5.143661
747.1967, 6.301548
747.6788, 6.608120
748.1609, 3.480892
748.6430, 0.2178920
749.1251, 0.8887290
749.6072, 0.8481860
750.0894, 2.410740
750.5715, 4.144684
751.0536, 5.077816
751.5357, 4.246815
752.0178, 1.420334
752.4999, 0.4398120
752.9821, 1.317204
753.4642, 1.394218
753.9463, 0.4490510
754.4284, 1.086742
754.9105, 2.438690
755.3926, 3.545300
755.8748, 4.194443
756.3569, 4.198528
756.8390, 3.724388
757.3211, 2.682232
757.8032, 0.1800310
758.2853, 0.5781140
758.7675, 3.455341
759.2496, 8.255367
759.7318, 10.28943
760.2139, 8.977497
760.6960, 8.006092
761.1781, 7.713379
761.6602, 7.602222
762.1423, 7.017586
762.6245, 6.161236
763.1066, 5.590588
763.5887, 5.598888
764.0708, 5.327072
764.5529, 3.430359
765.0350, 1.226398
765.5172, 0.2781640
765.9993, 2.456284
766.4814, 3.818607
766.9635, 3.567413
767.4456, 2.847580
767.9277, 3.409283
768.4099, 5.617249
768.8920, 6.509830
769.3741, 5.247662
769.8562, 3.441711
770.3383, 3.855686
770.8204, 5.652622
771.3026, 6.415272
771.7847, 4.587551
772.2668, 3.054970
772.7489, 4.898006
773.2310, 8.028446
773.7131, 9.149998
774.1953, 5.170715
774.6774, 2.227905
775.1595, 1.135361
775.6416, 1.323746
776.1237, 1.961571
776.6058, 3.155777
777.0880, 3.958355
777.5701, 4.074028
778.0522, 3.806068
778.5343, 3.771084
779.0164, 3.781418
779.4985, 3.128525
779.9807, 1.313450
780.4628, 0.4367490
780.9449, 1.730421
781.4270, 2.303885
781.9091, 1.641026
782.3912, 1.982079
782.8734, 4.784138
783.3555, 5.885994
783.8376, 6.022297
784.3197, 7.237522
784.8018, 9.705914
785.2839, 11.23655
785.7661, 10.93760
786.2482, 9.655384
786.7303, 8.958580
787.2124, 8.469784
787.6945, 7.097172
788.1766, 1.946445
788.6588, 1.809862
789.1409, 3.5983998E-02
789.6230, 5.325333
790.1051, 7.827988
790.5872, 4.968906
791.0693, 2.326458
791.5515, 0.7543370
792.0336, 0.2414400
792.5157, 1.156387
792.9978, 3.507484
793.4799, 5.663410
793.9620, 7.456051
794.4442, 8.240810
794.9263, 5.933018
795.4084, 1.763828
795.8905, 0.8644330
796.3726, 1.252342
796.8547, 3.469959
797.3369, 3.325397
797.8190, 1.674389
798.3011, 1.728554
798.7832, 4.911640
799.2653, 7.011417
799.7474, 6.768635
800.2296, 4.956848
800.7117, 3.363865
801.1938, 2.048058
801.6759, 1.700043
802.1580, 3.228664
802.6401, 5.198898
803.1223, 5.882034
803.6044, 5.670517
804.0865, 5.579082
804.5686, 5.749977
805.0507, 6.358212
805.5328, 8.348686
806.0150, 10.77758
806.4971, 10.73499
806.9792, 7.097977
807.4613, 4.636040
807.9434, 4.978352
808.4255, 6.756409
808.9077, 6.815254
809.3898, 5.467510
809.8719, 4.100945
810.3540, 2.958729
810.8361, 2.336044
811.3182, 2.922688
811.8004, 4.318253
812.2825, 5.412048
812.7646, 5.630775
813.2467, 5.796902
813.7288, 6.046436
814.2109, 6.354061
814.6931, 6.973846
815.1752, 8.106113
815.6573, 7.445415
816.1394, 3.444477
816.6215, 1.184729
817.1037, 1.903151
817.5858, 0.3271220
818.0679, 2.962421
818.5500, 5.584690
819.0322, 7.636898
819.5143, 8.650623
819.9964, 8.902557
820.4785, 8.921711
820.9606, 8.863934
821.4427, 8.355408
821.9249, 7.166302
822.4070, 5.671036
822.8891, 4.327229
823.3712, 3.222008
823.8533, 3.579144
824.3354, 6.457886
824.8176, 9.409004
825.2997, 9.213158
825.7818, 7.225533
826.2639, 5.772430
826.7460, 6.127266
827.2281, 6.487282
827.7103, 6.476311
828.1924, 6.232159
828.6745, 5.808002
829.1566, 4.994331
829.6387, 5.009190
830.1208, 6.323822
830.6030, 7.831818
831.0851, 7.619434
831.5672, 6.203197
832.0493, 4.937069
832.5314, 4.100529
833.0135, 3.734447
833.4957, 3.938625
833.9778, 4.606606
834.4599, 5.706310
834.9420, 8.476273
835.4241, 9.361431
835.9063, 7.512623
836.3884, 4.794483
836.8705, 3.536934
837.3526, 3.689220
837.8347, 3.149910
838.3168, 1.427536
838.7990, 2.3987001E-02
839.2811, 0.7641830
839.7632, 2.765785
840.2453, 4.610134
840.7274, 5.977360
841.2095, 6.843571
841.6917, 7.096714
842.1738, 6.896099
842.6559, 6.284565
843.1380, 4.952084
843.6201, 4.374359
844.1022, 4.676785
844.5844, 5.302353
845.0665, 6.153320
845.5486, 6.876102
846.0307, 5.953053
846.5128, 3.078114
846.9949, 1.265041
847.4771, 3.762016
847.9592, 6.879025
848.4413, 7.595661
848.9234, 5.020966
849.4055, 2.939934
849.8876, 1.238304
850.3698, 0.4525110
850.8519, 1.343014
851.3340, 3.705528
851.8161, 4.550751
852.2982, 3.891960
852.7803, 3.590000
853.2625, 6.116386
853.7446, 8.911068
854.2267, 9.074245
854.7088, 6.698784
855.1909, 4.670162
855.6730, 4.149944
856.1552, 4.075214
856.6373, 4.131416
857.1194, 4.318218
857.6015, 4.306980
858.0836, 4.057453
858.5657, 3.706760
859.0479, 2.949661
859.5300, 2.344852
860.0121, 3.495480
860.4942, 5.851349
860.9763, 7.471912
861.4584, 7.300999
861.9406, 6.225094
862.4227, 3.801636
862.9048, 0.7389870
863.3869, 0.5179180
863.8690, 0.8288760
864.3511, 1.943577
864.8333, 2.015259
865.3154, 1.691429
865.7975, 2.765343
866.2796, 4.786194
866.7617, 5.644650
867.2438, 3.538868
867.7260, 1.863838
868.2081, 4.517570
868.6902, 8.902267
869.1723, 11.00564
869.6544, 7.803745
870.1365, 5.318661
870.6187, 3.875355
871.1008, 3.324991
871.5829, 3.471313
872.0650, 4.194466
872.5471, 5.066959
873.0292, 6.097157
873.5114, 6.817118
873.9935, 6.506527
874.4756, 5.643162
874.9577, 4.953323
875.4399, 4.825657
875.9220, 4.629843
876.4041, 4.209099
876.8862, 3.594135
877.3683, 2.581013
877.8505, 0.8890190
878.3326, 1.181007
878.8147, 3.691137
879.2968, 6.441631
879.7789, 8.280867
880.2610, 8.965105
880.7432, 7.290659
881.2253, 3.352797
881.7074, 0.8064800
882.1895, 1.989084
882.6716, 4.496805
883.1537, 8.005093
883.6359, 12.27272
884.1180, 12.59628
884.6001, 7.960388
885.0822, 3.646778
885.5643, 2.120520
886.0464, 2.705448
886.5286, 4.805744
887.0107, 7.834141
887.4928, 9.373260
887.9749, 6.515762
888.4570, 3.633036
888.9391, 3.009241
889.4213, 4.105068
889.9034, 4.468494
890.3855, 3.899368
890.8676, 2.755537
891.3497, 0.5668130
891.8318, 1.384752
892.3140, 0.2329480
892.7961, 4.350140
893.2782, 6.548271
893.7603, 4.710896
894.2424, 2.455847
894.7245, 2.685555
895.2067, 4.143101
895.6888, 4.741022
896.1709, 3.008923
896.6530, 2.726091
897.1351, 4.704266
897.6172, 6.865730
898.0994, 6.806061
898.5815, 4.844782
899.0636, 3.049131
899.5457, 1.592443
900.0278, 0.9980980
900.5099, 2.712208
900.9921, 4.814514
901.4742, 5.236435
901.9563, 3.410177
902.4384, 2.731571
902.9205, 4.393560
903.4026, 6.056314
903.8848, 6.701464
904.3669, 6.384537
904.8490, 5.249290
905.3311, 3.349735
905.8132, 1.993881
906.2953, 2.440329
906.7775, 3.445192
907.2596, 3.685194
907.7417, 3.399723
908.2238, 3.494955
908.7059, 4.375034
909.1880, 5.590309
909.6702, 7.739834
910.1523, 9.744337
910.6344, 8.322205
911.1165, 3.568022
911.5986, 0.1057700
912.0807, 0.5403710
912.5629, 7.7936001E-02
913.0450, 0.1653270
913.5271, 0.5223560
914.0092, 0.8021030
914.4913, 1.537945
914.9734, 0.9324570
915.4556, 2.733061
915.9377, 6.435841
916.4198, 7.120840
916.9019, 4.565859
917.3840, 2.967752
917.8661, 2.592360
918.3483, 2.654198
918.8304, 2.476458
919.3125, 2.295341
919.7946, 2.308334
920.2767, 2.535669
920.7589, 3.283186
921.2410, 5.756622
921.7231, 7.571098
922.2052, 7.569202
922.6873, 5.982563
923.1694, 4.755299
923.6516, 3.898069
924.1337, 3.354958
924.6158, 3.041063
925.0979, 3.080488
925.5800, 4.075594
926.0621, 5.546124
926.5443, 6.303864
927.0264, 5.884836
927.5085, 4.668297
927.9906, 1.844530
928.4727, 1.087389
928.9548, 1.192179
929.4370, 1.657177
929.9191, 3.574677
930.4012, 3.782137
930.8833, 3.313665
931.3654, 3.326260
931.8475, 3.377310
932.3297, 2.702248
932.8118, 0.7977220
933.2939, 0.4844490
933.7761, 0.6754300
934.2582, 0.1398700
934.7403, 1.204603
935.2224, 3.407368
935.7045, 4.445137
936.1866, 4.285599
936.6688, 4.088482
937.1509, 5.281651
937.6330, 6.460102
938.1151, 5.398540
938.5972, 2.627192
939.0793, 1.066763
939.5615, 2.208477
940.0436, 4.047258
940.5257, 6.611921
941.0078, 9.221739
941.4899, 9.628784
941.9720, 7.921556
942.4542, 6.483519
942.9363, 6.111744
943.4184, 5.934933
943.9005, 5.178724
944.3826, 3.952904
944.8647, 2.231163
945.3469, 1.501192
945.8290, 2.572224
946.3111, 0.6819860
946.7932, 4.847902
947.2753, 7.256756
947.7574, 7.951853
948.2396, 6.818205
948.7217, 3.839724
949.2038, 1.644405
949.6859, 3.187141
950.1680, 5.778683
950.6501, 7.166252
951.1323, 7.180904
951.6144, 5.586746
952.0965, 0.2193600
952.5786, 2.848682
953.0607, 0.8622780
953.5428, 4.081367
954.0250, 5.449776
954.5071, 3.813831
954.9892, 2.541809
955.4713, 3.128193
955.9534, 4.172913
956.4355, 4.765329
956.9177, 5.107454
957.3998, 5.520636
957.8819, 6.463806
958.3640, 6.583462
958.8461, 5.508606
959.3282, 4.300339
959.8104, 4.423328
960.2925, 5.332661
960.7746, 5.092455
961.2567, 3.552620
961.7388, 2.371084
962.2209, 3.245661
962.7031, 4.305080
963.1852, 3.906103
963.6673, 2.143234
964.1494, 1.937956
964.6315, 3.725063
965.1136, 5.661705
965.5958, 7.426010
966.0779, 8.491848
966.5600, 6.878695
967.0421, 3.663082
967.5242, 1.859585
968.0063, 3.964544
968.4885, 5.840265
968.9706, 5.192123
969.4527, 3.892033
969.9348, 4.371696
970.4169, 7.289949
970.8990, 9.108253
971.3812, 9.569889
971.8633, 9.133116
972.3454, 7.462120
972.8275, 5.596066
973.3096, 5.379158
973.7917, 6.867176
974.2739, 7.429272
974.7560, 4.481119
975.2381, 2.280056
975.7202, 2.811182
976.2023, 5.393133
976.6844, 6.492424
977.1666, 6.165546
977.6487, 5.956774
978.1308, 6.297825
978.6129, 7.084690
979.0950, 8.978386
979.5771, 10.95923
980.0593, 11.37133
980.5414, 7.412857
981.0235, 5.542738
981.5056, 7.264490
981.9877, 9.290302
982.4698, 7.354166
982.9520, 2.464832
983.4341, 1.293533
983.9162, 4.226286
984.3983, 7.114418
984.8804, 6.954041
985.3625, 5.637760
985.8447, 4.135317
986.3268, 2.524755
986.8089, 1.785208
987.2910, 2.214895
987.7731, 3.006718
988.2552, 4.146942
988.7374, 5.220478
989.2195, 5.131487
989.7016, 4.283951
990.1837, 3.743362
990.6658, 4.072849
991.1479, 4.312218
991.6301, 3.705477
992.1122, 3.177952
992.5944, 3.809118
993.0765, 6.087084
993.5586, 6.349970
994.0407, 4.321983
994.5228, 2.212734
995.0049, 1.838844
995.4871, 2.458315
995.9692, 3.526253
996.4513, 4.826628
996.9334, 5.252947
997.4155, 2.961832
997.8976, 1.690645
998.3798, 2.812754
998.8619, 5.156624
999.3440, 5.770109
999.8261, 4.845211
1000.308, 4.196171
1000.790, 4.310799
1001.272, 4.763550
1001.755, 5.055065
1002.237, 5.577715
1002.719, 7.031361
1003.201, 10.38381
1003.683, 11.05658
1004.165, 8.406727
1004.647, 5.375315
1005.129, 3.958281
1005.612, 3.709494
1006.094, 3.538813
1006.576, 3.373949
1007.058, 2.871273
1007.540, 1.199448
1008.022, 7.7033997E-02
1008.504, 3.7275001E-02
1008.986, 0.8820060
1009.468, 2.196764
1009.951, 4.072369
1010.433, 5.512905
1010.915, 6.773273
1011.397, 7.549416
1011.879, 7.230921
1012.361, 6.365875
1012.843, 5.417757
1013.325, 4.352919
1013.807, 4.298569
1014.290, 6.690119
1014.772, 8.221909
1015.254, 7.132751
1015.736, 4.134132
1016.218, 1.700651
1016.700, 8.1795000E-02
1017.182, 0.6649070
1017.664, 1.139238
1018.147, 2.969893
1018.629, 3.000219
1019.111, 2.230412
1019.593, 2.208509
1020.075, 3.185167
1020.557, 4.396622
1021.039, 5.936127
1021.521, 7.216457
1022.003, 7.890657
1022.486, 7.831276
1022.968, 6.218483
1023.450, 3.251446
1023.932, 1.406540
1024.414, 3.078457
1024.896, 4.364117
1025.378, 3.801876
1025.860, 2.077208
1026.343, 1.087866
1026.825, 0.8104670
1027.307, 0.6951750
1027.789, 0.5685710
1028.271, 0.6489580
1028.753, 0.9605600
1029.235, 1.683977
1029.717, 3.302452
1030.199, 6.699978
1030.682, 7.672766
1031.164, 5.363184
1031.646, 3.047007
1032.128, 3.182833
1032.610, 4.638514
1033.092, 4.473476
1033.574, 3.019327
1034.056, 1.498617
1034.539, 0.6656780
1035.021, 1.387665
1035.503, 1.462004
1035.985, 5.140474
1036.467, 5.610353
1036.949, 2.757526
1037.431, 1.350485
1037.913, 2.039871
1038.396, 2.938446
1038.878, 2.286247
1039.360, 1.097015
1039.842, 4.1351002E-02
1040.324, 0.7708070
1040.806, 0.4543700
1041.288, 1.360518
1041.770, 3.618761
1042.252, 6.601900
1042.734, 9.137520
1043.217, 7.512405
1043.699, 3.240488
1044.181, 0.9228990
1044.663, 3.106688
1045.145, 5.114344
1045.627, 3.965998
1046.109, 2.949800
1046.591, 5.321066
1047.074, 11.38691
1047.556, 12.01501
1048.038, 7.203096
1048.520, 2.352058
1049.002, 0.7064020
1049.484, 0.8458210
1049.966, 2.078281
1050.448, 3.797203
1050.931, 5.223373
1051.413, 6.561605
1051.895, 6.841816
1052.377, 5.665672
1052.859, 4.124039
1053.341, 3.441923
1053.823, 3.414709
1054.305, 3.557127
1054.787, 3.812481
1055.270, 4.466301
1055.752, 6.018192
1056.234, 7.637072
1056.716, 9.220730
1057.198, 10.52695
1057.680, 10.21259
1058.162, 8.405502
1058.644, 7.168581
1059.126, 7.384747
1059.609, 7.813663
1060.091, 7.264273
1060.573, 6.370279
1061.055, 5.857651
1061.537, 5.825052
1062.019, 6.186300
1062.501, 7.187435
1062.983, 7.677603
1063.466, 6.767899
1063.948, 4.913609
1064.430, 2.082722
1064.912, 1.034252
1065.394, 2.370239
1065.876, 0.5892240
1066.358, 3.163488
1066.840, 4.763845
1067.323, 5.435894
1067.805, 4.539600
1068.287, 2.513260
1068.769, 3.059513
1069.251, 6.452475
1069.733, 9.404850
1070.215, 9.079971
1070.697, 8.012918
1071.179, 7.954670
1071.661, 8.612648
1072.144, 8.507860
1072.626, 7.548868
1073.108, 6.289236
1073.590, 4.645403
1074.072, 3.466936
1074.554, 4.271772
1075.036, 5.974890
1075.518, 7.377260
1076.001, 8.372301
1076.483, 8.183008
1076.965, 6.192610
1077.447, 4.275763
1077.929, 3.391668
1078.411, 3.292191
1078.893, 3.351185
1079.375, 3.577961
1079.858, 4.006918
1080.340, 4.829199
1080.822, 5.609022
1081.304, 6.179478
1081.786, 6.651661
1082.268, 7.209448
1082.750, 7.860943
1083.232, 7.665121
1083.714, 6.612516
1084.197, 5.901644
1084.679, 6.782026
1085.161, 7.971270
1085.643, 8.442879
1086.125, 8.417397
1086.607, 8.838161
1087.089, 10.04940
1087.571, 10.43596
1088.054, 9.587940
1088.536, 8.530380
1089.018, 8.736181
1089.500, 9.371124
1089.982, 9.176830
1090.464, 8.004469
1090.946, 6.761467
1091.428, 5.376360
1091.911, 4.289562
1092.393, 3.367481
1092.875, 3.045174
1093.357, 5.328146
1093.839, 9.189394
1094.321, 11.64223
1094.803, 11.59553
1095.285, 10.90023
1095.767, 9.987604
1096.250, 9.107771
1096.732, 8.448921
1097.214, 8.001442
1097.696, 7.595598
1098.178, 7.164993
1098.660, 6.234787
1099.142, 4.140011
1099.624, 1.875748
1100.106, 0.8996280
1100.589, 2.873793
1101.071, 1.700142
1101.553, 4.168459
1102.035, 8.204073
1102.517, 10.30898
1102.999, 10.48388
1103.481, 7.352547
1103.963, 3.179211
1104.446, 1.071802
1104.928, 0.6994550
1105.410, 0.2326240
1105.892, 1.061758
1106.374, 2.081032
1106.856, 3.180626
1107.338, 2.983618
1107.820, 2.093267
1108.302, 9.537941
1108.785, 13.20487
1109.267, 12.34215
1109.749, 10.77636
1110.231, 9.661020
1110.713, 8.777130
1111.195, 8.087904
1111.677, 7.443159
1112.159, 5.980457
1112.641, 3.921633
1113.124, 2.725143
1113.606, 2.883734
1114.088, 3.361109
1114.570, 3.311234
1115.052, 3.439833
1115.534, 4.771748
1116.016, 7.161528
1116.498, 6.546530
1116.981, 2.774939
1117.463, 0.6310160
1117.945, 3.061386
1118.427, 6.646658
1118.909, 8.662857
1119.391, 9.370975
1119.873, 8.875618
1120.355, 6.262047
1120.838, 5.803492
1121.320, 8.123693
1121.802, 9.909103
1122.284, 7.911596
1122.766, 4.463684
1123.248, 3.212185
1123.730, 3.833729
1124.212, 4.520390
1124.694, 4.703449
1125.177, 5.064865
1125.659, 5.657539
1126.141, 6.425367
1126.623, 7.628605
1127.105, 8.889725
1127.587, 9.325380
1128.069, 8.880980
1128.551, 7.538280
1129.033, 3.344051
1129.516, 0.8261870
1129.998, 1.725893
1130.480, 4.296749
1130.962, 5.568233
1131.444, 5.837597
1131.926, 7.083202
1132.408, 9.666092
1132.890, 11.14471
1133.373, 8.439751
1133.855, 5.742985
1134.337, 5.657022
1134.819, 7.419340
1135.301, 8.577875
1135.783, 9.128578
1136.265, 8.823107
1136.747, 7.365160
1137.229, 6.170374
1137.712, 7.656746
1138.194, 9.230770
1138.676, 7.779736
1139.158, 3.296049
1139.640, 1.833818
1140.122, 3.686710
1140.604, 5.657993
1141.086, 6.589294
1141.569, 6.822632
1142.051, 6.211679
1142.533, 5.424080
1143.015, 5.483143
1143.497, 7.015707
1143.979, 7.591568
1144.461, 6.966923
1144.943, 6.343433
1145.426, 6.813271
1145.908, 5.684196
1146.390, 6.313360
1146.872, 4.236191
1147.354, 2.823130
1147.836, 2.320818
1148.318, 3.267962
1148.800, 6.578836
1149.282, 9.197618
1149.765, 7.761356
1150.247, 4.042011
1150.729, 1.736019
1151.211, 0.7628230
1151.693, 0.3384630
1152.175, 0.3839530
1152.657, 0.6933770
1153.139, 1.273932
1153.621, 2.009588
1154.104, 2.790138
1154.586, 3.609743
1155.068, 4.492092
1155.550, 5.430288
1156.032, 6.232319
1156.514, 7.277229
1156.996, 7.506893
1157.478, 6.215883
1157.961, 4.301332
1158.443, 3.496496
1158.925, 3.835581
1159.407, 4.632912
1159.889, 5.660370
1160.371, 6.337746
1160.853, 6.057291
1161.335, 5.580259
1161.818, 5.182566
1162.300, 4.934381
1162.782, 4.932861
1163.264, 5.205719
1163.746, 6.626709
1164.228, 9.891151
1164.710, 11.42689
1165.192, 6.543161
1165.674, 1.121984
1166.156, 0.4672910
1166.639, 1.076590
1167.121, 0.9607960
1167.603, 0.7957270
1168.085, 1.244015
1168.567, 1.045889
1169.049, 3.436302
1169.531, 3.345970
1170.013, 2.444611
1170.496, 2.375666
1170.978, 3.189695
1171.460, 4.560631
1171.942, 6.594631
1172.424, 7.290577
1172.906, 4.953131
1173.388, 2.315620
1173.870, 1.806257
1174.353, 2.825232
1174.835, 4.985922
1175.317, 8.707241
1175.799, 10.62789
1176.281, 10.66784
1176.763, 9.563175
1177.245, 6.861540
1177.727, 4.165913
1178.209, 3.566093
1178.692, 4.149351
1179.174, 4.357145
1179.656, 3.808487
1180.138, 3.434917
1180.620, 3.262711
1181.102, 3.067276
1181.584, 2.316124
1182.066, 1.714905
1182.548, 2.219015
1183.031, 3.572908
1183.513, 5.284002
1183.995, 8.111008
1184.477, 9.242989
1184.959, 8.129347
1185.441, 6.405230
1185.923, 5.409630
1186.405, 4.677904
1186.888, 3.128559
1187.370, 1.230999
1187.852, 0.8720840
1188.334, 3.895882
1188.816, 4.875641
1189.298, 2.613865
1189.780, 0.6306150
1190.262, 4.495546
1190.745, 10.02955
1191.227, 9.359379
1191.709, 3.233215
1192.191, 0.1323490
1192.673, 3.290001
1193.155, 4.641592
1193.637, 2.091324
1194.119, 1.065500
1194.601, 0.3707960
1195.084, 2.062157
1195.566, 2.543270
1196.048, 1.054264
1196.530, 0.6947060
1197.012, 3.035557
1197.494, 4.433512
1197.976, 3.899075
1198.458, 2.907640
1198.941, 3.828358
1199.423, 5.598577
1199.905, 6.395935
1200.387, 6.043913
1200.869, 5.439629
1201.351, 4.508327
1201.833, 3.874029
1202.315, 3.724182
1202.797, 3.870899
1203.280, 4.366108
1203.762, 4.805164
1204.244, 4.053404
1204.726, 1.841009
1205.208, 1.269356
1205.690, 3.853060
1206.172, 6.026890
1206.654, 6.755648
1207.136, 6.516329
1207.619, 5.788143
1208.101, 4.841158
1208.583, 4.029966
1209.065, 3.343174
1209.547, 3.539530
1210.029, 5.534876
1210.511, 6.457161
1210.993, 4.667292
1211.476, 2.238445
1211.958, 3.981531
1212.440, 7.485523
1212.922, 7.871838
1213.404, 3.187250
1213.886, 1.097374
1214.368, 3.683561
1214.850, 5.700039
1215.333, 4.639074
1215.815, 2.266953
1216.297, 1.453979
1216.779, 1.804070
1217.261, 2.750404
1217.743, 4.494562
1218.225, 5.548082
1218.707, 5.855507
1219.189, 5.265699
1219.672, 3.009350
1220.154, 0.7089210
1220.636, 1.797417
1221.118, 4.861607
1221.600, 7.508162
1222.082, 9.286640
1222.564, 9.999571
1223.046, 9.352701
1223.528, 8.554327
1224.011, 8.258272
1224.493, 8.146383
1224.975, 7.629898
1225.457, 6.887339
1225.939, 6.031950
1226.421, 4.981056
1226.903, 5.023903
1227.385, 6.718422
1227.868, 7.478518
1228.350, 5.060925
1228.832, 1.777361
1229.314, 1.411713
1229.796, 2.635410
1230.278, 3.075174
1230.760, 1.367531
1231.242, 1.902269
1231.724, 5.198164
1232.207, 8.297714
1232.689, 9.695629
1233.171, 9.671928
1233.653, 7.887352
1234.135, 5.212200
1234.617, 3.011486
1235.099, 1.200340
1235.581, 0.9994950
1236.063, 2.713606
1236.546, 3.926386
1237.028, 2.120619
1237.510, 0.1520750
1237.992, 1.998066
1238.474, 0.6088220
1238.956, 0.8403990
1239.438, 2.044703
1239.920, 1.842678
1240.403, 5.545042
1240.885, 8.009031
1241.367, 3.611300
1241.849, 1.019159
1242.331, 1.207741
1242.813, 6.328165
1243.295, 8.243597
1243.777, 6.107471
1244.260, 4.672939
1244.742, 3.921419
1245.224, 3.868740
1245.706, 5.192160
1246.188, 6.513119
1246.670, 7.835688
1247.152, 7.965881
1247.634, 4.750759
1248.116, 2.397264
1248.599, 4.041775
1249.081, 0.3875200
1249.563, 3.242046
1250.045, 3.486116
1250.527, 3.034088
1251.009, 2.861319
1251.491, 3.036158
1251.973, 3.988077
1252.455, 5.620943
1252.938, 5.000486
1253.420, 2.448372
1253.902, 0.6820320
1254.384, 1.755819
1254.866, 3.178314
1255.348, 4.367861
1255.830, 5.193171
1256.313, 5.514914
1256.795, 5.342527
1257.277, 4.242407
1257.759, 2.553509
1258.241, 1.963234
1258.723, 4.940781
1259.205, 6.630777
1259.687, 5.733562
1260.169, 3.964067
1260.651, 2.314192
1261.134, 1.094313
1261.616, 1.616903
1262.098, 3.497021
1262.580, 5.376179
1263.062, 7.225285
1263.544, 8.274139
1264.026, 8.511749
1264.508, 7.912500
1264.991, 5.361715
1265.473, 2.557255
1265.955, 3.281551
1266.437, 6.452572
1266.919, 9.188995
1267.401, 11.48735
1267.883, 11.59273
1268.365, 8.967079
1268.848, 6.162880
1269.330, 5.402176
1269.812, 5.407654
1270.294, 3.897932
1270.776, 5.006964
1271.258, 2.525747
1271.740, 6.866329
1272.222, 9.590973
1272.704, 10.44960
1273.187, 10.07275
1273.669, 6.742197
1274.151, 3.964861
1274.633, 6.297785
1275.115, 10.55457
1275.597, 11.04318
1276.079, 6.954973
1276.561, 5.684645
1277.043, 6.566526
1277.526, 7.278349
1278.008, 5.964254
1278.490, 4.563484
1278.972, 4.411682
1279.454, 4.644663
1279.936, 4.346006
1280.418, 3.545191
1280.900, 3.076500
1281.383, 2.860926
1281.865, 2.368792
1282.347, 0.1069220
1282.829, 0.6872140
1283.311, 2.084824
1283.793, 5.440331
1284.275, 7.288410
1284.757, 7.854103
1285.240, 7.926861
1285.722, 7.543884
1286.204, 6.787071
1286.686, 4.893469
1287.168, 4.251545
1287.650, 5.803011
1288.132, 6.914711
1288.614, 4.748470
1289.096, 1.650120
1289.578, 3.459660
1290.061, 7.849293
1290.543, 9.909658
1291.025, 6.546843
1291.507, 5.726194
1291.989, 8.109831
1292.471, 9.925426
1292.953, 8.255178
1293.435, 5.717388
1293.918, 3.211926
1294.400, 1.093931
1294.882, 9.9708997E-02
1295.364, 0.3903620
1295.846, 0.3172650
1296.328, 2.043480
1296.810, 3.096014
1297.292, 2.172163
1297.775, 1.186375
1298.257, 1.711535
1298.739, 2.839066
1299.221, 2.853733
1299.703, 3.547674
1300.185, 3.169666
1300.667, 1.639927
1301.149, 0.5420190
1301.631, 0.7615130
1302.114, 0.7081180
1302.596, 0.0000000E+00
##END=



