##NAMES=Monazite-(Ce)
##RRUFFID=R120146
##IDEAL CHEMISTRY=CePO_4_
##LOCALITY=Zagi Mountain, Hameed Abad Kafoor Dheri, Peshawar, Khyber Pakhtunkhwa, Pakistan
##OWNER=RRUFF
##SOURCE=Ikram Mineralogy
##DESCRIPTION=Brown bladed crystals
##STATUS=The identification of this mineral has been determined by Raman spectroscopy and chemical analysis
##URL=rruff.info/R120146
##MEASURED CHEMISTRY=(Ce_0.47_La_0.23_Nd_0.19_Pr_0.05_Sm_0.03_Gd_0.01_Y_0.01_Eu_0.01_Th_0.01_)_∑=1.00_(P_0.98_Si_0.01_)_∑=0.99_O_4_
135.0715, 0.0000000E+00
135.5536, 2.467346
136.0358, 4.410217
136.5179, 1.809631
137.0000, 3.966553
137.4821, 9.084473
137.9642, 8.145081
138.4464, 4.290039
138.9285, 1.336670
139.4106, 0.4003910
139.8927, 2.661743
140.3748, 7.797852
140.8569, 9.072388
141.3391, 1.827393
141.8212, 2.942505
142.3033, 4.260132
142.7854, 2.998413
143.2675, 0.1776120
143.7496, 5.269287
144.2318, 11.24182
144.7139, 15.04956
145.1960, 15.00415
145.6781, 17.36963
146.1602, 26.48193
146.6423, 40.46765
147.1245, 52.65686
147.6066, 59.57776
148.0887, 63.80176
148.5708, 69.00122
149.0529, 74.94617
149.5350, 82.85327
150.0172, 94.42749
150.4993, 110.0139
150.9814, 125.3923
151.4635, 137.6545
151.9456, 149.8208
152.4277, 164.6437
152.9099, 182.9170
153.3920, 202.3428
153.8741, 219.2805
154.3562, 231.4012
154.8383, 246.6694
155.3204, 267.7380
155.8026, 291.4771
156.2847, 315.2582
156.7668, 337.8169
157.2489, 359.9819
157.7310, 384.2642
158.2132, 411.1022
158.6953, 439.9174
159.1774, 472.0541
159.6595, 505.6407
160.1416, 539.2866
160.6237, 572.3116
161.1059, 604.5461
161.5880, 634.5636
162.0701, 658.9290
162.5522, 685.7611
163.0343, 716.9189
163.5164, 751.6006
163.9986, 787.5627
164.4807, 823.5568
164.9628, 860.6072
165.4449, 902.7167
165.9270, 956.0518
166.4091, 1005.585
166.8913, 1042.727
167.3734, 1069.241
167.8555, 1093.082
168.3376, 1116.364
168.8197, 1140.477
169.3018, 1167.698
169.7840, 1199.160
170.2661, 1231.940
170.7482, 1263.987
171.2303, 1295.456
171.7124, 1324.543
172.1945, 1349.579
172.6767, 1372.126
173.1588, 1394.203
173.6409, 1417.570
174.1230, 1440.081
174.6051, 1466.726
175.0872, 1496.094
175.5694, 1515.188
176.0515, 1519.441
176.5336, 1519.273
177.0157, 1519.447
177.4978, 1522.891
177.9799, 1529.399
178.4621, 1525.742
178.9442, 1506.424
179.4263, 1489.211
179.9084, 1479.442
180.3905, 1471.382
180.8726, 1459.444
181.3548, 1441.012
181.8369, 1417.248
182.3190, 1391.895
182.8011, 1360.524
183.2832, 1332.580
183.7653, 1312.958
184.2475, 1296.034
184.7296, 1274.114
185.2117, 1243.260
185.6938, 1205.912
186.1759, 1170.914
186.6580, 1139.649
187.1402, 1108.252
187.6223, 1076.746
188.1044, 1044.505
188.5865, 1009.665
189.0686, 970.1108
189.5507, 929.2607
190.0329, 896.7664
190.5150, 877.1018
190.9971, 855.7498
191.4792, 823.9424
191.9613, 784.3154
192.4434, 746.6982
192.9256, 714.9153
193.4077, 688.0344
193.8898, 664.4275
194.3719, 645.4304
194.8540, 625.2241
195.3361, 597.3962
195.8183, 562.2969
196.3004, 531.4202
196.7825, 511.9478
197.2646, 495.8105
197.7467, 476.0276
198.2288, 451.5134
198.7110, 425.5232
199.1931, 401.4829
199.6752, 379.5754
200.1573, 357.6147
200.6394, 333.8611
201.1215, 310.8811
201.6037, 290.8535
202.0858, 273.9138
202.5679, 257.7468
203.0500, 238.9441
203.5321, 215.7891
204.0142, 194.9246
204.4964, 178.7412
204.9785, 163.3293
205.4606, 145.5623
205.9427, 125.2319
206.4248, 105.3301
206.9069, 90.46851
207.3891, 83.88110
207.8712, 75.50098
208.3533, 63.88379
208.8354, 51.84009
209.3175, 41.69434
209.7996, 33.66431
210.2818, 25.76123
210.7639, 14.87573
211.2460, 2.127930
211.7281, 13.91064
212.2102, 15.03296
212.6923, 14.87598
213.1745, 22.75391
213.6566, 39.69604
214.1387, 56.63989
214.6208, 61.74561
215.1029, 50.32373
215.5850, 42.21802
216.0672, 38.98779
216.5493, 38.46338
217.0314, 40.54907
217.5135, 45.20117
217.9956, 47.59155
218.4777, 40.17700
218.9599, 23.14404
219.4420, 11.65820
219.9241, 13.39746
220.4062, 19.14551
220.8883, 17.75415
221.3704, 7.357666
221.8526, 5.858154
222.3347, 17.58545
222.8168, 28.00171
223.2989, 37.02490
223.7810, 42.54053
224.2631, 47.45898
224.7453, 56.40283
225.2274, 70.42896
225.7095, 85.95923
226.1916, 102.7698
226.6737, 119.2898
227.1558, 132.7314
227.6380, 140.3486
228.1201, 145.1992
228.6022, 153.5105
229.0843, 165.9744
229.5664, 180.2395
230.0485, 196.1143
230.5307, 212.7161
231.0128, 228.6978
231.4949, 242.8384
231.9770, 256.9014
232.4591, 275.7205
232.9412, 303.1011
233.4234, 327.2170
233.9055, 343.2068
234.3876, 355.5852
234.8697, 368.8335
235.3518, 384.9001
235.8340, 402.1211
236.3161, 416.8147
236.7982, 425.6187
237.2803, 438.1404
237.7624, 456.0635
238.2445, 477.3809
238.7267, 502.1311
239.2088, 529.7927
239.6909, 557.7500
240.1730, 579.7517
240.6551, 589.7617
241.1372, 603.8660
241.6194, 625.7722
242.1015, 649.8191
242.5836, 670.9036
243.0657, 687.7771
243.5478, 703.5122
244.0299, 723.4614
244.5121, 752.5691
244.9942, 776.9458
245.4763, 796.2402
245.9584, 811.5254
246.4405, 822.3677
246.9226, 829.1406
247.4048, 834.6460
247.8869, 842.7017
248.3690, 855.6353
248.8511, 864.0283
249.3332, 862.7119
249.8153, 860.5503
250.2975, 865.0073
250.7796, 876.7480
251.2617, 890.1528
251.7438, 900.2432
252.2259, 906.6011
252.7080, 907.4531
253.1902, 897.5474
253.6723, 886.1147
254.1544, 881.3784
254.6365, 883.2434
255.1186, 883.8967
255.6007, 876.3003
256.0829, 860.4900
256.5650, 846.9556
257.0471, 837.8367
257.5292, 829.3447
258.0113, 820.8115
258.4934, 811.6631
258.9756, 796.1865
259.4577, 765.7339
259.9398, 727.4136
260.4219, 705.4165
260.9040, 712.0532
261.3861, 721.5249
261.8683, 715.1426
262.3504, 694.2759
262.8325, 670.6311
263.3146, 647.2500
263.7967, 625.7695
264.2788, 608.6663
264.7610, 597.5620
265.2431, 586.5977
265.7252, 570.6729
266.2073, 550.4978
266.6894, 532.6611
267.1715, 522.0613
267.6537, 511.5640
268.1358, 492.1802
268.6179, 463.2605
269.1000, 434.3816
269.5821, 412.5698
270.0642, 397.4648
270.5464, 383.2827
271.0285, 370.1528
271.5106, 354.6411
271.9927, 333.7944
272.4748, 309.1624
272.9569, 285.9287
273.4391, 266.0969
273.9212, 249.3293
274.4033, 235.8074
274.8854, 228.2288
275.3675, 219.4487
275.8496, 206.0273
276.3318, 189.5334
276.8139, 172.2805
277.2960, 153.7905
277.7781, 134.5068
278.2602, 117.9485
278.7423, 104.1138
279.2245, 95.14893
279.7066, 94.13086
280.1887, 96.42261
280.6708, 96.35474
281.1529, 90.97827
281.6350, 82.78882
282.1172, 77.28882
282.5993, 74.93921
283.0814, 74.52612
283.5635, 77.00635
284.0456, 80.34326
284.5277, 81.51367
285.0099, 79.80420
285.4920, 80.43408
285.9741, 92.68262
286.4562, 121.8823
286.9383, 145.6602
287.4204, 156.7900
287.9026, 167.0156
288.3847, 183.4087
288.8668, 206.7119
289.3489, 233.0732
289.8310, 258.4727
290.3131, 282.3750
290.7953, 305.6040
291.2774, 326.4536
291.7595, 347.6201
292.2416, 368.7520
292.7237, 391.5664
293.2058, 419.2114
293.6880, 454.4136
294.1701, 496.7539
294.6522, 541.1416
295.1343, 597.9912
295.6164, 646.6084
296.0985, 678.6406
296.5807, 699.5845
297.0628, 719.2842
297.5449, 743.4741
298.0270, 772.3950
298.5091, 808.3193
298.9912, 859.2324
299.4734, 908.3960
299.9555, 954.5132
300.4376, 997.2637
300.9197, 1035.278
301.4018, 1068.101
301.8839, 1098.356
302.3661, 1132.414
302.8482, 1170.958
303.3303, 1212.747
303.8124, 1258.778
304.2945, 1307.414
304.7766, 1359.681
305.2588, 1414.822
305.7409, 1467.930
306.2230, 1511.942
306.7051, 1544.524
307.1872, 1574.047
307.6693, 1595.040
308.1515, 1618.055
308.6336, 1651.671
309.1157, 1694.232
309.5978, 1736.863
310.0799, 1771.804
310.5620, 1798.712
311.0442, 1819.739
311.5263, 1831.896
312.0084, 1842.128
312.4905, 1852.873
312.9726, 1863.436
313.4547, 1871.995
313.9369, 1877.504
314.4190, 1879.985
314.9011, 1879.164
315.3832, 1869.908
315.8653, 1863.510
316.3474, 1866.646
316.8296, 1871.688
317.3117, 1869.568
317.7938, 1856.745
318.2759, 1835.231
318.7580, 1808.729
319.2401, 1772.360
319.7223, 1738.877
320.2044, 1712.756
320.6865, 1686.541
321.1686, 1652.373
321.6507, 1609.629
322.1328, 1565.808
322.6150, 1530.118
323.0971, 1506.299
323.5792, 1471.707
324.0613, 1415.808
324.5434, 1360.415
325.0255, 1320.797
325.5077, 1293.069
325.9898, 1261.821
326.4719, 1215.687
326.9540, 1155.802
327.4361, 1096.844
327.9182, 1035.391
328.4004, 978.1680
328.8825, 928.2749
329.3646, 883.6636
329.8467, 841.8022
330.3288, 801.6143
330.8109, 762.0156
331.2931, 719.5615
331.7752, 669.3047
332.2573, 623.4009
332.7394, 585.1602
333.2215, 549.8662
333.7036, 512.7856
334.1858, 472.8633
334.6679, 431.9658
335.1500, 391.9204
335.6321, 352.6377
336.1142, 315.6807
336.5963, 279.2920
337.0785, 246.3271
337.5606, 221.1665
338.0427, 201.7769
338.5248, 180.7168
339.0069, 151.7896
339.4890, 115.6040
339.9712, 84.86768
340.4533, 59.19092
340.9354, 38.43457
341.4175, 26.06445
341.8996, 17.89307
342.3817, 6.486816
342.8639, 11.73438
343.3460, 32.68945
343.8281, 46.47510
344.3102, 43.49609
344.7923, 46.52930
345.2744, 61.28516
345.7566, 78.77979
346.2387, 92.08203
346.7208, 99.44287
347.2029, 101.8511
347.6850, 100.1978
348.1671, 93.84229
348.6493, 85.84521
349.1314, 72.91602
349.6135, 61.59521
350.0956, 58.10547
350.5777, 59.48193
351.0598, 57.36621
351.5420, 45.81396
352.0241, 25.87109
352.5062, 5.076172
352.9883, 19.80566
353.4704, 41.62695
353.9525, 55.39453
354.4347, 66.77832
354.9168, 82.81689
355.3989, 106.1836
355.8810, 134.8647
356.3631, 165.5181
356.8452, 201.3354
357.3274, 232.4404
357.8095, 252.4463
358.2916, 273.1216
358.7737, 303.6982
359.2559, 344.0791
359.7380, 387.8398
360.2201, 428.2759
360.7022, 465.2246
361.1843, 505.6382
361.6664, 553.7910
362.1486, 600.6587
362.6307, 640.6494
363.1128, 677.7627
363.5949, 718.8604
364.0770, 767.8491
364.5591, 822.5669
365.0413, 876.1670
365.5234, 927.4370
366.0055, 979.2412
366.4876, 1030.109
366.9697, 1082.311
367.4518, 1139.618
367.9340, 1201.912
368.4161, 1263.542
368.8982, 1316.641
369.3803, 1358.317
369.8624, 1403.320
370.3445, 1455.878
370.8267, 1507.255
371.3088, 1550.456
371.7909, 1589.495
372.2730, 1634.154
372.7551, 1692.303
373.2372, 1760.753
373.7194, 1822.609
374.2015, 1877.724
374.6836, 1925.692
375.1657, 1964.307
375.6478, 1997.302
376.1299, 2026.917
376.6121, 2054.348
377.0942, 2081.985
377.5763, 2114.623
378.0584, 2155.189
378.5405, 2190.729
379.0226, 2213.849
379.5048, 2237.786
379.9869, 2272.019
380.4690, 2313.347
380.9511, 2350.882
381.4332, 2376.525
381.9153, 2391.045
382.3975, 2400.350
382.8796, 2401.707
383.3617, 2401.688
383.8438, 2400.655
384.3259, 2400.257
384.8080, 2402.841
385.2902, 2409.393
385.7723, 2417.538
386.2544, 2424.204
386.7365, 2429.686
387.2186, 2432.130
387.7007, 2430.045
388.1829, 2425.417
388.6650, 2418.722
389.1471, 2410.260
389.6292, 2400.887
390.1113, 2391.785
390.5934, 2382.486
391.0756, 2370.591
391.5577, 2356.317
392.0398, 2338.746
392.5219, 2316.397
393.0040, 2291.021
393.4861, 2264.211
393.9683, 2235.716
394.4504, 2207.748
394.9325, 2184.170
395.4146, 2165.248
395.8967, 2142.967
396.3788, 2113.199
396.8610, 2080.961
397.3431, 2051.984
397.8252, 2025.980
398.3073, 1997.289
398.7894, 1959.885
399.2715, 1917.695
399.7537, 1880.688
400.2358, 1850.146
400.7179, 1821.425
401.2000, 1793.952
401.6821, 1766.266
402.1642, 1735.400
402.6464, 1699.624
403.1285, 1660.791
403.6106, 1619.204
404.0927, 1575.896
404.5748, 1536.411
405.0569, 1504.854
405.5391, 1475.734
406.0212, 1439.627
406.5033, 1396.111
406.9854, 1355.816
407.4675, 1321.514
407.9496, 1291.682
408.4318, 1265.094
408.9139, 1241.763
409.3960, 1220.784
409.8781, 1202.125
410.3602, 1185.297
410.8423, 1167.162
411.3245, 1146.251
411.8066, 1123.882
412.2887, 1099.472
412.7708, 1074.124
413.2529, 1050.040
413.7350, 1028.067
414.2172, 1007.754
414.6993, 988.9243
415.1814, 972.8701
415.6635, 954.3540
416.1456, 932.9707
416.6277, 909.3745
417.1099, 882.8584
417.5920, 854.3564
418.0741, 826.3086
418.5562, 800.2407
419.0383, 776.5029
419.5204, 759.0088
420.0026, 758.9805
420.4847, 751.0254
420.9668, 721.8164
421.4489, 686.6196
421.9310, 664.7056
422.4131, 661.2349
422.8953, 664.1035
423.3774, 655.3389
423.8595, 629.0176
424.3416, 611.2896
424.8237, 612.3086
425.3058, 611.3726
425.7880, 596.7646
426.2701, 572.6294
426.7522, 549.4727
427.2343, 534.1069
427.7164, 525.1958
428.1985, 516.8999
428.6807, 506.4878
429.1628, 500.6562
429.6449, 505.1108
430.1270, 510.9619
430.6091, 510.6768
431.0912, 503.7993
431.5734, 495.2026
432.0555, 490.0493
432.5376, 488.0527
433.0197, 481.9229
433.5018, 466.7148
433.9839, 455.1162
434.4661, 456.0459
434.9482, 462.2124
435.4303, 461.6094
435.9124, 448.0063
436.3945, 430.5371
436.8766, 422.5630
437.3588, 424.8115
437.8409, 427.9248
438.3230, 431.6470
438.8051, 433.3760
439.2872, 431.2686
439.7693, 425.4370
440.2515, 417.0835
440.7336, 402.6914
441.2157, 387.3564
441.6978, 383.1235
442.1799, 391.9600
442.6620, 399.2578
443.1442, 395.8374
443.6263, 385.7280
444.1084, 377.6592
444.5905, 372.9507
445.0726, 367.8936
445.5547, 358.1196
446.0369, 346.7979
446.5190, 341.7134
447.0011, 345.2080
447.4832, 351.2891
447.9653, 355.2559
448.4474, 356.7998
448.9296, 351.8262
449.4117, 329.9341
449.8938, 311.0469
450.3759, 310.6899
450.8580, 323.2134
451.3401, 332.7041
451.8223, 331.7280
452.3044, 324.2832
452.7865, 318.8994
453.2686, 317.8276
453.7507, 314.3877
454.2328, 305.2446
454.7150, 296.1523
455.1971, 293.0923
455.6792, 294.7578
456.1613, 293.3770
456.6434, 281.9399
457.1255, 262.7778
457.6077, 254.4365
458.0898, 271.5562
458.5719, 281.3369
459.0540, 274.8794
459.5361, 262.7617
460.0182, 255.4297
460.5004, 255.0259
460.9825, 256.1631
461.4646, 252.1289
461.9467, 242.1519
462.4288, 235.1582
462.9109, 233.1084
463.3931, 232.0615
463.8752, 230.8887
464.3573, 229.7861
464.8394, 229.7363
465.3215, 231.5410
465.8036, 232.3740
466.2858, 227.5068
466.7679, 216.3716
467.2500, 204.5557
467.7321, 191.7656
468.2142, 179.8633
468.6964, 170.5820
469.1785, 163.3433
469.6606, 156.0718
470.1427, 150.0337
470.6248, 142.2002
471.1069, 125.3345
471.5891, 99.05225
472.0712, 76.96289
472.5533, 66.18018
473.0354, 62.68408
473.5175, 59.76221
473.9996, 57.85693
474.4818, 54.37744
474.9639, 48.55713
475.4460, 40.57666
475.9281, 28.94971
476.4102, 13.88672
476.8923, 1.669922
477.3745, 1.860352
477.8566, 1.635254
478.3387, 6.4452998E-02
478.8208, 11.85449
479.3029, 21.63525
479.7850, 25.82471
480.2672, 26.17578
480.7493, 23.70947
481.2314, 19.14404
481.7135, 15.48438
482.1956, 16.49805
482.6777, 23.02832
483.1599, 27.75635
483.6420, 27.66797
484.1241, 29.22412
484.6062, 38.03369
485.0883, 48.51123
485.5704, 51.65527
486.0526, 44.00488
486.5347, 31.59033
487.0168, 24.03613
487.4989, 21.86914
487.9810, 22.36670
488.4631, 31.99463
488.9453, 38.06152
489.4274, 32.73145
489.9095, 20.07275
490.3916, 9.332031
490.8737, 5.739746
491.3558, 5.530273
491.8380, 1.095703
492.3201, 8.478516
492.8022, 14.00146
493.2843, 7.186523
493.7664, 1.208496
494.2485, 10.29150
494.7307, 32.54150
495.2128, 51.23535
495.6949, 56.12012
496.1770, 54.57764
496.6591, 56.41846
497.1412, 61.87256
497.6234, 69.32617
498.1055, 78.53564
498.5876, 88.82520
499.0697, 98.77295
499.5518, 108.4751
500.0339, 117.7271
500.5161, 125.6885
500.9982, 133.6880
501.4803, 144.2446
501.9624, 156.9438
502.4445, 167.4468
502.9266, 172.1265
503.4088, 172.3296
503.8909, 175.8765
504.3730, 184.3530
504.8551, 194.1450
505.3372, 205.8882
505.8193, 218.2041
506.3015, 229.8628
506.7836, 240.6831
507.2657, 251.4619
507.7478, 263.5703
508.2299, 276.6753
508.7120, 283.4731
509.1942, 276.7007
509.6763, 274.1177
510.1584, 280.8291
510.6405, 292.5493
511.1226, 306.4150
511.6047, 321.3345
512.0869, 334.4907
512.5690, 342.1113
513.0511, 344.8613
513.5332, 348.5000
514.0153, 352.7764
514.4974, 358.9409
514.9796, 370.3945
515.4617, 383.3838
515.9438, 392.4341
516.4259, 396.0298
516.9080, 397.2119
517.3901, 397.3193
517.8723, 396.7480
518.3544, 395.4282
518.8365, 392.8975
519.3186, 393.5354
519.8007, 403.1021
520.2828, 420.5264
520.7650, 431.7283
521.2471, 433.7935
521.7292, 432.8831
522.2113, 429.3230
522.6934, 425.4832
523.1755, 424.7366
523.6577, 427.7666
524.1398, 433.8152
524.6219, 443.4011
525.1040, 457.9961
525.5861, 465.5789
526.0682, 457.8508
526.5504, 452.1077
527.0325, 454.8403
527.5146, 462.0974
527.9967, 468.3455
528.4788, 471.7742
528.9609, 474.0732
529.4431, 477.3472
529.9252, 481.5945
530.4073, 485.4604
530.8894, 488.7454
531.3715, 491.6577
531.8536, 493.5928
532.3358, 495.4399
532.8179, 499.0459
533.3000, 505.4695
533.7821, 511.0608
534.2642, 512.5310
534.7463, 510.3308
535.2285, 504.7710
535.7106, 494.6521
536.1927, 485.5232
536.6748, 482.7546
537.1569, 484.9392
537.6390, 486.1421
538.1212, 485.2043
538.6033, 483.8667
539.0854, 484.2920
539.5675, 485.1646
540.0496, 483.4771
540.5317, 478.0591
541.0139, 470.4797
541.4960, 462.2341
541.9781, 453.2800
542.4602, 443.5542
542.9423, 429.6880
543.4244, 419.5361
543.9066, 417.4990
544.3887, 419.7649
544.8708, 422.2041
545.3529, 423.0796
545.8350, 421.4270
546.3171, 415.6033
546.7993, 405.6394
547.2814, 394.5876
547.7635, 380.9277
548.2456, 369.0203
548.7277, 360.9038
549.2098, 354.8660
549.6920, 348.5439
550.1741, 341.0515
550.6562, 335.0620
551.1383, 335.6841
551.6204, 340.1633
552.1025, 337.1072
552.5847, 323.4922
553.0668, 310.5308
553.5489, 306.8740
554.0310, 309.8271
554.5131, 310.5942
554.9952, 309.3328
555.4774, 305.2278
555.9595, 295.8247
556.4416, 284.3179
556.9237, 275.3706
557.4058, 269.4155
557.8879, 263.5903
558.3701, 255.1604
558.8522, 244.6453
559.3343, 236.1050
559.8164, 233.4272
560.2985, 227.6704
560.7806, 215.4185
561.2628, 201.6775
561.7449, 190.1162
562.2270, 181.3982
562.7091, 174.5674
563.1912, 169.1826
563.6733, 164.9011
564.1555, 160.6436
564.6376, 157.0574
565.1197, 151.7390
565.6018, 140.4221
566.0839, 129.5422
566.5660, 125.1375
567.0482, 127.1079
567.5303, 129.3384
568.0124, 129.3669
568.4945, 127.3875
568.9766, 122.4932
569.4587, 115.0278
569.9409, 109.7527
570.4230, 109.7827
570.9051, 111.3926
571.3872, 107.4863
571.8693, 96.92041
572.3514, 86.70142
572.8336, 76.18188
573.3157, 67.37695
573.7978, 62.47607
574.2799, 60.25635
574.7620, 58.10620
575.2441, 54.83838
575.7263, 50.09644
576.2084, 42.68286
576.6905, 30.56763
577.1726, 22.03613
577.6547, 18.40845
578.1368, 17.21802
578.6190, 21.19873
579.1011, 26.07227
579.5832, 24.11230
580.0653, 11.70386
580.5474, 2.740723
581.0295, 8.939697
581.5117, 7.800293
581.9938, 7.750977
582.4759, 10.70117
582.9580, 12.51489
583.4401, 8.787109
583.9222, 1.882080
584.4044, 2.228271
584.8865, 2.378418
585.3686, 0.9714360
585.8507, 1.878174
586.3328, 5.202393
586.8149, 7.649902
587.2971, 8.951172
587.7792, 9.385498
588.2613, 9.103271
588.7434, 8.152588
589.2255, 6.964355
589.7076, 5.802734
590.1898, 3.910645
590.6719, 0.6254880
591.1540, 4.484863
591.6361, 4.840332
592.1182, 2.001953
592.6003, 1.846924
593.0825, 5.684326
593.5646, 8.954102
594.0467, 10.46167
594.5288, 10.36597
595.0109, 7.571289
595.4930, 1.645020
595.9752, 9.842285
596.4573, 9.496338
596.9394, 2.300537
597.4215, 3.651367
597.9036, 7.127197
598.3857, 7.204590
598.8679, 6.3479999E-03
599.3500, 11.24414
599.8321, 16.79370
600.3142, 13.50879
600.7963, 7.603271
601.2784, 5.922607
601.7606, 8.727295
602.2427, 12.23804
602.7248, 16.90283
603.2069, 21.60840
603.6890, 25.61011
604.1711, 29.74731
604.6533, 35.84961
605.1354, 43.70801
605.6176, 50.00146
606.0997, 50.51733
606.5818, 46.71094
607.0639, 47.77026
607.5460, 54.80933
608.0281, 63.62891
608.5103, 75.10425
608.9924, 86.17432
609.4745, 93.77124
609.9566, 97.91479
610.4387, 101.3743
610.9208, 104.5388
611.4030, 108.2231
611.8851, 113.3979
612.3672, 119.9346
612.8493, 126.9246
613.3314, 133.8801
613.8135, 141.9531
614.2957, 153.2478
614.7778, 168.8740
615.2599, 181.9788
615.7420, 190.3938
616.2241, 198.9431
616.7062, 210.0522
617.1884, 222.0740
617.6705, 232.2449
618.1526, 240.0154
618.6347, 248.0999
619.1168, 260.7812
619.5989, 277.3093
620.0811, 288.0593
620.5632, 292.6616
621.0453, 292.4287
621.5274, 283.4688
622.0095, 272.3821
622.4916, 266.4268
622.9738, 266.1729
623.4559, 265.9971
623.9380, 262.5417
624.4201, 258.4868
624.9022, 257.0618
625.3843, 257.8755
625.8665, 258.1758
626.3486, 256.7017
626.8307, 254.9204
627.3128, 255.3169
627.7949, 258.5518
628.2770, 261.0071
628.7592, 260.9204
629.2413, 262.2471
629.7234, 268.2036
630.2055, 275.5852
630.6876, 279.7686
631.1697, 279.7205
631.6519, 278.9138
632.1340, 281.3264
632.6161, 286.3315
633.0982, 289.8765
633.5803, 292.0120
634.0624, 292.5105
634.5446, 289.5977
635.0267, 286.1765
635.5088, 286.5872
635.9909, 291.1875
636.4730, 294.6714
636.9551, 293.1572
637.4373, 291.6194
637.9194, 295.7493
638.4015, 303.0017
638.8836, 306.7427
639.3657, 304.6528
639.8478, 299.7800
640.3300, 296.3538
640.8121, 294.7451
641.2942, 292.9927
641.7763, 291.4421
642.2584, 289.4277
642.7405, 284.5483
643.2227, 279.9923
643.7048, 280.1149
644.1869, 285.2375
644.6690, 290.5341
645.1511, 292.8613
645.6332, 292.5160
646.1154, 289.6996
646.5975, 284.4099
647.0796, 278.1619
647.5617, 270.7964
648.0438, 264.0029
648.5259, 261.0756
649.0081, 262.4785
649.4902, 260.1670
649.9723, 248.3608
650.4544, 237.8225
650.9365, 234.9888
651.4186, 236.5732
651.9008, 237.6775
652.3829, 236.8690
652.8650, 235.3011
653.3471, 234.6942
653.8292, 234.4862
654.3113, 230.8535
654.7935, 221.3199
655.2756, 212.9298
655.7577, 208.6848
656.2398, 206.1979
656.7219, 204.8237
657.2040, 204.9720
657.6862, 204.8430
658.1683, 202.4807
658.6504, 198.5208
659.1325, 193.5719
659.6146, 188.2762
660.0967, 183.9529
660.5789, 181.1714
661.0610, 179.6704
661.5431, 179.1774
662.0252, 179.7288
662.5073, 177.6569
662.9894, 169.6875
663.4716, 163.5272
663.9537, 162.4581
664.4358, 161.6000
664.9179, 155.2314
665.4000, 144.8865
665.8821, 138.1880
666.3643, 141.3438
666.8464, 148.6119
667.3285, 148.7551
667.8106, 142.2777
668.2927, 137.9617
668.7748, 138.0966
669.2570, 139.7411
669.7391, 141.5743
670.2212, 142.8297
670.7033, 139.8734
671.1854, 128.2260
671.6675, 118.3719
672.1497, 114.3845
672.6318, 112.8877
673.1139, 110.2092
673.5960, 106.4313
674.0781, 104.3805
674.5602, 106.0950
675.0424, 109.5330
675.5245, 109.3622
676.0066, 104.5248
676.4887, 101.8329
676.9708, 104.9669
677.4529, 106.3546
677.9351, 99.42371
678.4172, 88.68726
678.8993, 82.08521
679.3814, 81.92419
679.8635, 83.13330
680.3456, 82.64368
680.8278, 81.94409
681.3099, 83.93945
681.7920, 88.12390
682.2741, 90.63635
682.7562, 89.36975
683.2383, 85.36121
683.7205, 80.15930
684.2026, 71.98645
684.6847, 68.33240
685.1668, 74.70972
685.6489, 79.47888
686.1310, 77.24341
686.6132, 72.14795
687.0953, 70.15869
687.5774, 72.47339
688.0595, 74.14648
688.5416, 69.51099
689.0237, 62.43274
689.5059, 61.22363
689.9880, 65.62573
690.4701, 68.89050
690.9522, 68.60486
691.4343, 65.21338
691.9164, 57.95630
692.3986, 45.22681
692.8807, 41.27820
693.3628, 54.02710
693.8449, 64.99890
694.3270, 68.73389
694.8091, 68.18994
695.2913, 65.49634
695.7734, 61.79419
696.2555, 59.34827
696.7376, 60.90320
697.2197, 63.56885
697.7018, 59.35339
698.1840, 48.08545
698.6661, 40.53748
699.1482, 40.32214
699.6303, 41.91821
700.1124, 40.54150
700.5945, 36.58923
701.0767, 33.01782
701.5588, 28.69348
702.0409, 26.43469
702.5230, 29.13721
703.0051, 32.75012
703.4872, 34.35645
703.9694, 33.26941
704.4515, 28.53076
704.9336, 19.30432
705.4157, 8.852539
705.8978, 3.491211
706.3799, 3.468018
706.8621, 4.898071
707.3442, 8.538696
707.8263, 11.52881
708.3084, 11.92468
708.7905, 10.78174
709.2726, 9.673706
709.7548, 8.660156
710.2369, 7.819336
710.7190, 7.445190
711.2011, 7.015503
711.6832, 5.483154
712.1653, 3.604248
712.6475, 4.404053
713.1296, 8.686279
713.6117, 10.92664
714.0938, 2.429321
714.5759, 16.38818
715.0580, 23.52832
715.5402, 13.15930
716.0223, 4.193115
716.5044, 2.273926
716.9865, 4.132813
717.4686, 9.435547
717.9507, 16.97131
718.4329, 19.81860
718.9150, 11.86853
719.3971, 2.520508
719.8792, 2.047119
720.3613, 3.449097
720.8434, 4.515991
721.3256, 5.693115
721.8077, 5.540283
722.2898, 2.736084
722.7719, 1.847412
723.2540, 5.629639
723.7361, 9.602173
724.2183, 9.868042
724.7004, 2.002319
725.1825, 5.127319
725.6646, 6.498413
726.1467, 4.393066
726.6288, 2.436890
727.1110, 0.8653560
727.5931, 1.868042
728.0752, 9.122314
728.5573, 18.17896
729.0394, 22.91479
729.5215, 23.89746
730.0037, 25.36963
730.4858, 29.24866
730.9679, 33.45508
731.4500, 34.34326
731.9321, 31.21204
732.4142, 33.27197
732.8964, 44.73694
733.3785, 54.93408
733.8606, 61.27917
734.3427, 65.19006
734.8248, 66.60693
735.3069, 66.25171
735.7891, 67.77136
736.2712, 74.22437
736.7533, 81.37085
737.2354, 84.80920
737.7175, 86.37512
738.1996, 90.05750
738.6818, 96.55371
739.1639, 104.4319
739.6460, 112.9222
740.1281, 121.2800
740.6102, 126.3511
741.0923, 125.5991
741.5745, 127.8663
742.0566, 135.0813
742.5387, 143.9325
743.0208, 154.0396
743.5029, 164.5226
743.9850, 174.1005
744.4672, 182.4880
744.9493, 190.3685
745.4314, 197.1268
745.9135, 204.2853
746.3956, 215.3413
746.8777, 228.6331
747.3599, 237.3154
747.8420, 238.8447
748.3241, 238.9091
748.8062, 244.7896
749.2883, 256.3334
749.7704, 265.2748
750.2526, 268.7694
750.7347, 274.9271
751.2168, 289.5564
751.6989, 304.0883
752.1810, 311.3450
752.6631, 313.1691
753.1453, 317.3373
753.6274, 327.5135
754.1095, 338.2722
754.5916, 345.4943
755.0737, 351.2629
755.5558, 359.3582
756.0380, 369.4905
756.5201, 377.2593
757.0022, 379.9429
757.4843, 381.3885
757.9664, 390.4468
758.4485, 409.8296
758.9307, 420.9626
759.4128, 418.6135
759.8949, 416.7427
760.3770, 421.7260
760.8591, 429.4473
761.3412, 435.8423
761.8234, 440.6742
762.3055, 445.9379
762.7876, 453.7374
763.2697, 460.6143
763.7518, 462.3900
764.2339, 462.3748
764.7161, 467.5734
765.1982, 478.2062
765.6803, 486.3043
766.1624, 485.0897
766.6445, 478.3916
767.1266, 477.8622
767.6088, 484.9620
768.0909, 489.2871
768.5730, 489.1069
769.0551, 486.9098
769.5372, 482.3378
770.0193, 477.3673
770.5015, 476.2911
770.9836, 480.6768
771.4657, 483.3788
771.9478, 480.7665
772.4299, 476.6029
772.9120, 475.0471
773.3942, 475.4274
773.8763, 473.7552
774.3584, 469.0748
774.8405, 464.2242
775.3226, 462.0120
775.8047, 461.2764
776.2869, 458.4235
776.7690, 453.9648
777.2511, 450.8864
777.7332, 450.0912
778.2153, 448.7039
778.6974, 444.6007
779.1796, 438.0889
779.6617, 430.1316
780.1438, 418.2365
780.6259, 409.5134
781.1080, 408.7643
781.5901, 407.6356
782.0723, 399.8165
782.5544, 388.7991
783.0365, 380.7539
783.5186, 377.3612
784.0007, 374.5117
784.4828, 368.1039
784.9650, 359.9255
785.4471, 353.8771
785.9292, 350.0354
786.4113, 346.7278
786.8934, 343.4530
787.3755, 340.1867
787.8577, 337.3915
788.3398, 334.6118
788.8219, 328.0637
789.3040, 313.4482
789.7861, 301.7405
790.2682, 294.7250
790.7504, 289.3755
791.2325, 285.4502
791.7146, 281.5594
792.1967, 274.4418
792.6788, 262.8335
793.1609, 252.3281
793.6431, 249.2897
794.1252, 248.3604
794.6073, 239.9395
795.0894, 226.3234
795.5715, 218.5279
796.0536, 220.2252
796.5358, 223.7662
797.0179, 220.8129
797.5000, 212.0686
797.9821, 203.4048
798.4642, 193.9441
798.9464, 186.9147
799.4285, 185.4819
799.9106, 183.6442
800.3927, 176.5411
800.8748, 166.4718
801.3569, 158.6803
801.8391, 154.4506
802.3212, 150.7908
802.8033, 147.5818
803.2854, 143.6448
803.7675, 136.4935
804.2496, 128.1650
804.7318, 123.2248
805.2139, 122.8750
805.6960, 123.7148
806.1781, 122.8624
806.6602, 120.0740
807.1423, 113.6320
807.6245, 103.1683
808.1066, 95.44110
808.5887, 92.66254
809.0708, 90.50854
809.5529, 85.12085
810.0350, 77.68768
810.5172, 73.35571
810.9993, 74.49597
811.4814, 73.83917
811.9635, 70.01801
812.4456, 65.42242
812.9277, 60.97394
813.4099, 56.74481
813.8920, 52.71185
814.3741, 48.83691
814.8562, 45.02893
815.3383, 41.21857
815.8204, 37.46899
816.3026, 33.49530
816.7847, 29.69012
817.2668, 27.70703
817.7489, 27.78687
818.2310, 27.63123
818.7131, 25.34473
819.1953, 21.90265
819.6774, 20.19873
820.1595, 20.90247
820.6416, 21.11017
821.1237, 20.45099
821.6058, 19.72583
822.0880, 19.08746
822.5701, 18.62872
823.0522, 19.31140
823.5343, 21.15509
824.0164, 19.75690
824.4985, 9.455383
824.9807, 0.5585330
825.4628, 0.2195430
825.9449, 3.765808
826.4270, 5.870850
826.9091, 5.724731
827.3912, 4.148499
827.8734, 1.412354
828.3555, 1.102417
828.8376, 0.8560180
829.3197, 1.711975
829.8018, 4.117371
830.2839, 6.359802
830.7661, 6.256104
831.2482, 1.935181
831.7303, 3.002563
832.2124, 3.307373
832.6945, 1.411011
833.1766, 3.801575
833.6588, 2.042114
834.1409, 0.3541260
834.6230, 1.514221
835.1051, 2.536804
835.5872, 1.311890
836.0693, 1.208801
836.5515, 2.730469
837.0336, 2.439697
837.5157, 1.860229
837.9978, 2.748779
838.4799, 3.264465
838.9620, 0.4644170
839.4442, 4.502441
839.9263, 8.912781
840.4084, 11.70575
840.8905, 11.52539
841.3726, 6.162842
841.8547, 2.129211
842.3369, 4.722900
842.8190, 1.068420
843.3011, 3.385498
843.7832, 8.449219
844.2653, 12.48297
844.7474, 14.52515
845.2296, 14.76251
845.7117, 13.33063
846.1938, 9.414795
846.6759, 6.612793
847.1580, 6.346191
847.6401, 5.692932
848.1223, 2.970093
848.6044, 0.2814940
849.0865, 2.631531
849.5686, 3.864563
850.0507, 4.060364
850.5328, 2.699829
851.0150, 1.563354
851.4971, 3.249756
851.9792, 5.884583
852.4613, 5.448547
852.9434, 2.324402
853.4255, 0.3528440
853.9077, 1.297974
854.3898, 3.350159
854.8719, 3.940125
855.3540, 3.279175
855.8361, 4.405640
856.3182, 8.087585
856.8004, 10.35071
857.2825, 9.891663
857.7646, 8.316956
858.2467, 6.165283
858.7288, 3.977905
859.2109, 3.738037
859.6931, 5.894653
860.1752, 8.971924
860.6573, 14.48602
861.1394, 19.00317
861.6215, 21.06628
862.1036, 20.91656
862.5858, 17.55286
863.0679, 11.76776
863.5500, 9.006348
864.0321, 14.75568
864.5142, 21.65234
864.9963, 20.49615
865.4785, 15.14313
865.9606, 14.06781
866.4427, 17.53278
866.9248, 19.44818
867.4069, 16.48425
867.8890, 12.45624
868.3712, 13.95135
868.8533, 20.73407
869.3354, 24.89648
869.8175, 26.18134
870.2996, 25.68909
870.7817, 22.69702
871.2639, 19.79816
871.7460, 19.29181
872.2281, 20.89807
872.7102, 23.26184
873.1923, 28.01062
873.6744, 30.53552
874.1566, 29.27960
874.6387, 27.13831
875.1208, 25.23950
875.6029, 23.49384
876.0850, 21.36115
876.5671, 18.89105
877.0493, 17.27954
877.5314, 17.56726
878.0135, 18.48529
878.4956, 18.81897
878.9777, 19.06506
879.4598, 20.57391
879.9420, 22.96362
880.4241, 24.04510
880.9062, 22.71088
881.3883, 20.12213
881.8704, 17.19305
882.3525, 14.28284
882.8347, 14.95624
883.3168, 19.68115
883.7989, 21.92053
884.2810, 19.18323
884.7631, 15.78613
885.2452, 15.69867
885.7274, 17.95514
886.2095, 18.36908
886.6916, 15.99030
887.1737, 14.03131
887.6558, 11.14130
888.1379, 10.10284
888.6201, 13.82428
889.1022, 18.66052
889.5843, 19.95557
890.0664, 17.89270
890.5485, 16.74036
891.0306, 17.91431
891.5128, 19.74664
891.9949, 21.78503
892.4770, 23.67377
892.9591, 25.52759
893.4412, 27.01593
893.9233, 26.77490
894.4055, 24.29144
894.8876, 22.04504
895.3697, 23.20959
895.8518, 26.04565
896.3339, 26.57886
896.8160, 25.18811
897.2982, 23.45020
897.7803, 21.74286
898.2624, 21.47485
898.7445, 24.04266
899.2266, 28.20197
899.7087, 30.55872
900.1909, 30.66980
900.6730, 29.09991
901.1551, 24.40045
901.6372, 21.09387
902.1193, 22.24304
902.6014, 23.77979
903.0836, 20.72778
903.5657, 14.12610
904.0478, 10.51526
904.5299, 11.11823
905.0120, 12.59674
905.4941, 15.55261
905.9763, 18.33777
906.4584, 20.49475
906.9405, 21.49512
907.4226, 19.72925
907.9047, 15.57104
908.3868, 13.97906
908.8690, 20.31696
909.3511, 26.52551
909.8332, 23.96118
910.3153, 18.40637
910.7974, 18.71826
911.2795, 24.32288
911.7617, 30.03845
912.2438, 33.52258
912.7259, 34.49927
913.2080, 31.78131
913.6901, 26.65564
914.1722, 22.59912
914.6544, 19.73364
915.1365, 20.60272
915.6186, 26.07788
916.1007, 30.05823
916.5828, 27.84442
917.0649, 22.21332
917.5471, 19.24622
918.0292, 18.82153
918.5113, 22.19794
918.9934, 32.35809
919.4755, 39.92517
919.9576, 40.97913
920.4398, 39.74701
920.9219, 40.69238
921.4040, 42.67371
921.8861, 40.81781
922.3682, 30.85254
922.8503, 25.86926
923.3325, 30.86688
923.8146, 37.59601
924.2967, 43.44806
924.7788, 47.72400
925.2609, 49.30652
925.7430, 48.56982
926.2252, 48.11212
926.7073, 49.59271
927.1894, 50.72717
927.6715, 49.25000
928.1536, 46.82733
928.6357, 44.77356
929.1179, 43.72491
929.6000, 45.78217
930.0821, 51.06909
930.5642, 54.49170
931.0463, 50.29553
931.5284, 42.98712
932.0106, 42.11163
932.4927, 46.35651
932.9748, 50.24219
933.4569, 53.01709
933.9391, 54.35632
934.4212, 53.93311
934.9033, 53.10815
935.3854, 54.12500
935.8676, 56.77728
936.3497, 56.85699
936.8318, 53.20734
937.3139, 51.97455
937.7960, 54.96973
938.2781, 59.16278
938.7603, 63.59351
939.2424, 67.10223
939.7245, 66.52020
940.2066, 59.85394
940.6887, 57.58765
941.1708, 64.51917
941.6530, 69.22217
942.1351, 66.97021
942.6172, 63.69318
943.0993, 63.59448
943.5814, 66.14032
944.0635, 69.42218
944.5457, 73.14459
945.0278, 77.29889
945.5099, 83.23431
945.9920, 87.92651
946.4741, 87.77118
946.9562, 86.45337
947.4384, 89.10986
947.9205, 95.57855
948.4026, 102.1498
948.8847, 107.0723
949.3668, 110.6612
949.8489, 112.7286
950.3311, 113.5792
950.8132, 113.2152
951.2953, 112.7088
951.7774, 114.2399
952.2595, 118.0179
952.7416, 122.2819
953.2238, 125.7515
953.7059, 128.7573
954.1880, 130.9443
954.6701, 133.0187
955.1522, 140.2659
955.6343, 152.7223
956.1165, 162.6042
956.5986, 166.9294
957.0807, 169.9304
957.5628, 175.9651
958.0449, 184.2081
958.5270, 190.7132
959.0092, 194.1760
959.4913, 204.3863
959.9734, 226.1351
960.4555, 242.8267
960.9376, 244.3889
961.4197, 242.5294
961.9019, 250.3648
962.3840, 267.3878
962.8661, 285.8225
963.3482, 307.9087
963.8303, 327.8198
964.3124, 339.2504
964.7946, 355.6725
965.2767, 385.0702
965.7588, 420.6901
966.2409, 454.3804
966.7230, 485.9873
967.2051, 521.3220
967.6873, 558.8512
968.1694, 604.0576
968.6515, 663.4955
969.1336, 726.6072
969.6157, 791.0681
970.0978, 851.4435
970.5800, 903.1639
971.0621, 943.7889
971.5442, 965.5995
972.0263, 964.5455
972.5084, 943.5437
972.9905, 900.7977
973.4727, 842.4003
973.9548, 769.9880
974.4369, 689.1240
974.9190, 608.2007
975.4011, 531.0137
975.8832, 460.2877
976.3654, 396.5651
976.8475, 342.6526
977.3296, 305.5691
977.8117, 280.6652
978.2938, 257.9503
978.7759, 236.4027
979.2581, 217.3472
979.7402, 201.2754
980.2223, 188.1996
980.7044, 178.2043
981.1865, 171.2717
981.6686, 167.9524
982.1508, 167.9742
982.6329, 168.4646
983.1150, 169.1281
983.5971, 166.6257
984.0792, 158.8955
984.5613, 151.2139
985.0435, 150.5969
985.5256, 155.8293
986.0077, 158.7108
986.4898, 159.1014
986.9719, 157.6394
987.4540, 153.7113
987.9362, 149.8009
988.4183, 146.5251
988.9004, 144.9385
989.3825, 147.5798
989.8646, 154.2152
990.3467, 154.9640
990.8289, 145.7074
991.3110, 138.4276
991.7931, 135.7867
992.2752, 133.1360
992.7573, 128.6379
993.2394, 122.6290
993.7216, 114.8011
994.2037, 105.2292
994.6858, 97.75293
995.1679, 94.80811
995.6500, 90.87073
996.1321, 83.93933
996.6143, 77.18201
997.0964, 73.11377
997.5785, 69.83240
998.0606, 63.85706
998.5427, 55.37500
999.0248, 49.41846
999.5070, 49.87000
999.9891, 49.29443
1000.471, 44.89502
1000.953, 38.56506
1001.435, 29.95532
1001.918, 21.23621
1002.400, 15.85559
1002.882, 13.95898
1003.364, 12.36633
1003.846, 10.06885
1004.328, 6.568359
1004.810, 0.8364260
1005.292, 5.681396
1005.774, 13.20435
1006.257, 19.65430
1006.739, 19.41345
1007.221, 8.646729
1007.703, 1.295288
1008.185, 4.393066
1008.667, 10.27246
1009.149, 10.73425
1009.631, 8.814819
1010.114, 9.436035
1010.596, 11.70117
1011.078, 12.10266
1011.560, 9.939697
1012.042, 8.007080
1012.524, 8.455566
1013.006, 9.037109
1013.488, 6.707886
1013.970, 1.848511
1014.453, 5.752930
1014.935, 15.10620
1015.417, 23.01685
1015.899, 28.31445
1016.381, 28.34351
1016.863, 20.41833
1017.345, 10.30762
1017.827, 9.306030
1018.310, 15.81689
1018.792, 21.51648
1019.274, 26.11023
1019.756, 29.77148
1020.238, 32.55334
1020.720, 33.27319
1021.202, 30.50415
1021.684, 27.38074
1022.166, 30.84766
1022.649, 40.61572
1023.131, 49.25781
1023.613, 56.94202
1024.095, 63.31360
1024.577, 68.19421
1025.059, 70.98035
1025.541, 70.73340
1026.023, 69.21265
1026.505, 70.27478
1026.988, 74.10095
1027.470, 76.82300
1027.952, 77.84973
1028.434, 78.94482
1028.916, 80.68433
1029.398, 81.68835
1029.880, 80.94788
1030.362, 79.54321
1030.844, 79.21692
1031.327, 79.89502
1031.809, 82.71692
1032.291, 90.49719
1032.773, 93.87048
1033.255, 88.52759
1033.737, 82.75562
1034.219, 80.76367
1034.701, 81.46777
1035.184, 83.03467
1035.666, 85.92334
1036.148, 86.96387
1036.630, 77.97729
1037.112, 70.17896
1037.594, 66.57617
1038.076, 62.41284
1038.558, 56.42090
1039.041, 48.72290
1039.523, 41.74829
1040.005, 35.60742
1040.487, 33.89185
1040.969, 40.04810
1041.451, 41.12305
1041.933, 33.76001
1042.415, 27.66772
1042.897, 26.96777
1043.380, 28.11450
1043.862, 29.19604
1044.344, 30.10498
1044.826, 32.27417
1045.308, 37.57935
1045.790, 38.92358
1046.272, 32.94238
1046.754, 26.51221
1047.236, 18.94116
1047.719, 14.54102
1048.201, 21.23633
1048.683, 34.88062
1049.165, 39.97827
1049.647, 31.93188
1050.129, 26.82129
1050.611, 26.94922
1051.093, 30.13574
1051.576, 37.88599
1052.058, 46.57495
1052.540, 54.23926
1053.022, 60.89233
1053.504, 61.49829
1053.986, 54.69678
1054.468, 55.35645
1054.950, 78.09229
1055.432, 93.76660
1055.915, 85.06958
1056.397, 71.27295
1056.879, 70.52759
1057.361, 74.40649
1057.843, 69.66724
1058.325, 55.82861
1058.807, 42.79565
1059.289, 33.28149
1059.771, 24.27271
1060.254, 12.33521
1060.736, 3.687988
1061.218, 5.282227
1061.700, 11.17896
1062.182, 13.42993
1062.664, 11.45508
1063.146, 7.663086
1063.628, 0.1040040
1064.111, 0.0000000E+00
##END=



