##NAMES=Montmorillonite
##RRUFFID=R110052
##IDEAL CHEMISTRY=(Na,Ca)_0.3_(Al,Mg)_2_Si_4_O_10_(OH)_2_&#183;nH_2_O
##LOCALITY=Santa Rita, New Mexico, USA
##OWNER=RRUFF
##SOURCE=Ward's Natural Science Establishment, Inc.
##DESCRIPTION=Unconsolidated grains
##STATUS=The identification of this mineral has been confirmed only by X-ray diffraction
##URL=rruff.info/R110052
179.2017, 36738.83
179.6838, 36899.05
180.1659, 37041.85
180.6480, 37168.54
181.1301, 37296.06
181.6122, 37449.69
182.0944, 37622.80
182.5765, 37787.91
183.0586, 37925.48
183.5407, 38048.90
184.0228, 38198.74
184.5049, 38378.27
184.9871, 38560.41
185.4692, 38709.52
185.9513, 38830.31
186.4334, 38940.74
186.9155, 39042.70
187.3976, 39140.05
187.8798, 39249.48
188.3619, 39371.45
188.8440, 39501.00
189.3261, 39634.41
189.8082, 39771.60
190.2903, 39898.27
190.7725, 39998.76
191.2546, 40080.29
191.7367, 40178.94
192.2188, 40300.30
192.7009, 40429.76
193.1830, 40539.23
193.6652, 40628.21
194.1473, 40716.81
194.6294, 40815.85
195.1115, 40924.24
195.5936, 41030.20
196.0757, 41133.41
196.5579, 41233.09
197.0400, 41327.12
197.5221, 41415.25
198.0042, 41500.77
198.4863, 41589.77
198.9684, 41682.24
199.4506, 41760.93
199.9327, 41822.87
200.4148, 41872.50
200.8969, 41916.01
201.3790, 41952.79
201.8611, 41990.62
202.3433, 42038.33
202.8254, 42098.21
203.3075, 42141.20
203.7896, 42158.80
204.2717, 42163.14
204.7538, 42188.86
205.2360, 42242.29
205.7181, 42290.79
206.2002, 42307.11
206.6823, 42282.00
207.1644, 42281.88
207.6465, 42318.52
208.1287, 42378.62
208.6108, 42423.96
209.0929, 42450.54
209.5750, 42472.38
210.0571, 42500.09
210.5392, 42538.04
211.0214, 42559.55
211.5035, 42551.66
211.9856, 42529.99
212.4677, 42554.48
212.9498, 42644.84
213.4319, 42740.04
213.9141, 42801.98
214.3962, 42821.12
214.8783, 42845.05
215.3604, 42878.66
215.8425, 42920.35
216.3246, 42962.87
216.8067, 43009.24
217.2889, 43050.77
217.7710, 43080.55
218.2531, 43092.60
218.7352, 43108.34
219.2173, 43127.98
219.6994, 43151.73
220.1816, 43180.18
220.6637, 43209.33
221.1458, 43248.24
221.6279, 43306.61
222.1100, 43400.43
222.5921, 43470.84
223.0743, 43508.09
223.5564, 43518.54
224.0385, 43534.27
224.5206, 43562.80
225.0027, 43586.16
225.4848, 43588.59
225.9670, 43549.84
226.4491, 43543.83
226.9312, 43591.39
227.4133, 43678.12
227.8954, 43733.01
228.3775, 43738.54
228.8597, 43737.13
229.3418, 43755.82
229.8239, 43807.86
230.3060, 43847.05
230.7881, 43861.22
231.2702, 43857.85
231.7524, 43874.60
232.2345, 43917.01
232.7166, 43968.77
233.1987, 44020.86
233.6808, 44075.28
234.1629, 44122.80
234.6451, 44162.09
235.1272, 44193.36
235.6093, 44220.01
236.0914, 44244.43
236.5735, 44261.09
237.0556, 44265.68
237.5378, 44250.79
238.0199, 44242.24
238.5020, 44246.03
238.9841, 44258.57
239.4662, 44261.86
239.9483, 44248.45
240.4305, 44238.77
240.9126, 44246.43
241.3947, 44287.45
241.8768, 44312.14
242.3589, 44310.99
242.8410, 44293.04
243.3232, 44289.29
243.8053, 44302.02
244.2874, 44325.44
244.7695, 44357.00
245.2516, 44399.62
245.7337, 44441.76
246.2159, 44483.66
246.6980, 44523.45
247.1801, 44554.69
247.6622, 44570.20
248.1443, 44586.72
248.6264, 44612.89
249.1086, 44655.39
249.5907, 44691.41
250.0728, 44720.66
250.5549, 44743.67
251.0370, 44760.25
251.5191, 44765.42
252.0013, 44773.77
252.4834, 44794.23
252.9655, 44836.54
253.4476, 44866.46
253.9297, 44878.43
254.4118, 44881.27
254.8940, 44894.90
255.3761, 44923.14
255.8582, 44955.19
256.3403, 44986.96
256.8224, 45018.75
257.3046, 45045.48
257.7867, 45062.49
258.2688, 45075.63
258.7509, 45097.96
259.2330, 45134.54
259.7151, 45167.71
260.1973, 45190.46
260.6794, 45200.65
261.1615, 45205.86
261.6436, 45200.31
262.1257, 45195.23
262.6078, 45212.95
263.0900, 45265.39
263.5721, 45314.71
264.0542, 45348.09
264.5363, 45364.93
265.0184, 45377.81
265.5005, 45385.34
265.9827, 45392.73
266.4648, 45405.69
266.9469, 45421.97
267.4290, 45451.48
267.9111, 45503.46
268.3932, 45579.91
268.8754, 45633.09
269.3575, 45654.34
269.8396, 45663.68
270.3217, 45687.20
270.8038, 45728.54
271.2859, 45764.43
271.7681, 45781.30
272.2502, 45779.94
272.7323, 45811.00
273.2144, 45885.87
273.6965, 45968.27
274.1786, 46015.60
274.6608, 46021.17
275.1429, 46031.52
275.6250, 46061.68
276.1071, 46107.54
276.5892, 46135.12
277.0714, 46138.80
277.5535, 46139.30
278.0356, 46159.16
278.5177, 46200.84
278.9998, 46233.36
279.4819, 46249.05
279.9641, 46250.73
280.4462, 46253.29
280.9283, 46259.33
281.4104, 46253.98
281.8925, 46215.33
282.3746, 46142.84
282.8568, 46093.33
283.3389, 46082.71
283.8210, 46097.48
284.3031, 46098.68
284.7852, 46085.92
285.2673, 46073.47
285.7495, 46069.73
286.2316, 46075.45
286.7137, 46093.06
287.1958, 46125.74
287.6779, 46167.46
288.1600, 46207.67
288.6422, 46246.30
289.1243, 46280.21
289.6064, 46301.76
290.0885, 46313.85
290.5706, 46333.91
291.0527, 46364.17
291.5349, 46397.85
292.0170, 46418.96
292.4991, 46428.62
292.9812, 46449.55
293.4633, 46510.02
293.9454, 46592.46
294.4276, 46636.11
294.9097, 46632.45
295.3918, 46612.38
295.8739, 46611.91
296.3560, 46628.49
296.8381, 46649.23
297.3203, 46668.79
297.8024, 46688.35
298.2845, 46712.35
298.7666, 46741.82
299.2487, 46768.66
299.7308, 46779.61
300.2130, 46780.84
300.6951, 46789.89
301.1772, 46819.64
301.6593, 46858.07
302.1414, 46887.45
302.6235, 46907.55
303.1057, 46927.52
303.5878, 46958.23
304.0699, 46993.68
304.5520, 47022.29
305.0341, 47040.04
305.5162, 47049.92
305.9984, 47049.20
306.4805, 47040.26
306.9626, 47039.10
307.4447, 47066.60
307.9268, 47105.36
308.4089, 47131.54
308.8911, 47132.81
309.3732, 47129.71
309.8553, 47139.88
310.3374, 47159.80
310.8195, 47177.71
311.3016, 47179.34
311.7838, 47179.45
312.2659, 47192.30
312.7480, 47224.34
313.2301, 47259.64
313.7122, 47290.35
314.1943, 47317.60
314.6765, 47343.30
315.1586, 47365.38
315.6407, 47388.38
316.1228, 47417.38
316.6049, 47455.51
317.0870, 47489.20
317.5692, 47514.65
318.0513, 47531.59
318.5334, 47539.39
319.0155, 47532.72
319.4976, 47521.50
319.9797, 47506.15
320.4619, 47485.59
320.9440, 47475.57
321.4261, 47487.28
321.9082, 47508.32
322.3903, 47526.95
322.8724, 47537.40
323.3546, 47547.27
323.8367, 47559.14
324.3188, 47572.71
324.8009, 47582.87
325.2830, 47583.43
325.7651, 47584.23
326.2473, 47591.96
326.7294, 47627.23
327.2115, 47648.46
327.6936, 47641.74
328.1757, 47615.54
328.6578, 47608.48
329.1400, 47634.34
329.6221, 47670.13
330.1042, 47707.63
330.5863, 47756.47
331.0684, 47791.18
331.5505, 47797.39
332.0327, 47791.08
332.5148, 47808.30
332.9969, 47858.25
333.4790, 47916.35
333.9611, 47975.91
334.4432, 48037.67
334.9254, 48090.51
335.4075, 48129.53
335.8896, 48160.55
336.3717, 48193.67
336.8538, 48234.81
337.3359, 48260.30
337.8180, 48256.68
338.3001, 48224.95
338.7823, 48220.09
339.2644, 48254.43
339.7465, 48293.76
340.2286, 48303.02
340.7107, 48278.25
341.1928, 48251.99
341.6750, 48227.86
342.1571, 48209.14
342.6392, 48217.00
343.1213, 48259.04
343.6034, 48290.46
344.0855, 48264.15
344.5677, 48183.96
345.0498, 48140.04
345.5319, 48149.77
346.0140, 48190.21
346.4961, 48222.30
346.9782, 48246.04
347.4604, 48263.90
347.9425, 48268.38
348.4246, 48266.63
348.9067, 48289.36
349.3888, 48342.15
349.8709, 48399.80
350.3531, 48427.79
350.8352, 48433.30
351.3173, 48443.14
351.7994, 48469.00
352.2815, 48505.90
352.7636, 48546.75
353.2458, 48591.03
353.7279, 48637.14
354.2100, 48688.68
354.6921, 48739.72
355.1742, 48780.40
355.6563, 48808.17
356.1385, 48823.52
356.6206, 48817.48
357.1027, 48795.16
357.5848, 48782.93
358.0669, 48802.54
358.5490, 48836.68
359.0312, 48871.61
359.5133, 48911.07
359.9954, 48938.31
360.4775, 48934.12
360.9596, 48911.47
361.4417, 48897.46
361.9239, 48906.97
362.4060, 48925.88
362.8881, 48951.16
363.3702, 48986.28
363.8523, 49008.25
364.3344, 48993.27
364.8166, 48967.04
365.2987, 48958.82
365.7808, 48989.23
366.2629, 49024.91
366.7450, 49060.19
367.2271, 49094.60
367.7093, 49122.54
368.1914, 49142.50
368.6735, 49155.58
369.1556, 49162.18
369.6377, 49141.30
370.1198, 49139.24
370.6020, 49165.91
371.0841, 49213.14
371.5662, 49253.08
372.0483, 49287.74
372.5304, 49311.09
373.0125, 49319.18
373.4947, 49306.99
373.9768, 49291.03
374.4589, 49263.00
374.9410, 49237.58
375.4231, 49242.45
375.9052, 49290.23
376.3874, 49335.86
376.8695, 49369.03
377.3516, 49390.79
377.8337, 49394.49
378.3158, 49376.09
378.7979, 49354.48
379.2801, 49349.40
379.7622, 49361.99
380.2443, 49375.12
380.7264, 49384.36
381.2085, 49393.19
381.6906, 49409.77
382.1728, 49433.49
382.6549, 49464.98
383.1370, 49508.33
383.6191, 49559.47
384.1012, 49603.14
384.5833, 49637.30
385.0655, 49662.46
385.5476, 49675.32
386.0297, 49678.30
386.5118, 49681.15
386.9939, 49686.32
387.4760, 49695.30
387.9582, 49712.53
388.4403, 49738.69
388.9224, 49765.37
389.4045, 49791.34
389.8866, 49812.92
390.3687, 49823.89
390.8509, 49810.85
391.3330, 49800.27
391.8151, 49821.80
392.2972, 49865.96
392.7793, 49893.30
393.2614, 49860.24
393.7436, 49818.31
394.2257, 49803.85
394.7078, 49828.81
395.1899, 49867.21
395.6720, 49922.54
396.1541, 49982.55
396.6363, 50027.81
397.1184, 50035.12
397.6005, 50043.48
398.0826, 50067.74
398.5647, 50110.80
399.0468, 50150.04
399.5290, 50190.70
400.0111, 50222.45
400.4932, 50236.67
400.9753, 50209.54
401.4574, 50197.75
401.9395, 50214.17
402.4217, 50251.80
402.9038, 50275.18
403.3859, 50271.85
403.8680, 50272.98
404.3501, 50295.11
404.8322, 50344.61
405.3144, 50394.52
405.7965, 50449.40
406.2786, 50498.52
406.7607, 50518.08
407.2428, 50500.80
407.7249, 50493.89
408.2071, 50519.08
408.6892, 50569.10
409.1713, 50592.77
409.6534, 50585.41
410.1355, 50577.89
410.6176, 50602.82
411.0998, 50654.42
411.5819, 50700.71
412.0640, 50737.07
412.5461, 50762.27
413.0282, 50768.14
413.5103, 50758.09
413.9925, 50752.77
414.4746, 50767.62
414.9567, 50793.57
415.4388, 50820.67
415.9209, 50849.84
416.4030, 50866.63
416.8852, 50849.90
417.3673, 50814.68
417.8494, 50785.45
418.3315, 50781.16
418.8136, 50778.82
419.2957, 50756.09
419.7779, 50718.58
420.2600, 50699.25
420.7421, 50731.89
421.2242, 50778.37
421.7063, 50810.25
422.1884, 50816.63
422.6706, 50821.62
423.1527, 50829.01
423.6348, 50839.46
424.1169, 50853.99
424.5990, 50881.21
425.0811, 50903.80
425.5633, 50909.34
426.0454, 50891.04
426.5275, 50898.77
427.0096, 50948.00
427.4917, 51009.38
427.9738, 51058.98
428.4560, 51090.95
428.9381, 51121.06
429.4202, 51151.41
429.9023, 51179.95
430.3844, 51204.42
430.8665, 51229.11
431.3487, 51236.89
431.8308, 51206.51
432.3129, 51134.50
432.7950, 51108.84
433.2771, 51141.04
433.7592, 51193.13
434.2414, 51220.29
434.7235, 51223.88
435.2056, 51214.94
435.6877, 51190.24
436.1698, 51160.82
436.6519, 51152.27
437.1341, 51164.01
437.6162, 51179.08
438.0983, 51186.77
438.5804, 51189.31
439.0625, 51186.47
439.5446, 51173.28
440.0268, 51171.95
440.5089, 51213.39
440.9910, 51281.02
441.4731, 51340.31
441.9552, 51376.30
442.4373, 51398.40
442.9195, 51408.52
443.4016, 51406.86
443.8837, 51405.60
444.3658, 51405.26
444.8479, 51408.63
445.3300, 51417.78
445.8122, 51433.46
446.2943, 51453.16
446.7764, 51482.63
447.2585, 51515.67
447.7406, 51536.80
448.2227, 51532.98
448.7049, 51529.21
449.1870, 51534.19
449.6691, 51550.73
450.1512, 51561.71
450.6333, 51568.71
451.1154, 51569.79
451.5976, 51559.98
452.0797, 51532.86
452.5618, 51521.66
453.0439, 51538.80
453.5260, 51572.62
454.0081, 51584.14
454.4903, 51570.30
454.9724, 51556.08
455.4545, 51554.09
455.9366, 51563.32
456.4187, 51577.09
456.9008, 51594.17
457.3830, 51618.03
457.8651, 51653.81
458.3472, 51699.02
458.8293, 51747.05
459.3114, 51806.57
459.7935, 51855.52
460.2757, 51853.86
460.7578, 51810.87
461.2399, 51776.09
461.7220, 51791.74
462.2041, 51823.59
462.6862, 51838.57
463.1684, 51829.27
463.6505, 51817.34
464.1326, 51815.01
464.6147, 51817.35
465.0968, 51817.72
465.5789, 51823.77
466.0611, 51819.69
466.5432, 51790.44
467.0253, 51740.66
467.5074, 51714.63
467.9895, 51744.86
468.4716, 51778.74
468.9538, 51790.06
469.4359, 51762.68
469.9180, 51746.35
470.4001, 51736.37
470.8822, 51739.49
471.3643, 51771.85
471.8465, 51848.74
472.3286, 51907.11
472.8107, 51924.71
473.2928, 51909.08
473.7749, 51906.74
474.2570, 51919.02
474.7392, 51936.08
475.2213, 51955.56
475.7034, 51975.51
476.1855, 51978.27
476.6676, 51957.67
477.1497, 51936.06
477.6319, 51949.54
478.1140, 51988.88
478.5961, 52023.01
479.0782, 52029.28
479.5603, 52029.39
480.0424, 52052.38
480.5246, 52095.39
481.0067, 52134.34
481.4888, 52152.74
481.9709, 52160.65
482.4530, 52165.32
482.9352, 52164.76
483.4173, 52168.23
483.8994, 52181.40
484.3815, 52199.79
484.8636, 52216.68
485.3457, 52229.60
485.8279, 52241.26
486.3100, 52253.60
486.7921, 52266.87
487.2742, 52275.18
487.7563, 52275.43
488.2384, 52275.71
488.7206, 52280.34
489.2027, 52289.11
489.6848, 52306.97
490.1669, 52341.35
490.6490, 52378.15
491.1311, 52391.18
491.6133, 52375.99
492.0954, 52367.34
492.5775, 52376.17
493.0596, 52399.10
493.5417, 52429.53
494.0238, 52467.02
494.5060, 52494.48
494.9881, 52482.95
495.4702, 52451.21
495.9523, 52450.43
496.4344, 52490.70
496.9165, 52542.57
497.3987, 52586.24
497.8808, 52619.64
498.3629, 52638.32
498.8450, 52627.38
499.3271, 52612.80
499.8092, 52619.21
500.2914, 52641.11
500.7735, 52645.84
501.2556, 52591.84
501.7377, 52539.70
502.2198, 52533.07
502.7019, 52609.50
503.1841, 52648.08
503.6662, 52590.29
504.1483, 52506.09
504.6304, 52479.14
505.1125, 52556.39
505.5946, 52614.46
506.0768, 52627.27
506.5589, 52605.20
507.0410, 52603.05
507.5231, 52626.57
508.0052, 52652.15
508.4873, 52667.28
508.9695, 52671.32
509.4516, 52671.82
509.9337, 52666.20
510.4158, 52665.69
510.8979, 52688.46
511.3800, 52729.13
511.8622, 52764.50
512.3443, 52791.18
512.8264, 52805.53
513.3085, 52787.74
513.7906, 52749.87
514.2728, 52734.81
514.7549, 52812.67
515.2370, 52894.63
515.7191, 52888.49
516.2012, 52782.87
516.6833, 52694.37
517.1655, 52688.14
517.6476, 52717.17
518.1297, 52741.42
518.6118, 52752.38
519.0939, 52759.07
519.5760, 52753.29
520.0582, 52744.79
520.5403, 52756.55
521.0224, 52802.49
521.5045, 52848.52
521.9866, 52884.06
522.4688, 52908.94
522.9509, 52939.71
523.4330, 52978.08
523.9151, 53017.11
524.3972, 53052.30
524.8793, 53083.07
525.3615, 53104.27
525.8436, 53110.20
526.3257, 53119.73
526.8078, 53178.29
527.2899, 53271.68
527.7720, 53331.06
528.2542, 53311.80
528.7363, 53256.81
529.2184, 53214.02
529.7005, 53184.13
530.1826, 53168.99
530.6647, 53191.28
531.1469, 53216.49
531.6290, 53208.45
532.1111, 53153.19
532.5932, 53112.90
533.0753, 53131.68
533.5574, 53170.36
534.0396, 53187.97
534.5217, 53152.14
535.0038, 53126.11
535.4859, 53124.19
535.9680, 53139.21
536.4501, 53148.43
536.9323, 53150.90
537.4144, 53148.99
537.8965, 53139.15
538.3786, 53120.48
538.8607, 53124.43
539.3428, 53156.53
539.8250, 53192.01
540.3071, 53199.32
540.7892, 53182.86
541.2713, 53194.09
541.7534, 53247.14
542.2355, 53311.13
542.7177, 53345.87
543.1998, 53356.20
543.6819, 53356.41
544.1640, 53346.48
544.6461, 53334.43
545.1282, 53323.12
545.6104, 53314.55
546.0925, 53319.51
546.5746, 53356.51
547.0567, 53400.14
547.5388, 53434.62
548.0209, 53457.03
548.5031, 53472.47
548.9852, 53475.12
549.4673, 53474.46
549.9494, 53480.72
550.4315, 53501.31
550.9136, 53516.07
551.3958, 53518.82
551.8779, 53514.68
552.3600, 53521.57
552.8421, 53543.70
553.3242, 53561.01
553.8063, 53564.36
554.2885, 53555.19
554.7706, 53545.61
555.2527, 53536.15
555.7348, 53522.36
556.2169, 53491.92
556.6990, 53454.87
557.1812, 53437.86
557.6633, 53448.29
558.1454, 53468.89
558.6275, 53489.93
559.1096, 53508.91
559.5917, 53521.58
560.0739, 53513.85
560.5560, 53511.31
561.0381, 53535.59
561.5202, 53578.55
562.0023, 53605.32
562.4844, 53593.27
562.9666, 53574.16
563.4487, 53561.74
563.9308, 53558.02
564.4129, 53550.17
564.8950, 53533.18
565.3771, 53516.56
565.8593, 53507.99
566.3414, 53508.20
566.8235, 53512.36
567.3056, 53521.55
567.7877, 53531.88
568.2698, 53535.18
568.7520, 53532.20
569.2341, 53532.00
569.7162, 53544.48
570.1983, 53558.79
570.6804, 53552.46
571.1625, 53528.41
571.6447, 53502.73
572.1268, 53476.30
572.6089, 53459.83
573.0910, 53468.41
573.5731, 53507.18
574.0552, 53546.00
574.5374, 53569.33
575.0195, 53587.24
575.5016, 53609.02
575.9837, 53639.96
576.4658, 53668.44
576.9479, 53689.13
577.4301, 53705.79
577.9122, 53727.16
578.3943, 53755.33
578.8764, 53780.14
579.3585, 53795.76
579.8406, 53803.90
580.3228, 53824.07
580.8049, 53858.74
581.2870, 53888.41
581.7691, 53901.51
582.2512, 53899.81
582.7333, 53886.93
583.2155, 53862.88
583.6976, 53838.66
584.1797, 53820.96
584.6617, 53811.83
585.1439, 53814.36
585.6260, 53832.38
586.1081, 53858.77
586.5902, 53903.57
587.0723, 53952.60
587.5544, 53977.54
588.0366, 53940.24
588.5187, 53907.68
589.0008, 53898.91
589.4829, 53913.43
589.9650, 53939.37
590.4471, 53990.31
590.9293, 54031.88
591.4114, 54042.56
591.8935, 54015.09
592.3756, 54005.21
592.8577, 54016.47
593.3398, 54034.83
593.8220, 54052.54
594.3041, 54067.73
594.7862, 54059.91
595.2683, 54018.74
595.7504, 53973.09
596.2325, 53967.48
596.7147, 53988.27
597.1968, 53999.23
597.6789, 53970.51
598.1610, 53938.93
598.6431, 53933.94
599.1252, 53950.73
599.6074, 53965.07
600.0895, 53977.04
600.5716, 53977.02
601.0537, 53954.64
601.5358, 53900.88
602.0179, 53865.77
602.5001, 53858.90
602.9822, 53861.70
603.4643, 53859.64
603.9464, 53849.01
604.4285, 53850.05
604.9106, 53867.49
605.3928, 53890.74
605.8749, 53900.13
606.3570, 53897.34
606.8391, 53905.82
607.3212, 53938.31
607.8033, 53977.95
608.2855, 53995.75
608.7676, 53997.05
609.2497, 54003.16
609.7318, 54030.21
610.2139, 54062.41
610.6960, 54089.88
611.1782, 54111.59
611.6603, 54123.45
612.1424, 54118.91
612.6245, 54108.06
613.1066, 54096.19
613.5887, 54079.63
614.0709, 54074.63
614.5530, 54094.71
615.0351, 54115.77
615.5172, 54107.61
615.9993, 54059.93
616.4814, 54033.34
616.9636, 54040.79
617.4457, 54066.98
617.9278, 54084.59
618.4099, 54093.85
618.8920, 54099.74
619.3741, 54098.79
619.8563, 54098.49
620.3384, 54119.46
620.8205, 54154.71
621.3026, 54171.30
621.7847, 54130.32
622.2668, 54077.28
622.7490, 54046.40
623.2311, 54042.15
623.7132, 54044.00
624.1953, 54057.40
624.6774, 54069.11
625.1595, 54070.43
625.6417, 54060.04
626.1238, 54044.47
626.6059, 54022.68
627.0880, 53999.26
627.5701, 53976.74
628.0522, 53953.83
628.5344, 53949.36
629.0165, 53970.00
629.4986, 54006.92
629.9807, 54049.21
630.4628, 54094.48
630.9449, 54130.28
631.4271, 54138.92
631.9092, 54141.56
632.3913, 54166.49
632.8734, 54208.61
633.3555, 54238.69
633.8376, 54217.34
634.3198, 54197.78
634.8019, 54219.20
635.2840, 54297.26
635.7661, 54351.63
636.2482, 54363.48
636.7303, 54358.89
637.2125, 54354.06
637.6946, 54348.04
638.1767, 54347.59
638.6588, 54356.38
639.1409, 54366.38
639.6230, 54364.61
640.1052, 54352.24
640.5873, 54341.30
641.0694, 54334.43
641.5515, 54332.39
642.0336, 54340.78
642.5157, 54355.48
642.9979, 54364.41
643.4800, 54350.48
643.9621, 54337.32
644.4442, 54345.55
644.9263, 54371.22
645.4084, 54390.61
645.8906, 54377.61
646.3727, 54372.83
646.8548, 54405.57
647.3369, 54485.82
647.8190, 54524.72
648.3011, 54504.91
648.7833, 54469.55
649.2654, 54450.29
649.7475, 54448.44
650.2296, 54439.95
650.7117, 54419.27
651.1938, 54407.66
651.6760, 54440.26
652.1581, 54504.55
652.6402, 54561.02
653.1223, 54597.82
653.6044, 54626.16
654.0865, 54659.21
654.5687, 54691.05
655.0508, 54710.88
655.5329, 54698.99
656.0150, 54690.55
656.4971, 54702.79
656.9792, 54731.16
657.4614, 54750.17
657.9435, 54746.54
658.4256, 54750.92
658.9077, 54779.86
659.3898, 54831.17
659.8719, 54847.84
660.3541, 54823.09
660.8362, 54795.16
661.3183, 54795.13
661.8004, 54814.85
662.2825, 54820.12
662.7646, 54808.51
663.2468, 54794.53
663.7289, 54789.29
664.2110, 54790.49
664.6931, 54797.79
665.1752, 54818.31
665.6573, 54827.21
666.1395, 54797.74
666.6216, 54757.53
667.1037, 54740.44
667.5858, 54770.40
668.0679, 54800.82
668.5500, 54831.02
669.0322, 54858.30
669.5143, 54874.88
669.9964, 54878.59
670.4785, 54881.46
670.9606, 54887.37
671.4427, 54894.16
671.9249, 54889.84
672.4070, 54876.98
672.8891, 54878.96
673.3712, 54932.77
673.8533, 54994.99
674.3354, 55005.09
674.8176, 54967.46
675.2997, 54940.30
675.7818, 54962.41
676.2639, 54997.52
676.7460, 55025.93
677.2281, 55046.16
677.7103, 55053.73
678.1924, 55026.96
678.6745, 55009.64
679.1566, 55039.65
679.6387, 55130.81
680.1208, 55202.46
680.6030, 55248.41
681.0851, 55280.91
681.5672, 55320.77
682.0493, 55362.36
682.5314, 55380.18
683.0135, 55358.14
683.4957, 55332.48
683.9778, 55348.52
684.4599, 55387.46
684.9420, 55413.51
685.4241, 55401.90
685.9063, 55387.74
686.3884, 55381.56
686.8705, 55383.38
687.3526, 55392.33
687.8347, 55415.52
688.3168, 55436.24
688.7990, 55446.94
689.2811, 55451.49
689.7632, 55477.94
690.2453, 55530.78
690.7274, 55576.26
691.2095, 55586.45
691.6917, 55574.23
692.1738, 55579.72
692.6559, 55602.23
693.1380, 55625.04
693.6201, 55633.82
694.1022, 55636.95
694.5844, 55639.53
695.0665, 55639.94
695.5486, 55651.23
696.0307, 55683.17
696.5128, 55723.38
696.9949, 55764.21
697.4771, 55818.02
697.9592, 55843.25
698.4413, 55826.12
698.9234, 55799.31
699.4055, 55811.48
699.8876, 55864.66
700.3698, 55885.70
700.8519, 55854.75
701.3340, 55810.47
701.8161, 55809.10
702.2982, 55838.12
702.7803, 55865.13
703.2625, 55878.36
703.7446, 55886.25
704.2267, 55883.64
704.7088, 55880.11
705.1909, 55897.05
705.6730, 55965.10
706.1552, 56024.17
706.6373, 56053.07
707.1194, 56059.16
707.6015, 56082.29
708.0836, 56130.44
708.5657, 56165.89
709.0479, 56163.78
709.5300, 56136.65
710.0121, 56148.83
710.4942, 56197.96
710.9763, 56236.11
711.4584, 56226.27
711.9406, 56189.68
712.4227, 56149.07
712.9048, 56106.32
713.3869, 56066.70
713.8690, 56039.76
714.3511, 56013.09
714.8333, 55976.48
715.3154, 55923.12
715.7975, 55885.90
716.2796, 55879.22
716.7617, 55873.53
717.2438, 55841.18
717.7260, 55779.14
718.2081, 55735.01
718.6902, 55713.50
719.1723, 55705.79
719.6544, 55705.66
720.1365, 55711.14
720.6187, 55715.90
721.1008, 55715.99
721.5829, 55721.39
722.0650, 55739.71
722.5471, 55766.91
723.0292, 55798.22
723.5114, 55835.85
723.9935, 55870.44
724.4756, 55898.47
724.9577, 55922.24
725.4398, 55946.21
725.9219, 55969.57
726.4041, 55992.66
726.8862, 56013.80
727.3683, 56036.00
727.8504, 56073.29
728.3325, 56121.58
728.8146, 56152.46
729.2968, 56143.41
729.7789, 56118.27
730.2610, 56100.00
730.7431, 56087.88
731.2252, 56079.66
731.7073, 56074.57
732.1895, 56073.13
732.6716, 56079.93
733.1537, 56093.70
733.6358, 56095.18
734.1179, 56074.84
734.6000, 56060.21
735.0822, 56069.92
735.5643, 56099.46
736.0464, 56093.31
736.5285, 56050.05
737.0106, 56007.03
737.4927, 55989.89
737.9749, 55991.30
738.4570, 56000.98
738.9391, 56018.18
739.4212, 56038.43
739.9033, 56077.93
740.3854, 56105.59
740.8676, 56088.48
741.3497, 56000.77
741.8318, 55959.50
742.3139, 56002.87
742.7960, 56056.91
743.2781, 56067.73
743.7603, 56026.24
744.2424, 56008.98
744.7245, 56022.20
745.2066, 56043.50
745.6887, 56050.80
746.1708, 56048.43
746.6530, 56045.16
747.1351, 56041.58
747.6172, 56044.42
748.0993, 56067.54
748.5814, 56096.42
749.0635, 56112.68
749.5457, 56081.82
750.0278, 56087.72
750.5099, 56160.97
750.9920, 56260.63
751.4741, 56344.13
751.9562, 56411.93
752.4384, 56448.89
752.9205, 56443.47
753.4026, 56422.09
753.8847, 56427.30
754.3668, 56452.91
754.8489, 56476.56
755.3311, 56491.55
755.8132, 56501.29
756.2953, 56504.55
756.7774, 56505.49
757.2595, 56511.36
757.7416, 56540.27
758.2238, 56557.16
758.7059, 56550.38
759.1880, 56529.13
759.6701, 56509.85
760.1522, 56491.76
760.6343, 56482.36
761.1165, 56487.51
761.5986, 56499.80
762.0807, 56497.59
762.5628, 56484.02
763.0449, 56475.99
763.5270, 56485.43
764.0092, 56500.02
764.4913, 56505.64
764.9734, 56506.17
765.4555, 56514.34
765.9376, 56540.71
766.4197, 56568.20
766.9019, 56592.17
767.3840, 56611.83
767.8661, 56625.13
768.3482, 56632.08
768.8303, 56630.65
769.3124, 56616.68
769.7946, 56594.55
770.2767, 56576.86
770.7588, 56564.04
771.2409, 56560.40
771.7230, 56572.15
772.2051, 56592.21
772.6873, 56621.16
773.1694, 56655.91
773.6515, 56674.66
774.1336, 56661.30
774.6157, 56639.08
775.0978, 56609.89
775.5800, 56575.30
776.0621, 56578.27
776.5442, 56633.54
777.0263, 56685.09
777.5084, 56694.48
777.9905, 56673.40
778.4727, 56676.77
778.9548, 56703.52
779.4369, 56740.14
779.9190, 56793.92
780.4011, 56840.71
780.8832, 56846.91
781.3654, 56810.95
781.8475, 56791.86
782.3296, 56833.76
782.8117, 56873.88
783.2938, 56878.21
783.7759, 56842.57
784.2581, 56822.83
784.7402, 56823.07
785.2223, 56829.84
785.7044, 56844.50
786.1865, 56860.03
786.6686, 56838.16
787.1508, 56778.86
787.6329, 56724.43
788.1150, 56694.55
788.5971, 56691.68
789.0792, 56728.77
789.5613, 56812.91
790.0435, 56877.61
790.5256, 56890.04
791.0077, 56891.79
791.4898, 56901.67
791.9719, 56918.07
792.4540, 56950.18
792.9362, 57001.95
793.4183, 57046.54
793.9004, 57056.15
794.3825, 57040.45
794.8646, 57025.49
795.3467, 57013.11
795.8289, 57002.75
796.3110, 57002.51
796.7931, 56999.79
797.2752, 56981.12
797.7573, 56939.29
798.2394, 56911.17
798.7216, 56911.42
799.2037, 56916.57
799.6858, 56909.27
800.1679, 56885.73
800.6500, 56888.18
801.1321, 56920.28
801.6143, 56957.37
802.0964, 56981.24
802.5785, 56992.85
803.0606, 56989.47
803.5427, 56969.26
804.0248, 56954.25
804.5070, 56952.82
804.9891, 56963.74
805.4712, 56989.02
805.9533, 57037.45
806.4354, 57069.01
806.9175, 57071.00
807.3997, 57073.34
807.8818, 57103.38
808.3639, 57159.71
808.8460, 57200.07
809.3281, 57223.51
809.8102, 57224.61
810.2924, 57170.41
810.7745, 57104.03
811.2566, 57091.54
811.7387, 57147.49
812.2208, 57201.39
812.7029, 57220.84
813.1851, 57231.64
813.6672, 57253.00
814.1493, 57290.32
814.6314, 57317.14
815.1135, 57329.99
815.5956, 57340.37
816.0778, 57358.38
816.5599, 57381.47
817.0420, 57396.06
817.5241, 57400.76
818.0062, 57408.28
818.4883, 57431.33
818.9705, 57459.33
819.4526, 57481.12
819.9347, 57493.63
820.4168, 57507.98
820.8989, 57537.43
821.3810, 57558.41
821.8632, 57556.26
822.3453, 57528.09
822.8274, 57513.38
823.3095, 57516.81
823.7916, 57512.80
824.2737, 57470.36
824.7559, 57410.45
825.2380, 57375.68
825.7201, 57369.00
826.2022, 57371.14
826.6843, 57385.08
827.1664, 57393.09
827.6486, 57373.98
828.1307, 57317.33
828.6128, 57303.84
829.0949, 57353.45
829.5770, 57410.69
830.0591, 57444.18
830.5413, 57456.02
831.0234, 57478.74
831.5055, 57511.71
831.9876, 57539.88
832.4697, 57561.93
832.9518, 57567.45
833.4340, 57523.87
833.9161, 57436.70
834.3982, 57397.55
834.8803, 57505.56
835.3624, 57602.09
835.8445, 57608.50
836.3267, 57530.09
836.8088, 57493.31
837.2909, 57507.26
837.7730, 57523.34
838.2551, 57504.92
838.7372, 57472.63
839.2194, 57485.04
839.7015, 57535.36
840.1836, 57583.25
840.6657, 57602.15
841.1478, 57614.17
841.6299, 57633.88
842.1121, 57659.84
842.5942, 57675.72
843.0763, 57677.09
843.5584, 57673.29
844.0405, 57662.10
844.5226, 57648.88
845.0048, 57662.64
845.4869, 57700.74
845.9690, 57728.00
846.4511, 57711.82
846.9332, 57688.23
847.4153, 57709.52
847.8975, 57757.05
848.3796, 57777.48
848.8617, 57719.94
849.3438, 57671.38
849.8259, 57658.71
850.3080, 57672.36
850.7902, 57690.68
851.2723, 57715.36
851.7544, 57735.24
852.2365, 57744.89
852.7186, 57751.98
853.2007, 57772.11
853.6829, 57800.76
854.1650, 57825.27
854.6471, 57830.21
855.1292, 57842.45
855.6113, 57883.88
856.0934, 57937.99
856.5756, 57975.39
857.0577, 57989.06
857.5398, 57995.63
858.0219, 57992.71
858.5040, 57989.41
858.9861, 58004.30
859.4683, 58033.24
859.9504, 58053.96
860.4325, 58059.38
860.9146, 58060.04
861.3967, 58067.91
861.8788, 58075.37
862.3610, 58071.81
862.8431, 58038.16
863.3252, 58025.70
863.8073, 58061.63
864.2894, 58097.10
864.7715, 58072.68
865.2537, 57984.11
865.7358, 57946.55
866.2179, 57975.38
866.7000, 58013.90
867.1821, 58001.75
867.6642, 57965.18
868.1464, 57936.47
868.6285, 57918.28
869.1106, 57927.65
869.5927, 57997.90
870.0748, 58076.05
870.5569, 58126.57
871.0391, 58144.75
871.5212, 58154.20
872.0033, 58149.15
872.4854, 58149.85
872.9675, 58175.58
873.4496, 58215.18
873.9318, 58242.69
874.4139, 58257.11
874.8960, 58269.23
875.3781, 58294.58
875.8602, 58311.30
876.3423, 58300.44
876.8245, 58262.29
877.3066, 58239.53
877.7887, 58243.55
878.2708, 58243.40
878.7529, 58227.37
879.2350, 58201.23
879.7172, 58175.13
880.1993, 58152.40
880.6814, 58143.80
881.1635, 58158.56
881.6456, 58187.51
882.1277, 58230.88
882.6099, 58282.57
883.0920, 58325.49
883.5741, 58354.64
884.0562, 58371.27
884.5383, 58366.37
885.0204, 58353.28
885.5026, 58363.33
885.9847, 58394.22
886.4668, 58429.85
886.9489, 58467.76
887.4310, 58501.48
887.9131, 58522.24
888.3953, 58534.92
888.8774, 58547.54
889.3595, 58571.10
889.8416, 58583.11
890.3237, 58571.73
890.8058, 58557.08
891.2880, 58565.74
891.7701, 58601.86
892.2522, 58607.70
892.7343, 58574.90
893.2164, 58534.55
893.6985, 58509.40
894.1807, 58501.18
894.6628, 58520.34
895.1449, 58574.32
895.6270, 58608.84
896.1091, 58589.35
896.5912, 58557.24
897.0734, 58535.74
897.5555, 58525.59
898.0376, 58528.31
898.5197, 58547.50
899.0018, 58563.33
899.4839, 58554.54
899.9661, 58536.95
900.4482, 58540.93
900.9303, 58564.79
901.4124, 58591.76
901.8945, 58622.08
902.3766, 58645.01
902.8588, 58644.93
903.3409, 58630.05
903.8230, 58642.85
904.3051, 58690.20
904.7872, 58734.03
905.2693, 58760.59
905.7515, 58776.52
906.2336, 58793.83
906.7157, 58812.00
907.1978, 58830.62
907.6799, 58850.86
908.1620, 58869.53
908.6442, 58884.86
909.1263, 58898.72
909.6084, 58914.86
910.0905, 58937.02
910.5726, 58954.10
911.0547, 58965.34
911.5369, 58973.48
912.0190, 58985.84
912.5011, 58998.18
912.9832, 58994.31
913.4653, 58968.66
913.9474, 58946.63
914.4296, 58939.59
914.9117, 58945.81
915.3938, 58967.23
915.8759, 59009.06
916.3580, 59034.59
916.8401, 59033.84
917.3223, 59038.99
917.8044, 59092.01
918.2865, 59168.88
918.7686, 59167.19
919.2507, 59094.97
919.7328, 59030.59
920.2150, 59040.49
920.6971, 59059.24
921.1792, 59038.66
921.6613, 58985.80
922.1434, 58963.98
922.6255, 58989.40
923.1077, 59011.54
923.5898, 59012.74
924.0719, 59005.17
924.5540, 59019.39
925.0361, 59050.26
925.5182, 59078.07
926.0004, 59095.70
926.4825, 59105.49
926.9646, 59095.30
927.4467, 59081.61
927.9288, 59092.29
928.4109, 59151.43
928.8931, 59185.77
929.3752, 59188.98
929.8573, 59172.45
930.3394, 59142.68
930.8215, 59104.38
931.3036, 59073.18
931.7858, 59051.98
932.2679, 59032.81
932.7500, 59005.24
933.2321, 58982.89
933.7142, 58980.68
934.1964, 59004.97
934.6785, 59012.23
935.1606, 58996.52
935.6427, 58980.35
936.1248, 58975.84
936.6069, 58979.80
937.0891, 58975.21
937.5712, 58966.42
938.0533, 58976.99
938.5354, 59034.16
939.0175, 59098.36
939.4996, 59151.90
939.9818, 59192.96
940.4639, 59216.84
940.9460, 59210.79
941.4281, 59218.58
941.9102, 59251.98
942.3923, 59292.21
942.8745, 59307.71
943.3566, 59305.31
943.8387, 59303.99
944.3208, 59307.93
944.8029, 59316.20
945.2850, 59332.30
945.7672, 59351.12
946.2493, 59370.25
946.7314, 59394.99
947.2135, 59398.57
947.6956, 59375.31
948.1777, 59352.73
948.6599, 59358.52
949.1420, 59379.73
949.6241, 59381.54
950.1062, 59365.64
950.5883, 59354.23
951.0704, 59353.13
951.5526, 59364.49
952.0347, 59402.70
952.5168, 59455.15
952.9989, 59471.01
953.4810, 59440.93
953.9631, 59419.52
954.4453, 59428.32
954.9274, 59442.84
955.4095, 59413.61
955.8916, 59360.69
956.3737, 59327.74
956.8558, 59342.68
957.3380, 59353.95
957.8201, 59336.88
958.3022, 59314.09
958.7843, 59307.25
959.2664, 59320.03
959.7485, 59330.75
960.2307, 59338.69
960.7128, 59345.60
961.1949, 59345.61
961.6770, 59349.20
962.1591, 59379.97
962.6412, 59436.68
963.1234, 59474.03
963.6055, 59433.60
964.0876, 59419.57
964.5697, 59484.14
965.0518, 59600.78
965.5339, 59651.98
966.0161, 59637.18
966.4982, 59611.46
966.9803, 59584.02
967.4624, 59573.38
967.9445, 59625.21
968.4266, 59702.09
968.9088, 59741.36
969.3909, 59699.30
969.8730, 59656.20
970.3551, 59615.16
970.8372, 59579.34
971.3193, 59548.82
971.8015, 59525.44
972.2836, 59524.96
972.7657, 59550.06
973.2478, 59570.07
973.7299, 59545.74
974.2120, 59518.50
974.6942, 59531.49
975.1763, 59588.00
975.6584, 59613.48
976.1405, 59581.35
976.6226, 59569.83
977.1047, 59614.89
977.5869, 59692.76
978.0690, 59735.96
978.5511, 59752.70
979.0332, 59777.52
979.5153, 59838.85
979.9974, 59889.59
980.4796, 59909.53
980.9617, 59900.24
981.4438, 59859.30
981.9259, 59758.37
982.4080, 59724.22
982.8901, 59777.98
983.3723, 59842.04
983.8544, 59824.48
984.3365, 59767.63
984.8186, 59755.09
985.3007, 59793.25
985.7828, 59829.46
986.2650, 59837.30
986.7471, 59842.14
987.2292, 59854.53
987.7113, 59873.05
988.1934, 59889.09
988.6755, 59901.51
989.1577, 59925.42
989.6398, 59971.79
990.1219, 60021.19
990.6040, 60055.18
991.0861, 60073.69
991.5682, 60076.48
992.0504, 60035.76
992.5325, 60022.93
993.0146, 60056.36
993.4967, 60100.82
993.9788, 60126.59
994.4609, 60134.85
994.9431, 60130.45
995.4252, 60114.08
995.9073, 60096.59
996.3894, 60082.30
996.8715, 60073.39
997.3536, 60080.93
997.8358, 60100.91
998.3179, 60084.10
998.8000, 60002.56
999.2821, 59959.13
999.7642, 59994.73
1000.246, 60069.28
1000.728, 60115.02
1001.211, 60132.66
1001.693, 60117.68
1002.175, 60049.90
1002.657, 59992.17
1003.139, 59965.70
1003.621, 59967.73
1004.103, 59998.97
1004.585, 60066.93
1005.068, 60117.76
1005.550, 60149.91
1006.032, 60178.26
1006.514, 60212.84
1006.996, 60249.97
1007.478, 60295.57
1007.960, 60342.76
1008.442, 60359.07
1008.924, 60278.77
1009.407, 60242.47
1009.889, 60297.46
1010.371, 60393.36
1010.853, 60427.42
1011.335, 60406.73
1011.817, 60369.13
1012.299, 60318.23
1012.781, 60279.34
1013.263, 60288.94
1013.746, 60310.64
1014.228, 60305.15
1014.710, 60261.95
1015.192, 60246.82
1015.674, 60267.97
1016.156, 60293.91
1016.638, 60300.98
1017.120, 60301.24
1017.603, 60319.76
1018.085, 60353.71
1018.567, 60394.46
1019.049, 60440.88
1019.531, 60486.45
1020.013, 60522.14
1020.495, 60557.29
1020.977, 60615.61
1021.459, 60697.48
1021.942, 60732.82
1022.424, 60708.11
1022.906, 60670.77
1023.388, 60672.70
1023.870, 60680.21
1024.352, 60652.27
1024.834, 60582.07
1025.316, 60544.04
1025.799, 60560.54
1026.281, 60574.92
1026.763, 60557.27
1027.245, 60530.87
1027.727, 60574.79
1028.209, 60663.93
1028.691, 60710.08
1029.173, 60641.74
1029.656, 60582.59
1030.138, 60595.18
1030.620, 60642.16
1031.102, 60686.31
1031.584, 60729.48
1032.066, 60747.37
1032.548, 60735.15
1033.030, 60731.52
1033.512, 60773.92
1033.995, 60838.39
1034.477, 60903.86
1034.959, 60966.43
1035.441, 61014.55
1035.923, 61059.65
1036.405, 61064.02
1036.887, 61003.16
1037.369, 60918.28
1037.851, 60898.62
1038.334, 60926.46
1038.816, 60927.75
1039.298, 60879.77
1039.780, 60834.52
1040.262, 60827.01
1040.744, 60833.79
1041.226, 60836.84
1041.708, 60835.86
1042.191, 60835.89
1042.673, 60836.65
1043.155, 60843.68
1043.637, 60872.04
1044.119, 60898.08
1044.601, 60868.37
1045.083, 60812.42
1045.565, 60798.81
1046.047, 60909.91
1046.530, 60969.80
1047.012, 60939.26
1047.494, 60889.68
1047.976, 60910.18
1048.458, 60983.52
1048.940, 61020.51
1049.422, 61015.38
1049.904, 61014.98
1050.386, 61079.22
1050.869, 61128.61
1051.351, 61075.64
1051.833, 60961.74
1052.315, 60976.32
1052.797, 61141.36
1053.279, 61264.26
1053.761, 61288.21
1054.243, 61267.11
1054.726, 61247.56
1055.208, 61236.44
1055.690, 61245.23
1056.172, 61283.14
1056.654, 61321.59
1057.136, 61367.89
1057.618, 61397.18
1058.100, 61390.30
1058.583, 61355.43
1059.065, 61314.89
1059.547, 61272.92
1060.029, 61248.43
1060.511, 61268.41
1060.993, 61289.12
1061.475, 61280.95
1061.957, 61269.41
1062.439, 61292.94
1062.922, 61356.76
1063.404, 61416.23
1063.886, 61469.81
1064.368, 61499.38
1064.850, 61474.39
1065.332, 61428.19
1065.814, 61385.43
1066.296, 61349.99
1066.778, 61341.22
1067.261, 61370.75
1067.743, 61399.38
1068.225, 61416.13
1068.707, 61426.97
1069.189, 61442.03
1069.671, 61459.52
1070.153, 61479.66
1070.635, 61508.96
1071.118, 61514.04
1071.600, 61450.41
1072.082, 61389.04
1072.564, 61379.36
1073.046, 61415.14
1073.528, 61394.67
1074.010, 61324.52
1074.492, 61285.77
1074.974, 61360.36
1075.457, 61439.89
1075.939, 61427.67
1076.421, 61371.76
1076.903, 61356.34
1077.385, 61404.09
1077.867, 61431.37
1078.349, 61430.22
1078.831, 61423.47
1079.313, 61429.18
1079.796, 61443.23
1080.278, 61466.46
1080.760, 61494.80
1081.242, 61505.36
1081.724, 61457.32
1082.206, 61436.99
1082.688, 61472.07
1083.170, 61531.26
1083.652, 61559.54
1084.135, 61562.76
1084.617, 61557.34
1085.099, 61544.76
1085.581, 61540.51
1086.063, 61579.15
1086.545, 61605.29
1087.027, 61572.61
1087.509, 61491.09
1087.992, 61465.95
1088.474, 61497.91
1088.956, 61535.64
1089.438, 61563.80
1089.920, 61579.46
1090.402, 61562.75
1090.884, 61539.43
1091.366, 61547.63
1091.849, 61608.33
1092.331, 61658.76
1092.813, 61700.65
1093.295, 61726.23
1093.777, 61714.77
1094.259, 61689.92
1094.741, 61700.96
1095.223, 61738.22
1095.705, 61767.24
1096.188, 61737.80
1096.670, 61754.10
1097.152, 61859.29
1097.634, 61977.74
1098.116, 61999.51
1098.598, 61946.86
1099.080, 61920.55
1099.562, 61929.87
1100.044, 61966.46
1100.527, 62096.16
1101.009, 62179.54
1101.491, 62100.83
1101.973, 61925.94
1102.455, 61867.23
1102.937, 61926.27
1103.419, 61979.82
1103.901, 61999.36
1104.384, 61999.90
1104.866, 61976.52
1105.348, 61954.15
1105.830, 61964.29
1106.312, 62016.04
1106.794, 62038.21
1107.276, 62023.53
1107.758, 62005.82
1108.240, 61997.19
1108.723, 61997.43
1109.205, 61997.93
1109.687, 62008.18
1110.169, 62048.18
1110.651, 62151.43
1111.133, 62234.36
1111.615, 62298.89
1112.097, 62329.71
1112.579, 62292.01
1113.062, 62212.99
1113.544, 62197.05
1114.026, 62232.86
1114.508, 62263.00
1114.990, 62246.93
1115.472, 62237.08
1115.954, 62254.99
1116.436, 62284.18
1116.919, 62310.71
1117.401, 62333.72
1117.883, 62317.33
1118.365, 62259.05
1118.847, 62222.45
1119.329, 62284.10
1119.811, 62354.38
1120.293, 62370.61
1120.776, 62345.54
1121.258, 62319.20
1121.740, 62287.23
1122.222, 62302.29
1122.704, 62389.17
1123.186, 62460.14
1123.668, 62392.16
1124.150, 62281.28
1124.632, 62231.58
1125.115, 62261.67
1125.597, 62278.04
1126.079, 62271.00
1126.561, 62282.67
1127.043, 62345.46
1127.525, 62411.13
1128.007, 62394.21
1128.489, 62326.85
1128.971, 62260.95
1129.454, 62205.85
1129.936, 62167.98
1130.418, 62151.51
1130.900, 62146.32
1131.382, 62147.46
1131.864, 62155.05
1132.346, 62164.81
1132.828, 62179.81
1133.311, 62210.46
1133.793, 62270.98
1134.275, 62333.09
1134.757, 62394.39
1135.239, 62447.98
1135.721, 62484.33
1136.203, 62504.03
1136.685, 62525.60
1137.167, 62547.61
1137.650, 62557.92
1138.132, 62526.76
1138.614, 62506.14
1139.096, 62547.10
1139.578, 62603.61
1140.060, 62589.18
1140.542, 62502.14
1141.024, 62473.05
1141.506, 62519.04
1141.989, 62577.24
1142.471, 62617.01
1142.953, 62634.63
1143.435, 62619.09
1143.917, 62578.09
1144.399, 62540.81
1144.881, 62503.77
1145.363, 62500.29
1145.846, 62541.87
1146.328, 62597.77
1146.810, 62648.27
1147.292, 62684.26
1147.774, 62686.02
1148.256, 62646.89
1148.738, 62651.06
1149.220, 62720.66
1149.703, 62749.19
1150.185, 62678.45
1150.667, 62589.59
1151.149, 62616.32
1151.631, 62702.20
1152.113, 62758.07
1152.595, 62758.64
1153.077, 62751.61
1153.559, 62740.94
1154.042, 62724.76
1154.524, 62695.96
1155.006, 62666.90
1155.488, 62668.37
1155.970, 62691.53
1156.452, 62715.69
1156.934, 62746.54
1157.416, 62754.05
1157.898, 62724.05
1158.381, 62691.86
1158.863, 62689.95
1159.345, 62707.75
1159.827, 62693.92
1160.309, 62658.43
1160.791, 62642.63
1161.273, 62679.62
1161.755, 62718.76
1162.238, 62744.07
1162.720, 62767.68
1163.202, 62807.74
1163.684, 62858.77
1164.166, 62885.98
1164.648, 62889.57
1165.130, 62888.91
1165.612, 62899.63
1166.094, 62902.26
1166.577, 62878.73
1167.059, 62850.01
1167.541, 62858.52
1168.023, 62899.80
1168.505, 62900.26
1168.987, 62852.66
1169.469, 62814.02
1169.951, 62826.32
1170.433, 62858.16
1170.916, 62906.00
1171.398, 62955.14
1171.880, 62963.51
1172.362, 62931.58
1172.844, 62908.51
1173.326, 62902.18
1173.808, 62912.78
1174.290, 62956.29
1174.773, 63002.54
1175.255, 63025.07
1175.737, 63027.68
1176.219, 63032.24
1176.701, 63039.27
1177.183, 63036.85
1177.665, 63018.04
1178.147, 63004.04
1178.630, 63027.72
1179.112, 63058.00
1179.594, 63055.87
1180.076, 63084.66
1180.558, 63034.18
1181.040, 63105.04
1181.522, 63149.20
1182.004, 63124.45
1182.486, 63082.34
1182.969, 63067.45
1183.451, 63072.93
1183.933, 63092.30
1184.415, 63124.91
1184.897, 63168.84
1185.379, 63229.36
1185.861, 63262.55
1186.343, 63221.98
1186.825, 63174.20
1187.308, 63220.42
1187.790, 63304.62
1188.272, 63335.82
1188.754, 63283.09
1189.236, 63230.13
1189.718, 63173.88
1190.200, 63137.95
1190.682, 63143.55
1191.165, 63174.52
1191.647, 63230.01
1192.129, 63291.01
1192.611, 63316.76
1193.093, 63278.23
1193.575, 63259.09
1194.057, 63266.91
1194.539, 63268.77
1195.021, 63216.98
1195.504, 63158.38
1195.986, 63166.93
1196.468, 63222.03
1196.950, 63261.02
1197.432, 63256.83
1197.914, 63274.50
1198.396, 63324.70
1198.878, 63369.79
1199.360, 63362.36
1199.843, 63334.91
1200.325, 63335.43
1200.807, 63359.55
1201.289, 63382.05
1201.771, 63412.86
1202.253, 63407.93
1202.735, 63352.37
1203.217, 63297.21
1203.700, 63296.23
1204.182, 63333.53
1204.664, 63396.32
1205.146, 63478.04
1205.628, 63550.42
1206.110, 63613.84
1206.592, 63650.73
1207.074, 63650.95
1207.557, 63640.50
1208.039, 63647.63
1208.521, 63666.29
1209.003, 63696.93
1209.485, 63736.25
1209.967, 63742.20
1210.449, 63685.59
1210.931, 63658.84
1211.413, 63688.82
1211.896, 63736.36
1212.378, 63751.84
1212.860, 63750.36
1213.342, 63758.89
1213.824, 63780.99
1214.306, 63770.68
1214.788, 63713.04
1215.270, 63657.05
1215.752, 63612.63
1216.235, 63585.01
1216.717, 63606.15
1217.199, 63636.90
1217.681, 63606.79
1218.163, 63499.88
1218.645, 63447.34
1219.127, 63473.24
1219.609, 63505.23
1220.092, 63521.58
1220.574, 63531.13
1221.056, 63548.76
1221.538, 63567.08
1222.020, 63569.75
1222.502, 63548.80
1222.984, 63559.86
1223.466, 63613.56
1223.948, 63665.10
1224.431, 63696.85
1224.913, 63719.06
1225.395, 63751.91
1225.877, 63782.07
1226.359, 63790.30
1226.841, 63768.51
1227.323, 63744.22
1227.805, 63715.99
1228.287, 63692.05
1228.770, 63674.25
1229.252, 63665.43
1229.734, 63677.10
1230.216, 63696.55
1230.698, 63706.81
1231.180, 63704.59
1231.662, 63696.55
1232.144, 63682.30
1232.627, 63666.22
1233.109, 63648.94
1233.591, 63634.64
1234.073, 63639.78
1234.555, 63646.06
1235.037, 63624.66
1235.519, 63568.03
1236.001, 63519.40
1236.484, 63476.68
1236.966, 63475.01
1237.448, 63562.06
1237.930, 63652.08
1238.412, 63634.79
1238.894, 63578.91
1239.376, 63583.65
1239.858, 63662.41
1240.340, 63710.45
1240.823, 63724.29
1241.305, 63739.49
1241.787, 63774.40
1242.269, 63815.07
1242.751, 63846.15
1243.233, 63876.58
1243.715, 63923.53
1244.197, 63992.52
1244.679, 64012.63
1245.162, 63984.89
1245.644, 63943.36
1246.126, 63886.16
1246.608, 63850.11
1247.090, 63892.07
1247.572, 63949.05
1248.054, 63942.18
1248.536, 63868.94
1249.019, 63853.84
1249.501, 63892.41
1249.983, 63924.84
1250.465, 63894.29
1250.947, 63879.69
1251.429, 63950.04
1251.911, 64032.15
1252.393, 64048.64
1252.875, 64003.71
1253.358, 64008.58
1253.840, 64054.14
1254.322, 64087.06
1254.804, 64063.73
1255.286, 64040.45
1255.768, 64032.68
1256.250, 64035.24
1256.732, 64045.29
1257.214, 64063.24
1257.697, 64093.32
1258.179, 64134.08
1258.661, 64174.82
1259.143, 64238.39
1259.625, 64260.96
1260.107, 64208.57
1260.589, 64154.54
1261.071, 64170.33
1261.554, 64232.09
1262.036, 64261.73
1262.518, 64268.14
1263.000, 64285.47
1263.482, 64361.25
1263.964, 64385.04
1264.446, 64327.32
1264.928, 64262.51
1265.411, 64261.96
1265.893, 64292.06
1266.375, 64281.55
1266.857, 64247.95
1267.339, 64240.66
1267.821, 64297.54
1268.303, 64340.82
1268.785, 64370.95
1269.267, 64385.72
1269.750, 64370.85
1270.232, 64350.22
1270.714, 64362.87
1271.196, 64392.57
1271.678, 64396.21
1272.160, 64348.51
1272.642, 64348.51
1273.124, 64402.98
1273.606, 64458.18
1274.089, 64459.74
1274.571, 64457.57
1275.053, 64522.87
1275.535, 64602.75
1276.017, 64595.21
1276.499, 64473.89
1276.981, 64447.41
1277.463, 64518.74
1277.946, 64586.62
1278.428, 64582.44
1278.910, 64558.69
1279.392, 64549.02
1279.874, 64537.87
1280.356, 64493.04
1280.838, 64417.95
1281.320, 64434.59
1281.802, 64532.23
1282.285, 64602.74
1282.767, 64555.31
1283.249, 64511.62
1283.731, 64524.11
1284.213, 64547.06
1284.695, 64531.59
1285.177, 64490.89
1285.659, 64490.67
1286.141, 64525.78
1286.624, 64574.57
1287.106, 64654.74
1287.588, 64704.04
1288.070, 64706.97
1288.552, 64696.96
1289.034, 64701.65
1289.516, 64713.29
1289.998, 64703.19
1290.481, 64686.32
1290.963, 64701.77
1291.445, 64816.49
1291.927, 64852.00
1292.409, 64784.64
1292.891, 64729.29
1293.373, 64803.39
1293.855, 64908.25
1294.338, 64904.53
1294.820, 64843.34
1295.302, 64824.89
1295.784, 64870.70
1296.266, 64893.70
1296.748, 64892.51
1297.230, 64892.01
1297.712, 64899.71
1298.194, 64921.85
1298.677, 64988.43
1299.159, 65052.24
1299.641, 65048.80
1300.123, 64974.86
1300.605, 64927.28
1301.087, 64902.11
1301.569, 64867.27
1302.051, 64798.20
1302.533, 64714.95
1303.016, 64621.27
##END=



