##NAMES=Murmanite
##RRUFFID=R110202
##IDEAL CHEMISTRY=Na_2_Ti^4+^_2_Na_2_Ti^4+^_2_(Si_2_O_7_)_2_O_4_(H_2_O)_4_
##LOCALITY=Kvanefjeld Mt., Kuannersuit plateau, Ilimaussaq complex, Narsaq, Kitaa Province, Greenland
##OWNER=RRUFF
##SOURCE=Donald Doell
##DESCRIPTION=Pink plates frozen in matrix
##STATUS=The identification of this mineral has been confirmed only by single crystal X-ray diffraction.
##URL=rruff.info/R110202
121.0126, 127.1132
121.4948, 129.3559
121.9769, 131.9529
122.4590, 134.5768
122.9411, 136.9136
123.4232, 139.0100
123.9053, 140.8837
124.3875, 142.3256
124.8696, 143.5295
125.3517, 145.0268
125.8338, 146.9671
126.3159, 149.1270
126.7980, 151.3150
127.2802, 153.5433
127.7623, 155.8434
128.2444, 158.2552
128.7265, 160.7708
129.2086, 163.3758
129.6907, 166.1821
130.1729, 169.0075
130.6550, 171.7340
131.1371, 174.3613
131.6192, 176.9934
132.1013, 179.7050
132.5834, 182.2696
133.0656, 185.5051
133.5477, 189.6056
134.0298, 194.1331
134.5119, 198.7636
134.9940, 203.3772
135.4761, 208.0927
135.9583, 213.1439
136.4404, 218.7442
136.9225, 224.4163
137.4046, 230.1806
137.8867, 236.0169
138.3688, 241.8667
138.8510, 247.7708
139.3331, 253.6130
139.8152, 258.9876
140.2973, 264.1147
140.7794, 268.6606
141.2615, 272.4896
141.7437, 275.6086
142.2258, 278.0984
142.7079, 279.8286
143.1900, 280.9431
143.6721, 281.9265
144.1542, 282.8778
144.6364, 283.6032
145.1185, 283.8061
145.6006, 283.3973
146.0827, 283.0062
146.5648, 282.7106
147.0469, 282.6825
147.5291, 283.1938
148.0112, 284.4268
148.4933, 286.1643
148.9754, 287.8636
149.4575, 289.2202
149.9396, 291.1561
150.4218, 294.1757
150.9039, 297.7994
151.3860, 301.3749
151.8681, 304.5071
152.3502, 307.2826
152.8323, 310.2780
153.3145, 313.9778
153.7966, 317.4337
154.2787, 320.5594
154.7608, 323.3048
155.2429, 325.6226
155.7250, 327.4529
156.2072, 328.7530
156.6893, 330.0949
157.1714, 331.8049
157.6535, 333.2608
158.1356, 334.3840
158.6177, 335.0698
159.0999, 335.0835
159.5820, 334.1767
160.0641, 332.1848
160.5462, 329.8268
161.0283, 327.2326
161.5104, 324.2324
161.9926, 320.7025
162.4747, 316.6363
162.9568, 312.0648
163.4389, 307.0064
163.9210, 301.4604
164.4031, 295.5268
164.8853, 288.8402
165.3674, 281.8828
165.8495, 275.5414
166.3316, 270.0481
166.8137, 264.7928
167.2958, 259.1563
167.7780, 253.2304
168.2601, 247.3793
168.7422, 241.7381
169.2243, 236.2994
169.7064, 231.1529
170.1885, 226.4096
170.6707, 221.8747
171.1528, 217.3347
171.6349, 212.8312
172.1170, 208.5052
172.5991, 204.5386
173.0812, 200.9514
173.5634, 197.2982
174.0455, 193.3062
174.5276, 189.4248
175.0097, 185.8891
175.4918, 182.6768
175.9739, 179.6168
176.4561, 176.4892
176.9382, 173.1044
177.4203, 170.2495
177.9024, 168.3010
178.3845, 166.5253
178.8666, 164.5413
179.3488, 162.3147
179.8309, 160.0372
180.3130, 157.9933
180.7951, 156.2380
181.2772, 154.6461
181.7593, 153.2591
182.2415, 151.9873
182.7236, 150.8199
183.2057, 149.7388
183.6878, 148.6608
184.1699, 147.4524
184.6520, 146.0002
185.1342, 144.6439
185.6163, 143.3458
186.0984, 142.1691
186.5805, 141.2272
187.0626, 140.5643
187.5447, 140.0208
188.0269, 139.3117
188.5090, 138.3780
188.9911, 137.5392
189.4732, 136.8791
189.9553, 136.3578
190.4374, 135.9399
190.9196, 135.6439
191.4017, 135.3740
191.8838, 134.9445
192.3659, 134.3359
192.8480, 133.8242
193.3301, 133.5694
193.8123, 133.5219
194.2944, 133.4919
194.7765, 133.4002
195.2586, 133.3594
195.7407, 133.5257
196.2228, 133.9032
196.7050, 134.2168
197.1871, 134.2214
197.6692, 133.9322
198.1513, 133.6757
198.6334, 133.3939
199.1155, 133.2887
199.5977, 133.6530
200.0798, 134.4611
200.5619, 135.1651
201.0440, 135.0748
201.5261, 134.0097
202.0082, 133.3615
202.4904, 133.6577
202.9725, 134.1739
203.4546, 134.6719
203.9367, 135.0766
204.4188, 135.3184
204.9009, 135.2398
205.3831, 134.6586
205.8652, 134.3234
206.3473, 134.4080
206.8294, 134.6083
207.3115, 134.8709
207.7936, 135.1290
208.2758, 135.2133
208.7579, 134.8333
209.2400, 133.6293
209.7221, 132.7496
210.2042, 132.2264
210.6863, 131.9394
211.1685, 131.8858
211.6506, 132.0295
212.1327, 132.2304
212.6148, 132.2878
213.0969, 132.1417
213.5790, 131.9510
214.0612, 131.6348
214.5433, 131.3267
215.0254, 131.1428
215.5075, 131.1078
215.9896, 131.1435
216.4717, 131.1473
216.9539, 131.1235
217.4360, 131.0397
217.9181, 130.7829
218.4002, 130.5211
218.8823, 130.4677
219.3644, 130.6766
219.8466, 130.9259
220.3287, 130.8586
220.8108, 130.3761
221.2929, 130.1508
221.7750, 130.4164
222.2571, 130.9325
222.7393, 131.4148
223.2214, 131.8039
223.7035, 132.1606
224.1856, 132.5580
224.6677, 132.9917
225.1498, 133.4182
225.6320, 133.7883
226.1141, 134.1538
226.5962, 134.6328
227.0783, 135.2908
227.5604, 135.9270
228.0425, 136.2740
228.5247, 136.4018
229.0068, 136.6098
229.4889, 137.0520
229.9710, 137.6481
230.4531, 138.2135
230.9352, 138.6952
231.4174, 139.2187
231.8995, 140.0176
232.3816, 140.9580
232.8637, 141.6447
233.3458, 141.5720
233.8279, 141.0664
234.3101, 141.2611
234.7922, 142.5234
235.2743, 143.9318
235.7564, 145.0580
236.2385, 145.9282
236.7206, 146.5848
237.2028, 146.9965
237.6849, 147.2054
238.1670, 147.3808
238.6491, 147.4392
239.1312, 147.5994
239.6133, 147.9356
240.0955, 148.4182
240.5776, 149.0260
241.0597, 149.8119
241.5418, 150.6950
242.0239, 151.2562
242.5060, 151.3218
242.9882, 151.2722
243.4703, 151.0845
243.9524, 150.8937
244.4345, 150.9204
244.9166, 151.3333
245.3987, 152.0115
245.8809, 152.3605
246.3630, 152.0085
246.8451, 151.7945
247.3272, 151.9067
247.8093, 152.2426
248.2914, 152.6884
248.7736, 153.1924
249.2557, 153.7245
249.7378, 154.1565
250.2199, 154.4266
250.7020, 154.6636
251.1841, 154.8042
251.6663, 154.9468
252.1484, 155.2035
252.6305, 155.6306
253.1126, 156.1950
253.5947, 156.8050
254.0768, 157.4518
254.5590, 158.1603
255.0411, 158.9748
255.5232, 159.8354
256.0053, 160.7070
256.4874, 161.5709
256.9695, 162.3913
257.4517, 163.0795
257.9338, 163.4256
258.4159, 163.8896
258.8980, 164.5925
259.3801, 165.3639
259.8622, 166.0829
260.3444, 166.7012
260.8265, 167.1497
261.3086, 167.2917
261.7907, 166.9284
262.2728, 166.5317
262.7549, 165.9698
263.2371, 165.4410
263.7192, 165.2404
264.2013, 165.4306
264.6834, 165.6734
265.1655, 165.4458
265.6476, 164.4790
266.1298, 163.6608
266.6119, 163.1462
267.0940, 162.7081
267.5761, 162.1291
268.0582, 161.3665
268.5403, 160.5432
269.0225, 159.7840
269.5046, 159.0929
269.9867, 158.5124
270.4688, 158.2348
270.9509, 157.9529
271.4330, 157.3129
271.9152, 156.2967
272.3973, 155.3091
272.8794, 154.7961
273.3615, 154.7980
273.8436, 154.5086
274.3257, 153.7359
274.8079, 152.7915
275.2900, 151.8558
275.7721, 150.9506
276.2542, 150.1667
276.7363, 149.5896
277.2184, 149.2160
277.7006, 148.8375
278.1827, 148.4493
278.6648, 148.0624
279.1469, 147.6781
279.6290, 147.2997
280.1111, 146.9257
280.5933, 146.4772
281.0754, 146.0778
281.5575, 146.0616
282.0396, 146.7391
282.5217, 147.4184
283.0038, 147.6460
283.4860, 147.4895
283.9681, 147.2846
284.4502, 147.1172
284.9323, 147.0558
285.4144, 147.2409
285.8965, 147.7995
286.3787, 148.2874
286.8608, 148.1615
287.3429, 147.6915
287.8250, 147.9701
288.3071, 149.6700
288.7892, 151.8453
289.2714, 153.0579
289.7535, 153.2100
290.2356, 153.3659
290.7177, 153.9573
291.1998, 154.9248
291.6819, 156.2136
292.1641, 157.9989
292.6462, 159.7335
293.1283, 160.6747
293.6104, 160.9250
294.0925, 161.3178
294.5746, 162.2050
295.0568, 163.4508
295.5389, 164.8118
296.0210, 166.2828
296.5031, 167.7990
296.9852, 169.3640
297.4673, 170.9452
297.9495, 172.4492
298.4316, 173.7876
298.9137, 175.0480
299.3958, 176.3643
299.8779, 177.7534
300.3600, 179.1325
300.8422, 180.4224
301.3243, 181.6658
301.8064, 182.9182
302.2885, 184.2367
302.7706, 185.5415
303.2527, 186.7637
303.7349, 187.9102
304.2170, 188.9476
304.6991, 189.9064
305.1812, 190.7078
305.6633, 191.2001
306.1454, 191.2470
306.6276, 191.2696
307.1097, 191.7236
307.5918, 192.5758
308.0739, 193.2392
308.5560, 193.3901
309.0381, 193.3746
309.5203, 193.6236
310.0024, 194.1768
310.4845, 194.6964
310.9666, 194.9620
311.4487, 195.0005
311.9308, 194.8737
312.4130, 194.3618
312.8951, 194.0425
313.3772, 194.5379
313.8593, 195.7349
314.3414, 196.9173
314.8235, 197.6989
315.3057, 198.2053
315.7878, 198.7898
316.2699, 199.5320
316.7520, 200.2193
317.2341, 200.5907
317.7162, 200.7854
318.1984, 201.1153
318.6805, 201.7458
319.1626, 202.5503
319.6447, 203.3966
320.1268, 204.3299
320.6089, 205.0761
321.0911, 205.1826
321.5732, 205.0911
322.0553, 205.4594
322.5374, 206.6045
323.0195, 207.9431
323.5016, 208.9039
323.9838, 209.4917
324.4659, 209.8897
324.9480, 209.9902
325.4301, 210.0576
325.9122, 210.4579
326.3943, 211.2828
326.8765, 212.0732
327.3586, 212.5250
327.8407, 212.6657
328.3228, 212.5463
328.8049, 211.8565
329.2870, 211.3800
329.7692, 212.1357
330.2513, 213.9981
330.7334, 215.5647
331.2155, 215.8553
331.6976, 215.3895
332.1797, 215.4263
332.6619, 216.2310
333.1440, 217.1576
333.6261, 217.6314
334.1082, 217.8141
334.5903, 218.0796
335.0724, 218.4792
335.5546, 219.0475
336.0367, 219.9585
336.5188, 221.2586
337.0009, 222.3579
337.4830, 222.7267
337.9651, 222.7244
338.4473, 223.0184
338.9294, 223.7230
339.4115, 224.6682
339.8936, 225.8512
340.3757, 227.2275
340.8578, 228.3932
341.3400, 229.0818
341.8221, 229.6144
342.3042, 230.4983
342.7863, 231.7864
343.2684, 233.1100
343.7505, 234.1722
344.2327, 235.1406
344.7148, 236.5710
345.1969, 238.7940
345.6790, 240.9205
346.1611, 241.5937
346.6432, 241.0635
347.1254, 240.8767
347.6075, 241.7582
348.0896, 243.0389
348.5717, 243.9982
349.0538, 244.5859
349.5359, 244.7051
350.0181, 244.0873
350.5002, 242.8982
350.9823, 241.9723
351.4644, 241.6733
351.9465, 241.3803
352.4286, 240.6675
352.9108, 239.5903
353.3929, 238.4037
353.8750, 237.2438
354.3571, 236.0363
354.8392, 234.5619
355.3214, 232.6412
355.8035, 230.8928
356.2856, 229.7059
356.7677, 228.8151
357.2498, 227.7251
357.7319, 226.2746
358.2141, 224.7057
358.6962, 223.3480
359.1783, 222.2486
359.6604, 221.0587
360.1425, 219.6638
360.6246, 218.2021
361.1068, 216.8090
361.5889, 215.4865
362.0710, 214.2017
362.5531, 212.9661
363.0352, 211.7602
363.5173, 210.2839
363.9995, 208.0574
364.4816, 206.0509
364.9637, 204.9732
365.4458, 204.5061
365.9279, 203.7573
366.4100, 202.2110
366.8922, 200.1940
367.3743, 198.8091
367.8564, 198.5305
368.3385, 198.1596
368.8206, 197.6019
369.3027, 196.8483
369.7849, 195.7735
370.2670, 194.3711
370.7491, 192.9749
371.2312, 192.0808
371.7133, 191.9538
372.1954, 191.5495
372.6776, 190.5476
373.1597, 189.5596
373.6418, 189.0467
374.1239, 188.9346
374.6060, 188.7887
375.0881, 188.2474
375.5703, 187.3268
376.0524, 186.5260
376.5345, 185.9779
377.0166, 185.3915
377.4987, 184.6227
377.9808, 183.7936
378.4630, 183.0463
378.9451, 182.4452
379.4272, 182.0281
379.9093, 181.9247
380.3914, 182.5736
380.8735, 182.7867
381.3557, 182.2453
381.8378, 181.4992
382.3199, 180.9242
382.8020, 180.5838
383.2841, 180.3407
383.7662, 180.0435
384.2484, 179.6759
384.7305, 179.3567
385.2126, 179.3520
385.6947, 179.1290
386.1768, 178.2203
386.6589, 176.9762
387.1411, 176.1379
387.6232, 176.2343
388.1053, 176.9234
388.5874, 176.8939
389.0695, 175.5122
389.5516, 174.6191
390.0338, 175.0254
390.5159, 175.8230
390.9980, 176.1924
391.4801, 175.9066
391.9622, 175.3119
392.4443, 174.7534
392.9265, 174.2150
393.4086, 173.8921
393.8907, 174.0928
394.3728, 174.2495
394.8549, 173.9300
395.3370, 173.2491
395.8192, 172.6857
396.3013, 172.6784
396.7834, 173.0192
397.2655, 172.9778
397.7476, 172.4066
398.2297, 171.8371
398.7119, 171.5950
399.1940, 171.5062
399.6761, 171.3585
400.1582, 171.0895
400.6403, 170.7671
401.1224, 170.4276
401.6046, 170.0733
402.0867, 169.7948
402.5688, 169.6123
403.0509, 169.5313
403.5330, 169.5652
404.0151, 169.7150
404.4973, 169.8708
404.9794, 170.0026
405.4615, 170.1039
405.9436, 170.2009
406.4257, 170.3140
406.9078, 170.2690
407.3900, 169.7751
407.8721, 168.9669
408.3542, 168.5339
408.8363, 168.7247
409.3184, 169.1248
409.8005, 169.5225
410.2827, 169.9189
410.7648, 170.3582
411.2469, 170.9075
411.7290, 171.4169
412.2111, 171.4573
412.6932, 170.7242
413.1754, 170.3471
413.6575, 170.8792
414.1396, 171.6666
414.6217, 172.0103
415.1038, 171.8002
415.5859, 171.3726
416.0681, 171.0320
416.5502, 170.7781
417.0323, 170.6477
417.5144, 170.6396
417.9965, 170.7312
418.4786, 170.9344
418.9608, 171.2278
419.4429, 171.6518
419.9250, 172.2456
420.4071, 172.8196
420.8892, 172.8152
421.3713, 171.5279
421.8535, 170.7294
422.3356, 170.8430
422.8177, 171.1673
423.2998, 171.1382
423.7819, 170.7041
424.2640, 170.2226
424.7462, 170.1292
425.2283, 170.4810
425.7104, 170.3515
426.1925, 169.1862
426.6746, 168.1182
427.1567, 167.4114
427.6389, 167.0248
428.1210, 166.9065
428.6031, 167.0573
429.0852, 167.3562
429.5673, 167.6161
430.0494, 167.9106
430.5316, 167.9073
431.0137, 167.2692
431.4958, 166.4728
431.9779, 165.7731
432.4600, 165.2003
432.9421, 164.7141
433.4243, 164.2752
433.9064, 163.8964
434.3885, 163.6469
434.8706, 163.5731
435.3527, 163.5258
435.8348, 163.4077
436.3170, 163.2505
436.7991, 163.1082
437.2812, 163.0222
437.7633, 162.9149
438.2454, 162.6706
438.7275, 162.3155
439.2097, 162.0631
439.6918, 162.0438
440.1739, 162.0739
440.6560, 161.8008
441.1381, 161.1803
441.6202, 160.7909
442.1024, 161.0290
442.5845, 161.4526
443.0666, 161.5876
443.5487, 161.3872
444.0308, 160.9737
444.5129, 160.3966
444.9951, 159.6795
445.4772, 159.0308
445.9593, 158.4626
446.4414, 157.9413
446.9235, 157.4782
447.4056, 157.0503
447.8878, 156.6446
448.3699, 156.2544
448.8520, 155.8293
449.3341, 155.2979
449.8162, 154.6903
450.2983, 153.8681
450.7805, 152.5391
451.2626, 151.2992
451.7447, 150.4682
452.2268, 149.9915
452.7089, 149.6864
453.1910, 149.4705
453.6732, 149.2587
454.1553, 148.6610
454.6374, 147.3630
455.1195, 146.2067
455.6016, 145.4189
456.0837, 144.7518
456.5659, 144.0050
457.0480, 143.1357
457.5301, 142.2500
458.0122, 141.4675
458.4943, 140.7823
458.9764, 140.0513
459.4586, 139.2087
459.9407, 138.4160
460.4228, 137.7079
460.9049, 137.1090
461.3870, 136.6856
461.8691, 136.5252
462.3513, 136.4428
462.8334, 136.2405
463.3155, 135.9194
463.7976, 135.4992
464.2797, 134.9787
464.7618, 134.3648
465.2440, 133.6269
465.7261, 132.7590
466.2082, 131.9832
466.6903, 131.3790
467.1724, 130.9007
467.6545, 130.5385
468.1367, 130.2818
468.6188, 130.0079
469.1009, 129.6713
469.5830, 129.2427
470.0651, 128.5634
470.5472, 127.3457
471.0294, 126.2820
471.5115, 125.6053
471.9936, 125.1555
472.4757, 124.7868
472.9578, 124.4459
473.4399, 124.0233
473.9221, 123.3492
474.4042, 122.3238
474.8863, 121.6367
475.3684, 121.6704
475.8505, 121.5901
476.3326, 121.0309
476.8148, 120.1583
477.2969, 119.2427
477.7790, 118.4149
478.2611, 117.6992
478.7432, 117.1759
479.2253, 116.9064
479.7075, 116.6637
480.1896, 116.5007
480.6717, 116.2958
481.1538, 116.0069
481.6359, 115.6188
482.1180, 115.0959
482.6002, 114.3016
483.0823, 113.3925
483.5644, 112.8871
484.0465, 112.9431
484.5286, 112.8222
485.0107, 111.9102
485.4929, 110.7972
485.9750, 110.2559
486.4571, 110.4828
486.9392, 110.6746
487.4213, 110.2172
487.9034, 109.3919
488.3856, 108.8530
488.8677, 108.7244
489.3498, 108.6835
489.8319, 108.4653
490.3140, 108.0764
490.7961, 107.7152
491.2783, 107.4309
491.7604, 107.1189
492.2425, 106.6429
492.7246, 106.1203
493.2067, 105.8098
493.6888, 105.8036
494.1710, 105.8892
494.6531, 105.7412
495.1352, 105.2949
495.6173, 104.8024
496.0994, 104.0611
496.5815, 103.4747
497.0637, 103.3669
497.5458, 103.5610
498.0279, 103.6665
498.5100, 103.4596
498.9921, 103.0490
499.4742, 102.7047
499.9564, 102.4629
500.4385, 102.1957
500.9206, 101.7817
501.4027, 101.4156
501.8848, 101.2942
502.3669, 101.3699
502.8491, 101.3676
503.3312, 101.0485
503.8133, 100.5264
504.2954, 100.0815
504.7775, 99.70260
505.2596, 99.46817
505.7418, 99.48106
506.2239, 99.63315
506.7060, 99.78658
507.1881, 99.95426
507.6702, 100.0392
508.1523, 99.96847
508.6345, 99.79163
509.1166, 99.52447
509.5987, 99.16797
510.0808, 98.97636
510.5629, 99.25598
511.0450, 99.92721
511.5272, 100.0874
512.0093, 99.32105
512.4914, 98.61047
512.9735, 98.18014
513.4556, 97.99258
513.9377, 98.08491
514.4199, 98.43024
514.9020, 98.75243
515.3841, 98.64502
515.8662, 97.98237
516.3483, 97.75816
516.8304, 98.58291
517.3126, 99.20531
517.7947, 99.13880
518.2768, 98.69023
518.7589, 98.31550
519.2410, 98.19492
519.7231, 98.19946
520.2053, 98.14217
520.6874, 98.01514
521.1695, 97.93339
521.6516, 97.85741
522.1337, 97.90791
522.6158, 98.34708
523.0980, 98.98129
523.5801, 99.22742
524.0622, 98.53999
524.5443, 97.71291
525.0264, 97.62553
525.5085, 98.17646
525.9907, 98.81895
526.4728, 99.43723
526.9549, 99.90811
527.4370, 99.98811
527.9191, 99.60856
528.4012, 99.31705
528.8834, 99.14461
529.3655, 99.09636
529.8476, 99.21098
530.3297, 99.45528
530.8118, 99.75850
531.2939, 100.0886
531.7761, 100.4147
532.2582, 100.6363
532.7403, 100.5210
533.2224, 100.7410
533.7045, 101.7128
534.1866, 102.6208
534.6688, 102.9123
535.1509, 102.6963
535.6330, 102.4231
536.1151, 102.3589
536.5972, 102.4721
537.0793, 102.6882
537.5615, 103.0138
538.0436, 103.4167
538.5257, 104.0121
539.0078, 104.5812
539.4899, 104.8566
539.9720, 104.8559
540.4542, 104.9929
540.9363, 105.7137
541.4184, 106.5690
541.9005, 106.8108
542.3826, 106.4488
542.8647, 106.1635
543.3469, 106.3185
543.8290, 106.7667
544.3111, 107.1346
544.7932, 107.3603
545.2753, 107.6570
545.7574, 108.1587
546.2396, 108.6702
546.7217, 109.0044
547.2038, 109.1755
547.6859, 109.3397
548.1680, 109.6250
548.6501, 109.5569
549.1323, 109.9891
549.6144, 109.4382
550.0965, 109.0701
550.5786, 108.9656
551.0607, 109.0472
551.5428, 109.3475
552.0250, 109.8100
552.5071, 110.2237
552.9892, 110.4248
553.4713, 110.4678
553.9534, 110.5268
554.4355, 110.6233
554.9177, 110.6099
555.3998, 110.2875
555.8819, 109.9296
556.3640, 109.9558
556.8461, 110.4331
557.3282, 110.7850
557.8104, 110.6736
558.2925, 110.3871
558.7746, 110.2654
559.2567, 110.3165
559.7388, 110.3816
560.2209, 110.3615
560.7031, 110.2925
561.1852, 110.2897
561.6673, 110.4136
562.1494, 110.5219
562.6315, 110.5900
563.1136, 110.6600
563.5958, 110.7736
564.0779, 110.9209
564.5600, 111.0649
565.0421, 111.1925
565.5242, 111.2757
566.0063, 111.1601
566.4885, 110.6819
566.9706, 110.4843
567.4527, 110.9706
567.9348, 111.6085
568.4169, 112.1057
568.8990, 112.4311
569.3812, 112.5830
569.8633, 112.4373
570.3454, 112.1795
570.8275, 112.0783
571.3096, 112.1281
571.7917, 112.2224
572.2739, 112.3481
572.7560, 112.4465
573.2381, 112.4119
573.7202, 112.2399
574.2023, 111.9690
574.6844, 111.3900
575.1666, 110.8967
575.6487, 110.8679
576.1308, 111.1528
576.6129, 111.3466
577.0950, 111.2404
577.5771, 110.9009
578.0593, 110.4450
578.5414, 109.7855
579.0235, 109.2465
579.5056, 108.9410
579.9877, 108.6684
580.4698, 108.3504
580.9520, 107.9949
581.4341, 107.6162
581.9162, 107.1852
582.3983, 106.8092
582.8804, 106.7523
583.3625, 106.9618
583.8447, 106.8082
584.3268, 106.0048
584.8089, 105.1277
585.2910, 104.8597
585.7731, 105.1287
586.2552, 105.1743
586.7374, 104.7820
587.2195, 104.3084
587.7016, 103.9374
588.1837, 103.6121
588.6658, 103.1998
589.1479, 102.6674
589.6301, 102.1428
590.1122, 101.7833
590.5943, 101.6031
591.0764, 101.4579
591.5585, 101.4173
592.0406, 101.3276
592.5228, 101.1502
593.0049, 100.9048
593.4870, 100.6162
593.9691, 100.2898
594.4512, 99.91908
594.9333, 99.40514
595.4155, 98.82315
595.8976, 98.56188
596.3797, 98.71741
596.8618, 98.86459
597.3439, 98.79951
597.8260, 98.53276
598.3082, 98.10122
598.7903, 97.38642
599.2724, 96.80811
599.7545, 96.51823
600.2366, 96.42067
600.7188, 96.55545
601.2009, 96.83245
601.6830, 96.86570
602.1651, 96.36448
602.6472, 95.49497
603.1293, 94.87685
603.6115, 94.65584
604.0936, 94.42354
604.5757, 94.20553
605.0578, 93.92411
605.5399, 93.50293
606.0220, 92.97316
606.5042, 92.40974
606.9863, 91.78266
607.4684, 91.25818
607.9505, 91.24452
608.4326, 91.72238
608.9147, 91.86722
609.3969, 91.32307
609.8790, 90.64423
610.3611, 90.55925
610.8432, 90.99622
611.3253, 91.00478
611.8074, 90.04774
612.2896, 89.09681
612.7717, 88.68137
613.2538, 88.61302
613.7359, 88.59641
614.2180, 88.53062
614.7001, 88.38613
615.1823, 88.09052
615.6644, 87.62380
616.1465, 87.43050
616.6286, 87.78948
617.1107, 88.04036
617.5928, 87.99727
618.0750, 87.78257
618.5571, 87.44460
619.0392, 87.01026
619.5213, 86.72038
620.0034, 86.92610
620.4855, 87.36578
620.9677, 87.38732
621.4498, 86.95023
621.9319, 86.55091
622.4140, 86.42057
622.8961, 86.49072
623.3782, 86.67232
623.8604, 87.09055
624.3425, 87.21861
624.8246, 86.67250
625.3067, 86.10547
625.7888, 85.94163
626.2709, 86.12483
626.7531, 86.48462
627.2352, 86.94302
627.7173, 87.34663
628.1994, 87.31834
628.6815, 86.71005
629.1636, 86.51167
629.6458, 87.12550
630.1279, 87.70428
630.6100, 87.61276
631.0921, 87.25376
631.5742, 87.41421
632.0563, 88.47682
632.5385, 89.51072
633.0206, 89.77033
633.5027, 89.54530
633.9848, 89.40212
634.4669, 89.42308
634.9490, 89.40786
635.4312, 89.15969
635.9133, 88.78794
636.3954, 88.81375
636.8775, 89.77780
637.3596, 90.41759
637.8417, 90.45985
638.3239, 90.35524
638.8060, 90.42245
639.2881, 90.63936
639.7702, 90.79299
640.2523, 90.72384
640.7344, 90.60327
641.2166, 90.80324
641.6987, 91.34099
642.1808, 91.80905
642.6629, 92.09750
643.1450, 92.34968
643.6271, 92.61902
644.1093, 92.94278
644.5914, 93.49740
645.0735, 94.83468
645.5556, 95.80034
646.0377, 95.39745
646.5198, 94.48418
647.0020, 94.34554
647.4841, 95.18131
647.9662, 96.32453
648.4483, 97.23656
648.9304, 97.90244
649.4125, 98.19697
649.8947, 97.77306
650.3768, 97.63061
650.8589, 98.04565
651.3410, 98.70146
651.8231, 99.47861
652.3052, 100.3190
652.7874, 101.0756
653.2695, 101.6890
653.7516, 102.1687
654.2337, 102.3977
654.7158, 102.4648
655.1979, 102.8068
655.6801, 103.5685
656.1622, 104.5205
656.6443, 105.4506
657.1264, 106.3620
657.6085, 107.1359
658.0906, 107.4578
658.5728, 108.0514
659.0549, 109.4962
659.5370, 111.0571
660.0191, 111.8803
660.5012, 111.9210
660.9833, 111.8789
661.4655, 112.3439
661.9476, 113.1538
662.4297, 113.7453
662.9118, 114.0649
663.3939, 114.5955
663.8760, 115.5635
664.3582, 116.7065
664.8403, 117.7637
665.3224, 118.7378
665.8045, 119.5591
666.2866, 119.9850
666.7687, 120.4968
667.2509, 121.4207
667.7330, 122.5880
668.2151, 123.7944
668.6972, 124.9548
669.1793, 125.8997
669.6614, 126.3929
670.1436, 126.4884
670.6257, 126.9873
671.1078, 128.1276
671.5899, 129.1814
672.0720, 129.9521
672.5541, 130.5608
673.0363, 131.0828
673.5184, 131.5257
674.0005, 131.9051
674.4826, 132.1709
674.9647, 132.4258
675.4468, 132.7714
675.9290, 133.1922
676.4111, 133.6494
676.8932, 134.1311
677.3753, 134.6135
677.8574, 135.0768
678.3395, 135.5244
678.8217, 135.8656
679.3038, 136.2552
679.7859, 136.3220
680.2680, 135.7262
680.7501, 134.9725
681.2322, 134.5067
681.7144, 134.3687
682.1965, 134.3313
682.6786, 134.3839
683.1607, 134.3556
683.6428, 133.8164
684.1249, 132.8467
684.6071, 132.2185
685.0892, 132.2374
685.5713, 132.3883
686.0534, 132.0604
686.5355, 131.2167
687.0176, 130.5492
687.4998, 130.3451
687.9819, 129.9424
688.4640, 128.8974
688.9461, 127.7494
689.4282, 127.0564
689.9103, 126.8667
690.3925, 126.8594
690.8746, 126.8795
691.3567, 126.8314
691.8388, 126.4277
692.3209, 125.6542
692.8030, 124.9064
693.2852, 124.2817
693.7673, 123.7283
694.2494, 123.2135
694.7315, 122.7315
695.2136, 122.2097
695.6957, 121.5232
696.1779, 120.9422
696.6600, 120.6398
697.1421, 120.4433
697.6242, 120.1524
698.1063, 119.7524
698.5884, 119.3573
699.0706, 119.0457
699.5527, 118.8149
700.0348, 118.6960
700.5169, 118.7276
700.9990, 118.6223
701.4811, 118.3245
701.9633, 117.8750
702.4454, 117.1575
702.9275, 116.2948
703.4096, 115.7094
703.8917, 115.5938
704.3738, 115.5749
704.8560, 115.6752
705.3381, 115.6844
705.8202, 115.2528
706.3023, 114.4273
706.7844, 113.6035
707.2665, 113.0435
707.7487, 112.7093
708.2308, 112.5488
708.7129, 112.6144
709.1950, 112.6075
709.6771, 112.4705
710.1592, 112.2841
710.6414, 112.1052
711.1235, 111.9173
711.6056, 111.6908
712.0877, 111.4475
712.5698, 111.1037
713.0519, 110.4715
713.5341, 109.8100
714.0162, 109.5151
714.4983, 109.5248
714.9804, 109.4186
715.4625, 108.9493
715.9446, 108.2695
716.4268, 107.7003
716.9089, 107.2699
717.3910, 106.8236
717.8731, 106.4217
718.3552, 105.9034
718.8373, 105.0523
719.3195, 104.1009
719.8016, 103.4111
720.2837, 103.0728
720.7658, 102.7476
721.2479, 102.3480
721.7300, 101.8280
722.2122, 101.0245
722.6943, 100.0406
723.1764, 99.21570
723.6585, 98.69804
724.1406, 98.37491
724.6227, 98.11791
725.1049, 97.95533
725.5870, 97.56102
726.0691, 96.79396
726.5512, 96.02431
727.0333, 95.30968
727.5154, 94.69498
727.9976, 94.25086
728.4797, 93.98103
728.9618, 93.79123
729.4439, 93.74208
729.9260, 93.67144
730.4081, 93.34797
730.8903, 92.89702
731.3724, 92.69705
731.8545, 92.83650
732.3366, 92.90565
732.8187, 92.42030
733.3008, 91.44991
733.7830, 90.82968
734.2651, 90.66441
734.7472, 90.62630
735.2293, 90.88096
735.7114, 91.04336
736.1935, 90.76187
736.6757, 90.12383
737.1578, 89.54887
737.6399, 89.17675
738.1220, 88.88783
738.6041, 88.68408
739.0862, 88.47972
739.5684, 88.11140
740.0505, 87.57623
740.5326, 87.01433
741.0147, 86.51856
741.4968, 86.09336
741.9789, 85.76185
742.4611, 85.55415
742.9432, 85.32813
743.4253, 85.04868
743.9074, 84.77786
744.3895, 84.61477
744.8716, 84.46838
745.3538, 84.14228
745.8359, 83.53639
746.3180, 82.98078
746.8001, 82.70119
747.2822, 82.49171
747.7643, 82.09803
748.2465, 81.57719
748.7286, 81.17226
749.2107, 80.99549
749.6928, 80.89269
750.1749, 80.61057
750.6570, 80.13490
751.1392, 79.78371
751.6213, 79.61275
752.1034, 79.43595
752.5855, 79.19826
753.0676, 78.90271
753.5497, 78.51282
754.0319, 78.02268
754.5140, 77.67027
754.9961, 77.63565
755.4782, 77.62502
755.9603, 77.48299
756.4424, 77.24069
756.9246, 76.94200
757.4067, 76.60295
757.8888, 76.23843
758.3709, 75.84765
758.8530, 75.44947
759.3351, 75.10625
759.8173, 74.82005
760.2994, 74.57579
760.7815, 74.35998
761.2636, 74.21358
761.7457, 74.27132
762.2278, 74.44524
762.7100, 74.31182
763.1921, 73.54800
763.6742, 72.96699
764.1563, 73.02758
764.6384, 73.12339
765.1205, 72.60883
765.6027, 71.69875
766.0848, 71.09321
766.5669, 71.12554
767.0490, 71.39510
767.5311, 71.39558
768.0132, 71.16909
768.4954, 70.92648
768.9775, 70.66970
769.4596, 70.48637
769.9417, 70.42335
770.4238, 70.45207
770.9059, 70.56417
771.3881, 70.85276
771.8702, 70.82039
772.3523, 70.23314
772.8344, 69.61466
773.3165, 69.06485
773.7986, 68.62685
774.2808, 68.36980
774.7629, 68.28082
775.2450, 68.22318
775.7271, 68.14857
776.2092, 68.01304
776.6913, 67.67531
777.1735, 67.20646
777.6556, 66.96146
778.1377, 67.03117
778.6198, 67.03295
779.1019, 66.59238
779.5840, 65.84293
780.0662, 65.50225
780.5483, 65.97293
781.0304, 66.08489
781.5125, 65.40196
781.9946, 64.72247
782.4767, 64.41454
782.9589, 64.39120
783.4410, 64.52029
783.9231, 64.83620
784.4052, 64.95595
784.8873, 64.41801
785.3694, 63.71264
785.8516, 63.53471
786.3337, 63.75294
786.8158, 63.75959
787.2979, 63.31435
787.7800, 62.74061
788.2621, 62.47440
788.7443, 62.50459
789.2264, 62.41659
789.7085, 62.18270
790.1906, 61.90115
790.6727, 61.52258
791.1548, 61.17986
791.6370, 61.03160
792.1191, 61.04987
792.6012, 61.04713
793.0833, 61.01257
793.5654, 60.93125
794.0475, 60.83079
794.5297, 60.65788
795.0118, 60.31660
795.4939, 59.84343
795.9760, 59.35989
796.4581, 58.92035
796.9402, 58.58058
797.4224, 58.49023
797.9045, 58.59959
798.3866, 58.56305
798.8687, 58.33864
799.3508, 58.09516
799.8329, 57.91756
800.3151, 57.77244
800.7972, 57.60216
801.2793, 57.40095
801.7614, 57.19477
802.2435, 56.94439
802.7256, 56.73717
803.2078, 56.54171
803.6899, 56.43911
804.1720, 56.61604
804.6541, 57.01795
805.1362, 57.23401
805.6183, 56.95791
806.1005, 56.50002
806.5826, 56.11518
807.0647, 55.81050
807.5468, 55.61047
808.0289, 55.51453
808.5110, 55.49564
808.9932, 55.54329
809.4753, 55.62547
809.9574, 55.66448
810.4395, 55.66622
810.9216, 55.59393
811.4037, 55.41624
811.8859, 55.21338
812.3680, 54.98598
812.8501, 54.77597
813.3322, 54.67620
813.8143, 54.72074
814.2964, 54.65174
814.7786, 54.16963
815.2607, 53.81329
815.7428, 54.07713
816.2249, 54.57845
816.7070, 54.73842
817.1891, 54.48229
817.6713, 54.17463
818.1534, 54.11015
818.6355, 54.13869
819.1176, 53.89574
819.5997, 53.43816
820.0818, 53.24778
820.5640, 53.42995
821.0461, 53.70314
821.5282, 53.89533
822.0103, 54.00436
822.4924, 54.02236
822.9745, 53.93458
823.4567, 53.78703
823.9388, 53.57340
824.4209, 53.30740
824.9030, 52.80452
825.3851, 52.34877
825.8672, 52.40432
826.3494, 53.02068
826.8315, 53.50089
827.3136, 53.32564
827.7957, 53.06734
828.2778, 53.34003
828.7599, 53.83525
829.2421, 53.91409
829.7242, 53.50567
830.2063, 53.05521
830.6884, 52.87714
831.1705, 52.95324
831.6526, 53.35376
832.1348, 54.09828
832.6169, 54.44374
833.0990, 54.19044
833.5811, 53.89201
834.0632, 53.84684
834.5453, 53.98847
835.0275, 54.15785
835.5096, 54.27849
835.9917, 54.67183
836.4738, 55.88947
836.9559, 56.73261
837.4380, 56.43889
837.9202, 55.74029
838.4023, 55.47538
838.8844, 55.71503
839.3665, 55.95654
839.8486, 55.87170
840.3307, 55.74536
840.8129, 55.81372
841.2950, 56.06893
841.7771, 56.57801
842.2592, 57.29821
842.7413, 57.97561
843.2234, 58.45713
843.7056, 58.72385
844.1877, 58.61790
844.6698, 58.07366
845.1519, 58.03106
845.6340, 58.70220
846.1161, 59.34975
846.5983, 59.68178
847.0804, 59.81744
847.5625, 59.87530
848.0446, 59.84320
848.5267, 59.93962
849.0089, 60.33729
849.4910, 60.65229
849.9731, 60.77185
850.4552, 60.76891
850.9373, 60.65334
851.4194, 60.47826
851.9016, 60.38475
852.3837, 60.46867
852.8658, 60.52129
853.3479, 60.27245
853.8300, 59.89894
854.3121, 59.77324
854.7943, 59.84960
855.2764, 59.77204
855.7585, 59.38672
856.2406, 58.86951
856.7227, 58.42363
857.2048, 58.05433
857.6870, 57.82707
858.1691, 57.78836
858.6512, 57.71321
859.1333, 57.55178
859.6154, 57.32884
860.0975, 57.05659
860.5797, 56.73825
861.0618, 56.39125
861.5439, 55.94959
862.0260, 55.59111
862.5081, 55.44561
862.9902, 55.27468
863.4724, 54.86080
863.9545, 54.35462
864.4366, 54.04487
864.9187, 53.99356
865.4008, 53.89745
865.8829, 53.43528
866.3651, 52.91919
866.8472, 52.79655
867.3293, 52.89023
867.8114, 52.69234
868.2935, 52.13740
868.7756, 51.66799
869.2578, 51.63676
869.7399, 51.87104
870.2220, 51.97300
870.7041, 51.94163
871.1862, 51.75386
871.6683, 51.36066
872.1505, 50.98137
872.6326, 50.72459
873.1147, 50.55037
873.5968, 50.37856
874.0789, 50.18290
874.5610, 50.13601
875.0432, 50.40819
875.5253, 50.59782
876.0074, 50.54015
876.4895, 50.42364
876.9716, 50.41172
877.4537, 50.48901
877.9359, 50.54258
878.4180, 50.52030
878.9001, 50.50420
879.3822, 50.54963
879.8643, 50.62457
880.3464, 50.68584
880.8286, 50.74512
881.3107, 50.81103
881.7928, 50.89586
882.2749, 51.11290
882.7570, 51.67915
883.2391, 52.42951
883.7213, 52.81665
884.2034, 52.85851
884.6855, 52.82649
885.1676, 52.77187
885.6497, 52.71249
886.1318, 52.62690
886.6140, 52.58686
887.0961, 52.87654
887.5782, 53.75259
888.0603, 54.28461
888.5424, 54.15032
889.0245, 54.10889
889.5067, 54.55650
889.9888, 55.19991
890.4709, 55.72874
890.9530, 56.13033
891.4351, 56.46587
891.9172, 56.68005
892.3994, 56.91734
892.8815, 57.24190
893.3636, 57.61296
893.8457, 57.99587
894.3278, 58.38733
894.8099, 58.79491
895.2921, 59.22223
895.7742, 59.66585
896.2563, 60.18783
896.7384, 60.68927
897.2205, 60.86512
897.7026, 60.83880
898.1848, 61.13934
898.6669, 61.92474
899.1490, 62.86611
899.6311, 63.62959
900.1132, 64.31979
900.5953, 65.32866
901.0775, 66.66744
901.5596, 68.35652
902.0417, 70.76859
902.5238, 72.20374
903.0059, 71.18246
903.4880, 69.02128
903.9702, 68.52778
904.4523, 70.33774
904.9344, 71.25617
905.4165, 70.42176
905.8986, 69.81166
906.3807, 70.06632
906.8629, 70.55689
907.3450, 70.71140
907.8271, 70.59643
908.3092, 70.64293
908.7913, 71.09509
909.2734, 71.44588
909.7556, 71.28276
910.2377, 71.08456
910.7198, 71.37509
911.2019, 71.93892
911.6840, 72.26292
912.1661, 72.21420
912.6483, 72.14256
913.1304, 72.35912
913.6125, 72.71220
914.0946, 72.96433
914.5767, 73.14194
915.0588, 73.27876
915.5410, 73.40128
916.0231, 73.68949
916.5052, 74.26964
916.9873, 75.02348
917.4694, 75.76845
917.9515, 76.51099
918.4337, 77.06377
918.9158, 77.38598
919.3979, 77.70377
919.8800, 78.08032
920.3621, 78.50436
920.8442, 78.96525
921.3264, 79.46291
921.8085, 79.97683
922.2906, 80.46326
922.7727, 81.04333
923.2548, 81.83767
923.7369, 82.59824
924.2191, 83.14095
924.7012, 83.60584
925.1833, 84.19825
925.6654, 84.94396
926.1475, 85.75631
926.6296, 86.65503
927.1118, 87.55762
927.5939, 88.53055
928.0760, 89.41424
928.5581, 89.98677
929.0402, 90.30485
929.5223, 90.57781
930.0045, 90.87746
930.4866, 91.30507
930.9687, 92.06400
931.4508, 92.94585
931.9329, 93.73585
932.4150, 94.35038
932.8972, 94.52915
933.3793, 94.23373
933.8614, 93.80544
934.3435, 93.53414
934.8256, 93.35235
935.3077, 93.12068
935.7899, 92.83572
936.2720, 92.42426
936.7541, 91.87612
937.2362, 91.27305
937.7183, 90.67486
938.2004, 89.97598
938.6826, 88.98298
939.1647, 87.68403
939.6468, 86.58170
940.1289, 85.78526
940.6110, 84.92559
941.0931, 83.92836
941.5753, 82.86816
942.0574, 81.72159
942.5395, 80.56392
943.0216, 79.60958
943.5037, 78.99250
943.9858, 78.17825
944.4680, 76.89375
944.9501, 75.68891
945.4322, 74.95447
945.9143, 74.26184
946.3964, 73.00851
946.8785, 71.32890
947.3607, 70.06400
947.8428, 69.71265
948.3249, 69.31765
948.8070, 68.23899
949.2891, 66.98976
949.7712, 65.95634
950.2534, 65.16627
950.7355, 64.66990
951.2176, 64.44065
951.6997, 64.21543
952.1818, 63.81685
952.6639, 63.29129
953.1461, 62.64778
953.6282, 61.94302
954.1103, 61.29548
954.5924, 60.72859
955.0745, 60.27904
955.5566, 59.96452
956.0388, 59.68773
956.5209, 59.30311
957.0030, 58.83879
957.4851, 58.41087
957.9672, 58.01833
958.4493, 57.80989
958.9315, 57.84560
959.4136, 57.83859
959.8957, 57.55697
960.3778, 57.12407
960.8599, 56.86073
961.3420, 56.80058
961.8242, 56.74892
962.3063, 56.72648
962.7884, 56.66190
963.2705, 56.53308
963.7526, 56.35140
964.2347, 56.11961
964.7169, 55.84295
965.1990, 55.55601
965.6811, 55.22789
966.1632, 54.93841
966.6453, 54.77339
967.1274, 54.54931
967.6096, 54.12990
968.0917, 53.64113
968.5738, 53.21381
969.0559, 52.86293
969.5380, 52.63573
970.0201, 52.66730
970.5023, 52.65572
970.9844, 52.39879
971.4665, 52.14274
971.9486, 52.14734
972.4307, 52.28943
972.9128, 52.29964
973.3950, 52.10801
973.8771, 51.84819
974.3592, 51.53547
974.8413, 51.25045
975.3234, 51.07614
975.8055, 50.96727
976.2877, 50.82735
976.7698, 50.68170
977.2519, 50.70222
977.7340, 50.97784
978.2161, 51.19606
978.6982, 50.86668
979.1804, 51.01376
979.6625, 50.94093
980.1446, 50.71410
980.6267, 50.74526
981.1088, 50.32171
981.5909, 49.97255
982.0731, 50.07618
982.5552, 49.86879
983.0373, 50.31582
983.5194, 49.99080
984.0015, 49.97517
984.4836, 50.28331
984.9658, 50.32552
985.4479, 49.88249
985.9300, 49.45229
986.4121, 49.52457
986.8942, 49.92675
987.3763, 49.99218
987.8585, 49.63171
988.3406, 49.54277
988.8227, 49.82967
989.3048, 50.16937
989.7869, 50.49945
990.2690, 50.68844
990.7512, 50.52856
991.2333, 50.05839
991.7154, 49.76677
992.1975, 49.70018
992.6796, 49.72015
993.1617, 49.91218
993.6439, 50.05724
994.1260, 49.98491
994.6081, 49.84588
995.0902, 49.87368
995.5723, 50.07570
996.0544, 50.21975
996.5366, 50.25599
997.0187, 50.29401
997.5008, 50.36343
997.9829, 50.42749
998.4650, 50.46388
998.9471, 50.47983
999.4293, 50.50805
999.9114, 50.55781
1000.393, 50.50377
1000.876, 50.20812
1001.358, 49.93361
1001.840, 49.76265
1002.322, 49.68512
1002.804, 49.75481
1003.286, 49.89278
1003.768, 49.93092
1004.250, 49.81977
1004.733, 49.67547
1005.215, 49.61940
1005.697, 49.48998
1006.179, 49.10327
1006.661, 48.61176
1007.143, 48.15201
1007.625, 47.78408
1008.107, 47.61205
1008.589, 47.69502
1009.072, 47.78243
1009.554, 47.59260
1010.036, 47.66319
1010.518, 47.38214
1011.000, 47.55040
1011.482, 47.57077
1011.964, 47.41705
1012.446, 47.23598
1012.929, 47.10365
1013.411, 47.00006
1013.893, 46.92176
1014.375, 46.84438
1014.857, 46.67275
1015.339, 46.45748
1015.821, 46.37815
1016.303, 46.46869
1016.785, 46.65029
1017.268, 46.88279
1017.750, 47.09330
1018.232, 47.17640
1018.714, 47.13598
1019.196, 46.93160
1019.678, 46.59285
1020.160, 46.34657
1020.642, 46.25606
1021.125, 46.38102
1021.607, 46.81432
1022.089, 47.33141
1022.571, 47.35082
1023.053, 46.90724
1023.535, 46.69144
1024.017, 46.73590
1024.499, 46.80210
1024.981, 46.82039
1025.464, 46.79438
1025.946, 46.70785
1026.428, 46.61493
1026.910, 46.71534
1027.392, 47.04015
1027.874, 47.26083
1028.356, 47.35944
1028.838, 47.35760
1029.321, 47.19744
1029.803, 47.14650
1030.285, 47.53153
1030.767, 48.20490
1031.249, 48.47498
1031.731, 48.20159
1032.213, 48.08052
1032.695, 48.22267
1033.177, 48.25544
1033.660, 47.91521
1034.142, 47.63307
1034.624, 47.94347
1035.106, 48.71031
1035.588, 49.04911
1036.070, 48.66053
1036.552, 48.57795
1037.034, 49.03267
1037.516, 49.42289
1037.999, 49.43845
1038.481, 49.37890
1038.963, 49.59241
1039.445, 50.03300
1039.927, 50.34222
1040.409, 50.43295
1040.891, 50.54677
1041.373, 50.69661
1041.855, 50.85417
1042.338, 51.00730
1042.820, 51.16353
1043.302, 51.33644
1043.784, 51.52221
1044.266, 51.69478
1044.748, 51.81073
1045.230, 51.98500
1045.712, 52.26729
1046.195, 52.55543
1046.677, 52.85438
1047.159, 53.10827
1047.641, 53.25801
1048.123, 53.30667
1048.605, 53.29358
1049.087, 53.17779
1049.569, 53.08225
1050.052, 53.02335
1050.534, 52.98918
1051.016, 53.01250
1051.498, 53.03065
1051.980, 52.92696
1052.462, 52.73772
1052.944, 52.70428
1053.426, 53.02216
1053.908, 53.18495
1054.391, 52.83883
1054.873, 52.58811
1055.355, 52.96264
1055.837, 53.44103
1056.319, 53.33508
1056.801, 52.72855
1057.283, 52.31932
1057.765, 52.35676
1058.248, 52.39737
1058.730, 52.26823
1059.212, 52.15839
1059.694, 52.23085
1060.176, 52.33991
1060.658, 52.26548
1061.140, 52.05539
1061.622, 52.00342
1062.104, 52.28388
1062.587, 52.45325
1063.069, 52.17663
1063.551, 51.94312
1064.033, 52.14235
1064.515, 52.46668
1064.997, 52.55173
1065.479, 52.41236
1065.961, 52.24343
1066.443, 52.05083
1066.926, 52.01408
1067.408, 52.32241
1067.890, 52.67455
1068.372, 52.96398
1068.854, 53.14700
1069.336, 53.15662
1069.818, 53.02634
1070.300, 52.84460
1070.782, 52.60001
1071.265, 52.48590
1071.747, 52.61189
1072.229, 52.86425
1072.711, 53.32610
1073.193, 53.76337
1073.675, 53.84747
1074.157, 53.68977
1074.639, 53.67910
1075.122, 53.94535
1075.604, 54.19031
1076.086, 54.28365
1076.568, 54.30981
1077.050, 54.26611
1077.532, 54.22185
1078.014, 54.26254
1078.496, 54.35903
1078.979, 54.38683
1079.461, 54.30208
1079.943, 54.38597
1080.425, 54.92965
1080.907, 55.47582
1081.389, 55.80882
1081.871, 55.99234
1082.353, 55.95038
1082.835, 55.85493
1083.318, 56.11498
1083.800, 56.81365
1084.282, 57.31258
1084.764, 57.25066
1085.246, 57.03252
1085.728, 56.61408
1086.210, 56.35260
1086.692, 56.66101
1087.175, 57.30995
1087.657, 57.89299
1088.139, 58.32972
1088.621, 58.69897
1089.103, 59.06572
1089.585, 59.32324
1090.067, 59.21605
1090.549, 59.18980
1091.031, 59.76386
1091.514, 60.55305
1091.996, 60.90290
1092.478, 60.78452
1092.960, 60.76772
1093.442, 61.12318
1093.924, 61.45464
1094.406, 61.60304
1094.888, 61.69506
1095.370, 61.76878
1095.853, 61.86550
1096.335, 62.02215
1096.817, 62.24474
1097.299, 62.55016
1097.781, 63.03875
1098.263, 63.36464
1098.745, 63.22801
1099.227, 63.12740
1099.709, 63.38533
1100.192, 63.76693
1100.674, 64.01045
1101.156, 64.14346
1101.638, 64.33802
1102.120, 64.64539
1102.602, 64.94193
1103.084, 65.24703
1103.566, 65.47222
1104.049, 65.39415
1104.531, 65.38950
1105.013, 65.88783
1105.495, 66.68620
1105.977, 67.23167
1106.459, 67.38983
1106.941, 67.78133
1107.423, 68.94101
1107.906, 69.74429
1108.388, 69.54259
1108.870, 69.24963
1109.352, 69.50546
1109.834, 70.06055
1110.316, 70.42844
1110.798, 70.57059
1111.280, 70.86575
1111.762, 71.48003
1112.245, 72.04619
1112.727, 72.51919
1113.209, 72.93899
1113.691, 73.30838
1114.173, 73.64358
1114.655, 73.91174
1115.137, 74.13037
1115.619, 74.56679
1116.102, 75.46667
1116.584, 76.14297
1117.066, 76.44827
1117.548, 76.72806
1118.030, 77.01407
1118.512, 77.42370
1118.994, 78.16460
1119.476, 79.11156
1119.958, 79.72884
1120.441, 79.80540
1120.923, 80.24421
1121.405, 81.21725
1121.887, 82.17890
1122.369, 83.01616
1122.851, 83.74484
1123.333, 84.32365
1123.815, 84.85844
1124.297, 85.61916
1124.780, 86.23624
1125.262, 86.83669
1125.744, 87.66488
1126.226, 88.13494
1126.708, 88.90666
1127.190, 89.77013
1127.672, 90.62582
1128.154, 91.46594
1128.636, 92.25755
1129.119, 93.02690
1129.601, 94.00801
1130.083, 95.23100
1130.565, 96.44422
1131.047, 97.65487
1131.529, 98.38406
1132.011, 98.32851
1132.493, 98.52056
1132.976, 100.0950
1133.458, 102.5285
1133.940, 104.4166
1134.422, 105.7698
1134.904, 106.5192
1135.386, 106.7006
1135.868, 107.0959
1136.350, 107.9164
1136.833, 108.9379
1137.315, 110.0367
1137.797, 111.0443
1138.279, 111.6412
1138.761, 111.9182
1139.243, 112.1172
1139.725, 112.2762
1140.207, 112.5558
1140.689, 112.9685
1141.172, 113.4553
1141.654, 113.9852
1142.136, 114.3039
1142.618, 114.0668
1143.100, 113.5275
1143.582, 113.1016
1144.064, 112.7039
1144.546, 112.0923
1145.029, 111.3419
1145.511, 110.6840
1145.993, 110.2135
1146.475, 110.0814
1146.957, 110.5338
1147.439, 110.9907
1147.921, 110.7752
1148.403, 110.3287
1148.885, 110.1243
1149.368, 110.1190
1149.850, 110.2471
1150.332, 110.4361
1150.814, 110.4814
1151.296, 110.2561
1151.778, 110.1427
1152.260, 110.4333
1152.742, 110.8410
1153.224, 111.2915
1153.707, 111.6625
1154.189, 111.8180
1154.671, 111.8008
1155.153, 111.6232
1155.635, 111.2823
1156.117, 111.3649
1156.599, 112.5288
1157.081, 113.4686
1157.563, 113.5296
1158.046, 113.5180
1158.528, 113.9620
1159.010, 114.6123
1159.492, 115.1337
1159.974, 115.5165
1160.456, 115.8861
1160.938, 116.1528
1161.420, 116.5993
1161.903, 117.3974
1162.385, 118.1420
1162.867, 118.6635
1163.349, 119.1654
1163.831, 119.8397
1164.313, 120.3550
1164.795, 121.1597
1165.277, 121.5114
1165.760, 121.9870
1166.242, 122.5737
1166.724, 123.3763
1167.206, 124.5383
1167.688, 125.4491
1168.170, 125.6802
1168.652, 125.8340
1169.134, 126.7241
1169.616, 128.1637
1170.099, 129.2618
1170.581, 130.0162
1171.063, 130.7411
1171.545, 131.4583
1172.027, 132.2033
1172.509, 132.9943
1172.991, 133.6664
1173.473, 134.0670
1173.956, 134.4456
1174.438, 135.2748
1174.920, 136.4237
1175.402, 137.5207
1175.884, 138.5424
1176.366, 139.3389
1176.848, 139.9686
1177.330, 140.8436
1177.813, 142.1273
1178.295, 143.3492
1178.777, 143.9736
1179.259, 144.5149
1179.741, 145.7108
1180.223, 147.1612
1180.705, 148.3820
1181.187, 149.3441
1181.669, 149.9809
1182.151, 150.3682
1182.634, 150.8658
1183.116, 151.6251
1183.598, 152.5501
1184.080, 153.6976
1184.562, 154.8557
1185.044, 155.9244
1185.526, 156.8944
1186.008, 157.6211
1186.490, 158.2895
1186.973, 159.3859
1187.455, 161.0169
1187.937, 162.4613
1188.419, 163.6583
1188.901, 164.5463
1189.383, 164.6581
1189.865, 164.9976
1190.347, 166.2878
1190.830, 167.8882
1191.312, 169.1259
1191.794, 170.0742
1192.276, 171.1055
1192.758, 172.2496
1193.240, 173.3770
1193.722, 174.4512
1194.204, 175.6273
1194.687, 176.9843
1195.169, 178.3268
1195.651, 179.5695
1196.133, 180.6215
1196.615, 181.2572
1197.097, 181.6066
1197.579, 182.5316
1198.061, 184.0080
1198.543, 185.5407
1199.026, 187.0612
1199.508, 188.2159
1199.990, 188.8991
1200.472, 189.5749
1200.954, 190.5980
1201.436, 191.8335
1201.918, 193.2006
1202.400, 194.5687
1202.883, 195.5898
1203.365, 196.4182
1203.847, 197.4071
1204.329, 198.5809
1204.811, 199.8571
1205.293, 201.1906
1205.775, 202.3592
1206.257, 202.9328
1206.740, 203.6763
1207.222, 205.3085
1207.704, 207.2013
1208.186, 208.8237
1208.668, 210.2984
1209.150, 211.9674
1209.632, 213.7617
1210.114, 215.1106
1210.596, 215.5421
1211.078, 216.6645
1211.561, 219.5428
1212.043, 222.1370
1212.525, 223.7294
1213.007, 224.9498
1213.489, 226.0418
1213.971, 227.1411
1214.453, 228.4223
1214.935, 229.8885
1215.417, 231.6827
1215.900, 233.2163
1216.382, 234.8325
1216.864, 236.8670
1217.346, 238.2967
1217.828, 240.5258
1218.310, 242.8478
1218.792, 244.7579
1219.274, 246.3947
1219.757, 248.0708
1220.239, 249.7117
1220.721, 250.8114
1221.203, 251.5485
1221.685, 252.7223
1222.167, 254.4478
1222.649, 256.8055
1223.131, 259.7634
1223.614, 262.6457
1224.096, 264.9057
1224.578, 266.9911
1225.060, 269.4059
1225.542, 271.9120
1226.024, 274.2413
1226.506, 276.4366
1226.988, 278.5182
1227.470, 280.5461
1227.953, 282.6676
1228.435, 284.9120
1228.917, 287.1525
1229.399, 289.2706
1229.881, 291.4536
1230.363, 293.7150
1230.845, 296.1391
1231.327, 298.7642
1231.810, 301.5872
1232.292, 304.7018
1232.774, 308.0225
1233.256, 311.2134
1233.738, 314.3076
1234.220, 317.0720
1234.702, 319.2644
1235.184, 321.8565
1235.667, 325.0151
1236.149, 328.7213
1236.631, 333.1107
1237.113, 337.2496
1237.595, 339.8575
1238.077, 343.7455
1238.559, 347.0371
1239.041, 349.9605
1239.523, 353.6222
1240.005, 356.3444
1240.488, 359.3748
1240.970, 362.9698
1241.452, 366.7007
1241.934, 370.3823
1242.416, 374.5750
1242.898, 380.4822
1243.380, 386.3680
1243.862, 390.0385
1244.344, 393.1535
1244.827, 397.6770
1245.309, 403.0342
1245.791, 408.0752
1246.273, 412.6793
1246.755, 417.2503
1247.237, 421.8223
1247.719, 426.6195
1248.201, 432.1820
1248.684, 437.3190
1249.166, 440.9804
1249.648, 444.9086
1250.130, 450.0187
1250.612, 456.0049
1251.094, 462.7625
1251.576, 470.0384
1252.058, 475.9148
1252.541, 480.0656
1253.023, 485.2533
1253.505, 491.6506
1253.987, 498.2534
1254.469, 504.8468
1254.951, 511.5071
1255.433, 518.2756
1255.915, 525.1575
1256.397, 532.1716
1256.880, 539.2971
1257.362, 546.4225
1257.844, 553.6145
1258.326, 561.1176
1258.808, 568.7324
1259.290, 575.9708
1259.772, 582.8404
1260.254, 589.8417
1260.737, 597.0873
1261.219, 605.0491
1261.701, 614.6277
1262.183, 624.0985
1262.665, 632.5167
1263.147, 640.6968
1263.629, 649.1053
1264.111, 657.7470
1264.594, 666.7419
1265.076, 675.9574
1265.558, 684.6179
1266.040, 692.2357
1266.522, 701.2253
1267.004, 712.1365
1267.486, 722.4825
1267.968, 731.6892
1268.450, 740.8303
1268.932, 750.4344
1269.415, 760.3482
1269.897, 770.4962
1270.379, 780.9016
1270.861, 791.6429
1271.343, 802.7704
1271.825, 814.6012
1272.307, 826.9346
1272.789, 839.1595
1273.271, 851.1252
1273.754, 862.4619
1274.236, 873.1459
1274.718, 884.4209
1275.200, 897.6365
1275.682, 910.8245
1276.164, 922.0596
1276.646, 933.6924
1277.128, 948.3723
1277.611, 963.5998
1278.093, 975.9031
1278.575, 986.2493
1279.057, 997.9493
1279.539, 1011.237
1280.021, 1025.179
1280.503, 1039.782
1280.985, 1054.451
1281.468, 1069.503
1281.950, 1084.227
1282.432, 1098.259
1282.914, 1112.253
1283.396, 1126.861
1283.878, 1141.813
1284.360, 1156.912
1284.842, 1171.481
1285.324, 1183.682
##END=



