##NAMES=Nacrite
##RRUFFID=R100066
##IDEAL CHEMISTRY=Al_2_Si_2_O_5_(OH)_4_
##LOCALITY=Geisberg, Schweighausen, Black Forest, Germany
##OWNER=RRUFF
##SOURCE=Bob Jenkins
##DESCRIPTION=Stacks of parallel pseudohexagonal white plates
##STATUS=The identification of this mineral has been confirmed only by single crystal X-ray diffraction.
##URL=rruff.info/R100066
184.0228, 0.0000000E+00
184.5049, 0.2365720
184.9871, 0.5427250
185.4692, 2.367676
185.9513, 5.276123
186.4334, 8.376953
186.9155, 9.865723
187.3976, 9.498779
187.8798, 8.832031
188.3619, 9.470215
188.8440, 11.26099
189.3261, 13.17261
189.8082, 15.57178
190.2903, 17.82056
190.7725, 16.88965
191.2546, 12.19946
191.7367, 7.447998
192.2188, 7.434814
192.7009, 11.92163
193.1830, 16.40234
193.6652, 19.26367
194.1473, 20.71753
194.6294, 21.42358
195.1115, 21.02734
195.5936, 21.01221
196.0757, 24.03345
196.5579, 30.22339
197.0400, 35.66138
197.5221, 39.16260
198.0042, 40.71533
198.4863, 39.24561
198.9684, 33.60889
199.4506, 27.52783
199.9327, 26.92310
200.4148, 32.24487
200.8969, 38.73511
201.3790, 45.46436
201.8611, 52.48315
202.3433, 55.91943
202.8254, 54.75586
203.3075, 51.52246
203.7896, 50.81958
204.2717, 53.21777
204.7538, 54.92847
205.2360, 53.69360
205.7181, 48.94678
206.2002, 46.23657
206.6823, 45.99585
207.1644, 47.23560
207.6465, 48.45605
208.1287, 49.85181
208.6108, 50.44043
209.0929, 49.65942
209.5750, 47.27173
210.0571, 44.89697
210.5392, 42.34082
211.0214, 40.12061
211.5035, 39.60938
211.9856, 41.60327
212.4677, 43.30371
212.9498, 43.15894
213.4319, 40.44043
213.9141, 39.05762
214.3962, 39.45679
214.8783, 40.92432
215.3604, 41.62793
215.8425, 40.98608
216.3246, 40.78027
216.8067, 42.19629
217.2889, 46.14648
217.7710, 48.09399
218.2531, 47.37744
218.7352, 44.80591
219.2173, 42.22559
219.6994, 39.20605
220.1816, 36.88867
220.6637, 35.83862
221.1458, 36.39526
221.6279, 37.32788
222.1100, 38.86548
222.5921, 40.76367
223.0743, 42.57300
223.5564, 44.71460
224.0385, 46.19775
224.5206, 46.45557
225.0027, 45.18359
225.4848, 43.71777
225.9670, 41.52100
226.4491, 39.38550
226.9312, 39.56470
227.4133, 43.12109
227.8954, 47.24463
228.3775, 50.57568
228.8597, 53.09033
229.3418, 54.77759
229.8239, 54.88599
230.3060, 55.55640
230.7881, 57.99536
231.2702, 61.29077
231.7524, 65.27075
232.2345, 67.05029
232.7166, 66.32593
233.1987, 67.80298
233.6808, 71.71899
234.1629, 76.87061
234.6451, 78.86377
235.1272, 76.89673
235.6093, 74.40332
236.0914, 72.26367
236.5735, 72.03833
237.0556, 69.87817
237.5378, 64.68066
238.0199, 58.03491
238.5020, 54.01245
238.9841, 53.73755
239.4662, 54.51953
239.9483, 55.58423
240.4305, 57.90796
240.9126, 58.89648
241.3947, 57.25659
241.8768, 54.01636
242.3589, 50.82617
242.8410, 46.75732
243.3232, 43.70630
243.8053, 42.58203
244.2874, 44.12476
244.7695, 45.85376
245.2516, 48.25464
245.7337, 50.51855
246.2159, 50.87183
246.6980, 48.46143
247.1801, 45.77222
247.6622, 43.70312
248.1443, 42.37354
248.6264, 40.94360
249.1086, 39.37842
249.5907, 37.82446
250.0728, 36.45337
250.5549, 35.00317
251.0370, 34.23315
251.5191, 34.61011
252.0013, 36.68164
252.4834, 37.69092
252.9655, 36.89136
253.4476, 35.34717
253.9297, 35.27808
254.4118, 37.82397
254.8940, 39.59546
255.3761, 39.39233
255.8582, 36.96777
256.3403, 33.55176
256.8224, 27.76953
257.3046, 21.69360
257.7867, 19.03687
258.2688, 21.45239
258.7509, 23.94263
259.2330, 24.87305
259.7151, 24.04126
260.1973, 23.37646
260.6794, 23.12573
261.1615, 22.91846
261.6436, 21.86011
262.1257, 19.20679
262.6078, 17.58594
263.0900, 18.22534
263.5721, 21.52026
264.0542, 22.92505
264.5363, 21.54248
265.0184, 19.26978
265.5005, 18.65308
265.9827, 20.13135
266.4648, 21.74707
266.9469, 22.62451
267.4290, 22.66577
267.9111, 24.90381
268.3932, 30.93530
268.8754, 36.57910
269.3575, 36.35254
269.8396, 28.49487
270.3217, 21.33716
270.8038, 16.89697
271.2859, 15.08398
271.7681, 14.38477
272.2502, 15.40430
272.7323, 16.35327
273.2144, 14.84619
273.6965, 10.21338
274.1786, 7.053223
274.6608, 7.405518
275.1429, 10.32983
275.6250, 7.927979
276.1071, 1.645020
276.5892, 11.20776
277.0714, 12.91064
277.5535, 5.654785
278.0356, 0.8186040
278.5177, 1.431152
278.9998, 5.781250
279.4819, 6.247314
279.9641, 1.860107
280.4462, 2.618164
280.9283, 2.806885
281.4104, 1.459961
281.8925, 4.432861
282.3746, 4.976563
282.8568, 3.862061
283.3389, 3.461426
283.8210, 3.969727
284.3031, 3.908936
284.7852, 1.466064
285.2673, 3.055664
285.7495, 5.203369
286.2316, 3.483398
286.7137, 0.3041990
287.1958, 1.278320
287.6779, 6.486328
288.1600, 11.73242
288.6422, 14.47632
289.1243, 14.93774
289.6064, 14.29199
290.0885, 12.28906
290.5706, 10.17749
291.0527, 10.73120
291.5349, 13.75000
292.0170, 15.77490
292.4991, 13.75513
292.9812, 9.083984
293.4633, 6.877441
293.9454, 7.709473
294.4276, 9.878174
294.9097, 12.14819
295.3918, 14.20947
295.8739, 14.23535
296.3560, 8.845215
296.8381, 0.9843750
297.3203, 1.591797
297.8024, 1.655762
298.2845, 6.163574
298.7666, 6.421387
299.2487, 3.811523
299.7308, 2.729980
300.2130, 7.355957
300.6951, 13.72119
301.1772, 14.55029
301.6593, 9.883789
302.1414, 4.816406
302.6235, 4.683105
303.1057, 7.400391
303.5878, 8.608398
304.0699, 5.564453
304.5520, 1.454590
305.0341, 9.7167999E-02
305.5162, 0.7402340
305.9984, 2.557617
306.4805, 5.211426
306.9626, 7.945313
307.4447, 9.475098
307.9268, 8.687500
308.4089, 7.572754
308.8911, 8.084961
309.3732, 9.818848
309.8553, 11.23291
310.3374, 11.41406
310.8195, 10.78809
311.3016, 9.726074
311.7838, 8.258301
312.2659, 6.497559
312.7480, 3.389648
313.2301, 1.7090000E-02
313.7122, 1.218750
314.1943, 3.880371
314.6765, 9.895996
315.1586, 12.72705
315.6407, 11.16992
316.1228, 9.091309
316.6049, 6.738281
317.0870, 5.270508
317.5692, 6.698242
318.0513, 16.33301
318.5334, 25.07764
319.0155, 27.41113
319.4976, 21.87842
319.9797, 17.00391
320.4619, 15.06299
320.9440, 15.39893
321.4261, 17.24902
321.9082, 22.50244
322.3903, 27.13867
322.8724, 30.10254
323.3546, 31.35400
323.8367, 31.21191
324.3188, 28.16016
324.8009, 24.70557
325.2830, 22.78760
325.7651, 24.52148
326.2473, 25.90674
326.7294, 26.56396
327.2115, 26.55518
327.6936, 26.05176
328.1757, 23.77148
328.6578, 22.00391
329.1400, 21.90527
329.6221, 24.92383
330.1042, 27.59082
330.5863, 29.90771
331.0684, 31.81348
331.5505, 33.14551
332.0327, 34.05371
332.5148, 34.07129
332.9969, 32.51123
333.4790, 27.54248
333.9611, 25.61084
334.4432, 27.68848
334.9254, 32.18066
335.4075, 36.24170
335.8896, 40.06836
336.3717, 42.41553
336.8538, 42.65283
337.3359, 40.96533
337.8180, 38.75586
338.3001, 35.15967
338.7823, 32.05566
339.2644, 32.37354
339.7465, 37.48730
340.2286, 40.28906
340.7107, 38.61133
341.1928, 33.07666
341.6750, 27.87451
342.1571, 22.69727
342.6392, 19.14209
343.1213, 19.28613
343.6034, 22.83984
344.0855, 23.92285
344.5677, 20.63770
345.0498, 15.50537
345.5319, 15.10547
346.0140, 19.53320
346.4961, 23.66992
346.9782, 23.93652
347.4604, 21.05908
347.9425, 18.04248
348.4246, 15.00195
348.9067, 12.57568
349.3888, 12.04736
349.8709, 13.17529
350.3531, 14.39404
350.8352, 15.65674
351.3173, 16.33838
351.7994, 14.53711
352.2815, 9.972656
352.7636, 5.797852
353.2458, 6.049805
353.7279, 8.938965
354.2100, 10.52539
354.6921, 6.832520
355.1742, 2.497070
355.6563, 3.755371
356.1385, 9.995117
356.6206, 15.70264
357.1027, 15.74805
357.5848, 13.60400
358.0669, 13.66748
358.5490, 18.28223
359.0312, 23.24609
359.5133, 26.29639
359.9954, 27.53564
360.4775, 27.70117
360.9596, 25.81738
361.4417, 23.82129
361.9239, 23.26758
362.4060, 25.05762
362.8881, 26.06104
363.3702, 24.08105
363.8523, 20.92627
364.3344, 19.32568
364.8166, 22.34082
365.2987, 24.97266
365.7808, 24.78174
366.2629, 21.28320
366.7450, 18.72998
367.2271, 19.16455
367.7093, 20.23877
368.1914, 19.89941
368.6735, 16.43115
369.1556, 13.35449
369.6377, 11.56689
370.1198, 10.84375
370.6020, 8.999512
371.0841, 3.885254
371.5662, 0.4086910
372.0483, 1.156738
372.5304, 4.666992
373.0125, 7.792969
373.4947, 7.179199
373.9768, 3.997559
374.4589, 0.7690430
374.9410, 2.988281
375.4231, 5.770996
375.9052, 6.925293
376.3874, 6.311035
376.8695, 5.136230
377.3516, 3.052246
377.8337, 0.8989260
378.3158, 0.1362300
378.7979, 0.1474610
379.2801, 0.2460940
379.7622, 2.394531
380.2443, 5.590820
380.7264, 6.497070
381.2085, 4.798828
381.6906, 2.731445
382.1728, 2.309570
382.6549, 3.262207
383.1370, 3.786133
383.6191, 3.430664
384.1012, 2.762695
384.5833, 2.930176
385.0655, 3.810547
385.5476, 4.469238
386.0297, 4.080566
386.5118, 3.225098
386.9939, 2.861816
387.4760, 3.017090
387.9582, 4.016602
388.4403, 8.074707
388.9224, 13.20996
389.4045, 15.29932
389.8866, 8.837891
390.3687, 1.296875
390.8509, 0.4248050
391.3330, 3.259277
391.8151, 7.465332
392.2972, 10.99561
392.7793, 12.79736
393.2614, 11.55225
393.7436, 3.992188
394.2257, 2.500000
394.7078, 4.777832
395.1899, 3.581055
395.6720, 0.8662110
396.1541, 6.342285
396.6363, 12.13965
397.1184, 13.12158
397.6005, 7.091797
398.0826, 2.221680
398.5647, 0.7666020
399.0468, 0.7958980
399.5290, 3.1738002E-02
400.0111, 4.472168
400.4932, 6.931641
400.9753, 5.974121
401.4574, 1.595703
401.9395, 2.705566
402.4217, 7.160645
402.9038, 11.28125
403.3859, 14.72119
403.8680, 17.31348
404.3501, 19.67139
404.8322, 22.44141
405.3144, 24.63477
405.7965, 22.70703
406.2786, 15.04639
406.7607, 8.588867
407.2428, 6.606934
407.7249, 9.224121
408.2071, 13.15967
408.6892, 18.93408
409.1713, 24.55566
409.6534, 27.15137
410.1355, 26.85156
410.6176, 26.61133
411.0998, 27.25977
411.5819, 28.59424
412.0640, 30.25635
412.5461, 32.20996
413.0282, 34.21289
413.5103, 36.60938
413.9925, 38.80371
414.4746, 39.18994
414.9567, 36.85352
415.4388, 34.62109
415.9209, 35.90723
416.4030, 39.64111
416.8852, 43.27148
417.3673, 46.75684
417.8494, 48.70508
418.3315, 46.97070
418.8136, 41.36914
419.2957, 36.59326
419.7779, 35.70166
420.2600, 36.77881
420.7421, 37.89307
421.2242, 38.95557
421.7063, 39.55957
422.1884, 39.90820
422.6706, 39.83447
423.1527, 38.75000
423.6348, 35.07080
424.1169, 31.57520
424.5990, 29.67725
425.0811, 30.47803
425.5633, 30.69629
426.0454, 28.71582
426.5275, 26.74463
427.0096, 27.83057
427.4917, 34.95947
427.9738, 40.55811
428.4560, 42.43457
428.9381, 40.83691
429.4202, 41.02686
429.9023, 43.75635
430.3844, 46.85693
430.8665, 48.58984
431.3487, 48.78125
431.8308, 48.06689
432.3129, 45.65771
432.7950, 43.20410
433.2771, 45.55420
433.7592, 52.94434
434.2414, 59.09375
434.7235, 60.15918
435.2056, 57.47217
435.6877, 56.34473
436.1698, 56.77734
436.6519, 57.56787
437.1341, 58.48291
437.6162, 58.87256
438.0983, 56.80518
438.5804, 50.32568
439.0625, 43.29199
439.5446, 40.28467
440.0268, 40.61719
440.5089, 41.68555
440.9910, 42.13916
441.4731, 42.63281
441.9552, 44.45361
442.4373, 48.32568
442.9195, 50.19971
443.4016, 46.80225
443.8837, 40.66553
444.3658, 34.86572
444.8479, 28.30664
445.3300, 24.25732
445.8122, 25.19678
446.2943, 30.41650
446.7764, 33.86816
447.2585, 32.11182
447.7406, 30.31006
448.2227, 31.32471
448.7049, 38.09424
449.1870, 41.86572
449.6691, 40.68604
450.1512, 37.43311
450.6333, 36.87305
451.1154, 40.73926
451.5976, 43.54248
452.0797, 43.44336
452.5618, 40.64746
453.0439, 38.36914
453.5260, 36.58398
454.0081, 35.47900
454.4903, 35.05225
454.9724, 35.30225
455.4545, 37.41992
455.9366, 42.07324
456.4187, 47.50781
456.9008, 50.73242
457.3830, 51.94092
457.8651, 52.02100
458.3472, 50.69092
458.8293, 49.04297
459.3114, 49.22998
459.7935, 51.11914
460.2757, 53.15039
460.7578, 53.33057
461.2399, 53.08594
461.7220, 54.51660
462.2041, 58.99902
462.6862, 63.87207
463.1684, 67.55225
463.6505, 70.31299
464.1326, 72.68457
464.6147, 75.25635
465.0968, 77.14111
465.5789, 77.82764
466.0611, 77.24414
466.5432, 75.57324
467.0253, 70.08643
467.5074, 64.92676
467.9895, 63.59619
468.4716, 71.28809
468.9538, 76.41699
469.4359, 77.87402
469.9180, 76.30566
470.4001, 73.34619
470.8822, 67.73682
471.3643, 63.20020
471.8465, 61.93555
472.3286, 64.55713
472.8107, 64.42041
473.2928, 60.96533
473.7749, 56.36523
474.2570, 52.90527
474.7392, 50.61377
475.2213, 48.65967
475.7034, 46.60840
476.1855, 45.12256
476.6676, 46.10840
477.1497, 49.31104
477.6319, 52.33789
478.1140, 53.65967
478.5961, 53.86670
479.0782, 53.78369
479.5603, 53.39355
480.0424, 53.10449
480.5246, 53.77979
481.0067, 54.58301
481.4888, 54.27637
481.9709, 50.86670
482.4530, 48.07031
482.9352, 48.64990
483.4173, 51.54980
483.8994, 53.53613
484.3815, 53.35498
484.8636, 51.90674
485.3457, 49.23047
485.8279, 44.63672
486.3100, 41.73486
486.7921, 42.11816
487.2742, 43.67480
487.7563, 44.94824
488.2384, 46.51514
488.7206, 46.17139
489.2027, 42.67578
489.6848, 36.96289
490.1669, 33.45361
490.6490, 32.82617
491.1311, 32.88525
491.6133, 33.00635
492.0954, 33.20801
492.5775, 31.58887
493.0596, 27.67480
493.5417, 24.11475
494.0238, 24.74414
494.5060, 28.57666
494.9881, 30.86523
495.4702, 29.98145
495.9523, 27.65820
496.4344, 25.54785
496.9165, 23.87646
497.3987, 23.51562
497.8808, 26.94287
498.3629, 30.68848
498.8450, 30.42090
499.3271, 25.45410
499.8092, 22.16260
500.2914, 26.65137
500.7735, 33.10400
501.2556, 36.05908
501.7377, 28.64893
502.2198, 24.14355
502.7019, 28.49414
503.1841, 37.97852
503.6662, 42.40820
504.1483, 35.15137
504.6304, 29.10205
505.1125, 28.96191
505.5946, 35.56152
506.0768, 37.40186
506.5589, 32.18457
507.0410, 25.71338
507.5231, 23.01123
508.0052, 24.80713
508.4873, 25.85596
508.9695, 25.47119
509.4516, 24.29346
509.9337, 23.40283
510.4158, 22.78076
510.8979, 22.17480
511.3800, 21.66748
511.8622, 20.98389
512.3443, 19.12354
512.8264, 16.14258
513.3085, 13.63428
513.7906, 12.62305
514.2728, 12.85645
514.7549, 14.43848
515.2370, 18.11719
515.7191, 20.89062
516.2012, 20.73389
516.6833, 18.50586
517.1655, 15.54980
517.6476, 11.42627
518.1297, 7.935547
518.6118, 5.148926
519.0939, 2.877441
519.5760, 1.689941
520.0582, 2.320313
520.5403, 3.810547
521.0224, 5.821289
521.5045, 9.003906
521.9866, 9.939941
522.4688, 7.373047
522.9509, 4.094238
523.4330, 3.899902
523.9151, 7.451172
524.3972, 10.24854
524.8793, 11.09766
525.3615, 10.71240
525.8436, 10.89160
526.3257, 11.63525
526.8078, 12.67969
527.2899, 14.68164
527.7720, 16.79492
528.2542, 16.96777
528.7363, 15.12402
529.2184, 12.19238
529.7005, 7.743164
530.1826, 3.114258
530.6647, 0.2104490
531.1469, 0.2617190
531.6290, 1.020508
532.1111, 1.069824
532.5932, 0.9165040
533.0753, 1.588867
533.5574, 3.448242
534.0396, 6.064453
534.5217, 10.28076
535.0038, 16.24121
535.4859, 18.82080
535.9680, 15.39795
536.4501, 10.93262
536.9323, 8.387207
537.4144, 8.906250
537.8965, 7.834961
538.3786, 4.285645
538.8607, 0.2641600
539.3428, 0.5722660
539.8250, 2.140137
540.3071, 3.468262
540.7892, 1.320313
541.2713, 2.478027
541.7534, 3.368164
542.2355, 1.516602
542.7177, 1.025391
543.1998, 4.749512
543.6819, 7.733887
544.1640, 5.955078
544.6461, 1.100586
545.1282, 7.760254
545.6104, 10.79736
546.0925, 10.93213
546.5746, 8.780762
547.0567, 2.140137
547.5388, 3.372070
548.0209, 5.053711
548.5031, 4.227051
548.9852, 3.898926
549.4673, 4.491699
549.9494, 5.661133
550.4315, 8.014160
550.9136, 11.53662
551.3958, 12.16553
551.8779, 8.305176
552.3600, 4.269531
552.8421, 2.934082
553.3242, 4.604004
553.8063, 6.434570
554.2885, 8.691895
554.7706, 10.06348
555.2527, 7.630859
555.7348, 2.174316
556.2169, 1.308594
556.6990, 0.5375980
557.1812, 1.945801
557.6633, 2.719238
558.1454, 2.113281
558.6275, 1.395020
559.1096, 0.3071290
559.5917, 8.9844003E-02
560.0739, 2.672363
560.5560, 8.256836
561.0381, 12.20996
561.5202, 9.830566
562.0023, 6.785645
562.4844, 7.445313
562.9666, 17.30762
563.4487, 23.41650
563.9308, 23.07520
564.4129, 19.48389
564.8950, 17.39209
565.3771, 17.18555
565.8593, 17.53467
566.3414, 18.27148
566.8235, 19.25146
567.3056, 19.94482
567.7877, 20.26953
568.2698, 20.67578
568.7520, 21.79785
569.2341, 23.28027
569.7162, 23.94531
570.1983, 23.77051
570.6804, 22.70020
571.1625, 19.62988
571.6447, 15.93896
572.1268, 14.15576
572.6089, 16.07422
573.0910, 17.53760
573.5731, 15.90820
574.0552, 12.05713
574.5374, 7.467285
575.0195, 0.2583010
575.5016, 5.617676
575.9837, 5.103516
576.4658, 0.6787110
576.9479, 3.364258
577.4301, 6.1035000E-02
577.9122, 3.221680
578.3943, 3.515137
578.8764, 0.7143550
579.3585, 4.246094
579.8406, 12.27734
580.3228, 20.41748
580.8049, 25.54639
581.2870, 27.72852
581.7691, 28.70166
582.2512, 28.31299
582.7333, 27.62646
583.2155, 28.49170
583.6976, 30.40039
584.1797, 31.90430
584.6617, 30.41211
585.1439, 29.59473
585.6260, 33.86572
586.1081, 42.19873
586.5902, 49.71924
587.0723, 55.51025
587.5544, 58.46875
588.0366, 57.27588
588.5187, 50.59521
589.0008, 45.45166
589.4829, 44.49902
589.9650, 44.31885
590.4471, 42.18848
590.9293, 36.47266
591.4114, 32.92578
591.8935, 32.48291
592.3756, 33.82178
592.8577, 34.76758
593.3398, 35.32666
593.8220, 35.36719
594.3041, 34.52979
594.7862, 33.36279
595.2683, 33.51074
595.7504, 34.74658
596.2325, 35.47021
596.7147, 35.27441
597.1968, 33.70508
597.6789, 28.93896
598.1610, 20.77637
598.6431, 15.32422
599.1252, 15.85400
599.6074, 20.63428
600.0895, 29.15430
600.5716, 47.84326
601.0537, 58.76172
601.5358, 54.30273
602.0179, 42.49512
602.5001, 32.97021
602.9822, 24.59375
603.4643, 20.51074
603.9464, 22.74756
604.4285, 29.21143
604.9106, 33.11328
605.3928, 33.92871
605.8749, 33.62793
606.3570, 32.22168
606.8391, 30.36182
607.3212, 31.37793
607.8033, 35.12646
608.2855, 38.26953
608.7676, 37.12646
609.2497, 34.36035
609.7318, 33.61328
610.2139, 35.64502
610.6960, 37.38379
611.1782, 36.39648
611.6603, 34.83350
612.1424, 34.95117
612.6245, 40.34912
613.1066, 43.72607
613.5887, 43.99902
614.0709, 41.77588
614.5530, 38.25537
615.0351, 31.69189
615.5172, 25.76953
615.9993, 21.51270
616.4814, 19.11035
616.9636, 18.95410
617.4457, 21.23779
617.9278, 23.92188
618.4099, 26.35156
618.8920, 28.09570
619.3741, 27.54590
619.8563, 24.62549
620.3384, 21.73730
620.8205, 20.96191
621.3026, 21.25293
621.7847, 21.31641
622.2668, 20.76367
622.7490, 20.22412
623.2311, 20.92578
623.7132, 21.43164
624.1953, 19.90039
624.6774, 11.38965
625.1595, 6.618652
625.6417, 8.425781
626.1238, 14.56006
626.6059, 18.91553
627.0880, 21.68604
627.5701, 22.20410
628.0522, 19.22803
628.5344, 13.89941
629.0165, 12.26758
629.4986, 14.47266
629.9807, 17.08984
630.4628, 16.39062
630.9449, 14.35010
631.4271, 15.63037
631.9092, 20.68896
632.3913, 25.57031
632.8734, 27.49951
633.3555, 27.33936
633.8376, 26.42480
634.3198, 24.82080
634.8019, 23.21143
635.2840, 21.01025
635.7661, 18.92480
636.2482, 18.27148
636.7303, 20.52393
637.2125, 22.10645
637.6946, 22.48926
638.1767, 21.84424
638.6588, 20.68750
639.1409, 19.08594
639.6230, 16.31006
640.1052, 11.24268
640.5873, 5.175293
641.0694, 2.583008
641.5515, 3.208984
642.0336, 3.572754
642.5157, 0.6704100
642.9979, 3.336426
643.4800, 6.223633
643.9621, 7.777832
644.4442, 7.874023
644.9263, 5.636719
645.4084, 2.417480
645.8906, 0.6611330
646.3727, 3.238770
646.8548, 5.778809
647.3369, 7.840820
647.8190, 9.945801
648.3011, 12.90430
648.7833, 17.32861
649.2654, 19.94141
649.7475, 19.45996
650.2296, 17.68945
650.7117, 19.33350
651.1938, 24.00244
651.6760, 26.68506
652.1581, 23.52930
652.6402, 18.71973
653.1223, 19.50342
653.6044, 24.61572
654.0865, 28.68311
654.5687, 27.49756
655.0508, 25.28857
655.5329, 25.12891
656.0150, 27.34961
656.4971, 28.64014
656.9792, 27.83984
657.4614, 26.22314
657.9435, 24.20068
658.4256, 21.10449
658.9077, 19.98779
659.3898, 21.51465
659.8719, 23.73535
660.3541, 24.91406
660.8362, 25.02197
661.3183, 23.87646
661.8004, 21.33301
662.2825, 17.77295
662.7646, 12.19678
663.2468, 6.015137
663.7289, 2.837891
664.2110, 6.073730
664.6931, 10.21240
665.1752, 12.27051
665.6573, 12.34521
666.1395, 10.67676
666.6216, 4.041504
667.1037, 0.8457030
667.5858, 0.8012700
668.0679, 3.391602
668.5500, 6.287598
669.0322, 7.205078
669.5143, 8.279785
669.9964, 11.59961
670.4785, 16.67188
670.9606, 14.13525
671.4427, 3.054199
671.9249, 7.004883
672.4070, 7.700195
672.8891, 2.005859
673.3712, 4.878906
673.8533, 12.75049
674.3354, 18.09814
674.8176, 16.16846
675.2997, 11.57324
675.7818, 9.354004
676.2639, 12.59424
676.7460, 14.61182
677.2281, 12.71240
677.7103, 9.365723
678.1924, 7.376953
678.6745, 6.430176
679.1566, 8.027344
679.6387, 13.73779
680.1208, 20.84375
680.6030, 22.79443
681.0851, 19.55127
681.5672, 16.94971
682.0493, 17.63135
682.5314, 19.57812
683.0135, 18.90039
683.4957, 16.25293
683.9778, 14.20898
684.4599, 15.88867
684.9420, 17.21924
685.4241, 14.77783
685.9063, 8.781250
686.3884, 3.551758
686.8705, 0.8383790
687.3526, 3.031738
687.8347, 1.913086
688.3168, 3.269043
688.7990, 7.201172
689.2811, 9.962402
689.7632, 11.71777
690.2453, 12.45361
690.7274, 12.24707
691.2095, 11.56348
691.6917, 10.35498
692.1738, 9.169922
692.6559, 8.286621
693.1380, 7.835449
693.6201, 8.257324
694.1022, 10.08545
694.5844, 11.30908
695.0665, 9.288574
695.5486, 6.392578
696.0307, 5.682129
696.5128, 10.97510
696.9949, 14.29150
697.4771, 13.75391
697.9592, 11.32715
698.4413, 11.12256
698.9234, 13.98877
699.4055, 15.80713
699.8876, 15.25391
700.3698, 13.13818
700.8519, 11.39209
701.3340, 10.05371
701.8161, 8.923828
702.2982, 7.900391
702.7803, 7.382813
703.2625, 7.971191
703.7446, 9.503418
704.2267, 10.92822
704.7088, 12.56641
705.1909, 13.37402
705.6730, 12.25732
706.1552, 8.928223
706.6373, 6.980957
707.1194, 6.119141
707.6015, 7.019043
708.0836, 10.65674
708.5657, 17.16406
709.0479, 21.18750
709.5300, 22.19189
710.0121, 23.23291
710.4942, 28.15186
710.9763, 34.95410
711.4584, 38.79785
711.9406, 38.63574
712.4227, 38.18652
712.9048, 41.85059
713.3869, 45.83447
713.8690, 45.89062
714.3511, 37.97510
714.8333, 31.95361
715.3154, 31.93799
715.7975, 33.68750
716.2796, 32.91162
716.7617, 29.41650
717.2438, 24.36377
717.7260, 17.34424
718.2081, 10.03857
718.6902, 5.465332
719.1723, 3.434570
719.6544, 2.371094
720.1365, 1.577148
720.6187, 1.787598
721.1008, 4.469238
721.5829, 8.689941
722.0650, 12.61084
722.5471, 15.36523
723.0292, 17.36035
723.5114, 17.78174
723.9935, 17.17773
724.4756, 18.33057
724.9577, 22.92627
725.4398, 26.18799
725.9219, 26.63330
726.4041, 24.67822
726.8862, 22.91162
727.3683, 21.27344
727.8504, 20.94189
728.3325, 24.16260
728.8146, 28.73730
729.2968, 29.34863
729.7789, 25.93994
730.2610, 22.24463
730.7431, 20.47852
731.2252, 19.69189
731.7073, 18.81982
732.1895, 17.57324
732.6716, 17.86914
733.1537, 21.78516
733.6358, 25.58936
734.1179, 27.31885
734.6000, 26.42285
735.0822, 26.14551
735.5643, 26.66504
736.0464, 26.93750
736.5285, 25.03613
737.0106, 22.03076
737.4927, 22.82715
737.9749, 28.37207
738.4570, 33.24805
738.9391, 32.21094
739.4212, 28.21533
739.9033, 24.62646
740.3854, 22.69727
740.8676, 20.23975
741.3497, 14.43555
741.8318, 9.247559
742.3139, 8.890625
742.7960, 15.89404
743.2781, 21.22754
743.7603, 23.84131
744.2424, 25.11475
744.7245, 26.93994
745.2066, 29.11719
745.6887, 31.41650
746.1708, 34.12939
746.6530, 35.80615
747.1351, 32.90234
747.6172, 28.14746
748.0993, 26.49805
748.5814, 34.29297
749.0635, 40.39404
749.5457, 39.01123
750.0278, 33.32617
750.5099, 30.75879
750.9920, 33.45361
751.4741, 36.02100
751.9562, 38.36035
752.4384, 39.53223
752.9205, 35.52588
753.4026, 26.75781
753.8847, 20.55127
754.3668, 20.51660
754.8489, 23.79639
755.3311, 27.58057
755.8132, 30.82520
756.2953, 31.87549
756.7774, 28.03613
757.2595, 24.27490
757.7416, 23.27295
758.2238, 24.40186
758.7059, 24.32861
759.1880, 22.00732
759.6701, 19.89062
760.1522, 18.93018
760.6343, 18.80225
761.1165, 16.99512
761.5986, 13.43457
762.0807, 10.60205
762.5628, 9.814453
763.0449, 10.62695
763.5270, 13.10254
764.0092, 16.78809
764.4913, 19.44385
764.9734, 19.20508
765.4555, 18.09619
765.9376, 17.43896
766.4197, 17.30566
766.9019, 16.16943
767.3840, 13.36914
767.8661, 10.51807
768.3482, 8.265137
768.8303, 6.657227
769.3124, 5.529297
769.7946, 4.825684
770.2767, 4.573730
770.7588, 5.144531
771.2409, 6.454102
771.7230, 6.499512
772.2051, 4.925293
772.6873, 4.807617
773.1694, 8.527344
773.6515, 13.54199
774.1336, 18.85547
774.6157, 24.80371
775.0978, 27.33057
775.5800, 24.07129
776.0621, 20.43262
776.5442, 20.25830
777.0263, 23.85547
777.5084, 22.43018
777.9905, 15.34619
778.4727, 9.304199
778.9548, 12.00977
779.4369, 19.05566
779.9190, 23.29297
780.4011, 23.97510
780.8832, 21.75537
781.3654, 12.21240
781.8475, 3.588379
782.3296, 2.806641
782.8117, 15.49316
783.2938, 21.86279
783.7759, 18.76172
784.2581, 13.99512
784.7402, 13.38184
785.2223, 17.02490
785.7044, 20.41846
786.1865, 23.46191
786.6686, 25.11328
787.1508, 22.61768
787.6329, 18.60498
788.1150, 17.21826
788.5971, 19.23828
789.0792, 22.30762
789.5613, 25.62744
790.0435, 29.17334
790.5256, 33.32666
791.0077, 39.52832
791.4898, 41.70605
791.9719, 37.99023
792.4540, 33.23926
792.9362, 32.95361
793.4183, 36.52979
793.9004, 35.68066
794.3825, 29.35303
794.8646, 22.88330
795.3467, 22.06299
795.8289, 24.03320
796.3110, 25.10986
796.7931, 24.81982
797.2752, 23.36328
797.7573, 19.32861
798.2394, 15.25830
798.7216, 13.18945
799.2037, 13.42578
799.6858, 15.32715
800.1679, 19.82666
800.6500, 23.81006
801.1321, 23.53564
801.6143, 19.84570
802.0964, 17.23193
802.5785, 16.25098
803.0606, 15.31055
803.5427, 12.47363
804.0248, 9.130371
804.5070, 6.983887
804.9891, 6.941406
805.4712, 6.222168
805.9533, 2.640625
806.4354, 0.5625000
806.9175, 0.6093750
807.3997, 3.746094
807.8818, 6.160645
808.3639, 6.347656
808.8460, 5.327148
809.3281, 4.261230
809.8102, 1.819824
810.2924, 0.1625980
810.7745, 5.027344
811.2566, 9.832520
811.7387, 15.06299
812.2208, 18.48291
812.7029, 17.50342
813.1851, 9.229980
813.6672, 3.658203
814.1493, 2.759766
814.6314, 2.934082
815.1135, 1.208008
815.5956, 2.532227
816.0778, 5.258789
816.5599, 6.873047
817.0420, 7.251953
817.5241, 4.195313
818.0062, 0.6215820
818.4883, 2.196289
818.9705, 10.46484
819.4526, 16.82031
819.9347, 15.07959
820.4168, 11.43066
820.8989, 10.59131
821.3810, 13.62451
821.8632, 15.53320
822.3453, 16.05566
822.8274, 16.08105
823.3095, 16.26611
823.7916, 16.56689
824.2737, 17.13672
824.7559, 18.02539
825.2380, 17.03906
825.7201, 8.661621
826.2022, 0.1625980
826.6843, 0.5605470
827.1664, 9.879395
827.6486, 14.99316
828.1307, 3.497070
828.6128, 7.000977
829.0949, 6.939453
829.5770, 4.638184
830.0591, 11.33398
830.5413, 12.63281
831.0234, 12.03809
831.5055, 11.48828
831.9876, 10.98047
832.4697, 10.53760
832.9518, 10.12744
833.4340, 9.831543
833.9161, 8.316895
834.3982, 7.974121
834.8803, 11.72363
835.3624, 20.10449
835.8445, 22.97998
836.3267, 18.13818
836.8088, 12.11523
837.2909, 7.952637
837.7730, 5.338379
838.2551, 1.340820
838.7372, 3.744141
839.2194, 6.038086
839.7015, 0.9521480
840.1836, 9.092773
840.6657, 9.008789
841.1478, 1.974609
841.6299, 2.716309
842.1121, 0.2446290
842.5942, 3.109375
843.0763, 5.228027
843.5584, 6.354492
844.0405, 8.243652
844.5226, 10.99414
845.0048, 12.97119
845.4869, 12.49609
845.9690, 11.43018
846.4511, 14.54395
846.9332, 20.38525
847.4153, 24.27246
847.8975, 22.57324
848.3796, 19.70020
848.8617, 17.41504
849.3438, 15.65381
849.8259, 14.01611
850.3080, 12.60400
850.7902, 11.28809
851.2723, 10.09131
851.7544, 9.112305
852.2365, 8.143555
852.7186, 7.438477
853.2007, 8.396973
853.6829, 12.72754
854.1650, 16.95312
854.6471, 18.00195
855.1292, 16.88086
855.6113, 15.27832
856.0934, 11.59033
856.5756, 10.26611
857.0577, 13.15137
857.5398, 17.36475
858.0219, 18.54150
858.5040, 16.44629
858.9861, 14.81104
859.4683, 14.11768
859.9504, 14.36523
860.4325, 16.45508
860.9146, 19.18799
861.3967, 20.17139
861.8788, 17.66553
862.3610, 16.46875
862.8431, 19.54248
863.3252, 24.03516
863.8073, 27.50537
864.2894, 30.74756
864.7715, 29.69580
865.2537, 23.28564
865.7358, 16.59082
866.2179, 15.73340
866.7000, 18.67578
867.1821, 19.82422
867.6642, 18.62354
868.1464, 16.47998
868.6285, 12.12109
869.1106, 8.594238
869.5927, 8.790039
870.0748, 14.31982
870.5569, 17.86328
871.0391, 19.45508
871.5212, 19.87354
872.0033, 18.05762
872.4854, 14.63623
872.9675, 16.46680
873.4496, 23.21436
873.9318, 29.12793
874.4139, 28.78125
874.8960, 26.99902
875.3781, 28.45947
875.8602, 32.72119
876.3423, 35.68018
876.8245, 35.94727
877.3066, 34.92480
877.7887, 32.38965
878.2708, 29.01416
878.7529, 28.17334
879.2350, 29.94531
879.7172, 29.95361
880.1993, 24.62012
880.6814, 18.66748
881.1635, 19.72217
881.6456, 24.99414
882.1277, 27.90234
882.6099, 22.75781
883.0920, 18.87695
883.5741, 19.28857
884.0562, 22.20850
884.5383, 25.74951
885.0204, 30.59131
885.5026, 31.71387
885.9847, 27.43115
886.4668, 21.00684
886.9489, 16.28027
887.4310, 14.37207
887.9131, 16.83936
888.3953, 25.60840
888.8774, 34.43604
889.3595, 42.46729
889.8416, 47.96924
890.3237, 49.13867
890.8058, 44.26660
891.2880, 39.65527
891.7701, 34.92383
892.2522, 31.60010
892.7343, 30.94824
893.2164, 32.79639
893.6985, 37.71045
894.1807, 45.63086
894.6628, 52.49609
895.1449, 55.53223
895.6270, 56.63184
896.1091, 56.89258
896.5912, 56.16895
897.0734, 54.23584
897.5555, 50.21484
898.0376, 48.22412
898.5197, 51.70312
899.0018, 58.41699
899.4839, 59.26611
899.9661, 55.47412
900.4482, 52.93359
900.9303, 57.35449
901.4124, 61.92822
901.8945, 62.02295
902.3766, 58.66895
902.8588, 55.31982
903.3409, 51.74707
903.8230, 49.55908
904.3051, 49.36816
904.7872, 50.39697
905.2693, 51.44336
905.7515, 52.39307
906.2336, 52.47266
906.7157, 50.96045
907.1978, 49.74854
907.6799, 50.05273
908.1620, 51.70166
908.6442, 54.74365
909.1263, 62.23877
909.6084, 65.18213
910.0905, 61.03320
910.5726, 55.62793
911.0547, 55.11475
911.5369, 59.01367
912.0190, 60.31738
912.5011, 58.59668
912.9832, 56.47754
913.4653, 56.03271
913.9474, 56.37402
914.4296, 56.66992
914.9117, 56.76318
915.3938, 56.85840
915.8759, 55.92139
916.3580, 56.51465
916.8401, 60.26709
917.3223, 66.30322
917.8044, 70.07861
918.2865, 71.54688
918.7686, 71.48340
919.2507, 69.65625
919.7328, 67.00146
920.2150, 64.06104
920.6971, 61.05664
921.1792, 58.49902
921.6613, 57.03857
922.1434, 55.55029
922.6255, 53.94189
923.1077, 52.30127
923.5898, 50.32715
924.0719, 48.15186
924.5540, 47.99023
925.0361, 50.66943
925.5182, 53.79199
926.0004, 55.74951
926.4825, 56.29443
926.9646, 54.56641
927.4467, 48.31006
927.9288, 45.94580
928.4109, 51.77246
928.8931, 57.15918
929.3752, 55.24805
929.8573, 46.24023
930.3394, 40.55371
930.8215, 38.26514
931.3036, 36.64453
931.7858, 33.19824
932.2679, 30.00830
932.7500, 29.74463
933.2321, 32.10693
933.7142, 33.68018
934.1964, 34.01270
934.6785, 33.10498
935.1606, 30.20557
935.6427, 26.48193
936.1248, 26.07910
936.6069, 28.62842
937.0891, 29.50928
937.5712, 25.55420
938.0533, 22.41455
938.5354, 27.93945
939.0175, 37.01123
939.4996, 41.89209
939.9818, 35.09277
940.4639, 31.82275
940.9460, 34.76709
941.4281, 38.93604
941.9102, 38.50635
942.3923, 33.82861
942.8745, 30.78564
943.3566, 29.80371
943.8387, 29.90723
944.3208, 30.35791
944.8029, 31.51318
945.2850, 33.66211
945.7672, 36.84033
946.2493, 41.72412
946.7314, 52.93164
947.2135, 57.03467
947.6956, 45.27100
948.1777, 24.06836
948.6599, 18.39697
949.1420, 25.97803
949.6241, 34.24365
950.1062, 38.84277
950.5883, 40.34131
951.0704, 36.35596
951.5526, 30.15234
952.0347, 28.21973
952.5168, 33.50439
952.9989, 38.06104
953.4810, 41.58691
953.9631, 43.67041
954.4453, 43.93701
954.9274, 42.32471
955.4095, 37.60791
955.8916, 29.32959
956.3737, 22.70703
956.8558, 21.77783
957.3380, 23.33740
957.8201, 25.62939
958.3022, 28.58789
958.7843, 29.77295
959.2664, 28.86133
959.7485, 27.01465
960.2307, 24.71924
960.7128, 21.92969
961.1949, 18.12207
961.6770, 13.67725
962.1591, 9.977051
962.6412, 8.067871
963.1234, 6.665039
963.6055, 4.845215
964.0876, 3.547852
964.5697, 4.958496
965.0518, 10.52246
965.5339, 12.12891
966.0161, 8.235352
966.4982, 2.581055
966.9803, 2.253906
967.4624, 5.120605
967.9445, 2.605957
968.4266, 6.758789
968.9088, 12.78125
969.3909, 8.977051
969.8730, 3.119629
970.3551, 1.354004
970.8372, 4.446289
971.3193, 5.924805
971.8015, 5.875000
972.2836, 3.742676
972.7657, 2.373535
973.2478, 9.244141
973.7299, 13.61230
974.2120, 15.71289
974.6942, 16.23438
975.1763, 13.44434
975.6584, 11.81250
976.1405, 12.46338
976.6226, 13.98779
977.1047, 14.40527
977.5869, 13.83008
978.0690, 12.55811
978.5511, 10.38477
979.0332, 10.04150
979.5153, 17.36865
979.9974, 25.26270
980.4796, 26.04883
980.9617, 17.60303
981.4438, 13.60742
981.9259, 16.43750
982.4080, 19.80322
982.8901, 21.21777
983.3723, 20.83154
983.8544, 18.73877
984.3365, 15.27637
984.8186, 13.19287
985.3007, 13.20020
985.7828, 16.03906
986.2650, 24.35303
986.7471, 34.16748
987.2292, 39.18164
987.7113, 38.19092
988.1934, 36.56738
988.6755, 34.38525
989.1577, 33.03125
989.6398, 36.17822
990.1219, 40.35303
990.6040, 38.62256
991.0861, 30.09375
991.5682, 22.46533
992.0504, 18.96729
992.5325, 17.23291
993.0146, 17.29053
993.4967, 18.34668
993.9788, 14.60645
994.4609, 6.382813
994.9431, 0.1176760
995.4252, 1.468262
995.9073, 1.246094
996.3894, 4.285156
996.8715, 8.350098
997.3536, 9.864746
997.8358, 4.813477
998.3179, 2.000977
998.8000, 3.388184
999.2821, 4.435547
999.7642, 0.5605470
1000.246, 10.08008
1000.728, 15.83154
1001.211, 17.44385
1001.693, 16.92773
1002.175, 13.14746
1002.657, 9.796387
1003.139, 9.618164
1003.621, 12.25830
1004.103, 14.44092
1004.585, 15.96582
1005.068, 17.83594
1005.550, 20.71729
1006.032, 23.41602
1006.514, 23.72070
1006.996, 22.55908
1007.478, 21.79053
1007.960, 22.07227
1008.442, 22.58740
1008.924, 23.19678
1009.407, 23.89160
1009.889, 24.91504
1010.371, 26.33008
1010.853, 26.22949
1011.335, 25.25244
1011.817, 24.45703
1012.299, 25.10693
1012.781, 25.20898
1013.263, 22.53613
1013.746, 18.33350
1014.228, 16.80029
1014.710, 20.54346
1015.192, 23.13428
1015.674, 23.27441
1016.156, 22.50977
1016.638, 23.53809
1017.120, 25.63477
1017.603, 26.16748
1018.085, 24.43018
1018.567, 23.40723
1019.049, 25.95996
1019.531, 28.83252
1020.013, 30.02686
1020.495, 29.51221
1020.977, 27.08057
1021.459, 22.50049
1021.942, 17.69482
1022.424, 12.66699
1022.906, 8.988281
1023.388, 10.39404
1023.870, 14.48779
1024.352, 16.54248
1024.834, 12.59717
1025.316, 10.30225
1025.799, 11.50879
1026.281, 13.42822
1026.763, 12.75146
1027.245, 10.06982
1027.727, 8.970703
1028.209, 9.631348
1028.691, 11.35107
1029.173, 14.64307
1029.656, 18.03271
1030.138, 20.65674
1030.620, 22.39844
1031.102, 23.19971
1031.584, 22.81299
1032.066, 21.80322
1032.548, 19.75293
1033.030, 18.28711
1033.512, 19.99023
1033.995, 23.88135
1034.477, 28.74414
1034.959, 35.08350
1035.441, 39.15625
1035.923, 38.72510
1036.405, 37.32324
1036.887, 37.26318
1037.369, 38.12842
1037.851, 36.09229
1038.334, 31.28760
1038.816, 24.27393
1039.298, 12.36719
1039.780, 1.541504
1040.262, 4.373047
1040.744, 6.252930
1041.226, 5.706055
1041.708, 0.9995120
1042.191, 0.1806640
1042.673, 3.535156
1043.155, 7.421387
1043.637, 6.147461
1044.119, 1.900879
1044.601, 1.642090
1045.083, 4.234863
1045.565, 7.062988
1046.047, 12.65088
1046.530, 15.70996
1047.012, 13.42285
1047.494, 8.150391
1047.976, 6.413086
1048.458, 7.914551
1048.940, 10.60742
1049.422, 14.54639
1049.904, 17.53174
1050.386, 18.41943
1050.869, 17.21045
1051.351, 12.29688
1051.833, 1.627441
1052.315, 1.649414
1052.797, 14.86133
1053.279, 27.12500
1053.761, 29.32422
1054.243, 25.96338
1054.726, 24.15918
1055.208, 23.51758
1055.690, 23.08887
1056.172, 22.20947
1056.654, 21.01074
1057.136, 17.93994
1057.618, 16.88184
1058.100, 25.21924
1058.583, 40.35547
1059.065, 43.37793
1059.547, 33.12207
1060.029, 21.60400
1060.511, 15.61670
1060.993, 12.68359
1061.475, 12.39648
1061.957, 14.10596
1062.439, 15.55713
1062.922, 16.85889
1063.404, 17.35938
1063.886, 16.87061
1064.368, 15.48291
1064.850, 12.06592
1065.332, 8.368164
1065.814, 7.111816
1066.296, 9.580078
1066.778, 11.09668
1067.261, 12.56543
1067.743, 10.38428
1068.225, 0.1494140
1068.707, 14.38867
1069.189, 16.12988
1069.671, 7.591797
1070.153, 3.612305
1070.635, 19.33789
1071.118, 29.96533
1071.600, 27.70801
1072.082, 20.67139
1072.564, 16.47070
1073.046, 15.27588
1073.528, 14.60547
1074.010, 14.30908
1074.492, 15.80762
1074.974, 21.93994
1075.457, 28.78906
1075.939, 32.56738
1076.421, 33.88232
1076.903, 36.11035
1077.385, 40.16797
1077.867, 42.92773
1078.349, 43.59521
1078.831, 43.47217
1079.313, 44.26465
1079.796, 45.50342
1080.278, 46.73242
1080.760, 47.98340
1081.242, 47.44678
1081.724, 40.67725
1082.206, 36.73682
1082.688, 40.17432
1083.170, 48.00488
1083.652, 50.82959
1084.135, 49.29395
1084.617, 46.16699
1085.099, 41.62012
1085.581, 37.80811
1086.063, 38.04199
1086.545, 38.32275
1087.027, 34.30469
1087.509, 25.23633
1087.992, 20.98584
1088.474, 21.80273
1088.956, 24.69531
1089.438, 28.76123
1089.920, 33.17920
1090.402, 38.05957
1090.884, 42.41211
1091.366, 43.88525
1091.849, 38.26416
1092.331, 37.37305
1092.813, 42.69482
1093.295, 49.65771
1093.777, 54.16650
1094.259, 56.72021
1094.741, 58.57764
1095.223, 59.73047
1095.705, 59.70361
1096.188, 58.09912
1096.670, 55.61328
1097.152, 52.45557
1097.634, 48.68750
1098.116, 43.65820
1098.598, 38.25293
1099.080, 36.08105
1099.562, 38.26953
1100.044, 41.20996
1100.527, 44.51172
1101.009, 45.57959
1101.491, 41.51855
1101.973, 33.90430
1102.455, 31.56055
1102.937, 34.49609
1103.419, 36.49121
1103.901, 34.51172
1104.384, 32.75293
1104.866, 35.63281
1105.348, 41.08740
1105.830, 47.36816
1106.312, 55.24707
1106.794, 58.60449
1107.276, 56.30322
1107.758, 53.19092
1108.240, 51.91504
1108.723, 51.70459
1109.205, 51.02881
1109.687, 50.12207
1110.169, 50.16016
1110.651, 53.24512
1111.133, 55.21387
1111.615, 56.23340
1112.097, 55.64404
1112.579, 51.62842
1113.062, 45.62256
1113.544, 43.18555
1114.026, 44.04883
1114.508, 45.20215
1114.990, 45.83691
1115.472, 45.62012
1115.954, 44.08105
1116.436, 41.88867
1116.919, 39.28320
1117.401, 36.42139
1117.883, 37.17236
1118.365, 42.03516
1118.847, 47.12256
1119.329, 51.03809
1119.811, 52.69971
1120.293, 49.58252
1120.776, 43.42822
1121.258, 40.62402
1121.740, 41.43359
1122.222, 44.05078
1122.704, 49.04199
1123.186, 51.64648
1123.668, 43.45312
1124.150, 32.45459
1124.632, 28.48730
1125.115, 33.99463
1125.597, 33.05029
1126.079, 21.91113
1126.561, 15.62256
1127.043, 24.31396
1127.525, 37.49658
1128.007, 34.58008
1128.489, 23.45312
1128.971, 19.06641
1129.454, 29.33203
1129.936, 34.09131
1130.418, 28.88379
1130.900, 22.99170
1131.382, 22.25342
1131.864, 24.81787
1132.346, 25.33301
1132.828, 24.33887
1133.311, 23.88721
1133.793, 23.32715
1134.275, 25.73828
1134.757, 35.47266
1135.239, 44.42041
1135.721, 44.31152
1136.203, 36.43750
1136.685, 30.86475
1137.167, 27.80469
1137.650, 27.35156
1138.132, 33.20801
1138.614, 37.54102
1139.096, 35.64307
1139.578, 30.70996
1140.060, 26.18457
1140.542, 22.02002
1141.024, 22.29785
1141.506, 27.45166
1141.989, 31.43555
1142.471, 28.36523
1142.953, 23.82666
1143.435, 21.89648
1143.917, 21.80469
1144.399, 20.03955
1144.881, 16.12500
1145.363, 14.37109
1145.846, 15.58203
1146.328, 18.76074
1146.810, 25.97461
1147.292, 32.42139
1147.774, 32.33105
1148.256, 25.47119
1148.738, 21.21338
1149.220, 19.79395
1149.703, 20.99365
1150.185, 25.65088
1150.667, 30.24121
1151.149, 29.01221
1151.631, 25.36426
1152.113, 23.82275
1152.595, 25.22217
1153.077, 28.21826
1153.559, 33.66797
1154.042, 37.67480
1154.524, 38.19482
1155.006, 36.98242
1155.488, 37.90820
1155.970, 39.37793
1156.452, 37.84326
1156.934, 30.73193
1157.416, 25.91455
1157.898, 25.00879
1158.381, 25.13232
1158.863, 24.58350
1159.345, 23.74707
1159.827, 24.82959
1160.309, 26.57471
1160.791, 25.18799
1161.273, 16.29932
1161.755, 10.06104
1162.238, 10.20850
1162.720, 11.53662
1163.202, 10.15186
1163.684, 6.746094
1164.166, 3.453613
1164.648, 0.9560550
1165.130, 2.291992
1165.612, 14.91553
1166.094, 23.67383
1166.577, 20.39355
1167.059, 14.25293
1167.541, 14.77100
1168.023, 20.81006
1168.505, 22.23975
1168.987, 19.25098
1169.469, 17.16162
1169.951, 19.06396
1170.433, 22.41650
1170.916, 28.51221
1171.398, 33.89648
1171.880, 33.42285
1172.362, 27.44531
1172.844, 21.11865
1173.326, 15.02393
1173.808, 11.81006
1174.290, 17.17871
1174.773, 22.23682
1175.255, 20.34180
1175.737, 15.21729
1176.219, 14.82666
1176.701, 19.27246
1177.183, 17.46045
1177.665, 7.549316
1178.147, 0.6538090
1178.630, 2.952637
1179.112, 8.843262
1179.594, 9.608887
1180.076, 12.78711
1180.558, 15.38184
1181.040, 14.62891
1181.522, 17.34473
1182.004, 15.00195
1182.486, 11.21191
1182.969, 7.717285
1183.451, 5.205078
1183.933, 3.959473
1184.415, 4.088867
1184.897, 7.846680
1185.379, 16.01904
1185.861, 18.05420
1186.343, 9.799805
1186.825, 0.7685550
1187.308, 1.275391
1187.790, 4.906738
1188.272, 5.940918
1188.754, 4.096191
1189.236, 0.1806640
1189.718, 6.257324
1190.200, 9.449219
1190.682, 6.543457
1191.165, 1.066406
1191.647, 5.854004
1192.129, 11.50537
1192.611, 11.73730
1193.093, 5.687012
1193.575, 3.821777
1194.057, 6.589844
1194.539, 9.583008
1195.021, 10.64111
1195.504, 11.85303
1195.986, 16.29639
1196.468, 21.83740
1196.950, 25.18652
1197.432, 26.58008
1197.914, 27.56152
1198.396, 27.87451
1198.878, 28.13379
1199.360, 28.73877
1199.843, 28.93018
1200.325, 28.48828
1200.807, 27.61084
1201.289, 25.32373
1201.771, 21.89697
1202.253, 18.67822
1202.735, 12.54688
1203.217, 4.791016
1203.700, 5.145020
1204.182, 7.862793
1204.664, 8.582031
1205.146, 8.833008
1205.628, 9.695313
1206.110, 11.99854
1206.592, 11.97754
1207.074, 9.110840
1207.557, 6.475098
1208.039, 6.629883
1208.521, 4.253906
1209.003, 5.376465
1209.485, 2.446289
1209.967, 1.550293
1210.449, 2.619141
1210.931, 5.824219
1211.413, 11.72656
1211.896, 16.29834
1212.378, 16.52881
1212.860, 14.50146
1213.342, 11.79004
1213.824, 8.548828
1214.306, 4.813477
1214.788, 5.5663999E-02
1215.270, 0.0000000E+00
##END=



