##NAMES=Naumannite
##RRUFFID=R070505
##IDEAL CHEMISTRY=Ag^1+^_2_Se^2-^
##LOCALITY=DeLamar mine, Silver City District, Owyhee County, Idaho, USA
##OWNER=RRUFF
##SOURCE=James Shigley
##DESCRIPTION=Dark gray metallic massive
##STATUS=The identification of this mineral is not yet confirmed.
##URL=rruff.info/R070505
157.3871, 0.0000000E+00
157.8692, 0.5002440
158.3513, 10.24023
158.8335, 24.37500
159.3156, 46.23804
159.7977, 64.76758
160.2798, 73.38477
160.7619, 58.51660
161.2440, 49.49121
161.7262, 60.76611
162.2083, 87.22876
162.6904, 106.9160
163.1725, 107.5730
163.6546, 99.95874
164.1367, 92.69653
164.6189, 80.76489
165.1010, 75.38525
165.5831, 88.61450
166.0652, 119.2151
166.5473, 140.3708
167.0294, 130.9556
167.5116, 105.6333
167.9937, 81.79688
168.4758, 60.78003
168.9579, 46.93237
169.4400, 46.03784
169.9221, 59.46021
170.4043, 75.81396
170.8864, 82.87646
171.3685, 83.40649
171.8506, 81.61694
172.3327, 81.92261
172.8148, 79.46094
173.2970, 66.82202
173.7791, 39.71753
174.2612, 14.22705
174.7433, 7.017334
175.2254, 13.82324
175.7076, 22.05151
176.1897, 19.69019
176.6718, 15.58374
177.1539, 25.34204
177.6360, 59.41724
178.1181, 94.11255
178.6003, 97.31030
179.0824, 73.25146
179.5645, 50.05786
180.0466, 54.21460
180.5287, 73.10815
181.0108, 78.31519
181.4930, 57.40405
181.9751, 25.17651
182.4572, 3.224609
182.9393, 8.766113
183.4214, 12.84668
183.9035, 7.664795
184.3857, 4.529785
184.8678, 16.46387
185.3499, 25.14087
185.8320, 32.11987
186.3141, 42.66431
186.7962, 57.53271
187.2784, 69.12158
187.7605, 67.69507
188.2426, 56.12183
188.7247, 47.76367
189.2068, 28.56250
189.6889, 9.317383
190.1711, 10.29590
190.6532, 35.12671
191.1353, 66.07227
191.6174, 79.20142
192.0995, 74.92432
192.5816, 65.00220
193.0638, 50.94946
193.5459, 34.07642
194.0280, 25.78076
194.5101, 27.39868
194.9922, 35.38086
195.4743, 47.69800
195.9565, 64.98999
196.4386, 74.32983
196.9207, 63.32007
197.4028, 32.69995
197.8849, 11.70288
198.3671, 3.772461
198.8492, 4.746826
199.3313, 3.594238
199.8134, 1.117920
200.2955, 7.5684004E-02
200.7776, 15.91870
201.2598, 48.04443
201.7419, 75.72510
202.2240, 99.20264
202.7061, 115.6455
203.1882, 112.5383
203.6703, 85.07959
204.1525, 53.48145
204.6346, 31.88452
205.1167, 21.12695
205.5988, 14.20410
206.0809, 8.147949
206.5630, 4.299316
207.0452, 15.83130
207.5273, 50.58740
208.0094, 82.92480
208.4915, 85.46851
208.9736, 49.10693
209.4557, 24.81470
209.9379, 27.11865
210.4200, 54.83325
210.9021, 69.59790
211.3842, 67.34375
211.8663, 58.89087
212.3484, 55.37866
212.8306, 59.22827
213.3127, 59.80469
213.7948, 52.39746
214.2769, 36.51538
214.7590, 29.88037
215.2411, 34.68237
215.7233, 45.58496
216.2054, 57.56128
216.6875, 74.66333
217.1696, 81.68750
217.6517, 71.76270
218.1338, 42.00220
218.6160, 14.82031
219.0981, 15.82812
219.5802, 38.44995
220.0623, 30.50732
220.5444, 23.94043
221.0265, 69.69727
221.5087, 87.91968
221.9908, 70.40234
222.4729, 61.28174
222.9550, 64.42456
223.4371, 73.40845
223.9192, 76.22998
224.4014, 70.12744
224.8835, 63.06738
225.3656, 57.54541
225.8477, 52.76489
226.3298, 52.41553
226.8119, 59.41528
227.2941, 69.50513
227.7762, 72.25171
228.2583, 61.70752
228.7404, 53.32178
229.2225, 55.63452
229.7046, 78.15259
230.1868, 87.09375
230.6689, 76.29688
231.1510, 53.22510
231.6331, 37.96338
232.1152, 31.69800
232.5974, 31.68188
233.0795, 38.84741
233.5616, 62.56592
234.0437, 71.40332
234.5258, 56.36353
235.0079, 26.61328
235.4901, 15.64478
235.9722, 37.78882
236.4543, 59.75562
236.9364, 62.23535
237.4185, 31.42700
237.9006, 11.72070
238.3828, 8.158691
238.8649, 17.00684
239.3470, 23.64160
239.8291, 26.56665
240.3112, 28.93433
240.7933, 32.69434
241.2755, 40.16895
241.7576, 43.92822
242.2397, 40.47681
242.7218, 31.95166
243.2039, 31.91870
243.6860, 45.89990
244.1682, 61.10742
244.6503, 69.57202
245.1324, 70.25122
245.6145, 66.18652
246.0966, 54.31982
246.5787, 36.85815
247.0609, 29.72925
247.5430, 39.32715
248.0251, 51.23560
248.5072, 55.53247
248.9893, 49.40991
249.4714, 41.51147
249.9536, 29.45947
250.4357, 15.08936
250.9178, 15.47534
251.3999, 42.61206
251.8820, 69.06494
252.3641, 72.20947
252.8463, 38.15918
253.3284, 11.94849
253.8105, 0.2805180
254.2926, 0.6210940
254.7747, 9.261719
255.2568, 33.22119
255.7390, 55.03687
256.2211, 58.82861
256.7032, 33.08667
257.1853, 17.70459
257.6674, 22.68164
258.1495, 45.45898
258.6317, 56.91455
259.1138, 53.22656
259.5959, 43.42798
260.0780, 34.20361
260.5601, 24.71558
261.0422, 17.88184
261.5244, 15.32910
262.0065, 16.42041
262.4886, 12.89038
262.9707, 0.5417480
263.4528, 9.844971
263.9349, 7.990479
264.4171, 11.01953
264.8992, 28.42212
265.3813, 42.20605
265.8634, 52.15894
266.3455, 56.42944
266.8276, 53.55298
267.3098, 47.73364
267.7919, 41.42261
268.2740, 33.25635
268.7561, 30.11841
269.2382, 35.61133
269.7203, 47.92041
270.2025, 52.38330
270.6846, 46.90698
271.1667, 37.83862
271.6488, 28.54126
272.1309, 17.16577
272.6130, 15.45386
273.0952, 30.36890
273.5773, 57.51489
274.0594, 67.17944
274.5415, 55.45459
275.0236, 37.03149
275.5057, 24.83716
275.9879, 19.90771
276.4700, 13.45532
276.9521, 0.2761230
277.4342, 16.88525
277.9163, 15.83545
278.3984, 9.000000
278.8806, 34.97119
279.3627, 42.18018
279.8448, 29.65454
280.3269, 20.02539
280.8090, 16.53418
281.2911, 19.39868
281.7733, 33.96826
282.2554, 63.53149
282.7375, 88.07080
283.2196, 84.89160
283.7017, 54.05786
284.1838, 33.03223
284.6660, 31.88477
285.1481, 43.57495
285.6302, 46.91992
286.1123, 41.17383
286.5944, 33.85254
287.0765, 30.72876
287.5587, 31.28564
288.0408, 33.56909
288.5229, 38.57422
289.0050, 45.00342
289.4871, 45.04736
289.9692, 37.72998
290.4514, 31.17358
290.9335, 34.59595
291.4156, 45.19678
291.8977, 46.42578
292.3798, 32.35010
292.8619, 11.24634
293.3441, 1.139404
293.8262, 5.145752
294.3083, 5.668701
294.7904, 7.582031
295.2726, 9.129639
295.7547, 2.988525
296.2368, 15.48926
296.7189, 36.35278
297.2010, 41.96582
297.6831, 34.04492
298.1653, 25.04614
298.6474, 25.13330
299.1295, 30.08521
299.6116, 29.55591
300.0937, 19.39087
300.5758, 8.692871
301.0580, 10.72607
301.5401, 23.18237
302.0222, 36.00757
302.5043, 41.64014
302.9864, 43.93726
303.4685, 50.78271
303.9507, 66.69385
304.4328, 78.07153
304.9149, 64.91406
305.3970, 34.63721
305.8791, 8.991699
306.3612, 2.7344000E-02
306.8434, 2.639160
307.3255, 13.70337
307.8076, 35.22217
308.2897, 55.47607
308.7718, 66.34229
309.2539, 68.64136
309.7361, 64.22217
310.2182, 45.53809
310.7003, 25.37012
311.1824, 14.87329
311.6645, 15.70312
312.1466, 22.03931
312.6288, 34.85474
313.1109, 50.05615
313.5930, 61.35449
314.0751, 67.89795
314.5572, 68.59521
315.0393, 58.69849
315.5215, 35.73364
316.0036, 20.70435
316.4857, 31.42480
316.9678, 53.65356
317.4499, 68.83081
317.9320, 62.02783
318.4142, 54.33862
318.8963, 58.01318
319.3784, 74.83252
319.8605, 84.03979
320.3426, 70.29956
320.8247, 48.51074
321.3069, 33.84521
321.7890, 35.11621
322.2711, 40.76074
322.7532, 48.39917
323.2353, 57.87720
323.7174, 63.68726
324.1996, 63.90747
324.6817, 60.44238
325.1638, 54.79517
325.6459, 37.93481
326.1280, 28.88281
326.6101, 35.60791
327.0923, 56.77637
327.5744, 69.97754
328.0565, 71.73657
328.5386, 67.05542
329.0207, 58.56860
329.5028, 30.05640
329.9850, 19.48877
330.4671, 42.84546
330.9492, 90.31860
331.4313, 110.7930
331.9134, 82.01147
332.3955, 49.47266
332.8777, 38.32593
333.3598, 69.16016
333.8419, 80.18335
334.3240, 59.57446
334.8061, 19.54272
335.2882, 5.366455
335.7704, 11.72461
336.2525, 5.166260
336.7346, 14.42188
337.2167, 55.82642
337.6988, 77.56934
338.1809, 73.28540
338.6631, 55.07104
339.1452, 47.42383
339.6273, 53.87085
340.1094, 58.24829
340.5915, 50.72998
341.0736, 29.79785
341.5558, 25.99683
342.0379, 45.57422
342.5200, 69.02124
343.0021, 64.47559
343.4842, 29.81006
343.9663, 1.848877
344.4485, 1.348633
344.9306, 15.02271
345.4127, 16.44629
345.8948, 0.6511230
346.3769, 16.16846
346.8590, 14.70703
347.3412, 3.006592
347.8233, 22.04248
348.3054, 40.98462
348.7875, 56.78320
349.2696, 58.02734
349.7517, 44.77393
350.2339, 31.98828
350.7160, 33.19800
351.1981, 44.33179
351.6802, 57.13135
352.1623, 71.29150
352.6444, 83.84937
353.1266, 91.21167
353.6087, 94.00122
354.0908, 92.90991
354.5729, 82.37354
355.0550, 69.33081
355.5371, 65.37988
356.0193, 78.08667
356.5014, 88.21753
356.9835, 74.35181
357.4656, 44.33179
357.9477, 18.49219
358.4298, 3.675781
358.9120, 0.2661130
359.3941, 10.09937
359.8762, 39.48340
360.3583, 65.46558
360.8404, 76.25415
361.3225, 75.61426
361.8047, 69.79688
362.2868, 50.10181
362.7689, 34.69873
363.2510, 35.56763
363.7331, 55.81348
364.2152, 71.08984
364.6974, 72.75415
365.1795, 66.83203
365.6616, 59.22583
366.1437, 49.32666
366.6258, 39.62451
367.1079, 29.29956
367.5901, 19.01929
368.0722, 14.25049
368.5543, 20.43994
369.0364, 28.55493
369.5185, 32.55542
370.0006, 32.03003
370.4828, 29.14990
370.9649, 22.21851
371.4470, 12.66211
371.9291, 6.719482
372.4112, 4.304688
372.8933, 5.608643
373.3755, 11.40454
373.8576, 24.98071
374.3397, 34.66528
374.8218, 39.17456
375.3039, 40.01172
375.7861, 40.78345
376.2682, 42.29932
376.7503, 40.97119
377.2324, 32.85693
377.7145, 16.83301
378.1967, 11.38696
378.6788, 19.22827
379.1609, 32.06226
379.6430, 39.63965
380.1251, 41.88818
380.6072, 40.36768
381.0894, 33.03516
381.5715, 22.53394
382.0536, 22.27686
382.5357, 33.58472
383.0178, 43.64697
383.4999, 33.44629
383.9821, 9.456543
384.4642, 0.9987790
384.9463, 22.13892
385.4284, 54.64404
385.9105, 71.75073
386.3926, 74.16846
386.8748, 69.16040
387.3569, 56.22070
387.8390, 40.36694
388.3211, 29.30298
388.8032, 24.20190
389.2853, 24.14795
389.7675, 32.53271
390.2496, 45.24536
390.7317, 54.31909
391.2138, 55.02563
391.6959, 50.89600
392.1780, 41.69116
392.6602, 25.58838
393.1423, 16.65723
393.6244, 31.11011
394.1065, 55.09985
394.5886, 70.62744
395.0707, 65.24292
395.5529, 55.47168
396.0350, 44.81616
396.5171, 33.55859
396.9992, 27.89917
397.4813, 36.31372
397.9634, 46.57080
398.4456, 50.20532
398.9277, 32.71533
399.4098, 23.98853
399.8919, 33.21387
400.3740, 55.21094
400.8561, 68.10400
401.3383, 70.41284
401.8204, 65.03613
402.3025, 50.83008
402.7846, 17.29688
403.2667, 2.056152
403.7488, 13.19751
404.2310, 36.31030
404.7131, 49.00977
405.1952, 49.53101
405.6773, 46.40088
406.1594, 40.54053
406.6415, 31.96924
407.1237, 33.53979
407.6058, 48.82056
408.0879, 64.32202
408.5700, 62.03735
409.0521, 41.63232
409.5342, 28.03296
410.0164, 28.92749
410.4985, 39.23071
410.9806, 48.32837
411.4627, 56.21289
411.9448, 58.82617
412.4269, 49.55225
412.9091, 32.46875
413.3912, 18.76733
413.8733, 9.342529
414.3554, 5.246338
414.8375, 13.01709
415.3196, 28.24854
415.8018, 37.61450
416.2839, 24.60034
416.7660, 7.097656
417.2481, 5.953125
417.7302, 23.46338
418.2123, 42.84839
418.6945, 56.32153
419.1766, 64.33789
419.6587, 67.20728
420.1408, 62.17554
420.6229, 55.93018
421.1050, 47.26489
421.5872, 36.64429
422.0693, 30.89136
422.5514, 41.07861
423.0335, 50.73145
423.5156, 49.23022
423.9977, 23.49731
424.4799, 2.478027
424.9620, 11.00000
425.4441, 17.53516
425.9262, 18.65918
426.4083, 13.57202
426.8904, 4.056396
427.3726, 10.77905
427.8547, 33.03149
428.3368, 51.24048
428.8189, 68.26001
429.3010, 79.49829
429.7831, 75.44312
430.2653, 50.35083
430.7474, 28.58521
431.2295, 14.71265
431.7116, 8.564453
432.1937, 10.83643
432.6758, 23.21240
433.1580, 36.36499
433.6401, 42.14600
434.1222, 41.37817
434.6043, 43.73950
435.0864, 51.46484
435.5685, 60.24536
436.0507, 63.17383
436.5328, 60.68677
437.0149, 56.06250
437.4970, 47.52466
437.9791, 38.84448
438.4612, 36.51318
438.9434, 40.86304
439.4255, 49.77319
439.9076, 67.84033
440.3897, 88.27026
440.8718, 99.84253
441.3539, 98.41895
441.8361, 87.97705
442.3182, 64.35693
442.8003, 31.46558
443.2824, 7.574463
443.7645, 5.974609
444.2466, 13.45801
444.7288, 22.63232
445.2109, 37.21094
445.6930, 43.34448
446.1751, 28.03467
446.6572, 4.088379
447.1393, 6.603760
447.6215, 12.25269
448.1036, 30.41846
448.5857, 40.37964
449.0678, 41.17358
449.5499, 42.16382
450.0320, 44.99390
450.5142, 46.36572
450.9963, 42.11841
451.4784, 27.47217
451.9605, 21.34570
452.4426, 28.91968
452.9247, 45.19141
453.4069, 55.16895
453.8890, 58.04102
454.3711, 58.79688
454.8532, 60.26440
455.3353, 61.60156
455.8174, 59.56836
456.2996, 52.81567
456.7817, 47.14380
457.2638, 54.02637
457.7459, 69.52295
458.2281, 77.40015
458.7102, 65.09863
459.1923, 45.93799
459.6744, 42.00098
460.1565, 51.59863
460.6386, 59.58374
461.1208, 55.44165
461.6029, 44.44702
462.0850, 31.15674
462.5671, 12.77881
463.0492, 1.142334
463.5313, 9.844238
464.0135, 29.64478
464.4956, 42.20752
464.9777, 32.51245
465.4598, 22.52441
465.9419, 22.89136
466.4240, 35.68921
466.9062, 45.32373
467.3883, 47.26465
467.8704, 46.03662
468.3525, 45.17505
468.8346, 43.91211
469.3167, 43.58765
469.7989, 42.61279
470.2810, 42.45898
470.7631, 51.04810
471.2452, 77.49365
471.7273, 94.28931
472.2094, 83.73193
472.6916, 41.50439
473.1737, 18.15210
473.6558, 17.68237
474.1379, 26.61621
474.6200, 28.48047
475.1021, 23.65991
475.5843, 21.07275
476.0664, 26.25488
476.5485, 33.23999
477.0306, 23.92676
477.5127, 0.1406250
477.9948, 18.17212
478.4770, 11.95288
478.9591, 7.385254
479.4412, 21.97314
479.9233, 28.73853
480.4054, 32.01270
480.8875, 33.12427
481.3697, 33.33960
481.8518, 34.87354
482.3339, 44.00586
482.8160, 49.30420
483.2981, 40.11328
483.7802, 17.64551
484.2624, 6.830322
484.7445, 34.02271
485.2266, 62.06616
485.7087, 67.05469
486.1908, 15.32178
486.6729, 15.67749
487.1551, 11.86841
487.6372, 11.02588
488.1193, 21.25098
488.6014, 6.285645
489.0835, 0.8811040
489.5656, 21.13965
490.0478, 67.19678
490.5299, 89.48047
491.0120, 82.02637
491.4941, 65.89990
491.9762, 58.82812
492.4583, 60.87329
492.9405, 65.44092
493.4226, 72.89868
493.9047, 80.12109
494.3868, 80.61768
494.8689, 75.16968
495.3510, 69.34204
495.8332, 68.00195
496.3153, 67.40527
496.7974, 60.99756
497.2795, 48.34546
497.7616, 34.62427
498.2437, 21.68335
498.7259, 10.46118
499.2080, 1.788818
499.6901, 5.532471
500.1722, 8.248291
500.6543, 1.675781
501.1364, 11.00049
501.6186, 21.24927
502.1007, 28.96826
502.5828, 31.85303
503.0649, 26.43750
503.5470, 7.780273
504.0291, 0.2048340
504.5113, 12.50757
504.9934, 29.67212
505.4755, 38.85474
505.9576, 35.12476
506.4397, 33.38477
506.9218, 35.68042
507.4040, 41.14917
507.8861, 48.98730
508.3682, 60.02490
508.8503, 69.11084
509.3324, 75.67480
509.8145, 78.81543
510.2967, 68.12598
510.7788, 41.39478
511.2609, 13.46509
511.7430, 2.568359
512.2252, 7.239014
512.7073, 0.6445310
513.1894, 23.91040
513.6715, 50.59619
514.1536, 61.47363
514.6357, 59.78076
515.1179, 56.73193
515.6000, 57.48193
516.0821, 59.72046
516.5642, 61.77783
517.0463, 62.98584
517.5284, 67.27686
518.0106, 86.52271
518.4927, 104.7080
518.9748, 106.0015
519.4569, 61.20532
519.9390, 31.86987
520.4211, 29.72656
520.9033, 48.06079
521.3854, 63.36084
521.8675, 79.18262
522.3496, 85.85889
522.8317, 75.77417
523.3138, 46.11792
523.7960, 30.56592
524.2781, 31.89941
524.7602, 40.65747
525.2423, 49.46631
525.7244, 57.89478
526.2065, 61.40503
526.6887, 56.53760
527.1708, 49.68970
527.6529, 53.09717
528.1350, 64.86011
528.6171, 76.26196
529.0992, 82.99609
529.5814, 86.24585
530.0635, 87.67896
530.5456, 87.35864
531.0277, 83.55493
531.5098, 69.47168
531.9919, 53.89185
532.4741, 45.24292
532.9562, 46.32788
533.4383, 53.77612
533.9204, 74.63208
534.4025, 101.6470
534.8846, 115.1790
535.3668, 100.3396
535.8489, 85.65356
536.3310, 81.92847
536.8131, 91.00488
537.2952, 93.70972
537.7773, 89.90430
538.2595, 80.27368
538.7416, 60.54395
539.2237, 28.32349
539.7058, 14.63696
540.1879, 26.90405
540.6700, 51.26709
541.1522, 65.76196
541.6343, 70.99902
542.1164, 70.68896
542.5985, 61.89551
543.0806, 50.48560
543.5627, 46.91040
544.0449, 50.51685
544.5270, 53.21606
545.0091, 45.98755
545.4912, 39.45410
545.9733, 46.09033
546.4554, 76.92310
546.9376, 98.90112
547.4197, 93.17749
547.9018, 71.56274
548.3839, 51.15186
548.8660, 30.69727
549.3481, 16.92871
549.8303, 13.83105
550.3124, 20.13623
550.7945, 23.85791
551.2766, 21.68164
551.7587, 22.15283
552.2408, 31.98389
552.7230, 54.44189
553.2051, 65.83667
553.6872, 63.82397
554.1693, 56.44116
554.6514, 53.19043
555.1335, 53.72900
555.6157, 54.73340
556.0978, 54.57056
556.5799, 54.97559
557.0620, 59.06006
557.5441, 65.94653
558.0262, 73.30859
558.5084, 89.29492
558.9905, 99.54663
559.4726, 84.85742
559.9547, 42.10596
560.4368, 7.154053
560.9189, 0.1110840
561.4011, 7.064697
561.8832, 16.97803
562.3653, 41.88599
562.8474, 54.21802
563.3295, 36.52319
563.8116, 6.151367
564.2938, 1.388184
564.7759, 31.95435
565.2580, 56.27637
565.7401, 52.31128
566.2222, 23.10767
566.7043, 15.59009
567.1865, 34.57690
567.6686, 56.66748
568.1507, 65.35254
568.6328, 61.71655
569.1149, 50.63599
569.5970, 29.83154
570.0792, 11.87012
570.5613, 20.37744
571.0434, 43.54272
571.5255, 54.52393
572.0076, 29.94458
572.4897, 2.080322
572.9719, 2.694580
573.4540, 11.03735
573.9361, 26.40918
574.4182, 39.38965
574.9003, 49.62598
575.3824, 56.83301
575.8646, 60.95264
576.3467, 62.54980
576.8288, 60.45312
577.3109, 57.08252
577.7930, 53.03491
578.2751, 45.99390
578.7573, 46.48584
579.2394, 61.46777
579.7215, 78.89404
580.2036, 68.83325
580.6857, 28.74097
581.1678, 5.967529
581.6500, 21.54565
582.1321, 21.36768
582.6142, 11.47974
583.0963, 7.040771
583.5784, 21.87427
584.0605, 18.79419
584.5427, 8.557861
585.0248, 6.333008
585.5069, 15.80811
585.9890, 25.22607
586.4711, 25.62524
586.9532, 22.66943
587.4354, 22.91333
587.9175, 35.36963
588.3996, 42.89673
588.8817, 36.38159
589.3638, 21.30005
589.8459, 17.51660
590.3281, 36.82642
590.8102, 49.43335
591.2923, 40.87598
591.7744, 11.21899
592.2565, 0.9699710
592.7386, 14.82715
593.2208, 32.15356
593.7029, 33.50049
594.1850, 21.61060
594.6671, 15.88647
595.1492, 19.21802
595.6313, 26.54639
596.1135, 32.90625
596.5956, 38.64771
597.0777, 44.75806
597.5598, 56.92651
598.0419, 64.73486
598.5240, 56.65405
599.0062, 37.33716
599.4883, 23.18018
599.9704, 26.03296
600.4525, 30.14429
600.9346, 27.25562
601.4167, 14.51538
601.8989, 6.691895
602.3810, 5.867920
602.8631, 7.938477
603.3452, 9.710205
603.8273, 10.29126
604.3094, 13.81128
604.7916, 21.02661
605.2737, 30.35571
605.7558, 40.82935
606.2379, 51.95776
606.7200, 59.92773
607.2021, 63.60376
607.6843, 63.26416
608.1664, 56.87036
608.6485, 45.98315
609.1306, 37.70483
609.6127, 39.57104
610.0948, 43.90088
610.5770, 45.16943
611.0591, 42.92383
611.5412, 37.16895
612.0233, 20.47437
612.5054, 4.780518
612.9875, 0.6433110
613.4697, 9.853516
613.9518, 24.49609
614.4339, 48.27661
614.9160, 73.08740
615.3981, 86.05835
615.8802, 86.71216
616.3624, 76.60278
616.8445, 52.04468
617.3266, 19.57568
617.8087, 3.354736
618.2908, 17.17554
618.7729, 20.08838
619.2551, 0.6008300
619.7372, 26.40503
620.2193, 35.14453
620.7014, 24.46191
621.1835, 11.40967
621.6656, 4.282227
622.1478, 2.063965
622.6299, 5.166504
623.1120, 17.58350
623.5941, 26.60596
624.0762, 25.69019
624.5583, 20.70166
625.0405, 20.27319
625.5226, 29.18262
626.0047, 35.02051
626.4868, 35.45312
626.9689, 31.61230
627.4510, 26.03809
627.9332, 17.59937
628.4153, 13.59717
628.8974, 21.88501
629.3795, 37.29077
629.8616, 36.11108
630.3438, 18.58325
630.8259, 5.742920
631.3080, 21.38940
631.7901, 49.53271
632.2722, 70.61011
632.7543, 82.48389
633.2365, 81.88037
633.7186, 52.88501
634.2007, 16.45532
634.6828, 3.806641
635.1649, 12.48096
635.6470, 27.34058
636.1292, 35.07104
636.6113, 38.21509
637.0934, 43.54321
637.5755, 55.88208
638.0576, 58.28296
638.5397, 40.64160
639.0219, 8.269775
639.5040, 8.334961
639.9861, 7.717529
640.4682, 1.125732
640.9503, 17.64917
641.4324, 35.71875
641.9146, 41.84644
642.3967, 34.79077
642.8788, 24.82446
643.3609, 15.17017
643.8430, 9.042969
644.3251, 10.65063
644.8073, 24.29272
645.2894, 39.44043
645.7715, 58.01392
646.2536, 74.90283
646.7357, 82.29346
647.2178, 79.22559
647.7000, 67.23120
648.1821, 39.65942
648.6642, 4.925049
649.1463, 3.842773
649.6284, 18.38892
650.1105, 38.72998
650.5927, 38.04468
651.0748, 23.33105
651.5569, 20.96411
652.0390, 30.54565
652.5211, 40.16870
653.0032, 39.89722
653.4854, 34.87402
653.9675, 31.20605
654.4496, 29.93481
654.9317, 28.77856
655.4138, 25.59521
655.8959, 22.43018
656.3781, 21.35303
656.8602, 25.89551
657.3423, 28.20532
657.8244, 25.40259
658.3065, 21.36694
658.7886, 23.66553
659.2708, 34.63892
659.7529, 43.71729
660.2350, 47.36230
660.7171, 48.02930
661.1992, 56.55176
661.6813, 71.09131
662.1635, 76.17944
662.6456, 52.05835
663.1277, 18.91284
663.6099, 7.056396
664.0920, 16.33838
664.5741, 31.17627
665.0562, 48.98389
665.5383, 64.49219
666.0204, 73.67456
666.5026, 75.19849
666.9847, 72.99561
667.4668, 63.25391
667.9489, 52.89038
668.4310, 47.77930
668.9131, 50.59424
669.3953, 50.90991
669.8774, 46.81128
670.3595, 41.27026
670.8416, 40.38550
671.3237, 43.89575
671.8058, 45.13403
672.2880, 41.01611
672.7701, 34.57080
673.2522, 31.02417
673.7343, 29.23950
674.2164, 25.15137
674.6985, 7.498047
675.1807, 5.740723
675.6628, 2.373779
676.1449, 30.25488
676.6270, 50.07739
677.1091, 48.11182
677.5912, 41.52954
678.0734, 40.22632
678.5555, 46.98096
679.0376, 44.06738
679.5197, 26.95166
680.0018, 9.463379
680.4839, 4.996338
680.9661, 12.70679
681.4482, 21.79272
681.9303, 31.57690
682.4124, 39.73218
682.8945, 43.89404
683.3766, 44.20557
683.8588, 40.37891
684.3409, 26.85132
684.8230, 17.00439
685.3051, 21.00635
685.7872, 34.08496
686.2693, 45.93921
686.7515, 57.47827
687.2336, 63.80811
687.7157, 60.82910
688.1978, 51.24121
688.6799, 51.71265
689.1620, 67.74292
689.6442, 77.66650
690.1263, 66.71680
690.6084, 39.71558
691.0905, 28.51001
691.5726, 33.21191
692.0547, 43.18750
692.5369, 53.93286
693.0190, 63.94580
693.5011, 67.27686
693.9832, 62.85962
694.4653, 60.97949
694.9474, 74.80249
695.4296, 89.68164
695.9117, 92.22852
696.3938, 69.08667
696.8759, 50.99414
697.3580, 36.40430
697.8401, 29.31128
698.3223, 39.11572
698.8044, 73.43530
699.2865, 87.25049
699.7686, 66.22144
700.2507, 30.70044
700.7328, 21.16138
701.2150, 33.86963
701.6971, 48.89917
702.1792, 58.05859
702.6613, 64.80981
703.1434, 76.32690
703.6255, 90.18530
704.1077, 97.52222
704.5898, 90.39331
705.0719, 79.49365
705.5540, 70.46362
706.0361, 63.73682
706.5182, 49.71313
707.0004, 18.08594
707.4825, 5.218750
707.9646, 1.480713
708.4467, 31.28467
708.9288, 42.86572
709.4109, 30.52490
709.8931, 14.25317
710.3752, 12.68726
710.8573, 21.61914
711.3394, 31.21069
711.8215, 41.07202
712.3036, 48.31177
712.7858, 49.62793
713.2679, 47.61255
713.7500, 45.25513
714.2321, 43.85059
714.7142, 41.12695
715.1964, 33.08521
715.6785, 24.73486
716.1606, 24.87598
716.6427, 40.37720
717.1248, 43.71655
717.6069, 25.31885
718.0891, 3.386963
718.5712, 14.91260
719.0533, 10.59424
719.5354, 2.620361
720.0175, 6.034180
720.4996, 13.88916
720.9818, 20.10889
721.4639, 24.32080
721.9460, 24.94678
722.4281, 15.86792
722.9102, 8.117676
723.3923, 8.575928
723.8745, 17.69604
724.3566, 23.84058
724.8387, 22.07080
725.3208, 23.22046
725.8029, 35.28638
726.2850, 58.82739
726.7672, 66.96899
727.2493, 57.47852
727.7314, 45.04858
728.2135, 43.46704
728.6956, 48.17432
729.1777, 47.70728
729.6599, 40.19678
730.1420, 32.81201
730.6241, 29.36914
731.1062, 29.49902
731.5883, 34.31323
732.0704, 53.36768
732.5526, 59.27271
733.0347, 33.37329
733.5168, 0.5307620
733.9989, 15.23413
734.4810, 10.73218
734.9631, 2.885742
735.4453, 29.48755
735.9274, 56.29150
736.4095, 56.56006
736.8916, 33.54736
737.3737, 17.55273
737.8558, 20.72461
738.3380, 30.75269
738.8201, 35.11865
739.3022, 36.04199
739.7843, 38.74512
740.2664, 53.87427
740.7485, 62.26782
741.2307, 49.97729
741.7128, 23.57324
742.1949, 12.55542
742.6770, 21.80737
743.1591, 33.52051
743.6412, 43.41992
744.1234, 51.29297
744.6055, 54.80640
745.0876, 53.96460
745.5697, 52.43237
746.0518, 50.62451
746.5339, 50.33423
747.0161, 56.58325
747.4982, 68.66309
747.9803, 77.14111
748.4624, 80.31543
748.9445, 75.73804
749.4266, 57.11377
749.9088, 16.74609
750.3909, 3.943848
750.8730, 7.946289
751.3551, 25.57129
751.8372, 28.92773
752.3193, 16.17578
752.8015, 16.40039
753.2836, 32.57544
753.7657, 49.56738
754.2478, 51.05835
754.7299, 42.23950
755.2120, 32.41870
755.6942, 21.43433
756.1763, 17.08594
756.6584, 33.48779
757.1405, 54.73950
757.6226, 64.12305
758.1047, 48.92773
758.5869, 33.27637
759.0690, 11.80078
759.5511, 4.901611
760.0332, 1.104492
760.5153, 34.73242
760.9974, 57.26074
761.4796, 60.61841
761.9617, 54.76880
762.4438, 54.87427
762.9259, 59.26880
763.4080, 62.76099
763.8901, 65.02930
764.3723, 64.02002
764.8544, 53.30884
765.3365, 38.64673
765.8186, 32.56055
766.3007, 54.92065
766.7828, 64.88989
767.2650, 45.70166
767.7471, 9.743896
768.2292, 1.552490
768.7113, 15.87866
769.1934, 35.08521
769.6755, 48.36182
770.1577, 55.14160
770.6398, 50.69116
771.1219, 37.12744
771.6040, 25.83228
772.0861, 21.68506
772.5682, 23.33105
773.0504, 36.23462
773.5325, 56.90894
774.0146, 64.14624
774.4967, 35.57031
774.9788, 10.47119
775.4609, 2.795654
775.9431, 11.56079
776.4252, 20.63525
776.9073, 31.43506
777.3894, 41.54224
777.8715, 49.35767
778.3536, 54.81299
778.8358, 57.64917
779.3179, 57.93140
779.8000, 56.75684
780.2821, 55.26978
780.7642, 52.40674
781.2463, 44.97583
781.7285, 31.71851
782.2106, 26.38550
782.6927, 42.31226
783.1748, 57.29590
783.6569, 58.14526
784.1390, 41.72656
784.6212, 36.65112
785.1033, 44.38989
785.5854, 56.96191
786.0675, 71.41016
786.5496, 85.10620
787.0317, 89.33276
787.5139, 83.07666
787.9960, 74.05933
788.4781, 65.48096
788.9602, 58.31543
789.4423, 54.34766
789.9244, 56.84570
790.4066, 53.89551
790.8887, 38.39038
791.3708, 23.12402
791.8529, 20.12402
792.3350, 34.16528
792.8171, 32.89429
793.2993, 9.544434
793.7814, 10.74365
794.2635, 11.96924
794.7456, 57.31934
795.2277, 77.51611
795.7098, 59.47754
796.1920, 34.58301
796.6741, 17.41064
797.1562, 6.395508
797.6383, 6.5673999E-02
798.1204, 2.769531
798.6025, 1.546387
799.0847, 10.25635
799.5668, 19.77612
800.0489, 7.162109
800.5310, 28.89941
801.0131, 53.77661
801.4952, 62.29834
801.9774, 59.46118
802.4595, 44.92139
802.9416, 25.13354
803.4237, 12.68115
803.9058, 15.40576
804.3879, 17.63452
804.8701, 10.51562
805.3522, 0.8664550
805.8343, 9.560547
806.3164, 16.03296
806.7985, 17.57300
807.2806, 12.12256
807.7628, 3.731934
808.2449, 0.8554690
808.7270, 1.861816
809.2091, 4.768799
809.6912, 25.56763
810.1733, 44.98071
810.6555, 39.77173
811.1376, 21.92773
811.6197, 11.74463
812.1018, 18.00488
812.5839, 30.25732
813.0660, 54.80078
813.5482, 80.37671
814.0303, 87.58545
814.5124, 70.13843
814.9945, 53.90674
815.4766, 42.79150
815.9587, 34.97876
816.4409, 26.40674
816.9230, 18.09814
817.4051, 14.70557
817.8872, 21.47363
818.3693, 29.29004
818.8514, 30.18262
819.3336, 27.10986
819.8157, 25.02686
820.2978, 29.02441
820.7799, 28.96143
821.2620, 20.00806
821.7441, 8.125732
822.2263, 3.529541
822.7084, 6.363525
823.1905, 15.40601
823.6726, 32.92212
824.1547, 51.06836
824.6368, 55.26538
825.1190, 50.29272
825.6011, 48.52563
826.0832, 57.56836
826.5653, 66.91602
827.0474, 70.61523
827.5295, 70.74780
828.0117, 71.57861
828.4938, 77.44922
828.9760, 76.55811
829.4581, 64.58691
829.9402, 48.50781
830.4223, 43.26904
830.9044, 47.86157
831.3865, 50.51538
831.8687, 46.75415
832.3508, 41.84863
832.8329, 43.20239
833.3150, 47.31445
833.7971, 48.37988
834.2792, 38.24243
834.7614, 31.85645
835.2435, 38.70630
835.7256, 48.98804
836.2077, 45.86499
836.6898, 24.25293
837.1719, 10.92114
837.6541, 12.36719
838.1362, 20.49512
838.6183, 22.31128
839.1004, 19.78149
839.5825, 19.11475
840.0646, 23.84619
840.5468, 28.21460
841.0289, 29.10815
841.5110, 27.14038
841.9931, 24.43066
842.4752, 11.17163
842.9573, 8.920898
843.4395, 25.23145
843.9216, 48.98950
844.4037, 61.70361
844.8858, 63.76123
845.3679, 60.63696
845.8500, 50.73560
846.3322, 44.37598
846.8143, 58.50806
847.2964, 82.68286
847.7785, 100.9155
848.2606, 111.2061
848.7427, 110.3254
849.2249, 87.39502
849.7070, 58.15454
850.1891, 40.10498
850.6712, 35.39697
851.1533, 35.01392
851.6354, 38.48926
852.1176, 43.95410
852.5997, 45.62915
853.0818, 45.07886
853.5639, 46.60938
854.0460, 51.79297
854.5281, 57.02881
855.0103, 63.34302
855.4924, 66.65259
855.9745, 62.29761
856.4566, 38.22241
856.9387, 27.20508
857.4208, 35.59961
857.9030, 49.19897
858.3851, 47.79321
858.8672, 33.17163
859.3493, 34.95532
859.8314, 58.97900
860.3135, 78.73901
860.7957, 60.62695
861.2778, 29.02026
861.7599, 12.55591
862.2420, 20.37671
862.7241, 29.57031
863.2062, 34.83545
863.6884, 39.10986
864.1705, 45.16699
864.6526, 54.14502
865.1347, 58.48413
865.6168, 57.14575
866.0989, 57.16846
866.5811, 70.72949
867.0632, 88.11987
867.5453, 88.31934
868.0274, 68.90796
868.5095, 54.96289
868.9916, 70.71094
869.4738, 87.08765
869.9559, 80.38525
870.4380, 46.37549
870.9201, 28.94409
871.4022, 31.06689
871.8843, 41.08276
872.3665, 58.81201
872.8486, 78.55762
873.3307, 71.33984
873.8128, 39.44653
874.2949, 15.20752
874.7770, 24.91846
875.2592, 45.34326
875.7413, 63.94019
876.2234, 78.75049
876.7055, 83.90576
877.1876, 74.21558
877.6697, 63.20679
878.1519, 54.44336
878.6340, 48.11499
879.1161, 46.76880
879.5982, 50.11426
880.0803, 54.16455
880.5624, 59.14990
881.0446, 61.56738
881.5267, 50.69482
882.0088, 33.15137
882.4909, 31.04175
882.9730, 74.40210
883.4551, 106.0012
883.9373, 111.2639
884.4194, 96.33862
884.9015, 75.00610
885.3836, 46.35449
885.8657, 26.82739
886.3478, 24.17944
886.8300, 29.88135
887.3121, 34.77734
887.7942, 38.43237
888.2763, 39.95020
888.7584, 34.82178
889.2405, 32.34668
889.7227, 34.20850
890.2048, 40.78833
890.6869, 55.93384
891.1690, 86.58887
891.6511, 100.4697
892.1332, 86.28418
892.6154, 63.28516
893.0975, 51.86401
893.5796, 50.20093
894.0617, 56.14111
894.5438, 73.86475
895.0259, 83.89502
895.5081, 67.97412
895.9902, 44.36938
896.4723, 32.41431
896.9544, 39.12500
897.4365, 42.72681
897.9186, 45.05054
898.4008, 40.57446
898.8829, 14.38989
899.3650, 22.75195
899.8471, 32.80786
900.3292, 11.65747
900.8113, 12.83887
901.2935, 23.59741
901.7756, 28.53320
902.2577, 32.90625
902.7398, 37.15332
903.2219, 40.23950
903.7040, 41.12500
904.1862, 42.28027
904.6683, 44.71704
905.1504, 48.38135
905.6325, 54.56201
906.1146, 62.87378
906.5967, 69.84741
907.0789, 73.01025
907.5610, 74.33423
908.0431, 75.35400
908.5252, 76.01514
909.0073, 75.57202
909.4894, 76.18652
909.9716, 71.80176
910.4537, 57.93433
910.9358, 39.97388
911.4179, 35.80225
911.9000, 43.95581
912.3821, 49.65771
912.8643, 46.29956
913.3464, 39.50122
913.8285, 29.67920
914.3106, 21.04028
914.7927, 21.16260
915.2748, 47.29004
915.7570, 60.40796
916.2391, 49.96191
916.7212, 32.25806
917.2033, 33.67212
917.6854, 52.82104
918.1675, 61.92529
918.6497, 55.05420
919.1318, 44.09644
919.6139, 40.57178
920.0960, 39.97021
920.5781, 36.80981
921.0602, 28.81689
921.5424, 21.67651
922.0245, 11.12134
922.5066, 7.146973
922.9887, 20.56104
923.4708, 51.89062
923.9529, 70.58325
924.4351, 76.40967
924.9172, 74.49829
925.3993, 61.47754
925.8814, 47.69092
926.3635, 46.76831
926.8456, 58.43799
927.3278, 65.60254
927.8099, 58.09375
928.2920, 51.72314
928.7741, 52.78540
929.2562, 58.92798
929.7383, 57.45044
930.2205, 48.37598
930.7026, 39.27734
931.1847, 34.94873
931.6668, 30.87207
932.1489, 18.51733
932.6310, 2.635498
933.1132, 5.861328
933.5953, 5.717529
934.0774, 12.41650
934.5595, 7.202148
935.0416, 2.161133
935.5237, 1.760498
936.0059, 8.291260
936.4880, 12.15674
936.9701, 5.362305
937.4522, 1.070557
937.9343, 8.884277
938.4164, 24.09033
938.8986, 29.54785
939.3807, 17.16113
939.8628, 10.01733
940.3449, 13.07031
940.8270, 20.23291
941.3091, 29.81543
941.7913, 42.03516
942.2734, 41.18701
942.7555, 26.89990
943.2376, 14.33179
943.7197, 18.19922
944.2018, 27.38623
944.6840, 31.48462
945.1661, 30.12134
945.6482, 26.32251
946.1303, 17.77197
946.6124, 11.12256
947.0945, 10.41846
947.5767, 12.24268
948.0588, 2.197021
948.5409, 30.44873
949.0230, 38.89478
949.5051, 0.9289550
949.9872, 44.29541
950.4694, 44.56445
950.9515, 19.60425
951.4336, 3.933105
951.9157, 17.35425
952.3978, 23.62109
952.8799, 17.30029
953.3621, 7.509521
953.8442, 5.692139
954.3263, 10.97632
954.8084, 17.15015
955.2905, 23.16724
955.7726, 31.93018
956.2548, 52.67554
956.7369, 72.69604
957.2190, 77.66455
957.7011, 64.14062
958.1832, 53.09204
958.6653, 44.39795
959.1475, 37.10669
959.6296, 30.94312
960.1117, 26.15674
960.5938, 23.95581
961.0759, 24.35156
961.5580, 26.98657
962.0402, 33.08643
962.5223, 40.10498
963.0044, 49.58228
963.4865, 58.61914
963.9686, 58.99438
964.4507, 45.93872
964.9329, 35.41504
965.4150, 30.36743
965.8971, 30.19580
966.3792, 33.20508
966.8613, 37.75244
967.3434, 40.39526
967.8256, 40.07080
968.3077, 43.36914
968.7898, 63.33667
969.2719, 82.12476
969.7540, 81.07056
970.2361, 52.71265
970.7183, 36.27783
971.2004, 33.32300
971.6825, 35.44312
972.1646, 37.61304
972.6467, 39.60840
973.1288, 40.50488
973.6110, 40.55981
974.0931, 41.61987
974.5752, 42.99683
975.0573, 47.38916
975.5394, 58.69971
976.0215, 73.38818
976.5037, 80.11914
976.9858, 78.40015
977.4679, 73.20654
977.9500, 65.53955
978.4321, 55.96875
978.9142, 41.40137
979.3964, 26.51636
979.8785, 19.85327
980.3606, 32.18994
980.8427, 37.97095
981.3248, 27.55103
981.8069, 15.77905
982.2891, 16.67480
982.7712, 30.25366
983.2533, 45.32544
983.7354, 61.26562
984.2175, 68.58374
984.6996, 50.58203
985.1818, 26.69678
985.6639, 14.96631
986.1460, 16.39331
986.6281, 18.79004
987.1102, 19.27881
987.5923, 18.94849
988.0745, 15.37207
988.5566, 12.72168
989.0387, 29.13062
989.5208, 58.81104
990.0029, 75.08740
990.4850, 57.91943
990.9672, 40.37988
991.4493, 49.79614
991.9314, 69.02539
992.4135, 73.91089
992.8957, 56.49829
993.3778, 45.23022
993.8599, 42.84790
994.3420, 41.47559
994.8242, 29.22339
995.3063, 13.58423
995.7884, 14.08789
996.2705, 29.72754
996.7526, 41.54688
997.2347, 37.46606
997.7169, 30.79150
998.1990, 27.45923
998.6811, 26.91382
999.1632, 25.31689
999.6453, 22.42725
1000.127, 22.23486
1000.610, 27.22559
1001.092, 34.11572
1001.574, 40.27661
1002.056, 44.91187
1002.538, 46.62427
1003.020, 42.18506
1003.502, 38.83398
1003.984, 37.38452
1004.466, 36.81958
1004.949, 35.74243
1005.431, 34.46338
1005.913, 37.86938
1006.395, 44.79785
1006.877, 44.47314
1007.359, 13.62256
1007.841, 12.89697
1008.323, 0.7248540
1008.806, 54.20239
1009.288, 84.88843
1009.770, 85.55396
1010.252, 82.62427
1010.734, 85.32861
1011.216, 88.45679
1011.698, 78.69019
1012.180, 61.09229
1012.662, 49.09814
1013.145, 51.14697
1013.627, 52.59863
1014.109, 44.47485
1014.591, 36.06543
1015.073, 38.04663
1015.555, 53.15918
1016.037, 54.33960
1016.519, 39.71729
1017.002, 25.32495
1017.484, 26.95557
1017.966, 33.88501
1018.448, 35.49072
1018.930, 31.40503
1019.412, 24.57812
1019.894, 6.161621
1020.376, 0.4382320
1020.858, 16.76758
1021.341, 43.16504
1021.823, 41.95483
1022.305, 19.09546
1022.787, 2.769287
1023.269, 18.86963
1023.751, 25.20898
1024.233, 17.59229
1024.715, 0.3630370
1025.198, 28.53979
1025.680, 74.45703
1026.162, 92.00684
1026.644, 76.13599
1027.126, 55.50513
1027.608, 50.16455
1028.090, 53.99585
1028.572, 57.93896
1029.054, 61.87622
1029.536, 67.00708
1030.019, 74.73193
1030.501, 82.54907
1030.983, 92.05908
1031.465, 99.63086
1031.947, 96.96313
1032.429, 85.14502
1032.911, 73.04004
1033.393, 62.11157
1033.876, 53.85083
1034.358, 54.97217
1034.840, 57.77271
1035.322, 52.96631
1035.804, 37.00439
1036.286, 34.84888
1036.768, 52.74194
1037.250, 64.78467
1037.733, 51.73828
1038.215, 26.18237
1038.697, 15.33740
1039.179, 15.65503
1039.661, 15.60229
1040.143, 2.637939
1040.625, 1.438477
1041.107, 17.38647
1041.589, 41.45312
1042.072, 46.96875
1042.554, 33.95264
1043.036, 17.02124
1043.518, 3.217529
1044.000, 12.73926
1044.482, 13.55859
1044.964, 46.79736
1045.446, 61.92188
1045.928, 56.06812
1046.411, 44.05664
1046.893, 18.61548
1047.375, 9.254639
1047.857, 31.87988
1048.339, 68.96167
1048.821, 87.04810
1049.303, 89.80127
1049.785, 85.79736
1050.268, 73.50488
1050.750, 63.23267
1051.232, 66.37134
1051.714, 66.49072
1052.196, 45.54907
1052.678, 1.658203
1053.160, 15.24951
1053.642, 4.475342
1054.125, 11.41528
1054.607, 18.10498
1055.089, 22.05225
1055.571, 29.74731
1056.053, 39.77222
1056.535, 45.08765
1057.017, 43.63550
1057.499, 41.94922
1057.981, 41.03394
1058.464, 40.66553
1058.946, 40.41113
1059.428, 40.46167
1059.910, 41.89087
1060.392, 45.41089
1060.874, 46.30811
1061.356, 35.74194
1061.838, 29.56274
1062.320, 38.02930
1062.803, 58.28638
1063.285, 65.04712
1063.767, 59.77783
1064.249, 60.04126
1064.731, 82.35156
1065.213, 102.8252
1065.695, 96.82886
1066.177, 79.64771
1066.660, 73.04541
1067.142, 85.86108
1067.624, 86.77759
1068.106, 72.47974
1068.588, 54.89551
1069.070, 41.72925
1069.552, 34.71143
1070.034, 41.34375
1070.516, 59.65601
1070.999, 71.92212
1071.481, 67.56470
1071.963, 60.99316
1072.445, 53.31323
1072.927, 48.00098
1073.409, 55.24268
1073.891, 72.45752
1074.373, 88.20874
1074.855, 102.9290
1075.338, 102.2861
1075.820, 54.76758
1076.302, 5.097168
1076.784, 5.885986
1077.266, 23.45386
1077.748, 34.02515
1078.230, 23.90771
1078.713, 10.81665
1079.195, 1.336426
1079.677, 6.885010
1080.159, 4.981689
1080.641, 27.76245
1081.123, 48.56445
1081.605, 70.99170
1082.087, 82.58569
1082.569, 82.21973
1083.052, 73.26929
1083.534, 51.69165
1084.016, 26.42456
1084.498, 27.87061
1084.980, 54.56177
1085.462, 73.75830
1085.944, 63.72485
1086.426, 48.52026
1086.908, 34.08130
1087.391, 22.99829
1087.873, 25.37793
1088.355, 40.15308
1088.837, 42.77368
1089.319, 26.01245
1089.801, 6.703613
1090.283, 6.604980
1090.765, 11.45166
1091.248, 0.1259770
1091.730, 29.63354
1092.212, 38.03882
1092.694, 20.12598
1093.176, 4.435303
1093.658, 5.676025
1094.140, 15.15234
1094.622, 21.03955
1095.104, 26.00928
1095.587, 31.80151
1096.069, 29.91382
1096.551, 35.85083
1097.033, 55.63232
1097.515, 74.67480
1097.997, 79.17090
1098.479, 71.88159
1098.961, 62.01147
1099.443, 50.59937
1099.926, 44.50317
1100.408, 50.41016
1100.890, 59.04492
1101.372, 69.85205
1101.854, 78.51270
1102.336, 79.39648
1102.818, 71.75342
1103.300, 54.10840
1103.783, 24.58789
1104.265, 1.768066
1104.747, 10.39917
1105.229, 26.20337
1105.711, 27.31494
1106.193, 13.35767
1106.675, 7.017334
1107.157, 9.958252
1107.640, 12.82153
1108.122, 10.48535
1108.604, 9.620117
1109.086, 22.88330
1109.568, 42.73584
1110.050, 57.77173
1110.532, 65.76025
1111.014, 65.35327
1111.496, 54.63989
1111.979, 44.03979
1112.461, 37.38892
1112.943, 36.39038
1113.425, 56.00635
1113.907, 87.65820
1114.389, 101.4226
1114.871, 60.16943
1115.353, 29.70264
1115.835, 33.41064
1116.318, 48.78052
1116.800, 49.48315
1117.282, 37.57495
1117.764, 36.46240
1118.246, 47.29272
1118.728, 53.66846
1119.210, 31.91455
1119.692, 14.65576
1120.175, 35.23682
1120.657, 75.16602
1121.139, 72.34253
1121.621, 19.69653
1122.103, 12.88037
1122.585, 79.93628
1123.067, 147.4495
1123.549, 132.5420
1124.031, 84.82812
1124.514, 53.88208
1124.996, 46.54150
1125.478, 40.07251
1125.960, 33.41699
1126.442, 31.40503
1126.924, 38.91553
1127.406, 47.18921
1127.888, 34.78174
1128.370, 14.79980
1128.853, 12.21021
1129.335, 46.79590
1129.817, 64.23633
1130.299, 53.66992
1130.781, 37.24512
1131.263, 26.24536
1131.745, 21.49585
1132.227, 30.76392
1132.710, 49.52051
1133.192, 61.26953
1133.674, 51.68726
1134.156, 43.15015
1134.638, 41.71167
1135.120, 43.46484
1135.602, 43.78320
1136.084, 42.79321
1136.567, 39.68457
1137.049, 34.69873
1137.531, 32.64502
1138.013, 45.19873
1138.495, 53.85669
1138.977, 43.94458
1139.459, 24.36304
1139.941, 12.14966
1140.423, 7.253174
1140.906, 5.757080
1141.388, 7.193848
1141.870, 12.39062
1142.352, 27.31592
1142.834, 43.47852
1143.316, 57.36987
1143.798, 67.19922
1144.280, 57.39868
1144.762, 23.32861
1145.245, 0.6201170
1145.727, 2.132324
1146.209, 6.444824
1146.691, 10.10181
1147.173, 15.33887
1147.655, 32.04956
1148.137, 68.07910
1148.619, 87.51880
1149.102, 88.87695
1149.584, 79.04224
1150.066, 55.33423
1150.548, 29.78125
1151.030, 31.87402
1151.512, 46.32202
1151.994, 40.33936
1152.476, 27.45068
1152.958, 51.20117
1153.441, 5.781982
1153.923, 45.85376
1154.405, 51.77173
1154.887, 28.95068
1155.369, 26.20215
1155.851, 38.65479
1156.333, 46.40332
1156.815, 37.41406
1157.297, 27.25806
1157.780, 14.68799
1158.262, 7.791504
1158.744, 24.20752
1159.226, 55.25659
1159.708, 55.61792
1160.190, 25.64575
1160.672, 3.304443
1161.154, 18.40112
1161.637, 35.17065
1162.119, 39.44531
1162.601, 37.06323
1163.083, 41.02686
1163.565, 49.48511
1164.047, 42.58496
1164.529, 16.21094
1165.011, 2.159180
1165.494, 12.26758
1165.976, 34.75464
1166.458, 54.91455
1166.940, 70.10083
1167.422, 67.10547
1167.904, 46.40308
1168.386, 31.43726
1168.868, 27.51074
1169.350, 31.91943
1169.833, 53.25977
1170.315, 73.69189
1170.797, 76.83398
1171.279, 61.66357
1171.761, 40.45947
1172.243, 12.53101
1172.725, 0.2363280
1173.207, 18.36279
1173.689, 42.53174
1174.172, 52.84229
1174.654, 53.53125
1175.136, 45.93994
1175.618, 26.39600
1176.100, 30.30688
1176.582, 61.38965
1177.064, 84.69482
1177.546, 72.23950
1178.029, 51.41943
1178.511, 54.69409
1178.993, 70.51709
1179.475, 77.32886
1179.957, 66.86255
1180.439, 63.67847
1180.921, 68.48779
1181.403, 76.99805
1181.885, 92.89722
1182.368, 105.6204
1182.850, 94.62646
1183.332, 69.01831
1183.814, 55.41626
1184.296, 65.28833
1184.778, 69.63184
1185.260, 65.45605
1185.742, 59.34741
1186.224, 56.61548
1186.707, 56.93726
1187.189, 60.09644
1187.671, 66.12866
1188.153, 77.90259
1188.635, 103.1860
1189.117, 105.5959
1189.599, 75.42529
1190.081, 39.92310
1190.564, 37.15308
1191.046, 49.88135
1191.528, 47.10498
1192.010, 27.58350
1192.492, 23.01685
1192.974, 52.11279
1193.456, 71.76050
1193.938, 71.02466
1194.421, 59.37305
1194.903, 44.12158
1195.385, 30.24512
1195.867, 30.20410
1196.349, 47.17163
1196.831, 56.25879
1197.313, 50.65576
1197.795, 38.57202
1198.277, 17.12769
1198.760, 1.604736
1199.242, 12.34766
1199.724, 44.80664
1200.206, 66.98682
1200.688, 71.94214
1201.170, 69.51416
1201.652, 55.78027
1202.134, 46.89087
1202.616, 54.41821
1203.099, 66.52783
1203.581, 44.57300
1204.063, 6.260742
1204.545, 1.692871
1205.027, 51.10303
1205.509, 80.62573
1205.991, 60.11963
1206.473, 37.03076
1206.956, 39.90039
1207.438, 57.43677
1207.920, 55.10962
1208.402, 40.88086
1208.884, 36.75391
1209.366, 61.21997
1209.848, 73.64771
1210.330, 60.89673
1210.813, 44.39648
1211.295, 45.53687
1211.777, 55.82178
1212.259, 51.45752
1212.741, 38.97705
1213.223, 38.50244
1213.705, 75.46362
1214.187, 98.14136
1214.669, 93.15137
1215.151, 85.57178
1215.634, 104.0728
1216.116, 135.4961
1216.598, 138.3879
1217.080, 117.4287
1217.562, 97.56836
1218.044, 85.84888
1218.526, 80.62427
1219.008, 82.97949
1219.491, 88.43774
1219.973, 94.08179
1220.455, 98.92554
1220.937, 98.08496
1221.419, 92.91650
1221.901, 91.62354
1222.383, 106.3435
1222.865, 110.6301
1223.348, 96.02173
1223.830, 79.65259
1224.312, 85.71753
1224.794, 104.4126
1225.276, 116.3118
1225.758, 119.6177
1226.240, 111.3274
1226.722, 82.17798
1227.204, 50.66064
1227.687, 13.07300
1228.169, 12.60156
1228.651, 11.72388
1229.133, 59.62329
1229.615, 71.86304
1230.097, 47.33154
1230.579, 37.72144
1231.061, 74.23389
1231.543, 94.16724
1232.026, 81.93872
1232.508, 57.45874
1232.990, 46.16455
1233.472, 43.86353
1233.954, 44.17090
1234.436, 46.30811
1234.918, 46.25830
1235.400, 42.74365
1235.883, 38.85083
1236.365, 34.09155
1236.847, 29.51099
1237.329, 25.33862
1237.811, 23.03857
1238.293, 26.09204
1238.775, 35.02637
1239.257, 40.77661
1239.740, 41.39404
1240.222, 42.54565
1240.704, 46.44824
1241.186, 49.76343
1241.668, 45.88623
1242.150, 39.69556
1242.632, 38.07642
1243.114, 42.25977
1243.596, 48.40039
1244.079, 61.52979
1244.561, 54.18091
1245.043, 9.220459
1245.525, 35.77856
1246.007, 31.74951
1246.489, 0.6118160
1246.971, 34.97510
1247.453, 73.28320
1247.936, 88.19971
1248.418, 75.81836
1248.900, 61.90430
1249.382, 56.87524
1249.864, 54.06274
1250.346, 48.53247
1250.828, 40.46436
1251.310, 25.61060
1251.792, 3.474609
1252.275, 10.57812
1252.757, 49.72754
1253.239, 70.74854
1253.721, 49.65430
1254.203, 20.00830
1254.685, 7.706543
1255.167, 6.665283
1255.649, 13.60938
1256.131, 27.36182
1256.614, 34.60132
1257.096, 35.45752
1257.578, 33.97168
1258.060, 29.69897
1258.542, 28.49731
1259.024, 37.00391
1259.506, 48.71509
1259.988, 60.14624
1260.471, 70.11572
1260.953, 61.59424
1261.435, 41.34082
1261.917, 28.93018
1262.399, 34.51318
1262.881, 45.14062
1263.363, 59.00537
1263.845, 70.30713
1264.328, 74.10376
1264.810, 72.11353
1265.292, 72.82104
1265.774, 76.43457
1266.256, 85.11768
1266.738, 106.6482
1267.220, 116.0120
1267.702, 93.53882
1268.184, 70.24536
1268.667, 63.65796
1269.149, 69.30493
1269.631, 67.09424
1270.113, 76.16870
1270.595, 73.29492
1271.077, 40.43213
1271.559, 25.50586
1272.041, 45.88110
1272.523, 60.33423
1273.006, 40.44263
1273.488, 5.123047
1273.970, 3.851074
1274.452, 5.272705
1274.934, 16.18628
1275.416, 24.71338
1275.898, 31.73706
1276.380, 39.12012
1276.863, 40.55859
1277.345, 27.31348
1277.827, 11.52173
1278.309, 14.90381
1278.791, 28.08984
1279.273, 35.94751
1279.755, 34.18799
1280.237, 34.82739
1280.719, 38.05884
1281.202, 42.45239
1281.684, 51.11865
1282.166, 56.24146
1282.648, 41.98853
1283.130, 24.82495
1283.612, 26.30786
1284.094, 58.26123
1284.576, 58.59668
1285.058, 27.09375
1285.541, 2.509033
1286.023, 12.64551
1286.505, 25.92236
1286.987, 16.77319
1287.469, 2.735352
1287.951, 6.5430000E-02
1288.433, 8.111084
1288.915, 23.79858
1289.398, 42.12354
1289.880, 49.03247
1290.362, 21.90210
1290.844, 0.3916020
1291.326, 12.96143
1291.808, 29.70703
1292.290, 19.28076
1292.772, 0.0000000E+00
##END=



