##NAMES=Naumannite
##RRUFFID=R070505
##IDEAL CHEMISTRY=Ag^1+^_2_Se^2-^
##LOCALITY=DeLamar mine, Silver City District, Owyhee County, Idaho, USA
##OWNER=RRUFF
##SOURCE=James Shigley
##DESCRIPTION=Dark gray metallic massive
##STATUS=The identification of this mineral is not yet confirmed.
##URL=rruff.info/R070505
159.4872, 0.0000000E+00
159.9693, 22.03735
160.4514, 50.90625
160.9335, 65.40991
161.4157, 54.67676
161.8978, 21.66333
162.3799, 3.117554
162.8620, 10.77686
163.3441, 21.59631
163.8262, 32.71606
164.3084, 41.76392
164.7905, 50.27356
165.2726, 58.76465
165.7547, 66.86267
166.2368, 63.37415
166.7189, 30.78125
167.2011, 6.327881
167.6832, 3.175781
168.1653, 14.76343
168.6474, 28.22180
169.1295, 30.68506
169.6116, 23.32617
170.0938, 21.36035
170.5759, 26.36511
171.0580, 30.87927
171.5401, 32.85059
172.0222, 32.77271
172.5043, 34.22351
172.9865, 29.93896
173.4686, 23.30786
173.9507, 25.97864
174.4328, 25.21655
174.9149, 25.58521
175.3970, 31.49731
175.8792, 40.00867
176.3613, 43.53967
176.8434, 36.37329
177.3255, 18.32227
177.8076, 8.660645
178.2897, 14.41528
178.7719, 19.81165
179.2540, 17.74780
179.7361, 9.978516
180.2182, 2.612549
180.7003, 3.147949
181.1824, 10.53271
181.6646, 13.47009
182.1467, 12.95337
182.6288, 13.25977
183.1109, 19.70605
183.5930, 32.06213
184.0751, 36.65491
184.5573, 28.05762
185.0394, 7.815552
185.5215, 2.284180
186.0036, 7.538574
186.4857, 16.61511
186.9678, 14.55505
187.4500, 2.120728
187.9321, 9.066284
188.4142, 7.991455
188.8963, 3.322632
189.3784, 11.75208
189.8605, 18.04224
190.3427, 25.15100
190.8248, 26.39355
191.3069, 25.48633
191.7890, 26.42407
192.2711, 31.00940
192.7532, 38.51379
193.2354, 41.90039
193.7175, 38.30469
194.1996, 34.80420
194.6817, 34.24377
195.1638, 35.88281
195.6459, 37.50415
196.1281, 37.68420
196.6102, 36.64844
197.0923, 34.78943
197.5744, 31.50452
198.0565, 27.93579
198.5386, 23.99329
199.0208, 20.27246
199.5029, 18.24023
199.9850, 19.00769
200.4671, 21.44409
200.9492, 18.72717
201.4313, 4.501343
201.9135, 6.107422
202.3956, 8.961670
202.8777, 5.334839
203.3598, 2.445679
203.8419, 13.86462
204.3240, 26.88538
204.8061, 33.70312
205.2883, 33.75708
205.7704, 29.67859
206.2525, 17.67920
206.7346, 2.335205
207.2167, 7.903687
207.6988, 8.712646
208.1810, 2.848755
208.6631, 0.9061280
209.1452, 1.525757
209.6273, 1.979980
210.1094, 0.9273680
210.5915, 8.5083000E-02
211.0737, 4.065674
211.5558, 15.60754
212.0379, 29.60156
212.5200, 33.08594
213.0021, 18.62769
213.4842, 6.329224
213.9664, 2.058838
214.4485, 6.234741
214.9306, 4.261230
215.4127, 4.998779
215.8948, 16.37988
216.3769, 18.99292
216.8591, 5.596802
217.3412, 0.7794190
217.8233, 4.074463
218.3054, 12.83728
218.7875, 17.10559
219.2696, 14.34253
219.7518, 7.551758
220.2339, 1.024780
220.7160, 8.292847
221.1981, 10.25403
221.6802, 3.696533
222.1623, 20.93994
222.6445, 28.01343
223.1266, 22.20007
223.6087, 11.68494
224.0908, 7.163452
224.5729, 11.35486
225.0550, 15.80725
225.5372, 20.82263
226.0193, 25.68713
226.5014, 30.07288
226.9835, 33.92590
227.4656, 36.51831
227.9477, 36.88049
228.4298, 33.67749
228.9120, 34.03442
229.3941, 42.61438
229.8762, 50.85364
230.3583, 52.99585
230.8404, 49.07776
231.3225, 43.21533
231.8047, 39.14307
232.2868, 37.20410
232.7689, 34.05579
233.2510, 25.98608
233.7331, 20.29065
234.2152, 21.45471
234.6974, 28.34460
235.1795, 37.12085
235.6616, 45.31702
236.1437, 53.01270
236.6258, 58.61584
237.1079, 62.97705
237.5901, 64.66138
238.0722, 60.54883
238.5543, 53.65833
239.0364, 49.66919
239.5185, 52.61084
240.0006, 61.63672
240.4828, 70.67847
240.9649, 83.49988
241.4470, 92.22742
241.9291, 95.92297
242.4112, 94.50781
242.8933, 85.39758
243.3755, 66.45068
243.8576, 43.94421
244.3397, 37.60120
244.8218, 70.07495
245.3039, 90.54114
245.7860, 89.12244
246.2682, 76.61780
246.7503, 63.38916
247.2324, 52.69946
247.7145, 45.10486
248.1966, 42.57581
248.6787, 51.79541
249.1609, 55.12720
249.6430, 47.13977
250.1251, 36.55994
250.6072, 29.29810
251.0893, 27.20422
251.5714, 29.58374
252.0535, 36.81836
252.5357, 53.23193
253.0178, 63.49927
253.4999, 63.75659
253.9820, 61.51270
254.4641, 60.58423
254.9462, 61.57922
255.4284, 63.27710
255.9105, 64.27759
256.3926, 64.29333
256.8747, 65.01660
257.3568, 69.68652
257.8390, 72.25159
258.3211, 68.48657
258.8032, 60.38525
259.2853, 52.78223
259.7674, 49.46399
260.2495, 50.84912
260.7317, 55.34595
261.2138, 70.83411
261.6959, 79.87610
262.1780, 71.51562
262.6601, 53.07312
263.1422, 38.02539
263.6244, 34.51624
264.1065, 39.64355
264.5886, 44.57275
265.0707, 50.41541
265.5528, 53.23083
266.0349, 48.57251
266.5170, 41.82654
266.9991, 40.05164
267.4813, 47.27966
267.9634, 57.69031
268.4455, 61.33093
268.9276, 56.84229
269.4097, 52.00830
269.8918, 48.85046
270.3740, 46.70374
270.8561, 44.80566
271.3382, 42.76245
271.8203, 41.68774
272.3024, 44.62244
272.7845, 51.92004
273.2667, 55.32324
273.7488, 48.67847
274.2309, 40.24622
274.7130, 38.18835
275.1951, 42.79968
275.6772, 48.46765
276.1594, 51.26794
276.6415, 51.85327
277.1236, 53.46008
277.6057, 58.21545
278.0878, 60.79321
278.5699, 51.68347
279.0521, 33.76270
279.5342, 24.49646
280.0163, 37.82092
280.4984, 59.65979
280.9805, 67.53235
281.4626, 58.29175
281.9448, 43.69617
282.4269, 13.66626
282.9090, 32.42102
283.3911, 42.84668
283.8732, 45.40503
284.3553, 16.40295
284.8375, 28.18115
285.3196, 23.57544
285.8017, 18.27698
286.2838, 35.70496
286.7659, 11.19922
287.2480, 28.28320
287.7302, 28.79846
288.2123, 36.94189
288.6944, 28.63721
289.1765, 25.37256
289.6586, 38.51672
290.1407, 42.52075
290.6229, 32.17407
291.1050, 40.60400
291.5871, 15.35986
292.0692, 19.62402
292.5513, 36.65186
293.0334, 27.10559
293.5156, 35.87939
293.9977, 37.71338
294.4798, 7.921631
294.9619, 33.20276
295.4440, 34.65576
295.9261, 11.63501
296.4083, 34.95728
296.8904, 15.25256
297.3725, 10.90576
297.8546, 18.14380
298.3367, 13.37280
298.8188, 27.63611
299.3010, 23.60571
299.7831, 17.93652
300.2652, 19.39258
300.7473, 0.6351320
301.2294, 19.30029
301.7115, 12.25769
302.1937, 17.91443
302.6758, 26.85229
303.1579, 14.35620
303.6400, 25.25476
304.1221, 0.6760250
304.6042, 3.372559
305.0864, 4.084595
305.5685, 24.16736
306.0506, 2.076660
306.5327, 1.046753
307.0148, 16.66858
307.4969, 14.77905
307.9791, 20.14807
308.4612, 3.853516
308.9433, 7.867310
309.4254, 6.285767
309.9075, 24.08606
310.3896, 26.67285
310.8718, 10.87329
311.3539, 10.17053
311.8360, 13.19128
312.3181, 15.10413
312.8002, 13.90540
313.2823, 14.52820
313.7644, 24.29785
314.2466, 38.40991
314.7287, 43.99634
315.2108, 28.17334
315.6929, 3.183838
316.1750, 8.562866
316.6571, 5.272339
317.1393, 2.766602
317.6214, 11.96936
318.1035, 20.79187
318.5856, 25.60754
319.0677, 24.07495
319.5498, 21.28784
320.0320, 21.02600
320.5141, 22.75476
320.9962, 24.38269
321.4783, 25.31348
321.9604, 25.69287
322.4425, 25.69373
322.9247, 25.36108
323.4068, 24.68127
323.8889, 23.75439
324.3710, 22.37683
324.8531, 19.54688
325.3352, 15.09619
325.8174, 11.86914
326.2995, 13.77490
326.7816, 22.62122
327.2637, 25.39258
327.7458, 15.24072
328.2279, 5.195190
328.7101, 3.569580
329.1922, 9.237183
329.6743, 16.58472
330.1564, 22.17249
330.6385, 25.95251
331.1206, 27.16931
331.6028, 21.00293
332.0849, 17.90747
332.5670, 21.69409
333.0491, 28.81543
333.5312, 35.78381
334.0133, 41.10413
334.4955, 43.70312
334.9776, 40.37280
335.4597, 25.28247
335.9418, 17.39783
336.4239, 22.32129
336.9060, 30.01086
337.3882, 36.14478
337.8703, 39.46753
338.3524, 38.82776
338.8345, 31.11292
339.3166, 16.32556
339.7987, 7.053955
340.2809, 6.506348
340.7630, 7.434570
341.2451, 4.966797
341.7272, 1.517456
342.2093, 2.196899
342.6914, 11.71423
343.1736, 24.49658
343.6557, 30.83447
344.1378, 30.31433
344.6199, 26.22546
345.1020, 16.54431
345.5841, 5.997681
346.0663, 0.6762700
346.5484, 1.836060
347.0305, 5.167236
347.5126, 8.885864
347.9947, 12.61340
348.4768, 15.13989
348.9590, 16.10583
349.4411, 16.21228
349.9232, 16.88684
350.4053, 18.27563
350.8874, 17.94153
351.3695, 12.66406
351.8517, 7.467163
352.3338, 7.749756
352.8159, 13.51562
353.2980, 19.51025
353.7801, 21.86816
354.2622, 21.15344
354.7444, 21.33838
355.2265, 23.21887
355.7086, 25.05139
356.1907, 25.72778
356.6728, 26.19409
357.1549, 28.75610
357.6371, 34.33276
358.1192, 39.57068
358.6013, 37.53784
359.0834, 23.29297
359.5655, 10.34900
360.0476, 5.358765
360.5298, 16.72327
361.0119, 16.78064
361.4940, 6.854370
361.9761, 4.380249
362.4582, 9.210815
362.9403, 7.902832
363.4224, 8.791748
363.9045, 13.19641
364.3867, 17.78784
364.8688, 22.16052
365.3509, 25.64343
365.8330, 27.31042
366.3151, 26.41248
366.7972, 24.11609
367.2794, 21.98914
367.7615, 20.15894
368.2436, 18.03003
368.7257, 15.58411
369.2078, 12.81311
369.6899, 8.828735
370.1721, 3.379272
370.6542, 0.4398190
371.1363, 3.861694
371.6184, 11.04016
372.1005, 17.67261
372.5826, 23.70984
373.0648, 25.35107
373.5469, 15.86487
374.0290, 3.473145
374.5111, 12.56213
374.9932, 2.579590
375.4753, 10.34460
375.9575, 17.92468
376.4396, 20.90930
376.9217, 21.59106
377.4038, 20.58130
377.8859, 19.63928
378.3680, 23.42188
378.8502, 43.74658
379.3323, 52.40295
379.8144, 38.72937
380.2965, 19.71643
380.7786, 9.102295
381.2607, 8.969360
381.7429, 13.87756
382.2250, 18.72876
382.7071, 23.59216
383.1892, 27.31433
383.6713, 31.22083
384.1534, 32.38098
384.6356, 27.18665
385.1177, 19.24780
385.5998, 14.76843
386.0819, 17.31702
386.5640, 22.70496
387.0461, 22.61072
387.5283, 15.75330
388.0104, 9.970093
388.4925, 6.973022
388.9746, 6.158936
389.4567, 7.153687
389.9388, 9.967529
390.4210, 14.42371
390.9031, 20.96948
391.3852, 27.87891
391.8673, 31.80933
392.3494, 32.26367
392.8315, 32.80603
393.3137, 37.55322
393.7958, 45.03699
394.2779, 47.27307
394.7600, 40.41638
395.2421, 31.75305
395.7242, 23.36267
396.2064, 16.23340
396.6885, 13.34900
397.1706, 16.28442
397.6527, 21.48230
398.1348, 21.82422
398.6169, 10.24780
399.0991, 7.750732
399.5812, 25.89404
400.0633, 43.74744
400.5454, 43.16028
401.0275, 26.87268
401.5096, 12.75232
401.9918, 16.44824
402.4739, 35.56262
402.9560, 46.05859
403.4381, 42.04480
403.9202, 37.17786
404.4023, 35.34607
404.8845, 34.18958
405.3666, 29.94019
405.8487, 21.16418
406.3308, 13.40405
406.8129, 16.16211
407.2950, 29.06458
407.7772, 33.03223
408.2593, 18.89624
408.7414, 3.560303
409.2235, 1.899536
409.7056, 11.33752
410.1877, 20.64319
410.6699, 26.56433
411.1520, 30.09546
411.6341, 31.54907
412.1162, 31.20276
412.5983, 31.96204
413.0804, 36.59375
413.5625, 42.27783
414.0446, 39.67029
414.5268, 23.27710
415.0089, 10.01184
415.4910, 1.549194
415.9731, 1.591064
416.4552, 4.104248
416.9373, 17.78979
417.4195, 30.62573
417.9016, 32.50562
418.3837, 22.17041
418.8658, 14.79895
419.3479, 10.07837
419.8300, 10.43713
420.3122, 21.70813
420.7943, 35.46875
421.2764, 39.27393
421.7585, 27.36853
422.2406, 10.20300
422.7227, 6.668823
423.2049, 19.75500
423.6870, 25.63953
424.1691, 13.18164
424.6512, 0.5037840
425.1333, 1.944092
425.6154, 7.137573
426.0976, 15.05164
426.5797, 12.76001
427.0618, 7.577759
427.5439, 13.81091
428.0260, 31.74841
428.5081, 42.78333
428.9903, 34.27454
429.4724, 13.57898
429.9545, 2.194458
430.4366, 3.111084
430.9187, 6.190186
431.4008, 9.622559
431.8830, 13.17236
432.3651, 17.31104
432.8472, 22.81006
433.3293, 26.73669
433.8114, 26.15479
434.2935, 20.69971
434.7757, 15.87305
435.2578, 9.585571
435.7399, 6.317261
436.2220, 8.538208
436.7041, 14.06335
437.1862, 20.53955
437.6684, 27.07996
438.1505, 32.51947
438.6326, 35.43207
439.1147, 35.97888
439.5968, 32.35358
440.0789, 19.53754
440.5611, 7.802734
441.0432, 4.633118
441.5253, 8.487732
442.0074, 13.14764
442.4895, 16.77820
442.9716, 19.41974
443.4538, 21.37915
443.9359, 22.70306
444.4180, 22.29224
444.9001, 19.13873
445.3822, 14.49841
445.8643, 11.38721
446.3465, 11.09607
446.8286, 8.807922
447.3107, 0.1759640
447.7928, 8.965210
448.2749, 10.57281
448.7570, 5.007874
449.2392, 2.871582
449.7213, 9.317200
450.2034, 14.51300
450.6855, 21.11981
451.1676, 36.23474
451.6497, 42.68976
452.1319, 29.49109
452.6140, 11.38745
453.0961, 3.720886
453.5782, 9.902283
454.0603, 20.11078
454.5424, 24.29034
455.0246, 23.08002
455.5067, 23.83185
455.9888, 29.27472
456.4709, 32.16559
456.9530, 21.33618
457.4352, 4.882935
457.9173, 0.4200440
458.3994, 20.34198
458.8815, 41.39600
459.3636, 48.19299
459.8457, 43.66504
460.3279, 32.58929
460.8100, 15.39447
461.2921, 0.7288820
461.7742, 1.687256
462.2563, 24.48694
462.7384, 36.58221
463.2205, 28.03522
463.7026, 19.32922
464.1848, 21.35529
464.6669, 30.53619
465.1490, 39.04626
465.6311, 42.92633
466.1132, 43.36438
466.5953, 42.91132
467.0775, 41.96088
467.5596, 38.84375
468.0417, 29.43317
468.5238, 21.54626
469.0059, 20.77948
469.4880, 26.68347
469.9702, 33.26538
470.4523, 39.04816
470.9344, 42.84369
471.4165, 41.44122
471.8986, 34.99060
472.3807, 30.65302
472.8629, 33.31104
473.3450, 37.98242
473.8271, 32.62134
474.3092, 13.00403
474.7913, 0.2443240
475.2734, 2.356934
475.7556, 8.728455
476.2377, 7.004333
476.7198, 2.057922
477.2019, 9.477417
477.6840, 8.690002
478.1661, 1.246948
478.6483, 5.308594
479.1304, 11.43042
479.6125, 15.73022
480.0946, 17.51086
480.5767, 17.98029
481.0588, 17.32355
481.5410, 15.94067
482.0231, 15.58551
482.5052, 18.59424
482.9873, 23.69324
483.4694, 26.85248
483.9515, 27.65143
484.4337, 27.44519
484.9158, 26.50879
485.3979, 25.18109
485.8800, 24.35834
486.3621, 24.75751
486.8442, 24.02246
487.3264, 18.19513
487.8085, 12.20654
488.2906, 15.08020
488.7727, 26.34656
489.2548, 35.83765
489.7369, 36.03027
490.2191, 27.72418
490.7012, 23.31537
491.1833, 28.04126
491.6654, 30.37872
492.1475, 25.48889
492.6296, 19.39746
493.1118, 18.76044
493.5939, 24.59827
494.0760, 31.79498
494.5581, 35.56738
495.0402, 36.28033
495.5223, 36.48499
496.0045, 36.58331
496.4866, 35.19965
496.9687, 30.50836
497.4508, 23.95270
497.9329, 19.08228
498.4150, 17.12177
498.8972, 14.81903
499.3793, 7.820190
499.8614, 0.4974370
500.3435, 0.5704960
500.8256, 9.052734
501.3077, 19.94098
501.7899, 28.12988
502.2720, 33.62866
502.7541, 38.59882
503.2362, 46.79163
503.7183, 49.77094
504.2004, 42.77588
504.6826, 31.73041
505.1647, 21.40033
505.6468, 12.86560
506.1289, 7.881470
506.6110, 9.697998
507.0931, 17.33954
507.5753, 23.63983
508.0574, 29.08301
508.5395, 31.38354
509.0216, 26.89343
509.5037, 19.18481
509.9858, 15.15387
510.4680, 14.74945
510.9501, 15.79303
511.4322, 19.02893
511.9143, 22.07593
512.3964, 20.19360
512.8785, 13.20270
513.3607, 6.822266
513.8428, 5.954956
514.3249, 10.20490
514.8070, 15.04840
515.2891, 24.76984
515.7712, 29.39191
516.2534, 23.13000
516.7355, 14.22119
517.2176, 10.40875
517.6997, 12.77325
518.1818, 16.78015
518.6639, 18.20984
519.1461, 17.93646
519.6282, 19.76715
520.1103, 24.17358
520.5924, 29.53979
521.0745, 36.60431
521.5566, 42.38031
522.0388, 39.74164
522.5209, 24.34888
523.0030, 13.41302
523.4851, 19.12006
523.9672, 27.97827
524.4493, 21.95435
524.9315, 2.696472
525.4136, 11.72931
525.8957, 8.406250
526.3778, 9.204590
526.8599, 27.06042
527.3420, 50.32977
527.8242, 64.44373
528.3063, 63.13135
528.7884, 57.12933
529.2705, 54.04187
529.7526, 53.74390
530.2347, 51.12146
530.7169, 40.29633
531.1990, 26.54382
531.6811, 19.78839
532.1632, 19.99030
532.6453, 22.84302
533.1274, 27.51532
533.6096, 33.33966
534.0917, 40.25079
534.5738, 49.41595
535.0559, 52.82971
535.5380, 47.47491
536.0201, 39.44354
536.5022, 29.38147
536.9843, 19.38580
537.4664, 14.49133
537.9485, 17.32373
538.4307, 23.60822
538.9128, 24.07294
539.3949, 16.43536
539.8770, 12.83856
540.3591, 15.48511
540.8412, 21.12177
541.3234, 31.93781
541.8055, 44.11975
542.2876, 47.80133
542.7697, 34.41718
543.2518, 19.71863
543.7339, 22.04572
544.2161, 34.27771
544.6982, 33.04242
545.1803, 11.59222
545.6624, 10.62769
546.1445, 11.87775
546.6266, 9.813782
547.1088, 24.45233
547.5909, 28.89282
548.0730, 31.51086
548.5551, 35.40680
549.0372, 37.96552
549.5193, 33.52570
550.0015, 21.78784
550.4836, 12.74823
550.9657, 20.65210
551.4478, 41.60724
551.9299, 50.91064
552.4120, 46.41821
552.8942, 36.67926
553.3763, 21.32416
553.8584, 5.561096
554.3405, 0.8274540
554.8226, 4.491211
555.3047, 11.93793
555.7869, 20.11151
556.2690, 27.99554
556.7511, 34.73859
557.2332, 40.66791
557.7153, 45.30542
558.1974, 49.47156
558.6796, 52.69080
559.1617, 52.50342
559.6438, 47.47156
560.1259, 42.68268
560.6080, 39.69843
561.0901, 36.14984
561.5723, 29.50775
562.0544, 21.05768
562.5365, 15.00732
563.0186, 14.58466
563.5007, 15.54913
563.9828, 11.21021
564.4650, 3.941162
564.9471, 5.091736
565.4292, 19.13202
565.9113, 32.50708
566.3934, 27.60107
566.8755, 1.358093
567.3577, 8.610291
567.8398, 11.84027
568.3219, 29.49866
568.8040, 34.55493
569.2861, 32.23010
569.7682, 27.45337
570.2504, 22.08905
570.7325, 18.49097
571.2146, 19.55396
571.6967, 24.52673
572.1788, 31.33746
572.6609, 41.68823
573.1431, 45.05249
573.6252, 31.33179
574.1073, 10.89075
574.5894, 4.424622
575.0715, 16.01587
575.5536, 25.33875
576.0358, 29.08783
576.5179, 27.90295
577.0000, 16.65363
577.4821, 0.6305540
577.9642, 4.294800
578.4464, 10.99506
578.9285, 34.50946
579.4106, 39.07111
579.8927, 18.52661
580.3748, 8.379272
580.8569, 20.66248
581.3391, 32.38019
581.8212, 27.29492
582.3033, 12.31812
582.7854, 2.994934
583.2675, 3.313904
583.7496, 8.513977
584.2318, 18.52319
584.7139, 29.55768
585.1960, 35.23828
585.6781, 34.70636
586.1602, 32.46051
586.6423, 32.24908
587.1245, 33.73993
587.6066, 34.35767
588.0887, 33.78973
588.5708, 32.79291
589.0529, 32.48407
589.5350, 31.05414
590.0172, 25.77417
590.4993, 17.59119
590.9814, 11.38885
591.4635, 10.56396
591.9456, 12.84692
592.4277, 16.27850
592.9099, 20.16351
593.3920, 21.48492
593.8741, 18.66583
594.3562, 15.33258
594.8383, 16.28137
595.3204, 22.37744
595.8026, 26.18365
596.2847, 28.22827
596.7668, 27.69891
597.2489, 19.78656
597.7310, 11.40790
598.2131, 12.52728
598.6953, 24.60907
599.1774, 37.34143
599.6595, 41.53143
600.1416, 38.55090
600.6237, 31.50201
601.1058, 19.38757
601.5880, 13.14734
602.0701, 21.51093
602.5522, 34.59576
603.0343, 32.46124
603.5164, 9.031860
603.9985, 5.313049
604.4807, 0.3340450
604.9628, 9.864319
605.4449, 14.80731
605.9270, 15.32379
606.4091, 13.94751
606.8912, 11.53723
607.3734, 10.72375
607.8555, 17.07495
608.3376, 30.25024
608.8197, 37.42529
609.3018, 36.90491
609.7839, 33.17029
610.2661, 26.67163
610.7482, 19.28333
611.2303, 14.80023
611.7124, 13.96405
612.1945, 14.01666
612.6766, 17.49628
613.1588, 19.47266
613.6409, 12.49048
614.1230, 4.5959000E-02
614.6051, 6.691711
615.0872, 0.8733520
615.5693, 11.16998
616.0515, 16.08105
616.5336, 12.58752
617.0157, 10.60156
617.4978, 12.05768
617.9799, 13.48059
618.4620, 12.45044
618.9442, 9.901550
619.4263, 7.316223
619.9084, 3.572510
620.3905, 2.603699
620.8726, 9.754822
621.3547, 18.70398
621.8369, 19.98541
622.3190, 14.30109
622.8011, 11.30518
623.2832, 18.05237
623.7653, 29.60687
624.2474, 30.66028
624.7296, 16.28485
625.2117, 7.846863
625.6938, 15.21826
626.1759, 22.77802
626.6580, 18.40594
627.1401, 7.230469
627.6223, 3.512634
628.1044, 15.72461
628.5865, 27.33179
629.0686, 26.73218
629.5507, 20.12335
630.0328, 17.61090
630.5150, 20.06897
630.9971, 21.00714
631.4792, 15.09863
631.9613, 4.711487
632.4434, 0.9609380
632.9255, 0.8985600
633.4077, 1.385254
633.8898, 6.523926
634.3719, 12.81909
634.8539, 22.43213
635.3361, 32.51862
635.8182, 33.81458
636.3003, 17.92432
636.7824, 2.437195
637.2645, 0.1239620
637.7466, 6.318542
638.2288, 14.16614
638.7109, 22.06592
639.1930, 30.09888
639.6751, 38.97357
640.1572, 47.26257
640.6393, 47.92072
641.1215, 37.61798
641.6036, 27.89825
642.0857, 16.64948
642.5678, 9.922058
643.0499, 15.44061
643.5320, 29.61597
644.0142, 39.01813
644.4963, 38.52618
644.9784, 33.72430
645.4605, 23.74426
645.9426, 13.69232
646.4247, 15.03955
646.9069, 28.21466
647.3890, 40.30487
647.8711, 40.94220
648.3532, 32.15021
648.8353, 21.54700
649.3174, 4.934387
649.7996, 2.170654
650.2817, 11.75323
650.7638, 27.20654
651.2459, 30.26636
651.7280, 24.27386
652.2101, 21.13727
652.6923, 26.39410
653.1744, 31.91162
653.6565, 32.37787
654.1386, 30.09174
654.6207, 28.71375
655.1028, 28.58655
655.5850, 26.94495
656.0671, 21.08270
656.5492, 13.49060
657.0313, 13.61377
657.5134, 24.50555
657.9955, 32.85193
658.4777, 37.50891
658.9598, 38.27979
659.4419, 33.06854
659.9240, 24.08484
660.4061, 18.18848
660.8882, 19.48871
661.3704, 18.57471
661.8525, 6.300476
662.3346, 7.277222
662.8167, 8.447754
663.2988, 1.781921
663.7809, 10.30762
664.2631, 7.912903
664.7452, 0.1401370
665.2273, 1.455078
665.7094, 13.48578
666.1915, 24.02771
666.6736, 33.44958
667.1558, 38.32910
667.6379, 33.56439
668.1200, 23.03882
668.6021, 16.49280
669.0842, 17.37140
669.5663, 17.03174
670.0485, 11.20886
670.5306, 4.107605
671.0127, 1.954834
671.4948, 5.782532
671.9769, 4.724670
672.4590, 2.586365
672.9412, 13.20508
673.4233, 21.83636
673.9054, 28.30792
674.3875, 28.19983
674.8696, 18.76172
675.3517, 10.19086
675.8339, 9.233887
676.3160, 13.17554
676.7981, 14.74805
677.2802, 13.37567
677.7623, 11.41705
678.2444, 6.296082
678.7266, 3.418701
679.2087, 8.318237
679.6908, 17.61285
680.1729, 25.12225
680.6550, 28.47223
681.1371, 27.80798
681.6193, 20.80182
682.1014, 9.834229
682.5835, 3.759155
683.0656, 3.202820
683.5477, 5.544312
684.0298, 10.70459
684.5120, 15.91577
684.9941, 15.38879
685.4762, 5.373291
685.9583, 2.123413
686.4404, 13.63684
686.9225, 22.23071
687.4047, 18.48944
687.8868, 9.752563
688.3689, 5.357483
688.8510, 7.272827
689.3331, 11.33527
689.8152, 15.05963
690.2974, 18.83130
690.7795, 24.99084
691.2616, 32.43433
691.7437, 34.99316
692.2258, 30.34460
692.7079, 22.62427
693.1901, 16.40979
693.6722, 11.70605
694.1543, 9.671326
694.6364, 11.69263
695.1185, 14.18573
695.6006, 17.52820
696.0828, 20.14197
696.5649, 20.88434
697.0470, 19.69775
697.5291, 16.88586
698.0112, 11.44373
698.4933, 5.533691
698.9755, 2.095703
699.4576, 8.171875
699.9397, 5.343262
700.4218, 6.587158
700.9039, 19.75696
701.3860, 28.47876
701.8682, 32.49554
702.3503, 29.43500
702.8324, 17.23865
703.3145, 9.972717
703.7966, 11.59796
704.2787, 15.10455
704.7609, 14.37256
705.2430, 11.08856
705.7251, 11.49506
706.2072, 20.57190
706.6893, 25.49640
707.1714, 19.31512
707.6536, 10.82764
708.1357, 7.167419
708.6178, 7.816772
709.0999, 10.14417
709.5820, 13.14075
710.0641, 15.55316
710.5463, 15.50879
711.0284, 13.46759
711.5105, 11.08948
711.9926, 8.451416
712.4747, 6.615662
712.9568, 6.270630
713.4390, 6.812927
713.9211, 6.912170
714.4032, 5.743591
714.8853, 6.831299
715.3674, 14.84747
715.8495, 19.57025
716.3317, 15.50800
716.8138, 7.592346
717.2959, 0.5154420
717.7780, 4.692200
718.2601, 5.793152
718.7422, 1.109680
719.2244, 10.64740
719.7065, 17.86102
720.1886, 22.40771
720.6707, 25.69196
721.1528, 28.55432
721.6349, 29.36011
722.1171, 26.88995
722.5992, 21.40564
723.0813, 13.85724
723.5634, 2.189758
724.0455, 3.959167
724.5276, 0.1817630
725.0098, 7.196716
725.4919, 11.77350
725.9740, 14.04565
726.4561, 14.19550
726.9382, 10.86072
727.4203, 7.271118
727.9025, 1.872620
728.3846, 1.470093
728.8667, 2.248535
729.3488, 10.96143
729.8309, 19.01953
730.3130, 24.00916
730.7952, 25.30225
731.2773, 19.24921
731.7594, 8.981079
732.2415, 8.395569
732.7236, 18.90216
733.2057, 25.86182
733.6878, 20.29047
734.1699, 9.832886
734.6520, 10.06909
735.1342, 26.10272
735.6163, 33.89569
736.0984, 28.30103
736.5805, 20.52289
737.0626, 9.031311
737.5447, 0.2058110
738.0269, 1.815369
738.5090, 15.48846
738.9911, 25.31897
739.4732, 19.72052
739.9553, 12.71375
740.4374, 18.04889
740.9196, 29.66980
741.4017, 33.15417
741.8838, 27.12134
742.3659, 18.43298
742.8480, 11.87103
743.3301, 8.333252
743.8123, 13.03174
744.2944, 26.75940
744.7765, 30.86560
745.2586, 18.41919
745.7407, 6.499756
746.2228, 9.501404
746.7050, 23.11975
747.1871, 29.56873
747.6692, 23.40717
748.1513, 19.03918
748.6334, 16.13617
749.1155, 15.91644
749.5977, 22.55511
750.0798, 31.23749
750.5619, 32.76740
751.0440, 24.15204
751.5261, 15.71722
752.0082, 14.81342
752.4904, 18.15466
752.9725, 22.92395
753.4546, 28.04523
753.9367, 30.54315
754.4188, 30.04669
754.9009, 28.14398
755.3831, 27.57367
755.8652, 28.18488
756.3473, 23.22552
756.8294, 9.823242
757.3115, 2.263062
757.7936, 7.358093
758.2758, 16.48267
758.7579, 23.04877
759.2400, 26.62561
759.7221, 24.59882
760.2042, 5.918213
760.6863, 3.104492
761.1685, 9.362122
761.6506, 26.66394
762.1327, 40.03638
762.6148, 47.35022
763.0969, 45.26495
763.5790, 31.11096
764.0612, 18.32477
764.5433, 23.48517
765.0254, 36.61700
765.5075, 38.91406
765.9896, 31.05396
766.4717, 22.63068
766.9539, 17.53345
767.4360, 14.90051
767.9181, 13.92493
768.4002, 14.55066
768.8823, 12.95428
769.3644, 6.378601
769.8466, 6.778259
770.3287, 23.65594
770.8108, 41.70392
771.2929, 43.80438
771.7750, 31.44049
772.2571, 20.69110
772.7393, 8.917847
773.2214, 3.199524
773.7035, 8.975464
774.1856, 18.47308
774.6677, 28.32562
775.1498, 34.90485
775.6320, 35.17944
776.1141, 26.91864
776.5962, 17.87494
777.0783, 13.77179
777.5604, 13.29132
778.0425, 15.42889
778.5247, 19.25018
779.0068, 21.54010
779.4889, 20.94855
779.9710, 18.01117
780.4531, 12.74194
780.9352, 5.377258
781.4174, 1.112000
781.8995, 0.2527470
782.3816, 2.338684
782.8637, 10.57812
783.3458, 19.17334
783.8279, 22.80096
784.3101, 21.80804
784.7922, 22.39972
785.2743, 27.23090
785.7564, 29.87921
786.2385, 27.41046
786.7206, 24.21619
787.2028, 23.66180
787.6849, 24.72510
788.1670, 24.62109
788.6491, 22.44666
789.1312, 18.87164
789.6133, 10.84406
790.0955, 4.046936
790.5776, 8.659790
791.0597, 21.17517
791.5418, 30.13721
792.0239, 31.47949
792.5060, 28.01013
792.9882, 21.10205
793.4703, 12.57440
793.9524, 13.13586
794.4345, 23.88165
794.9166, 28.93451
795.3987, 22.18451
795.8809, 15.98193
796.3630, 23.93823
796.8451, 41.70685
797.3272, 42.95612
797.8093, 7.095459
798.2914, 11.12836
798.7736, 4.025513
799.2557, 20.99677
799.7378, 23.25714
800.2199, 17.29224
800.7020, 14.60101
801.1841, 17.36749
801.6663, 22.07043
802.1484, 30.90338
802.6305, 37.56818
803.1126, 34.76147
803.5947, 27.21173
804.0768, 23.78345
804.5590, 25.79199
805.0411, 26.67957
805.5232, 20.00134
806.0053, 11.04089
806.4874, 10.74731
806.9695, 17.16089
807.4517, 19.58997
807.9338, 16.26508
808.4159, 14.73730
808.8980, 20.40289
809.3801, 30.00110
809.8622, 36.69153
810.3444, 41.99457
810.8265, 36.35107
811.3086, 10.43420
811.7907, 8.490967
812.2728, 6.446594
812.7549, 6.285706
813.2371, 18.52435
813.7192, 30.60614
814.2013, 35.00385
814.6834, 22.26526
815.1655, 13.04443
815.6476, 18.68329
816.1298, 26.52075
816.6119, 22.56940
817.0940, 10.09320
817.5761, 3.855530
818.0582, 11.73688
818.5403, 21.08270
819.0225, 23.88843
819.5046, 21.41089
819.9867, 12.12482
820.4688, 0.7424930
820.9509, 7.851685
821.4330, 5.367981
821.9152, 1.951233
822.3973, 9.675049
822.8794, 17.38190
823.3615, 20.60699
823.8436, 19.37396
824.3257, 21.52667
824.8079, 30.15527
825.2900, 36.29651
825.7721, 30.81171
826.2542, 17.28467
826.7363, 13.19928
827.2184, 25.17499
827.7006, 30.34625
828.1827, 21.75214
828.6648, 13.75500
829.1469, 14.97437
829.6290, 20.16718
830.1111, 22.41949
830.5933, 21.50854
831.0754, 16.65472
831.5575, 2.296082
832.0396, 13.41504
832.5217, 1.146545
833.0038, 23.17914
833.4859, 32.48761
833.9680, 28.65363
834.4501, 23.36493
834.9323, 21.80963
835.4144, 21.85266
835.8965, 21.05353
836.3786, 20.94086
836.8607, 26.08319
837.3428, 34.49536
837.8250, 38.13611
838.3071, 33.58740
838.7892, 24.30518
839.2713, 11.33582
839.7534, 2.506226
840.2355, 1.861450
840.7177, 13.07025
841.1998, 22.13391
841.6819, 19.38647
842.1640, 13.74255
842.6461, 13.02460
843.1282, 16.02228
843.6104, 17.00916
844.0925, 14.08496
844.5746, 14.96997
845.0567, 24.04279
845.5388, 30.93213
846.0209, 29.33337
846.5031, 22.98145
846.9852, 16.76794
847.4673, 9.777161
847.9494, 9.339966
848.4315, 25.99829
848.9136, 36.98065
849.3958, 27.90894
849.8779, 14.94202
850.3600, 16.21252
850.8421, 28.34607
851.3242, 32.34930
851.8063, 16.76184
852.2885, 2.845642
852.7706, 8.060547
853.2527, 18.92615
853.7348, 20.22919
854.2169, 14.41895
854.6990, 10.29474
855.1812, 10.75275
855.6633, 12.30457
856.1454, 9.561462
856.6275, 7.340393
857.1096, 13.17236
857.5917, 25.06543
858.0739, 35.93805
858.5560, 44.03687
859.0381, 47.55353
859.5202, 45.21332
860.0023, 38.51910
860.4844, 27.18652
860.9666, 10.06897
861.4487, 9.840698
861.9308, 32.80487
862.4129, 48.14594
862.8950, 40.68134
863.3771, 25.27606
863.8593, 21.00684
864.3414, 27.86401
864.8235, 29.50085
865.3056, 21.90576
865.7877, 15.75073
866.2698, 11.56305
866.7520, 9.978027
867.2341, 14.26453
867.7162, 21.29492
868.1983, 22.04822
868.6804, 11.62726
869.1625, 6.547852
869.6447, 12.19818
870.1268, 21.29089
870.6089, 35.59991
871.0910, 47.64453
871.5731, 45.46613
872.0552, 31.32794
872.5374, 24.04761
873.0195, 36.48425
873.5016, 51.09418
873.9837, 55.91296
874.4658, 54.64697
874.9479, 50.84259
875.4301, 45.24133
875.9122, 37.55310
876.3943, 27.83020
876.8764, 18.99670
877.3585, 15.28900
877.8406, 14.02332
878.3228, 7.172852
878.8049, 2.952759
879.2870, 4.668457
879.7691, 4.320129
880.2512, 18.89893
880.7333, 36.94708
881.2155, 53.06378
881.6976, 52.57062
882.1797, 35.65338
882.6618, 28.97992
883.1439, 35.06744
883.6260, 41.05768
884.1082, 42.25940
884.5903, 40.46240
885.0724, 36.90472
885.5545, 32.03235
886.0366, 33.14026
886.5187, 45.13239
887.0009, 50.64056
887.4830, 44.32080
887.9651, 35.73260
888.4472, 29.01050
888.9293, 24.46027
889.4114, 23.13373
889.8936, 25.97394
890.3757, 27.27301
890.8578, 23.32043
891.3399, 20.24707
891.8220, 21.89221
892.3041, 23.50531
892.7863, 19.43927
893.2684, 11.32617
893.7505, 6.294067
894.2326, 6.544495
894.7147, 8.956116
895.1968, 14.41754
895.6790, 19.59796
896.1611, 21.42053
896.6432, 21.54474
897.1253, 23.71722
897.6074, 27.90991
898.0895, 29.34808
898.5717, 22.46515
899.0538, 14.92505
899.5359, 14.45184
900.0180, 17.52124
900.5001, 20.37140
900.9822, 21.71094
901.4644, 17.68713
901.9465, 6.630798
902.4286, 4.1565001E-02
902.9107, 17.34076
903.3928, 43.57129
903.8749, 43.12921
904.3571, 23.01062
904.8392, 10.75665
905.3213, 12.38977
905.8034, 20.75732
906.2855, 31.91931
906.7676, 41.81378
907.2498, 40.30872
907.7319, 28.84772
908.2140, 21.33459
908.6961, 18.47748
909.1782, 19.93292
909.6603, 26.46643
910.1425, 31.40863
910.6246, 25.95978
911.1067, 13.31158
911.5888, 15.39099
912.0709, 37.30042
912.5530, 47.66785
913.0352, 40.03625
913.5173, 28.69592
913.9994, 20.49756
914.4815, 13.95648
914.9636, 5.997864
915.4457, 4.234131
915.9279, 8.043335
916.4100, 4.811462
916.8921, 4.048523
917.3742, 25.77997
917.8563, 44.95868
918.3384, 49.07959
918.8206, 42.53052
919.3027, 37.00079
919.7848, 33.05981
920.2669, 28.13110
920.7490, 20.53052
921.2311, 14.52582
921.7133, 12.94067
922.1954, 12.62366
922.6775, 10.34729
923.1596, 6.382019
923.6417, 3.237244
924.1238, 2.261108
924.6060, 0.6190800
925.0881, 7.314148
925.5702, 11.35608
926.0523, 6.0669001E-02
926.5344, 17.31482
927.0165, 27.06396
927.4987, 27.19019
927.9808, 24.57666
928.4629, 19.17810
928.9450, 16.33264
929.4271, 23.80200
929.9092, 32.21808
930.3914, 29.13464
930.8734, 18.40228
931.3555, 11.94421
931.8376, 13.54645
932.3198, 16.75995
932.8019, 17.20068
933.2840, 16.38116
933.7661, 14.94427
934.2482, 13.89990
934.7303, 16.34625
935.2125, 21.22198
935.6946, 21.80457
936.1767, 14.37164
936.6588, 8.485046
937.1409, 20.37842
937.6230, 39.44226
938.1052, 43.26538
938.5873, 34.92902
939.0694, 23.76630
939.5515, 12.95819
940.0336, 7.346619
940.5157, 10.99713
940.9979, 18.27673
941.4800, 19.13336
941.9621, 15.54883
942.4442, 16.25183
942.9263, 20.82874
943.4084, 21.65643
943.8906, 16.42560
944.3727, 10.12317
944.8548, 7.335876
945.3369, 7.443054
945.8190, 9.318115
946.3011, 12.80438
946.7833, 14.27795
947.2654, 13.27417
947.7475, 16.20374
948.2296, 26.64722
948.7117, 36.16766
949.1938, 34.04327
949.6760, 22.49939
950.1581, 14.39734
950.6402, 9.810608
951.1223, 8.500183
951.6044, 11.06696
952.0865, 14.17535
952.5687, 16.49451
953.0508, 17.34436
953.5329, 15.15625
954.0150, 9.963257
954.4971, 7.847290
954.9792, 8.813416
955.4614, 13.81384
955.9435, 26.60004
956.4256, 34.68536
956.9077, 27.99982
957.3898, 14.03442
957.8719, 8.869019
958.3541, 14.56506
958.8362, 14.24786
959.3183, 3.115662
959.8004, 3.663147
960.2825, 1.242004
960.7646, 4.002136
961.2468, 7.305054
961.7289, 9.835144
962.2110, 15.40186
962.6931, 26.95001
963.1752, 32.51868
963.6573, 26.72833
964.1395, 22.56488
964.6216, 26.87793
965.1037, 30.60358
965.5858, 22.20282
966.0679, 6.568726
966.5500, 4.468994
967.0322, 25.68323
967.5143, 36.28992
967.9964, 27.57916
968.4785, 18.34119
968.9606, 13.29047
969.4427, 10.73273
969.9249, 10.41980
970.4070, 11.61945
970.8891, 10.85492
971.3712, 5.837341
971.8533, 2.775879
972.3354, 3.060364
972.8176, 4.321045
973.2997, 4.842651
973.7818, 5.790710
974.2639, 10.70984
974.7460, 18.59625
975.2281, 20.68304
975.7103, 11.21301
976.1924, 3.172241
976.6745, 2.884094
977.1566, 4.606262
977.6387, 2.969299
978.1208, 13.39850
978.6030, 17.83722
979.0851, 16.15253
979.5672, 16.00330
980.0493, 19.92920
980.5314, 24.56854
981.0135, 32.16119
981.4957, 36.87543
981.9778, 33.45288
982.4599, 25.58234
982.9420, 17.40424
983.4241, 10.01288
983.9063, 5.517212
984.3884, 2.373718
984.8705, 3.228760
985.3526, 15.75195
985.8347, 25.96539
986.3168, 20.30444
986.7990, 6.785645
987.2811, 1.653564
987.7632, 2.914795
988.2453, 0.8574220
988.7274, 5.120300
989.2095, 11.48730
989.6917, 17.22955
990.1738, 22.36426
990.6559, 29.35638
991.1380, 34.73199
991.6201, 30.07330
992.1022, 14.53882
992.5844, 4.288696
993.0665, 11.37842
993.5486, 18.06000
994.0307, 14.17499
994.5128, 8.029236
994.9949, 7.279846
995.4771, 9.536316
995.9592, 8.443787
996.4413, 2.870789
996.9234, 0.2375490
997.4055, 4.860352
997.8876, 9.672241
998.3698, 8.256409
998.8519, 6.121216
999.3340, 10.36023
999.8161, 16.98901
1000.298, 15.30426
1000.780, 3.393921
1001.262, 1.733704
1001.745, 15.72351
1002.227, 31.40576
1002.709, 31.69958
1003.191, 25.15991
1003.673, 16.41705
1004.155, 8.100891
1004.637, 4.004089
1005.119, 4.867371
1005.602, 6.763123
1006.084, 7.559753
1006.566, 9.464966
1007.048, 16.58240
1007.530, 22.67902
1008.012, 19.03571
1008.494, 11.13556
1008.976, 12.22223
1009.458, 24.82471
1009.941, 31.32904
1010.423, 15.46985
1010.905, 3.075195
1011.387, 12.68506
1011.869, 25.60815
1012.351, 24.99982
1012.833, 15.49127
1013.315, 6.550476
1013.797, 0.3008420
1014.280, 0.1700440
1014.762, 12.67975
1015.244, 23.24213
1015.726, 21.88312
1016.208, 18.10095
1016.690, 21.16571
1017.172, 26.88959
1017.654, 26.02893
1018.137, 17.65955
1018.619, 9.824829
1019.101, 4.746094
1019.583, 1.205872
1020.065, 3.414063
1020.547, 4.547668
1021.029, 5.507263
1021.511, 19.40741
1021.993, 25.10815
1022.476, 21.11572
1022.958, 14.23334
1023.440, 4.1198999E-02
1023.922, 7.839478
1024.404, 1.890869
1024.886, 11.75232
1025.368, 6.654724
1025.850, 3.735107
1026.333, 3.318237
1026.815, 8.806885
1027.297, 17.98138
1027.779, 22.36554
1028.261, 21.63373
1028.743, 8.338196
1029.225, 1.922668
1029.707, 3.272888
1030.189, 14.38501
1030.672, 18.26935
1031.154, 14.82410
1031.636, 14.04614
1032.118, 21.92731
1032.600, 26.94806
1033.082, 26.71991
1033.564, 24.32672
1034.046, 19.19110
1034.528, 13.80157
1035.011, 10.24658
1035.493, 9.375366
1035.975, 13.36383
1036.457, 31.86871
1036.939, 38.53857
1037.421, 20.28394
1037.903, 5.214600
1038.385, 4.818665
1038.868, 10.84967
1039.350, 17.38580
1039.832, 23.86755
1040.314, 27.24524
1040.796, 25.66498
1041.278, 25.38269
1041.760, 29.17719
1042.242, 29.38452
1042.724, 18.86975
1043.207, 10.15460
1043.689, 15.41040
1044.171, 30.15582
1044.653, 41.64532
1045.135, 50.36957
1045.617, 53.41931
1046.099, 50.05377
1046.581, 42.83960
1047.063, 27.41687
1047.546, 17.07965
1048.028, 25.53101
1048.510, 42.67462
1048.992, 44.00641
1049.474, 27.14215
1049.956, 19.65662
1050.438, 23.77649
1050.920, 28.47290
1051.403, 32.50458
1051.885, 33.30872
1052.367, 28.81866
1052.849, 21.10260
1053.331, 12.54858
1053.813, 3.667786
1054.295, 4.989197
1054.777, 17.78259
1055.260, 22.41077
1055.742, 15.15442
1056.224, 7.907654
1056.706, 6.477417
1057.188, 9.153687
1057.670, 15.17938
1058.152, 22.12988
1058.634, 16.56079
1059.116, 0.4114990
1059.599, 1.094421
1060.081, 13.53094
1060.563, 25.04535
1061.045, 25.88336
1061.527, 20.26923
1062.009, 10.76135
1062.491, 1.250244
1062.973, 1.334229
1063.455, 8.622070
1063.938, 16.56000
1064.420, 23.79431
1064.902, 26.14624
1065.384, 23.05859
1065.866, 21.24847
1066.348, 26.36658
1066.830, 32.27649
1067.312, 28.99634
1067.795, 21.54749
1068.277, 19.54730
1068.759, 21.17419
1069.241, 20.55371
1069.723, 17.09631
1070.205, 14.67151
1070.687, 15.57629
1071.169, 15.98663
1071.651, 10.05145
1072.134, 4.087646
1072.616, 4.837158
1073.098, 10.19427
1073.580, 19.74994
1074.062, 30.28571
1074.544, 32.94525
1075.026, 24.41663
1075.508, 16.79285
1075.990, 18.72528
1076.473, 21.71008
1076.955, 20.10303
1077.437, 17.21301
1077.919, 15.40247
1078.401, 15.09375
1078.883, 17.38275
1079.365, 21.98676
1079.847, 24.34906
1080.329, 22.76764
1080.812, 19.13391
1081.294, 10.47229
1081.776, 3.380249
1082.258, 4.903503
1082.740, 9.664551
1083.222, 10.36456
1083.704, 7.154114
1084.186, 7.359192
1084.669, 15.61823
1085.151, 20.29565
1085.633, 16.63068
1086.115, 15.47430
1086.597, 26.31262
1087.079, 34.24530
1087.561, 20.48737
1088.043, 4.689941
1088.526, 8.595642
1089.008, 16.33923
1089.490, 25.48969
1089.972, 12.18079
1090.454, 2.976074
1090.936, 4.223083
1091.418, 9.997864
1091.900, 17.83923
1092.382, 24.22412
1092.865, 20.85559
1093.347, 9.422119
1093.829, 10.90192
1094.311, 25.93671
1094.793, 36.33466
1095.275, 39.82135
1095.757, 35.67377
1096.239, 23.23651
1096.721, 10.77802
1097.204, 6.517029
1097.686, 8.442932
1098.168, 14.58215
1098.650, 22.92896
1099.132, 25.33820
1099.614, 21.92883
1100.096, 13.65460
1100.578, 2.465210
1101.061, 1.998230
1101.543, 8.349609
1102.025, 22.34979
1102.507, 30.05658
1102.989, 30.63745
1103.471, 15.10138
1103.953, 4.778992
1104.435, 4.270813
1104.917, 13.63330
1105.400, 25.94775
1105.882, 23.83960
1106.364, 20.11084
1106.846, 23.02362
1107.328, 26.95044
1107.810, 29.91003
1108.292, 30.57782
1108.774, 24.85394
1109.256, 17.18488
1109.739, 16.26465
1110.221, 23.03223
1110.703, 29.19666
1111.185, 35.07990
1111.667, 36.28534
1112.149, 26.11084
1112.631, 17.97119
1113.113, 19.91583
1113.596, 25.85144
1114.078, 30.68738
1114.560, 33.80573
1115.042, 32.71411
1115.524, 25.07727
1116.006, 20.93658
1116.488, 22.06567
1116.970, 22.55688
1117.453, 21.07843
1117.935, 18.39923
1118.417, 13.94684
1118.899, 10.43585
1119.381, 13.39093
1119.863, 21.83264
1120.345, 23.98578
1120.827, 19.63947
1121.309, 17.65271
1121.792, 19.03540
1122.274, 21.59607
1122.756, 24.48975
1123.238, 27.92383
1123.720, 32.67017
1124.202, 36.44244
1124.684, 34.47266
1125.166, 28.02344
1125.648, 17.24933
1126.131, 5.514099
1126.613, 4.688843
1127.095, 14.76294
1127.577, 23.22192
1128.059, 23.72504
1128.541, 21.18121
1129.023, 18.35181
1129.505, 16.11475
1129.988, 15.97516
1130.470, 16.39276
1130.952, 13.02679
1131.434, 9.404602
1131.916, 16.12866
1132.398, 34.36676
1132.880, 45.27240
1133.362, 37.19397
1133.844, 28.43469
1134.327, 24.78784
1134.809, 21.50043
1135.291, 14.00671
1135.773, 7.050049
1136.255, 5.338928
1136.737, 8.913940
1137.219, 17.78754
1137.701, 36.95135
1138.183, 42.78363
1138.666, 28.43073
1139.148, 16.87750
1139.630, 13.03516
1140.112, 11.89215
1140.594, 10.84351
1141.076, 10.13879
1141.558, 9.918091
1142.040, 10.48730
1142.523, 15.96313
1143.005, 25.73737
1143.487, 19.35858
1143.969, 2.905579
1144.451, 6.958740
1144.933, 16.59662
1145.415, 38.07874
1145.897, 34.14435
1146.380, 19.67389
1146.862, 16.28345
1147.344, 17.14673
1147.826, 8.436340
1148.308, 3.479919
1148.790, 4.171753
1149.272, 5.202087
1149.754, 15.28851
1150.236, 22.75507
1150.719, 25.40936
1151.201, 17.79852
1151.683, 10.53442
1152.165, 11.50195
1152.647, 12.90875
1153.129, 7.115845
1153.611, 0.9567870
1154.093, 4.564148
1154.575, 3.573853
1155.058, 0.6313480
1155.540, 5.141724
1156.022, 9.969055
1156.504, 16.08722
1156.986, 16.71307
1157.468, 4.675659
1157.950, 2.491760
1158.432, 9.689697
1158.915, 26.94617
1159.397, 25.62177
1159.879, 8.652588
1160.361, 2.726074
1160.843, 8.121460
1161.325, 12.75781
1161.807, 15.46478
1162.289, 19.89960
1162.771, 27.49414
1163.254, 33.84003
1163.736, 36.16064
1164.218, 34.19745
1164.700, 23.16656
1165.182, 10.94635
1165.664, 14.34564
1166.146, 24.93719
1166.628, 23.59222
1167.110, 13.37720
1167.593, 12.48059
1168.075, 25.54382
1168.557, 35.24109
1169.039, 29.24548
1169.521, 22.38898
1170.003, 20.66925
1170.485, 22.15131
1170.967, 29.50421
1171.450, 36.39972
1171.932, 34.57489
1172.414, 25.87787
1172.896, 18.59583
1173.378, 12.95526
1173.860, 9.562439
1174.342, 8.891602
1174.824, 10.03583
1175.307, 14.72345
1175.789, 16.57550
1176.271, 11.59845
1176.753, 4.976929
1177.235, 2.396606
1177.717, 3.515564
1178.199, 9.328674
1178.681, 18.42053
1179.163, 18.18744
1179.646, 10.07666
1180.128, 5.049438
1180.610, 5.379517
1181.092, 9.355164
1181.574, 16.16724
1182.056, 21.18079
1182.538, 18.23462
1183.020, 13.17828
1183.502, 11.76239
1183.984, 11.99408
1184.467, 10.54138
1184.949, 9.540222
1185.431, 14.86292
1185.913, 25.41071
1186.395, 30.70612
1186.877, 26.15204
1187.359, 22.09515
1187.841, 19.54480
1188.324, 19.30280
1188.806, 24.21082
1189.288, 28.07025
1189.770, 26.24634
1190.252, 22.43048
1190.734, 22.33258
1191.216, 25.26416
1191.698, 26.29865
1192.181, 25.49377
1192.663, 19.80743
1193.145, 9.174561
1193.627, 7.763794
1194.109, 18.92462
1194.591, 28.65228
1195.073, 28.19086
1195.555, 23.12006
1196.037, 18.96710
1196.520, 15.67639
1197.002, 13.20251
1197.484, 11.48712
1197.966, 10.71661
1198.448, 10.52252
1198.930, 10.45319
1199.412, 10.22589
1199.894, 8.833191
1200.376, 4.991028
1200.859, 2.680176
1201.341, 4.364624
1201.823, 5.473022
1202.305, 5.135498
1202.787, 5.680359
1203.269, 11.44952
1203.751, 17.10175
1204.233, 13.53302
1204.716, 2.969116
1205.198, 4.133484
1205.680, 19.79846
1206.162, 23.43292
1206.644, 12.46698
1207.126, 8.874268
1207.608, 18.49091
1208.090, 25.78998
1208.573, 21.08044
1209.055, 13.87823
1209.537, 15.78973
1210.019, 21.22003
1210.501, 21.97559
1210.983, 19.41150
1211.465, 12.47052
1211.947, 5.303284
1212.429, 8.568909
1212.911, 20.77344
1213.394, 25.00659
1213.876, 12.31989
1214.358, 4.617493
1214.840, 13.41980
1215.322, 21.83722
1215.804, 24.21954
1216.286, 24.77161
1216.768, 26.65680
1217.251, 27.26385
1217.733, 22.80988
1218.215, 14.40643
1218.697, 6.375732
1219.179, 1.745544
1219.661, 0.3285520
1220.143, 12.54535
1220.625, 19.77905
1221.108, 19.11420
1221.590, 12.96069
1222.072, 2.622925
1222.554, 5.125671
1223.036, 3.074463
1223.518, 3.455383
1224.000, 10.45032
1224.482, 15.97632
1224.964, 17.40540
1225.447, 15.94336
1225.929, 11.29340
1226.411, 5.873108
1226.893, 7.345032
1227.375, 18.57477
1227.857, 25.85944
1228.339, 22.89062
1228.821, 22.39502
1229.303, 28.12726
1229.786, 32.47217
1230.268, 33.58661
1230.750, 29.10907
1231.232, 14.49969
1231.714, 1.898499
1232.196, 0.9719850
1232.678, 18.86163
1233.160, 24.01062
1233.643, 18.93762
1234.125, 13.66498
1234.607, 10.09644
1235.089, 10.68030
1235.571, 15.38580
1236.053, 18.04797
1236.535, 13.68433
1237.017, 11.97974
1237.500, 21.92358
1237.982, 34.31860
1238.464, 48.31750
1238.946, 56.90314
1239.428, 50.40118
1239.910, 36.21161
1240.392, 24.71515
1240.874, 15.17847
1241.356, 9.934509
1241.839, 10.84375
1242.321, 9.107056
1242.803, 2.894226
1243.285, 5.450562
1243.767, 20.01917
1244.249, 38.09271
1244.731, 55.52710
1245.213, 64.28455
1245.695, 52.66254
1246.178, 33.16650
1246.660, 19.16632
1247.142, 11.56964
1247.624, 16.91083
1248.106, 26.74786
1248.588, 26.32849
1249.070, 16.96014
1249.552, 8.144226
1250.035, 1.993652
1250.517, 0.8353880
1250.999, 0.7258910
1251.481, 4.158142
1251.963, 12.41156
1252.445, 16.69684
1252.927, 11.97943
1253.409, 7.140930
1253.891, 8.533142
1254.374, 14.93829
1254.856, 26.11438
1255.338, 39.20642
1255.820, 34.50598
1256.302, 16.95764
1256.784, 5.167908
1257.266, 1.7090000E-03
1257.748, 3.9489999E-02
1258.230, 3.001343
1258.713, 0.0000000E+00
##END=



