##NAMES=Nepouite
##RRUFFID=R120106
##IDEAL CHEMISTRY=Ni^2+^_3_Si_2_O_5_(OH)_4_
##LOCALITY=Nepoui mine, New Caledonia
##OWNER=RRUFF
##SOURCE=Bill & Sandy Bowman
##DESCRIPTION=Green fine-grained massive associated with quartz
##STATUS=The identification of this mineral is not yet confirmed.
##URL=rruff.info/R120106
234.6451, 15471.93
235.1272, 15498.16
235.6093, 15514.82
236.0914, 15517.06
236.5735, 15516.42
237.0556, 15519.58
237.5378, 15529.48
238.0199, 15537.40
238.5020, 15543.36
238.9841, 15547.51
239.4662, 15549.14
239.9483, 15546.53
240.4305, 15544.73
240.9126, 15546.98
241.3947, 15556.56
241.8768, 15563.41
242.3589, 15564.40
242.8410, 15562.67
243.3232, 15570.35
243.8053, 15594.16
244.2874, 15617.86
244.7695, 15632.01
245.2516, 15629.36
245.7337, 15632.74
246.2159, 15644.30
246.6980, 15661.67
247.1801, 15678.02
247.6622, 15694.62
248.1443, 15707.93
248.6264, 15714.62
249.1086, 15707.75
249.5907, 15711.52
250.0728, 15732.12
250.5549, 15762.08
251.0370, 15781.27
251.5191, 15786.58
252.0013, 15786.73
252.4834, 15783.86
252.9655, 15772.71
253.4476, 15774.03
253.9297, 15793.59
254.4118, 15823.28
254.8940, 15845.17
255.3761, 15856.22
255.8582, 15864.72
256.3403, 15873.34
256.8224, 15881.21
257.3046, 15891.42
257.7867, 15905.31
258.2688, 15920.05
258.7509, 15929.63
259.2330, 15930.84
259.7151, 15932.61
260.1973, 15939.27
260.6794, 15952.89
261.1615, 15960.64
261.6436, 15959.33
262.1257, 15955.03
262.6078, 15958.44
263.0900, 15972.30
263.5721, 15988.38
264.0542, 16005.90
264.5363, 16027.07
265.0184, 16036.98
265.5005, 16030.91
265.9827, 16020.04
266.4648, 16020.65
266.9469, 16035.72
267.4290, 16054.15
267.9111, 16074.16
268.3932, 16095.95
268.8754, 16111.99
269.3575, 16120.62
269.8396, 16125.35
270.3217, 16128.42
270.8038, 16127.08
271.2859, 16133.69
271.7681, 16155.15
272.2502, 16190.32
272.7323, 16212.22
273.2144, 16216.54
273.6965, 16215.31
274.1786, 16221.90
274.6608, 16238.18
275.1429, 16252.53
275.6250, 16260.71
276.1071, 16264.17
276.5892, 16276.31
277.0714, 16300.56
277.5535, 16323.23
278.0356, 16328.06
278.5177, 16312.65
278.9998, 16303.65
279.4819, 16307.94
279.9641, 16322.32
280.4462, 16335.34
280.9283, 16348.51
281.4104, 16353.67
281.8925, 16339.22
282.3746, 16304.84
282.8568, 16279.40
283.3389, 16269.08
283.8210, 16270.11
284.3031, 16273.27
284.7852, 16279.23
285.2673, 16285.16
285.7495, 16288.50
286.2316, 16289.83
286.7137, 16293.75
287.1958, 16301.60
287.6779, 16311.65
288.1600, 16319.42
288.6422, 16324.77
289.1243, 16332.10
289.6064, 16346.63
290.0885, 16366.10
290.5706, 16377.24
291.0527, 16376.14
291.5349, 16371.82
292.0170, 16379.91
292.4991, 16399.12
292.9812, 16418.76
293.4633, 16434.67
293.9454, 16446.37
294.4276, 16450.23
294.9097, 16444.63
295.3918, 16437.80
295.8739, 16441.51
296.3560, 16453.84
296.8381, 16465.45
297.3203, 16469.70
297.8024, 16470.64
298.2845, 16478.50
298.7666, 16494.35
299.2487, 16508.97
299.7308, 16510.10
300.2130, 16502.15
300.6951, 16497.65
301.1772, 16499.00
301.6593, 16507.83
302.1414, 16532.26
302.6235, 16571.57
303.1057, 16606.71
303.5878, 16618.93
304.0699, 16615.84
304.5520, 16610.79
305.0341, 16605.81
305.5162, 16603.11
305.9984, 16606.88
306.4805, 16616.17
306.9626, 16624.59
307.4447, 16626.38
307.9268, 16625.12
308.4089, 16624.96
308.8911, 16625.32
309.3732, 16629.63
309.8553, 16645.28
310.3374, 16668.40
310.8195, 16686.11
311.3016, 16684.38
311.7838, 16677.14
312.2659, 16677.29
312.7480, 16689.60
313.2301, 16703.83
313.7122, 16716.37
314.1943, 16726.49
314.6765, 16732.40
315.1586, 16733.96
315.6407, 16730.75
316.1228, 16718.54
316.6049, 16692.24
317.0870, 16677.37
317.5692, 16699.12
318.0513, 16736.22
318.5334, 16758.79
319.0155, 16742.16
319.4976, 16721.96
319.9797, 16712.93
320.4619, 16716.66
320.9440, 16724.57
321.4261, 16736.13
321.9082, 16749.57
322.3903, 16763.16
322.8724, 16781.11
323.3546, 16794.15
323.8367, 16796.73
324.3188, 16789.31
324.8009, 16786.06
325.2830, 16793.49
325.7651, 16803.44
326.2473, 16810.73
326.7294, 16815.22
327.2115, 16817.37
327.6936, 16814.49
328.1757, 16808.80
328.6578, 16809.96
329.1400, 16829.12
329.6221, 16846.59
330.1042, 16853.73
330.5863, 16840.51
331.0684, 16833.77
331.5505, 16835.04
332.0327, 16842.23
332.5148, 16850.58
332.9969, 16856.96
333.4790, 16867.67
333.9611, 16885.92
334.4432, 16914.23
334.9254, 16937.44
335.4075, 16953.74
335.8896, 16965.29
336.3717, 16974.55
336.8538, 16980.04
337.3359, 16986.04
337.8180, 16993.99
338.3001, 17003.87
338.7823, 17013.73
339.2644, 17025.30
339.7465, 17034.09
340.2286, 17035.69
340.7107, 17029.97
341.1928, 17019.32
341.6750, 17001.88
342.1571, 16981.12
342.6392, 16973.25
343.1213, 16980.69
343.6034, 16988.77
344.0855, 16984.20
344.5677, 16967.84
345.0498, 16958.06
345.5319, 16955.89
346.0140, 16963.35
346.4961, 16993.02
346.9782, 17043.52
347.4604, 17082.70
347.9425, 17081.13
348.4246, 17051.54
348.9067, 17041.21
349.3888, 17054.32
349.8709, 17078.14
350.3531, 17098.74
350.8352, 17117.24
351.3173, 17137.86
351.7994, 17169.93
352.2815, 17202.70
352.7636, 17214.79
353.2458, 17206.06
353.7279, 17194.79
354.2100, 17193.80
354.6921, 17200.95
355.1742, 17213.45
355.6563, 17237.23
356.1385, 17258.60
356.6206, 17260.14
357.1027, 17245.67
357.5848, 17234.38
358.0669, 17240.59
358.5490, 17254.00
359.0312, 17264.59
359.5133, 17269.06
359.9954, 17274.32
360.4775, 17288.54
360.9596, 17306.80
361.4417, 17318.28
361.9239, 17311.61
362.4060, 17302.83
362.8881, 17301.37
363.3702, 17309.57
363.8523, 17318.02
364.3344, 17325.92
364.8166, 17331.71
365.2987, 17333.66
365.7808, 17327.29
366.2629, 17321.09
366.7450, 17317.97
367.2271, 17317.91
367.7093, 17315.91
368.1914, 17305.88
368.6735, 17296.91
369.1556, 17294.86
369.6377, 17302.47
370.1198, 17313.64
370.6020, 17331.83
371.0841, 17353.70
371.5662, 17367.17
372.0483, 17366.54
372.5304, 17363.89
373.0125, 17364.39
373.4947, 17370.04
373.9768, 17372.33
374.4589, 17369.18
374.9410, 17364.34
375.4231, 17364.37
375.9052, 17371.42
376.3874, 17378.43
376.8695, 17384.84
377.3516, 17390.85
377.8337, 17388.45
378.3158, 17375.13
378.7979, 17361.47
379.2801, 17359.29
379.7622, 17369.32
380.2443, 17378.28
380.7264, 17383.36
381.2085, 17386.08
381.6906, 17389.39
382.1728, 17393.07
382.6549, 17399.79
383.1370, 17413.82
383.6191, 17432.57
384.1012, 17445.54
384.5833, 17450.75
385.0655, 17452.05
385.5476, 17452.43
386.0297, 17452.54
386.5118, 17455.42
386.9939, 17466.61
387.4760, 17479.87
387.9582, 17484.74
388.4403, 17481.12
388.9224, 17477.90
389.4045, 17488.71
389.8866, 17503.20
390.3687, 17505.93
390.8509, 17480.55
391.3330, 17454.57
391.8151, 17448.35
392.2972, 17458.65
392.7793, 17471.60
393.2614, 17485.62
393.7436, 17496.29
394.2257, 17498.39
394.7078, 17484.10
395.1899, 17477.94
395.6720, 17495.61
396.1541, 17525.41
396.6363, 17548.56
397.1184, 17558.38
397.6005, 17562.61
398.0826, 17560.41
398.5647, 17550.03
399.0468, 17548.65
399.5290, 17569.79
400.0111, 17593.92
400.4932, 17605.12
400.9753, 17585.62
401.4574, 17577.47
401.9395, 17590.73
402.4217, 17619.67
402.9038, 17636.39
403.3859, 17635.09
403.8680, 17630.26
404.3501, 17628.19
404.8322, 17628.71
405.3144, 17632.99
405.7965, 17641.99
406.2786, 17653.49
406.7607, 17664.04
407.2428, 17673.46
407.7249, 17683.11
408.2071, 17695.55
408.6892, 17709.00
409.1713, 17707.12
409.6534, 17686.55
410.1355, 17669.70
410.6176, 17681.29
411.0998, 17716.54
411.5819, 17748.65
412.0640, 17773.66
412.5461, 17791.04
413.0282, 17797.77
413.5103, 17795.14
413.9925, 17791.03
414.4746, 17789.54
414.9567, 17789.60
415.4388, 17789.75
415.9209, 17789.90
416.4030, 17789.99
416.8852, 17791.87
417.3673, 17793.45
417.8494, 17791.38
418.3315, 17780.99
418.8136, 17769.67
419.2957, 17761.25
419.7779, 17756.01
420.2600, 17754.01
420.7421, 17756.37
421.2242, 17761.78
421.7063, 17770.34
422.1884, 17788.18
422.6706, 17798.30
423.1527, 17787.53
423.6348, 17767.42
424.1169, 17759.55
424.5990, 17778.31
425.0811, 17798.60
425.5633, 17812.10
426.0454, 17817.09
426.5275, 17825.08
427.0096, 17835.99
427.4917, 17849.48
427.9738, 17866.36
428.4560, 17892.28
428.9381, 17908.33
429.4202, 17908.15
429.9023, 17897.17
430.3844, 17895.43
430.8665, 17906.69
431.3487, 17916.59
431.8308, 17915.79
432.3129, 17903.53
432.7950, 17899.32
433.2771, 17905.08
433.7592, 17914.86
434.2414, 17922.94
434.7235, 17929.20
435.2056, 17930.10
435.6877, 17921.47
436.1698, 17909.23
436.6519, 17906.36
437.1341, 17912.66
437.6162, 17921.81
438.0983, 17931.94
438.5804, 17941.31
439.0625, 17945.36
439.5446, 17941.44
440.0268, 17938.90
440.5089, 17947.96
440.9910, 17964.46
441.4731, 17979.80
441.9552, 17992.19
442.4373, 18000.40
442.9195, 18000.66
443.4016, 17993.13
443.8837, 17989.73
444.3658, 17996.83
444.8479, 18008.80
445.3300, 18021.29
445.8122, 18036.37
446.2943, 18047.70
446.7764, 18052.23
447.2585, 18052.08
447.7406, 18052.79
448.2227, 18053.15
448.7049, 18056.12
449.1870, 18064.05
449.6691, 18078.79
450.1512, 18088.19
450.6333, 18091.63
451.1154, 18090.80
451.5976, 18085.43
452.0797, 18072.02
452.5618, 18068.56
453.0439, 18083.48
453.5260, 18107.62
454.0081, 18108.56
454.4903, 18082.28
454.9724, 18059.91
455.4545, 18063.71
455.9366, 18089.01
456.4187, 18100.00
456.9008, 18092.97
457.3830, 18084.70
457.8651, 18097.65
458.3472, 18125.86
458.8293, 18150.10
459.3114, 18163.67
459.7935, 18170.31
460.2757, 18173.23
460.7578, 18172.74
461.2399, 18171.40
461.7220, 18167.29
462.2041, 18164.94
462.6862, 18170.68
463.1684, 18187.97
463.6505, 18202.41
464.1326, 18206.42
464.6147, 18203.57
465.0968, 18198.39
465.5789, 18193.29
466.0611, 18185.67
466.5432, 18171.47
467.0253, 18152.15
467.5074, 18141.15
467.9895, 18144.36
468.4716, 18153.10
468.9538, 18164.03
469.4359, 18180.43
469.9180, 18191.07
470.4001, 18192.84
470.8822, 18190.71
471.3643, 18191.97
471.8465, 18196.79
472.3286, 18203.95
472.8107, 18214.09
473.2928, 18226.11
473.7749, 18234.29
474.2570, 18237.83
474.7392, 18240.94
475.2213, 18248.62
475.7034, 18259.55
476.1855, 18262.97
476.6676, 18255.91
477.1497, 18248.12
477.6319, 18256.38
478.1140, 18275.83
478.5961, 18290.15
479.0782, 18287.79
479.5603, 18279.56
480.0424, 18277.35
480.5246, 18280.70
481.0067, 18285.93
481.4888, 18292.12
481.9709, 18298.21
482.4530, 18302.46
482.9352, 18302.11
483.4173, 18305.55
483.8994, 18320.87
484.3815, 18340.80
484.8636, 18354.18
485.3457, 18351.49
485.8279, 18348.99
486.3100, 18351.34
486.7921, 18358.78
487.2742, 18365.71
487.7563, 18375.48
488.2384, 18382.04
488.7206, 18380.35
489.2027, 18362.89
489.6848, 18359.91
490.1669, 18378.61
490.6490, 18404.93
491.1311, 18414.33
491.6133, 18403.64
492.0954, 18397.55
492.5775, 18403.97
493.0596, 18420.54
493.5417, 18441.70
494.0238, 18467.30
494.5060, 18488.33
494.9881, 18494.76
495.4702, 18491.12
495.9523, 18488.78
496.4344, 18488.79
496.9165, 18490.74
497.3987, 18495.76
497.8808, 18502.26
498.3629, 18507.19
498.8450, 18510.73
499.3271, 18511.35
499.8092, 18506.28
500.2914, 18496.77
500.7735, 18489.34
501.2556, 18484.36
501.7377, 18484.15
502.2198, 18492.39
502.7019, 18517.22
503.1841, 18531.18
503.6662, 18522.02
504.1483, 18504.25
504.6304, 18494.82
505.1125, 18499.31
505.5946, 18503.04
506.0768, 18501.74
506.5589, 18497.60
507.0410, 18503.19
507.5231, 18521.83
508.0052, 18540.29
508.4873, 18550.96
508.9695, 18553.49
509.4516, 18557.35
509.9337, 18562.46
510.4158, 18568.68
510.8979, 18577.48
511.3800, 18587.72
511.8622, 18593.76
512.3443, 18592.47
512.8264, 18588.65
513.3085, 18588.84
513.7906, 18592.15
514.2728, 18595.22
514.7549, 18601.11
515.2370, 18603.01
515.7191, 18590.25
516.2012, 18561.07
516.6833, 18541.31
517.1655, 18549.01
517.6476, 18568.23
518.1297, 18585.50
518.6118, 18603.98
519.0939, 18613.21
519.5760, 18604.65
520.0582, 18586.02
520.5403, 18575.13
521.0224, 18569.82
521.5045, 18575.59
521.9866, 18597.71
522.4688, 18636.11
522.9509, 18664.10
523.4330, 18679.11
523.9151, 18689.50
524.3972, 18700.91
524.8793, 18713.15
525.3615, 18726.70
525.8436, 18742.82
526.3257, 18756.48
526.8078, 18758.44
527.2899, 18750.52
527.7720, 18741.42
528.2542, 18734.17
528.7363, 18727.91
529.2184, 18721.24
529.7005, 18714.42
530.1826, 18708.65
530.6647, 18704.63
531.1469, 18702.25
531.6290, 18701.39
532.1111, 18702.14
532.5932, 18705.09
533.0753, 18714.23
533.5574, 18724.44
534.0396, 18730.25
534.5217, 18728.14
535.0038, 18725.09
535.4859, 18719.83
535.9680, 18714.38
536.4501, 18715.58
536.9323, 18728.78
537.4144, 18739.45
537.8965, 18739.79
538.3786, 18729.18
538.8607, 18731.18
539.3428, 18748.75
539.8250, 18768.97
540.3071, 18779.44
540.7892, 18780.81
541.2713, 18780.82
541.7534, 18779.12
542.2355, 18780.07
542.7177, 18794.99
543.1998, 18818.74
543.6819, 18834.57
544.1640, 18827.71
544.6461, 18814.35
545.1282, 18807.18
545.6104, 18806.35
546.0925, 18811.80
546.5746, 18829.72
547.0567, 18849.64
547.5388, 18864.59
548.0209, 18872.35
548.5031, 18879.24
548.9852, 18884.36
549.4673, 18890.26
549.9494, 18899.96
550.4315, 18920.01
550.9136, 18933.28
551.3958, 18936.70
551.8779, 18932.29
552.3600, 18924.76
552.8421, 18911.67
553.3242, 18903.62
553.8063, 18908.45
554.2885, 18923.48
554.7706, 18926.72
555.2527, 18917.55
555.7348, 18903.71
556.2169, 18886.26
556.6990, 18869.75
557.1812, 18867.60
557.6633, 18884.87
558.1454, 18906.00
558.6275, 18919.67
559.1096, 18926.26
559.5917, 18926.61
560.0739, 18909.95
560.5560, 18897.69
561.0381, 18905.32
561.5202, 18927.95
562.0023, 18944.05
562.4844, 18942.15
562.9666, 18937.45
563.4487, 18936.13
563.9308, 18938.56
564.4129, 18942.73
564.8950, 18951.67
565.3771, 18958.68
565.8593, 18955.70
566.3414, 18937.63
566.8235, 18932.52
567.3056, 18947.11
567.7877, 18969.49
568.2698, 18978.28
568.7520, 18974.20
569.2341, 18966.55
569.7162, 18957.81
570.1983, 18948.86
570.6804, 18940.58
571.1625, 18933.38
571.6447, 18928.44
572.1268, 18925.68
572.6089, 18926.34
573.0910, 18933.81
573.5731, 18949.92
574.0552, 18962.18
574.5374, 18957.04
575.0195, 18949.31
575.5016, 18952.71
575.9837, 18979.78
576.4658, 19005.21
576.9479, 19031.15
577.4301, 19052.47
577.9122, 19056.92
578.3943, 19029.71
578.8764, 19014.47
579.3585, 19027.51
579.8406, 19063.20
580.3228, 19081.35
580.8049, 19079.53
581.2870, 19075.53
581.7691, 19085.16
582.2512, 19103.52
582.7333, 19108.13
583.2155, 19096.85
583.6975, 19083.99
584.1796, 19083.41
584.6617, 19090.67
585.1439, 19097.85
585.6260, 19101.27
586.1081, 19107.67
586.5902, 19127.75
587.0723, 19153.21
587.5544, 19167.58
588.0366, 19155.50
588.5187, 19142.38
589.0008, 19134.64
589.4829, 19132.28
589.9650, 19133.96
590.4471, 19141.03
590.9293, 19149.36
591.4114, 19157.01
591.8935, 19163.82
592.3756, 19169.13
592.8577, 19172.24
593.3398, 19175.50
593.8220, 19182.81
594.3041, 19193.43
594.7862, 19200.76
595.2683, 19203.43
595.7504, 19203.67
596.2325, 19205.86
596.7147, 19208.34
597.1968, 19206.43
597.6789, 19193.49
598.1610, 19179.69
598.6431, 19170.36
599.1252, 19166.07
599.6074, 19168.49
600.0895, 19193.13
600.5716, 19211.92
601.0537, 19206.65
601.5358, 19167.72
602.0179, 19145.48
602.5001, 19148.78
602.9822, 19160.58
603.4643, 19168.71
603.9464, 19172.16
604.4285, 19176.71
604.9106, 19183.65
605.3928, 19190.16
605.8749, 19188.42
606.3570, 19179.66
606.8391, 19180.89
607.3212, 19201.61
607.8033, 19229.24
608.2855, 19243.09
608.7676, 19246.63
609.2497, 19253.55
609.7318, 19282.83
610.2139, 19309.65
610.6960, 19309.45
611.1782, 19282.12
611.6603, 19259.33
612.1424, 19253.14
612.6245, 19254.10
613.1066, 19257.20
613.5887, 19264.91
614.0709, 19268.60
614.5530, 19266.29
615.0351, 19262.32
615.5172, 19261.36
615.9993, 19264.32
616.4814, 19266.45
616.9636, 19265.83
617.4457, 19265.96
617.9278, 19276.25
618.4099, 19295.38
618.8920, 19310.22
619.3741, 19311.75
619.8563, 19308.21
620.3384, 19313.25
620.8205, 19324.75
621.3026, 19332.72
621.7847, 19332.55
622.2668, 19325.68
622.7490, 19309.19
623.2311, 19281.34
623.7132, 19263.47
624.1953, 19269.97
624.6774, 19283.08
625.1595, 19290.61
625.6417, 19290.05
626.1238, 19289.65
626.6059, 19290.29
627.0880, 19290.91
627.5701, 19288.10
628.0522, 19280.82
628.5344, 19282.77
629.0165, 19299.76
629.4986, 19323.10
629.9807, 19335.81
630.4628, 19339.25
630.9449, 19341.10
631.4271, 19341.95
631.9092, 19344.77
632.3913, 19352.45
632.8734, 19364.71
633.3555, 19380.64
633.8376, 19406.25
634.3198, 19429.99
634.8019, 19444.80
635.2840, 19448.89
635.7661, 19449.18
636.2482, 19439.96
636.7303, 19432.65
637.2125, 19436.26
637.6946, 19456.57
638.1767, 19472.54
638.6588, 19485.10
639.1409, 19490.70
639.6230, 19478.54
640.1052, 19450.42
640.5873, 19432.92
641.0694, 19434.65
641.5515, 19447.56
642.0336, 19466.15
642.5157, 19486.68
642.9979, 19498.40
643.4800, 19484.24
643.9621, 19468.83
644.4442, 19471.25
644.9263, 19488.86
645.4084, 19504.86
645.8906, 19512.01
646.3727, 19517.97
646.8548, 19526.43
647.3369, 19537.87
647.8190, 19549.07
648.3011, 19561.02
648.7833, 19571.19
649.2654, 19576.21
649.7475, 19575.37
650.2296, 19579.22
650.7117, 19588.88
651.1938, 19601.15
651.6760, 19610.72
652.1581, 19619.42
652.6402, 19633.64
653.1223, 19657.93
653.6044, 19681.80
654.0865, 19696.24
654.5687, 19703.62
655.0508, 19708.80
655.5329, 19710.03
656.0150, 19713.06
656.4971, 19720.22
656.9792, 19731.12
657.4614, 19743.48
657.9435, 19758.86
658.4256, 19773.24
658.9077, 19785.30
659.3898, 19795.03
659.8719, 19803.66
660.3541, 19811.16
660.8362, 19817.55
661.3183, 19821.83
661.8004, 19824.94
662.2825, 19832.25
662.7646, 19844.47
663.2468, 19854.42
663.7289, 19850.49
664.2110, 19842.73
664.6931, 19846.22
665.1752, 19870.89
665.6573, 19889.91
666.1395, 19882.06
666.6216, 19866.01
667.1037, 19864.70
667.5858, 19897.28
668.0679, 19924.74
668.5500, 19941.25
669.0322, 19952.13
669.5143, 19970.61
669.9964, 19999.99
670.4785, 20019.95
670.9606, 20020.31
671.4427, 20009.65
671.9249, 20010.56
672.4070, 20022.34
672.8891, 20040.37
673.3712, 20069.56
673.8533, 20098.85
674.3354, 20113.15
674.8176, 20113.44
675.2997, 20112.77
675.7818, 20117.88
676.2639, 20124.02
676.7460, 20128.39
677.2281, 20130.44
677.7103, 20131.39
678.1924, 20127.57
678.6745, 20126.47
679.1566, 20134.67
679.6387, 20154.69
680.1208, 20171.87
680.6030, 20185.27
681.0851, 20196.34
681.5672, 20210.63
682.0493, 20225.14
682.5314, 20225.72
683.0135, 20203.46
683.4957, 20178.82
683.9778, 20173.83
684.4599, 20182.00
684.9420, 20191.29
685.4241, 20200.32
685.9063, 20206.48
686.3884, 20207.23
686.8705, 20204.30
687.3526, 20203.42
687.8347, 20205.99
688.3168, 20209.76
688.7990, 20215.50
689.2811, 20222.48
689.7632, 20222.66
690.2453, 20214.69
690.7274, 20210.16
691.2095, 20218.88
691.6917, 20235.96
692.1738, 20247.53
692.6559, 20253.25
693.1380, 20255.01
693.6201, 20248.89
694.1022, 20242.16
694.5844, 20242.60
695.0665, 20251.99
695.5486, 20261.32
696.0307, 20267.57
696.5128, 20272.09
696.9949, 20276.06
697.4771, 20279.63
697.9592, 20282.23
698.4413, 20282.82
698.9234, 20284.30
699.4055, 20293.20
699.8876, 20310.14
700.3698, 20317.21
700.8519, 20310.60
701.3340, 20296.32
701.8161, 20277.40
702.2982, 20257.63
702.7803, 20246.29
703.2625, 20251.00
703.7446, 20260.46
704.2267, 20267.30
704.7088, 20273.22
705.1909, 20281.97
705.6730, 20298.18
706.1552, 20312.39
706.6373, 20318.65
707.1194, 20320.04
707.6015, 20334.41
708.0836, 20367.92
708.5657, 20393.52
709.0479, 20395.27
709.5300, 20380.47
710.0121, 20383.33
710.4942, 20403.00
710.9763, 20421.79
711.4584, 20426.10
711.9406, 20423.71
712.4227, 20423.90
712.9048, 20427.26
713.3869, 20431.62
713.8690, 20441.13
714.3511, 20447.93
714.8333, 20445.43
715.3154, 20428.00
715.7975, 20420.18
716.2796, 20431.18
716.7617, 20441.56
717.2438, 20432.68
717.7260, 20401.91
718.2081, 20385.15
718.6902, 20386.21
719.1723, 20395.62
719.6544, 20402.16
720.1365, 20408.31
720.6187, 20421.79
721.1008, 20447.54
721.5829, 20470.60
722.0650, 20475.55
722.5471, 20472.16
723.0292, 20473.74
723.5114, 20487.86
723.9935, 20501.69
724.4756, 20508.98
724.9577, 20515.89
725.4398, 20535.64
725.9219, 20575.03
726.4041, 20604.11
726.8862, 20612.40
727.3683, 20610.63
727.8504, 20628.47
728.3325, 20662.23
728.8146, 20686.70
729.2968, 20683.95
729.7789, 20671.49
730.2610, 20665.12
730.7431, 20665.17
731.2252, 20672.84
731.7073, 20706.50
732.1895, 20730.66
732.6716, 20720.72
733.1537, 20679.97
733.6358, 20663.51
734.1179, 20685.16
734.6000, 20707.86
735.0822, 20715.69
735.5643, 20710.57
736.0464, 20709.77
736.5285, 20713.57
737.0106, 20718.47
737.4927, 20720.88
737.9749, 20723.29
738.4570, 20731.96
738.9391, 20746.82
739.4212, 20758.29
739.9033, 20754.31
740.3854, 20749.18
740.8676, 20755.89
741.3497, 20782.19
741.8318, 20793.13
742.3139, 20776.51
742.7960, 20755.61
743.2781, 20745.17
743.7603, 20745.85
744.2424, 20754.00
744.7245, 20771.26
745.2066, 20789.70
745.6887, 20803.29
746.1708, 20811.83
746.6530, 20812.12
747.1351, 20801.56
747.6172, 20794.59
748.0993, 20806.54
748.5814, 20826.05
749.0635, 20839.95
749.5457, 20838.00
750.0278, 20841.98
750.5099, 20852.96
750.9920, 20871.51
751.4741, 20902.00
751.9562, 20950.09
752.4384, 20980.78
752.9205, 20983.91
753.4026, 20977.55
753.8847, 20992.37
754.3668, 21022.98
754.8489, 21048.94
755.3311, 21063.34
755.8132, 21071.93
756.2953, 21078.18
756.7774, 21082.34
757.2595, 21084.74
757.7416, 21086.86
758.2238, 21086.11
758.7059, 21080.08
759.1880, 21071.88
759.6701, 21067.99
760.1522, 21070.48
760.6343, 21071.43
761.1165, 21067.35
761.5986, 21062.53
762.0807, 21068.57
762.5628, 21084.04
763.0449, 21099.95
763.5270, 21115.47
764.0092, 21126.50
764.4913, 21124.12
764.9734, 21113.29
765.4555, 21109.63
765.9376, 21125.68
766.4197, 21142.22
766.9019, 21151.18
767.3840, 21154.43
767.8661, 21162.38
768.3482, 21177.66
768.8303, 21189.13
769.3124, 21190.89
769.7946, 21185.77
770.2767, 21181.82
770.7588, 21179.44
771.2409, 21182.29
771.7230, 21196.66
772.2051, 21214.63
772.6873, 21229.35
773.1694, 21240.81
773.6515, 21250.00
774.1336, 21261.67
774.6157, 21267.08
775.0978, 21258.28
775.5800, 21236.36
776.0621, 21228.26
776.5442, 21236.37
777.0263, 21251.88
777.5084, 21271.29
777.9905, 21294.07
778.4727, 21319.57
778.9548, 21347.30
779.4369, 21370.36
779.9190, 21384.84
780.4011, 21391.18
780.8832, 21384.35
781.3654, 21364.53
781.8475, 21356.02
782.3296, 21381.15
782.8117, 21406.21
783.2938, 21412.55
783.7759, 21397.70
784.2581, 21395.03
784.7402, 21408.47
785.2223, 21422.87
785.7044, 21427.88
786.1865, 21425.62
786.6686, 21424.03
787.1508, 21423.52
787.6329, 21421.30
788.1150, 21408.96
788.5971, 21397.90
789.0792, 21399.90
789.5613, 21417.10
790.0435, 21437.38
790.5256, 21463.40
791.0077, 21486.14
791.4898, 21498.39
791.9719, 21496.34
792.4540, 21510.97
792.9362, 21546.77
793.4183, 21578.15
793.9004, 21576.53
794.3825, 21553.74
794.8646, 21544.51
795.3467, 21551.43
795.8289, 21559.37
796.3110, 21556.28
796.7931, 21550.53
797.2752, 21549.23
797.7573, 21554.32
798.2394, 21560.96
798.7216, 21571.98
799.2037, 21581.46
799.6858, 21584.05
800.1679, 21578.04
800.6500, 21582.77
801.1321, 21600.22
801.6143, 21617.05
802.0964, 21617.33
802.5785, 21609.37
803.0606, 21610.68
803.5427, 21623.75
804.0248, 21634.81
804.5070, 21625.38
804.9891, 21617.46
805.4712, 21630.63
805.9533, 21678.27
806.4354, 21709.27
806.9175, 21714.65
807.3997, 21715.69
807.8818, 21730.96
808.3639, 21759.70
808.8460, 21773.73
809.3281, 21771.43
809.8102, 21762.61
810.2924, 21751.75
810.7745, 21741.89
811.2566, 21735.52
811.7387, 21732.50
812.2208, 21740.12
812.7029, 21774.35
813.1851, 21810.99
813.6672, 21833.46
814.1493, 21839.79
814.6314, 21838.54
815.1135, 21824.83
815.5956, 21815.68
816.0778, 21827.74
816.5599, 21856.51
817.0420, 21882.48
817.5241, 21904.49
818.0062, 21923.30
818.4883, 21937.56
818.9705, 21950.01
819.4526, 21963.70
819.9347, 21979.23
820.4168, 21991.87
820.8989, 22001.91
821.3810, 22007.23
821.8632, 22006.01
822.3453, 21997.66
822.8274, 21989.72
823.3095, 21982.56
823.7916, 21976.71
824.2737, 21972.41
824.7559, 21970.34
825.2380, 21971.81
825.7201, 21977.05
826.2022, 21985.16
826.6843, 22003.33
827.1664, 22018.27
827.6486, 22015.79
828.1307, 21989.70
828.6128, 21987.68
829.0949, 22023.91
829.5770, 22059.31
830.0591, 22069.00
830.5413, 22055.97
831.0234, 22057.29
831.5055, 22072.62
831.9876, 22090.87
832.4697, 22111.73
832.9518, 22126.46
833.4340, 22117.83
833.9161, 22087.68
834.3982, 22072.82
834.8803, 22107.33
835.3624, 22138.94
835.8445, 22141.59
836.3267, 22117.06
836.8088, 22106.62
837.2909, 22112.43
837.7730, 22123.46
838.2551, 22133.98
838.7372, 22145.36
839.2194, 22163.63
839.7015, 22187.13
840.1836, 22205.85
840.6657, 22213.19
841.1478, 22214.64
841.6299, 22210.32
842.1121, 22201.42
842.5942, 22197.76
843.0763, 22199.09
843.5584, 22206.29
844.0405, 22220.57
844.5226, 22240.38
845.0048, 22263.62
845.4869, 22289.35
845.9690, 22305.64
846.4511, 22299.65
846.9332, 22286.80
847.4153, 22283.10
847.8975, 22286.44
848.3796, 22290.57
848.8617, 22295.97
849.3438, 22299.29
849.8259, 22296.56
850.3080, 22292.27
850.7902, 22298.81
851.2723, 22317.93
851.7544, 22338.72
852.2365, 22359.90
852.7186, 22378.43
853.2007, 22387.00
853.6829, 22388.28
854.1650, 22389.42
854.6471, 22390.43
855.1292, 22395.17
855.6113, 22406.42
856.0934, 22422.08
856.5756, 22438.89
857.0577, 22458.61
857.5398, 22474.44
858.0219, 22484.11
858.5040, 22492.12
858.9861, 22507.78
859.4683, 22528.95
859.9504, 22543.37
860.4325, 22546.55
860.9146, 22546.96
861.3967, 22549.99
861.8788, 22555.63
862.3610, 22564.47
862.8431, 22583.14
863.3252, 22593.04
863.8073, 22590.05
864.2894, 22581.30
864.7715, 22572.54
865.2537, 22563.83
865.7358, 22561.07
866.2179, 22566.00
866.7000, 22570.76
867.1821, 22566.78
867.6642, 22558.28
868.1464, 22548.05
868.6285, 22534.42
869.1106, 22535.62
869.5927, 22571.35
870.0748, 22614.13
870.5569, 22645.36
871.0391, 22662.75
871.5212, 22679.71
872.0033, 22695.13
872.4854, 22710.93
872.9675, 22729.29
873.4496, 22747.91
873.9318, 22761.76
874.4139, 22770.31
874.8960, 22774.05
875.3781, 22768.79
875.8602, 22762.54
876.3423, 22759.60
876.8245, 22760.77
877.3066, 22767.66
877.7887, 22786.96
878.2708, 22798.98
878.7529, 22793.99
879.2350, 22778.03
879.7172, 22768.43
880.1993, 22765.47
880.6814, 22766.78
881.1635, 22775.53
881.6456, 22784.38
882.1277, 22781.05
882.6099, 22772.65
883.0920, 22780.92
883.5741, 22825.48
884.0562, 22863.80
884.5383, 22887.78
885.0204, 22902.03
885.5026, 22915.54
885.9847, 22928.01
886.4668, 22942.58
886.9489, 22961.53
887.4310, 22978.87
887.9131, 22983.67
888.3953, 22983.96
888.8774, 22992.53
889.3595, 23028.73
889.8416, 23049.75
890.3237, 23040.55
890.8058, 23022.64
891.2880, 23019.32
891.7701, 23032.36
892.2522, 23039.04
892.7343, 23036.66
893.2164, 23033.00
893.6985, 23036.97
894.1807, 23044.31
894.6628, 23048.67
895.1449, 23048.55
895.6270, 23048.52
896.1091, 23051.63
896.5912, 23054.13
897.0734, 23054.41
897.5555, 23052.74
898.0376, 23045.29
898.5197, 23030.57
899.0018, 23021.73
899.4839, 23031.09
899.9661, 23051.90
900.4482, 23073.04
900.9303, 23094.28
901.4124, 23114.75
901.8945, 23139.62
902.3766, 23158.15
902.8588, 23159.64
903.3409, 23148.92
903.8230, 23148.50
904.3051, 23159.06
904.7872, 23176.45
905.2693, 23202.32
905.7515, 23230.05
906.2336, 23246.41
906.7157, 23253.48
907.1978, 23257.69
907.6799, 23258.71
908.1620, 23261.10
908.6442, 23266.42
909.1263, 23275.01
909.6084, 23288.66
910.0905, 23314.73
910.5726, 23324.57
911.0547, 23310.68
911.5369, 23293.03
912.0190, 23301.29
912.5011, 23327.14
912.9832, 23346.21
913.4653, 23353.46
913.9474, 23359.67
914.4296, 23370.26
914.9117, 23383.52
915.3938, 23399.20
915.8759, 23419.23
916.3580, 23429.61
916.8401, 23425.71
917.3223, 23422.61
917.8044, 23435.85
918.2865, 23458.35
918.7686, 23460.98
919.2507, 23445.71
919.7328, 23431.82
920.2150, 23434.82
920.6971, 23440.42
921.1792, 23438.59
921.6613, 23430.77
922.1434, 23428.74
922.6255, 23434.32
923.1077, 23442.94
923.5898, 23454.35
924.0719, 23466.89
924.5540, 23475.04
925.0361, 23480.44
925.5182, 23490.71
926.0004, 23514.04
926.4825, 23533.24
926.9646, 23532.32
927.4467, 23521.79
927.9288, 23517.84
928.4109, 23525.13
928.8931, 23531.36
929.3752, 23536.46
929.8573, 23539.35
930.3394, 23538.48
930.8215, 23534.67
931.3036, 23530.08
931.7858, 23525.19
932.2679, 23521.02
932.7500, 23513.14
933.2321, 23510.91
933.7142, 23528.19
934.1964, 23571.55
934.6785, 23582.39
935.1606, 23545.47
935.6427, 23514.28
936.1248, 23521.43
936.6069, 23554.63
937.0891, 23572.54
937.5712, 23577.64
938.0533, 23581.63
938.5354, 23583.75
939.0175, 23593.15
939.4996, 23621.00
939.9818, 23659.54
940.4639, 23686.39
940.9460, 23697.01
941.4281, 23703.64
941.9102, 23706.90
942.3923, 23708.93
942.8745, 23714.38
943.3566, 23721.58
943.8387, 23724.55
944.3208, 23719.72
944.8029, 23718.89
945.2850, 23733.26
945.7672, 23752.39
946.2493, 23766.86
946.7314, 23776.11
947.2135, 23783.83
947.6956, 23791.16
948.1777, 23794.04
948.6599, 23782.54
949.1420, 23765.94
949.6241, 23769.88
950.1062, 23792.49
950.5883, 23814.41
951.0704, 23823.13
951.5526, 23830.29
952.0347, 23843.52
952.5168, 23860.08
952.9989, 23868.73
953.4810, 23868.07
953.9631, 23865.33
954.4453, 23861.61
954.9274, 23858.62
955.4095, 23859.87
955.8916, 23864.10
956.3737, 23869.00
956.8558, 23876.86
957.3380, 23880.14
957.8201, 23868.33
958.3022, 23856.71
958.7843, 23860.77
959.2664, 23884.28
959.7485, 23904.98
960.2307, 23922.88
960.7128, 23933.18
961.1949, 23923.44
961.6770, 23907.54
962.1591, 23904.88
962.6412, 23916.38
963.1234, 23933.87
963.6055, 23953.04
964.0876, 23980.12
964.5697, 24024.29
965.0518, 24076.72
965.5339, 24096.12
966.0161, 24082.28
966.4982, 24067.86
966.9803, 24061.67
967.4624, 24066.01
967.9445, 24094.73
968.4266, 24132.96
968.9088, 24155.60
969.3909, 24149.62
969.8730, 24135.27
970.3551, 24106.86
970.8372, 24080.66
971.3193, 24075.62
971.8015, 24089.79
972.2836, 24102.59
972.7657, 24112.71
973.2478, 24120.99
973.7299, 24128.41
974.2120, 24134.48
974.6942, 24137.85
975.1763, 24138.54
975.6584, 24141.37
976.1405, 24143.28
976.6226, 24154.54
977.1047, 24182.09
977.5869, 24218.53
978.0690, 24242.73
978.5511, 24257.07
979.0332, 24272.23
979.5153, 24298.07
979.9974, 24317.30
980.4796, 24313.91
980.9617, 24301.10
981.4438, 24298.52
981.9259, 24312.49
982.4080, 24318.40
982.8901, 24314.28
983.3723, 24306.32
983.8544, 24296.78
984.3365, 24289.56
984.8186, 24294.20
985.3007, 24311.31
985.7828, 24327.48
986.2650, 24338.51
986.7471, 24345.53
987.2292, 24346.93
987.7113, 24344.66
988.1934, 24349.00
988.6755, 24359.76
989.1577, 24377.38
989.6398, 24405.39
990.1219, 24433.67
990.6040, 24448.87
991.0861, 24455.73
991.5682, 24462.50
992.0504, 24474.59
992.5325, 24480.84
993.0146, 24475.87
993.4967, 24471.23
993.9788, 24481.97
994.4609, 24505.23
994.9431, 24512.28
995.4252, 24501.86
995.9073, 24491.20
996.3894, 24494.09
996.8715, 24500.85
997.3536, 24502.92
997.8358, 24500.99
998.3179, 24507.23
998.8000, 24526.39
999.2821, 24541.62
999.7642, 24546.47
1000.246, 24547.26
1000.728, 24561.81
1001.211, 24582.39
1001.693, 24586.72
1002.175, 24558.07
1002.657, 24534.72
1003.139, 24532.95
1003.621, 24544.96
1004.103, 24566.35
1004.585, 24601.72
1005.068, 24614.59
1005.550, 24602.21
1006.032, 24592.91
1006.514, 24612.28
1006.996, 24643.90
1007.478, 24672.65
1007.960, 24696.08
1008.442, 24707.33
1008.924, 24688.21
1009.407, 24677.31
1009.889, 24682.78
1010.371, 24700.03
1010.853, 24728.00
1011.335, 24762.67
1011.817, 24770.61
1012.299, 24738.30
1012.781, 24706.49
1013.263, 24709.85
1013.746, 24726.82
1014.228, 24736.30
1014.710, 24734.71
1015.192, 24740.57
1015.674, 24756.56
1016.156, 24772.50
1016.638, 24781.27
1017.120, 24786.03
1017.603, 24790.60
1018.085, 24796.43
1018.567, 24809.11
1019.049, 24835.60
1019.531, 24862.57
1020.013, 24886.38
1020.495, 24906.93
1020.977, 24924.24
1021.459, 24937.89
1021.942, 24946.51
1022.424, 24949.10
1022.906, 24952.10
1023.388, 24970.10
1023.870, 24986.42
1024.352, 24980.02
1024.834, 24947.05
1025.316, 24927.81
1025.799, 24928.79
1026.281, 24937.29
1026.763, 24950.84
1027.245, 24967.29
1027.727, 24980.88
1028.209, 24992.68
1028.691, 25006.36
1029.173, 25031.05
1029.656, 25045.40
1030.138, 25021.81
1030.620, 24993.59
1031.102, 24998.77
1031.584, 25046.12
1032.066, 25073.34
1032.548, 25077.23
1033.030, 25077.08
1033.512, 25085.95
1033.995, 25101.25
1034.477, 25123.81
1034.959, 25151.21
1035.441, 25170.53
1035.923, 25172.59
1036.405, 25175.85
1036.887, 25185.81
1037.369, 25196.92
1037.851, 25197.50
1038.334, 25189.96
1038.816, 25182.84
1039.298, 25178.14
1039.780, 25174.53
1040.262, 25170.86
1040.744, 25168.52
1041.226, 25169.45
1041.708, 25174.12
1042.191, 25174.44
1042.673, 25169.45
1043.155, 25169.70
1043.637, 25187.99
1044.119, 25208.73
1044.601, 25201.71
1045.083, 25180.99
1045.565, 25178.97
1046.047, 25235.35
1046.530, 25264.61
1047.012, 25245.29
1047.494, 25218.08
1047.976, 25234.18
1048.458, 25283.46
1048.940, 25316.46
1049.422, 25329.67
1049.904, 25336.27
1050.386, 25347.76
1050.869, 25352.17
1051.351, 25328.30
1051.833, 25289.42
1052.315, 25295.80
1052.797, 25354.40
1053.279, 25404.87
1053.761, 25430.90
1054.243, 25444.27
1054.726, 25458.50
1055.208, 25470.50
1055.690, 25474.51
1056.172, 25464.77
1056.654, 25462.64
1057.136, 25472.86
1057.618, 25485.21
1058.100, 25495.37
1058.583, 25502.58
1059.065, 25500.99
1059.547, 25492.81
1060.029, 25488.20
1060.511, 25494.25
1060.993, 25503.05
1061.475, 25512.99
1061.957, 25523.12
1062.439, 25531.75
1062.922, 25538.52
1063.404, 25549.72
1063.886, 25566.88
1064.368, 25578.98
1064.850, 25568.79
1065.332, 25554.18
1065.814, 25554.00
1066.296, 25568.39
1066.778, 25582.12
1067.261, 25596.29
1067.743, 25601.91
1068.225, 25591.89
1068.707, 25579.70
1069.189, 25595.65
1069.671, 25628.27
1070.153, 25650.64
1070.635, 25654.21
1071.118, 25653.66
1071.600, 25657.87
1072.082, 25656.27
1072.564, 25639.85
1073.046, 25611.00
1073.528, 25593.75
1074.010, 25588.49
1074.492, 25594.29
1074.974, 25623.62
1075.457, 25649.88
1075.939, 25644.73
1076.421, 25626.16
1076.903, 25626.59
1077.385, 25658.72
1077.867, 25672.65
1078.349, 25662.60
1078.831, 25648.21
1079.313, 25641.79
1079.796, 25645.30
1080.278, 25671.50
1080.760, 25715.00
1081.242, 25737.92
1081.724, 25700.63
1082.206, 25678.44
1082.688, 25690.31
1083.170, 25720.21
1083.652, 25742.50
1084.135, 25757.96
1084.617, 25767.98
1085.099, 25772.87
1085.581, 25773.92
1086.063, 25773.88
1086.545, 25768.18
1087.027, 25747.79
1087.509, 25716.70
1087.992, 25719.59
1088.474, 25756.92
1088.956, 25791.78
1089.438, 25810.67
1089.920, 25818.24
1090.402, 25808.55
1090.884, 25795.20
1091.366, 25798.40
1091.849, 25830.19
1092.331, 25851.57
1092.813, 25859.22
1093.295, 25867.77
1093.777, 25892.96
1094.259, 25923.68
1094.741, 25939.01
1095.223, 25941.42
1095.705, 25940.89
1096.188, 25935.87
1096.670, 25934.32
1097.152, 25936.54
1097.634, 25942.93
1098.116, 25955.00
1098.598, 25971.85
1099.080, 25989.20
1099.562, 26006.73
1100.044, 26026.57
1100.527, 26064.77
1101.009, 26090.89
1101.491, 26082.57
1101.973, 26051.26
1102.455, 26029.01
1102.937, 26016.04
1103.419, 26012.07
1103.901, 26018.91
1104.384, 26028.58
1104.866, 26032.76
1105.348, 26036.35
1105.830, 26048.23
1106.312, 26072.05
1106.794, 26068.10
1107.276, 26025.82
1107.758, 25997.45
1108.240, 26011.65
1108.723, 26046.68
1109.205, 26074.46
1109.687, 26095.57
1110.169, 26110.91
1110.651, 26111.52
1111.133, 26124.83
1111.615, 26160.90
1112.097, 26194.39
1112.579, 26203.74
1113.062, 26194.69
1113.544, 26180.44
1114.026, 26164.74
1114.508, 26165.63
1114.990, 26215.01
1115.472, 26253.52
1115.954, 26257.04
1116.436, 26244.94
1116.919, 26241.02
1117.401, 26244.72
1117.883, 26244.63
1118.365, 26240.00
1118.847, 26237.01
1119.329, 26240.57
1119.811, 26247.09
1120.293, 26255.66
1120.776, 26265.17
1121.258, 26271.95
1121.740, 26275.53
1122.222, 26279.00
1122.704, 26283.04
1123.186, 26285.04
1123.668, 26279.13
1124.150, 26271.31
1124.632, 26269.32
1125.115, 26274.66
1125.597, 26270.13
1126.079, 26247.88
1126.561, 26243.85
1127.043, 26281.94
1127.525, 26329.91
1128.007, 26331.26
1128.489, 26306.20
1128.971, 26288.40
1129.454, 26287.27
1129.936, 26294.27
1130.418, 26316.78
1130.900, 26332.13
1131.382, 26323.26
1131.864, 26298.51
1132.346, 26275.92
1132.828, 26258.43
1133.311, 26255.94
1133.793, 26278.24
1134.275, 26308.86
1134.757, 26354.08
1135.239, 26393.73
1135.721, 26401.24
1136.203, 26381.76
1136.685, 26388.17
1137.167, 26419.06
1137.650, 26446.24
1138.132, 26445.50
1138.614, 26444.57
1139.096, 26466.34
1139.578, 26492.47
1140.060, 26487.23
1140.542, 26449.88
1141.024, 26439.68
1141.506, 26464.63
1141.989, 26491.32
1142.471, 26496.94
1142.953, 26491.66
1143.435, 26476.83
1143.917, 26457.55
1144.399, 26453.91
1144.881, 26467.86
1145.363, 26486.05
1145.846, 26506.42
1146.328, 26524.11
1146.810, 26529.18
1147.292, 26530.80
1147.774, 26540.12
1148.256, 26558.88
1148.738, 26570.44
1149.220, 26572.69
1149.703, 26573.43
1150.185, 26575.42
1150.667, 26576.85
1151.149, 26574.63
1151.631, 26570.20
1152.113, 26564.10
1152.595, 26552.33
1153.077, 26557.79
1153.559, 26591.08
1154.042, 26619.28
1154.524, 26621.84
1155.006, 26610.82
1155.488, 26615.72
1155.970, 26628.66
1156.452, 26629.90
1156.934, 26604.89
1157.416, 26582.79
1157.898, 26565.22
1158.381, 26555.02
1158.863, 26555.18
1159.345, 26564.53
1159.827, 26582.71
1160.309, 26606.32
1160.791, 26621.39
1161.273, 26604.50
1161.755, 26600.95
1162.238, 26631.65
1162.720, 26668.28
1163.202, 26674.70
1163.684, 26657.90
1164.166, 26670.51
1164.648, 26711.01
1165.130, 26743.43
1165.612, 26741.17
1166.094, 26733.17
1166.577, 26732.12
1167.059, 26732.94
1167.541, 26725.69
1168.023, 26711.67
1168.505, 26708.33
1168.987, 26717.78
1169.469, 26719.88
1169.951, 26676.58
1170.433, 26645.81
1170.916, 26679.99
1171.398, 26748.80
1171.880, 26775.58
1172.362, 26760.99
1172.844, 26747.51
1173.326, 26741.97
1173.808, 26745.25
1174.290, 26767.30
1174.773, 26790.32
1175.255, 26795.45
1175.737, 26787.57
1176.219, 26798.59
1176.701, 26830.35
1177.183, 26842.23
1177.665, 26818.06
1178.147, 26790.61
1178.630, 26794.87
1179.112, 26809.05
1179.594, 26807.48
1180.076, 26789.28
1180.558, 26801.98
1181.040, 26850.62
1181.522, 26882.32
1182.004, 26869.60
1182.486, 26847.69
1182.969, 26852.08
1183.451, 26870.41
1183.933, 26888.37
1184.415, 26903.75
1184.897, 26922.39
1185.379, 26946.12
1185.861, 26959.40
1186.343, 26947.11
1186.825, 26929.60
1187.308, 26931.65
1187.790, 26944.59
1188.272, 26956.41
1188.754, 26970.61
1189.236, 26962.53
1189.718, 26926.04
1190.200, 26900.37
1190.682, 26922.84
1191.165, 26961.04
1191.647, 26973.93
1192.129, 26970.75
1192.611, 26970.50
1193.093, 26984.94
1193.575, 26981.87
1194.057, 26956.79
1194.539, 26931.24
1195.021, 26918.79
1195.504, 26917.86
1195.986, 26932.23
1196.468, 26955.96
1196.950, 26971.62
1197.432, 26968.08
1197.914, 26974.90
1198.396, 26995.78
1198.878, 27019.10
1199.360, 27038.39
1199.843, 27050.31
1200.325, 27044.77
1200.807, 27026.71
1201.289, 27016.65
1201.771, 27023.63
1202.253, 27026.56
1202.735, 27021.36
1203.217, 27019.49
1203.700, 27036.93
1204.182, 27063.86
1204.664, 27086.98
1205.146, 27105.62
1205.628, 27123.88
1206.110, 27143.00
1206.592, 27157.81
1207.074, 27165.21
1207.557, 27172.70
1208.039, 27192.14
1208.521, 27215.82
1209.003, 27234.26
1209.485, 27246.18
1209.967, 27250.02
1210.449, 27242.46
1210.931, 27235.91
1211.413, 27233.57
1211.896, 27232.09
1212.378, 27222.56
1212.860, 27213.60
1213.342, 27223.68
1213.824, 27255.00
1214.306, 27266.28
1214.788, 27248.91
1215.270, 27226.81
1215.752, 27204.62
1216.235, 27185.61
1216.717, 27179.88
1217.199, 27177.73
1217.681, 27160.69
1218.163, 27124.40
1218.645, 27108.94
1219.127, 27123.68
1219.609, 27137.22
1220.092, 27138.44
1220.574, 27136.74
1221.056, 27146.43
1221.538, 27161.93
1222.020, 27176.54
1222.502, 27189.13
1222.984, 27192.61
1223.466, 27180.52
1223.948, 27179.91
1224.431, 27204.74
1224.913, 27236.59
1225.395, 27251.06
1225.877, 27254.18
1226.359, 27253.21
1226.841, 27247.73
1227.323, 27248.30
1227.805, 27257.76
1228.287, 27261.64
1228.770, 27252.57
1229.252, 27237.41
1229.734, 27220.04
1230.216, 27205.44
1230.698, 27202.46
1231.180, 27216.07
1231.662, 27220.99
1232.144, 27215.97
1232.627, 27211.15
1233.109, 27214.03
1233.591, 27215.10
1234.073, 27193.87
1234.555, 27168.76
1235.037, 27170.59
1235.519, 27211.51
1236.001, 27212.58
1236.484, 27167.82
1236.966, 27141.57
1237.448, 27180.58
1237.930, 27230.12
1238.412, 27227.33
1238.894, 27204.81
1239.376, 27209.58
1239.858, 27248.38
1240.340, 27270.37
1240.823, 27274.00
1241.305, 27275.32
1241.787, 27279.12
1242.269, 27287.76
1242.751, 27307.47
1243.233, 27330.02
1243.715, 27344.91
1244.197, 27351.25
1244.679, 27358.40
1245.162, 27366.31
1245.644, 27364.78
1246.126, 27337.39
1246.608, 27314.29
1247.090, 27326.46
1247.572, 27347.70
1248.054, 27345.04
1248.536, 27317.54
1249.019, 27313.77
1249.501, 27332.08
1249.983, 27350.27
1250.465, 27353.63
1250.947, 27356.96
1251.429, 27368.26
1251.911, 27382.45
1252.393, 27395.71
1252.875, 27407.34
1253.358, 27412.19
1253.840, 27410.38
1254.322, 27406.22
1254.804, 27402.86
1255.286, 27394.76
1255.768, 27370.21
1256.250, 27349.71
1256.732, 27351.69
1257.214, 27373.80
1257.697, 27407.87
1258.179, 27450.11
1258.661, 27481.43
1259.143, 27491.42
1259.625, 27492.43
1260.107, 27479.83
1260.589, 27472.33
1261.071, 27494.89
1261.554, 27533.30
1262.036, 27536.04
1262.518, 27513.25
1263.000, 27501.03
1263.482, 27524.84
1263.964, 27539.90
1264.446, 27539.20
1264.928, 27535.12
1265.411, 27540.34
1265.893, 27547.85
1266.375, 27540.88
1266.857, 27525.23
1267.339, 27516.76
1267.821, 27521.62
1268.303, 27534.35
1268.785, 27558.99
1269.267, 27578.44
1269.750, 27572.32
1270.232, 27558.81
1270.714, 27567.79
1271.196, 27586.81
1271.678, 27582.27
1272.160, 27532.21
1272.642, 27525.26
1273.124, 27567.81
1273.606, 27612.85
1274.089, 27615.79
1274.571, 27615.41
1275.053, 27665.42
1275.535, 27727.39
1276.017, 27730.24
1276.499, 27659.63
1276.981, 27621.06
1277.463, 27616.52
1277.946, 27621.87
1278.428, 27633.96
1278.910, 27638.11
1279.392, 27614.92
1279.874, 27586.37
1280.356, 27579.14
1280.838, 27593.02
1281.320, 27605.12
1281.802, 27614.70
1282.285, 27618.47
1282.767, 27605.87
1283.249, 27598.38
1283.731, 27605.02
1284.213, 27617.84
1284.695, 27632.47
1285.177, 27647.31
1285.659, 27652.13
1286.141, 27650.07
1286.624, 27654.78
1287.106, 27677.65
1287.588, 27699.82
1288.070, 27720.35
1288.552, 27736.05
1289.034, 27745.87
1289.516, 27748.01
1289.998, 27725.90
1290.481, 27693.81
1290.963, 27688.62
1291.445, 27763.17
1291.927, 27782.39
1292.409, 27731.39
1292.891, 27682.03
1293.373, 27693.40
1293.855, 27729.74
1294.338, 27752.51
1294.820, 27764.57
1295.302, 27770.17
1295.784, 27769.36
1296.266, 27764.82
1296.748, 27756.12
1297.230, 27749.96
1297.712, 27745.47
1298.194, 27750.38
1298.677, 27781.81
1299.159, 27817.83
1299.641, 27830.54
1300.123, 27819.10
1300.605, 27800.08
1301.087, 27773.93
1301.569, 27746.13
1302.051, 27716.36
1302.533, 27684.25
1303.016, 27648.89
##END=



