##NAMES=Neyite
##RRUFFID=R100116
##IDEAL CHEMISTRY=Ag^1+^_2_Cu^1+^_6_Pb^2+^_25_Bi^3+^_26_S^2-^_68_
##LOCALITY=Southwest end of pit, British Columbia Molybdenum mine, Kitsault, British Columbia, Canada
##OWNER=RRUFF
##SOURCE=Robert Woodside
##DESCRIPTION=Unconsolidated lead-gray elongated crystals with stepped surfaces
##STATUS=The identification of this mineral has been confirmed only by single crystal X-ray diffraction.
##URL=rruff.info/R100116
145.7269, 0.0000000E+00
146.2090, 0.2448750
146.6911, 1.062197
147.1732, 1.609062
147.6553, 1.704994
148.1375, 1.598160
148.6196, 1.528805
149.1017, 1.489471
149.5838, 1.450188
150.0659, 1.439627
150.5480, 1.442289
151.0302, 1.294548
151.5123, 0.8409350
151.9944, 0.4539640
152.4765, 0.3997780
152.9586, 0.6330390
153.4408, 0.9230000
153.9229, 1.154953
154.4050, 1.317499
154.8871, 1.597092
155.3692, 1.351945
155.8513, 1.071934
156.3335, 0.8963770
156.8156, 0.8355310
157.2977, 0.8288150
157.7798, 0.9544360
158.2619, 1.129909
158.7440, 1.154702
159.2262, 1.893307
159.7083, 2.625780
160.1904, 2.826660
160.6725, 2.395412
161.1546, 1.687140
161.6367, 1.547959
162.1189, 2.083303
162.6010, 2.165393
163.0831, 1.222682
163.5652, 0.1278500
164.0473, 0.2102760
164.5294, 0.5363360
165.0115, 1.870975
165.4937, 2.589769
165.9758, 2.281086
166.4579, 1.929630
166.9400, 1.588329
167.4221, 1.271313
167.9042, 1.026436
168.3864, 0.8896240
168.8685, 0.7894880
169.3506, 0.4657330
169.8327, 0.4399560
170.3148, 0.9260380
170.7969, 0.2029330
171.2791, 1.373746
171.7612, 2.526383
172.2433, 2.576247
172.7254, 1.921936
173.2075, 1.474534
173.6896, 1.238729
174.1718, 1.196931
174.6539, 1.550025
175.1360, 2.297750
175.6181, 2.619385
176.1002, 1.679141
176.5823, 0.3500690
177.0645, 0.4019620
177.5466, 0.3074870
178.0287, 0.1562640
178.5108, 0.3982900
178.9929, 0.3899210
179.4750, 0.3909250
179.9572, 0.6805600
180.4393, 1.050205
180.9214, 1.324701
181.4035, 1.440056
181.8856, 1.439192
182.3677, 1.411849
182.8499, 1.359586
183.3320, 1.270224
183.8141, 1.066181
184.2962, 0.8704830
184.7783, 0.7845170
185.2604, 0.8850220
185.7425, 1.129144
186.2247, 1.368451
186.7068, 1.660847
187.1889, 1.866536
187.6710, 2.012937
188.1531, 2.055317
188.6352, 1.889201
189.1174, 1.441854
189.5995, 0.7998920
190.0816, 0.4585550
190.5637, 0.5612550
191.0458, 0.8017030
191.5279, 1.275007
192.0101, 1.839183
192.4922, 2.275290
192.9743, 2.453543
193.4564, 2.389792
193.9385, 2.184027
194.4206, 1.745120
194.9028, 1.299809
195.3849, 0.8495130
195.8670, 0.4390880
196.3491, 0.1840640
196.8312, 0.1556950
197.3133, 0.3541390
197.7955, 0.6880860
198.2776, 1.424699
198.7597, 2.043941
199.2418, 2.215705
199.7239, 1.985330
200.2060, 1.644244
200.6882, 1.281708
201.1703, 0.9605780
201.6524, 0.8296620
202.1345, 1.032608
202.6166, 1.286300
203.0987, 1.274261
203.5809, 0.9909280
204.0630, 0.8822360
204.5451, 1.492923
205.0272, 2.321949
205.5093, 2.607589
205.9914, 2.000981
206.4735, 1.078685
206.9557, 0.5498760
207.4378, 0.4823270
207.9199, 0.4949860
208.4020, 0.3644910
208.8841, 0.2439580
209.3662, 0.3522320
209.8484, 0.8534510
210.3305, 1.418746
210.8126, 1.355868
211.2947, 0.2804100
211.7768, 0.4156880
212.2589, 2.6080001E-03
212.7411, 0.8329440
213.2232, 1.468554
213.7053, 1.652792
214.1874, 1.519997
214.6695, 1.322579
215.1516, 0.8900970
215.6338, 0.7276160
216.1159, 1.204244
216.5980, 1.832471
217.0801, 2.047965
217.5622, 1.583552
218.0443, 0.7706660
218.5265, 0.5753330
219.0086, 1.672048
219.4907, 2.430544
219.9728, 2.632732
220.4549, 2.448602
220.9370, 1.937273
221.4192, 1.114311
221.9013, 0.1927790
222.3834, 0.1156440
222.8655, 0.8729500
223.3476, 1.640421
223.8297, 2.135907
224.3119, 2.356108
224.7940, 2.185681
225.2761, 1.568010
225.7582, 0.7588660
226.2403, 0.5062360
226.7224, 1.537974
227.2045, 2.270164
227.6867, 2.352799
228.1688, 2.101305
228.6509, 1.985952
229.1330, 2.154771
229.6151, 2.469548
230.0972, 2.636024
230.5794, 2.636647
231.0615, 2.534182
231.5436, 2.133450
232.0257, 1.678522
232.5078, 1.614273
232.9899, 2.173660
233.4721, 3.018258
233.9542, 3.306171
234.4363, 2.810618
234.9184, 2.304870
235.4005, 1.983529
235.8826, 1.838199
236.3648, 1.831747
236.8469, 1.990757
237.3290, 2.207315
237.8111, 2.238621
238.2932, 2.066380
238.7753, 1.918486
239.2575, 1.939686
239.7396, 2.034074
240.2217, 1.927516
240.7038, 1.427631
241.1859, 0.9616220
241.6680, 1.286501
242.1502, 2.407379
242.6323, 3.184502
243.1144, 2.896499
243.5965, 1.909866
244.0786, 1.084022
244.5607, 0.5517870
245.0428, 0.3494830
245.5250, 0.6081500
246.0071, 1.264912
246.4892, 1.887905
246.9713, 2.294535
247.4534, 2.504995
247.9355, 2.569545
248.4177, 2.456446
248.8998, 2.252536
249.3819, 1.922273
249.8640, 1.536730
250.3461, 1.378918
250.8282, 1.655581
251.3104, 2.262782
251.7925, 2.719435
252.2746, 3.058555
252.7567, 3.128038
253.2388, 2.683452
253.7209, 1.932943
254.2031, 1.348904
254.6852, 1.278070
255.1673, 1.591133
255.6494, 1.766122
256.1315, 1.707717
256.6136, 1.677147
257.0958, 1.842905
257.5779, 2.069511
258.0600, 2.154932
258.5421, 1.923715
259.0242, 1.509457
259.5063, 1.411214
259.9885, 1.883139
260.4706, 2.256948
260.9527, 2.228934
261.4348, 2.013661
261.9169, 1.917917
262.3990, 2.124390
262.8812, 2.483349
263.3633, 2.534650
263.8454, 2.051798
264.3275, 1.635477
264.8096, 1.429170
265.2917, 1.351349
265.7739, 1.316213
266.2560, 1.285111
266.7381, 1.283429
267.2202, 1.403615
267.7023, 1.837185
268.1844, 2.031187
268.6666, 1.783275
269.1487, 1.374260
269.6308, 0.9938880
270.1129, 0.7633530
270.5950, 0.6445740
271.0771, 0.5719450
271.5593, 0.4670890
272.0414, 0.5866160
272.5235, 1.194536
273.0056, 1.836823
273.4877, 2.132185
273.9698, 2.005005
274.4520, 1.688048
274.9341, 1.527904
275.4162, 1.588635
275.8983, 1.683437
276.3804, 1.867032
276.8625, 2.038428
277.3446, 2.155103
277.8268, 2.199784
278.3089, 2.148361
278.7910, 1.936438
279.2731, 1.433982
279.7552, 1.247437
280.2373, 1.719464
280.7195, 2.165325
281.2016, 2.174977
281.6837, 1.772714
282.1658, 1.233883
282.6479, 0.7955440
283.1300, 0.4361390
283.6122, 0.3451560
284.0943, 0.6862870
284.5764, 1.092505
285.0585, 1.549615
285.5406, 1.986294
286.0227, 2.171393
286.5049, 1.920238
286.9870, 1.257141
287.4691, 0.7684100
287.9512, 0.5309340
288.4333, 0.3686200
288.9154, 0.3038020
289.3976, 0.2765570
289.8797, 0.1490280
290.3618, 0.1857510
290.8439, 0.6397620
291.3260, 0.7068340
291.8081, 0.1493720
292.2903, 0.7665330
292.7724, 0.8368390
293.2545, 0.5837350
293.7366, 0.2676140
294.2187, 2.2420001E-03
294.7008, 0.1563160
295.1830, 4.6609999E-03
295.6651, 0.9622450
296.1472, 1.616861
296.6293, 1.745635
297.1114, 1.618028
297.5935, 1.533435
298.0757, 1.586517
298.5578, 1.638889
299.0399, 1.447888
299.5220, 0.7889580
300.0041, 0.3014530
300.4862, 9.0836003E-02
300.9684, 0.2716500
301.4505, 2.2775000E-02
301.9326, 0.7747980
302.4147, 1.495097
302.8968, 1.558714
303.3789, 0.6769620
303.8611, 0.2683160
304.3432, 0.6261050
304.8253, 1.168812
305.3074, 1.705629
305.7895, 2.134915
306.2716, 2.186955
306.7538, 1.513314
307.2359, 3.4155000E-02
307.7180, 0.4658610
308.2001, 0.9723320
308.6822, 2.257518
309.1643, 2.321041
309.6465, 1.462225
310.1286, 0.5542650
310.6107, 0.1365020
311.0928, 0.1594180
311.5749, 0.3135420
312.0570, 0.9353880
312.5392, 1.284797
313.0213, 0.9527420
313.5034, 0.2737300
313.9855, 0.2304150
314.4676, 0.3229970
314.9497, 9.7161002E-02
315.4319, 0.2254400
315.9140, 0.7920150
316.3961, 1.243551
316.8782, 1.616421
317.3603, 1.832435
317.8424, 1.741056
318.3245, 1.308192
318.8066, 0.7421560
319.2888, 0.3441740
319.7709, 0.1618630
320.2530, 7.9565004E-02
320.7351, 8.0784999E-02
321.2172, 0.1883200
321.6993, 0.5220940
322.1815, 1.043566
322.6636, 1.463953
323.1457, 1.442643
323.6278, 0.8660240
324.1099, 0.7266520
324.5920, 1.627786
325.0742, 2.340975
325.5563, 2.004483
326.0384, 0.8970180
326.5205, 2.9220000E-02
327.0026, 7.9655997E-02
327.4847, 0.6546340
327.9669, 1.139669
328.4490, 1.229280
328.9311, 1.275898
329.4132, 1.366999
329.8953, 1.473265
330.3774, 1.561258
330.8596, 1.620119
331.3417, 1.610967
331.8238, 1.424211
332.3059, 0.6027660
332.7880, 0.1794480
333.2701, 0.5101530
333.7523, 1.093439
334.2344, 1.473629
334.7165, 1.509924
335.1986, 1.298838
335.6807, 0.9478340
336.1628, 0.2878180
336.6450, 3.9903000E-02
337.1271, 4.8220001E-02
337.6092, 0.3341450
338.0913, 0.7816990
338.5734, 1.324058
339.0555, 1.788830
339.5377, 2.010728
340.0198, 1.973001
340.5019, 1.900747
340.9840, 1.938189
341.4661, 1.800897
341.9482, 1.138447
342.4304, 0.2318330
342.9125, 0.3261700
343.3946, 0.1451260
343.8767, 0.6104530
344.3588, 1.139378
344.8409, 1.327097
345.3231, 1.390996
345.8052, 1.303151
346.2873, 1.142801
346.7694, 0.8902270
347.2515, 0.5366200
347.7336, 0.2087940
348.2158, 0.1110660
348.6979, 0.4334720
349.1800, 0.6271050
349.6621, 0.6012320
350.1442, 0.5734010
350.6263, 0.7811980
351.1085, 1.208963
351.5906, 1.608456
352.0727, 1.685536
352.5548, 1.364099
353.0369, 1.189954
353.5190, 1.336761
354.0012, 1.442637
354.4833, 1.362169
354.9654, 1.142521
355.4475, 0.8964630
355.9296, 0.6957520
356.4117, 0.5373550
356.8939, 0.3886890
357.3760, 0.1043800
357.8581, 4.7662999E-02
358.3402, 0.5465770
358.8223, 1.196815
359.3044, 1.435026
359.7865, 1.060489
360.2686, 0.4526030
360.7508, 0.3353670
361.2329, 0.9846940
361.7150, 1.402611
362.1971, 1.392677
362.6792, 1.214106
363.1613, 0.9302380
363.6435, 0.5940110
364.1256, 0.3526380
364.6077, 0.4216030
365.0898, 0.8318080
365.5719, 0.9991040
366.0540, 0.7598940
366.5362, 0.5486880
367.0183, 0.5683820
367.5004, 0.7549460
367.9825, 0.9637990
368.4646, 1.112238
368.9467, 1.222611
369.4289, 1.365300
369.9110, 1.576366
370.3931, 1.738275
370.8752, 1.761014
371.3573, 1.782371
371.8394, 1.894053
372.3216, 2.114226
372.8037, 2.295496
373.2858, 2.076519
373.7679, 1.403592
374.2500, 1.030880
374.7321, 1.389522
375.2143, 1.862682
375.6964, 1.985013
376.1785, 1.769782
376.6606, 1.501467
377.1427, 1.351211
377.6248, 1.294738
378.1070, 1.245196
378.5891, 1.209069
379.0712, 1.156159
379.5533, 0.9806020
380.0354, 0.7782300
380.5175, 0.7652240
380.9997, 1.180541
381.4818, 1.656631
381.9639, 1.662939
382.4460, 1.188198
382.9281, 0.8041150
383.4102, 0.7896330
383.8924, 0.9987440
384.3745, 1.202437
384.8566, 1.438822
385.3387, 1.546242
385.8208, 1.258442
386.3029, 0.7484350
386.7851, 0.5127570
387.2672, 0.7231030
387.7493, 1.075039
388.2314, 1.210000
388.7135, 1.150406
389.1956, 1.120578
389.6778, 1.281529
390.1599, 1.420107
390.6420, 1.220061
391.1241, 0.6987960
391.6062, 0.3258100
392.0883, 0.5081280
392.5705, 1.095224
393.0526, 1.263332
393.5347, 0.5031400
394.0168, 8.6970001E-02
394.4989, 5.4708999E-02
394.9810, 0.6635750
395.4632, 1.229731
395.9453, 1.576992
396.4274, 1.755518
396.9095, 1.850294
397.3916, 1.830604
397.8737, 1.792714
398.3559, 1.766086
398.8380, 1.705214
399.3201, 1.524639
399.8022, 1.243887
400.2843, 1.014724
400.7664, 0.9696200
401.2485, 1.153798
401.7307, 1.213317
402.2128, 1.137537
402.6949, 0.9437330
403.1770, 0.3070690
403.6591, 0.3780770
404.1412, 0.3500650
404.6234, 0.7697400
405.1055, 2.415930
405.5876, 3.182639
406.0697, 2.361096
406.5518, 1.822026
407.0339, 1.819322
407.5161, 1.945415
407.9982, 1.881980
408.4803, 1.613522
408.9624, 1.363253
409.4445, 1.369907
409.9266, 1.652987
410.4088, 1.886510
410.8909, 2.066655
411.3730, 2.193986
411.8551, 2.335870
412.3372, 2.429606
412.8193, 2.352497
413.3015, 2.109701
413.7836, 1.763757
414.2657, 1.454337
414.7478, 1.208486
415.2299, 0.9100640
415.7120, 0.1444250
416.1942, 0.4145940
416.6763, 3.1796001E-02
417.1584, 1.298025
417.6405, 2.475947
418.1226, 2.346001
418.6047, 1.135085
419.0869, 0.4466540
419.5690, 0.6095910
420.0511, 0.9064720
420.5332, 0.8897190
421.0153, 0.6655350
421.4974, 0.4226760
421.9796, 0.1628380
422.4617, 2.0838000E-02
422.9438, 1.3504000E-02
423.4259, 0.2628280
423.9080, 0.5483310
424.3901, 0.8195360
424.8723, 1.071510
425.3544, 1.317285
425.8365, 1.572390
426.3186, 1.743846
426.8007, 1.890769
427.2828, 1.900202
427.7650, 1.430493
428.2471, 0.3785280
428.7292, 0.5656820
429.2113, 0.7053480
429.6934, 2.4474001E-02
430.1755, 0.4339620
430.6577, 0.5665740
431.1398, 0.5705230
431.6219, 0.4413500
432.1040, 0.2661390
432.5861, 0.2937440
433.0682, 0.6701510
433.5504, 1.201229
434.0325, 1.418847
434.5146, 1.046603
434.9967, 0.8089180
435.4788, 0.7846000
435.9609, 0.8663010
436.4431, 0.9926070
436.9252, 1.141511
437.4073, 1.287388
437.8894, 1.401255
438.3715, 1.483853
438.8536, 1.621902
439.3358, 1.859690
439.8179, 2.087485
440.3000, 2.451118
440.7821, 2.733797
441.2642, 2.560080
441.7463, 1.776044
442.2284, 0.7568690
442.7105, 0.1788130
443.1927, 0.1133110
443.6748, 0.2699270
444.1569, 1.011992
444.6390, 1.644910
445.1211, 1.649827
445.6032, 1.166448
446.0854, 0.8030010
446.5675, 1.100200
447.0496, 1.848075
447.5317, 2.236027
448.0138, 2.193795
448.4959, 1.962479
448.9781, 1.473455
449.4602, 0.9245250
449.9423, 0.5061940
450.4244, 0.2419510
450.9065, 0.1819700
451.3886, 0.5313370
451.8708, 1.170004
452.3529, 1.498522
452.8350, 1.273376
453.3171, 0.9443760
453.7992, 1.062408
454.2813, 1.514629
454.7635, 1.760798
455.2456, 1.513677
455.7277, 1.128446
456.2098, 0.8586970
456.6919, 0.7214800
457.1740, 0.7843550
457.6562, 1.152492
458.1383, 1.661555
458.6204, 1.801186
459.1025, 1.315067
459.5846, 1.065370
460.0667, 1.433881
460.5489, 1.981164
461.0310, 2.254473
461.5131, 2.167712
461.9952, 1.953736
462.4773, 1.813804
462.9594, 1.723478
463.4416, 1.689435
463.9237, 1.619434
464.4058, 1.705563
464.8879, 2.292597
465.3700, 2.967871
465.8521, 3.034924
466.3343, 2.247229
466.8164, 1.223989
467.2985, 1.188014
467.7806, 2.795666
468.2627, 3.332271
468.7448, 1.282264
469.2270, 0.5751600
469.7091, 0.7355900
470.1912, 0.3824580
470.6733, 1.429967
471.1554, 1.548490
471.6375, 1.074597
472.1197, 0.8645860
472.6018, 0.9794110
473.0839, 1.133112
473.5660, 1.284262
474.0481, 1.361774
474.5302, 1.346124
475.0124, 1.207416
475.4945, 1.101977
475.9766, 1.247517
476.4587, 1.490589
476.9408, 1.364168
477.4229, 0.7437150
477.9051, 0.1665750
478.3872, 1.5908999E-02
478.8693, 0.1830220
479.3514, 0.6156510
479.8335, 1.640903
480.3156, 2.487381
480.7978, 2.721645
481.2799, 2.506285
481.7620, 2.084370
482.2441, 1.523367
482.7262, 1.011930
483.2083, 0.8375090
483.6904, 1.140442
484.1725, 1.283319
484.6547, 1.144050
485.1368, 0.9698840
485.6189, 0.8235260
486.1010, 0.7510650
486.5831, 0.8228600
487.0652, 1.146788
487.5474, 1.640755
488.0295, 1.872725
488.5116, 1.711513
488.9937, 1.508421
489.4758, 1.106670
489.9579, 0.8191110
490.4401, 0.9956450
490.9222, 1.545336
491.4043, 1.987276
491.8864, 1.890522
492.3685, 1.369672
492.8506, 0.9737820
493.3328, 0.7326120
493.8149, 0.5472900
494.2970, 0.4074700
494.7791, 0.2904220
495.2612, 0.1421840
495.7433, 6.5053001E-02
496.2255, 0.1557280
496.7076, 0.1071820
497.1897, 0.5964620
497.6718, 0.8992890
498.1539, 0.9194610
498.6360, 0.9079320
499.1182, 1.116651
499.6003, 1.482758
500.0824, 1.668816
500.5645, 1.479697
501.0466, 1.285526
501.5287, 1.305693
502.0109, 1.455869
502.4930, 1.582109
502.9751, 1.635159
503.4572, 1.584714
503.9393, 1.359239
504.4214, 0.8421160
504.9036, 0.5817450
505.3857, 0.8565380
505.8678, 1.085056
506.3499, 0.9054580
506.8320, 0.4751230
507.3141, 0.1159170
507.7963, 9.5699998E-03
508.2784, 9.0957999E-02
508.7605, 0.4787520
509.2426, 1.409414
509.7247, 1.944268
510.2068, 1.676463
510.6890, 1.260513
511.1711, 0.9157670
511.6532, 0.7167510
512.1353, 0.8048480
512.6174, 1.528471
513.0995, 2.452066
513.5817, 2.546622
514.0638, 1.720250
514.5459, 0.8876370
515.0280, 0.2587720
515.5101, 8.8547997E-02
515.9922, 4.7459998E-03
516.4744, 0.5835760
516.9565, 1.078430
517.4386, 1.225910
517.9207, 1.194128
518.4028, 1.217345
518.8849, 1.314296
519.3671, 1.381135
519.8492, 1.331910
520.3313, 1.202426
520.8134, 1.176589
521.2955, 1.455188
521.7776, 1.555542
522.2598, 1.166574
522.7419, 0.6954930
523.2240, 0.6188380
523.7061, 0.9696100
524.1882, 1.368432
524.6703, 1.428227
525.1525, 1.163633
525.6346, 1.129242
526.1167, 1.744048
526.5988, 2.034870
527.0809, 1.387603
527.5630, 0.5199360
528.0452, 0.3583670
528.5273, 1.070345
529.0094, 1.921597
529.4915, 2.125493
529.9736, 1.748351
530.4557, 1.417266
530.9379, 1.188131
531.4200, 0.9574130
531.9021, 0.5715120
532.3842, 0.1602420
532.8663, 3.8109999E-02
533.3484, 0.1180150
533.8306, 0.2939450
534.3127, 0.2144540
534.7948, 1.1468000E-02
535.2769, 0.1198990
535.7590, 4.7042999E-02
536.2411, 9.6910998E-02
536.7233, 0.2267230
537.2054, 0.3411750
537.6875, 0.3570280
538.1696, 6.5067001E-02
538.6517, 8.3673999E-02
539.1339, 0.1963650
539.6160, 0.6847270
540.0981, 1.043418
540.5802, 1.165207
541.0623, 1.203514
541.5444, 1.396525
542.0266, 1.811697
542.5087, 1.995844
542.9908, 1.625018
543.4728, 1.370466
543.9550, 1.525038
544.4371, 1.906696
544.9192, 2.264763
545.4013, 2.523277
545.8834, 2.631024
546.3655, 2.463439
546.8477, 2.039973
547.3298, 1.622314
547.8119, 1.150784
548.2940, 0.8803500
548.7761, 1.234045
549.2582, 1.984867
549.7404, 2.496501
550.2225, 2.582671
550.7046, 2.470064
551.1867, 2.132066
551.6688, 1.718876
552.1509, 1.655962
552.6331, 2.086851
553.1152, 2.586200
553.5973, 2.598405
554.0794, 2.007089
554.5615, 1.625067
555.0436, 1.648012
555.5258, 1.619285
556.0079, 1.265477
556.4900, 0.7890220
556.9721, 0.5095210
557.4542, 0.5393220
557.9363, 0.7254530
558.4185, 0.8810270
558.9006, 1.012731
559.3827, 1.045030
559.8648, 0.8882890
560.3469, 0.7451410
560.8290, 0.7611620
561.3112, 0.8406410
561.7933, 0.7925730
562.2754, 0.4994040
562.7575, 0.2714860
563.2396, 0.3694620
563.7217, 0.6994530
564.2039, 1.020372
564.6860, 1.286370
565.1681, 1.514700
565.6502, 1.733597
566.1323, 1.934851
566.6144, 2.034962
567.0966, 2.030005
567.5787, 1.930061
568.0608, 1.765961
568.5429, 1.499115
569.0250, 0.9372930
569.5071, 8.9341000E-02
569.9893, 0.5955310
570.4714, 0.5239590
570.9535, 0.3654820
571.4356, 0.9094400
571.9177, 0.9611040
572.3998, 0.8274400
572.8820, 0.3172750
573.3641, 0.2050290
573.8462, 0.2713150
574.3283, 0.2206620
574.8104, 0.8672570
575.2925, 1.408218
575.7747, 1.803821
576.2568, 1.773079
576.7389, 1.158189
577.2210, 0.6798510
577.7031, 0.8910400
578.1852, 1.516461
578.6674, 1.878713
579.1495, 1.903349
579.6316, 1.802927
580.1137, 1.519729
580.5958, 1.228001
581.0779, 1.210680
581.5601, 1.459058
582.0422, 1.669544
582.5243, 1.618810
583.0064, 1.326428
583.4885, 0.8927290
583.9706, 4.7781002E-02
584.4528, 0.5861670
584.9349, 0.3692070
585.4170, 3.3927999E-02
585.8991, 0.2065760
586.3812, 0.1298080
586.8633, 5.2410001E-03
587.3455, 5.1724002E-02
587.8276, 3.3473998E-02
588.3097, 6.6168003E-02
588.7918, 0.2353380
589.2739, 0.6031660
589.7560, 1.514410
590.2382, 2.346722
590.7203, 2.229276
591.2024, 1.186191
591.6845, 0.4060020
592.1666, 0.4140400
592.6487, 0.7097140
593.1309, 0.8869440
593.6130, 0.9690840
594.0951, 1.092882
594.5772, 1.324693
595.0593, 1.560444
595.5414, 1.601076
596.0236, 1.320891
596.5057, 1.214767
596.9878, 1.365758
597.4699, 1.590368
597.9520, 1.991027
598.4341, 2.368517
598.9163, 2.339902
599.3984, 1.731965
599.8805, 0.9952290
600.3626, 0.7797140
600.8447, 1.068276
601.3268, 1.232782
601.8090, 1.141970
602.2911, 1.061779
602.7732, 1.306129
603.2553, 1.673427
603.7374, 1.703887
604.2195, 1.106597
604.7017, 0.6092530
605.1838, 0.7344090
605.6659, 1.136140
606.1480, 1.250113
606.6301, 1.003448
607.1122, 0.7256730
607.5944, 0.6959600
608.0765, 0.8741650
608.5586, 0.9541840
609.0407, 0.8349920
609.5228, 0.7531100
610.0049, 0.7456180
610.4871, 0.7684510
610.9692, 0.7477910
611.4513, 0.7110080
611.9334, 0.8061340
612.4155, 1.240198
612.8976, 1.781028
613.3798, 1.778439
613.8619, 1.158417
614.3440, 0.8139890
614.8261, 1.194336
615.3082, 1.738259
615.7903, 1.678571
616.2725, 1.067232
616.7546, 0.7552910
617.2367, 1.275614
617.7188, 1.808422
618.2009, 1.795000
618.6830, 1.370351
619.1652, 0.7633610
619.6473, 6.5972000E-02
620.1294, 0.4485130
620.6115, 0.3407710
621.0936, 0.5248130
621.5757, 0.9777240
622.0579, 0.6032350
622.5400, 0.2938690
623.0221, 0.2567790
623.5042, 0.4134860
623.9863, 0.7515200
624.4684, 1.254043
624.9506, 1.629832
625.4327, 1.448232
625.9147, 0.9679060
626.3969, 1.022175
626.8790, 1.673336
627.3611, 2.241136
627.8432, 2.437435
628.3253, 2.392911
628.8074, 2.291833
629.2896, 2.048411
629.7717, 1.891622
630.2538, 2.027039
630.7359, 2.112727
631.2180, 1.779531
631.7001, 1.181040
632.1823, 0.7335590
632.6644, 0.6185800
633.1465, 0.7354320
633.6286, 0.9602230
634.1107, 1.367741
634.5928, 1.499120
635.0750, 1.092223
635.5571, 0.7053380
636.0392, 0.6160760
636.5213, 0.7291730
637.0034, 0.8972430
637.4855, 1.109563
637.9677, 1.286273
638.4498, 1.335795
638.9319, 1.317614
639.4140, 1.362598
639.8961, 1.490911
640.3782, 1.641132
640.8604, 1.706526
641.3425, 1.656549
641.8246, 1.494739
642.3067, 1.010712
642.7888, 0.6875000
643.2709, 0.4711910
643.7531, 0.4625180
644.2352, 0.9355300
644.7173, 1.690766
645.1994, 2.205009
645.6815, 2.175271
646.1636, 1.824957
646.6458, 1.428605
647.1279, 0.9866360
647.6100, 0.8245240
648.0921, 1.135356
648.5742, 1.452922
649.0563, 1.274495
649.5385, 0.7700660
650.0206, 0.5977270
650.5027, 1.109637
650.9848, 1.549830
651.4669, 1.498477
651.9490, 1.276087
652.4312, 1.341268
652.9133, 1.695338
653.3954, 1.962826
653.8775, 1.819134
654.3596, 1.395243
654.8417, 1.281374
655.3239, 1.712022
655.8060, 1.891180
656.2881, 1.327284
656.7702, 0.7845790
657.2523, 0.7712810
657.7344, 1.199300
658.2166, 1.568679
658.6987, 1.670407
659.1808, 1.662965
659.6629, 1.618541
660.1450, 1.565971
660.6271, 1.635509
661.1093, 1.863484
661.5914, 2.000108
662.0735, 1.769149
662.5556, 1.214264
663.0377, 0.9636260
663.5198, 1.282641
664.0020, 1.563663
664.4841, 1.869510
664.9662, 2.027000
665.4483, 1.744762
665.9304, 1.146402
666.4125, 0.7540270
666.8947, 0.9776330
667.3768, 1.472472
667.8589, 1.592812
668.3410, 1.348114
668.8231, 1.065656
669.3052, 0.7729150
669.7874, 0.5827530
670.2695, 0.6664410
670.7516, 0.9950490
671.2337, 1.175529
671.7158, 1.037856
672.1979, 0.9521710
672.6801, 1.090241
673.1622, 1.309652
673.6443, 1.450967
674.1264, 1.498142
674.6085, 1.538742
675.0906, 1.640500
675.5728, 1.785964
676.0549, 1.960180
676.5370, 2.225653
677.0191, 2.227953
677.5012, 1.719028
677.9833, 1.088430
678.4655, 0.6896630
678.9476, 0.5033570
679.4297, 0.3757200
679.9118, 0.2273560
680.3939, 0.1939100
680.8760, 0.4634900
681.3582, 0.8581860
681.8403, 1.165666
682.3224, 1.317712
682.8045, 1.156853
683.2866, 0.4704540
683.7687, 0.5322190
684.2509, 0.7990970
684.7330, 1.7488001E-02
685.2151, 0.8098020
685.6972, 1.722787
686.1793, 2.307095
686.6614, 2.043863
687.1436, 1.221145
687.6257, 0.6863550
688.1078, 0.8814950
688.5899, 1.233635
689.0720, 1.251023
689.5541, 1.036724
690.0363, 0.7979920
690.5184, 0.5740790
691.0005, 0.3869300
691.4826, 0.2231130
691.9647, 0.1505430
692.4468, 0.4109190
692.9290, 1.601284
693.4111, 2.136754
693.8932, 1.362752
694.3753, 0.5066050
694.8574, 0.3678270
695.3395, 0.7404270
695.8217, 1.004196
696.3038, 0.8952260
696.7859, 0.5829710
697.2680, 9.9820001E-03
697.7501, 0.6260690
698.2322, 0.4617640
698.7144, 0.6820300
699.1965, 1.726970
699.6786, 1.899943
700.1607, 1.452617
700.6428, 1.263233
701.1249, 1.570828
701.6071, 1.758540
702.0892, 1.754769
702.5713, 1.707969
703.0534, 1.695052
703.5355, 1.735326
704.0176, 1.765444
704.4998, 1.761643
704.9819, 1.708345
705.4640, 1.506399
705.9461, 1.221431
706.4282, 1.214736
706.9103, 1.553521
707.3925, 1.921639
707.8745, 2.242100
708.3566, 2.398146
708.8387, 2.022502
709.3209, 0.7458840
709.8030, 4.6422999E-02
710.2851, 0.5144360
710.7672, 1.088990
711.2493, 1.105230
711.7314, 0.8281970
712.2136, 0.8428570
712.6957, 1.327758
713.1778, 1.783714
713.6599, 1.552222
714.1420, 0.7786970
714.6241, 0.1485120
715.1063, 0.3888310
715.5884, 0.3017900
716.0705, 1.022057
716.5526, 2.636090
717.0347, 3.033321
717.5168, 2.083297
717.9990, 1.283870
718.4811, 0.7230710
718.9632, 0.3779390
719.4453, 0.2562900
719.9274, 0.3350470
720.4095, 0.6836740
720.8917, 1.261289
721.3738, 1.759513
721.8559, 1.859158
722.3380, 1.672474
722.8201, 1.587790
723.3022, 1.609633
723.7844, 1.714928
724.2665, 1.993998
724.7486, 2.199446
725.2307, 1.955625
725.7128, 1.312366
726.1949, 0.9749290
726.6771, 1.204001
727.1592, 1.467025
727.6413, 1.661277
728.1234, 1.752928
728.6055, 1.694247
729.0876, 1.493227
729.5698, 1.178244
730.0519, 0.7295430
730.5340, 0.2817600
731.0161, 0.1520610
731.4982, 0.3495830
731.9803, 0.5347390
732.4625, 0.5926650
732.9446, 0.7968210
733.4267, 1.573359
733.9088, 2.641344
734.3909, 2.948243
734.8730, 2.033014
735.3552, 1.235815
735.8373, 0.7556820
736.3194, 0.5492820
736.8015, 0.7379810
737.2836, 1.153283
737.7657, 1.406549
738.2479, 1.320024
738.7300, 1.138350
739.2121, 1.282860
739.6942, 1.688848
740.1763, 1.663412
740.6584, 1.030904
741.1406, 0.6563170
741.6227, 1.025785
742.1048, 1.796956
742.5869, 2.430810
743.0690, 2.920133
743.5511, 3.068750
744.0333, 2.717432
744.5154, 2.176937
744.9975, 1.305010
745.4796, 0.4629670
745.9617, 0.2786050
746.4438, 0.8255870
746.9260, 1.464897
747.4081, 1.687100
747.8902, 1.550682
748.3723, 1.074050
748.8544, 0.2472390
749.3365, 0.2522060
749.8187, 0.1859190
750.3008, 0.1392210
750.7829, 0.4221200
751.2650, 0.6681070
751.7471, 1.065242
752.2292, 2.120868
752.7114, 2.633457
753.1935, 1.821113
753.6756, 0.8302440
754.1577, 0.6287010
754.6398, 1.137370
755.1219, 1.782115
755.6041, 2.302450
756.0862, 2.632631
756.5683, 2.592956
757.0504, 2.214462
757.5325, 1.748216
758.0146, 1.220073
758.4968, 0.6262240
758.9789, 0.1439510
759.4610, 0.8328730
759.9431, 0.7488450
760.4252, 0.6823110
760.9073, 1.529530
761.3895, 1.406136
761.8716, 1.170966
762.3537, 1.055035
762.8358, 1.089750
763.3179, 1.387132
763.8000, 1.949306
764.2822, 2.336326
764.7643, 2.068517
765.2464, 1.529680
765.7285, 1.301780
766.2106, 1.341858
766.6927, 1.390822
767.1749, 1.364465
767.6570, 1.348126
768.1391, 1.480135
768.6212, 1.740511
769.1033, 1.775756
769.5854, 1.488134
770.0676, 1.138115
770.5497, 0.6225720
771.0318, 0.1838030
771.5139, 5.4285999E-02
771.9960, 0.1473710
772.4781, 0.1483260
772.9603, 0.1798430
773.4424, 0.3932020
773.9245, 7.2594002E-02
774.4066, 0.4703610
774.8887, 0.8200970
775.3708, 0.9588030
775.8530, 1.088001
776.3351, 1.325095
776.8172, 1.574508
777.2993, 1.625398
777.7814, 1.437696
778.2635, 1.351586
778.7457, 1.428366
779.2278, 1.495524
779.7099, 1.552289
780.1920, 1.511013
780.6741, 1.184028
781.1563, 0.5358490
781.6384, 9.5270000E-02
782.1205, 2.4899000E-02
782.6026, 0.1582790
783.0847, 0.5931610
783.5668, 1.083546
784.0490, 1.193773
784.5311, 0.9094580
785.0132, 0.6977120
785.4953, 0.9710080
785.9774, 1.509722
786.4595, 1.775918
786.9417, 1.768296
787.4238, 1.645791
787.9059, 1.380793
788.3880, 1.202495
788.8701, 1.372147
789.3522, 1.749044
789.8344, 1.739697
790.3164, 0.8633080
790.7985, 0.5017410
791.2806, 1.283091
791.7628, 2.037976
792.2449, 2.058753
792.7270, 1.620116
793.2091, 1.187996
793.6912, 0.9058270
794.1733, 0.8038870
794.6555, 1.048847
795.1376, 1.422098
795.6197, 1.535898
796.1018, 1.408282
796.5839, 1.156361
797.0660, 0.8070730
797.5482, 0.5188730
798.0303, 0.4879220
798.5124, 0.6921270
798.9945, 0.7509530
799.4766, 0.4578380
799.9587, 0.4181250
800.4409, 1.235835
800.9230, 1.872276
801.4051, 1.421887
801.8872, 0.3037980
802.3693, 0.3136010
802.8514, 6.5980002E-02
803.3336, 0.4707020
803.8157, 1.296442
804.2978, 2.052596
804.7799, 2.340468
805.2620, 2.205811
805.7441, 1.771564
806.2263, 1.103749
806.7084, 0.5667770
807.1905, 0.8083420
807.6726, 1.714084
808.1547, 1.894937
808.6368, 1.196084
809.1190, 0.5303670
809.6011, 0.1304950
810.0832, 3.6530001E-03
810.5653, 0.2489970
811.0474, 0.8664430
811.5295, 1.279566
812.0117, 1.523707
812.4938, 1.519569
812.9759, 0.8530830
813.4580, 0.2614560
813.9401, 0.6109430
814.4222, 1.535939
814.9044, 1.859557
815.3865, 0.9699950
815.8686, 1.9056000E-02
816.3507, 0.1583640
816.8328, 0.9517170
817.3149, 1.139291
817.7971, 0.7834550
818.2792, 0.6782980
818.7613, 1.134904
819.2434, 1.719131
819.7255, 1.738734
820.2076, 1.158635
820.6898, 1.082074
821.1719, 1.917274
821.6540, 2.408427
822.1361, 1.782252
822.6182, 1.083805
823.1003, 1.454961
823.5825, 2.582423
824.0646, 2.939172
824.5467, 1.482872
825.0288, 0.3600530
825.5109, 0.6833470
825.9930, 1.502820
826.4752, 2.058117
826.9573, 2.264019
827.4394, 2.144851
827.9215, 1.705791
828.4036, 1.271807
828.8857, 1.342950
829.3679, 1.736162
829.8500, 1.903119
830.3321, 1.828290
830.8142, 1.600698
831.2963, 1.216135
831.7784, 0.8396040
832.2606, 0.5977050
832.7427, 0.4896980
833.2248, 0.6059220
833.7069, 1.213408
834.1890, 1.595439
834.6711, 1.510833
835.1533, 1.336041
835.6354, 1.321694
836.1175, 1.404985
836.5996, 1.377189
837.0817, 1.130508
837.5638, 0.9553470
838.0460, 1.089904
838.5281, 1.306155
839.0102, 1.341852
839.4923, 1.256991
839.9744, 1.253860
840.4565, 1.398245
840.9387, 1.584835
841.4208, 1.740275
841.9029, 1.826097
842.3850, 1.634562
842.8671, 1.151626
843.3492, 0.7495490
843.8314, 0.5139470
844.3135, 0.4045130
844.7956, 0.4107310
845.2777, 0.5113380
845.7598, 0.5987460
846.2419, 0.4678340
846.7241, 0.6581470
847.2062, 1.659666
847.6883, 2.444230
848.1704, 2.305616
848.6525, 1.741664
849.1346, 1.594049
849.6168, 2.014565
850.0989, 2.261868
850.5810, 1.689424
851.0631, 1.035480
851.5452, 1.041017
852.0273, 1.431054
852.5095, 1.644307
852.9916, 1.588097
853.4737, 1.555642
853.9558, 1.786299
854.4379, 2.125623
854.9200, 2.243600
855.4022, 2.142086
855.8843, 1.829188
856.3664, 1.244474
856.8485, 0.7593560
857.3306, 0.6069840
857.8127, 0.6335230
858.2949, 0.5452970
858.7770, 0.2870570
859.2591, 0.1665540
859.7412, 0.1620840
860.2233, 0.3315620
860.7054, 0.8639180
861.1876, 1.438613
861.6697, 1.803858
862.1518, 1.971725
862.6339, 2.086341
863.1160, 2.289677
863.5981, 2.276883
864.0803, 1.470809
864.5624, 0.5920160
865.0445, 0.7885090
865.5266, 1.743216
866.0087, 2.169411
866.4908, 1.536455
866.9730, 0.6113890
867.4551, 0.3312370
867.9372, 0.5615880
868.4193, 0.7380490
868.9014, 0.8599820
869.3835, 0.9458430
869.8657, 0.9620930
870.3478, 0.9829030
870.8299, 1.088612
871.3120, 1.280331
871.7941, 1.497866
872.2762, 1.867151
872.7583, 2.026891
873.2404, 1.965410
873.7225, 1.697538
874.2047, 0.9874860
874.6868, 0.1839250
875.1689, 0.2338390
875.6510, 0.1950860
876.1331, 7.4225999E-02
876.6152, 0.8070400
877.0974, 1.410189
877.5795, 1.422842
878.0616, 1.135019
878.5437, 0.8775980
879.0258, 0.7319380
879.5079, 0.6940630
879.9901, 0.7578010
880.4722, 0.9469540
880.9543, 1.518475
881.4364, 2.224786
881.9185, 2.039813
882.4006, 0.9843140
882.8828, 0.3700320
883.3649, 0.8213830
883.8470, 1.635427
884.3291, 1.872167
884.8112, 1.546400
885.2933, 1.020884
885.7755, 3.9720000E-03
886.2576, 0.3562980
886.7397, 0.6804070
887.2218, 1.764524
887.7039, 1.717277
888.1860, 0.9182870
888.6682, 0.5791370
889.1503, 1.054230
889.6324, 1.215170
890.1145, 0.4500220
890.5966, 0.1757650
891.0787, 3.5682000E-02
891.5609, 0.5524830
892.0430, 1.281985
892.5251, 2.020563
893.0072, 2.402397
893.4893, 1.981719
893.9714, 1.420774
894.4536, 1.492669
894.9357, 1.808563
895.4178, 1.559583
895.8999, 0.8038490
896.3820, 0.3400970
896.8641, 0.5977980
897.3463, 1.068521
897.8284, 0.9107220
898.3105, 0.2375520
898.7926, 6.4619998E-03
899.2747, 0.2089820
899.7568, 0.4657860
900.2390, 0.6603130
900.7211, 0.7608650
901.2032, 0.6806220
901.6853, 0.4894830
902.1674, 0.6683480
902.6495, 1.706498
903.1317, 2.101021
903.6138, 1.127776
904.0959, 0.2581530
904.5780, 0.3643620
905.0601, 0.8461130
905.5422, 0.8193950
906.0244, 0.1837210
906.5065, 0.2634020
906.9886, 0.3541820
907.4707, 0.1870820
907.9528, 0.4978850
908.4349, 1.200989
908.9171, 1.305090
909.3992, 0.9378940
909.8813, 0.6691230
910.3634, 0.7370470
910.8455, 1.053369
911.3276, 1.887543
911.8098, 2.722707
912.2919, 2.486897
912.7740, 1.475101
913.2561, 0.8159410
913.7382, 0.8275360
914.2203, 1.014921
914.7025, 0.9168890
915.1846, 0.6266210
915.6667, 0.4271620
916.1488, 0.3191730
916.6309, 0.1511830
917.1130, 0.1258540
917.5952, 0.3080500
918.0773, 0.2922410
918.5594, 9.6557997E-02
919.0415, 0.2711690
919.5236, 0.7814790
920.0057, 1.321980
920.4879, 2.261661
920.9700, 2.657110
921.4521, 1.772254
921.9342, 0.7577880
922.4163, 0.4199220
922.8984, 0.6001020
923.3806, 0.8050600
923.8627, 1.014694
924.3448, 1.151796
924.8269, 1.284755
925.3090, 1.245831
925.7911, 0.7553460
926.2733, 0.1256990
926.7554, 0.2563750
927.2375, 0.3205830
927.7196, 0.1479980
928.2017, 0.4042550
928.6838, 0.8654340
929.1660, 0.5158530
929.6481, 5.1430002E-02
930.1302, 0.3133510
930.6123, 1.405345
931.0944, 2.079410
931.5765, 1.858867
932.0587, 1.311913
932.5408, 0.9647240
933.0229, 0.7699260
933.5050, 0.8760910
933.9871, 1.249874
934.4692, 1.330075
934.9514, 0.9779700
935.4335, 0.7913810
935.9156, 1.252004
936.3977, 1.978775
936.8798, 1.895213
937.3619, 0.7028100
937.8441, 0.5812970
938.3262, 1.990713
938.8083, 3.011445
939.2904, 2.842879
939.7725, 2.225066
940.2546, 1.852491
940.7368, 1.705510
941.2189, 1.597615
941.7010, 1.459589
942.1831, 1.463711
942.6652, 1.956021
943.1473, 2.220839
943.6295, 1.685866
944.1116, 0.8127910
944.5937, 0.2431980
945.0758, 4.1772000E-02
945.5579, 9.9427000E-02
946.0400, 0.6465300
946.5222, 1.115045
947.0043, 1.195159
947.4864, 1.065824
947.9685, 0.6850250
948.4506, 0.2846550
948.9327, 0.5088560
949.4149, 1.593647
949.8970, 2.591914
950.3791, 2.585563
950.8612, 2.136343
951.3433, 1.952330
951.8254, 1.956396
952.3076, 1.900867
952.7897, 1.760520
953.2718, 1.738873
953.7539, 1.985959
954.2360, 2.285979
954.7181, 2.288800
955.2002, 2.025101
955.6823, 1.576130
956.1644, 0.9537560
956.6465, 0.5408280
957.1287, 0.4669780
957.6108, 0.5939840
958.0929, 0.8082150
958.5750, 1.087492
959.0571, 1.358821
959.5392, 1.665811
960.0214, 1.712348
960.5035, 1.350121
960.9856, 1.078412
961.4677, 1.194789
961.9498, 1.433293
962.4319, 1.409478
962.9141, 1.115662
963.3962, 0.9757470
963.8783, 1.137404
964.3604, 1.210423
964.8425, 1.002307
965.3246, 0.9014190
965.8068, 1.207207
966.2889, 1.701599
966.7710, 2.047888
967.2531, 2.215826
967.7352, 2.248925
968.2173, 2.221360
968.6995, 1.977920
969.1816, 1.198358
969.6637, 0.3874270
970.1458, 3.2579999E-02
970.6279, 7.7402003E-02
971.1100, 0.1501620
971.5922, 0.6661380
972.0743, 1.072030
972.5564, 1.004433
973.0385, 0.8531040
973.5206, 1.040312
974.0027, 1.337975
974.4849, 1.377273
974.9670, 1.114115
975.4491, 0.6588480
975.9312, 9.7190002E-03
976.4133, 0.4366050
976.8954, 0.1043360
977.3776, 0.6329010
977.8597, 1.222438
978.3418, 1.603156
978.8239, 1.622453
979.3060, 1.275960
979.7881, 0.8874670
980.2703, 0.7105790
980.7524, 0.6820540
981.2345, 0.6742720
981.7166, 0.6982080
982.1987, 0.8977500
982.6808, 1.270568
983.1630, 1.352735
983.6451, 0.9309150
984.1272, 0.5074690
984.6093, 0.6513530
985.0914, 1.220168
985.5735, 1.487258
986.0557, 1.430982
986.5378, 1.194356
987.0199, 0.7171280
987.5020, 0.3540300
987.9841, 0.3571760
988.4662, 0.4505810
988.9484, 0.2421320
989.4305, 0.3000460
989.9126, 0.4759630
990.3947, 1.8437000E-02
990.8768, 0.3360330
991.3589, 0.2858290
991.8411, 0.1614020
992.3232, 4.4370000E-03
992.8053, 5.8722001E-02
993.2874, 0.3542420
993.7695, 1.410360
994.2516, 1.711475
994.7338, 9.7388998E-02
995.2159, 0.6806120
995.6980, 0.7766420
996.1801, 2.368277
996.6622, 2.625071
997.1443, 2.013645
997.6265, 1.513722
998.1086, 1.245708
998.5907, 1.157139
999.0728, 1.416128
999.5549, 1.627683
1000.037, 1.652807
1000.519, 1.528955
1001.001, 1.126384
1001.483, 0.6348640
1001.966, 0.5632980
1002.448, 1.122259
1002.930, 1.592685
1003.412, 1.630193
1003.894, 1.444160
1004.376, 0.9189140
1004.858, 0.4223580
1005.340, 0.5623950
1005.822, 1.201552
1006.305, 1.604430
1006.787, 1.420158
1007.269, 1.211632
1007.751, 1.555461
1008.233, 2.033103
1008.715, 2.132276
1009.197, 1.992781
1009.679, 1.925183
1010.161, 1.967511
1010.644, 1.954393
1011.126, 1.780633
1011.608, 1.594645
1012.090, 1.620200
1012.572, 1.734661
1013.054, 1.661002
1013.536, 1.459537
1014.018, 1.416533
1014.501, 1.560109
1014.983, 1.508814
1015.465, 0.9438710
1015.947, 0.3294260
1016.429, 0.5683620
1016.911, 1.404738
1017.393, 1.866588
1017.875, 1.952926
1018.357, 1.999588
1018.840, 2.100772
1019.322, 2.124161
1019.804, 1.954755
1020.286, 1.660415
1020.768, 1.348473
1021.250, 1.032218
1021.732, 0.8965300
1022.214, 0.9522060
1022.697, 1.086156
1023.179, 1.275478
1023.661, 1.421766
1024.143, 1.437374
1024.625, 1.342393
1025.107, 1.165361
1025.589, 0.8869920
1026.071, 0.7424200
1026.553, 0.7163090
1027.036, 1.026776
1027.518, 1.898424
1028.000, 2.629605
1028.482, 2.503620
1028.964, 1.754020
1029.446, 1.222877
1029.928, 0.9223100
1030.410, 0.8663220
1030.892, 1.226399
1031.375, 1.327161
1031.857, 0.7816720
1032.339, 0.1412920
1032.821, 6.5379001E-02
1033.303, 0.1143280
1033.785, 0.4652790
1034.267, 1.147491
1034.749, 1.568831
1035.232, 1.674266
1035.714, 1.560533
1036.196, 1.102705
1036.678, 0.6235850
1037.160, 0.4310850
1037.642, 0.5027830
1038.124, 0.7189440
1038.606, 1.223983
1039.089, 1.589750
1039.571, 1.905562
1040.053, 1.957746
1040.535, 1.442144
1041.017, 0.8143960
1041.499, 0.4629690
1041.981, 0.3776690
1042.463, 0.5220210
1042.945, 1.028920
1043.427, 1.505061
1043.910, 2.235562
1044.392, 2.558436
1044.874, 1.997137
1045.356, 1.109262
1045.838, 0.1795390
1046.320, 0.6310650
1046.802, 0.6751720
1047.284, 0.5822560
1047.767, 1.461934
1048.249, 1.595655
1048.731, 1.561404
1049.213, 1.508193
1049.695, 1.466839
1050.177, 1.542351
1050.659, 1.652369
1051.141, 1.450355
1051.624, 0.6396720
1052.106, 0.1361220
1052.588, 0.3586970
1053.070, 0.6053670
1053.552, 0.7053700
1054.034, 0.7448520
1054.516, 0.7062170
1054.998, 0.6709180
1055.480, 0.7743060
1055.963, 1.118302
1056.445, 1.339492
1056.927, 1.297787
1057.409, 1.154701
1057.891, 0.8563530
1058.373, 0.5985950
1058.855, 0.5482710
1059.337, 0.7067300
1059.819, 1.057591
1060.302, 1.657683
1060.784, 2.159437
1061.266, 2.480258
1061.748, 2.629876
1062.230, 2.523625
1062.712, 2.322377
1063.194, 2.126171
1063.676, 1.981382
1064.159, 2.003091
1064.641, 2.260433
1065.123, 2.346276
1065.605, 2.050814
1066.087, 1.622380
1066.569, 1.004486
1067.051, 0.5062340
1067.533, 0.5517110
1068.016, 0.9158400
1068.498, 0.9678770
1068.980, 0.5307090
1069.462, 0.3367410
1069.944, 0.9923150
1070.426, 1.602277
1070.908, 1.587924
1071.390, 1.410521
1071.872, 1.522471
1072.354, 1.814282
1072.837, 1.928924
1073.319, 1.795494
1073.801, 1.825800
1074.283, 2.639223
1074.765, 3.159454
1075.247, 2.437260
1075.729, 1.504970
1076.211, 1.165276
1076.694, 1.287892
1077.176, 1.595617
1077.658, 1.996509
1078.140, 2.210444
1078.622, 2.048140
1079.104, 1.778250
1079.586, 1.329022
1080.068, 1.019999
1080.550, 1.257386
1081.033, 1.734756
1081.515, 1.965225
1081.997, 1.905479
1082.479, 1.914895
1082.961, 2.313290
1083.443, 2.462884
1083.925, 1.884345
1084.407, 1.159540
1084.890, 0.6062100
1085.372, 0.2330830
1085.854, 2.2209000E-02
1086.336, 0.1368800
1086.818, 6.0800001E-02
1087.300, 0.8318140
1087.782, 1.373598
1088.264, 1.222172
1088.746, 0.9239550
1089.229, 0.6681470
1089.711, 0.5679060
1090.193, 0.9219180
1090.675, 1.525331
1091.157, 1.642216
1091.639, 0.9195970
1092.121, 0.3919770
1092.603, 0.5620710
1093.085, 0.8869440
1093.568, 1.246536
1094.050, 1.492977
1094.532, 1.422975
1095.014, 1.146820
1095.496, 0.9512200
1095.978, 0.9046740
1096.460, 0.8411410
1096.942, 0.5231210
1097.425, 0.4204440
1097.907, 0.9175370
1098.389, 1.514718
1098.871, 1.922613
1099.353, 2.094839
1099.835, 1.936254
1100.317, 1.435682
1100.799, 1.052979
1101.281, 0.8409660
1101.764, 0.8493910
1102.246, 1.398612
1102.728, 1.843350
1103.210, 1.566227
1103.692, 1.062840
1104.174, 1.148539
1104.656, 1.816477
1105.138, 1.999410
1105.620, 0.9002870
1106.103, 0.2266490
1106.585, 0.6086860
1107.067, 1.026417
1107.549, 1.003472
1108.031, 0.8066660
1108.513, 0.6633550
1108.995, 0.6040960
1109.477, 0.7450540
1109.960, 1.390270
1110.442, 1.500767
1110.924, 0.2022960
1111.406, 0.5756560
1111.888, 0.2629240
1112.370, 1.321508
1112.852, 1.448287
1113.334, 0.9625740
1113.817, 0.6559030
1114.299, 0.4852270
1114.781, 0.7036700
1115.263, 1.929221
1115.745, 2.509732
1116.227, 1.637578
1116.709, 0.7945200
1117.191, 1.003747
1117.673, 1.624213
1118.156, 1.490213
1118.638, 0.5835380
1119.120, 0.6290290
1119.602, 2.347353
1120.084, 3.291936
1120.566, 3.048779
1121.048, 2.418465
1121.530, 1.590159
1122.012, 0.7535240
1122.495, 4.9610000E-02
1122.977, 0.4502210
1123.459, 0.2524890
1123.941, 0.9574870
1124.423, 1.480787
1124.905, 1.019492
1125.387, 0.8615700
1125.869, 1.531427
1126.352, 2.177093
1126.834, 2.055149
1127.316, 1.477536
1127.798, 1.202814
1128.280, 1.243625
1128.762, 1.205073
1129.244, 1.062189
1129.726, 1.218723
1130.208, 1.834143
1130.691, 1.914077
1131.173, 0.7740140
1131.655, 0.6164050
1132.137, 0.7943690
1132.619, 1.3092000E-02
1133.101, 0.8447670
1133.583, 1.671513
1134.065, 1.857234
1134.547, 1.374811
1135.030, 1.240902
1135.512, 1.856316
1135.994, 2.442194
1136.476, 2.242441
1136.958, 1.542776
1137.440, 0.7033670
1137.922, 8.5901000E-02
1138.404, 0.1363790
1138.887, 1.113111
1139.369, 1.323884
1139.851, 0.5104300
1140.333, 0.1938920
1140.815, 7.7445000E-02
1141.297, 0.4037660
1141.779, 0.7773100
1142.261, 1.049691
1142.744, 1.315983
1143.226, 1.460310
1143.708, 1.024827
1144.190, 0.1778220
1144.672, 0.2792260
1145.154, 5.7951000E-02
1145.636, 0.4598190
1146.118, 1.264208
1146.600, 1.841755
1147.083, 1.322866
1147.565, 0.5408680
1148.047, 0.6958560
1148.529, 1.393808
1149.011, 1.588243
1149.493, 1.165963
1149.975, 0.9409490
1150.457, 1.387901
1150.939, 1.849670
1151.422, 1.977292
1151.904, 1.938874
1152.386, 1.884866
1152.868, 1.713985
1153.350, 1.056032
1153.832, 0.1941180
1154.314, 9.1582000E-02
1154.796, 1.121911
1155.279, 1.820793
1155.761, 1.505037
1156.243, 1.135939
1156.725, 0.8929100
1157.207, 0.8828960
1157.689, 1.347206
1158.171, 1.955167
1158.653, 2.135387
1159.135, 1.868460
1159.618, 1.640970
1160.100, 1.364216
1160.582, 1.328707
1161.064, 1.911098
1161.546, 2.183239
1162.028, 1.495408
1162.510, 0.7838290
1162.992, 1.058954
1163.474, 1.900749
1163.957, 1.936906
1164.439, 0.9434300
1164.921, 0.3912340
1165.403, 0.3353870
1165.885, 0.5801410
1166.367, 1.195174
1166.849, 1.757180
1167.331, 2.053712
1167.813, 2.066138
1168.296, 1.707407
1168.778, 1.085592
1169.260, 0.8385880
1169.742, 1.030592
1170.224, 0.8897760
1170.706, 0.3673580
1171.188, 0.2225190
1171.670, 0.7078610
1172.153, 1.197803
1172.635, 1.159255
1173.117, 0.9824020
1173.599, 1.518850
1174.081, 2.412759
1174.563, 2.528843
1175.045, 2.073692
1175.527, 1.750531
1176.010, 1.674854
1176.492, 1.714884
1176.974, 1.809636
1177.456, 1.946890
1177.938, 2.207468
1178.420, 2.395580
1178.902, 2.292650
1179.384, 1.989100
1179.866, 1.373519
1180.349, 0.7337270
1180.831, 0.7598930
1181.313, 1.437488
1181.795, 1.746055
1182.277, 1.068480
1182.759, 0.5195030
1183.241, 0.8984830
1183.723, 1.354990
1184.205, 1.232153
1184.688, 1.035748
1185.170, 1.415320
1185.652, 2.101679
1186.134, 2.352773
1186.616, 2.038896
1187.098, 1.863390
1187.580, 2.187541
1188.062, 2.281223
1188.545, 1.749507
1189.027, 1.331876
1189.509, 1.445578
1189.991, 1.684037
1190.473, 1.638926
1190.955, 1.351331
1191.437, 1.172566
1191.919, 1.114117
1192.401, 1.111668
1192.884, 1.148247
1193.366, 1.353810
1193.848, 1.857684
1194.330, 2.081158
1194.812, 1.609710
1195.294, 0.9690900
1195.776, 0.9182380
1196.258, 1.314313
1196.740, 1.538659
1197.223, 1.588486
1197.705, 1.377254
1198.187, 0.9288270
1198.669, 0.6869600
1199.151, 0.7520050
1199.633, 0.7389870
1200.115, 0.3629090
1200.597, 1.2288000E-02
1201.080, 8.5060999E-02
1201.562, 0.5061980
1202.044, 1.247157
1202.526, 1.967689
1203.008, 1.956684
1203.490, 1.379690
1203.972, 0.9206740
1204.454, 0.8014880
1204.937, 0.9237080
1205.419, 1.337447
1205.901, 1.800817
1206.383, 2.267719
1206.865, 2.466395
1207.347, 2.012104
1207.829, 1.312623
1208.311, 0.8179190
1208.793, 0.5390190
1209.276, 0.3361770
1209.758, 0.1984360
1210.240, 7.3385999E-02
1210.722, 0.1452760
1211.204, 0.2078160
1211.686, 6.0532998E-02
1212.168, 0.2649490
1212.650, 1.042341
1213.132, 1.677293
1213.615, 1.325194
1214.097, 0.2550620
1214.579, 0.2149620
1215.061, 2.0524001E-02
1215.543, 0.3538660
1216.025, 0.8093530
1216.507, 1.219324
1216.989, 1.555193
1217.472, 1.718757
1217.954, 1.629658
1218.436, 1.507723
1218.918, 1.683486
1219.400, 2.004831
1219.882, 2.017163
1220.364, 1.804734
1220.846, 1.643930
1221.328, 1.553392
1221.811, 1.526350
1222.293, 1.540118
1222.775, 1.498767
1223.257, 1.350945
1223.739, 1.107783
1224.221, 0.5553710
1224.703, 0.1493440
1225.185, 0.3933120
1225.667, 0.9950260
1226.150, 1.903781
1226.632, 2.759750
1227.114, 2.867320
1227.596, 2.189969
1228.078, 1.617823
1228.560, 1.435994
1229.042, 1.285766
1229.524, 0.9078880
1230.007, 0.7764850
1230.489, 1.518757
1230.971, 2.118032
1231.453, 1.556704
1231.935, 0.5018710
1232.417, 0.1939510
1232.899, 0.6288360
1233.381, 1.286808
1233.864, 2.434337
1234.346, 2.450148
1234.828, 0.9413770
1235.310, 0.1234120
1235.792, 8.6052999E-02
1236.274, 0.4620310
1236.756, 1.109197
1237.238, 1.745754
1237.720, 2.269311
1238.203, 2.598605
1238.685, 2.289077
1239.167, 1.592222
1239.649, 1.329529
1240.131, 1.488889
1240.613, 1.584270
1241.095, 1.505579
1241.577, 1.701321
1242.059, 2.623873
1242.542, 3.286927
1243.024, 2.559195
1243.506, 1.628456
1243.988, 1.637956
1244.470, 1.861131
1244.952, 1.299784
1245.434, 0.3013150
1245.916, 0.2334150
1246.398, 0.1702410
1246.881, 8.6746000E-02
1247.363, 0.7016640
1247.845, 1.125752
1248.327, 1.183538
1248.809, 1.236833
1249.291, 1.352469
1249.773, 1.454848
1250.255, 1.442340
1250.738, 1.460463
1251.220, 1.690813
1251.702, 2.090064
1252.184, 2.038829
1252.666, 1.542789
1253.148, 1.576223
1253.630, 2.186357
1254.112, 2.483432
1254.594, 2.207497
1255.077, 1.884346
1255.559, 1.901452
1256.041, 1.916441
1256.523, 1.271495
1257.005, 0.5622680
1257.487, 0.9137720
1257.969, 1.617379
1258.451, 1.435065
1258.933, 0.7179290
1259.416, 0.5414830
1259.898, 1.036579
1260.380, 1.413268
1260.862, 1.422883
1261.344, 1.376503
1261.826, 1.474321
1262.308, 1.335038
1262.790, 0.3544690
1263.273, 0.4327570
1263.755, 8.0395997E-02
1264.237, 0.7475490
1264.719, 1.039448
1265.201, 0.8942920
1265.683, 1.165204
1266.165, 2.097183
1266.647, 2.452028
1267.130, 2.059204
1267.612, 1.754922
1268.094, 1.741456
1268.576, 1.661184
1269.058, 1.305135
1269.540, 0.9299390
1270.022, 0.8365500
1270.504, 0.9219440
1270.986, 1.045452
1271.469, 1.180781
1271.951, 1.304120
1272.433, 1.389027
1272.915, 1.419212
1273.397, 1.371641
1273.879, 1.153160
1274.361, 0.5216240
1274.843, 0.1075470
1275.325, 7.1099997E-02
1275.808, 9.1340996E-02
1276.290, 6.2097002E-02
1276.772, 6.6133000E-02
1277.254, 0.2034320
1277.736, 0.3535950
1278.218, 0.3174740
1278.700, 0.2228650
1279.182, 0.4769790
1279.665, 1.130332
1280.147, 1.335283
1280.629, 0.9650020
1281.111, 0.9268810
1281.593, 1.386276
1282.075, 1.766104
1282.557, 1.871949
1283.039, 1.594160
1283.521, 0.7873930
1284.004, 2.4952000E-02
1284.486, 3.7189999E-03
1284.968, 0.0000000E+00
##END=



