##NAMES=Nickelphosphide
##RRUFFID=R070134
##IDEAL CHEMISTRY=Ni_3_P
##LOCALITY=northwest Africa 1054 meteorite, Morocco
##OWNER=RRUFF
##SOURCE=Michael Scott
##DESCRIPTION=Black sliver of a phase, associated with kamacite and diopside
##STATUS=The identification of this mineral has been confirmed only by chemical analysis
##URL=rruff.info/R070134
##MEASURED CHEMISTRY=lighter phase from the upper left: (Ni_1.67_Fe_1.33_)_Î£=3_P_1.00_
199.4129, 0.0000000E+00
199.8950, 19.84961
200.3772, 31.28711
200.8593, 15.56836
201.3414, 1.062500
201.8235, 5.371094
202.3056, 35.99023
202.7877, 81.79395
203.2699, 107.7500
203.7520, 123.5469
204.2341, 120.8672
204.7162, 71.06055
205.1983, 17.06641
205.6804, 6.128906
206.1626, 8.932617
206.6447, 38.85254
207.1268, 47.01367
207.6089, 22.65625
208.0910, 12.02832
208.5731, 42.62012
209.0553, 76.63867
209.5374, 82.95605
210.0195, 58.61621
210.5016, 34.58887
210.9837, 50.12012
211.4658, 107.6260
211.9480, 135.3730
212.4301, 97.72559
212.9122, 46.70020
213.3943, 8.436523
213.8764, 14.42188
214.3585, 20.09961
214.8407, 2.528320
215.3228, 52.23340
215.8049, 83.96387
216.2870, 78.54492
216.7691, 69.59375
217.2512, 79.46680
217.7334, 104.7617
218.2155, 128.2451
218.6976, 133.7070
219.1797, 123.9180
219.6618, 123.8242
220.1439, 140.4248
220.6261, 159.1387
221.1082, 172.6182
221.5903, 181.7793
222.0724, 189.4238
222.5545, 200.8301
223.0366, 212.6572
223.5188, 208.3623
224.0009, 177.7236
224.4830, 147.8936
224.9651, 129.3516
225.4472, 120.9590
225.9293, 122.0449
226.4115, 138.2686
226.8936, 160.9219
227.3757, 165.7715
227.8578, 144.9492
228.3399, 124.2256
228.8220, 116.5479
229.3041, 115.3232
229.7863, 112.0029
230.2684, 102.2383
230.7505, 90.48340
231.2326, 83.47656
231.7147, 80.77148
232.1968, 84.49609
232.6790, 106.2725
233.1611, 130.3203
233.6432, 137.5420
234.1253, 117.6182
234.6074, 96.27832
235.0895, 112.9941
235.5717, 174.3818
236.0538, 221.5215
236.5359, 231.5781
237.0180, 220.4316
237.5001, 192.1152
237.9822, 144.0264
238.4644, 107.5762
238.9465, 125.9170
239.4286, 197.7754
239.9107, 244.7354
240.3928, 234.8252
240.8749, 204.9941
241.3571, 185.2129
241.8392, 176.7334
242.3213, 172.7930
242.8034, 170.9346
243.2855, 170.4160
243.7676, 166.0479
244.2498, 152.9502
244.7319, 141.9121
245.2140, 146.0781
245.6961, 161.9648
246.1782, 170.1826
246.6603, 149.1621
247.1425, 113.4316
247.6246, 106.6738
248.1067, 137.3838
248.5888, 175.0752
249.0709, 201.5596
249.5530, 217.4951
250.0352, 221.5430
250.5173, 203.5146
250.9994, 176.9893
251.4815, 161.7979
251.9636, 158.7695
252.4457, 164.0518
252.9279, 187.1953
253.4100, 215.1719
253.8921, 220.3105
254.3742, 173.8730
254.8563, 126.3760
255.3384, 138.5254
255.8206, 208.9111
256.3027, 267.8047
256.7848, 276.3027
257.2669, 253.5967
257.7490, 244.8896
258.2311, 261.1416
258.7133, 272.1201
259.1954, 250.2305
259.6775, 204.2041
260.1596, 171.8115
260.6417, 171.0273
261.1238, 183.6357
261.6060, 178.0566
262.0881, 150.2393
262.5702, 126.2637
263.0523, 114.0820
263.5344, 112.7051
264.0165, 126.2373
264.4987, 158.4131
264.9808, 192.1846
265.4629, 204.4004
265.9450, 194.9092
266.4271, 183.7998
266.9092, 175.5322
267.3914, 167.0869
267.8735, 152.5820
268.3556, 131.3672
268.8377, 113.5527
269.3198, 108.9570
269.8019, 118.8008
270.2841, 127.5645
270.7662, 134.5244
271.2483, 141.0654
271.7304, 146.3389
272.2125, 151.3945
272.6946, 161.7471
273.1768, 182.7559
273.6589, 210.3018
274.1410, 214.6855
274.6231, 174.7549
275.1052, 138.9199
275.5873, 126.9521
276.0695, 130.5693
276.5516, 132.3418
277.0337, 123.8779
277.5158, 110.5918
277.9979, 107.5117
278.4800, 128.6855
278.9622, 140.0654
279.4443, 132.3604
279.9264, 116.3203
280.4085, 101.5156
280.8906, 91.02441
281.3727, 85.64941
281.8549, 86.51758
282.3370, 93.70117
282.8191, 108.3984
283.3012, 141.0586
283.7833, 172.3447
284.2654, 190.3740
284.7476, 194.2773
285.2297, 190.4043
285.7118, 184.8750
286.1939, 178.3086
286.6760, 162.9365
287.1581, 118.3369
287.6403, 86.15332
288.1224, 85.76270
288.6045, 108.4551
289.0866, 137.5215
289.5687, 163.8711
290.0508, 185.7246
290.5330, 192.7158
291.0151, 171.3525
291.4972, 152.2588
291.9793, 140.6299
292.4614, 133.3770
292.9435, 131.1191
293.4257, 134.0303
293.9078, 131.5352
294.3899, 96.06348
294.8720, 0.5537110
295.3541, 53.98828
295.8362, 13.88184
296.3184, 42.67676
296.8005, 63.41992
297.2826, 44.37598
297.7647, 21.75684
298.2468, 41.44043
298.7289, 107.1582
299.2111, 138.0498
299.6932, 99.56445
300.1753, 59.32324
300.6574, 48.77441
301.1395, 63.40039
301.6216, 88.28125
302.1038, 119.4746
302.5859, 152.8799
303.0680, 176.3789
303.5501, 190.0215
304.0322, 192.9277
304.5143, 175.8369
304.9964, 150.6689
305.4785, 133.5732
305.9607, 133.1943
306.4428, 135.2295
306.9249, 117.5273
307.4070, 79.81934
307.8891, 57.94434
308.3712, 77.52930
308.8534, 108.9609
309.3355, 110.3037
309.8176, 74.92969
310.2997, 42.23828
310.7818, 35.12988
311.2639, 48.02051
311.7461, 64.89258
312.2282, 83.14062
312.7103, 100.2891
313.1924, 117.0928
313.6745, 133.5195
314.1566, 135.6963
314.6388, 111.2119
315.1209, 76.98047
315.6030, 41.27539
316.0851, 6.726563
316.5672, 3.993164
317.0493, 35.12207
317.5315, 115.1348
318.0136, 156.6436
318.4957, 135.6494
318.9778, 104.9023
319.4599, 77.60254
319.9420, 57.17969
320.4242, 52.63086
320.9063, 69.76074
321.3884, 97.06738
321.8705, 106.7422
322.3526, 82.30273
322.8347, 64.40234
323.3169, 56.29492
323.7990, 54.49805
324.2811, 58.17676
324.7632, 66.16309
325.2453, 73.47559
325.7274, 73.39551
326.2096, 62.60059
326.6917, 60.33203
327.1738, 70.48926
327.6559, 84.13379
328.1380, 106.4131
328.6201, 129.2402
329.1023, 133.4131
329.5844, 102.1045
330.0665, 46.21387
330.5486, 27.21094
331.0307, 79.42480
331.5128, 118.4727
331.9950, 128.9277
332.4771, 119.4072
332.9592, 91.76367
333.4413, 46.81641
333.9234, 3.775391
334.4055, 4.201172
334.8877, 30.94824
335.3698, 55.19238
335.8519, 52.34570
336.3340, 42.82129
336.8161, 37.59277
337.2982, 36.73340
337.7804, 35.39648
338.2625, 23.07324
338.7446, 6.574219
339.2267, 17.09180
339.7088, 69.35449
340.1909, 115.1416
340.6731, 113.3467
341.1552, 85.91504
341.6373, 70.59961
342.1194, 85.52930
342.6015, 106.2949
343.0836, 106.1455
343.5658, 87.13281
344.0479, 70.24414
344.5300, 64.64160
345.0121, 65.10156
345.4942, 61.77832
345.9763, 53.26074
346.4585, 46.33691
346.9406, 38.24902
347.4227, 34.95801
347.9048, 53.04102
348.3869, 96.15820
348.8690, 133.9551
349.3512, 131.0693
349.8333, 79.72656
350.3154, 51.74609
350.7975, 65.09180
351.2796, 83.09766
351.7617, 86.35742
352.2439, 77.87305
352.7260, 70.20508
353.2081, 70.21582
353.6902, 76.57227
354.1723, 76.14648
354.6544, 58.45312
355.1366, 45.98633
355.6187, 34.77148
356.1008, 32.03320
356.5829, 55.25781
357.0650, 104.2773
357.5471, 147.0215
358.0293, 132.2598
358.5114, 35.15137
358.9935, 12.60059
359.4756, 49.05859
359.9577, 105.9619
360.4398, 109.7188
360.9220, 73.14941
361.4041, 32.94531
361.8862, 9.994141
362.3683, 1.489258
362.8504, 0.1337890
363.3326, 7.008789
363.8147, 16.37402
364.2968, 31.98242
364.7789, 45.63672
365.2610, 46.66309
365.7431, 31.19336
366.2253, 15.50879
366.7074, 19.76953
367.1895, 39.03418
367.6716, 40.06152
368.1537, 7.961914
368.6358, 28.26465
369.1180, 36.91309
369.6001, 22.73730
370.0822, 9.672852
370.5643, 7.268555
371.0464, 7.241211
371.5285, 5.182617
372.0107, 0.2617190
372.4928, 20.95996
372.9749, 70.14062
373.4570, 137.1953
373.9391, 178.3838
374.4212, 183.8223
374.9034, 181.3164
375.3855, 175.8125
375.8676, 166.9111
376.3497, 153.9521
376.8318, 136.7588
377.3139, 115.5244
377.7961, 88.57422
378.2782, 50.10645
378.7603, 28.71094
379.2424, 30.92676
379.7245, 40.69922
380.2066, 56.98340
380.6888, 74.64844
381.1709, 83.79883
381.6530, 77.01270
382.1351, 59.04590
382.6172, 49.75781
383.0993, 56.29297
383.5815, 58.39746
384.0636, 47.49414
384.5457, 34.20215
385.0278, 27.58203
385.5099, 29.36230
385.9920, 34.05566
386.4742, 35.29883
386.9563, 33.68457
387.4384, 38.98145
387.9205, 59.26074
388.4026, 74.62402
388.8847, 65.91797
389.3669, 42.42188
389.8490, 26.54785
390.3311, 26.33398
390.8132, 36.06152
391.2953, 51.23828
391.7774, 71.60742
392.2596, 96.08984
392.7417, 130.3105
393.2238, 162.0176
393.7059, 162.3887
394.1880, 121.9375
394.6701, 86.07227
395.1523, 63.13770
395.6344, 50.75879
396.1165, 50.98926
396.5986, 63.62793
397.0807, 76.50293
397.5628, 76.92969
398.0450, 64.47363
398.5271, 69.07031
399.0092, 126.9229
399.4913, 158.7744
399.9734, 115.8936
400.4555, 41.72363
400.9377, 1.399414
401.4197, 11.86523
401.9019, 55.91895
402.3840, 89.84277
402.8661, 117.7031
403.3482, 122.4248
403.8303, 79.58398
404.3124, 33.61914
404.7946, 3.219727
405.2767, 11.48633
405.7588, 17.27832
406.2409, 15.83008
406.7230, 9.781250
407.2051, 8.320313
407.6873, 14.41309
408.1694, 13.34668
408.6515, 12.96094
409.1336, 44.00781
409.6157, 50.07227
410.0978, 20.23633
410.5800, 2.449219
411.0621, 20.95215
411.5442, 68.83887
412.0263, 89.15723
412.5084, 69.10547
412.9905, 42.51855
413.4727, 44.60156
413.9548, 76.71875
414.4369, 88.11426
414.9190, 52.77441
415.4011, 22.33496
415.8832, 28.71094
416.3654, 58.74121
416.8475, 83.19727
417.3296, 89.79980
417.8117, 84.43066
418.2938, 79.29785
418.7759, 70.05957
419.2581, 69.88770
419.7402, 94.91113
420.2223, 114.2217
420.7044, 99.21875
421.1865, 59.06836
421.6686, 30.13281
422.1508, 44.14355
422.6329, 88.19727
423.1150, 102.4609
423.5971, 69.08301
424.0792, 45.86035
424.5613, 71.07422
425.0435, 105.7725
425.5256, 109.6846
426.0077, 73.77051
426.4898, 33.25391
426.9719, 11.58496
427.4540, 8.125000
427.9362, 23.02246
428.4183, 62.20117
428.9004, 95.44141
429.3825, 93.41504
429.8646, 63.51562
430.3467, 42.06055
430.8289, 33.27539
431.3110, 30.98438
431.7931, 31.92578
432.2752, 36.66016
432.7573, 50.47852
433.2394, 76.15039
433.7216, 99.61230
434.2037, 95.52832
434.6858, 46.07617
435.1679, 16.43750
435.6500, 18.82129
436.1321, 27.46582
436.6143, 31.77344
437.0964, 31.43652
437.5785, 26.56641
438.0606, 17.10938
438.5427, 6.026367
439.0248, 2.074219
439.5070, 9.693359
439.9891, 17.24023
440.4712, 19.05176
440.9533, 21.77051
441.4354, 30.83984
441.9175, 46.18945
442.3997, 61.54199
442.8818, 76.60742
443.3639, 88.10938
443.8460, 85.55078
444.3281, 66.67676
444.8102, 47.43066
445.2924, 35.88770
445.7745, 31.66699
446.2566, 32.64453
446.7387, 43.04980
447.2208, 52.69824
447.7029, 58.42676
448.1851, 60.88477
448.6672, 62.45215
449.1493, 63.26953
449.6314, 57.74609
450.1135, 38.42285
450.5956, 3.541016
451.0778, 20.60840
451.5599, 33.42090
452.0420, 36.62402
452.5241, 29.30371
453.0062, 13.07227
453.4883, 15.74805
453.9705, 58.22461
454.4526, 96.03027
454.9347, 94.42676
455.4168, 46.77148
455.8989, 24.14941
456.3810, 51.21973
456.8632, 82.03320
457.3453, 88.25586
457.8274, 76.48633
458.3095, 64.58691
458.7916, 57.86230
459.2737, 54.88770
459.7559, 53.57520
460.2380, 53.95801
460.7201, 59.67676
461.2022, 75.30469
461.6843, 90.42676
462.1664, 87.12988
462.6486, 58.34082
463.1307, 38.42676
463.6128, 35.13281
464.0949, 41.49902
464.5770, 60.92969
465.0591, 86.38184
465.5413, 98.43164
466.0234, 85.01758
466.5055, 58.36230
466.9876, 52.16992
467.4697, 82.61426
467.9518, 103.0000
468.4340, 98.80859
468.9161, 93.28516
469.3982, 103.9053
469.8803, 127.9824
470.3624, 147.8838
470.8445, 154.3398
471.3267, 147.5225
471.8088, 118.5195
472.2909, 59.40332
472.7730, 26.33789
473.2551, 62.41016
473.7372, 122.7148
474.2194, 136.5791
474.7015, 93.12109
475.1836, 56.39062
475.6657, 54.93750
476.1478, 69.98438
476.6299, 83.24609
477.1121, 92.08398
477.5942, 96.44629
478.0763, 96.27246
478.5584, 91.61523
479.0405, 82.97266
479.5226, 63.97461
480.0048, 48.93066
480.4869, 29.00098
480.9690, 19.84668
481.4511, 46.72266
481.9332, 104.9814
482.4153, 154.8057
482.8975, 157.3545
483.3796, 119.7178
483.8617, 88.64551
484.3438, 62.95996
484.8259, 46.99316
485.3080, 57.72168
485.7902, 72.11621
486.2723, 59.74512
486.7544, 10.95801
487.2365, 26.78027
487.7186, 16.17578
488.2007, 22.32227
488.6829, 53.48242
489.1650, 72.92578
489.6471, 86.83984
490.1292, 100.1846
490.6113, 111.9180
491.0934, 114.7539
491.5756, 97.23242
492.0577, 86.87598
492.5398, 102.2715
493.0219, 119.0713
493.5040, 102.9131
493.9861, 54.50000
494.4683, 14.83008
494.9504, 31.51758
495.4325, 98.16309
495.9146, 114.1787
496.3967, 41.16211
496.8788, 13.91504
497.3610, 9.237305
497.8431, 26.75000
498.3252, 76.00977
498.8073, 137.6113
499.2894, 176.8740
499.7715, 153.2188
500.2536, 95.56836
500.7357, 63.43555
501.2179, 61.33691
501.7000, 62.79980
502.1821, 49.31836
502.6642, 27.50879
503.1463, 28.41797
503.6284, 78.97559
504.1106, 113.6035
504.5927, 111.9043
505.0748, 93.71094
505.5569, 73.20410
506.0390, 55.74121
506.5211, 46.99902
507.0033, 53.84863
507.4854, 73.86719
507.9675, 87.54688
508.4496, 92.82129
508.9317, 93.24414
509.4138, 84.00879
509.8960, 75.73145
510.3781, 80.77344
510.8602, 100.9297
511.3423, 120.1797
511.8244, 129.0361
512.3066, 128.3369
512.7887, 109.8525
513.2708, 72.44922
513.7529, 62.56348
514.2350, 119.8242
514.7172, 214.8369
515.1993, 248.2686
515.6814, 191.6631
516.1635, 135.9365
516.6456, 79.36133
517.1277, 38.06836
517.6099, 39.00488
518.0920, 71.65918
518.5741, 91.19434
519.0562, 60.84082
519.5383, 2.256836
520.0204, 2.317383
520.5026, 71.65723
520.9847, 134.6846
521.4668, 175.6162
521.9489, 192.1270
522.4310, 170.1406
522.9131, 115.3828
523.3953, 66.45801
523.8774, 46.69727
524.3595, 40.64551
524.8416, 27.60254
525.3237, 8.934570
525.8058, 3.139648
526.2880, 3.674805
526.7701, 4.875000
527.2522, 18.92578
527.7343, 41.60059
528.2164, 61.66504
528.6985, 88.65918
529.1807, 104.1748
529.6628, 84.87988
530.1449, 48.23633
530.6270, 33.22852
531.1091, 59.85254
531.5912, 100.6758
532.0734, 100.0498
532.5555, 49.87402
533.0376, 31.42773
533.5197, 72.72852
534.0018, 121.6094
534.4839, 140.8916
534.9661, 140.5732
535.4482, 146.8652
535.9303, 175.1582
536.4124, 199.7529
536.8945, 201.2461
537.3766, 185.5293
537.8588, 162.2441
538.3409, 133.8047
538.8230, 106.4150
539.3051, 85.83105
539.7872, 71.61914
540.2693, 70.78613
540.7515, 103.1260
541.2336, 124.8730
541.7157, 119.6338
542.1978, 104.0439
542.6799, 97.87402
543.1620, 104.5244
543.6442, 109.7764
544.1263, 93.62891
544.6084, 63.15625
545.0905, 56.67188
545.5726, 84.46191
546.0547, 105.1895
546.5369, 88.22461
547.0190, 55.04102
547.5011, 50.43848
547.9832, 82.96680
548.4653, 114.0059
548.9474, 135.2109
549.4296, 148.9355
549.9116, 159.1016
550.3937, 163.9893
550.8759, 154.7080
551.3580, 124.6777
551.8401, 83.52539
552.3222, 54.88477
552.8043, 40.50000
553.2864, 38.12402
553.7686, 64.60645
554.2507, 87.74023
554.7328, 86.70508
555.2149, 69.28125
555.6970, 54.92676
556.1791, 54.20898
556.6613, 51.64258
557.1434, 20.21777
557.6255, 28.71875
558.1076, 48.56641
558.5897, 25.20312
559.0718, 13.87988
559.5540, 46.21973
560.0361, 70.13770
560.5182, 76.68750
561.0003, 56.21094
561.4824, 39.85840
561.9645, 32.10742
562.4467, 33.83594
562.9288, 50.02344
563.4109, 79.61426
563.8930, 107.9268
564.3751, 121.7217
564.8572, 123.1182
565.3394, 121.2354
565.8215, 114.8438
566.3036, 110.0352
566.7857, 113.2061
567.2678, 116.4492
567.7499, 107.9062
568.2321, 86.23242
568.7142, 61.79883
569.1963, 32.44629
569.6784, 5.526367
570.1605, 20.73730
570.6426, 39.49805
571.1248, 27.00293
571.6069, 29.58887
572.0890, 102.5566
572.5711, 136.4961
573.0532, 117.4482
573.5353, 106.9824
574.0175, 110.4785
574.4996, 117.7686
574.9817, 132.2451
575.4638, 145.6279
575.9459, 140.2832
576.4280, 104.3213
576.9102, 70.48242
577.3923, 72.69434
577.8744, 94.23730
578.3565, 91.14551
578.8386, 55.49707
579.3207, 24.12109
579.8029, 25.90723
580.2850, 53.87500
580.7671, 71.25684
581.2492, 69.51074
581.7313, 67.79102
582.2134, 56.70703
582.6956, 53.92676
583.1777, 84.89453
583.6598, 137.9492
584.1419, 170.8760
584.6240, 150.9180
585.1061, 108.3740
585.5883, 100.6768
586.0704, 126.2529
586.5525, 140.2422
587.0346, 128.4463
587.5167, 109.7939
587.9988, 103.7598
588.4810, 110.0371
588.9631, 110.4902
589.4452, 90.87500
589.9273, 80.78223
590.4094, 110.6084
590.8915, 146.2812
591.3737, 136.3730
591.8558, 76.50586
592.3379, 16.92480
592.8200, 7.038086
593.3021, 37.96582
593.7842, 58.42676
594.2664, 67.15332
594.7485, 68.97363
595.2306, 56.17871
595.7127, 44.71973
596.1948, 55.92969
596.6769, 89.99902
597.1591, 114.3955
597.6412, 109.6260
598.1233, 101.4043
598.6054, 112.8486
599.0875, 136.0879
599.5696, 151.3906
600.0518, 151.8887
600.5339, 145.7139
601.0160, 144.9229
601.4981, 150.9658
601.9802, 142.2148
602.4623, 102.4219
602.9445, 73.01465
603.4266, 70.26172
603.9087, 82.88770
604.3908, 102.8574
604.8729, 129.5156
605.3550, 148.7842
605.8372, 149.4014
606.3193, 141.8496
606.8014, 140.8145
607.2835, 141.8848
607.7656, 124.0137
608.2477, 74.75879
608.7299, 17.67969
609.2120, 3.624023
609.6941, 22.96582
610.1762, 44.48242
610.6583, 55.77148
611.1404, 67.49805
611.6226, 93.43555
612.1047, 118.0088
612.5868, 115.2266
613.0689, 76.42773
613.5510, 34.54688
614.0331, 12.93262
614.5153, 7.753906
614.9974, 19.03320
615.4795, 42.93750
615.9616, 46.55273
616.4437, 7.351563
616.9258, 48.01367
617.4080, 59.59277
617.8901, 3.530273
618.3722, 43.82129
618.8543, 101.0723
619.3364, 131.5000
619.8185, 90.97461
620.3007, 18.95117
620.7828, 12.78027
621.2649, 25.35254
621.7470, 75.15430
622.2291, 67.65332
622.7112, 22.93945
623.1934, 8.685547
623.6755, 32.35840
624.1576, 67.36914
624.6397, 103.1865
625.1218, 134.5225
625.6039, 146.6855
626.0861, 127.7373
626.5682, 110.8457
627.0503, 93.56836
627.5324, 80.66699
628.0145, 73.39062
628.4966, 72.38281
628.9788, 80.07617
629.4609, 98.53125
629.9430, 122.7666
630.4251, 156.3623
630.9072, 194.3457
631.3893, 211.8779
631.8715, 205.7588
632.3536, 181.6182
632.8357, 133.0176
633.3178, 74.77734
633.7999, 53.64551
634.2820, 96.05469
634.7642, 121.6104
635.2463, 112.4219
635.7284, 96.76855
636.2105, 91.75391
636.6926, 94.51953
637.1747, 95.24023
637.6569, 89.62695
638.1390, 81.95996
638.6211, 72.67188
639.1032, 64.50293
639.5853, 81.74414
640.0674, 133.7852
640.5496, 168.6582
641.0317, 146.3662
641.5138, 90.46875
641.9959, 69.38867
642.4780, 101.4531
642.9601, 125.6992
643.4423, 133.7061
643.9244, 136.3438
644.4065, 142.8291
644.8886, 148.8877
645.3707, 142.9385
645.8528, 119.5127
646.3350, 92.04785
646.8171, 74.93262
647.2992, 67.78711
647.7813, 73.31250
648.2634, 95.04688
648.7455, 104.8438
649.2277, 80.45020
649.7098, 38.80762
650.1919, 20.52344
650.6740, 32.63281
651.1561, 50.61230
651.6382, 95.51465
652.1204, 123.9482
652.6025, 96.29102
653.0846, 39.24414
653.5667, 2.2461001E-02
654.0488, 4.179688
654.5309, 9.264648
655.0131, 25.04395
655.4952, 43.18164
655.9773, 65.41602
656.4594, 94.00977
656.9415, 105.7842
657.4236, 83.62793
657.9058, 46.42383
658.3879, 30.20020
658.8700, 42.31543
659.3521, 55.97168
659.8342, 80.64844
660.3163, 96.69531
660.7985, 90.59277
661.2806, 72.37109
661.7627, 58.07812
662.2448, 51.78906
662.7269, 41.34668
663.2090, 3.536133
663.6912, 43.16406
664.1733, 51.15332
664.6554, 20.16797
665.1375, 20.50391
665.6196, 63.35645
666.1017, 97.44043
666.5839, 103.2852
667.0660, 71.92285
667.5481, 59.19727
668.0302, 83.92188
668.5123, 102.8877
668.9944, 97.55664
669.4766, 84.47559
669.9587, 86.53613
670.4408, 104.9785
670.9229, 114.1055
671.4050, 85.36133
671.8871, 43.74805
672.3693, 26.08496
672.8514, 29.36426
673.3335, 40.74707
673.8156, 57.11523
674.2977, 70.66504
674.7798, 68.77832
675.2620, 53.08789
675.7441, 49.44531
676.2262, 61.77734
676.7083, 73.44336
677.1904, 83.70312
677.6725, 90.80371
678.1547, 92.50977
678.6368, 89.12695
679.1189, 84.74512
679.6010, 76.56348
680.0831, 72.24121
680.5652, 88.71191
681.0474, 111.9863
681.5295, 102.2412
682.0116, 55.79785
682.4937, 22.97461
682.9758, 48.91406
683.4579, 116.0537
683.9401, 147.7061
684.4222, 132.0176
684.9043, 113.0801
685.3864, 91.23828
685.8685, 73.15430
686.3506, 60.76660
686.8328, 55.03027
687.3149, 59.83398
687.7970, 85.41895
688.2791, 102.2656
688.7612, 83.65234
689.2433, 56.97949
689.7255, 57.75879
690.2076, 82.07715
690.6897, 101.1094
691.1718, 98.68945
691.6539, 87.06152
692.1360, 91.98535
692.6182, 114.8701
693.1003, 119.4258
693.5824, 96.70312
694.0645, 73.37988
694.5466, 62.38770
695.0287, 60.87598
695.5109, 63.97461
695.9930, 74.36523
696.4751, 79.38574
696.9572, 67.17578
697.4393, 58.92676
697.9214, 72.46973
698.4036, 96.96387
698.8857, 115.1943
699.3678, 121.5586
699.8499, 119.3428
700.3320, 100.0059
700.8141, 76.03027
701.2963, 99.66602
701.7784, 170.7324
702.2605, 206.2285
702.7426, 168.7715
703.2247, 109.7041
703.7068, 95.22070
704.1890, 130.0371
704.6711, 150.5244
705.1532, 143.0410
705.6353, 139.0664
706.1174, 151.0225
706.5995, 163.5889
707.0817, 158.7549
707.5638, 139.9492
708.0459, 131.3965
708.5280, 158.3604
709.0101, 181.9570
709.4922, 148.0195
709.9744, 84.26465
710.4565, 61.64648
710.9386, 88.45996
711.4207, 105.5703
711.9028, 64.74609
712.3849, 8.041016
712.8671, 24.55957
713.3492, 32.24609
713.8313, 90.14258
714.3134, 162.1172
714.7955, 210.0098
715.2776, 190.8623
715.7598, 139.6641
716.2419, 122.9961
716.7240, 161.1768
717.2061, 192.8447
717.6882, 191.7324
718.1703, 179.2598
718.6525, 173.1650
719.1346, 170.2998
719.6167, 159.3428
720.0988, 136.2236
720.5809, 108.2266
721.0630, 73.68555
721.5452, 38.10645
722.0273, 52.95703
722.5094, 126.8740
722.9915, 181.7500
723.4736, 188.4238
723.9557, 165.3252
724.4379, 127.4756
724.9200, 70.68555
725.4021, 51.59375
725.8842, 105.9111
726.3663, 148.1660
726.8484, 160.8105
727.3306, 153.2021
727.8127, 122.3555
728.2948, 79.09180
728.7769, 55.13379
729.2590, 74.82520
729.7411, 105.3965
730.2233, 111.7773
730.7054, 103.2471
731.1875, 99.98242
731.6696, 104.4570
732.1517, 108.3984
732.6339, 106.3076
733.1160, 100.2158
733.5981, 94.77344
734.0802, 89.40820
734.5623, 88.19141
735.0444, 93.34766
735.5266, 97.62988
736.0087, 99.93359
736.4908, 100.1055
736.9729, 93.84375
737.4550, 77.40918
737.9371, 73.05078
738.4193, 106.1787
738.9014, 134.3730
739.3835, 116.9961
739.8656, 79.85449
740.3477, 62.93066
740.8298, 74.74023
741.3120, 92.33789
741.7941, 96.27148
742.2762, 92.63184
742.7583, 94.37891
743.2404, 102.4873
743.7225, 114.5557
744.2047, 134.1094
744.6868, 142.0771
745.1689, 114.6719
745.6510, 61.71094
746.1331, 51.88672
746.6152, 119.0967
747.0973, 167.1816
747.5794, 178.7725
748.0615, 179.2080
748.5436, 184.7295
749.0258, 188.0371
749.5079, 169.6719
749.9900, 117.3438
750.4721, 71.89551
750.9542, 50.92090
751.4363, 48.39160
751.9185, 71.26855
752.4006, 106.2100
752.8827, 122.1943
753.3648, 108.2051
753.8469, 81.67969
754.3290, 54.16992
754.8112, 31.08301
755.2933, 49.93164
755.7754, 114.9443
756.2575, 153.6523
756.7396, 135.8535
757.2217, 104.8291
757.7039, 112.5498
758.1860, 156.3145
758.6681, 157.1699
759.1502, 60.16211
759.6323, 5.910156
760.1144, 22.93164
760.5966, 11.18750
761.0787, 34.80566
761.5608, 96.68457
762.0429, 130.9551
762.5250, 118.2109
763.0071, 93.93848
763.4893, 79.06152
763.9714, 66.74707
764.4535, 45.19629
764.9356, 17.86816
765.4177, 3.925781
765.8998, 15.30762
766.3820, 11.70312
766.8641, 22.51074
767.3462, 80.91797
767.8283, 104.4990
768.3104, 88.99316
768.7925, 68.72949
769.2747, 50.52637
769.7568, 37.24902
770.2389, 40.90723
770.7210, 60.81055
771.2031, 67.31152
771.6852, 46.61523
772.1674, 30.63086
772.6495, 20.93945
773.1316, 19.05273
773.6137, 31.19141
774.0958, 51.43750
774.5779, 64.28418
775.0601, 61.87305
775.5422, 61.08496
776.0243, 83.73730
776.5064, 107.0244
776.9885, 96.89062
777.4706, 61.16113
777.9528, 27.87207
778.4349, 8.735352
778.9170, 1.708984
779.3991, 9.242188
779.8812, 27.48242
780.3633, 29.48926
780.8455, 13.16602
781.3276, 4.927734
781.8097, 12.58008
782.2918, 32.23438
782.7739, 66.76953
783.2560, 112.7666
783.7382, 125.1729
784.2203, 77.83203
784.7024, 34.63281
785.1845, 13.31445
785.6666, 43.57910
786.1487, 33.66211
786.6309, 1.370117
787.1130, 28.52051
787.5951, 37.19141
788.0772, 51.02148
788.5593, 98.90430
789.0414, 143.5078
789.5236, 145.3320
790.0057, 115.6650
790.4878, 79.50977
790.9699, 45.87598
791.4520, 16.75195
791.9341, 10.06152
792.4163, 27.90234
792.8984, 10.37012
793.3805, 39.53320
793.8626, 79.10742
794.3447, 100.0117
794.8268, 96.29492
795.3090, 55.98926
795.7911, 6.699219
796.2732, 30.21680
796.7553, 7.646484
797.2374, 30.34180
797.7195, 18.88867
798.2017, 10.10156
798.6838, 31.17090
799.1659, 59.08887
799.6480, 53.86816
800.1301, 6.294922
800.6122, 20.75293
801.0944, 6.903320
801.5765, 40.85742
802.0586, 59.03906
802.5407, 64.47070
803.0228, 58.70020
803.5049, 44.92871
803.9871, 33.09570
804.4692, 29.29980
804.9513, 30.76367
805.4334, 38.38574
805.9155, 47.64844
806.3976, 38.72949
806.8798, 13.07910
807.3619, 10.36621
807.8440, 55.62988
808.3261, 115.3828
808.8082, 123.5303
809.2903, 74.73340
809.7725, 53.66309
810.2546, 67.12402
810.7367, 87.77148
811.2188, 114.3281
811.7009, 133.4121
812.1830, 124.8555
812.6652, 88.59668
813.1473, 66.74707
813.6294, 72.27441
814.1115, 73.73242
814.5936, 64.94629
815.0757, 52.00781
815.5579, 31.96777
816.0400, 12.53320
816.5221, 11.53516
817.0042, 38.33301
817.4863, 63.66016
817.9684, 62.95801
818.4506, 59.64258
818.9327, 78.72070
819.4148, 112.0371
819.8969, 143.2607
820.3790, 166.4912
820.8611, 177.2188
821.3433, 167.4844
821.8254, 146.5820
822.3075, 137.0117
822.7896, 136.7686
823.2717, 130.4023
823.7538, 114.5566
824.2360, 98.77539
824.7181, 90.75879
825.2002, 84.20996
825.6823, 57.66699
826.1644, 4.266602
826.6465, 19.92871
827.1287, 41.15723
827.6108, 90.12109
828.0929, 83.96289
828.5750, 54.38281
829.0571, 41.88281
829.5392, 46.47070
830.0214, 48.10547
830.5035, 35.89746
830.9856, 33.22656
831.4677, 57.59277
831.9498, 84.19434
832.4319, 90.94336
832.9141, 82.57910
833.3962, 75.97070
833.8783, 76.81934
834.3604, 80.47754
834.8425, 83.29004
835.3246, 87.72949
835.8068, 100.1670
836.2889, 116.0518
836.7710, 125.0654
837.2531, 124.3477
837.7352, 116.0469
838.2173, 98.60840
838.6995, 78.77832
839.1816, 76.95508
839.6637, 89.08105
840.1458, 81.12598
840.6279, 46.12695
841.1100, 31.61621
841.5922, 73.31250
842.0743, 142.9141
842.5564, 175.9033
843.0385, 166.0264
843.5206, 154.1143
844.0027, 144.7617
844.4849, 132.1602
844.9670, 103.3379
845.4491, 76.40234
845.9312, 77.13477
846.4133, 105.5703
846.8954, 121.3340
847.3776, 114.2549
847.8597, 109.0215
848.3418, 106.3916
848.8239, 109.5557
849.3060, 129.7656
849.7881, 154.0137
850.2703, 155.1738
850.7524, 125.5771
851.2345, 98.53516
851.7166, 97.58789
852.1987, 95.78711
852.6808, 65.27441
853.1630, 22.21289
853.6451, 13.65625
854.1272, 35.37402
854.6093, 29.54980
855.0914, 19.24219
855.5735, 73.06250
856.0557, 73.54688
856.5378, 42.14844
857.0199, 33.01660
857.5020, 49.11914
857.9841, 67.57422
858.4662, 76.50293
858.9484, 80.80664
859.4305, 81.49023
859.9126, 78.23047
860.3947, 68.73340
860.8768, 51.29297
861.3589, 45.56738
861.8411, 59.72070
862.3232, 80.90234
862.8053, 106.4951
863.2874, 132.5537
863.7695, 142.0664
864.2516, 122.7139
864.7338, 104.3809
865.2159, 81.55469
865.6980, 68.83203
866.1801, 73.44141
866.6622, 90.54785
867.1443, 122.2197
867.6265, 169.7695
868.1086, 203.1787
868.5907, 228.3809
869.0728, 226.5713
869.5549, 164.8281
870.0370, 97.97461
870.5192, 70.12012
871.0013, 74.04004
871.4834, 87.04297
871.9655, 106.4727
872.4476, 110.9453
872.9297, 65.09375
873.4119, 20.38574
873.8940, 35.62500
874.3761, 80.60645
874.8582, 97.29199
875.3403, 76.64453
875.8224, 52.43848
876.3046, 46.35254
876.7867, 50.75684
877.2688, 60.85742
877.7509, 71.75195
878.2330, 65.82324
878.7151, 45.80859
879.1973, 37.69727
879.6794, 53.37207
880.1615, 79.05273
880.6436, 102.0283
881.1257, 118.5479
881.6078, 98.07617
882.0900, 39.13770
882.5721, 14.54980
883.0542, 44.89258
883.5363, 85.71484
884.0184, 102.7842
884.5005, 101.4688
884.9827, 96.10059
885.4648, 80.11719
885.9469, 77.18652
886.4290, 92.94629
886.9111, 110.4268
887.3932, 127.9717
887.8754, 139.3516
888.3575, 136.1006
888.8396, 118.7227
889.3217, 101.3564
889.8038, 80.14258
890.2859, 64.60449
890.7681, 58.75098
891.2502, 55.15234
891.7323, 45.09863
892.2144, 36.77441
892.6965, 50.17676
893.1786, 90.92285
893.6608, 107.9688
894.1429, 62.17676
894.6250, 18.96777
895.1071, 11.89258
895.5892, 20.64844
896.0714, 23.87695
896.5535, 22.83887
897.0356, 30.70312
897.5177, 53.67773
897.9998, 80.83789
898.4819, 125.5898
898.9641, 153.3828
899.4462, 102.6377
899.9283, 13.97656
900.4104, 28.91211
900.8925, 10.98145
901.3746, 24.27734
901.8568, 50.41504
902.3389, 68.77734
902.8210, 77.00488
903.3031, 79.98535
903.7852, 96.23047
904.2673, 121.5068
904.7495, 120.3525
905.2316, 78.37402
905.7137, 31.66504
906.1958, 23.31152
906.6779, 43.22168
907.1600, 54.45508
907.6422, 57.93652
908.1243, 71.76172
908.6064, 100.3545
909.0885, 112.7617
909.5706, 86.62402
910.0527, 43.00098
910.5349, 24.69922
911.0170, 33.61523
911.4991, 28.22070
911.9812, 2.076172
912.4633, 6.507813
912.9454, 18.83691
913.4276, 55.06055
913.9097, 88.34082
914.3918, 115.8643
914.8739, 124.6123
915.3560, 107.2246
915.8381, 87.69531
916.3203, 49.58691
916.8024, 37.38574
917.2845, 105.0781
917.7666, 179.5518
918.2487, 155.8311
918.7308, 40.05469
919.2130, 22.30664
919.6951, 19.88965
920.1772, 42.67969
920.6593, 2.296875
921.1414, 28.42480
921.6235, 14.71387
922.1057, 83.32617
922.5878, 91.77246
923.0699, 26.17480
923.5520, 19.52441
924.0341, 11.43555
924.5162, 6.198242
924.9984, 23.46875
925.4805, 37.06250
925.9626, 44.66016
926.4447, 46.51172
926.9268, 41.10742
927.4089, 25.68457
927.8911, 20.36621
928.3732, 44.00195
928.8553, 72.71973
929.3374, 95.89355
929.8195, 108.8496
930.3016, 96.80957
930.7838, 67.64648
931.2659, 58.06836
931.7480, 92.69824
932.2301, 124.4512
932.7122, 96.84766
933.1943, 56.40820
933.6765, 72.27930
934.1586, 120.7363
934.6407, 138.4580
935.1228, 116.4209
935.6049, 99.88379
936.0870, 127.7373
936.5692, 159.1641
937.0513, 126.1514
937.5334, 61.01953
938.0155, 35.31152
938.4976, 45.80371
938.9797, 52.66113
939.4619, 41.54785
939.9440, 22.76367
940.4261, 1.343750
940.9082, 13.59277
941.3903, 7.656250
941.8724, 53.57324
942.3546, 72.50000
942.8367, 59.66211
943.3188, 36.43848
943.8009, 12.37695
944.2830, 0.5087890
944.7651, 24.02051
945.2472, 73.04492
945.7293, 95.99414
946.2114, 94.06836
946.6935, 103.6572
947.1757, 132.6504
947.6578, 146.4766
948.1399, 121.9883
948.6220, 78.58203
949.1041, 50.43457
949.5862, 37.23828
950.0684, 22.34766
950.5505, 2.909180
951.0326, 8.483398
951.5147, 52.78027
951.9968, 96.12988
952.4789, 108.5918
952.9611, 99.26465
953.4432, 91.29688
953.9253, 85.83887
954.4074, 72.84668
954.8895, 49.16309
955.3716, 27.54102
955.8538, 7.733398
956.3359, 0.2753910
956.8180, 20.35938
957.3001, 58.17773
957.7822, 72.60938
958.2643, 46.39941
958.7465, 46.13867
959.2286, 86.61230
959.7107, 114.7705
960.1928, 114.0068
960.6749, 96.02734
961.1570, 65.30273
961.6392, 26.13281
962.1213, 10.60547
962.6034, 31.61133
963.0855, 51.68750
963.5676, 71.87402
964.0497, 88.62500
964.5319, 100.9756
965.0140, 109.0996
965.4961, 114.6572
965.9782, 117.3008
966.4603, 109.1221
966.9424, 71.37305
967.4246, 51.22754
967.9067, 72.15918
968.3888, 87.06738
968.8709, 62.08008
969.3530, 25.78125
969.8351, 16.99805
970.3173, 36.83691
970.7994, 60.54883
971.2815, 98.91406
971.7636, 120.7842
972.2457, 115.3584
972.7278, 98.11523
973.2100, 71.32812
973.6921, 41.21289
974.1742, 10.36816
974.6563, 21.66895
975.1384, 22.56738
975.6205, 46.46484
976.1027, 100.3994
976.5848, 115.0547
977.0669, 108.5586
977.5490, 82.69043
978.0311, 53.35156
978.5132, 53.27637
978.9954, 87.26758
979.4775, 109.5518
979.9596, 99.81152
980.4417, 82.87598
980.9238, 50.70117
981.4059, 28.46289
981.8881, 51.46875
982.3702, 97.90625
982.8523, 121.4980
983.3344, 112.5791
983.8165, 101.9785
984.2986, 84.11035
984.7808, 85.93262
985.2629, 145.4863
985.7450, 206.2510
986.2271, 215.7305
986.7092, 187.9688
987.1913, 162.1992
987.6735, 147.4971
988.1556, 125.0898
988.6377, 72.62500
989.1198, 30.74316
989.6019, 29.05762
990.0840, 36.88477
990.5662, 17.59082
991.0483, 14.28613
991.5304, 19.19238
992.0125, 13.98340
992.4946, 43.19434
992.9767, 51.14160
993.4589, 49.76074
993.9410, 37.70605
994.4231, 25.74512
994.9052, 27.28809
995.3873, 37.58398
995.8694, 40.33301
996.3516, 30.01172
996.8337, 26.72266
997.3158, 46.10449
997.7979, 68.59570
998.2800, 72.03418
998.7621, 75.62988
999.2443, 116.3291
999.7264, 172.5938
1000.208, 180.9902
1000.691, 118.5391
1001.173, 67.37793
1001.655, 68.99316
1002.137, 86.78809
1002.619, 116.9092
1003.101, 139.1289
1003.583, 120.9873
1004.065, 79.29297
1004.548, 61.79395
1005.030, 83.00098
1005.512, 113.3027
1005.994, 163.5693
1006.476, 191.2920
1006.958, 142.0371
1007.440, 79.28223
1007.922, 75.95215
1008.404, 113.4932
1008.887, 127.0586
1009.369, 97.83984
1009.851, 72.41992
1010.333, 63.85449
1010.815, 74.22266
1011.297, 120.6631
1011.779, 167.0068
1012.261, 175.3057
1012.744, 152.4727
1013.226, 119.3477
1013.708, 78.72852
1014.190, 50.17676
1014.672, 58.60645
1015.154, 60.26758
1015.636, 14.84766
1016.118, 31.23145
1016.600, 28.75098
1017.083, 9.756836
1017.565, 53.38184
1018.047, 97.03320
1018.529, 121.9795
1019.011, 113.7891
1019.493, 95.31055
1019.975, 66.41113
1020.457, 40.75684
1020.940, 21.19043
1021.422, 15.67773
1021.904, 50.54883
1022.386, 133.8262
1022.868, 174.0391
1023.350, 95.57715
1023.832, 36.08984
1024.314, 69.83008
1024.797, 115.3818
1025.279, 105.1680
1025.761, 67.14941
1026.243, 55.50879
1026.725, 77.76172
1027.207, 100.2373
1027.689, 130.9561
1028.171, 139.7676
1028.653, 87.59277
1029.135, 42.92676
1029.618, 66.72168
1030.100, 118.5430
1030.582, 128.5381
1031.064, 90.99805
1031.546, 67.96484
1032.028, 82.58301
1032.510, 89.44922
1032.992, 77.15332
1033.475, 64.41309
1033.957, 44.59863
1034.439, 36.19922
1034.921, 79.11133
1035.403, 171.1953
1035.885, 215.3359
1036.367, 170.9561
1036.849, 133.7939
1037.332, 109.8398
1037.814, 93.98535
1038.296, 88.58789
1038.778, 87.08887
1039.260, 80.79688
1039.742, 71.04492
1040.224, 69.40430
1040.706, 85.63965
1041.188, 90.95215
1041.671, 74.87988
1042.153, 64.23926
1042.635, 72.34277
1043.117, 85.15527
1043.599, 89.05273
1044.081, 85.99219
1044.563, 85.87988
1045.045, 97.12695
1045.527, 83.92871
1046.010, 26.50781
1046.492, 6.239258
1046.974, 19.76855
1047.456, 48.98828
1047.938, 28.24609
1048.420, 18.63672
1048.902, 19.03809
1049.384, 38.92676
1049.866, 74.86719
1050.349, 82.62402
1050.831, 89.18066
1051.313, 104.0283
1051.795, 105.0117
1052.277, 70.87109
1052.759, 26.44434
1053.241, 28.85547
1053.723, 76.70312
1054.206, 69.84570
1054.688, 1.232422
1055.170, 23.63770
1055.652, 17.85059
1056.134, 70.15625
1056.616, 103.7334
1057.098, 120.7129
1057.580, 121.3574
1058.063, 109.2754
1058.545, 105.7803
1059.027, 109.0225
1059.509, 93.54102
1059.991, 57.46777
1060.473, 26.36328
1060.955, 11.37402
1061.437, 18.00781
1061.919, 60.55859
1062.401, 116.6562
1062.884, 125.7324
1063.366, 103.3936
1063.848, 6.708984
1064.330, 75.23828
1064.812, 120.3789
1065.294, 130.6924
1065.776, 1.840820
1066.258, 52.67578
1066.741, 31.48926
1067.223, 7.348633
1067.705, 83.45410
1068.187, 25.17383
1068.669, 49.31934
1069.151, 50.70898
1069.633, 85.54492
1070.115, 47.93945
1070.598, 32.68848
1071.080, 89.92578
1071.562, 107.0215
1072.044, 61.15918
1072.526, 98.25195
1073.008, 12.88086
1073.490, 5.735352
1073.972, 78.31934
1074.454, 39.43945
1074.937, 71.21191
1075.419, 98.27734
1075.901, 91.96680
1076.383, 82.98438
1076.865, 96.16895
1077.347, 112.8418
1077.829, 107.4023
1078.311, 91.24316
1078.793, 99.54785
1079.276, 139.9590
1079.758, 155.5332
1080.240, 100.6719
1080.722, 56.62793
1081.204, 66.73145
1081.686, 76.75684
1082.168, 39.99414
1082.650, 11.83984
1083.133, 32.55566
1083.615, 20.17285
1084.097, 4.406250
1084.579, 53.62109
1085.061, 92.72168
1085.543, 128.0215
1086.025, 141.8994
1086.507, 111.9795
1086.990, 76.77832
1087.472, 74.29785
1087.954, 96.53320
1088.436, 108.3086
1088.918, 107.8203
1089.400, 102.9883
1089.882, 91.58594
1090.364, 82.20801
1090.846, 76.24512
1091.328, 75.29102
1091.811, 81.97461
1092.293, 91.01270
1092.775, 92.82715
1093.257, 87.50488
1093.739, 76.26367
1094.221, 59.59277
1094.703, 65.39941
1095.185, 99.65527
1095.668, 112.8965
1096.150, 82.17480
1096.632, 48.70215
1097.114, 64.19531
1097.596, 106.0068
1098.078, 111.3975
1098.560, 91.84375
1099.042, 95.83203
1099.525, 122.6484
1100.007, 126.4961
1100.489, 97.10840
1100.971, 64.60156
1101.453, 45.65234
1101.935, 47.19922
1102.417, 105.1045
1102.899, 168.2471
1103.381, 145.6348
1103.864, 77.02344
1104.346, 43.77344
1104.828, 51.51953
1105.310, 57.53320
1105.792, 44.14160
1106.274, 30.86914
1106.756, 32.83008
1107.238, 42.11328
1107.720, 57.61719
1108.203, 70.03906
1108.685, 61.49512
1109.167, 46.12793
1109.649, 55.98828
1110.131, 95.68848
1110.613, 128.5283
1111.095, 150.7266
1111.577, 156.5703
1112.060, 132.0977
1112.542, 105.4023
1113.024, 91.34668
1113.506, 83.38672
1113.988, 59.77734
1114.470, 29.08789
1114.952, 39.05469
1115.434, 116.8506
1115.917, 157.5439
1116.399, 146.3760
1116.881, 132.1465
1117.363, 127.9355
1117.845, 119.8320
1118.327, 95.77441
1118.809, 65.89160
1119.291, 47.93555
1119.773, 42.15527
1120.255, 59.43359
1120.738, 101.1904
1121.220, 104.6514
1121.702, 60.89941
1122.184, 36.60645
1122.666, 59.44043
1123.148, 100.8740
1123.630, 137.6963
1124.112, 160.3760
1124.595, 136.2383
1125.077, 84.83887
1125.559, 58.64062
1126.041, 53.02344
1126.523, 52.15430
1127.005, 50.01270
1127.487, 55.47070
1127.969, 75.52832
1128.452, 85.77148
1128.934, 49.36426
1129.416, 8.717773
1129.898, 4.119141
1130.380, 21.49023
1130.862, 50.47852
1131.344, 82.83008
1131.826, 100.2871
1132.308, 98.77734
1132.791, 92.01367
1133.273, 82.54980
1133.755, 72.00488
1134.237, 52.99023
1134.719, 42.18457
1135.201, 53.38574
1135.683, 75.02832
1136.165, 98.42871
1136.647, 120.5312
1137.130, 128.7627
1137.612, 121.7129
1138.094, 102.8799
1138.576, 58.63672
1139.058, 35.84180
1139.540, 49.35156
1140.022, 76.25391
1140.504, 104.4746
1140.987, 129.5361
1141.469, 149.5850
1141.951, 162.2637
1142.433, 141.3643
1142.915, 88.08594
1143.397, 34.39746
1143.879, 14.15332
1144.361, 19.42773
1144.844, 29.61230
1145.326, 78.49023
1145.808, 81.64746
1146.290, 67.68652
1146.772, 81.51367
1147.254, 105.9395
1147.736, 113.7158
1148.218, 105.6914
1148.700, 80.64355
1149.182, 44.65723
1149.665, 11.82129
1150.147, 12.73535
1150.629, 21.45703
1151.111, 7.833008
1151.593, 31.48438
1152.075, 4.964844
1152.557, 17.67676
1153.039, 21.65723
1153.522, 85.17871
1154.004, 113.7207
1154.486, 106.4492
1154.968, 101.4795
1155.450, 119.8574
1155.932, 102.4961
1156.414, 5.073242
1156.896, 54.27051
1157.379, 34.31055
1157.861, 11.77148
1158.343, 59.11230
1158.825, 93.54102
1159.307, 83.49414
1159.789, 35.40430
1160.271, 36.77148
1160.753, 89.04004
1161.235, 126.6768
1161.718, 143.2734
1162.200, 156.8945
1162.682, 173.4961
1163.164, 169.3887
1163.646, 121.4971
1164.128, 60.92188
1164.610, 33.44824
1165.092, 27.95508
1165.574, 27.68457
1166.057, 30.80664
1166.539, 35.25879
1167.021, 41.13184
1167.503, 50.05762
1167.985, 62.52441
1168.467, 76.02148
1168.949, 103.2197
1169.431, 112.5479
1169.914, 57.24219
1170.396, 9.028320
1170.878, 30.57520
1171.360, 79.14844
1171.842, 100.2012
1172.324, 95.03711
1172.806, 90.00195
1173.288, 84.57324
1173.771, 86.35840
1174.253, 107.3379
1174.735, 104.1709
1175.217, 52.52930
1175.699, 22.20020
1176.181, 59.32715
1176.663, 112.6211
1177.145, 112.2256
1177.627, 76.33398
1178.109, 79.65137
1178.592, 115.2441
1179.074, 113.9189
1179.556, 81.00781
1180.038, 75.77051
1180.520, 106.1211
1181.002, 113.0645
1181.484, 61.94336
1181.966, 8.394531
1182.449, 15.36523
1182.931, 40.59375
1183.413, 37.79004
1183.895, 27.61426
1184.377, 38.40723
1184.859, 61.55176
1185.341, 72.59082
1185.823, 71.16602
1186.306, 85.56934
1186.788, 146.6035
1187.270, 171.7871
1187.752, 110.2891
1188.234, 58.46289
1188.716, 45.51562
1189.198, 54.43848
1189.680, 88.35352
1190.162, 121.3555
1190.645, 100.6953
1191.127, 34.44922
1191.609, 32.12598
1192.091, 99.93262
1192.573, 129.9229
1193.055, 119.0273
1193.537, 104.5049
1194.019, 99.13379
1194.501, 119.4570
1194.984, 181.6318
1195.466, 236.0938
1195.948, 210.5693
1196.430, 145.5879
1196.912, 75.29004
1197.394, 23.19824
1197.876, 39.56641
1198.358, 95.79785
1198.841, 109.8740
1199.323, 75.43164
1199.805, 49.87695
1200.287, 48.37500
1200.769, 62.52246
1201.251, 118.5322
1201.733, 152.3438
1202.215, 112.4141
1202.698, 63.54883
1203.180, 56.16797
1203.662, 74.95410
1204.144, 96.31152
1204.626, 119.2793
1205.108, 111.5908
1205.590, 65.16309
1206.072, 55.39355
1206.554, 90.29102
1207.036, 110.6367
1207.519, 98.28320
1208.001, 91.87695
1208.483, 120.3330
1208.965, 154.3838
1209.447, 152.8535
1209.929, 130.8945
1210.411, 104.3242
1210.893, 82.02246
1211.376, 83.58398
1211.858, 100.3545
1212.340, 111.2861
1212.822, 111.3594
1213.304, 103.0322
1213.786, 80.37109
1214.268, 67.42285
1214.750, 86.93945
1215.233, 96.84766
1215.715, 58.34863
1216.197, 30.64941
1216.679, 67.51953
1217.161, 124.8467
1217.643, 133.2461
1218.125, 99.16797
1218.607, 76.25977
1219.089, 64.72363
1219.572, 56.82910
1220.054, 52.39355
1220.536, 62.05176
1221.018, 87.40820
1221.500, 112.4814
1221.982, 128.3145
1222.464, 134.5059
1222.946, 123.6377
1223.428, 110.9961
1223.911, 122.8359
1224.393, 139.4697
1224.875, 140.9814
1225.357, 125.4600
1225.839, 81.46875
1226.321, 19.60938
1226.803, 10.97266
1227.285, 10.70410
1227.768, 25.81543
1228.250, 16.52148
1228.732, 12.17188
1229.214, 13.47852
1229.696, 29.27441
1230.178, 71.17578
1230.660, 113.4121
1231.142, 126.8242
1231.625, 120.6963
1232.107, 123.6348
1232.589, 133.1357
1233.071, 123.7168
1233.553, 100.6846
1234.035, 95.64258
1234.517, 119.5234
1234.999, 104.5811
1235.481, 36.97070
1235.964, 6.120117
1236.446, 41.73047
1236.928, 99.98340
1237.410, 122.6211
1237.892, 121.8389
1238.374, 58.19922
1238.856, 12.34180
1239.338, 2.401367
1239.820, 17.94043
1240.303, 0.0000000E+00
##END=



