##NAMES=Nioboaeschynite-(Y)
##RRUFFID=R110140
##IDEAL CHEMISTRY=(Y^3+^,Ca,Th^4+^,Fe^3+^)(Nb^5+^,Ti^4+^,Ta^5+^)_2_(O,OH)_6_
##LOCALITY=Quadeville, Lyndoch Township, Renfrew County, Ontario, Canada
##OWNER=RRUFF
##SOURCE=Donald M Doell
##DESCRIPTION=Dark reddish-brown fragment - metamict
##STATUS=The identification of this mineral is not yet confirmed.
##URL=rruff.info/R110140
177.7553, 1805.502
178.2374, 1810.978
178.7195, 1814.238
179.2017, 1818.924
179.6838, 1823.815
180.1659, 1826.749
180.6480, 1827.726
181.1301, 1828.070
181.6122, 1829.427
182.0944, 1831.387
182.5765, 1832.459
183.0586, 1831.485
183.5407, 1829.310
184.0228, 1827.576
184.5049, 1826.327
184.9871, 1825.465
185.4692, 1824.864
185.9513, 1824.511
186.4334, 1824.495
186.9155, 1825.517
187.3976, 1826.939
187.8798, 1826.271
188.3619, 1823.016
188.8440, 1819.175
189.3261, 1817.880
189.8082, 1818.914
190.2903, 1819.801
190.7725, 1818.629
191.2546, 1815.939
191.7367, 1815.257
192.2188, 1817.110
192.7009, 1819.989
193.1830, 1821.307
193.6652, 1821.057
194.1473, 1820.744
194.6294, 1821.102
195.1115, 1822.093
195.5936, 1823.417
196.0757, 1825.142
196.5579, 1827.024
197.0400, 1828.761
197.5221, 1830.396
198.0042, 1831.474
198.4863, 1831.557
198.9684, 1830.640
199.4506, 1829.930
199.9327, 1829.651
200.4148, 1829.480
200.8969, 1828.799
201.3790, 1827.639
201.8611, 1825.883
202.3433, 1823.209
202.8254, 1819.508
203.3075, 1816.296
203.7896, 1813.771
204.2717, 1811.739
204.7538, 1809.723
205.2360, 1807.634
205.7181, 1805.758
206.2002, 1804.205
206.6823, 1802.926
207.1644, 1802.207
207.6465, 1802.478
208.1287, 1803.057
208.6108, 1801.561
209.0929, 1797.194
209.5750, 1792.889
210.0571, 1790.571
210.5392, 1790.588
211.0214, 1790.959
211.5035, 1791.916
211.9856, 1793.025
212.4677, 1792.559
212.9498, 1789.989
213.4319, 1787.148
213.9140, 1785.121
214.3962, 1784.086
214.8783, 1783.404
215.3604, 1783.249
215.8425, 1783.401
216.3246, 1782.850
216.8067, 1781.198
217.2889, 1779.572
217.7710, 1778.703
218.2531, 1778.879
218.7352, 1778.880
219.2173, 1778.619
219.6994, 1778.052
220.1816, 1777.018
220.6637, 1775.175
221.1458, 1773.327
221.6279, 1771.986
222.1100, 1771.236
222.5921, 1770.744
223.0743, 1770.750
223.5564, 1771.022
224.0385, 1770.391
224.5206, 1768.654
225.0027, 1766.449
225.4848, 1764.089
225.9670, 1761.396
226.4491, 1759.148
226.9312, 1757.563
227.4133, 1756.514
227.8954, 1755.159
228.3775, 1753.136
228.8597, 1751.401
229.3418, 1750.709
229.8239, 1751.850
230.3060, 1752.137
230.7881, 1751.117
231.2702, 1749.016
231.7524, 1746.856
232.2345, 1743.954
232.7166, 1741.888
233.1987, 1741.980
233.6808, 1746.205
234.1629, 1747.995
234.6451, 1745.884
235.1272, 1740.924
235.6093, 1737.857
236.0914, 1737.794
236.5735, 1738.098
237.0556, 1737.298
237.5378, 1734.908
238.0199, 1732.551
238.5020, 1730.402
238.9841, 1728.391
239.4662, 1726.299
239.9483, 1724.383
240.4305, 1722.138
240.9126, 1719.135
241.3947, 1714.571
241.8768, 1711.119
242.3589, 1709.099
242.8410, 1708.278
243.3232, 1707.936
243.8053, 1708.694
244.2874, 1709.046
244.7695, 1708.122
245.2516, 1705.177
245.7337, 1702.420
246.2159, 1699.394
246.6980, 1696.601
247.1801, 1696.081
247.6622, 1699.727
248.1443, 1702.712
248.6264, 1702.334
249.1086, 1696.244
249.5907, 1692.557
250.0728, 1692.558
250.5549, 1694.727
251.0370, 1694.864
251.5191, 1691.826
252.0013, 1688.635
252.4834, 1686.715
252.9655, 1686.880
253.4476, 1686.267
253.9297, 1684.441
254.4118, 1682.063
254.8940, 1680.625
255.3761, 1680.592
255.8582, 1680.659
256.3403, 1680.275
256.8224, 1679.297
257.3046, 1678.260
257.7867, 1677.186
258.2688, 1675.993
258.7509, 1674.505
259.2330, 1672.590
259.7151, 1670.628
260.1973, 1668.915
260.6794, 1667.785
261.1615, 1665.315
261.6436, 1660.680
262.1257, 1655.469
262.6078, 1652.751
263.0900, 1653.912
263.5721, 1654.378
264.0542, 1652.161
264.5363, 1646.580
265.0184, 1643.089
265.5005, 1642.324
265.9827, 1642.884
266.4648, 1642.708
266.9469, 1641.508
267.4290, 1640.453
267.9111, 1640.059
268.3932, 1640.406
268.8754, 1639.784
269.3575, 1637.811
269.8396, 1635.390
270.3217, 1633.655
270.8038, 1632.661
271.2859, 1632.032
271.7681, 1631.905
272.2502, 1632.218
272.7323, 1631.261
273.2144, 1628.493
273.6965, 1625.558
274.1786, 1624.409
274.6608, 1625.385
275.1429, 1626.352
275.6250, 1627.076
276.1071, 1627.439
276.5892, 1626.117
277.0714, 1622.644
277.5535, 1618.889
278.0356, 1616.792
278.5177, 1616.536
278.9998, 1615.992
279.4819, 1614.829
279.9641, 1613.013
280.4462, 1610.273
280.9283, 1606.415
281.4104, 1602.396
281.8925, 1599.014
282.3746, 1596.287
282.8568, 1593.453
283.3389, 1590.390
283.8210, 1587.206
284.3031, 1584.212
284.7852, 1581.464
285.2673, 1578.715
285.7495, 1575.432
286.2316, 1571.752
286.7137, 1569.385
287.1958, 1568.938
287.6779, 1569.363
288.1600, 1568.301
288.6422, 1565.718
289.1243, 1563.240
289.6064, 1562.313
290.0885, 1562.512
290.5706, 1561.436
291.0527, 1558.384
291.5349, 1555.073
292.0170, 1554.773
292.4991, 1557.192
292.9812, 1559.300
293.4633, 1559.485
293.9454, 1558.047
294.4276, 1555.549
294.9097, 1551.789
295.3918, 1548.127
295.8739, 1546.517
296.3560, 1546.648
296.8381, 1546.944
297.3203, 1547.217
297.8024, 1547.062
298.2845, 1545.209
298.7666, 1541.469
299.2487, 1537.685
299.7308, 1535.917
300.2130, 1535.604
300.6951, 1535.157
301.1772, 1533.720
301.6593, 1531.890
302.1414, 1530.536
302.6235, 1529.653
303.1057, 1528.819
303.5878, 1527.798
304.0699, 1526.571
304.5520, 1525.096
305.0341, 1523.053
305.5162, 1521.052
305.9984, 1519.953
306.4805, 1519.624
306.9626, 1519.068
307.4447, 1517.372
307.9268, 1515.123
308.4089, 1513.079
308.8911, 1511.411
309.3732, 1510.042
309.8553, 1509.411
310.3374, 1509.171
310.8195, 1508.113
311.3016, 1504.334
311.7838, 1500.071
312.2659, 1497.376
312.7480, 1497.057
313.2301, 1497.377
313.7122, 1497.947
314.1943, 1498.400
314.6765, 1497.952
315.1586, 1495.544
315.6407, 1492.636
316.1228, 1489.753
316.6049, 1486.639
317.0870, 1485.071
317.5692, 1487.839
318.0513, 1492.204
318.5334, 1494.321
319.0155, 1491.791
319.4976, 1487.755
319.9797, 1482.899
320.4619, 1477.111
320.9440, 1472.670
321.4261, 1471.291
321.9082, 1471.141
322.3903, 1470.493
322.8724, 1468.649
323.3546, 1466.570
323.8367, 1464.220
324.3188, 1461.638
324.8009, 1459.691
325.2830, 1459.215
325.7651, 1459.028
326.2473, 1458.374
326.7294, 1456.880
327.2115, 1455.331
327.6936, 1453.716
328.1757, 1452.124
328.6578, 1450.825
329.1400, 1450.719
329.6221, 1450.215
330.1042, 1448.569
330.5863, 1444.577
331.0684, 1441.424
331.5505, 1439.113
332.0327, 1437.626
332.5148, 1437.007
332.9969, 1437.651
333.4790, 1438.543
333.9611, 1439.387
334.4432, 1440.210
334.9254, 1440.678
335.4075, 1440.789
335.8896, 1440.466
336.3717, 1439.486
336.8538, 1437.466
337.3359, 1435.711
337.8180, 1434.786
338.3001, 1434.680
338.7823, 1433.625
339.2644, 1431.282
339.7465, 1428.754
340.2286, 1427.420
340.7107, 1427.695
341.1928, 1426.799
341.6750, 1423.663
342.1571, 1419.182
342.6392, 1417.627
343.1213, 1419.657
343.6034, 1421.127
344.0855, 1418.089
344.5677, 1410.820
345.0498, 1405.597
345.5319, 1403.463
346.0140, 1403.273
346.4961, 1403.328
346.9782, 1403.603
347.4604, 1403.334
347.9425, 1401.481
348.4246, 1398.637
348.9067, 1397.166
349.3888, 1397.345
349.8709, 1398.137
350.3531, 1398.576
350.8352, 1398.635
351.3173, 1398.225
351.7994, 1396.964
352.2815, 1395.302
352.7636, 1393.895
353.2458, 1392.731
353.7279, 1391.858
354.2100, 1391.120
354.6921, 1390.712
355.1742, 1391.086
355.6563, 1393.308
356.1385, 1395.355
356.6206, 1395.047
357.1027, 1392.723
357.5848, 1390.123
358.0669, 1388.403
358.5490, 1386.833
359.0312, 1384.579
359.5133, 1380.987
359.9954, 1377.807
360.4775, 1376.486
360.9596, 1376.326
361.4417, 1375.855
361.9239, 1373.940
362.4060, 1371.985
362.8881, 1370.945
363.3702, 1371.168
363.8523, 1370.990
364.3344, 1369.680
364.8166, 1367.754
365.2987, 1365.786
365.7808, 1363.330
366.2629, 1361.478
366.7450, 1360.786
367.2271, 1361.247
367.7093, 1361.460
368.1914, 1361.434
368.6735, 1360.981
369.1556, 1359.956
369.6377, 1357.581
370.1198, 1355.604
370.6020, 1354.188
371.0841, 1353.211
371.5662, 1352.264
372.0483, 1351.285
372.5304, 1350.398
373.0125, 1349.717
373.4947, 1349.484
373.9768, 1348.740
374.4589, 1347.381
374.9410, 1345.583
375.4231, 1343.508
375.9052, 1340.842
376.3874, 1338.840
376.8695, 1338.230
377.3516, 1338.972
377.8337, 1338.543
378.3158, 1336.675
378.7979, 1334.469
379.2801, 1333.191
379.7622, 1332.907
380.2443, 1332.049
380.7264, 1330.015
381.2085, 1327.448
381.6906, 1326.367
382.1728, 1326.799
382.6549, 1326.897
383.1370, 1324.602
383.6191, 1320.722
384.1012, 1318.869
384.5833, 1319.719
385.0655, 1321.394
385.5476, 1321.405
386.0297, 1320.091
386.5118, 1318.724
386.9939, 1317.947
387.4760, 1317.462
387.9582, 1317.030
388.4403, 1316.656
388.9224, 1315.784
389.4045, 1313.479
389.8866, 1310.562
390.3687, 1308.196
390.8509, 1307.261
391.3330, 1306.537
391.8151, 1305.066
392.2972, 1303.041
392.7793, 1301.204
393.2614, 1300.069
393.7436, 1299.170
394.2257, 1298.084
394.7078, 1296.514
395.1899, 1295.301
395.6720, 1294.859
396.1541, 1294.920
396.6363, 1295.058
397.1184, 1295.637
397.6005, 1295.822
398.0826, 1295.211
398.5647, 1293.690
399.0468, 1292.188
399.5290, 1290.773
400.0111, 1289.424
400.4932, 1288.115
400.9753, 1286.688
401.4574, 1285.526
401.9395, 1284.745
402.4217, 1284.285
402.9038, 1283.865
403.3859, 1283.517
403.8680, 1283.174
404.3501, 1282.947
404.8322, 1283.164
405.3144, 1282.140
405.7965, 1279.218
406.2786, 1275.847
406.7607, 1274.723
407.2428, 1276.364
407.7249, 1277.369
408.2071, 1276.251
408.6892, 1273.453
409.1713, 1272.035
409.6534, 1272.196
410.1355, 1272.505
410.6176, 1271.440
411.0998, 1269.254
411.5819, 1267.460
412.0640, 1266.358
412.5461, 1265.749
413.0282, 1265.460
413.5103, 1265.430
413.9925, 1265.318
414.4746, 1265.224
414.9567, 1264.813
415.4388, 1263.422
415.9209, 1260.907
416.4030, 1258.155
416.8852, 1255.651
417.3673, 1253.431
417.8494, 1251.539
418.3315, 1249.972
418.8136, 1248.760
419.2957, 1248.065
419.7779, 1247.833
420.2600, 1247.585
420.7421, 1247.169
421.2242, 1246.645
421.7063, 1246.092
422.1884, 1245.638
422.6706, 1244.955
423.1527, 1243.781
423.6348, 1242.346
424.1169, 1241.080
424.5990, 1239.676
425.0811, 1238.769
425.5633, 1238.840
426.0454, 1240.133
426.5275, 1240.475
427.0096, 1238.945
427.4917, 1237.148
427.9738, 1236.487
428.4560, 1237.758
428.9381, 1238.423
429.4202, 1238.012
429.9023, 1236.824
430.3844, 1235.902
430.8665, 1235.385
431.3487, 1234.753
431.8308, 1233.763
432.3129, 1232.424
432.7950, 1230.754
433.2771, 1228.639
433.7592, 1226.543
434.2414, 1225.110
434.7235, 1224.299
435.2056, 1223.537
435.6877, 1222.646
436.1698, 1221.713
436.6519, 1220.984
437.1341, 1220.449
437.6162, 1219.779
438.0983, 1218.552
438.5804, 1217.070
439.0625, 1215.826
439.5446, 1214.887
440.0268, 1214.246
440.5089, 1213.969
440.9910, 1213.977
441.4731, 1214.116
441.9552, 1214.528
442.4373, 1214.864
442.9195, 1214.843
443.4016, 1214.454
443.8837, 1214.046
444.3658, 1213.671
444.8479, 1213.355
445.3300, 1213.138
445.8122, 1213.547
446.2943, 1213.342
446.7764, 1211.724
447.2585, 1209.310
447.7406, 1207.691
448.2227, 1207.846
448.7049, 1207.945
449.1870, 1207.376
449.6691, 1205.977
450.1512, 1205.069
450.6333, 1205.188
451.1154, 1205.263
451.5976, 1204.107
452.0797, 1201.219
452.5618, 1198.895
453.0439, 1197.545
453.5260, 1196.993
454.0081, 1196.680
454.4903, 1196.646
454.9724, 1196.646
455.4545, 1196.643
455.9366, 1196.592
456.4187, 1195.960
456.9008, 1194.581
457.3830, 1193.405
457.8651, 1193.586
458.3472, 1194.888
458.8293, 1196.707
459.3114, 1199.627
459.7935, 1202.133
460.2757, 1202.013
460.7578, 1199.614
461.2399, 1196.778
461.7220, 1194.094
462.2041, 1191.804
462.6862, 1190.278
463.1684, 1189.704
463.6505, 1189.323
464.1326, 1188.942
464.6147, 1188.501
465.0968, 1187.909
465.5789, 1187.561
466.0611, 1186.687
466.5432, 1184.611
467.0253, 1181.520
467.5074, 1179.284
467.9895, 1178.847
468.4716, 1178.744
468.9538, 1178.228
469.4359, 1176.704
469.9180, 1176.149
470.4001, 1177.290
470.8822, 1178.866
471.3643, 1178.687
471.8465, 1175.765
472.3286, 1174.025
472.8107, 1175.132
473.2928, 1178.296
473.7749, 1178.535
474.2570, 1175.320
474.7392, 1171.904
475.2213, 1171.073
475.7034, 1172.389
476.1855, 1172.709
476.6676, 1171.515
477.1497, 1169.976
477.6319, 1169.834
478.1140, 1170.713
478.5961, 1171.368
479.0782, 1171.137
479.5603, 1170.485
480.0424, 1170.001
480.5246, 1169.633
481.0067, 1168.973
481.4888, 1167.252
481.9709, 1165.403
482.4530, 1164.323
482.9352, 1164.455
483.4173, 1164.660
483.8994, 1164.307
484.3815, 1163.771
484.8636, 1163.630
485.3457, 1164.707
485.8279, 1165.470
486.3100, 1165.358
486.7921, 1164.367
487.2742, 1163.659
487.7563, 1163.693
488.2384, 1163.578
488.7206, 1162.691
489.2027, 1160.399
489.6848, 1159.172
490.1669, 1159.369
490.6490, 1160.310
491.1311, 1161.218
491.6133, 1162.247
492.0954, 1162.004
492.5775, 1159.250
493.0596, 1155.095
493.5417, 1154.073
494.0238, 1156.213
494.5060, 1158.739
494.9881, 1159.839
495.4702, 1159.700
495.9523, 1158.464
496.4344, 1155.817
496.9165, 1153.555
497.3987, 1154.275
497.8808, 1156.590
498.3629, 1157.880
498.8450, 1156.044
499.3271, 1153.699
499.8092, 1152.536
500.2914, 1152.391
500.7735, 1152.334
501.2556, 1152.039
501.7377, 1151.719
502.2198, 1151.636
502.7019, 1152.257
503.1841, 1152.016
503.6662, 1149.801
504.1483, 1147.024
504.6304, 1145.342
505.1125, 1145.235
505.5946, 1145.498
506.0768, 1146.146
506.5589, 1147.033
507.0410, 1147.316
507.5231, 1146.649
508.0052, 1146.318
508.4873, 1147.476
508.9695, 1150.123
509.4516, 1150.827
509.9337, 1149.224
510.4158, 1147.061
510.8979, 1146.418
511.3800, 1146.981
511.8622, 1147.385
512.3443, 1147.249
512.8264, 1146.816
513.3085, 1146.062
513.7906, 1145.204
514.2728, 1145.007
514.7549, 1147.347
515.2370, 1149.612
515.7191, 1149.164
516.2012, 1145.681
516.6833, 1142.244
517.1655, 1139.569
517.6476, 1137.939
518.1297, 1137.622
518.6118, 1140.534
519.0939, 1142.456
519.5760, 1142.110
520.0582, 1140.359
520.5403, 1139.270
521.0224, 1139.035
521.5045, 1139.210
521.9866, 1139.782
522.4688, 1140.743
522.9509, 1141.572
523.4330, 1142.324
523.9151, 1142.799
524.3972, 1142.515
524.8793, 1141.430
525.3615, 1141.543
525.8436, 1143.297
526.3257, 1145.521
526.8078, 1146.650
527.2899, 1146.754
527.7720, 1146.073
528.2542, 1143.863
528.7363, 1141.574
529.2184, 1141.556
529.7005, 1143.426
530.1826, 1145.093
530.6647, 1145.220
531.1469, 1144.629
531.6290, 1143.940
532.1111, 1143.199
532.5932, 1142.638
533.0753, 1142.457
533.5574, 1142.475
534.0396, 1142.507
534.5217, 1142.340
535.0038, 1142.429
535.4859, 1143.115
535.9680, 1144.132
536.4501, 1144.597
536.9323, 1144.171
537.4144, 1143.777
537.8965, 1143.777
538.3786, 1144.176
538.8607, 1144.398
539.3428, 1144.326
539.8250, 1144.386
540.3071, 1145.095
540.7892, 1146.357
541.2713, 1147.428
541.7534, 1148.183
542.2355, 1148.701
542.7177, 1148.979
543.1998, 1149.090
543.6819, 1149.263
544.1640, 1149.503
544.6461, 1149.923
545.1282, 1150.797
545.6104, 1152.034
546.0925, 1153.089
546.5746, 1153.554
547.0567, 1153.834
547.5388, 1154.247
548.0209, 1154.955
548.5031, 1155.398
548.9852, 1155.317
549.4673, 1154.982
549.9494, 1154.654
550.4315, 1154.064
550.9136, 1153.883
551.3958, 1154.162
551.8779, 1154.888
552.3600, 1156.179
552.8421, 1158.286
553.3242, 1160.083
553.8063, 1161.078
554.2885, 1161.337
554.7706, 1161.220
555.2527, 1160.680
555.7348, 1160.300
556.2169, 1160.874
556.6990, 1162.002
557.1812, 1162.596
557.6633, 1162.390
558.1454, 1162.034
558.6275, 1162.237
559.1096, 1162.723
559.5917, 1162.998
560.0739, 1162.180
560.5560, 1161.757
561.0381, 1162.971
561.5202, 1165.365
562.0023, 1166.974
562.4844, 1166.709
562.9666, 1166.044
563.4487, 1165.430
563.9308, 1164.698
564.4129, 1164.912
564.8950, 1166.571
565.3771, 1168.613
565.8593, 1170.229
566.3414, 1171.396
566.8235, 1172.172
567.3056, 1172.474
567.7877, 1172.529
568.2698, 1172.728
568.7520, 1173.074
569.2341, 1173.482
569.7162, 1173.993
570.1983, 1174.528
570.6804, 1175.054
571.1625, 1175.542
571.6447, 1175.734
572.1268, 1174.963
572.6089, 1174.122
573.0910, 1174.101
573.5731, 1175.054
574.0552, 1176.447
574.5374, 1178.868
575.0195, 1181.207
575.5016, 1182.431
575.9837, 1180.453
576.4658, 1179.658
576.9479, 1180.927
577.4301, 1183.464
577.9122, 1185.832
578.3943, 1188.250
578.8764, 1189.995
579.3585, 1190.705
579.8406, 1190.516
580.3228, 1190.349
580.8049, 1190.150
581.2870, 1190.299
581.7691, 1191.489
582.2512, 1193.330
582.7333, 1194.065
583.2155, 1193.521
583.6975, 1192.821
584.1796, 1192.856
584.6617, 1193.517
585.1439, 1194.674
585.6260, 1196.603
586.1081, 1198.496
586.5902, 1200.110
587.0723, 1201.323
587.5544, 1201.876
588.0366, 1200.808
588.5187, 1199.961
589.0008, 1200.129
589.4829, 1201.230
589.9650, 1201.710
590.4471, 1200.988
590.9293, 1200.327
591.4114, 1200.262
591.8935, 1200.789
592.3756, 1201.980
592.8577, 1204.110
593.3398, 1206.136
593.8220, 1206.759
594.3041, 1206.180
594.7862, 1206.012
595.2683, 1206.684
595.7504, 1207.551
596.2325, 1207.607
596.7147, 1207.196
597.1968, 1207.194
597.6789, 1208.544
598.1610, 1210.001
598.6431, 1210.751
599.1252, 1210.852
599.6074, 1210.606
600.0895, 1209.499
600.5716, 1208.599
601.0537, 1208.642
601.5358, 1210.057
602.0179, 1210.456
602.5001, 1208.520
602.9822, 1206.849
603.4643, 1207.667
603.9464, 1211.920
604.4285, 1215.039
604.9106, 1216.824
605.3928, 1217.320
605.8749, 1215.948
606.3570, 1212.899
606.8391, 1210.893
607.3212, 1211.251
607.8033, 1212.437
608.2855, 1212.010
608.7676, 1210.330
609.2497, 1208.734
609.7318, 1207.492
610.2139, 1206.962
610.6960, 1207.736
611.1782, 1209.778
611.6603, 1211.686
612.1424, 1213.121
612.6245, 1214.174
613.1066, 1214.898
613.5887, 1215.290
614.0709, 1215.433
614.5530, 1215.417
615.0351, 1215.109
615.5172, 1214.228
615.9993, 1212.538
616.4814, 1211.403
616.9636, 1211.142
617.4457, 1211.343
617.9278, 1211.047
618.4099, 1210.341
618.8920, 1210.228
619.3741, 1211.889
619.8563, 1213.794
620.3384, 1213.262
620.8205, 1210.725
621.3026, 1208.374
621.7847, 1207.377
622.2668, 1207.105
622.7490, 1207.356
623.2311, 1208.180
623.7132, 1208.597
624.1953, 1208.347
624.6774, 1207.632
625.1595, 1206.574
625.6417, 1204.891
626.1238, 1203.490
626.6059, 1202.391
627.0880, 1201.617
627.5701, 1201.238
628.0522, 1201.290
628.5344, 1201.500
629.0165, 1201.800
629.4986, 1202.245
629.9807, 1203.242
630.4628, 1204.602
630.9449, 1205.331
631.4271, 1204.317
631.9092, 1202.803
632.3913, 1201.903
632.8734, 1201.625
633.3555, 1202.041
633.8376, 1204.200
634.3198, 1206.238
634.8019, 1206.822
635.2840, 1205.435
635.7661, 1204.637
636.2482, 1205.494
636.7303, 1206.359
637.2125, 1206.044
637.6946, 1204.043
638.1767, 1202.365
638.6588, 1201.176
639.1409, 1200.204
639.6230, 1199.081
640.1052, 1197.826
640.5873, 1196.626
641.0694, 1195.442
641.5515, 1194.530
642.0336, 1194.558
642.5157, 1195.227
642.9979, 1195.660
643.4800, 1195.395
643.9621, 1194.753
644.4442, 1193.700
644.9263, 1192.358
645.4084, 1191.421
645.8906, 1191.391
646.3727, 1191.587
646.8548, 1191.822
647.3369, 1192.175
647.8190, 1191.921
648.3011, 1190.765
648.7833, 1189.450
649.2654, 1188.382
649.7475, 1187.502
650.2296, 1187.699
650.7117, 1189.267
651.1938, 1190.946
651.6760, 1190.838
652.1581, 1189.509
652.6402, 1188.766
653.1223, 1189.284
653.6044, 1190.079
654.0865, 1190.145
654.5687, 1189.858
655.0508, 1189.952
655.5329, 1191.557
656.0150, 1192.708
656.4971, 1192.492
656.9792, 1191.128
657.4614, 1189.799
657.9435, 1188.477
658.4256, 1187.317
658.9077, 1186.410
659.3898, 1185.739
659.8719, 1184.960
660.3541, 1184.034
660.8362, 1183.170
661.3183, 1182.550
661.8004, 1182.120
662.2825, 1181.712
662.7646, 1181.335
663.2468, 1180.723
663.7289, 1179.332
664.2110, 1177.698
664.6931, 1176.529
665.1752, 1176.062
665.6573, 1175.884
666.1395, 1176.116
666.6216, 1176.432
667.1037, 1176.426
667.5858, 1175.666
668.0679, 1175.048
668.5500, 1174.524
669.0322, 1174.232
669.5143, 1174.826
669.9964, 1176.747
670.4785, 1177.248
670.9606, 1174.861
671.4427, 1170.902
671.9249, 1169.159
672.4070, 1169.407
672.8891, 1169.958
673.3712, 1169.783
673.8533, 1169.395
674.3354, 1169.677
674.8176, 1170.523
675.2997, 1170.653
675.7818, 1168.554
676.2639, 1166.205
676.7460, 1164.873
677.2281, 1165.001
677.7103, 1165.044
678.1924, 1164.586
678.6745, 1164.382
679.1566, 1165.263
679.6387, 1167.753
680.1208, 1168.546
680.6030, 1166.993
681.0851, 1164.993
681.5672, 1165.378
682.0493, 1167.490
682.5314, 1168.404
683.0135, 1167.016
683.4957, 1165.116
683.9778, 1164.689
684.4599, 1165.094
684.9420, 1165.144
685.4241, 1164.066
685.9063, 1162.903
686.3884, 1161.792
686.8705, 1160.877
687.3526, 1160.629
687.8347, 1161.484
688.3168, 1162.435
688.7990, 1163.385
689.2811, 1164.257
689.7632, 1164.268
690.2453, 1163.305
690.7274, 1162.302
691.2095, 1161.927
691.6917, 1161.924
692.1738, 1161.376
692.6559, 1160.305
693.1380, 1159.419
693.6201, 1159.222
694.1022, 1159.447
694.5844, 1159.991
695.0665, 1160.928
695.5486, 1161.426
696.0307, 1160.617
696.5128, 1159.610
696.9949, 1159.334
697.4771, 1160.528
697.9592, 1160.861
698.4413, 1159.869
698.9234, 1158.640
699.4055, 1158.769
699.8876, 1160.309
700.3698, 1161.045
700.8519, 1160.478
701.3340, 1159.369
701.8161, 1158.630
702.2982, 1158.209
702.7803, 1157.956
703.2625, 1157.820
703.7446, 1157.842
704.2267, 1158.355
704.7088, 1159.029
705.1909, 1159.131
705.6730, 1156.832
706.1552, 1155.795
706.6373, 1157.645
707.1194, 1161.520
707.6015, 1163.227
708.0836, 1161.872
708.5657, 1160.979
709.0479, 1162.341
709.5300, 1165.259
710.0121, 1166.842
710.4942, 1167.107
710.9763, 1166.688
711.4584, 1165.239
711.9406, 1163.765
712.4227, 1163.818
712.9048, 1165.424
713.3869, 1166.786
713.8690, 1166.806
714.3511, 1166.475
714.8333, 1166.454
715.3154, 1166.949
715.7975, 1167.445
716.2796, 1168.192
716.7617, 1168.689
717.2438, 1168.265
717.7260, 1166.750
718.2081, 1166.540
718.6902, 1167.968
719.1723, 1169.966
719.6544, 1171.440
720.1365, 1172.478
720.6187, 1173.180
721.1008, 1173.363
721.5829, 1173.830
722.0650, 1175.395
722.5471, 1177.522
723.0292, 1179.535
723.5114, 1181.185
723.9935, 1182.675
724.4756, 1183.876
724.9577, 1184.970
725.4398, 1186.252
725.9219, 1187.610
726.4041, 1189.533
726.8862, 1192.417
727.3683, 1195.607
727.8504, 1197.289
728.3325, 1197.644
728.8146, 1197.873
729.2968, 1198.436
729.7789, 1199.208
730.2610, 1200.096
730.7431, 1201.081
731.2252, 1202.103
731.7073, 1203.276
732.1895, 1204.345
732.6716, 1205.094
733.1537, 1205.568
733.6358, 1206.339
734.1179, 1207.469
734.6000, 1208.855
735.0822, 1210.589
735.5643, 1212.610
736.0464, 1213.988
736.5285, 1214.686
737.0106, 1215.628
737.4927, 1218.045
737.9749, 1220.937
738.4570, 1222.228
738.9391, 1221.871
739.4212, 1222.008
739.9033, 1224.877
740.3854, 1228.004
740.8676, 1229.435
741.3497, 1228.372
741.8318, 1227.881
742.3139, 1228.225
742.7960, 1229.078
743.2781, 1230.289
743.7603, 1231.900
744.2424, 1233.548
744.7245, 1235.206
745.2066, 1237.046
745.6887, 1239.605
746.1708, 1242.513
746.6530, 1244.720
747.1351, 1245.991
747.6172, 1246.890
748.0993, 1247.052
748.5814, 1247.432
749.0635, 1249.175
749.5457, 1254.097
750.0278, 1257.890
750.5099, 1258.844
750.9920, 1259.094
751.4741, 1261.320
751.9562, 1266.181
752.4384, 1269.945
752.9205, 1271.846
753.4026, 1272.884
753.8847, 1274.564
754.3668, 1276.723
754.8489, 1278.826
755.3311, 1280.783
755.8132, 1282.463
756.2953, 1283.425
756.7774, 1284.074
757.2595, 1285.102
757.7416, 1287.678
758.2238, 1289.569
758.7059, 1289.444
759.1880, 1288.553
759.6701, 1289.667
760.1522, 1293.518
760.6343, 1297.189
761.1165, 1300.181
761.5986, 1302.382
762.0807, 1302.912
762.5628, 1302.149
763.0449, 1302.279
763.5270, 1305.167
764.0092, 1308.633
764.4913, 1310.664
764.9734, 1311.584
765.4555, 1312.453
765.9376, 1313.631
766.4197, 1314.801
766.9019, 1315.711
767.3840, 1316.467
767.8661, 1317.608
768.3482, 1319.130
768.8303, 1321.031
769.3124, 1323.519
769.7946, 1326.289
770.2767, 1328.238
770.7588, 1329.441
771.2409, 1330.615
771.7230, 1332.199
772.2051, 1333.970
772.6873, 1335.820
773.1694, 1337.718
773.6515, 1339.398
774.1336, 1341.455
774.6157, 1342.619
775.0978, 1341.899
775.5800, 1339.416
776.0621, 1338.062
776.5442, 1337.871
777.0263, 1338.740
777.5084, 1340.933
777.9905, 1344.163
778.4727, 1347.285
778.9548, 1350.265
779.4369, 1352.621
779.9190, 1353.664
780.4011, 1354.116
780.8832, 1354.496
781.3654, 1354.849
781.8475, 1355.668
782.3296, 1357.933
782.8117, 1359.940
783.2938, 1360.826
783.7759, 1360.497
784.2581, 1360.054
784.7402, 1359.329
785.2223, 1359.093
785.7044, 1360.473
786.1865, 1362.858
786.6686, 1363.611
787.1508, 1362.688
787.6329, 1361.582
788.1150, 1361.092
788.5971, 1361.147
789.0792, 1361.620
789.5613, 1362.455
790.0435, 1364.027
790.5256, 1367.778
791.0077, 1371.043
791.4898, 1372.183
791.9719, 1370.721
792.4540, 1370.410
792.9362, 1371.506
793.4183, 1372.614
793.9004, 1372.408
794.3825, 1371.292
794.8646, 1370.379
795.3467, 1369.746
795.8289, 1369.226
796.3110, 1368.603
796.7931, 1368.138
797.2752, 1368.383
797.7573, 1369.923
798.2394, 1369.785
798.7216, 1366.022
799.2037, 1362.355
799.6858, 1361.407
800.1679, 1363.684
800.6500, 1364.955
801.1321, 1365.229
801.6143, 1364.600
802.0964, 1362.441
802.5785, 1359.643
803.0606, 1357.896
803.5427, 1357.415
804.0248, 1357.548
804.5070, 1358.758
804.9891, 1359.801
805.4712, 1359.615
805.9533, 1357.565
806.4354, 1355.774
806.9175, 1353.962
807.3997, 1352.818
807.8818, 1353.351
808.3639, 1355.488
808.8460, 1355.856
809.3281, 1354.230
809.8102, 1352.248
810.2924, 1351.571
810.7745, 1351.369
811.2566, 1350.525
811.7387, 1348.878
812.2208, 1346.901
812.7029, 1344.033
813.1851, 1341.507
813.6672, 1340.441
814.1493, 1341.505
814.6314, 1340.949
815.1135, 1338.224
815.5956, 1335.257
816.0778, 1333.700
816.5599, 1333.256
817.0420, 1332.754
817.5241, 1332.121
818.0062, 1331.085
818.4883, 1329.316
818.9705, 1327.062
819.4526, 1324.240
819.9347, 1320.613
820.4168, 1318.225
820.8989, 1318.988
821.3810, 1319.730
821.8632, 1318.787
822.3453, 1315.990
822.8274, 1313.290
823.3095, 1310.808
823.7916, 1308.116
824.2737, 1304.867
824.7559, 1301.240
825.2380, 1297.428
825.7201, 1293.508
826.2022, 1289.972
826.6843, 1287.345
827.1664, 1285.082
827.6486, 1283.013
828.1307, 1281.215
828.6128, 1278.442
829.0949, 1273.757
829.5770, 1269.661
830.0591, 1267.867
830.5413, 1268.093
831.0234, 1267.154
831.5055, 1265.049
831.9876, 1262.489
832.4697, 1259.952
832.9518, 1257.223
833.4340, 1253.843
833.9161, 1249.867
834.3982, 1246.144
834.8803, 1243.102
835.3624, 1240.268
835.8445, 1237.429
836.3267, 1234.605
836.8088, 1231.995
837.2909, 1229.715
837.7730, 1227.192
838.2551, 1223.654
838.7372, 1219.791
839.2194, 1217.829
839.7015, 1217.393
840.1836, 1216.298
840.6657, 1212.731
841.1478, 1208.599
841.6299, 1204.984
842.1121, 1201.878
842.5942, 1198.901
843.0763, 1196.296
843.5584, 1193.262
844.0405, 1189.381
844.5226, 1184.918
845.0048, 1180.850
845.4869, 1177.169
845.9690, 1173.866
846.4511, 1171.467
846.9332, 1169.045
847.4153, 1165.261
847.8975, 1160.623
848.3796, 1156.548
848.8617, 1154.516
849.3438, 1151.988
849.8259, 1148.000
850.3080, 1143.139
850.7902, 1138.718
851.2723, 1134.680
851.7544, 1131.924
852.2365, 1131.375
852.7186, 1131.214
853.2007, 1127.657
853.6829, 1121.799
854.1650, 1116.647
854.6471, 1114.261
855.1292, 1111.639
855.6113, 1106.373
856.0934, 1100.139
856.5756, 1096.056
857.0577, 1095.645
857.5398, 1094.433
858.0219, 1091.902
858.5040, 1088.361
858.9861, 1083.875
859.4683, 1078.696
859.9504, 1074.380
860.4325, 1071.490
860.9146, 1068.997
861.3967, 1066.498
861.8788, 1063.671
862.3610, 1060.029
862.8431, 1054.812
863.3252, 1050.021
863.8073, 1046.213
864.2894, 1042.538
864.7715, 1038.133
865.2537, 1032.962
865.7358, 1028.160
866.2179, 1023.834
866.7000, 1019.579
867.1821, 1014.650
867.6642, 1009.662
868.1464, 1005.738
868.6285, 1003.154
869.1106, 1000.556
869.5927, 997.3781
870.0748, 994.0010
870.5569, 990.7904
871.0391, 987.8817
871.5212, 983.9756
872.0033, 978.7924
872.4854, 973.6429
872.9675, 969.9623
873.4496, 966.9407
873.9318, 962.5281
874.4139, 956.7809
874.8960, 951.3235
875.3781, 947.3588
875.8602, 943.7668
876.3423, 939.9142
876.8245, 935.8076
877.3066, 931.9505
877.7887, 928.6443
878.2708, 924.9919
878.7529, 920.5385
879.2350, 915.5844
879.7172, 910.8984
880.1993, 906.5438
880.6814, 902.4172
881.1635, 898.8313
881.6456, 895.1443
882.1277, 890.5558
882.6099, 885.4443
883.0920, 880.9689
883.5741, 878.0201
884.0562, 874.6697
884.5383, 870.3934
885.0204, 865.6044
885.5026, 861.2394
885.9847, 857.2514
886.4668, 853.1275
886.9489, 848.5569
887.4310, 844.1311
887.9131, 840.7822
888.3953, 837.9869
888.8774, 834.9466
889.3595, 831.8857
889.8416, 827.8793
890.3237, 822.1959
890.8058, 816.0876
891.2880, 810.7861
891.7701, 806.3879
892.2522, 801.9266
892.7343, 797.2704
893.2164, 792.7217
893.6985, 788.5600
894.1807, 784.7278
894.6628, 781.1588
895.1449, 777.9241
895.6270, 774.4814
896.1091, 770.5359
896.5912, 766.3689
897.0734, 762.0740
897.5555, 757.6729
898.0376, 753.4098
898.5197, 749.3604
899.0018, 745.2673
899.4839, 741.0914
899.9661, 736.7522
900.4482, 731.9363
900.9303, 726.7084
901.4124, 721.7529
901.8945, 717.1818
902.3766, 713.1084
902.8588, 709.7498
903.3409, 706.9508
903.8230, 703.9428
904.3051, 700.6963
904.7872, 697.2294
905.2693, 693.5878
905.7515, 689.5918
906.2336, 684.4537
906.7157, 678.6075
907.1978, 673.3191
907.6799, 669.1074
908.1620, 665.5866
908.6442, 663.0590
909.1263, 660.9402
909.6084, 658.2775
910.0905, 655.0944
910.5726, 651.2176
911.0547, 646.4287
911.5369, 641.3087
912.0190, 636.3806
912.5011, 631.7372
912.9832, 627.7356
913.4653, 624.5195
913.9474, 621.3847
914.4296, 617.9421
914.9117, 614.3430
915.3938, 610.6720
915.8759, 606.8634
916.3580, 603.3107
916.8401, 600.1588
917.3223, 596.8788
917.8044, 593.1426
918.2865, 588.9949
918.7686, 584.2123
919.2507, 578.9037
919.7328, 574.0076
920.2150, 570.2313
920.6971, 566.9590
921.1792, 564.0182
921.6613, 561.2861
922.1434, 558.1115
922.6255, 554.3719
923.1077, 550.3851
923.5898, 546.0307
924.0719, 541.7092
924.5540, 538.4642
925.0361, 536.0283
925.5182, 533.4075
926.0004, 530.1550
926.4825, 526.6603
926.9646, 523.0931
927.4467, 519.4063
927.9288, 515.5259
928.4109, 510.8328
928.8931, 507.2914
929.3752, 505.4704
929.8573, 503.8932
930.3394, 500.6618
930.8215, 496.2520
931.3036, 492.2844
931.7858, 488.9655
932.2679, 485.7437
932.7500, 482.2588
933.2321, 478.6752
933.7142, 474.9455
934.1964, 471.0450
934.6785, 467.6291
935.1606, 464.8972
935.6427, 462.2457
936.1248, 459.4400
936.6069, 456.4565
937.0891, 453.2903
937.5712, 449.9552
938.0533, 446.7349
938.5354, 443.8941
939.0175, 441.0804
939.4996, 438.1563
939.9818, 435.1014
940.4639, 431.9017
940.9460, 428.3930
941.4281, 425.2665
941.9102, 422.7186
942.3923, 420.4991
942.8745, 418.3191
943.3566, 416.1255
943.8387, 413.7456
944.3208, 411.0388
944.8029, 408.6144
945.2850, 407.1820
945.7672, 405.9529
946.2493, 404.1203
946.7314, 401.4577
947.2135, 399.0699
947.6956, 396.9769
948.1777, 395.1153
948.6599, 393.8836
949.1420, 392.7754
949.6241, 390.2527
950.1062, 386.4793
950.5883, 383.0291
951.0704, 380.9444
951.5526, 379.1875
952.0347, 377.3775
952.5168, 375.4760
952.9989, 373.4054
953.4810, 371.1330
953.9631, 368.8172
954.4453, 366.4405
954.9274, 364.1576
955.4095, 362.3461
955.8916, 360.8167
956.3737, 359.0942
956.8558, 356.7915
957.3380, 354.7350
957.8201, 353.7825
958.3022, 352.7954
958.7843, 350.5231
959.2664, 346.5435
959.7485, 343.7436
960.2307, 342.3252
960.7128, 341.2733
961.1949, 339.6434
961.6770, 337.8457
962.1591, 336.6594
962.6412, 336.0627
963.1234, 335.0254
963.6055, 332.6228
964.0876, 330.3138
964.5697, 328.5836
965.0518, 327.3478
965.5339, 326.2279
966.0161, 325.2165
966.4982, 324.2408
966.9803, 323.4205
967.4624, 322.3758
967.9445, 320.4265
968.4266, 318.0322
968.9088, 315.9928
969.3909, 314.8958
969.8730, 313.6139
970.3551, 312.0137
970.8372, 310.2798
971.3193, 308.4438
971.8015, 306.5699
972.2836, 305.2052
972.7657, 304.4174
973.2478, 303.5957
973.7299, 302.1809
974.2120, 300.5801
974.6942, 299.0843
975.1763, 297.7246
975.6584, 296.5035
976.1405, 295.3947
976.6226, 294.4554
977.1047, 293.7831
977.5869, 293.2235
978.0690, 292.3864
978.5511, 291.3082
979.0332, 290.0973
979.5153, 288.6333
979.9974, 287.2617
980.4796, 286.1860
980.9617, 285.3066
981.4438, 284.5142
981.9259, 283.9328
982.4080, 282.9702
982.8901, 281.5231
983.3723, 279.9769
983.8544, 278.7112
984.3365, 277.6279
984.8186, 276.5241
985.3007, 275.3843
985.7828, 274.3677
986.2650, 273.7080
986.7471, 273.0036
987.2292, 272.0667
987.7113, 270.9358
988.1934, 269.7115
988.6755, 268.3709
989.1577, 267.4460
989.6398, 267.2938
990.1219, 267.4032
990.6040, 267.3694
991.0861, 267.1107
991.5682, 266.4854
992.0504, 265.1201
992.5325, 263.8886
993.0146, 262.9026
993.4967, 262.0091
993.9788, 261.0146
994.4609, 259.9465
994.9431, 259.0416
995.4252, 258.3106
995.9073, 257.6646
996.3894, 257.1322
996.8715, 256.5732
997.3536, 255.8057
997.8358, 255.2371
998.3179, 254.1671
998.8000, 253.8729
999.2821, 253.4242
999.7642, 252.6467
1000.246, 251.6286
1000.728, 250.3982
1001.211, 249.0961
1001.693, 248.1763
1002.175, 248.0108
1002.657, 247.7090
1003.139, 246.5499
1003.621, 245.3271
1004.103, 244.8425
1004.585, 245.3078
1005.068, 245.1780
1005.550, 244.3811
1006.032, 243.6570
1006.514, 243.8379
1006.996, 244.2274
1007.478, 243.8947
1007.960, 242.9195
1008.442, 241.9742
1008.924, 241.3498
1009.407, 240.6035
1009.889, 239.5903
1010.371, 238.4476
1010.853, 237.4230
1011.335, 236.5092
1011.817, 235.7159
1012.299, 235.0191
1012.781, 234.5463
1013.263, 234.8548
1013.746, 235.1445
1014.228, 234.4666
1014.710, 232.4695
1015.192, 231.2370
1015.674, 230.9057
1016.156, 230.9335
1016.638, 231.2784
1017.120, 231.6109
1017.603, 230.9603
1018.085, 229.6132
1018.567, 228.6101
1019.049, 228.7971
1019.531, 228.9169
1020.013, 228.5243
1020.495, 227.8885
1020.977, 227.4301
1021.459, 227.1545
1021.942, 226.6392
1022.424, 225.8128
1022.906, 224.8593
1023.388, 223.7189
1023.870, 222.6835
1024.352, 222.1470
1024.834, 222.1987
1025.316, 222.0063
1025.799, 221.4247
1026.281, 220.8042
1026.763, 220.2664
1027.245, 219.8049
1027.727, 219.3239
1028.209, 218.8722
1028.691, 218.6332
1029.173, 218.9794
1029.656, 219.0690
1030.138, 218.2288
1030.620, 217.1071
1031.102, 216.3935
1031.584, 216.1601
1032.066, 215.9050
1032.548, 215.6092
1033.030, 215.3315
1033.512, 215.0961
1033.995, 214.9224
1034.477, 214.9166
1034.959, 215.0302
1035.441, 214.9559
1035.923, 214.5725
1036.405, 214.0422
1036.887, 213.2863
1037.369, 212.5285
1037.851, 212.4746
1038.334, 212.8278
1038.816, 212.2703
1039.298, 210.2550
1039.780, 208.4736
1040.262, 208.0501
1040.744, 208.2197
1041.226, 208.4700
1041.708, 208.8059
1042.191, 208.7523
1042.673, 208.2748
1043.155, 207.7105
1043.637, 207.1804
1044.119, 206.7150
1044.601, 206.4327
1045.083, 206.2358
1045.565, 205.9122
1046.047, 205.1178
1046.530, 204.6197
1047.012, 204.6026
1047.494, 204.7176
1047.976, 204.5702
1048.458, 204.2091
1048.940, 203.9018
1049.422, 203.6634
1049.904, 203.3455
1050.386, 202.7511
1050.869, 202.1386
1051.351, 201.5586
1051.833, 201.0820
1052.315, 201.1163
1052.797, 201.7610
1053.279, 202.1472
1053.761, 202.0212
1054.243, 201.6097
1054.726, 201.0358
1055.208, 200.4312
1055.690, 199.9922
1056.172, 199.8117
1056.654, 199.6360
1057.136, 199.4745
1057.618, 199.2505
1058.100, 198.8610
1058.583, 198.3828
1059.065, 198.2026
1059.547, 198.2382
1060.029, 198.1039
1060.511, 197.4203
1060.993, 196.7420
1061.475, 196.3315
1061.957, 196.0487
1062.439, 195.6596
1062.922, 195.1195
1063.404, 194.9881
1063.886, 195.3654
1064.368, 195.6135
1064.850, 194.9846
1065.332, 194.0728
1065.814, 193.4488
1066.296, 193.1420
1066.778, 192.8847
1067.261, 192.6567
1067.743, 192.4576
1068.225, 192.3214
1068.707, 192.1527
1069.189, 191.7320
1069.671, 191.1487
1070.153, 190.5463
1070.635, 189.8465
1071.118, 189.5805
1071.600, 190.6465
1072.082, 191.5574
1072.564, 191.3482
1073.046, 190.1393
1073.528, 189.3320
1074.010, 188.9253
1074.492, 188.7959
1074.974, 189.2757
1075.457, 189.5685
1075.939, 188.6950
1076.421, 187.3693
1076.903, 186.8521
1077.385, 187.5316
1077.867, 187.9603
1078.349, 188.0296
1078.831, 188.0299
1079.313, 188.3705
1079.796, 188.7332
1080.278, 188.3205
1080.760, 187.3058
1081.242, 187.1015
1081.724, 189.2086
1082.206, 190.8031
1082.688, 191.3735
1083.170, 191.0681
1083.652, 189.7408
1084.135, 187.7233
1084.617, 186.3649
1085.099, 185.9808
1085.581, 185.7841
1086.063, 185.4307
1086.545, 185.0130
1087.027, 184.5434
1087.509, 184.0449
1087.992, 183.7876
1088.474, 183.7761
1088.956, 183.5966
1089.438, 182.9083
1089.920, 182.2854
1090.402, 182.4386
1090.884, 182.9381
1091.366, 183.1854
1091.849, 182.9808
1092.331, 182.8950
1092.813, 183.0133
1093.295, 182.9606
1093.777, 182.2138
1094.259, 181.2287
1094.741, 180.9665
1095.223, 181.2312
1095.705, 181.3094
1096.188, 180.6469
1096.670, 180.1758
1097.152, 180.0892
1097.634, 180.1855
1098.116, 180.2929
1098.598, 180.3653
1099.080, 180.1448
1099.562, 179.6118
1100.044, 179.0555
1100.527, 178.5629
1101.009, 178.1935
1101.491, 178.0967
1101.973, 178.1279
1102.455, 177.6982
1102.937, 176.7981
1103.419, 176.4871
1103.901, 177.1861
1104.384, 177.9111
1104.866, 177.5784
1105.348, 176.8738
1105.830, 176.4711
1106.312, 176.4765
1106.794, 176.5464
1107.276, 176.7425
1107.758, 176.7318
1108.240, 176.2277
1108.723, 175.5945
1109.205, 175.4401
1109.687, 175.5734
1110.169, 175.6414
1110.651, 175.7368
1111.133, 175.3145
1111.615, 173.9903
1112.097, 172.7934
1112.579, 172.6433
1113.062, 173.2499
1113.544, 173.6909
1114.026, 173.9627
1114.508, 174.0783
1114.990, 173.8481
1115.472, 173.7177
1115.954, 174.0196
1116.436, 174.3341
1116.919, 173.9862
1117.401, 173.0455
1117.883, 172.5726
1118.365, 172.6622
1118.847, 172.7757
1119.329, 172.5379
1119.811, 172.1869
1120.293, 171.7794
1120.776, 171.3922
1121.258, 171.3547
1121.740, 171.7364
1122.222, 171.6712
1122.704, 170.8481
1123.186, 170.0932
1123.668, 170.5408
1124.150, 171.3083
1124.632, 171.4344
1125.115, 170.7337
1125.597, 170.0320
1126.079, 169.2427
1126.561, 168.8091
1127.043, 169.0249
1127.525, 169.4877
1128.007, 169.6460
1128.489, 169.5442
1128.971, 169.2131
1129.454, 168.4968
1129.936, 168.0304
1130.418, 167.9680
1130.900, 167.9679
1131.382, 167.7602
1131.864, 167.4827
1132.346, 167.7164
1132.828, 168.2614
1133.311, 168.4588
1133.793, 167.5391
1134.275, 166.8865
1134.757, 166.9870
1135.239, 167.2595
1135.721, 167.0961
1136.203, 166.5745
1136.685, 166.4436
1137.167, 166.6813
1137.650, 166.8476
1138.132, 166.5868
1138.614, 166.2881
1139.096, 166.1318
1139.578, 166.0644
1140.060, 166.0189
1140.542, 165.9980
1141.024, 165.9905
1141.506, 166.0056
1141.989, 165.8914
1142.471, 165.3035
1142.953, 164.7392
1143.435, 164.6866
1143.917, 165.0201
1144.399, 165.0028
1144.881, 164.5573
1145.363, 164.3297
1145.846, 164.5203
1146.328, 164.7143
1146.810, 164.2721
1147.292, 163.7077
1147.774, 163.6563
1148.256, 164.2439
1148.738, 164.4401
1149.220, 164.1565
1149.703, 163.7107
1150.185, 163.1186
1150.667, 162.6065
1151.149, 162.6264
1151.631, 162.9086
1152.113, 163.0071
1152.595, 162.7452
1153.077, 162.6181
1153.559, 162.7346
1154.042, 162.8054
1154.524, 162.6282
1155.006, 162.3487
1155.488, 162.4033
1155.970, 162.6089
1156.452, 162.5093
1156.934, 161.7261
1157.416, 161.0393
1157.898, 160.4816
1158.381, 160.1373
1158.863, 160.1563
1159.345, 160.4385
1159.827, 160.6164
1160.309, 160.6941
1160.791, 160.6849
1161.273, 160.4987
1161.755, 160.3507
1162.238, 160.3230
1162.720, 160.3179
1163.202, 160.1798
1163.684, 159.9549
1164.166, 160.0743
1164.648, 160.4937
1165.130, 160.6306
1165.612, 159.6951
1166.094, 158.9387
1166.577, 159.0884
1167.059, 159.6043
1167.541, 159.5753
1168.023, 159.0695
1168.505, 159.0937
1168.987, 159.7578
1169.469, 160.0966
1169.951, 158.9726
1170.433, 157.7796
1170.916, 157.3811
1171.398, 157.5420
1171.880, 157.7759
1172.362, 158.0802
1172.844, 158.1754
1173.326, 157.9818
1173.808, 157.7737
1174.290, 157.7763
1174.773, 157.8557
1175.255, 157.9292
1175.737, 157.9873
1176.219, 158.0360
1176.701, 158.0850
1177.183, 157.8762
1177.665, 157.2493
1178.147, 156.6685
1178.630, 156.7384
1179.112, 156.9606
1179.594, 156.7486
1180.076, 156.0813
1180.558, 155.9051
1181.040, 156.2683
1181.522, 156.6799
1182.004, 157.0413
1182.486, 157.1814
1182.969, 156.7035
1183.451, 156.0144
1183.933, 155.5822
1184.415, 155.4516
1184.897, 155.6645
1185.379, 156.3040
1185.861, 156.7553
1186.343, 156.6618
1186.825, 156.2751
1187.308, 155.6543
1187.790, 155.0309
1188.272, 154.8226
1188.754, 155.2869
1189.236, 155.5347
1189.718, 155.5436
1190.200, 155.4457
1190.682, 155.1980
1191.165, 154.9999
1191.647, 155.3002
1192.129, 155.8045
1192.611, 155.8937
1193.093, 155.2391
1193.575, 154.6317
1194.057, 154.0289
1194.539, 153.6913
1195.021, 154.0798
1195.504, 154.6694
1195.986, 154.6909
1196.468, 154.3064
1196.950, 154.0217
1197.432, 153.9497
1197.914, 153.9133
1198.396, 153.9049
1198.878, 153.9135
1199.360, 153.8177
1199.843, 153.8024
1200.325, 154.4237
1200.807, 155.4206
1201.289, 155.6155
1201.771, 154.2630
1202.253, 153.3742
1202.735, 153.2044
1203.217, 153.4417
1203.700, 154.0178
1204.182, 154.6202
1204.664, 154.7173
1205.146, 154.3588
1205.628, 154.1138
1206.110, 154.1365
1206.592, 154.1192
1207.074, 154.0134
1207.557, 153.8385
1208.039, 153.4879
1208.521, 153.1540
1209.003, 153.1655
1209.485, 153.5262
1209.967, 153.8559
1210.449, 154.1957
1210.931, 154.2492
1211.413, 153.8568
1211.896, 153.4254
1212.378, 153.6764
1212.860, 154.1484
1213.342, 154.1028
1213.824, 153.4595
1214.306, 152.9778
1214.788, 152.8240
1215.270, 152.5838
1215.752, 152.0976
1216.235, 151.6132
1216.717, 151.6449
1217.199, 151.8260
1217.681, 151.5370
1218.163, 150.6439
1218.645, 150.0660
1219.127, 149.8862
1219.609, 149.9667
1220.092, 150.3538
1220.574, 150.7774
1221.056, 150.7532
1221.538, 150.5458
1222.020, 150.5883
1222.502, 151.0086
1222.984, 151.0874
1223.466, 150.6882
1223.948, 150.3099
1224.431, 150.1281
1224.913, 150.0630
1225.395, 149.9434
1225.877, 149.8935
1226.359, 150.1664
1226.841, 150.1960
1227.323, 150.2171
1227.805, 150.6994
1228.287, 150.4324
1228.770, 150.9426
1229.252, 151.5247
1229.734, 151.0014
1230.216, 150.0455
1230.698, 149.5919
1231.180, 149.8840
1231.662, 150.1855
1232.144, 150.5361
1232.627, 150.6729
1233.109, 150.4019
1233.591, 149.9884
1234.073, 149.7150
1234.555, 149.5143
1235.037, 149.2514
1235.519, 148.8508
1236.001, 148.8811
1236.484, 149.4051
1236.966, 149.8099
1237.448, 149.7128
1237.930, 149.4763
1238.412, 149.4447
1238.894, 149.5076
1239.376, 149.5299
1239.858, 149.5141
1240.340, 149.3118
1240.823, 148.9079
1241.305, 148.6716
1241.787, 148.9855
1242.269, 149.2765
1242.751, 148.7869
1243.233, 148.1513
1243.715, 148.2681
1244.197, 149.2772
1244.679, 149.5350
1245.162, 149.0604
1245.644, 148.6540
1246.126, 148.8726
1246.608, 149.1389
1247.090, 148.8766
1247.572, 148.5982
1248.054, 149.0205
1248.536, 150.2086
1249.019, 150.2643
1249.501, 149.2978
1249.983, 148.4718
1250.465, 148.6371
1250.947, 148.8497
1251.429, 148.4988
1251.911, 148.0670
1252.393, 148.0571
1252.875, 148.4321
1253.358, 148.4634
1253.840, 148.2027
1254.322, 148.0146
1254.804, 148.1301
1255.286, 148.2968
1255.768, 148.5636
1256.250, 148.7019
1256.732, 148.3835
1257.214, 147.7345
1257.697, 147.5962
1258.179, 147.8701
1258.661, 148.0826
1259.143, 147.9192
1259.625, 147.8308
1260.107, 147.9470
1260.589, 148.0910
1261.071, 148.0530
1261.554, 147.9356
1262.036, 148.1730
1262.518, 148.6307
1263.000, 148.8552
1263.482, 148.3484
1263.964, 148.1298
1264.446, 148.4142
1264.928, 148.6856
1265.411, 148.3630
1265.893, 147.8096
1266.375, 147.7645
1266.857, 148.0776
1267.339, 148.3235
1267.821, 148.2525
1268.303, 148.4562
1268.785, 149.0845
1269.267, 149.4846
1269.750, 148.8591
1270.232, 147.9239
1270.714, 147.6237
1271.196, 147.7392
1271.678, 147.7281
1272.160, 147.3864
1272.642, 147.4428
1273.124, 147.9645
1273.606, 148.4312
1274.089, 148.4309
1274.571, 148.2393
1275.053, 147.9518
1275.535, 147.7072
1276.017, 147.7498
1276.499, 148.1357
1276.981, 148.4739
1277.463, 148.7548
1277.946, 148.8614
1278.428, 148.6148
1278.910, 148.2863
1279.392, 148.0248
1279.874, 147.7924
1280.356, 147.5280
1280.838, 147.2389
1281.320, 146.9584
1281.802, 146.7189
1282.285, 146.7596
1282.767, 147.5831
1283.249, 148.2262
1283.731, 148.2605
1284.213, 148.0612
1284.695, 147.8552
1285.177, 147.6832
1285.659, 147.9249
1286.141, 148.4200
1286.624, 148.5104
1287.106, 147.0990
1287.588, 146.5717
1288.070, 147.5555
1288.552, 148.7221
1289.034, 148.8891
1289.516, 148.4810
1289.998, 148.4849
1290.481, 148.7163
1290.963, 148.6843
1291.445, 147.9541
1291.927, 147.4938
1292.409, 147.3478
1292.891, 147.3121
1293.373, 147.1952
1293.855, 147.1432
1294.338, 147.4155
1294.820, 147.8670
1295.302, 148.2246
1295.784, 148.4737
1296.266, 148.6450
1296.748, 148.7436
1297.230, 148.6679
1297.712, 148.2160
1298.194, 147.7261
1298.677, 147.4416
1299.159, 147.2894
1299.641, 147.1306
1300.123, 146.9548
1300.605, 147.1426
1301.087, 147.6409
1301.569, 147.9849
1302.051, 147.9184
1302.533, 147.6428
1303.016, 147.1973
##END=



