##NAMES=Nioboaeschynite-(Y)
##RRUFFID=R110140
##IDEAL CHEMISTRY=(Y^3+^,Ca,Th^4+^,Fe^3+^)(Nb^5+^,Ti^4+^,Ta^5+^)_2_(O,OH)_6_
##LOCALITY=Quadeville, Lyndoch Township, Renfrew County, Ontario, Canada
##OWNER=RRUFF
##SOURCE=Donald M Doell
##DESCRIPTION=Dark reddish-brown fragment - metamict
##STATUS=The identification of this mineral is not yet confirmed.
##URL=rruff.info/R110140
178.3845, 1900.531
178.8666, 1900.514
179.3488, 1901.056
179.8309, 1901.893
180.3130, 1902.711
180.7951, 1903.688
181.2772, 1904.160
181.7593, 1903.461
182.2415, 1902.752
182.7236, 1903.127
183.2057, 1904.767
183.6878, 1906.763
184.1699, 1907.734
184.6520, 1907.140
185.1342, 1906.464
185.6163, 1905.447
186.0984, 1904.493
186.5805, 1903.978
187.0626, 1904.008
187.5447, 1904.603
188.0269, 1906.090
188.5090, 1908.866
188.9911, 1910.859
189.4732, 1910.963
189.9553, 1910.076
190.4374, 1909.733
190.9196, 1910.402
191.4017, 1911.674
191.8838, 1913.076
192.3659, 1914.620
192.8480, 1915.969
193.3301, 1917.155
193.8123, 1918.048
194.2944, 1918.043
194.7765, 1916.276
195.2586, 1914.414
195.7407, 1914.284
196.2228, 1915.909
196.7050, 1917.775
197.1871, 1919.030
197.6692, 1919.675
198.1513, 1919.572
198.6334, 1918.137
199.1155, 1916.380
199.5977, 1914.929
200.0798, 1913.839
200.5619, 1912.938
201.0440, 1911.906
201.5261, 1910.612
202.0082, 1910.099
202.4904, 1911.589
202.9725, 1913.150
203.4546, 1913.629
203.9367, 1912.983
204.4188, 1912.156
204.9009, 1912.391
205.3831, 1914.119
205.8652, 1915.598
206.3473, 1917.129
206.8294, 1918.156
207.3115, 1918.178
207.7936, 1917.194
208.2758, 1915.690
208.7579, 1914.253
209.2400, 1912.556
209.7221, 1911.736
210.2042, 1912.411
210.6863, 1913.362
211.1685, 1913.922
211.6506, 1913.891
212.1327, 1913.283
212.6148, 1911.982
213.0969, 1908.974
213.5790, 1907.596
214.0612, 1909.544
214.5433, 1911.955
215.0254, 1912.284
215.5075, 1910.021
215.9896, 1906.862
216.4718, 1905.217
216.9539, 1905.849
217.4360, 1906.347
217.9181, 1906.797
218.4002, 1907.037
218.8823, 1906.868
219.3645, 1906.241
219.8466, 1905.328
220.3287, 1904.165
220.8108, 1902.542
221.2929, 1901.877
221.7750, 1903.505
222.2572, 1905.766
222.7393, 1906.461
223.2214, 1905.020
223.7035, 1902.721
224.1856, 1900.964
224.6677, 1899.702
225.1499, 1898.693
225.6320, 1897.793
226.1141, 1897.133
226.5962, 1897.189
227.0783, 1898.373
227.5604, 1899.286
228.0426, 1898.050
228.5247, 1895.182
229.0068, 1892.669
229.4889, 1891.404
229.9710, 1891.027
230.4531, 1890.857
230.9353, 1891.034
231.4174, 1890.961
231.8995, 1889.881
232.3816, 1888.154
232.8637, 1886.783
233.3458, 1886.876
233.8280, 1887.760
234.3101, 1886.985
234.7922, 1883.409
235.2743, 1880.016
235.7564, 1878.328
236.2385, 1878.014
236.7207, 1878.519
237.2028, 1880.235
237.6849, 1882.573
238.1670, 1882.912
238.6491, 1880.235
239.1312, 1876.913
239.6134, 1873.554
240.0955, 1870.361
240.5776, 1867.596
241.0597, 1865.420
241.5418, 1863.803
242.0239, 1862.754
242.5061, 1863.254
242.9882, 1862.912
243.4703, 1860.303
243.9524, 1856.641
244.4345, 1853.704
244.9166, 1852.590
245.3988, 1852.896
245.8809, 1852.775
246.3630, 1852.073
246.8451, 1851.071
247.3272, 1849.489
247.8093, 1847.750
248.2915, 1846.500
248.7736, 1846.135
249.2557, 1846.317
249.7378, 1845.672
250.2199, 1843.546
250.7020, 1841.318
251.1842, 1839.153
251.6663, 1837.009
252.1484, 1834.719
252.6305, 1832.179
253.1126, 1829.673
253.5947, 1828.055
254.0769, 1828.594
254.5590, 1828.563
255.0411, 1827.628
255.5232, 1826.118
256.0053, 1824.156
256.4874, 1821.809
256.9695, 1819.525
257.4517, 1818.386
257.9338, 1820.171
258.4159, 1821.004
258.8980, 1820.455
259.3801, 1819.111
259.8622, 1817.484
260.3444, 1815.756
260.8265, 1813.959
261.3086, 1812.151
261.7907, 1810.204
262.2728, 1808.421
262.7549, 1807.028
263.2371, 1805.673
263.7192, 1803.931
264.2013, 1801.698
264.6834, 1799.337
265.1655, 1797.424
265.6476, 1796.301
266.1298, 1794.798
266.6119, 1792.666
267.0940, 1790.270
267.5761, 1787.754
268.0582, 1785.174
268.5403, 1783.010
269.0225, 1781.932
269.5046, 1782.305
269.9867, 1782.243
270.4688, 1781.809
270.9509, 1780.875
271.4330, 1778.938
271.9152, 1776.036
272.3973, 1773.420
272.8794, 1772.584
273.3615, 1773.668
273.8436, 1773.330
274.3257, 1770.163
274.8079, 1766.499
275.2900, 1764.361
275.7721, 1763.762
276.2542, 1763.197
276.7363, 1761.473
277.2184, 1758.703
277.7006, 1756.318
278.1827, 1754.461
278.6648, 1752.885
279.1469, 1751.542
279.6290, 1750.395
280.1111, 1749.186
280.5933, 1747.703
281.0754, 1746.067
281.5575, 1744.661
282.0396, 1743.528
282.5217, 1742.583
283.0038, 1742.030
283.4860, 1741.737
283.9681, 1740.918
284.4502, 1738.985
284.9323, 1736.499
285.4144, 1734.763
285.8965, 1734.248
286.3787, 1733.339
286.8608, 1730.705
287.3429, 1726.845
287.8250, 1723.538
288.3071, 1721.402
288.7892, 1720.041
289.2714, 1718.748
289.7535, 1717.446
290.2356, 1716.662
290.7177, 1717.411
291.1998, 1718.889
291.6819, 1718.784
292.1641, 1716.119
292.6462, 1712.649
293.1283, 1710.397
293.6104, 1709.207
294.0925, 1707.808
294.5746, 1705.441
295.0568, 1702.578
295.5389, 1700.128
296.0210, 1698.204
296.5031, 1696.688
296.9852, 1695.611
297.4673, 1694.867
297.9495, 1694.229
298.4316, 1694.199
298.9137, 1694.015
299.3958, 1692.163
299.8779, 1688.230
300.3600, 1684.505
300.8422, 1683.116
301.3243, 1682.896
301.8064, 1681.823
302.2885, 1678.693
302.7706, 1675.253
303.2527, 1673.740
303.7349, 1674.289
304.2170, 1674.753
304.6991, 1673.983
305.1812, 1672.606
305.6633, 1671.415
306.1454, 1670.438
306.6276, 1669.834
307.1097, 1670.210
307.5918, 1671.464
308.0739, 1671.677
308.5560, 1669.692
309.0381, 1666.805
309.5203, 1664.513
310.0024, 1662.877
310.4845, 1661.452
310.9666, 1659.919
311.4487, 1658.328
311.9308, 1657.011
312.4130, 1656.249
312.8951, 1655.448
313.3772, 1653.865
313.8593, 1651.640
314.3414, 1649.786
314.8235, 1649.035
315.3057, 1649.010
315.7878, 1648.803
316.2699, 1648.411
316.7520, 1647.651
317.2341, 1646.219
317.7162, 1644.343
318.1984, 1642.466
318.6805, 1640.705
319.1626, 1639.069
319.6447, 1637.440
320.1268, 1635.713
320.6089, 1634.579
321.0911, 1635.367
321.5732, 1636.745
322.0553, 1636.654
322.5374, 1633.937
323.0195, 1630.876
323.5016, 1630.320
323.9838, 1632.293
324.4659, 1633.298
324.9480, 1631.274
325.4301, 1628.090
325.9122, 1626.204
326.3943, 1625.966
326.8765, 1625.752
327.3586, 1624.079
327.8407, 1621.272
328.3228, 1619.228
328.8049, 1618.677
329.2870, 1618.622
329.7692, 1618.132
330.2513, 1617.231
330.7334, 1616.031
331.2155, 1614.294
331.6976, 1612.325
332.1797, 1610.851
332.6619, 1609.999
333.1440, 1609.495
333.6261, 1609.460
334.1082, 1609.636
334.5903, 1609.336
335.0724, 1607.364
335.5546, 1605.302
336.0367, 1605.730
336.5188, 1608.930
337.0009, 1611.695
337.4830, 1612.064
337.9651, 1610.767
338.4473, 1609.199
338.9294, 1607.403
339.4115, 1605.529
339.8936, 1603.604
340.3758, 1601.658
340.8579, 1599.968
341.3400, 1598.644
341.8221, 1597.628
342.3042, 1596.745
342.7863, 1595.952
343.2685, 1595.450
343.7506, 1595.650
344.2327, 1596.200
344.7148, 1596.219
345.1969, 1595.447
345.6790, 1594.299
346.1612, 1592.979
346.6433, 1591.535
347.1254, 1590.635
347.6075, 1590.654
348.0896, 1591.211
348.5717, 1592.172
349.0539, 1593.568
349.5360, 1594.307
350.0181, 1593.373
350.5002, 1591.027
350.9823, 1588.763
351.4644, 1585.944
351.9466, 1583.854
352.4287, 1583.794
352.9108, 1585.394
353.3929, 1586.880
353.8750, 1587.365
354.3571, 1587.235
354.8393, 1587.578
355.3214, 1588.922
355.8035, 1589.537
356.2856, 1588.391
356.7677, 1586.172
357.2498, 1584.036
357.7320, 1582.283
358.2141, 1580.809
358.6962, 1579.367
359.1783, 1577.834
359.6604, 1577.131
360.1425, 1578.328
360.6247, 1579.810
361.1068, 1579.891
361.5889, 1578.486
362.0710, 1576.898
362.5531, 1576.258
363.0352, 1576.549
363.5174, 1576.290
363.9995, 1575.104
364.4816, 1573.799
364.9637, 1572.607
365.4458, 1571.594
365.9279, 1570.859
366.4101, 1570.445
366.8922, 1570.358
367.3743, 1570.660
367.8564, 1571.447
368.3385, 1572.438
368.8206, 1573.826
369.3028, 1575.296
369.7849, 1576.653
370.2670, 1577.799
370.7491, 1578.392
371.2312, 1577.896
371.7133, 1575.911
372.1955, 1573.941
372.6776, 1572.163
373.1597, 1570.263
373.6418, 1567.576
374.1239, 1564.445
374.6060, 1562.122
375.0882, 1561.681
375.5703, 1563.069
376.0524, 1564.149
376.5345, 1565.989
377.0166, 1566.352
377.4987, 1563.384
377.9809, 1558.966
378.4630, 1555.819
378.9451, 1555.203
379.4272, 1556.240
379.9093, 1556.889
380.3914, 1557.015
380.8736, 1556.940
381.3557, 1556.626
381.8378, 1556.173
382.3199, 1555.453
382.8020, 1554.557
383.2841, 1553.966
383.7663, 1554.464
384.2484, 1556.401
384.7305, 1556.915
385.2126, 1554.383
385.6947, 1551.917
386.1768, 1550.360
386.6590, 1549.620
387.1411, 1549.377
387.6232, 1549.509
388.1053, 1549.880
388.5874, 1550.089
389.0695, 1550.424
389.5517, 1549.992
390.0338, 1548.086
390.5159, 1545.717
390.9980, 1543.855
391.4801, 1542.763
391.9622, 1541.902
392.4444, 1540.511
392.9265, 1538.505
393.4086, 1536.888
393.8907, 1536.256
394.3728, 1535.615
394.8549, 1534.131
395.3371, 1532.063
395.8192, 1530.452
396.3013, 1530.245
396.7834, 1530.999
397.2655, 1531.268
397.7477, 1530.969
398.2298, 1530.394
398.7119, 1529.515
399.1940, 1528.497
399.6761, 1527.528
400.1582, 1526.616
400.6404, 1525.835
401.1225, 1525.541
401.6046, 1525.658
402.0867, 1524.954
402.5688, 1522.634
403.0509, 1519.782
403.5331, 1517.407
404.0152, 1515.468
404.4973, 1514.639
404.9794, 1516.393
405.4615, 1519.119
405.9436, 1519.927
406.4258, 1518.377
406.9079, 1515.804
407.3900, 1512.987
407.8721, 1509.999
408.3542, 1507.155
408.8363, 1503.793
409.3185, 1501.217
409.8006, 1501.185
410.2827, 1502.864
410.7648, 1503.204
411.2469, 1500.605
411.7290, 1496.428
412.2112, 1493.754
412.6933, 1492.933
413.1754, 1492.426
413.6575, 1491.928
414.1396, 1491.638
414.6217, 1492.097
415.1039, 1493.273
415.5860, 1494.079
416.0681, 1493.386
416.5502, 1491.047
417.0323, 1488.613
417.5144, 1485.407
417.9966, 1482.811
418.4787, 1481.801
418.9608, 1481.771
419.4429, 1481.473
419.9250, 1480.249
420.4071, 1478.519
420.8893, 1477.496
421.3714, 1478.260
421.8535, 1478.084
422.3356, 1476.664
422.8177, 1474.521
423.2998, 1471.709
423.7820, 1468.442
424.2641, 1465.427
424.7462, 1463.438
425.2283, 1462.526
425.7104, 1461.705
426.1925, 1461.514
426.6747, 1460.789
427.1568, 1459.194
427.6389, 1456.851
428.1210, 1453.773
428.6031, 1449.811
429.0852, 1445.732
429.5674, 1443.130
430.0495, 1442.233
430.5316, 1441.967
431.0137, 1443.124
431.4958, 1444.149
431.9779, 1443.946
432.4601, 1442.488
432.9422, 1440.623
433.4243, 1439.212
433.9064, 1437.975
434.3885, 1435.410
434.8706, 1430.729
435.3528, 1426.385
435.8349, 1424.159
436.3170, 1423.278
436.7991, 1422.585
437.2812, 1421.903
437.7633, 1421.177
438.2455, 1420.445
438.7276, 1419.662
439.2097, 1418.656
439.6918, 1417.604
440.1739, 1415.944
440.6560, 1412.209
441.1382, 1406.094
441.6203, 1401.536
442.1024, 1400.759
442.5845, 1401.491
443.0666, 1401.250
443.5487, 1399.804
444.0309, 1398.088
444.5130, 1396.884
444.9951, 1396.051
445.4772, 1394.246
445.9593, 1390.156
446.4414, 1386.781
446.9236, 1385.590
447.4057, 1385.528
447.8878, 1385.135
448.3699, 1383.898
448.8520, 1381.930
449.3341, 1379.254
449.8163, 1375.200
450.2984, 1372.432
450.7805, 1372.251
451.2626, 1371.963
451.7447, 1370.038
452.2268, 1366.787
452.7090, 1363.229
453.1911, 1359.955
453.6732, 1357.105
454.1553, 1355.408
454.6374, 1355.872
455.1195, 1355.776
455.6017, 1354.609
456.0838, 1352.837
456.5659, 1350.550
457.0480, 1347.869
457.5301, 1345.541
458.0122, 1344.774
458.4944, 1345.513
458.9765, 1344.847
459.4586, 1341.907
459.9407, 1338.689
460.4228, 1336.013
460.9049, 1333.845
461.3871, 1332.206
461.8692, 1331.309
462.3513, 1330.603
462.8334, 1329.531
463.3155, 1328.092
463.7976, 1326.228
464.2798, 1323.925
464.7619, 1321.163
465.2440, 1317.612
465.7261, 1313.220
466.2082, 1309.682
466.6903, 1308.052
467.1725, 1307.306
467.6546, 1306.182
468.1367, 1304.612
468.6188, 1303.296
469.1009, 1302.943
469.5830, 1303.166
470.0652, 1301.993
470.5473, 1298.544
471.0294, 1295.039
471.5115, 1291.606
471.9936, 1288.604
472.4757, 1286.798
472.9579, 1286.289
473.4400, 1285.905
473.9221, 1284.163
474.4042, 1280.710
474.8863, 1277.932
475.3684, 1276.796
475.8506, 1275.203
476.3327, 1271.765
476.8148, 1267.466
477.2969, 1263.950
477.7790, 1262.032
478.2611, 1261.308
478.7433, 1261.232
479.2254, 1262.461
479.7075, 1262.457
480.1896, 1259.891
480.6717, 1256.894
481.1538, 1254.505
481.6360, 1252.748
482.1181, 1251.187
482.6002, 1249.616
483.0823, 1248.012
483.5644, 1246.300
484.0465, 1244.525
484.5287, 1242.497
485.0108, 1239.800
485.4929, 1236.980
485.9750, 1234.808
486.4571, 1233.546
486.9392, 1232.051
487.4214, 1229.034
487.9035, 1225.365
488.3856, 1223.295
488.8677, 1223.339
489.3498, 1223.525
489.8319, 1222.147
490.3141, 1219.259
490.7962, 1216.565
491.2783, 1213.763
491.7604, 1211.449
492.2425, 1210.162
492.7246, 1209.498
493.2068, 1208.769
493.6889, 1207.742
494.1710, 1206.413
494.6531, 1204.766
495.1352, 1202.668
495.6173, 1200.665
496.0995, 1198.780
496.5816, 1196.952
497.0637, 1195.140
497.5458, 1193.370
498.0279, 1191.695
498.5100, 1190.142
498.9922, 1188.708
499.4743, 1187.409
499.9564, 1186.422
500.4385, 1185.099
500.9206, 1182.822
501.4027, 1180.577
501.8849, 1179.093
502.3670, 1178.288
502.8491, 1177.504
503.3312, 1176.363
503.8133, 1174.901
504.2954, 1173.162
504.7776, 1171.101
505.2597, 1169.010
505.7418, 1166.862
506.2239, 1164.883
506.7060, 1163.396
507.1881, 1162.508
507.6703, 1161.767
508.1524, 1161.222
508.6345, 1160.590
509.1166, 1159.284
509.5987, 1157.207
510.0808, 1155.005
510.5630, 1153.225
511.0451, 1151.813
511.5272, 1150.041
512.0093, 1147.420
512.4914, 1145.051
512.9735, 1143.130
513.4556, 1141.686
513.9377, 1140.866
514.4199, 1140.667
514.9020, 1140.697
515.3841, 1140.550
515.8662, 1140.303
516.3483, 1139.375
516.8304, 1137.499
517.3126, 1135.203
517.7947, 1132.107
518.2768, 1128.845
518.7589, 1126.376
519.2410, 1125.106
519.7231, 1124.343
520.2053, 1123.113
520.6874, 1121.382
521.1695, 1119.626
521.6516, 1117.810
522.1337, 1116.100
522.6158, 1114.821
523.0980, 1113.743
523.5801, 1112.161
524.0622, 1109.283
524.5443, 1106.342
525.0264, 1104.548
525.5085, 1103.832
525.9907, 1104.114
526.4728, 1105.790
526.9549, 1107.521
527.4370, 1107.174
527.9191, 1104.475
528.4012, 1101.655
528.8834, 1098.480
529.3655, 1095.643
529.8476, 1093.728
530.3297, 1092.566
530.8118, 1091.671
531.2939, 1090.792
531.7761, 1089.924
532.2582, 1089.041
532.7403, 1087.888
533.2224, 1087.184
533.7045, 1087.513
534.1866, 1087.714
534.6688, 1087.008
535.1509, 1085.531
535.6330, 1083.906
536.1151, 1082.539
536.5972, 1080.881
537.0793, 1079.717
537.5615, 1077.699
538.0436, 1075.858
538.5257, 1074.349
539.0078, 1073.164
539.4899, 1072.299
539.9720, 1071.756
540.4542, 1071.491
540.9363, 1072.237
541.4184, 1072.887
541.9005, 1071.474
542.3826, 1068.050
542.8647, 1064.677
543.3469, 1062.255
543.8290, 1060.729
544.3111, 1060.112
544.7932, 1060.844
545.2753, 1061.288
545.7574, 1061.084
546.2396, 1060.588
546.7217, 1060.005
547.2038, 1059.405
547.6859, 1058.947
548.1680, 1058.795
548.6501, 1058.764
549.1323, 1057.991
549.6144, 1055.949
550.0965, 1054.066
550.5786, 1052.092
551.0607, 1050.609
551.5428, 1050.332
552.0250, 1051.096
552.5071, 1051.877
552.9892, 1052.033
553.4713, 1051.623
553.9534, 1050.650
554.4355, 1048.940
554.9177, 1047.507
555.3998, 1046.461
555.8819, 1046.153
556.3640, 1047.430
556.8461, 1050.652
557.3282, 1052.548
557.8104, 1050.989
558.2925, 1047.944
558.7746, 1045.454
559.2567, 1043.700
559.7388, 1042.623
560.2209, 1042.274
560.7031, 1042.428
561.1852, 1042.374
561.6673, 1042.339
562.1494, 1041.730
562.6315, 1040.192
563.1136, 1038.350
563.5958, 1036.381
564.0779, 1034.489
564.5600, 1033.135
565.0421, 1032.672
565.5242, 1032.918
566.0063, 1033.311
566.4885, 1033.910
566.9706, 1034.476
567.4527, 1035.060
567.9348, 1035.499
568.4169, 1035.705
568.8990, 1035.663
569.3812, 1035.341
569.8633, 1034.592
570.3454, 1033.625
570.8275, 1032.689
571.3096, 1031.797
571.7917, 1030.963
572.2739, 1030.083
572.7560, 1029.438
573.2381, 1029.729
573.7202, 1031.422
574.2023, 1032.191
574.6844, 1031.047
575.1666, 1029.595
575.6487, 1028.924
576.1308, 1028.880
576.6129, 1028.923
577.0950, 1028.790
577.5771, 1028.338
578.0593, 1026.970
578.5414, 1023.640
579.0235, 1022.256
579.5056, 1025.163
579.9877, 1028.053
580.4698, 1029.085
580.9520, 1028.566
581.4341, 1027.439
581.9162, 1025.937
582.3983, 1024.390
582.8804, 1023.266
583.3625, 1022.531
583.8447, 1021.812
584.3268, 1020.885
584.8089, 1020.286
585.2910, 1021.075
585.7732, 1023.018
586.2553, 1023.568
586.7374, 1020.920
587.2195, 1018.495
587.7017, 1018.442
588.1838, 1019.729
588.6659, 1020.510
589.1480, 1020.233
589.6301, 1019.609
590.1122, 1019.599
590.5944, 1020.359
591.0765, 1020.162
591.5586, 1017.128
592.0407, 1015.350
592.5228, 1016.836
593.0049, 1019.587
593.4871, 1021.459
593.9692, 1021.877
594.4513, 1021.095
594.9334, 1018.494
595.4155, 1014.741
595.8976, 1013.050
596.3798, 1014.002
596.8619, 1015.241
597.3440, 1015.678
597.8261, 1015.341
598.3082, 1014.360
598.7903, 1012.337
599.2725, 1010.686
599.7546, 1010.093
600.2367, 1009.956
600.7188, 1009.543
601.2009, 1008.884
601.6830, 1008.737
602.1652, 1009.754
602.6473, 1011.326
603.1294, 1011.038
603.6115, 1007.033
604.0936, 1004.602
604.5757, 1005.164
605.0579, 1006.290
605.5400, 1006.687
606.0221, 1006.333
606.5042, 1005.698
606.9863, 1005.060
607.4684, 1004.254
607.9506, 1002.754
608.4327, 1000.590
608.9148, 999.1658
609.3969, 999.0997
609.8790, 999.4221
610.3611, 999.0273
610.8433, 997.9895
611.3254, 997.2293
611.8075, 996.9616
612.2896, 996.8710
612.7717, 997.0128
613.2538, 997.1552
613.7360, 996.8969
614.2181, 996.1263
614.7002, 995.0461
615.1823, 993.7872
615.6644, 992.3030
616.1465, 991.6038
616.6287, 992.6303
617.1108, 993.1363
617.5929, 992.4030
618.0750, 990.9952
618.5571, 989.2753
619.0392, 987.3625
619.5214, 985.8207
620.0035, 985.2051
620.4856, 985.2375
620.9677, 985.4875
621.4498, 985.9611
621.9319, 985.9153
622.4141, 984.8313
622.8962, 983.1782
623.3783, 981.9022
623.8604, 981.0139
624.3425, 980.4174
624.8246, 980.4346
625.3068, 980.4512
625.7889, 979.8937
626.2710, 978.9971
626.7531, 978.5247
627.2352, 978.8712
627.7173, 979.2991
628.1995, 978.2404
628.6816, 975.2690
629.1637, 973.1402
629.6458, 972.3698
630.1279, 972.0067
630.6100, 971.5398
631.0922, 971.1085
631.5743, 971.0445
632.0564, 971.6052
632.5385, 972.0065
633.0206, 971.6547
633.5027, 970.7558
633.9849, 969.7311
634.4670, 968.6404
634.9491, 967.2006
635.4312, 965.0757
635.9133, 962.5140
636.3954, 960.6609
636.8776, 960.1097
637.3597, 959.5235
637.8418, 959.0107
638.3239, 958.3356
638.8060, 957.2252
639.2881, 955.7859
639.7703, 954.3548
640.2524, 953.0980
640.7345, 952.0461
641.2166, 951.4368
641.6987, 951.3048
642.1808, 950.6710
642.6630, 949.1945
643.1451, 947.3993
643.6272, 945.4477
644.1093, 943.4930
644.5914, 942.2496
645.0735, 942.4222
645.5557, 942.6394
646.0378, 942.3517
646.5199, 941.6851
647.0020, 940.7436
647.4841, 939.5893
647.9662, 938.3535
648.4484, 937.1114
648.9305, 935.9167
649.4126, 935.1666
649.8947, 935.3636
650.3768, 935.0582
650.8589, 933.4201
651.3411, 931.6830
651.8232, 931.0314
652.3053, 931.2082
652.7874, 930.6569
653.2695, 928.0057
653.7516, 924.8045
654.2338, 923.1887
654.7159, 922.7874
655.1980, 921.6694
655.6801, 919.1218
656.1622, 916.7615
656.6443, 916.7136
657.1265, 919.2159
657.6086, 919.3740
658.0907, 914.7805
658.5728, 911.2036
659.0549, 911.2440
659.5370, 912.2128
660.0192, 910.8312
660.5013, 906.9572
660.9834, 903.4510
661.4655, 902.9148
661.9476, 904.3731
662.4297, 904.8565
662.9119, 904.2862
663.3940, 903.3727
663.8761, 902.3030
664.3582, 901.0159
664.8403, 899.2550
665.3224, 897.0742
665.8046, 895.3254
666.2867, 894.3674
666.7688, 893.6385
667.2509, 892.9172
667.7330, 892.1922
668.2151, 891.4873
668.6973, 890.7977
669.1794, 890.0446
669.6615, 889.1066
670.1436, 888.0079
670.6257, 887.1267
671.1078, 886.6660
671.5900, 885.9952
672.0721, 884.8339
672.5542, 883.4534
673.0363, 882.0164
673.5184, 880.5388
674.0005, 879.0269
674.4827, 877.2878
674.9648, 875.6501
675.4469, 874.4873
675.9290, 873.6941
676.4111, 872.9957
676.8932, 872.3113
677.3754, 871.5372
677.8575, 870.4974
678.3396, 869.1645
678.8217, 868.3235
679.3038, 868.8625
679.7859, 868.7552
680.2681, 867.2156
680.7502, 865.2072
681.2323, 863.6133
681.7144, 862.5029
682.1965, 861.3254
682.6786, 859.5159
683.1608, 857.5855
683.6429, 856.4602
684.1250, 856.0587
684.6071, 855.7740
685.0892, 855.4711
685.5714, 855.0087
686.0535, 854.1166
686.5356, 852.7410
687.0177, 851.9407
687.4998, 852.4271
687.9819, 852.5328
688.4641, 851.4889
688.9462, 850.0826
689.4283, 849.0484
689.9104, 848.5111
690.3925, 848.2692
690.8746, 848.3250
691.3568, 848.4283
691.8389, 847.9753
692.3210, 846.9612
692.8031, 845.5790
693.2852, 843.7175
693.7673, 841.8118
694.2495, 840.2512
694.7316, 839.0403
695.2137, 838.1202
695.6958, 837.7346
696.1779, 837.3411
696.6600, 836.7445
697.1422, 836.0494
697.6243, 835.4526
698.1064, 834.9178
698.5885, 834.0912
699.0706, 832.5838
699.5527, 830.7971
700.0349, 830.0394
700.5170, 830.5322
700.9991, 830.5910
701.4812, 829.6532
701.9633, 828.5233
702.4454, 827.8136
702.9276, 827.4596
703.4097, 827.2863
703.8918, 827.4498
704.3739, 827.5412
704.8560, 827.2097
705.3381, 826.8135
705.8203, 826.9198
706.3024, 827.4658
706.7845, 827.8268
707.2666, 827.5696
707.7487, 826.8520
708.2308, 826.0151
708.7130, 824.9402
709.1951, 824.3672
709.6772, 825.0267
710.1593, 825.3447
710.6414, 823.5992
711.1235, 820.9109
711.6057, 819.8325
712.0878, 821.5349
712.5699, 823.1035
713.0520, 822.8869
713.5341, 821.9182
714.0162, 821.3174
714.4984, 821.1741
714.9805, 821.2675
715.4626, 821.5119
715.9447, 821.6248
716.4268, 820.7836
716.9089, 818.5153
717.3911, 817.4671
717.8732, 818.5639
718.3553, 819.7166
718.8374, 819.8745
719.3195, 819.5126
719.8016, 819.3188
720.2838, 819.4318
720.7659, 819.4586
721.2480, 819.0662
721.7301, 818.5953
722.2122, 818.4286
722.6943, 818.5233
723.1765, 818.6329
723.6586, 818.6493
724.1407, 818.6812
724.6228, 818.9034
725.1049, 819.3373
725.5870, 819.7772
726.0692, 820.2851
726.5513, 820.6901
727.0334, 820.8658
727.5155, 820.9532
727.9976, 820.9229
728.4797, 820.7971
728.9619, 818.4424
729.4440, 821.5614
729.9261, 823.5197
730.4082, 824.3794
730.8903, 820.8507
731.3724, 822.9887
731.8546, 822.8560
732.3367, 822.6299
732.8188, 825.5655
733.3009, 822.6751
733.7830, 825.5606
734.2651, 826.1404
734.7473, 827.7756
735.2294, 827.1257
735.7115, 827.1815
736.1936, 829.5231
736.6757, 830.5991
737.1578, 829.6860
737.6400, 829.4533
738.1221, 829.4724
738.6042, 830.0812
739.0863, 831.0952
739.5684, 832.3766
740.0505, 833.8093
740.5327, 834.9655
741.0148, 835.4926
741.4969, 835.6329
741.9790, 836.2067
742.4611, 837.4572
742.9432, 838.2109
743.4254, 838.0373
743.9075, 837.7418
744.3896, 837.3195
744.8717, 837.2067
745.3538, 838.5126
745.8359, 842.0931
746.3181, 844.8378
746.8002, 844.3738
747.2823, 843.0908
747.7644, 843.5989
748.2465, 845.5671
748.7286, 847.2655
749.2108, 847.9041
749.6929, 848.1205
750.1750, 848.9543
750.6571, 850.4628
751.1392, 851.3658
751.6213, 851.3879
752.1035, 851.4461
752.5856, 851.9860
753.0677, 852.6823
753.5498, 853.0342
754.0319, 853.0153
754.5140, 853.3743
754.9962, 854.3768
755.4783, 855.7062
755.9604, 857.4931
756.4425, 859.3411
756.9246, 860.6071
757.4067, 861.2083
757.8889, 861.6381
758.3710, 862.3201
758.8531, 863.1703
759.3352, 863.8643
759.8173, 864.3580
760.2994, 865.0543
760.7816, 866.0505
761.2637, 867.2486
761.7458, 868.6517
762.2279, 870.2038
762.7100, 871.6337
763.1921, 873.0508
763.6743, 874.1731
764.1564, 874.5925
764.6385, 874.9755
765.1206, 875.7858
765.6027, 877.0556
766.0848, 878.7200
766.5670, 880.7657
767.0491, 883.0101
767.5312, 885.5215
768.0133, 888.0984
768.4954, 889.4670
768.9775, 889.4357
769.4597, 889.1458
769.9418, 889.0346
770.4239, 889.1296
770.9060, 889.5463
771.3881, 890.4509
771.8702, 890.9648
772.3524, 890.1876
772.8345, 890.0945
773.3166, 891.9132
773.7987, 894.4426
774.2808, 896.2953
774.7629, 897.3182
775.2451, 898.3997
775.7272, 900.3909
776.2093, 902.5157
776.6914, 903.2924
777.1735, 903.1271
777.6556, 903.7064
778.1378, 905.4290
778.6199, 907.8309
779.1020, 910.7885
779.5841, 913.8928
780.0662, 914.8396
780.5483, 911.4950
781.0305, 910.0538
781.5126, 912.3373
781.9947, 915.0995
782.4768, 917.1158
782.9589, 918.4043
783.4410, 919.0170
783.9232, 918.8245
784.4053, 918.7275
784.8874, 919.2763
785.3695, 920.2142
785.8516, 921.3268
786.3337, 922.5471
786.8159, 923.8112
787.2980, 925.0904
787.7801, 926.1635
788.2622, 926.6594
788.7443, 926.6065
789.2264, 926.8679
789.7086, 927.3160
790.1907, 928.4729
790.6728, 930.8839
791.1549, 933.7121
791.6370, 936.3061
792.1191, 938.6384
792.6013, 940.3925
793.0834, 941.4025
793.5655, 941.9813
794.0476, 942.3624
794.5297, 942.2775
795.0118, 941.1116
795.4940, 939.1674
795.9761, 937.5084
796.4582, 936.7159
796.9403, 936.4756
797.4224, 936.4401
797.9045, 936.5668
798.3867, 936.5397
798.8688, 936.2957
799.3509, 936.2341
799.8330, 936.6323
800.3151, 937.2211
800.7972, 937.5665
801.2794, 937.7919
801.7615, 937.2652
802.2436, 935.0280
802.7257, 933.2920
803.2078, 932.7987
803.6899, 933.0648
804.1721, 933.6890
804.6542, 934.5652
805.1363, 935.5996
805.6184, 937.1800
806.1005, 938.3903
806.5826, 937.9637
807.0648, 936.5031
807.5469, 935.1888
808.0290, 934.2825
808.5111, 934.0142
808.9932, 934.6427
809.4753, 935.6966
809.9575, 935.8580
810.4396, 934.8870
810.9217, 934.1443
811.4038, 934.0766
811.8859, 933.6062
812.3680, 931.9280
812.8502, 929.6361
813.3323, 927.3199
813.8144, 924.8379
814.2965, 923.5927
814.7786, 925.0729
815.2607, 926.6228
815.7429, 926.5295
816.2250, 925.6125
816.7071, 925.1617
817.1892, 925.3558
817.6713, 925.4300
818.1534, 924.7651
818.6356, 923.6744
819.1177, 922.6826
819.5998, 921.7949
820.0819, 921.3760
820.5640, 921.6474
821.0461, 920.7371
821.5283, 916.8310
822.0104, 911.3214
822.4925, 908.6179
822.9746, 910.7649
823.4567, 911.1086
823.9388, 908.0978
824.4210, 905.0824
824.9031, 903.4631
825.3852, 902.3981
825.8673, 900.5931
826.3494, 897.8916
826.8315, 895.7977
827.3137, 895.9362
827.7958, 896.1075
828.2779, 894.2132
828.7600, 891.1038
829.2421, 888.1956
829.7242, 885.8544
830.2064, 884.0569
830.6885, 882.8320
831.1706, 881.9739
831.6527, 881.1142
832.1348, 880.2748
832.6169, 878.6453
833.0991, 875.8835
833.5812, 873.0764
834.0633, 870.7379
834.5454, 868.8474
835.0275, 867.4661
835.5096, 867.0899
835.9918, 865.6771
836.4739, 862.0014
836.9560, 858.7044
837.4381, 856.8202
837.9202, 855.7758
838.4023, 855.3662
838.8845, 855.2654
839.3666, 854.0854
839.8487, 850.3292
840.3308, 846.1086
840.8129, 843.7539
841.2950, 842.4671
841.7772, 840.6716
842.2593, 838.1813
842.7414, 835.5465
843.2235, 833.1140
843.7056, 830.8848
844.1877, 829.0457
844.6699, 827.7061
845.1520, 825.2938
845.6341, 821.1404
846.1162, 817.7499
846.5983, 816.5245
847.0804, 816.2519
847.5626, 815.5016
848.0447, 814.3149
848.5268, 811.8818
849.0089, 806.5795
849.4910, 802.0739
849.9731, 799.7291
850.4553, 798.3315
850.9374, 797.0883
851.4195, 795.7623
851.9016, 794.2207
852.3837, 792.5173
852.8658, 790.1402
853.3480, 785.8890
853.8301, 780.9635
854.3122, 777.6056
854.7943, 775.7245
855.2764, 774.0314
855.7585, 771.9861
856.2407, 769.9189
856.7228, 768.3812
857.2049, 765.9908
857.6870, 763.4844
858.1691, 761.4691
858.6512, 758.1735
859.1334, 755.7452
859.6155, 753.5984
860.0976, 751.3734
860.5797, 749.0051
861.0618, 746.1325
861.5439, 742.2433
862.0261, 738.7302
862.5082, 735.7394
862.9903, 733.1511
863.4724, 731.2453
863.9545, 729.5605
864.4366, 727.3333
864.9188, 724.3770
865.4009, 721.3010
865.8830, 718.2823
866.3651, 715.5245
866.8472, 713.8459
867.3293, 712.4840
867.8115, 709.0726
868.2936, 703.4152
868.7757, 698.2625
869.2578, 695.8278
869.7399, 694.9557
870.2220, 692.7411
870.7042, 689.1098
871.1863, 685.6932
871.6684, 682.6315
872.1505, 679.7844
872.6326, 677.1714
873.1147, 674.6447
873.5969, 671.9311
874.0790, 668.9997
874.5611, 666.0562
875.0432, 663.0942
875.5253, 660.1599
876.0074, 657.6174
876.4896, 654.8334
876.9717, 650.9346
877.4538, 646.2590
877.9359, 642.0937
878.4180, 638.9390
878.9001, 636.1586
879.3823, 633.7844
879.8644, 631.2569
880.3465, 627.6978
880.8286, 623.4247
881.3107, 619.2446
881.7928, 615.4990
882.2750, 612.3996
882.7571, 610.6313
883.2392, 609.5021
883.7213, 606.3845
884.2034, 601.4540
884.6855, 597.9035
885.1677, 596.6443
885.6498, 595.7230
886.1319, 593.7969
886.6140, 590.8039
887.0961, 586.3542
887.5782, 579.4064
888.0604, 573.6520
888.5425, 569.3972
889.0246, 565.9537
889.5067, 563.6555
889.9888, 561.6397
890.4709, 558.8154
890.9531, 555.1373
891.4352, 551.6823
891.9173, 549.0988
892.3994, 546.2201
892.8815, 542.2833
893.3636, 538.0460
893.8458, 534.1186
894.3279, 530.5887
894.8100, 527.4780
895.2921, 524.8488
895.7742, 522.1927
896.2563, 519.2053
896.7385, 515.7930
897.2206, 511.3307
897.7027, 506.2677
898.1848, 502.6494
898.6669, 501.0323
899.1490, 499.6536
899.6312, 496.7487
900.1133, 492.7395
900.5954, 489.3114
901.0775, 486.5521
901.5596, 483.3277
902.0417, 479.2780
902.5239, 475.4619
903.0060, 472.5681
903.4881, 470.2486
903.9702, 467.7948
904.4523, 465.1874
904.9344, 462.5273
905.4166, 459.8221
905.8987, 457.0479
906.3808, 454.1417
906.8629, 451.1767
907.3450, 448.3379
907.8271, 445.5139
908.3093, 442.2656
908.7914, 438.0767
909.2735, 434.2300
909.7556, 431.7476
910.2377, 429.4395
910.7198, 426.1059
911.2020, 422.1504
911.6841, 418.5700
912.1662, 415.6392
912.6483, 412.7453
913.1304, 409.3205
913.6125, 405.6742
914.0947, 402.3082
914.5768, 399.1657
915.0589, 396.1035
915.5410, 393.0867
916.0231, 390.1360
916.5052, 387.2437
916.9874, 384.4340
917.4695, 381.7833
917.9516, 379.3016
918.4337, 376.4736
918.9158, 373.1704
919.3979, 370.1088
919.8801, 367.6854
920.3622, 365.3092
920.8443, 362.3412
921.3264, 358.8349
921.8085, 355.4661
922.2906, 351.9702
922.7728, 349.0338
923.2549, 347.4438
923.7370, 345.5704
924.2191, 342.2241
924.7012, 338.3104
925.1833, 335.3935
925.6655, 333.7047
926.1476, 331.5081
926.6297, 327.4048
927.1118, 323.7245
927.5939, 322.3781
928.0760, 321.5391
928.5582, 318.9141
929.0403, 314.8429
929.5224, 311.2885
930.0045, 309.1219
930.4866, 307.4992
930.9688, 305.8577
931.4509, 304.1250
931.9330, 302.2260
932.4151, 300.1407
932.8972, 297.8154
933.3793, 295.2469
933.8615, 292.4825
934.3436, 289.5373
934.8257, 286.5203
935.3078, 283.6453
935.7899, 280.9277
936.2720, 278.5985
936.7542, 276.7392
937.2363, 274.7534
937.7184, 272.3165
938.2005, 269.7110
938.6826, 267.3633
939.1647, 265.2762
939.6469, 263.1358
940.1290, 260.8266
940.6111, 258.7692
941.0932, 257.2324
941.5753, 255.7466
942.0574, 254.0880
942.5396, 252.2092
943.0217, 249.9581
943.5038, 247.2628
943.9859, 244.4365
944.4680, 240.9564
944.9501, 238.0215
945.4323, 236.3432
945.9144, 235.2271
946.3965, 234.1571
946.8786, 232.9785
947.3607, 231.3883
947.8428, 228.9585
948.3250, 226.7797
948.8071, 225.5991
949.2892, 224.8032
949.7713, 224.1567
950.2534, 223.3374
950.7355, 221.6473
951.2177, 219.0331
951.6998, 216.5683
952.1819, 215.1480
952.6640, 214.2205
953.1461, 213.2422
953.6282, 212.1263
954.1104, 210.5360
954.5925, 208.5469
955.0746, 206.7988
955.5567, 205.6040
956.0388, 204.5801
956.5209, 203.2395
957.0031, 201.6041
957.4852, 199.5800
957.9673, 197.1653
958.4494, 195.5893
958.9315, 195.2080
959.4136, 195.0448
959.8958, 194.4325
960.3779, 193.4219
960.8600, 192.0830
961.3421, 190.3147
961.8242, 188.7498
962.3063, 187.3964
962.7885, 186.2596
963.2706, 185.5059
963.7527, 184.7553
964.2348, 183.5257
964.7169, 181.9240
965.1990, 180.7234
965.6812, 180.4416
966.1633, 179.7697
966.6454, 178.3396
967.1275, 176.9419
967.6096, 175.8660
968.0917, 175.0263
968.5739, 174.3932
969.0560, 173.9343
969.5381, 173.3080
970.0202, 172.2483
970.5023, 171.2451
970.9844, 170.6064
971.4666, 169.9669
971.9487, 168.7766
972.4308, 167.4236
972.9129, 166.8194
973.3950, 167.1818
973.8771, 167.4288
974.3593, 166.8768
974.8414, 165.9751
975.3235, 165.0392
975.8056, 164.0516
976.2877, 162.9095
976.7698, 161.6759
977.2520, 160.5862
977.7341, 159.7528
978.2162, 159.0266
978.6983, 158.2564
979.1804, 157.4821
979.6625, 156.6988
980.1447, 155.9895
980.6268, 155.7309
981.1089, 155.9402
981.5910, 156.0334
982.0731, 155.5927
982.5552, 154.9096
983.0374, 154.6277
983.5195, 153.8046
984.0016, 153.8947
984.4837, 152.3996
984.9658, 151.2488
985.4479, 150.8168
985.9301, 150.5801
986.4122, 150.0770
986.8943, 149.3555
987.3764, 148.4870
987.8585, 147.3442
988.3406, 147.0221
988.8228, 147.9057
989.3049, 148.4558
989.7870, 147.9576
990.2691, 146.9952
990.7512, 146.1923
991.2333, 145.5520
991.7155, 145.1537
992.1976, 145.1595
992.6797, 145.0651
993.1618, 144.8460
993.6439, 144.5075
994.1260, 143.8658
994.6082, 143.2117
995.0903, 143.0971
995.5724, 143.5580
996.0545, 143.4950
996.5366, 142.4130
997.0187, 141.4564
997.5009, 140.6562
997.9830, 140.1875
998.4651, 140.4481
998.9472, 140.9882
999.4293, 141.0657
999.9114, 140.5732
1000.394, 139.8677
1000.876, 138.6796
1001.358, 137.7673
1001.840, 137.6049
1002.322, 137.7303
1002.804, 137.9067
1003.286, 137.9844
1003.768, 137.6399
1004.250, 136.7507
1004.733, 136.1224
1005.215, 136.5636
1005.697, 137.0235
1006.179, 136.5389
1006.661, 135.7167
1007.143, 135.2972
1007.625, 135.3286
1008.107, 135.6697
1008.590, 136.3064
1009.072, 136.6319
1009.554, 135.7595
1010.036, 134.6084
1010.518, 134.4278
1011.000, 134.7633
1011.482, 134.6236
1011.964, 133.9292
1012.446, 133.2421
1012.929, 132.8615
1013.411, 132.6227
1013.893, 132.2117
1014.375, 131.8539
1014.857, 132.1922
1015.339, 132.9970
1015.821, 133.4947
1016.303, 133.4982
1016.786, 133.0631
1017.268, 132.1624
1017.750, 131.2548
1018.232, 131.2867
1018.714, 131.9541
1019.196, 131.8550
1019.678, 131.0618
1020.160, 130.6241
1020.642, 130.8292
1021.125, 131.2499
1021.607, 131.5690
1022.089, 131.7842
1022.571, 131.8918
1023.053, 131.8924
1023.535, 131.7259
1024.017, 131.3758
1024.499, 131.2967
1024.981, 131.6847
1025.464, 131.9810
1025.946, 131.6538
1026.428, 130.8918
1026.910, 130.2289
1027.392, 129.6399
1027.874, 129.4577
1028.356, 129.8000
1028.838, 129.9974
1029.321, 129.7420
1029.803, 129.5037
1030.285, 129.8027
1030.767, 130.4657
1031.249, 130.7068
1031.731, 130.4303
1032.213, 130.0654
1032.695, 129.5111
1033.177, 129.1543
1033.660, 129.1376
1034.142, 129.3940
1034.624, 129.9945
1035.106, 130.8089
1035.588, 130.9466
1036.070, 129.8431
1036.552, 129.4554
1037.034, 130.2988
1037.516, 131.0334
1037.999, 131.1258
1038.481, 130.9174
1038.963, 130.6855
1039.445, 130.4553
1039.927, 130.4285
1040.409, 130.9063
1040.891, 131.0515
1041.373, 130.4514
1041.856, 130.0428
1042.338, 130.3298
1042.820, 130.8561
1043.302, 131.3056
1043.784, 131.6268
1044.266, 131.4421
1044.748, 130.1116
1045.230, 129.3376
1045.713, 129.5375
1046.195, 129.9130
1046.677, 130.2309
1047.159, 130.5087
1047.641, 130.7964
1048.123, 131.0788
1048.605, 131.2477
1049.087, 131.1550
1049.569, 131.1986
1050.052, 131.6266
1050.534, 131.9748
1051.016, 132.0546
1051.498, 131.9272
1051.980, 131.4409
1052.462, 130.7552
1052.944, 130.7191
1053.426, 131.7892
1053.908, 132.8876
1054.391, 133.9541
1054.873, 134.7800
1055.355, 135.2200
1055.837, 135.3943
1056.319, 135.3968
1056.801, 135.2629
1057.283, 135.0535
1057.765, 134.6141
1058.248, 134.5052
1058.730, 135.3390
1059.212, 136.0363
1059.694, 135.7213
1060.176, 135.1352
1060.658, 135.1733
1061.140, 135.7911
1061.622, 136.4079
1062.104, 136.9385
1062.587, 137.2520
1063.069, 136.8857
1063.551, 136.7582
1064.033, 137.6876
1064.515, 138.9500
1064.997, 139.8336
1065.479, 140.2429
1065.961, 140.1834
1066.443, 139.4862
1066.926, 138.9342
1067.408, 138.7608
1067.890, 138.9210
1068.372, 139.5896
1068.854, 140.4309
1069.336, 141.1496
1069.818, 141.6905
1070.300, 142.0185
1070.783, 142.0719
1071.265, 142.1788
1071.747, 142.6090
1072.229, 142.9922
1072.711, 142.9410
1073.193, 142.8502
1073.675, 143.1655
1074.157, 143.8289
1074.640, 144.6262
1075.122, 145.5593
1075.604, 146.1363
1076.086, 145.6571
1076.568, 145.3225
1077.050, 146.0464
1077.532, 147.1016
1078.014, 147.9370
1078.496, 148.3941
1078.979, 148.1260
1079.461, 146.9820
1079.943, 146.3836
1080.425, 147.3467
1080.907, 148.5837
1081.389, 149.1277
1081.871, 149.8274
1082.353, 152.2905
1082.836, 155.3300
1083.318, 155.8571
1083.800, 153.2323
1084.282, 151.8146
1084.764, 154.9958
1085.246, 157.9002
1085.728, 157.7779
1086.210, 156.6316
1086.693, 155.7782
1087.175, 155.3878
1087.657, 155.5987
1088.139, 156.3764
1088.621, 157.0190
1089.103, 157.1327
1089.585, 157.2166
1090.067, 157.3442
1090.549, 157.6633
1091.031, 158.4494
1091.514, 159.4140
1091.996, 160.0089
1092.478, 160.2533
1092.960, 160.8921
1093.442, 162.4345
1093.924, 163.9132
1094.406, 165.1241
1094.888, 166.0011
1095.371, 166.3876
1095.853, 166.4940
1096.335, 166.4863
1096.817, 166.4419
1097.299, 166.5660
1097.781, 166.9825
1098.263, 167.3947
1098.745, 167.6229
1099.228, 167.9283
1099.710, 168.5950
1100.192, 169.2988
1100.674, 169.5623
1101.156, 169.5529
1101.638, 169.8777
1102.120, 170.6350
1102.602, 171.7934
1103.084, 173.9775
1103.567, 175.7503
1104.049, 176.1812
1104.531, 176.2935
1105.013, 177.0196
1105.495, 178.1177
1105.977, 178.7934
1106.459, 178.8110
1106.941, 179.3961
1107.423, 181.3606
1107.906, 183.0690
1108.388, 183.9950
1108.870, 184.6236
1109.352, 185.1076
1109.834, 185.5832
1110.316, 186.2944
1110.798, 187.2761
1111.280, 188.1264
1111.763, 188.9683
1112.245, 189.4540
1112.727, 189.0594
1113.209, 188.8583
1113.691, 189.4214
1114.173, 190.4326
1114.655, 191.4797
1115.137, 192.5764
1115.620, 194.0249
1116.102, 196.0529
1116.584, 198.0363
1117.066, 200.3578
1117.548, 202.0308
1118.030, 202.3216
1118.512, 202.2407
1118.994, 202.6101
1119.476, 203.4331
1119.958, 204.7885
1120.441, 207.0215
1120.923, 208.6550
1121.405, 209.3733
1121.887, 210.1957
1122.369, 211.5186
1122.851, 212.7245
1123.333, 213.2176
1123.815, 213.4282
1124.298, 214.3784
1124.780, 216.1581
1125.262, 217.3812
1125.744, 217.7025
1126.226, 218.8379
1126.708, 221.3512
1127.190, 223.7881
1127.672, 225.3144
1128.155, 226.4236
1128.637, 227.8567
1129.119, 229.5393
1129.601, 230.7223
1130.083, 231.3230
1130.565, 232.4723
1131.047, 234.3410
1131.529, 236.1930
1132.011, 237.7460
1132.494, 239.0088
1132.976, 239.9380
1133.458, 240.6884
1133.940, 241.5720
1134.422, 242.6363
1134.904, 244.7719
1135.386, 247.9305
1135.868, 250.3351
1136.350, 251.5168
1136.833, 252.4615
1137.315, 253.8595
1137.797, 255.5179
1138.279, 257.0928
1138.761, 258.6585
1139.243, 260.4757
1139.725, 262.5125
1140.207, 264.7140
1140.690, 267.0144
1141.172, 269.0817
1141.654, 270.7665
1142.136, 272.2535
1142.618, 273.5805
1143.100, 274.9974
1143.582, 277.0045
1144.064, 279.3861
1144.547, 281.8619
1145.029, 284.2731
1145.511, 286.1281
1145.993, 287.4084
1146.475, 289.0701
1146.957, 291.9196
1147.439, 295.0044
1147.921, 297.4315
1148.403, 299.5288
1148.885, 301.5789
1149.368, 303.6194
1149.850, 305.5933
1150.332, 307.5516
1150.814, 309.7272
1151.296, 312.1905
1151.778, 314.9362
1152.260, 318.2639
1152.742, 321.4985
1153.225, 324.2221
1153.707, 326.6177
1154.189, 328.7559
1154.671, 330.7968
1155.153, 333.0411
1155.635, 335.5606
1156.117, 338.0468
1156.599, 340.3503
1157.082, 342.6843
1157.564, 345.1029
1158.046, 347.5844
1158.528, 349.8443
1159.010, 352.3160
1159.492, 355.8994
1159.974, 360.3932
1160.456, 364.0063
1160.938, 365.6941
1161.421, 368.2513
1161.903, 373.1592
1162.385, 376.9252
1162.867, 377.0732
1163.349, 377.5742
1163.831, 382.1820
1164.313, 389.0162
1164.795, 393.2734
1165.277, 394.4989
1165.760, 397.2111
1166.242, 402.0524
1166.724, 406.3031
1167.206, 409.3908
1167.688, 412.2887
1168.170, 415.4487
1168.652, 418.7244
1169.134, 421.8521
1169.617, 424.9711
1170.099, 428.8906
1170.581, 433.6348
1171.063, 437.5409
1171.545, 440.5135
1172.027, 443.7263
1172.509, 447.5629
1172.991, 451.9494
1173.474, 456.9381
1173.956, 461.8622
1174.438, 465.3426
1174.920, 467.8798
1175.402, 470.9173
1175.884, 474.4447
1176.366, 478.3842
1176.848, 482.7132
1177.330, 487.4848
1177.813, 492.6990
1178.295, 497.5858
1178.777, 501.0474
1179.259, 504.5435
1179.741, 510.5664
1180.223, 517.2924
1180.705, 521.8636
1181.187, 525.0375
1181.669, 528.6840
1182.152, 533.1149
1182.634, 537.5322
1183.116, 541.4503
1183.598, 545.7013
1184.080, 551.0231
1184.562, 556.5205
1185.044, 561.3763
1185.526, 566.2712
1186.009, 572.2507
1186.491, 578.8036
1186.973, 584.5769
1187.455, 589.2787
1187.937, 594.1360
1188.419, 599.2322
1188.901, 604.7731
1189.383, 611.3685
1189.865, 617.7854
1190.348, 623.4516
1190.830, 628.5391
1191.312, 632.8708
1191.794, 636.7582
1192.276, 641.8096
1192.758, 648.3678
1193.240, 655.0310
1193.722, 661.9608
1194.204, 668.3787
1194.687, 673.8627
1195.169, 679.6637
1195.651, 686.7773
1196.133, 694.1417
1196.615, 699.9030
1197.097, 706.8361
1197.579, 712.9639
1198.061, 718.7146
1198.544, 724.7888
1199.026, 728.8620
1199.508, 733.9150
1199.990, 740.8899
1200.472, 748.3630
1200.954, 755.1583
1201.436, 761.7543
1201.918, 769.1872
1202.401, 776.8136
1202.883, 782.5942
1203.365, 790.7150
1203.847, 795.5475
1204.329, 805.6111
1204.811, 814.7717
1205.293, 821.8522
1205.775, 828.3103
1206.257, 834.9519
1206.740, 841.5953
1207.222, 848.3442
1207.704, 854.8121
1208.186, 860.0961
1208.668, 865.1953
1209.150, 871.6827
1209.632, 879.5120
1210.114, 887.5251
1210.596, 895.4532
1211.079, 903.5202
1211.561, 911.9973
1212.043, 920.4105
1212.525, 928.5305
1213.007, 936.6367
1213.489, 944.9118
1213.971, 953.2926
1214.453, 961.7657
1214.936, 970.2731
1215.418, 977.6673
1215.900, 983.1984
1216.382, 990.6368
1216.864, 1000.682
1217.346, 1010.238
1217.828, 1018.373
1218.310, 1025.562
1218.792, 1032.142
1219.275, 1038.469
1219.757, 1045.063
1220.239, 1052.090
1220.721, 1060.758
1221.203, 1070.740
1221.685, 1080.542
1222.167, 1089.859
1222.649, 1098.092
1223.131, 1105.184
1223.614, 1112.246
1224.096, 1119.758
1224.578, 1128.750
1225.060, 1141.607
1225.542, 1155.457
1226.024, 1167.765
1226.506, 1178.023
1226.988, 1185.058
1227.471, 1189.651
1227.953, 1193.898
1228.435, 1198.305
1228.917, 1203.328
1229.399, 1208.641
1229.881, 1215.260
1230.363, 1224.439
1230.845, 1234.040
1231.328, 1243.052
1231.810, 1251.634
1232.292, 1259.929
1232.774, 1268.043
1233.256, 1276.377
1233.738, 1285.227
1234.220, 1292.874
1234.702, 1298.634
1235.184, 1305.358
1235.667, 1313.732
1236.149, 1322.515
1236.631, 1331.190
1237.113, 1339.201
1237.595, 1345.710
1238.077, 1351.417
1238.559, 1358.763
1239.041, 1367.324
1239.523, 1374.982
1240.006, 1381.797
1240.488, 1388.165
1240.970, 1394.296
1241.452, 1400.572
1241.934, 1407.230
1242.416, 1414.474
1242.898, 1422.888
1243.380, 1431.535
1243.863, 1439.820
1244.345, 1447.571
1244.827, 1454.311
1245.309, 1460.599
1245.791, 1467.039
1246.273, 1473.926
1246.755, 1482.207
1247.237, 1493.023
1247.719, 1502.108
1248.202, 1507.133
1248.684, 1512.284
1249.166, 1519.234
1249.648, 1526.063
1250.130, 1531.147
1250.612, 1536.029
1251.094, 1542.953
1251.576, 1551.570
1252.058, 1559.597
1252.541, 1567.078
1253.023, 1573.626
1253.505, 1579.223
1253.987, 1584.140
1254.469, 1588.427
1254.951, 1593.376
1255.433, 1599.750
1255.915, 1606.757
1256.398, 1613.598
1256.880, 1620.207
1257.362, 1626.443
1257.844, 1632.313
1258.326, 1637.395
1258.808, 1642.246
1259.290, 1648.498
1259.772, 1656.019
1260.255, 1663.034
1260.737, 1668.823
1261.219, 1673.922
1261.701, 1678.604
1262.183, 1682.687
1262.665, 1684.155
1263.147, 1687.060
1263.629, 1695.209
1264.111, 1706.049
1264.594, 1717.193
1265.076, 1727.810
1265.558, 1733.922
1266.040, 1734.173
1266.522, 1734.554
1267.004, 1734.540
1267.486, 1736.766
1267.968, 1742.241
1268.450, 1747.544
1268.933, 1750.920
1269.415, 1753.469
1269.897, 1756.375
1270.379, 1759.572
1270.861, 1762.652
1271.343, 1765.990
1271.825, 1770.972
1272.307, 1777.191
1272.790, 1783.879
1273.272, 1790.361
1273.754, 1794.778
1274.236, 1796.499
1274.718, 1797.500
1275.200, 1798.141
1275.682, 1799.889
1276.164, 1803.726
1276.646, 1808.850
1277.129, 1816.509
1277.611, 1823.715
1278.093, 1826.309
1278.575, 1825.657
1279.057, 1826.649
1279.539, 1829.758
1280.021, 1832.613
1280.503, 1834.279
1280.985, 1837.492
1281.468, 1843.602
1281.950, 1849.327
1282.432, 1853.395
1282.914, 1856.700
1283.396, 1859.955
1283.878, 1863.316
1284.360, 1867.054
1284.842, 1870.284
1285.325, 1870.795
1285.807, 1868.938
##END=



