##NAMES=Nuffieldite
##RRUFFID=R100113
##IDEAL CHEMISTRY=Pb^2+^_2_Cu^1+^_1.4_(Pb^2+^_0.4_Bi^3+^_0.4_Sb^3+^_0.2_)Bi^3+^_2_S^2-^_7_
##LOCALITY=British Columbia Molybdenum mine, Kitsault, British Columbia, Canada
##OWNER=RRUFF
##SOURCE=Robert Woodside
##DESCRIPTION=Steel-gray striated prismatic crystals in quartz
##STATUS=The identification of this mineral is confirmed by single-crystal X-ray diffraction and chemical analysis.
##URL=rruff.info/R100113
##MEASURED CHEMISTRY=Pb_2.00_(Cu_1.22_Sb_0.06_)_Σ=1.28_(Bi_0.71_Pb_0.23_Sb_0.06_)_Σ=1.00_Bi_2.00_S_7_ (Light phases are galena)
144.7626, 0.0000000E+00
145.2448, 5.117851
145.7269, 7.978668
146.2090, 5.860472
146.6911, 2.099829
147.1732, 0.4945490
147.6553, 2.113417
148.1375, 4.500622
148.6196, 5.476196
149.1017, 5.314501
149.5838, 6.030905
150.0659, 7.630695
150.5480, 7.509125
151.0302, 7.287079
151.5123, 6.898020
151.9944, 6.414083
152.4765, 6.041027
152.9586, 5.724615
153.4408, 5.084845
153.9229, 3.045767
154.4050, 0.4696200
154.8871, 1.725010
155.3692, 2.690048
155.8513, 7.396910
156.3335, 9.743114
156.8156, 9.511887
157.2977, 7.998665
157.7798, 6.537556
158.2619, 4.937716
158.7440, 4.115959
159.2262, 4.886522
159.7083, 5.786236
160.1904, 5.918770
160.6725, 5.113201
161.1546, 3.903214
161.6367, 3.528637
162.1189, 3.727648
162.6010, 4.021685
163.0831, 4.467541
163.5652, 4.957928
164.0473, 5.479090
164.5294, 5.935541
165.0115, 6.280645
165.4937, 6.304003
165.9758, 4.855707
166.4579, 4.698030
166.9400, 7.716528
167.4221, 11.94226
167.9042, 14.14889
168.3864, 12.70667
168.8685, 9.021078
169.3506, 6.914993
169.8327, 7.017866
170.3148, 7.236052
170.7969, 7.075878
171.2791, 7.013670
171.7612, 5.879103
172.2433, 4.458012
172.7254, 3.147184
173.2075, 2.382984
173.6896, 1.948256
174.1718, 2.451591
174.6539, 5.055386
175.1360, 9.758015
175.6181, 13.63434
176.1002, 15.81098
176.5823, 16.15961
177.0645, 13.86356
177.5466, 7.771614
178.0287, 1.383131
178.5108, 0.3854410
178.9929, 3.768248
179.4750, 7.997845
179.9572, 10.82325
180.4393, 12.28308
180.9214, 12.16275
181.4035, 10.20279
181.8856, 7.203686
182.3677, 4.735428
182.8499, 2.507860
183.3320, 1.516420
183.8141, 2.739470
184.2962, 4.769596
184.7783, 6.073130
185.2604, 5.942806
185.7425, 4.761185
186.2247, 3.858065
186.7068, 2.955219
187.1889, 2.767746
187.6710, 4.108648
188.1531, 6.016758
188.6352, 7.229486
189.1174, 7.025717
189.5995, 5.675587
190.0816, 4.667543
190.5637, 4.482286
191.0458, 4.106918
191.5279, 2.986626
192.0101, 1.578705
192.4922, 0.6875950
192.9743, 0.8272500
193.4564, 1.873537
193.9385, 2.908295
194.4206, 4.725080
194.9028, 5.733717
195.3849, 4.971397
195.8670, 2.882799
196.3491, 0.5887580
196.8312, 1.504980
197.3133, 3.079189
197.7955, 3.039684
198.2776, 3.0577000E-02
198.7597, 3.184345
199.2418, 5.209499
199.7239, 6.129026
200.2060, 6.513870
200.6882, 6.603855
201.1703, 6.380003
201.6524, 5.877487
202.1345, 4.615805
202.6166, 3.594851
203.0987, 3.712666
203.5809, 4.991920
204.0630, 6.532036
204.5451, 8.529060
205.0272, 10.21853
205.5093, 10.30880
205.9914, 7.844246
206.4735, 4.638247
206.9557, 2.932451
207.4378, 2.943424
207.9199, 3.433195
208.4020, 4.461599
208.8841, 5.463314
209.3662, 5.801716
209.8484, 5.178171
210.3305, 4.004726
210.8126, 2.914473
211.2947, 1.851109
211.7768, 1.050644
212.2589, 0.6608410
212.7411, 0.3988340
213.2232, 0.1637690
213.7053, 0.3781110
214.1874, 0.9482780
214.6695, 0.8631020
215.1516, 0.2476830
215.6338, 1.389107
216.1159, 2.587919
216.5980, 3.620243
217.0801, 4.204872
217.5622, 4.201477
218.0443, 3.836483
218.5265, 3.769983
219.0086, 4.507248
219.4907, 4.789129
219.9728, 3.956848
220.4549, 2.841362
220.9370, 2.511269
221.4192, 3.454786
221.9013, 5.020056
222.3834, 5.250006
222.8655, 1.799084
223.3476, 0.1861000
223.8297, 0.2549360
224.3119, 2.065100
224.7940, 4.264685
225.2761, 6.433493
225.7582, 8.343897
226.2403, 9.310944
226.7224, 8.138271
227.2045, 7.418800
227.6867, 7.941353
228.1688, 8.848547
228.6509, 8.995153
229.1330, 7.883469
229.6151, 5.914589
230.0972, 4.051073
230.5794, 1.588104
231.0615, 0.2666170
231.5436, 1.355413
232.0257, 3.545792
232.5078, 4.680119
232.9899, 3.782707
233.4721, 2.057064
233.9542, 2.401506
234.4363, 5.829351
234.9184, 8.364519
235.4005, 8.608778
235.8826, 7.363195
236.3648, 5.685350
236.8469, 3.768448
237.3290, 2.385130
237.8111, 3.693686
238.2932, 8.259283
238.7753, 11.58785
239.2575, 11.58830
239.7396, 9.323923
240.2217, 6.880608
240.7038, 4.568232
241.1859, 2.714518
241.6680, 1.855738
242.1502, 1.933977
242.6323, 2.278864
243.1144, 2.650496
243.5965, 3.081882
244.0786, 3.736671
244.5607, 4.825083
245.0428, 5.796343
245.5250, 5.923281
246.0071, 5.427063
246.4892, 5.147896
246.9713, 6.028982
247.4534, 7.520594
247.9355, 7.305891
248.4177, 4.067156
248.8998, 0.8303110
249.3819, 3.7999999E-02
249.8640, 0.9974770
250.3461, 2.539976
250.8282, 4.439447
251.3104, 6.363585
251.7925, 6.873941
252.2746, 5.061857
252.7567, 3.354210
253.2388, 3.364263
253.7209, 4.503780
254.2031, 5.172644
254.6852, 3.763741
255.1673, 1.059355
255.6494, 0.3702450
256.1315, 3.167141
256.6136, 6.013218
257.0958, 7.617393
257.5779, 8.240621
258.0600, 8.226747
258.5421, 7.510517
259.0242, 6.403725
259.5063, 6.014951
259.9885, 6.554784
260.4706, 7.549809
260.9527, 9.356340
261.4348, 11.30215
261.9169, 12.43841
262.3990, 12.19982
262.8812, 11.04988
263.3633, 10.40862
263.8454, 10.92393
264.3275, 10.80144
264.8096, 8.424282
265.2917, 5.770894
265.7739, 5.343863
266.2560, 8.334807
266.7381, 13.01395
267.2202, 15.11461
267.7023, 12.80703
268.1844, 11.17846
268.6666, 11.79911
269.1487, 12.88633
269.6308, 12.56934
270.1129, 10.23651
270.5950, 7.124611
271.0771, 5.638311
271.5593, 6.643284
272.0414, 7.617824
272.5235, 8.224785
273.0056, 8.935703
273.4877, 10.08155
273.9698, 11.73685
274.4520, 13.61237
274.9341, 15.42692
275.4162, 17.93078
275.8983, 18.81400
276.3804, 17.25799
276.8625, 14.95842
277.3446, 12.52008
277.8268, 10.27140
278.3089, 8.743448
278.7910, 8.656131
279.2731, 10.42769
279.7552, 12.25639
280.2373, 14.85527
280.7195, 16.91690
281.2016, 17.62751
281.6837, 17.08387
282.1658, 15.84789
282.6479, 14.29559
283.1300, 12.19372
283.6122, 11.52053
284.0943, 14.01834
284.5764, 16.06073
285.0585, 16.01886
285.5406, 14.19705
286.0227, 11.85016
286.5049, 9.966248
286.9870, 8.552895
287.4691, 7.649384
287.9512, 7.225328
288.4333, 7.286619
288.9154, 8.183667
289.3976, 9.563354
289.8797, 10.88326
290.3618, 11.87415
290.8439, 12.43301
291.3260, 11.91644
291.8081, 8.997735
292.2903, 6.566021
292.7724, 5.063174
293.2545, 4.335123
293.7366, 4.236694
294.2187, 4.716997
294.7008, 5.582395
295.1830, 6.312569
295.6651, 6.824726
296.1472, 7.292648
296.6293, 7.937372
297.1114, 8.447858
297.5935, 8.424363
298.0757, 7.749859
298.5578, 6.708467
299.0399, 5.741225
299.5220, 4.623518
300.0041, 4.096338
300.4862, 4.920620
300.9684, 5.852105
301.4505, 5.828888
301.9326, 4.679712
302.4147, 2.932630
302.8968, 0.9616090
303.3789, 1.795678
303.8611, 2.022119
304.3432, 3.440350
304.8253, 8.640394
305.3074, 8.996981
305.7895, 4.993914
306.2716, 0.9104480
306.7538, 0.5779020
307.2359, 4.286445
307.7180, 6.108578
308.2001, 5.258957
308.6822, 3.684294
309.1643, 1.308570
309.6465, 1.208611
310.1286, 2.150232
310.6107, 0.1941490
311.0928, 4.104490
311.5749, 6.782655
312.0570, 7.117880
312.5392, 6.970658
313.0213, 6.550955
313.5034, 5.971965
313.9855, 5.357561
314.4676, 4.756776
314.9497, 4.197089
315.4319, 3.755230
315.9140, 3.679226
316.3961, 3.357786
316.8782, 2.383107
317.3603, 1.296030
317.8424, 0.7318680
318.3245, 0.8668600
318.8066, 1.380287
319.2888, 1.812593
319.7709, 2.152029
320.2530, 2.407073
320.7351, 2.484565
321.2172, 2.544955
321.6993, 2.597841
322.1815, 2.698783
322.6636, 3.180200
323.1457, 4.624403
323.6278, 7.442381
324.1099, 7.943485
324.5920, 3.355361
325.0742, 0.5265220
325.5563, 0.4026290
326.0384, 2.866984
326.5205, 6.671926
327.0026, 9.334707
327.4847, 10.83202
327.9669, 10.84354
328.4490, 8.348230
328.9311, 5.760881
329.4132, 2.992129
329.8953, 0.6617840
330.3774, 0.1078290
330.8596, 2.073869
331.3417, 5.276685
331.8238, 6.235820
332.3059, 1.785074
332.7880, 1.055543
333.2701, 1.344610
333.7523, 0.2870740
334.2344, 1.320227
334.7165, 3.138615
335.1986, 4.632018
335.6807, 4.910056
336.1628, 3.130976
336.6450, 2.308547
337.1271, 2.756521
337.6092, 3.787705
338.0913, 5.485753
338.5734, 7.522243
339.0555, 8.855624
339.5377, 8.423831
340.0198, 6.050161
340.5019, 4.096008
340.9840, 2.635734
341.4661, 1.602136
341.9482, 0.3343280
342.4304, 0.8418100
342.9125, 0.5597200
343.3946, 2.093442
343.8767, 6.393526
344.3588, 8.779578
344.8409, 7.065619
345.3231, 5.798834
345.8052, 5.779998
346.2873, 6.248146
346.7694, 6.232125
347.2515, 5.397701
347.7336, 4.288688
348.2158, 3.938732
348.6979, 4.611172
349.1800, 5.650580
349.6621, 7.932803
350.1442, 9.890710
350.6263, 10.16092
351.1085, 8.784441
351.5906, 7.007633
352.0727, 6.244315
352.5548, 6.748510
353.0369, 6.570822
353.5190, 4.404865
354.0012, 2.857174
354.4833, 3.149420
354.9654, 4.781329
355.4475, 6.644887
355.9296, 8.040132
356.4117, 8.994395
356.8939, 9.712541
357.3760, 10.45401
357.8581, 10.52854
358.3402, 9.244707
358.8223, 7.522556
359.3044, 6.366627
359.7865, 6.156163
360.2686, 6.534322
360.7508, 6.901079
361.2329, 7.191630
361.7150, 7.375690
362.1971, 7.461846
362.6792, 7.535670
363.1613, 7.891131
363.6435, 8.458722
364.1256, 8.728885
364.6077, 8.122020
365.0898, 6.594085
365.5719, 4.922965
366.0540, 2.100219
366.5362, 0.3277050
367.0183, 1.056706
367.5004, 3.463758
367.9825, 5.733198
368.4646, 6.934516
368.9467, 7.320817
369.4289, 7.541178
369.9110, 7.490835
370.3931, 7.506720
370.8752, 8.001793
371.3573, 8.475162
371.8394, 8.412486
372.3216, 7.649016
372.8037, 6.459235
373.2858, 4.857698
373.7679, 2.754519
374.2500, 1.598431
374.7321, 2.103573
375.2143, 3.368973
375.6964, 4.997576
376.1785, 6.885249
376.6606, 8.419450
377.1427, 9.122609
377.6248, 9.140344
378.1070, 9.127361
378.5891, 9.406910
379.0712, 8.997561
379.5533, 6.463250
380.0354, 2.861801
380.5175, 0.1926090
380.9997, 0.5538200
381.4818, 0.3967040
381.9639, 0.7569970
382.4460, 1.665009
382.9281, 1.728939
383.4102, 4.3866001E-02
383.8924, 2.954574
384.3745, 5.939658
384.8566, 9.263656
385.3387, 11.59948
385.8208, 11.53299
386.3029, 9.862257
386.7851, 8.725369
387.2672, 8.690409
387.7493, 9.079930
388.2314, 9.325443
388.7135, 9.444411
389.1956, 9.000486
389.6778, 7.004725
390.1599, 4.966631
390.6420, 4.448330
391.1241, 5.538038
391.6062, 7.219294
392.0883, 8.970630
392.5705, 10.58983
393.0526, 11.33103
393.5347, 11.37848
394.0168, 10.44536
394.4989, 7.298097
394.9810, 3.209356
395.4632, 0.8868080
395.9453, 1.432247
396.4274, 3.454163
396.9095, 4.587754
397.3916, 4.753103
397.8737, 4.074863
398.3559, 0.9154800
398.8380, 1.976485
399.3201, 2.053187
399.8022, 0.6896220
400.2843, 4.345399
400.7664, 7.517355
401.2485, 10.28068
401.7307, 11.77362
402.2128, 11.05994
402.6949, 10.30872
403.1770, 10.60293
403.6591, 11.21195
404.1412, 10.70991
404.6234, 8.396072
405.1055, 5.160581
405.5876, 3.183504
406.0697, 3.225714
406.5518, 3.345894
407.0339, 3.182769
407.5161, 3.273643
407.9982, 4.379211
408.4803, 6.345052
408.9624, 7.990778
409.4445, 7.884613
409.9266, 5.835965
410.4088, 5.156005
410.8909, 7.755454
411.3730, 9.675814
411.8551, 9.073143
412.3372, 7.164127
412.8193, 6.115963
413.3015, 7.162902
413.7836, 9.075976
414.2657, 8.861927
414.7478, 5.411502
415.2299, 3.224836
415.7120, 5.010154
416.1942, 7.333074
416.6763, 7.769542
417.1584, 6.076741
417.6405, 3.833612
418.1226, 1.959504
418.6047, 0.5443050
419.0869, 0.3704340
419.5690, 2.231467
420.0511, 4.001335
420.5332, 4.017410
421.0153, 2.975248
421.4974, 2.254120
421.9796, 2.429202
422.4617, 3.004735
422.9438, 3.823561
423.4259, 4.868025
423.9080, 4.769699
424.3901, 1.963253
424.8723, 1.342859
425.3544, 1.549906
425.8365, 1.937551
426.3186, 5.285738
426.8007, 6.735578
427.2828, 7.018499
427.7650, 7.530308
428.2471, 8.568510
428.7292, 8.934535
429.2113, 7.011948
429.6934, 2.870115
430.1755, 0.8910790
430.6577, 2.642416
431.1398, 5.097434
431.6219, 7.221100
432.1040, 8.712597
432.5861, 8.714705
433.0682, 6.623469
433.5504, 3.581995
434.0325, 2.354934
434.5146, 4.699655
434.9967, 5.986146
435.4788, 5.520502
435.9609, 4.304363
436.4431, 2.577685
436.9252, 0.7173100
437.4073, 7.7071004E-02
437.8894, 1.557373
438.3715, 5.767289
438.8536, 8.468847
439.3358, 7.931033
439.8179, 7.696423
440.3000, 9.627387
440.7821, 11.98985
441.2642, 12.00697
441.7463, 8.395701
442.2284, 3.354293
442.7105, 1.161660
443.1927, 2.944897
443.6748, 4.100709
444.1569, 3.599750
444.6390, 2.917346
445.1211, 2.872592
445.6032, 3.328612
446.0854, 3.788491
446.5675, 4.041326
447.0496, 4.085292
447.5317, 3.771768
448.0138, 2.754766
448.4959, 2.252410
448.9781, 3.303450
449.4602, 4.933587
449.9423, 6.152466
450.4244, 6.744357
450.9065, 6.980729
451.3886, 6.887223
451.8708, 6.571197
452.3529, 6.739379
452.8350, 7.893535
453.3171, 8.804463
453.7992, 7.878697
454.2813, 5.510291
454.7635, 3.348227
455.2456, 1.563272
455.7277, 0.3061020
456.2098, 0.2588650
456.6919, 0.3000770
457.1740, 0.2723420
457.6562, 1.838808
458.1383, 3.710017
458.6204, 4.262418
459.1025, 2.767580
459.5846, 1.719831
460.0667, 1.747840
460.5489, 2.322481
461.0310, 3.172972
461.5131, 4.133460
461.9952, 4.621632
462.4773, 3.943830
462.9594, 2.034618
463.4416, 1.161133
463.9237, 2.172120
464.4058, 3.165775
464.8879, 3.902803
465.3700, 4.262784
465.8521, 3.884286
466.3343, 2.665686
466.8164, 1.397590
467.2985, 1.513473
467.7806, 3.527156
468.2627, 5.338929
468.7448, 7.528622
469.2270, 8.907598
469.7091, 8.354795
470.1912, 6.464169
470.6733, 4.795840
471.1554, 4.233111
471.6375, 4.598163
472.1197, 5.734418
472.6018, 8.067165
473.0839, 9.586441
473.5660, 9.261835
474.0481, 7.937772
474.5302, 5.948863
475.0124, 3.287638
475.4945, 1.323663
475.9766, 1.296405
476.4587, 2.599228
476.9408, 4.032114
477.4229, 5.644699
477.9051, 6.355516
478.3872, 4.658210
478.8693, 1.295880
479.3514, 0.5337000
479.8335, 0.1855780
480.3156, 1.513331
480.7978, 2.564264
481.2799, 3.492056
481.7620, 4.792675
482.2441, 6.671295
482.7262, 8.325884
483.2083, 8.856334
483.6904, 8.160316
484.1725, 6.966570
484.6547, 4.322963
485.1368, 2.105855
485.6189, 1.549664
486.1010, 2.240632
486.5831, 3.040111
487.0652, 3.306664
487.5474, 3.278416
488.0295, 3.713714
488.5116, 5.322673
488.9937, 6.038677
489.4758, 5.301684
489.9579, 4.099527
490.4401, 2.801239
490.9222, 1.606772
491.4043, 0.8885130
491.8864, 1.120288
492.3685, 2.068278
492.8506, 2.626295
493.3328, 2.777148
493.8149, 2.574803
494.2970, 1.786462
494.7791, 0.7771920
495.2612, 0.3327820
495.7433, 1.606478
496.2255, 2.052783
496.7076, 0.1587430
497.1897, 3.199520
497.6718, 5.158770
498.1539, 5.036324
498.6360, 4.663475
499.1182, 5.934428
499.6003, 8.338747
500.0824, 9.176667
500.5645, 7.336867
501.0466, 4.882795
501.5287, 2.231995
502.0109, 0.1891180
502.4930, 1.453407
502.9751, 1.152561
503.4572, 4.1306000E-02
503.9393, 1.118015
504.4214, 2.477719
504.9036, 3.357858
505.3857, 3.634702
505.8678, 3.612931
506.3499, 3.060792
506.8320, 2.363338
507.3141, 2.381226
507.7963, 3.609940
508.2784, 5.325932
508.7605, 5.744987
509.2426, 4.266173
509.7247, 3.102382
510.2068, 2.468944
510.6890, 2.202096
511.1711, 2.546877
511.6532, 3.252487
512.1353, 3.467716
512.6174, 2.058892
513.0995, 0.1885730
513.5817, 1.171817
514.0638, 5.661520
514.5459, 8.733632
515.0280, 7.711216
515.5101, 4.857767
515.9922, 3.167559
516.4744, 2.808141
516.9565, 2.600150
517.4386, 1.575654
517.9207, 0.6161930
518.4028, 1.469671
518.8849, 4.169029
519.3671, 6.239556
519.8492, 5.678739
520.3313, 3.182947
520.8134, 2.343058
521.2955, 5.216019
521.7776, 6.808775
522.2598, 4.844193
522.7419, 2.052236
523.2240, 1.539845
523.7061, 3.562507
524.1882, 5.836111
524.6703, 6.092274
525.1525, 4.404049
525.6346, 3.342766
526.1167, 3.397818
526.5988, 3.503148
527.0809, 3.474602
527.5630, 3.400294
528.0452, 3.452382
528.5273, 3.653541
529.0094, 3.677952
529.4915, 2.795458
529.9736, 1.199216
530.4557, 0.9746480
530.9379, 2.832417
531.4200, 4.830186
531.9021, 6.091019
532.3842, 6.619938
532.8663, 6.209080
533.3484, 4.380975
533.8306, 2.498431
534.3127, 1.300401
534.7948, 0.7555990
535.2769, 0.8164490
535.7590, 1.485379
536.2411, 2.709697
536.7233, 4.797828
537.2054, 7.790211
537.6875, 8.687219
538.1696, 5.781636
538.6517, 2.843670
539.1339, 1.124413
539.6160, 0.1989220
540.0981, 5.3668000E-02
540.5802, 0.2568610
541.0623, 1.015153
541.5444, 2.239948
542.0266, 4.205877
542.5087, 5.040022
542.9908, 3.245109
543.4728, 1.916707
543.9550, 2.346345
544.4371, 3.770040
544.9192, 5.115735
545.4013, 6.049701
545.8834, 6.425499
546.3655, 5.718524
546.8477, 4.032772
547.3298, 3.025669
547.8119, 3.201629
548.2940, 3.614154
548.7761, 3.270866
549.2582, 2.502587
549.7404, 2.291478
550.2225, 2.985213
550.7046, 4.108069
551.1867, 5.871484
551.6688, 7.787268
552.1509, 8.634325
552.6331, 8.015057
553.1152, 6.744288
553.5973, 5.601923
554.0794, 4.436175
554.5615, 4.929616
555.0436, 9.417587
555.5258, 12.69428
556.0079, 11.60742
556.4900, 8.103958
556.9721, 5.602203
557.4542, 5.273719
557.9363, 5.919297
558.4185, 5.988305
558.9006, 5.479861
559.3827, 4.292714
559.8648, 1.189022
560.3469, 0.9826360
560.8290, 8.6668998E-02
561.3112, 2.482429
561.7933, 4.148774
562.2754, 3.868291
562.7575, 3.323011
563.2396, 4.450970
563.7217, 6.663752
564.2039, 7.784122
564.6860, 7.316043
565.1681, 5.985408
565.6502, 4.109380
566.1323, 1.786309
566.6144, 0.4486870
567.0966, 0.6132240
567.5787, 1.159499
568.0608, 1.760235
568.5429, 2.448696
569.0250, 3.366791
569.5071, 4.515132
569.9893, 5.681171
570.4714, 6.701037
570.9535, 7.623729
571.4356, 7.536439
571.9177, 5.223124
572.3998, 3.410602
572.8820, 2.832419
573.3641, 3.029240
573.8462, 3.791095
574.3283, 5.021787
574.8104, 5.710111
575.2925, 4.425835
575.7747, 1.693605
576.2568, 0.1725690
576.7389, 0.9817660
577.2210, 1.134161
577.7031, 0.9699630
578.1852, 0.2210550
578.6674, 1.836884
579.1495, 6.353617
579.6316, 9.617191
580.1137, 9.641629
580.5958, 7.935302
581.0779, 6.051580
581.5601, 4.312088
582.0422, 2.754901
582.5243, 1.376567
583.0064, 0.2373780
583.4885, 0.3230090
583.9706, 1.8820001E-02
584.4528, 0.4890960
584.9349, 1.435797
585.4170, 2.342818
585.8991, 2.773041
586.3812, 2.833808
586.8633, 2.872595
587.3455, 3.325363
587.8276, 3.932655
588.3097, 3.677323
588.7918, 2.307279
589.2739, 1.724185
589.7560, 3.220217
590.2382, 5.122540
590.7203, 5.241402
591.2024, 3.614420
591.6845, 2.441173
592.1666, 3.058313
592.6487, 3.891561
593.1309, 2.916489
593.6130, 0.8190610
594.0951, 0.4964650
594.5772, 3.425603
595.0593, 7.163527
595.5414, 7.126389
596.0236, 0.9417570
596.5057, 1.944050
596.9878, 1.394931
597.4699, 4.475866
597.9520, 3.838661
598.4341, 1.274136
598.9163, 0.2831810
599.3984, 2.294534
599.8805, 5.056951
600.3626, 5.026762
600.8447, 2.324154
601.3268, 1.716492
601.8090, 4.650201
602.2911, 7.757353
602.7732, 8.399911
603.2553, 7.611327
603.7374, 7.397917
604.2195, 8.184211
604.7017, 9.250971
605.1838, 11.08006
605.6659, 12.63369
606.1480, 11.88962
606.6301, 8.710034
607.1122, 5.021091
607.5944, 2.237054
608.0765, 0.4268790
608.5586, 0.1582620
609.0407, 3.499863
609.5228, 5.542863
610.0049, 4.971344
610.4871, 3.667058
610.9692, 3.339170
611.4513, 3.865629
611.9334, 3.696250
612.4155, 1.148482
612.8976, 2.271253
613.3798, 2.571687
613.8619, 0.6145070
614.3440, 2.979602
614.8261, 2.940559
615.3082, 1.916880
615.7903, 1.373015
616.2725, 1.281603
616.7546, 1.632645
617.2367, 2.727128
617.7188, 3.974532
618.2009, 5.242637
618.6830, 6.373314
619.1652, 6.493532
619.6473, 5.335835
620.1294, 4.045601
620.6115, 4.275822
621.0936, 6.318871
621.5757, 7.671970
622.0579, 8.521255
622.5400, 8.377164
623.0221, 6.264025
623.5042, 3.527894
623.9863, 1.430420
624.4684, 0.3138060
624.9506, 0.5132710
625.4327, 3.471363
625.9147, 7.848467
626.3969, 9.799198
626.8790, 9.013123
627.3611, 7.055015
627.8432, 3.974936
628.3253, 0.8287520
628.8074, 0.3979410
629.2896, 3.615855
629.7717, 5.990033
630.2538, 6.602057
630.7359, 6.389611
631.2180, 5.757100
631.7001, 4.895121
632.1823, 3.926131
632.6644, 2.895565
633.1465, 2.194456
633.6286, 2.961297
634.1107, 5.847358
634.5928, 6.684047
635.0750, 3.182088
635.5571, 0.3748470
636.0392, 1.157195
636.5213, 4.136986
637.0034, 7.105770
637.4855, 9.737276
637.9677, 11.54830
638.4498, 12.07465
638.9319, 11.55709
639.4140, 10.10422
639.8961, 7.793346
640.3782, 5.874341
640.8604, 5.354347
641.3425, 5.781096
641.8246, 5.458456
642.3067, 3.607975
642.7888, 2.022452
643.2709, 0.2275620
643.7531, 0.8754520
644.2352, 0.3339180
644.7173, 1.436384
645.1994, 3.212980
645.6815, 4.301364
646.1636, 5.091980
646.6458, 6.663043
647.1279, 9.004568
647.6100, 9.301176
648.0921, 6.102607
648.5742, 2.756031
649.0563, 2.364652
649.5385, 4.159400
650.0206, 5.239402
650.5027, 4.706708
650.9848, 4.349286
651.4669, 5.382905
651.9490, 6.706797
652.4312, 6.722093
652.9133, 5.403346
653.3954, 4.365272
653.8775, 4.609078
654.3596, 5.416467
654.8417, 4.964869
655.3239, 2.206001
655.8060, 0.2473720
656.2881, 0.3391130
656.7702, 2.2708001E-02
657.2523, 1.344357
657.7344, 3.557094
658.2166, 5.732398
658.6987, 7.997340
659.1808, 9.361485
659.6629, 7.819732
660.1450, 4.556452
660.6271, 3.151783
661.1093, 4.469946
661.5914, 6.489403
662.0735, 7.439071
662.5556, 7.473406
663.0377, 7.462442
663.5198, 7.072776
664.0020, 7.053511
664.4841, 8.264804
664.9662, 9.277288
665.4483, 8.790519
665.9304, 6.929195
666.4125, 4.630468
666.8947, 2.062162
667.3768, 5.4090001E-02
667.8589, 0.8759940
668.3410, 4.413178
668.8231, 6.027454
669.3052, 3.873988
669.7874, 1.358974
670.2695, 2.303075
670.7516, 6.139689
671.2337, 7.679682
671.7158, 4.436427
672.1979, 2.091327
672.6801, 3.549188
673.1622, 6.270963
673.6443, 7.253281
674.1264, 6.326050
674.6085, 5.562651
675.0906, 6.740281
675.5728, 9.004567
676.0549, 9.382957
676.5370, 7.462400
677.0191, 5.409957
677.5012, 3.002992
677.9833, 1.338825
678.4655, 1.803243
678.9476, 3.770737
679.4297, 4.917509
679.9118, 3.746331
680.3939, 2.855155
680.8760, 4.538072
681.3582, 7.196171
681.8403, 8.085491
682.3224, 6.879950
682.8045, 5.420101
683.2866, 5.220629
683.7687, 5.992369
684.2509, 6.371990
684.7330, 6.437106
685.2151, 5.936920
685.6972, 3.893604
686.1793, 2.115398
686.6614, 1.684534
687.1436, 2.391567
687.6257, 3.579947
688.1078, 5.483525
688.5899, 6.920240
689.0720, 6.433743
689.5541, 4.799633
690.0363, 3.567889
690.5184, 3.003685
691.0005, 2.723343
691.4826, 2.305285
691.9647, 1.975254
692.4468, 2.893857
692.9290, 7.076415
693.4111, 9.236492
693.8932, 7.718330
694.3753, 5.632633
694.8574, 4.826812
695.3395, 4.973715
695.8217, 4.813864
696.3038, 3.646075
696.7859, 2.555347
697.2680, 3.160851
697.7501, 4.864825
698.2322, 5.460965
698.7144, 4.583457
699.1965, 3.377570
699.6786, 2.459687
700.1607, 1.909493
700.6428, 2.051203
701.1249, 3.847230
701.6071, 4.689693
702.0892, 3.677034
702.5713, 2.691944
703.0534, 3.031155
703.5355, 4.211895
704.0176, 5.123853
704.4998, 5.307243
704.9819, 5.081967
705.4640, 4.633039
705.9461, 4.065184
706.4282, 3.991673
706.9103, 4.549510
707.3925, 4.950418
707.8745, 4.665063
708.3566, 4.024632
708.8387, 3.944109
709.3209, 5.096604
709.8030, 4.819944
710.2851, 0.6404760
710.7672, 2.724406
711.2493, 2.051247
711.7314, 1.127989
712.2136, 4.500933
712.6957, 7.185326
713.1778, 8.461893
713.6599, 6.783012
714.1420, 2.799070
714.6241, 8.4406003E-02
715.1063, 1.311873
715.5884, 1.405934
716.0705, 0.3184740
716.5526, 2.793806
717.0347, 4.523159
717.5168, 5.533032
717.9990, 5.754783
718.4811, 4.846597
718.9632, 3.508164
719.4453, 0.9873670
719.9274, 1.270964
720.4095, 0.9139200
720.8917, 2.305726
721.3738, 6.050010
721.8559, 8.501823
722.3380, 9.631412
722.8201, 8.881098
723.3022, 5.949419
723.7844, 3.757594
724.2665, 3.286775
724.7486, 3.602420
725.2307, 3.514351
725.7128, 3.170760
726.1949, 4.165407
726.6771, 9.564469
727.1592, 12.64891
727.6413, 8.816368
728.1234, 3.032832
728.6055, 0.5815830
729.0876, 1.805342
729.5698, 4.203844
730.0519, 6.377324
730.5340, 7.879334
731.0161, 7.388225
731.4982, 4.834082
731.9803, 2.708872
732.4625, 1.260115
732.9446, 0.6823340
733.4267, 1.543588
733.9088, 3.388685
734.3909, 4.426756
734.8730, 4.101153
735.3552, 4.052933
735.8373, 4.597280
736.3194, 5.455610
736.8015, 6.917286
737.2836, 8.438226
737.7657, 8.720963
738.2479, 7.157288
738.7300, 4.891002
739.2121, 3.197687
739.6942, 2.124158
740.1763, 2.435222
740.6584, 4.596531
741.1406, 6.074440
741.6227, 5.371934
742.1048, 3.480111
742.5869, 2.100810
743.0690, 1.209067
743.5511, 0.8434160
744.0333, 1.049695
744.5154, 1.737830
744.9975, 3.895072
745.4796, 6.045326
745.9617, 5.574823
746.4438, 2.250038
746.9260, 0.7772370
747.4081, 0.4755720
747.8902, 1.928397
748.3723, 3.791690
748.8544, 5.137136
749.3365, 4.942886
749.8187, 2.230513
750.3008, 0.2333110
750.7829, 0.9261510
751.2650, 5.538793
751.7471, 7.619674
752.2292, 4.580172
752.7114, 2.910905
753.1935, 4.643672
753.6756, 7.056552
754.1577, 8.048111
754.6398, 7.583968
755.1219, 6.318041
755.6041, 4.249969
756.0862, 2.705492
756.5683, 4.106358
757.0504, 7.626586
757.5325, 9.934855
758.0146, 10.63160
758.4968, 9.927421
758.9789, 7.487628
759.4610, 4.355783
759.9431, 3.222157
760.4252, 5.386301
760.9073, 6.484310
761.3895, 6.221156
761.8716, 5.301764
762.3537, 2.837122
762.8358, 0.4315570
763.3179, 0.6925230
763.8000, 4.080027
764.2822, 7.192326
764.7643, 7.290544
765.2464, 5.814624
765.7285, 4.666337
766.2106, 3.888939
766.6927, 3.533956
767.1749, 3.627941
767.6570, 3.928357
768.1391, 4.172750
768.6212, 4.189792
769.1033, 4.349087
769.5854, 5.091021
770.0676, 5.330503
770.5497, 3.927114
771.0318, 2.867193
771.5139, 4.377731
771.9960, 7.419188
772.4781, 8.410867
772.9603, 5.028895
773.4424, 1.611816
773.9245, 1.588512
774.4066, 3.122314
774.8887, 3.638639
775.3708, 3.048119
775.8530, 2.582192
776.3351, 2.918688
776.8172, 3.831627
777.2993, 5.207541
777.7814, 7.272736
778.2635, 7.398298
778.7457, 4.447751
779.2278, 1.789577
779.7099, 0.6889520
780.1920, 0.7997740
780.6741, 1.992477
781.1563, 4.375618
781.6384, 6.038985
782.1205, 6.310095
782.6026, 5.965289
783.0847, 5.305878
783.5668, 4.382991
784.0490, 2.997983
784.5311, 1.279218
785.0132, 8.9600002E-03
785.4953, 0.1178910
785.9774, 0.5202560
786.4595, 0.7998240
786.9417, 0.7168500
787.4238, 2.025981
787.9059, 5.624252
788.3880, 8.713065
788.8701, 8.884523
789.3522, 6.909544
789.8344, 5.853449
790.3164, 6.545597
790.7985, 6.581418
791.2806, 5.544437
791.7628, 4.112694
792.2449, 1.612393
792.7270, 0.6561120
793.2091, 1.9264000E-02
793.6912, 4.227781
794.1733, 8.021972
794.6555, 7.421180
795.1376, 4.467246
795.6197, 2.482209
796.1018, 1.476191
796.5839, 1.096226
797.0660, 1.247995
797.5482, 1.606840
798.0303, 1.819389
798.5124, 1.900843
798.9945, 2.087540
799.4766, 2.460139
799.9587, 2.783561
800.4409, 3.388297
800.9230, 3.591922
801.4051, 2.363570
801.8872, 0.4257110
802.3693, 8.1482999E-02
802.8514, 2.189044
803.3336, 3.792696
803.8157, 1.911974
804.2978, 0.7784120
804.7799, 1.475226
805.2620, 0.3281150
805.7441, 1.601066
806.2263, 3.765380
806.7084, 5.267915
807.1905, 4.427165
807.6726, 1.604531
808.1547, 0.5223540
808.6368, 1.648507
809.1190, 1.880575
809.6011, 0.7375030
810.0832, 3.100661
810.5653, 0.9362400
811.0474, 5.745054
811.5295, 9.400176
812.0117, 8.000806
812.4938, 6.376585
812.9759, 5.042855
813.4580, 4.189363
813.9401, 4.494730
814.4222, 5.375690
814.9044, 5.178949
815.3865, 2.993154
815.8686, 0.7181290
816.3507, 0.2209330
816.8328, 0.9778840
817.3149, 2.420250
817.7971, 4.255121
818.2792, 4.771581
818.7613, 3.102087
819.2434, 0.8871450
819.7255, 0.5967210
820.2076, 2.323519
820.6898, 3.303825
821.1719, 3.184928
821.6540, 3.051936
822.1361, 3.113088
822.6182, 3.327523
823.1003, 3.884347
823.5825, 4.617996
824.0646, 4.737538
824.5467, 3.461963
825.0288, 2.508559
825.5109, 2.866314
825.9930, 3.601044
826.4752, 3.473173
826.9573, 2.920324
827.4394, 3.710055
827.9215, 6.655659
828.4036, 9.465218
828.8857, 8.649384
829.3679, 5.343055
829.8500, 3.883187
830.3321, 4.388623
830.8142, 6.100246
831.2963, 9.160830
831.7784, 11.12936
832.2606, 9.476212
832.7427, 4.286582
833.2248, 1.171909
833.7069, 0.8736780
834.1890, 1.595963
834.6711, 5.000397
835.1533, 7.541348
835.6354, 6.194399
836.1175, 2.216714
836.5996, 0.2657160
837.0817, 0.2454640
837.5638, 1.122417
838.0460, 0.7427050
838.5281, 0.2226520
839.0102, 0.9236660
839.4923, 2.464844
839.9744, 3.875047
840.4565, 4.760059
840.9387, 4.865514
841.4208, 3.560120
841.9029, 1.376768
842.3850, 0.5544060
842.8671, 1.150405
843.3492, 1.796371
843.8314, 2.182343
844.3135, 2.466338
844.7956, 2.573506
845.2777, 2.726532
845.7598, 4.064926
846.2419, 8.717289
846.7241, 11.12827
847.2062, 9.982548
847.6883, 8.108800
848.1704, 6.315810
848.6525, 4.935241
849.1346, 4.427655
849.6168, 4.881946
850.0989, 5.513174
850.5810, 6.207721
851.0631, 6.638092
851.5452, 6.072446
852.0273, 5.058975
852.5095, 4.709290
852.9916, 5.175364
853.4737, 5.764613
853.9558, 5.946555
854.4379, 6.385660
854.9200, 6.691878
855.4022, 6.838917
855.8843, 7.146898
856.3664, 7.014361
856.8485, 6.976247
857.3306, 7.448615
857.8127, 8.014273
858.2949, 7.837970
858.7770, 6.670151
859.2591, 5.890396
859.7412, 6.023517
860.2233, 5.853517
860.7054, 4.549144
861.1876, 3.254981
861.6697, 2.982724
862.1518, 3.650468
862.6339, 4.707642
863.1160, 6.417759
863.5981, 7.878064
864.0803, 8.505874
864.5624, 8.582580
865.0445, 8.111395
865.5266, 7.403748
866.0087, 7.319497
866.4908, 8.205603
866.9730, 9.395588
867.4551, 10.09478
867.9372, 10.24993
868.4193, 10.75107
868.9014, 11.53219
869.3835, 10.06538
869.8657, 4.968511
870.3478, 0.4775850
870.8299, 0.9730940
871.3120, 5.367682
871.7941, 7.494496
872.2762, 5.902277
872.7583, 4.828007
873.2404, 4.696700
873.7225, 4.849875
874.2047, 5.165274
874.6868, 5.535180
875.1689, 5.984490
875.6510, 6.554708
876.1331, 6.368609
876.6152, 3.821690
877.0974, 1.850183
877.5795, 2.975085
878.0616, 5.386698
878.5437, 6.907101
879.0258, 7.141477
879.5079, 6.279637
879.9901, 4.145585
880.4722, 2.114896
880.9543, 2.747408
881.4364, 4.995903
881.9185, 5.100505
882.4006, 2.976685
882.8828, 1.540727
883.3649, 2.159320
883.8470, 3.367866
884.3291, 2.910970
884.8112, 4.551701
885.2933, 1.744242
885.7755, 7.032801
886.2576, 10.75694
886.7397, 12.05318
887.2218, 11.04443
887.7039, 5.541704
888.1860, 2.092190
888.6682, 4.395775
889.1503, 1.812908
889.6324, 6.104875
890.1145, 5.339893
890.5966, 4.133278
891.0787, 5.899270
891.5609, 8.176580
892.0430, 6.549605
892.5251, 1.009962
893.0072, 2.872672
893.4893, 1.273173
893.9714, 2.444848
894.4536, 6.377248
894.9357, 9.625327
895.4178, 9.676408
895.8999, 7.013145
896.3820, 5.155791
896.8641, 5.980072
897.3463, 7.661093
897.8284, 7.421918
898.3105, 5.519585
898.7926, 3.868427
899.2747, 2.467103
899.7568, 1.710912
900.2390, 1.560205
900.7211, 2.409610
901.2032, 5.083854
901.6853, 9.030396
902.1674, 10.60614
902.6495, 8.843610
903.1317, 6.674750
903.6138, 3.201169
904.0959, 0.5614940
904.5780, 0.3411160
905.0601, 0.1484780
905.5422, 2.211368
906.0244, 5.919761
906.5065, 8.087048
906.9886, 7.114861
907.4707, 5.674799
907.9528, 4.640855
908.4349, 4.002063
908.9171, 3.464655
909.3992, 3.265812
909.8813, 4.367476
910.3634, 7.448360
910.8455, 10.36821
911.3276, 11.01123
911.8098, 10.31277
912.2919, 9.621918
912.7740, 8.988463
913.2561, 8.272450
913.7382, 7.421266
914.2203, 6.241677
914.7025, 4.390991
915.1846, 2.331302
915.6667, 1.649127
916.1488, 2.358168
916.6309, 2.391445
917.1130, 1.263342
917.5952, 0.8500970
918.0773, 2.519021
918.5594, 4.878019
919.0415, 5.418152
919.5236, 3.869994
920.0057, 2.551630
920.4879, 1.095045
920.9700, 0.4728470
921.4521, 1.235342
921.9342, 2.600977
922.4163, 4.688982
922.8984, 6.927531
923.3806, 7.544712
923.8627, 5.674622
924.3448, 3.984494
924.8269, 2.665787
925.3090, 2.389196
925.7911, 5.106629
926.2733, 8.293044
926.7554, 7.750644
927.2375, 3.519142
927.7196, 0.4991190
928.2017, 1.960560
928.6838, 4.753339
929.1660, 6.209895
929.6481, 7.030958
930.1302, 8.827024
930.6123, 11.02902
931.0944, 11.56717
931.5765, 9.597224
932.0587, 6.637649
932.5408, 3.991211
933.0229, 1.961171
933.5050, 2.022263
933.9871, 3.941429
934.4692, 5.034732
934.9514, 4.691498
935.4335, 4.083876
935.9156, 4.047981
936.3977, 4.289907
936.8798, 4.061953
937.3619, 3.246070
937.8441, 2.532711
938.3262, 1.563473
938.8083, 1.729224
939.2904, 4.593734
939.7725, 7.391764
940.2546, 6.767559
940.7368, 3.213769
941.2189, 1.379515
941.7010, 2.581915
942.1831, 3.408882
942.6652, 3.565510
943.1473, 3.465953
943.6295, 3.128717
944.1116, 2.753651
944.5937, 2.658580
945.0758, 2.863970
945.5579, 2.915379
946.0400, 1.528184
946.5222, 1.022094
947.0043, 4.490483
947.4864, 8.441833
947.9685, 9.329493
948.4506, 7.789470
948.9327, 6.219338
949.4149, 5.491600
949.8970, 5.382313
950.3791, 6.359514
950.8612, 7.176124
951.3433, 5.974070
951.8254, 3.853623
952.3076, 3.800803
952.7897, 6.078166
953.2718, 8.363699
953.7539, 9.203413
954.2360, 9.043290
954.7181, 8.694917
955.2002, 8.027773
955.6823, 5.946077
956.1644, 2.460876
956.6465, 0.1929170
957.1287, 1.292680
957.6108, 1.420993
958.0929, 1.156028
958.5750, 0.3723120
959.0571, 1.815526
959.5392, 6.093813
960.0214, 8.214887
960.5035, 7.303531
960.9856, 5.770110
961.4677, 4.602870
961.9498, 3.477734
962.4319, 1.540090
962.9141, 1.214023
963.3962, 1.481868
963.8783, 3.388847
964.3604, 6.643230
964.8425, 6.627709
965.3246, 5.998250
965.8068, 6.334247
966.2889, 6.921267
966.7710, 6.045810
967.2531, 3.249367
967.7352, 2.320705
968.2173, 6.995723
968.6995, 9.973196
969.1816, 6.421279
969.6637, 1.489587
970.1458, 6.4880997E-02
970.6279, 1.137727
971.1100, 2.354784
971.5922, 2.768970
972.0743, 2.865357
972.5564, 2.443758
973.0385, 2.293331
973.5206, 3.760829
974.0027, 5.811345
974.4849, 6.244318
974.9670, 4.941861
975.4491, 3.312383
975.9312, 2.043605
976.4133, 1.203204
976.8954, 1.110073
977.3776, 1.547261
977.8597, 1.930130
978.3418, 2.376867
978.8239, 3.922111
979.3060, 6.586968
979.7881, 7.705011
980.2703, 4.754987
980.7524, 0.1480900
981.2345, 0.8839430
981.7166, 1.081227
982.1987, 2.562155
982.6808, 3.313552
983.1630, 4.190109
983.6451, 5.559842
984.1272, 6.758470
984.6093, 7.071608
985.0914, 6.582131
985.5735, 5.604379
986.0557, 4.080887
986.5378, 2.303518
987.0199, 5.5751000E-02
987.5020, 1.240818
987.9841, 7.1148999E-02
988.4662, 2.105940
988.9484, 3.415042
989.4305, 3.856494
989.9126, 4.345619
990.3947, 4.945468
990.8768, 5.469014
991.3589, 6.078043
991.8411, 6.327391
992.3232, 5.418664
992.8053, 4.272408
993.2874, 4.841615
993.7695, 7.597741
994.2516, 9.041385
994.7338, 8.745167
995.2159, 7.917062
995.6980, 5.503962
996.1801, 3.870263
996.6622, 5.503349
997.1443, 8.785257
997.6265, 10.49509
998.1086, 10.12186
998.5907, 8.812217
999.0728, 5.183634
999.5549, 2.753862
1000.037, 4.150958
1000.519, 6.536742
1001.001, 7.184506
1001.483, 6.514875
1001.966, 6.446246
1002.448, 7.676163
1002.930, 8.343740
1003.412, 6.796180
1003.894, 5.092823
1004.376, 4.770002
1004.858, 5.179637
1005.340, 5.788023
1005.822, 6.208640
1006.305, 5.436358
1006.787, 2.792917
1007.269, 0.7283450
1007.751, 1.955980
1008.233, 4.284011
1008.715, 5.348946
1009.197, 5.451445
1009.679, 5.154560
1010.161, 4.726826
1010.644, 4.690168
1011.126, 5.415615
1011.608, 6.125475
1012.090, 5.613842
1012.572, 4.573259
1013.054, 4.256543
1013.536, 4.644095
1014.018, 5.863138
1014.501, 7.708990
1014.983, 8.540112
1015.465, 7.177193
1015.947, 7.752365
1016.429, 4.785932
1016.911, 5.699927
1017.393, 4.326234
1017.875, 1.077620
1018.357, 0.4622950
1018.840, 3.693870
1019.322, 7.361358
1019.804, 8.780798
1020.286, 8.439019
1020.768, 6.780646
1021.250, 4.067436
1021.732, 3.465631
1022.214, 5.067373
1022.697, 6.333568
1023.179, 6.463170
1023.661, 5.878577
1024.143, 4.760348
1024.625, 3.594539
1025.107, 4.249451
1025.589, 6.991585
1026.071, 8.162875
1026.553, 7.316792
1027.036, 6.679157
1027.518, 7.109524
1028.000, 7.662823
1028.482, 7.389896
1028.964, 6.524732
1029.446, 6.259696
1029.928, 7.197541
1030.410, 5.884324
1030.892, 0.9240270
1031.375, 2.558746
1031.857, 2.234929
1032.339, 0.6925930
1032.821, 0.6621730
1033.303, 1.638744
1033.785, 0.9632060
1034.267, 2.220397
1034.749, 5.019714
1035.232, 8.232374
1035.714, 9.461450
1036.196, 6.405155
1036.678, 2.659801
1037.160, 2.000265
1037.642, 3.891554
1038.124, 5.220064
1038.606, 5.727561
1039.089, 6.094637
1039.571, 6.617445
1040.053, 6.838940
1040.535, 6.754720
1041.017, 6.209075
1041.499, 4.520450
1041.981, 2.090843
1042.463, 1.213136
1042.945, 3.142712
1043.427, 4.228248
1043.910, 3.440458
1044.392, 3.231407
1044.874, 4.402133
1045.356, 6.067072
1045.838, 7.739391
1046.320, 9.078131
1046.802, 8.902886
1047.284, 5.780445
1047.767, 4.151733
1048.249, 5.899198
1048.731, 7.643787
1049.213, 8.829482
1049.695, 8.759419
1050.177, 5.281773
1050.659, 0.1387350
1051.141, 1.565199
1051.624, 3.972279
1052.106, 8.004958
1052.588, 7.583892
1053.070, 6.712731
1053.552, 7.786648
1054.034, 8.820870
1054.516, 7.029365
1054.998, 3.361822
1055.480, 1.698303
1055.963, 3.593723
1056.445, 4.794816
1056.927, 2.932633
1057.409, 1.504119
1057.891, 2.853701
1058.373, 4.956957
1058.855, 5.770066
1059.337, 5.489564
1059.819, 5.279657
1060.302, 5.413733
1060.784, 5.600792
1061.266, 5.307171
1061.748, 5.564740
1062.230, 8.147192
1062.712, 10.53715
1063.194, 9.374040
1063.676, 5.982334
1064.159, 4.570599
1064.641, 6.450288
1065.123, 7.826976
1065.605, 6.828908
1066.087, 5.401184
1066.569, 4.143649
1067.051, 3.286602
1067.533, 2.835938
1068.016, 2.993430
1068.498, 4.664402
1068.980, 8.215131
1069.462, 10.12711
1069.944, 7.469471
1070.426, 4.582205
1070.908, 3.648949
1071.390, 3.601718
1071.872, 3.482162
1072.354, 3.388524
1072.837, 3.856377
1073.319, 4.984392
1073.801, 5.944053
1074.283, 6.260807
1074.765, 6.471563
1075.247, 7.154061
1075.729, 7.622607
1076.211, 6.685833
1076.694, 5.315543
1077.176, 5.843739
1077.658, 8.369102
1078.140, 9.313084
1078.622, 5.083283
1079.104, 1.965294
1079.586, 4.626527
1080.068, 8.022260
1080.550, 7.831053
1081.033, 5.665318
1081.515, 4.496990
1081.997, 4.664377
1082.479, 4.388528
1082.961, 1.992641
1083.443, 1.015684
1083.925, 5.149428
1084.407, 9.183360
1084.890, 8.584287
1085.372, 5.946519
1085.854, 4.742696
1086.336, 5.330010
1086.818, 6.781411
1087.300, 9.690086
1087.782, 10.87329
1088.264, 6.804554
1088.746, 3.046088
1089.229, 3.969316
1089.711, 6.482111
1090.193, 6.476509
1090.675, 4.329557
1091.157, 3.209883
1091.639, 4.360501
1092.121, 5.393854
1092.603, 4.901008
1093.085, 4.547149
1093.568, 6.111155
1094.050, 7.470072
1094.532, 5.736124
1095.014, 2.230881
1095.496, 0.6239420
1095.978, 1.852638
1096.460, 3.103490
1096.942, 3.434762
1097.425, 3.695005
1097.907, 4.833863
1098.389, 5.455287
1098.871, 3.687235
1099.353, 0.8979490
1099.835, 2.2169999E-03
1100.317, 1.401737
1100.799, 1.613740
1101.281, 2.849025
1101.764, 4.845669
1102.246, 0.3246670
1102.728, 5.556592
1103.210, 5.750588
1103.692, 3.664429
1104.174, 3.598366
1104.656, 5.598655
1105.138, 6.328861
1105.620, 4.130730
1106.103, 2.496344
1106.585, 1.724720
1107.067, 2.259124
1107.549, 4.535714
1108.031, 7.026720
1108.513, 9.126914
1108.995, 10.52947
1109.477, 10.54188
1109.960, 8.067025
1110.442, 6.410439
1110.924, 6.922508
1111.406, 6.801394
1111.888, 4.017372
1112.370, 1.430378
1112.852, 1.378501
1113.334, 3.236648
1113.817, 5.819388
1114.299, 9.972303
1114.781, 10.89563
1115.263, 5.287489
1115.745, 1.898550
1116.227, 3.689757
1116.709, 5.910094
1117.191, 5.674572
1117.673, 4.313797
1118.156, 3.973015
1118.638, 4.665761
1119.120, 5.227815
1119.602, 5.948326
1120.084, 5.701766
1120.566, 3.420153
1121.048, 2.272859
1121.530, 4.302124
1122.012, 7.000457
1122.495, 7.402062
1122.977, 5.966617
1123.459, 5.169791
1123.941, 5.057985
1124.423, 5.522694
1124.905, 6.899706
1125.387, 7.627699
1125.869, 7.219358
1126.352, 5.915861
1126.834, 3.535097
1127.316, 1.101869
1127.798, 1.374521
1128.280, 4.465577
1128.762, 6.831685
1129.244, 8.479605
1129.726, 9.165427
1130.208, 8.825052
1130.691, 7.505501
1131.173, 5.072539
1131.655, 2.348162
1132.137, 0.4559640
1132.619, 0.6283910
1133.101, 0.8517470
1133.583, 0.2813260
1134.065, 7.2476998E-02
1134.547, 0.2844430
1135.030, 0.9220650
1135.512, 4.272547
1135.994, 7.565883
1136.476, 8.690973
1136.958, 9.525565
1137.440, 8.127046
1137.922, 7.721292
1138.404, 5.311019
1138.887, 1.643357
1139.369, 0.9146250
1139.851, 3.789369
1140.333, 6.985937
1140.815, 8.533692
1141.297, 8.888551
1141.779, 8.134141
1142.261, 6.928436
1142.744, 6.309495
1143.226, 6.225625
1143.708, 6.542701
1144.190, 7.217433
1144.672, 8.512333
1145.154, 10.45507
1145.636, 11.49406
1146.118, 9.728067
1146.600, 7.341156
1147.083, 6.206907
1147.565, 6.005724
1148.047, 7.022669
1148.529, 8.385621
1149.011, 8.282036
1149.493, 6.594076
1149.975, 5.019236
1150.457, 4.245048
1150.939, 4.029535
1151.422, 4.690430
1151.904, 5.351332
1152.386, 5.267432
1152.868, 4.890039
1153.350, 4.759352
1153.832, 4.863864
1154.314, 4.894054
1154.796, 4.709757
1155.279, 4.961044
1155.761, 5.978030
1156.243, 7.267990
1156.725, 9.649036
1157.207, 11.23879
1157.689, 9.680696
1158.171, 7.009449
1158.653, 6.947514
1159.135, 9.422071
1159.618, 10.10860
1160.100, 7.830010
1160.582, 6.069814
1161.064, 4.920023
1161.546, 4.364875
1162.028, 5.045169
1162.510, 5.565189
1162.992, 4.659822
1163.474, 2.568882
1163.957, 0.4078650
1164.439, 5.255156
1164.921, 4.690727
1165.403, 3.830680
1165.885, 8.506944
1166.367, 6.026328
1166.849, 3.266434
1167.331, 4.308696
1167.813, 6.804564
1168.296, 7.407240
1168.778, 6.438722
1169.260, 5.287496
1169.742, 3.979980
1170.224, 4.813704
1170.706, 7.913421
1171.188, 9.611210
1171.670, 8.686167
1172.153, 6.895032
1172.635, 5.595885
1173.117, 4.552507
1173.599, 2.929518
1174.081, 1.357218
1174.563, 2.368162
1175.045, 5.013731
1175.527, 5.788717
1176.010, 4.550578
1176.492, 3.693717
1176.974, 4.260873
1177.456, 5.403626
1177.938, 6.732271
1178.420, 7.763226
1178.902, 8.008013
1179.384, 7.552006
1179.866, 5.823215
1180.349, 3.763587
1180.831, 3.501921
1181.313, 5.040723
1181.795, 6.123715
1182.277, 5.652546
1182.759, 5.049721
1183.241, 5.008476
1183.723, 5.155452
1184.205, 4.910880
1184.688, 5.036016
1185.170, 7.172148
1185.652, 10.04566
1186.134, 10.59346
1186.616, 8.252925
1187.098, 5.726209
1187.580, 1.458429
1188.062, 6.2766001E-02
1188.545, 5.540349
1189.027, 9.993671
1189.509, 9.086262
1189.991, 6.451724
1190.473, 5.824817
1190.955, 6.587356
1191.437, 6.067893
1191.919, 3.588801
1192.401, 2.848829
1192.884, 4.545547
1193.366, 5.514749
1193.848, 4.699046
1194.330, 5.004928
1194.812, 8.607852
1195.294, 12.36632
1195.776, 11.58235
1196.258, 7.435775
1196.740, 4.643588
1197.223, 3.195498
1197.705, 3.381643
1198.187, 4.534979
1198.669, 4.435474
1199.151, 2.661948
1199.633, 1.660338
1200.115, 3.188884
1200.597, 5.672062
1201.080, 7.636854
1201.562, 8.752739
1202.044, 8.027911
1202.526, 6.232294
1203.008, 4.592501
1203.490, 3.361005
1203.972, 2.514323
1204.454, 2.091849
1204.937, 2.627042
1205.419, 5.347276
1205.901, 7.290798
1206.383, 5.496261
1206.865, 3.323775
1207.347, 3.487829
1207.829, 4.696066
1208.311, 5.409908
1208.793, 5.563599
1209.276, 5.505373
1209.758, 5.187788
1210.240, 5.262178
1210.722, 5.692330
1211.204, 6.727431
1211.686, 10.15403
1212.168, 11.96002
1212.650, 8.904359
1213.132, 4.778696
1213.615, 4.321610
1214.097, 6.615844
1214.579, 7.037829
1215.061, 4.934692
1215.543, 4.307044
1216.025, 5.331101
1216.507, 7.160431
1216.989, 9.832218
1217.472, 11.20456
1217.954, 9.949610
1218.436, 7.294548
1218.918, 4.552155
1219.400, 2.155569
1219.882, 1.159481
1220.364, 1.448532
1220.846, 3.343651
1221.328, 6.020543
1221.811, 5.890533
1222.293, 2.384688
1222.775, 0.2847830
1223.257, 0.4115540
1223.739, 1.666351
1224.221, 1.044030
1224.703, 8.3159998E-02
1225.185, 0.1044290
1225.667, 0.5443380
1226.150, 2.419468
1226.632, 5.009141
1227.114, 7.961695
1227.596, 10.89139
1228.078, 11.55047
1228.560, 7.491487
1229.042, 4.901147
1229.524, 6.727577
1230.007, 8.288041
1230.489, 7.223429
1230.971, 5.780156
1231.453, 6.027188
1231.935, 6.823856
1232.417, 5.778063
1232.899, 5.579039
1233.381, 5.283230
1233.864, 3.689861
1234.346, 4.154521
1234.828, 2.800608
1235.310, 1.895917
1235.792, 2.165243
1236.274, 3.354574
1236.756, 5.419843
1237.238, 7.440276
1237.720, 7.471022
1238.203, 6.217521
1238.685, 6.180763
1239.167, 6.850545
1239.649, 6.622958
1240.131, 5.457217
1240.613, 3.694046
1241.095, 1.632677
1241.577, 0.5024750
1242.059, 1.361408
1242.542, 2.316019
1243.024, 0.8976700
1243.506, 8.0000000E-06
1243.988, 3.181218
1244.470, 7.286383
1244.952, 8.843448
1245.434, 8.302733
1245.916, 7.226226
1246.398, 5.855668
1246.881, 4.338425
1247.363, 1.487871
1247.845, 0.5073650
1248.327, 2.888701
1248.809, 5.254355
1249.291, 7.085087
1249.773, 7.658471
1250.255, 5.830623
1250.738, 3.248805
1251.220, 3.309652
1251.702, 5.733089
1252.184, 7.153106
1252.666, 7.575208
1253.148, 8.249352
1253.630, 9.149590
1254.112, 6.681024
1254.594, 0.2175230
1255.077, 3.916005
1255.559, 1.009987
1256.041, 4.092032
1256.523, 5.848023
1257.005, 5.446780
1257.487, 3.151480
1257.969, 0.8184020
1258.451, 1.790108
1258.933, 4.886359
1259.416, 7.405353
1259.898, 8.588539
1260.380, 7.897305
1260.862, 3.915953
1261.344, 1.475492
1261.826, 3.901495
1262.308, 5.761014
1262.790, 3.512736
1263.273, 1.437738
1263.755, 3.228856
1264.237, 6.616648
1264.719, 8.393963
1265.201, 8.724786
1265.683, 7.788587
1266.165, 5.147651
1266.647, 3.964265
1267.130, 4.515137
1267.612, 5.095656
1268.094, 5.316702
1268.576, 5.190974
1269.058, 4.710274
1269.540, 4.127453
1270.022, 3.577842
1270.504, 1.946341
1270.986, 2.537349
1271.469, 3.526181
1271.951, 4.131168
1272.433, 4.394967
1272.915, 4.387083
1273.397, 4.187741
1273.879, 3.984470
1274.361, 3.828071
1274.843, 3.674474
1275.325, 3.824910
1275.808, 3.486788
1276.290, 1.057953
1276.772, 0.4219700
1277.254, 1.537229
1277.736, 4.773267
1278.218, 7.908343
1278.700, 10.08127
1279.182, 8.686420
1279.665, 3.299381
1280.147, 0.5975730
1280.629, 0.9745920
1281.111, 0.8305910
1281.593, 0.6546550
1282.075, 1.454492
1282.557, 3.763028
1283.039, 5.154294
1283.521, 3.724362
1284.004, 1.254954
1284.486, 7.3480001E-03
1284.968, 0.0000000E+00
##END=



