##NAMES=Nuffieldite
##RRUFFID=R110088
##IDEAL CHEMISTRY=Pb^2+^_2_Cu^1+^_1.4_(Pb^2+^_0.4_Bi^3+^_0.4_Sb^3+^_0.2_)Bi^3+^_2_S^2-^_7_
##LOCALITY=Crabtree quarry, Wake County, North Carolina, USA
##OWNER=RRUFF
##SOURCE=Mark N. Feinglos 
##DESCRIPTION=Bright silvery-white metallic massive associated with quartz
##STATUS=The identification of this mineral is confirmed by single-crystal X-ray diffraction and chemical analysis.
##URL=rruff.info/R110088
##MEASURED CHEMISTRY=Pb_2.00_(Cu_1.16_Sb_0.05_)_Σ=1.21_(Bi_0.64_Pb_0.18_Sb_0.18_)_Σ=1.00_Bi_2.00_S_7_
207.7936, 0.0000000E+00
208.2758, 0.4345860
208.7579, 9.5604002E-02
209.2400, 0.2328340
209.7221, 0.4630360
210.2042, 0.4034420
210.6863, 0.3365250
211.1685, 0.5056920
211.6506, 0.9267040
212.1327, 1.372337
212.6148, 1.496597
213.0969, 0.9750750
213.5790, 0.7937160
214.0612, 1.171638
214.5433, 1.719543
215.0254, 2.088783
215.5075, 2.207565
215.9896, 2.324585
216.4717, 2.825172
216.9539, 4.018295
217.4360, 4.829796
217.9181, 4.832794
218.4002, 4.648750
218.8823, 4.984222
219.3644, 6.012733
219.8466, 7.193092
220.3287, 7.770073
220.8108, 7.650711
221.2929, 7.484703
221.7750, 7.113503
222.2571, 6.832054
222.7393, 7.140770
223.2214, 8.218246
223.7035, 9.434631
224.1856, 9.898384
224.6677, 9.675995
225.1498, 9.581665
225.6320, 9.833221
226.1141, 10.33760
226.5962, 11.01067
227.0783, 11.91647
227.5604, 12.76258
228.0425, 13.13999
228.5247, 13.16455
229.0068, 13.31052
229.4889, 13.93575
229.9710, 14.79414
230.4531, 15.30115
230.9352, 15.28268
231.4174, 15.14939
231.8995, 15.17654
232.3816, 15.33698
232.8637, 15.57607
233.3458, 15.91740
233.8279, 16.32205
234.3101, 16.68401
234.7922, 17.06744
235.2743, 17.27858
235.7564, 16.99936
236.2385, 16.49220
236.7206, 16.30250
237.2028, 16.93975
237.6849, 18.15690
238.1670, 18.83869
238.6491, 18.56237
239.1312, 18.36444
239.6133, 18.91505
240.0955, 19.79720
240.5776, 20.26248
241.0597, 19.71440
241.5418, 18.43859
242.0239, 17.85503
242.5060, 18.35101
242.9882, 19.07597
243.4703, 20.09576
243.9524, 21.09600
244.4345, 21.57577
244.9166, 21.16021
245.3987, 20.10168
245.8809, 19.62917
246.3630, 20.30003
246.8451, 20.87418
247.3272, 21.04867
247.8093, 20.99570
248.2914, 20.95661
248.7736, 21.06623
249.2557, 21.26630
249.7378, 21.32188
250.2199, 21.08870
250.7020, 20.87776
251.1841, 20.80098
251.6663, 20.74765
252.1484, 20.50192
252.6305, 19.94688
253.1126, 19.30671
253.5947, 19.28775
254.0768, 20.85498
254.5590, 21.90354
255.0411, 21.90957
255.5232, 21.49279
256.0053, 21.37597
256.4874, 21.86516
256.9695, 22.68202
257.4517, 23.13803
257.9338, 22.70363
258.4159, 22.51910
258.8980, 22.84872
259.3801, 23.32096
259.8622, 23.55505
260.3444, 23.42096
260.8265, 23.02632
261.3086, 22.56484
261.7907, 21.77890
262.2728, 21.30267
262.7549, 21.28518
263.2371, 21.54787
263.7192, 21.94510
264.2013, 22.54277
264.6834, 23.20092
265.1655, 23.88960
265.6476, 24.87636
266.1298, 25.23946
266.6119, 24.43365
267.0940, 23.30943
267.5761, 22.59554
268.0582, 22.42568
268.5403, 22.53695
269.0225, 22.64049
269.5046, 22.73938
269.9867, 22.94846
270.4688, 23.39261
270.9509, 23.87348
271.4330, 24.26257
271.9152, 24.52460
272.3973, 24.54519
272.8794, 24.15125
273.3615, 23.29673
273.8436, 22.58601
274.3257, 21.97160
274.8079, 21.51543
275.2900, 21.36523
275.7721, 21.50876
276.2542, 21.64257
276.7363, 21.45773
277.2184, 21.04396
277.7006, 21.05553
278.1827, 21.90932
278.6648, 22.86799
279.1469, 23.51446
279.6290, 23.84337
280.1111, 23.82774
280.5933, 23.24256
281.0754, 22.34636
281.5575, 22.01540
282.0396, 22.69132
282.5217, 23.41873
283.0038, 23.58616
283.4860, 23.27514
283.9681, 22.92468
284.4502, 22.76984
284.9323, 22.66969
285.4144, 22.31172
285.8965, 21.57858
286.3787, 20.87120
286.8608, 20.42709
287.3429, 20.20254
287.8250, 20.05498
288.3071, 20.03648
288.7892, 19.93240
289.2714, 19.36122
289.7535, 18.25817
290.2356, 17.28317
290.7177, 16.84013
291.1998, 16.76363
291.6819, 16.59506
292.1641, 16.20962
292.6462, 15.76598
293.1283, 15.43816
293.6104, 15.20992
294.0925, 14.96359
294.5746, 14.62064
295.0568, 14.24311
295.5389, 13.98809
296.0210, 13.92855
296.5031, 13.81342
296.9852, 13.45026
297.4673, 12.87431
297.9495, 12.09487
298.4316, 10.82046
298.9137, 9.461182
299.3958, 8.748196
299.8779, 8.830544
300.3600, 8.899559
300.8422, 8.300568
301.3243, 7.338810
301.8064, 6.538300
302.2885, 6.070133
302.7706, 5.743435
303.2527, 5.343391
303.7349, 4.860893
304.2170, 4.375450
304.6991, 3.884602
305.1812, 3.432949
305.6633, 3.076942
306.1454, 2.829334
306.6276, 2.682411
307.1097, 2.693157
307.5918, 2.846321
308.0739, 2.887623
308.5560, 2.693180
309.0381, 2.387218
309.5203, 2.089699
310.0024, 1.791695
310.4845, 1.576717
310.9666, 1.558254
311.4487, 1.694374
311.9308, 1.796265
312.4130, 1.888763
312.8951, 1.837822
313.3772, 1.457520
313.8593, 0.7985950
314.3414, 0.2158470
314.8235, 0.1239590
315.3057, 0.2573470
315.7878, 0.2595600
316.2699, 8.5639998E-02
316.7520, 0.1035310
317.2341, 0.1812130
317.7162, 0.1841890
318.1984, 0.1888580
318.6805, 0.3120160
319.1626, 0.4169770
319.6447, 0.1935810
320.1268, 0.4521220
320.6089, 0.9554670
321.0911, 0.8292960
321.5732, 0.4051900
322.0553, 0.1164210
322.5374, 3.9554998E-02
323.0195, 0.1327590
323.5016, 0.4838030
323.9838, 1.101578
324.4659, 1.445858
324.9480, 1.128571
325.4301, 0.5484810
325.9122, 0.1633110
326.3943, 5.4239999E-03
326.8765, 3.5388999E-02
327.3586, 0.4854430
327.8407, 1.223648
328.3228, 1.513172
328.8049, 0.9594380
329.2870, 0.2206500
329.7692, 1.3199000E-02
330.2513, 0.2872200
330.7334, 0.5366820
331.2155, 0.4975360
331.6976, 0.2637060
332.1797, 1.7581999E-02
332.6619, 0.2607500
333.1440, 0.4368590
333.6261, 0.2769740
334.1082, 7.8560002E-02
334.5903, 0.2933350
335.0724, 0.1034620
335.5546, 0.2047500
336.0367, 0.2211490
336.5188, 9.4337001E-02
337.0009, 0.4120670
337.4830, 0.5873450
337.9651, 0.6161610
338.4473, 0.4804840
338.9294, 6.7417003E-02
339.4115, 0.3352970
339.8936, 0.4381830
340.3757, 0.2842100
340.8578, 0.2296830
341.3400, 0.4682730
341.8221, 0.8112450
342.3042, 0.9069250
342.7863, 0.6768530
343.2684, 0.6217610
343.7505, 1.229065
344.2327, 2.184551
344.7148, 2.681927
345.1969, 2.462891
345.6790, 1.998940
346.1611, 1.771450
346.6432, 1.746456
347.1254, 1.841953
347.6075, 2.297123
348.0896, 2.736553
348.5717, 2.573463
349.0538, 1.734791
349.5359, 0.8883170
350.0181, 0.4904710
350.5002, 0.5095790
350.9823, 0.6702610
351.4644, 1.208858
351.9465, 1.671848
352.4286, 1.601978
352.9108, 1.130623
353.3929, 0.9021380
353.8750, 1.304977
354.3571, 2.065010
354.8392, 2.491310
355.3214, 2.504459
355.8035, 2.430679
356.2856, 2.299007
356.7677, 2.173805
357.2498, 2.193558
357.7319, 2.411861
358.2141, 2.706680
358.6962, 2.949169
359.1783, 3.166306
359.6604, 3.165112
360.1425, 2.689770
360.6246, 2.129761
361.1068, 1.802166
361.5889, 1.746712
362.0710, 1.968342
362.5531, 2.574467
363.0352, 3.540436
363.5173, 3.988747
363.9995, 3.501919
364.4816, 2.967113
364.9637, 2.907387
365.4458, 3.146046
365.9279, 3.144478
366.4100, 2.577080
366.8922, 1.685307
367.3743, 1.280281
367.8564, 1.737625
368.3385, 2.111195
368.8206, 2.240810
369.3027, 2.244297
369.7849, 2.218121
370.2670, 2.197067
370.7491, 2.237610
371.2312, 2.435146
371.7133, 2.885820
372.1954, 3.186741
372.6776, 3.281706
373.1597, 3.277037
373.6418, 3.164179
374.1239, 3.009712
374.6060, 2.984339
375.0881, 3.247969
375.5703, 3.783079
376.0524, 4.036949
376.5345, 3.734074
377.0166, 3.477352
377.4987, 3.431503
377.9808, 3.468323
378.4630, 3.472109
378.9451, 3.427841
379.4272, 3.323198
379.9093, 3.060452
380.3914, 2.439638
380.8735, 1.945580
381.3557, 1.601057
381.8378, 1.324762
382.3199, 1.071308
382.8020, 0.8805890
383.2841, 0.8331200
383.7662, 1.029037
384.2484, 1.513952
384.7305, 1.802691
385.2126, 1.583055
385.6947, 1.395267
386.1768, 1.575821
386.6589, 1.997513
387.1411, 2.279819
387.6232, 2.119413
388.1053, 1.639757
388.5874, 1.391197
389.0695, 1.457218
389.5516, 1.680044
390.0338, 2.254288
390.5159, 2.821148
390.9980, 3.035557
391.4801, 2.795216
391.9622, 2.253813
392.4443, 1.447098
392.9265, 0.3178770
393.4086, 0.2175290
393.8907, 0.4762570
394.3728, 1.268564
394.8549, 1.518192
395.3370, 1.302080
395.8192, 1.000595
396.3013, 0.7689570
396.7834, 0.6626660
397.2655, 0.8857750
397.7476, 1.609333
398.2297, 2.144192
398.7119, 1.936131
399.1940, 1.399961
399.6761, 1.036530
400.1582, 0.9941350
400.6403, 1.086205
401.1224, 1.181200
401.6046, 1.281944
402.0867, 1.285034
402.5688, 1.105576
403.0509, 0.8621350
403.5330, 0.7042620
404.0151, 0.6342090
404.4973, 0.5634840
404.9794, 0.3727170
405.4615, 0.1806300
405.9436, 0.2301560
406.4257, 0.5693700
406.9078, 0.9583760
407.3900, 1.226093
407.8721, 1.375988
408.3542, 1.465294
408.8363, 1.579432
409.3184, 1.566982
409.8005, 1.087906
410.2827, 0.3395210
410.7648, 9.9560000E-02
411.2469, 0.8257480
411.7290, 2.037151
412.2111, 2.608068
412.6932, 2.348339
413.1754, 2.038198
413.6575, 1.641237
414.1396, 1.346273
414.6217, 1.499786
415.1038, 2.107302
415.5859, 2.615889
416.0681, 2.399778
416.5502, 1.341282
417.0323, 0.9029690
417.5144, 1.535328
417.9965, 2.204895
418.4786, 2.583321
418.9608, 2.683058
419.4429, 2.533751
419.9250, 2.135752
420.4071, 1.634846
420.8892, 1.443586
421.3713, 1.874924
421.8535, 2.142948
422.3356, 2.238480
422.8177, 2.169729
423.2998, 1.816166
423.7819, 1.238138
424.2640, 0.7567690
424.7462, 0.7435780
425.2283, 1.240816
425.7104, 1.605532
426.1925, 1.692682
426.6746, 1.794857
427.1567, 2.046398
427.6389, 2.355661
428.1210, 2.581467
428.6031, 2.658709
429.0852, 2.613106
429.5673, 2.475765
430.0494, 2.216002
430.5316, 1.971954
431.0137, 1.649490
431.4958, 1.446438
431.9779, 1.579920
432.4600, 2.032196
432.9421, 2.479046
433.4243, 2.695526
433.9064, 2.705706
434.3885, 2.610415
434.8706, 2.396992
435.3527, 2.118523
435.8348, 1.636021
436.3170, 1.136940
436.7991, 0.9865590
437.2812, 1.450304
437.7633, 2.040771
438.2454, 2.254478
438.7275, 2.154228
439.2097, 2.204819
439.6918, 2.662764
440.1739, 3.194193
440.6560, 3.202950
441.1381, 2.641716
441.6202, 2.288895
442.1024, 2.539570
442.5845, 3.012768
443.0666, 3.272430
443.5487, 3.284237
444.0308, 3.254927
444.5129, 3.346346
444.9951, 3.535526
445.4772, 3.613316
445.9593, 3.438683
446.4414, 3.331434
446.9235, 3.590967
447.4056, 3.922075
447.8878, 3.815294
448.3699, 3.104837
448.8520, 2.144691
449.3341, 1.446304
449.8162, 0.9876710
450.2983, 0.9056240
450.7805, 1.562534
451.2626, 2.199232
451.7447, 2.358347
452.2268, 2.166813
452.7089, 2.079100
453.1910, 2.430531
453.6732, 3.034908
454.1553, 3.011757
454.6374, 1.721365
455.1195, 0.9030440
455.6016, 0.9963490
456.0837, 1.502611
456.5659, 2.112104
457.0480, 2.727190
457.5301, 3.227139
458.0122, 3.459312
458.4943, 3.438536
458.9764, 3.403576
459.4586, 3.294247
459.9407, 3.213459
460.4228, 3.252966
460.9049, 3.338297
461.3870, 3.330904
461.8691, 3.157200
462.3513, 2.914452
462.8334, 2.744770
463.3155, 2.661171
463.7976, 2.497805
464.2797, 2.043976
464.7618, 1.630381
465.2440, 1.782665
465.7261, 2.530901
466.2082, 3.108635
466.6903, 3.242378
467.1724, 3.078440
467.6545, 2.706541
468.1367, 2.152815
468.6188, 1.613495
469.1009, 1.167519
469.5830, 0.8645360
470.0651, 0.9489500
470.5472, 1.837921
471.0294, 2.530565
471.5115, 2.722687
471.9936, 2.600948
472.4757, 2.374468
472.9578, 2.103352
473.4399, 1.754322
473.9221, 1.240335
474.4042, 0.4548000
474.8863, 0.1448440
475.3684, 0.6720680
475.8505, 1.228374
476.3326, 1.616911
476.8148, 1.809429
477.2969, 1.771885
477.7790, 1.482773
478.2611, 1.049124
478.7432, 0.6554780
479.2253, 0.2098290
479.7075, 7.6756999E-02
480.1896, 0.6344990
480.6717, 1.236876
481.1538, 1.500334
481.6359, 1.466061
482.1180, 1.446049
482.6002, 1.743042
483.0823, 2.178345
483.5644, 2.171791
484.0465, 1.579985
484.5286, 1.069098
485.0107, 0.8723110
485.4929, 0.9568080
485.9750, 1.405006
486.4571, 2.336658
486.9392, 3.044453
487.4213, 2.918447
487.9034, 2.284725
488.3856, 1.854635
488.8677, 1.743532
489.3498, 1.789896
489.8319, 1.915030
490.3140, 2.098305
490.7961, 2.134974
491.2783, 1.838678
491.7604, 1.594326
492.2425, 1.698624
492.7246, 1.955399
493.2067, 1.973249
493.6888, 1.615410
494.1710, 1.076548
494.6531, 0.6408210
495.1352, 0.2796400
495.6173, 0.1376380
496.0994, 0.4328580
496.5815, 0.7030220
497.0637, 0.5810390
497.5458, 0.2675300
498.0279, 0.2941630
498.5100, 1.007339
498.9921, 1.995066
499.4742, 2.115013
499.9564, 0.8584060
500.4385, 2.6379000E-02
500.9206, 0.2199820
501.4027, 0.6316800
501.8848, 0.7910670
502.3669, 0.6968420
502.8491, 0.6121600
503.3312, 0.7917370
503.8133, 1.095238
504.2954, 1.060112
504.7775, 0.5787700
505.2596, 0.2775380
505.7418, 0.5756240
506.2239, 1.156782
506.7060, 1.614655
507.1881, 1.963663
507.6702, 2.035824
508.1523, 1.555815
508.6345, 0.8272720
509.1166, 0.2117940
509.5987, 0.2215310
510.0808, 0.3168240
510.5629, 0.1916790
511.0450, 1.204639
511.5272, 1.594572
512.0093, 0.8161410
512.4914, 0.1528020
512.9735, 3.2797001E-02
513.4556, 0.2186570
513.9377, 0.4683340
514.4199, 0.6872060
514.9020, 0.7563740
515.3841, 0.4561750
515.8662, 0.3380720
516.3483, 0.6370300
516.8304, 0.1570050
517.3126, 0.8921240
517.7947, 1.335808
518.2768, 1.484604
518.7589, 1.334814
519.2410, 0.8679010
519.7231, 0.2576620
520.2053, 0.3289410
520.6874, 0.9104820
521.1695, 1.178463
521.6516, 0.9950960
522.1337, 0.5923440
522.6158, 5.4579001E-02
523.0980, 0.5580520
523.5801, 1.088123
524.0622, 1.494715
524.5443, 1.788048
525.0264, 1.983826
525.5085, 2.077713
525.9907, 2.017359
526.4728, 1.753841
526.9549, 1.393980
527.4370, 1.056877
527.9191, 0.7077310
528.4012, 0.5961970
528.8834, 0.9725060
529.3655, 1.456825
529.8476, 1.701097
530.3297, 1.698473
530.8118, 1.766905
531.2939, 2.087265
531.7761, 2.529619
532.2582, 2.765001
532.7403, 2.730045
533.2224, 2.588514
533.7045, 2.229053
534.1866, 1.878506
534.6688, 1.624615
535.1509, 1.495340
535.6330, 1.547489
536.1151, 1.892708
536.5972, 2.346041
537.0793, 2.347649
537.5615, 1.761105
538.0436, 1.285593
538.5257, 1.162436
539.0078, 1.210669
539.4899, 1.267544
539.9720, 1.331118
540.4542, 1.491381
540.9363, 1.942265
541.4184, 2.441097
541.9005, 2.592955
542.3826, 2.401247
542.8647, 2.201067
543.3469, 2.176092
543.8290, 2.243555
544.3111, 2.184713
544.7932, 1.962282
545.2753, 1.730028
545.7574, 1.425119
546.2396, 1.169308
546.7217, 1.080931
547.2038, 1.157639
547.6859, 1.333128
548.1680, 1.566221
548.6501, 1.850294
549.1323, 2.176268
549.6144, 2.718409
550.0965, 2.982929
550.5786, 2.782818
551.0607, 2.430750
551.5428, 2.079161
552.0250, 1.780952
552.5071, 1.611761
552.9892, 1.669931
553.4713, 1.882664
553.9534, 2.034428
554.4355, 2.109831
554.9177, 2.208502
555.3998, 2.443325
555.8819, 2.664270
556.3640, 2.658375
556.8461, 2.396624
557.3282, 2.136133
557.8104, 2.019241
558.2925, 1.907162
558.7746, 1.587845
559.2567, 1.092236
559.7388, 0.7406040
560.2209, 0.7297610
560.7031, 0.9880030
561.1852, 1.286552
561.6673, 1.740656
562.1494, 2.072479
562.6315, 2.210506
563.1136, 2.278349
563.5958, 2.481972
564.0779, 2.723478
564.5600, 2.598265
565.0421, 1.729622
565.5242, 0.4447730
566.0063, 0.1273670
566.4885, 0.2104190
566.9706, 0.6936490
567.4527, 1.419350
567.9348, 2.014225
568.4169, 2.151829
568.8990, 1.864424
569.3812, 1.541512
569.8633, 1.298655
570.3454, 1.185741
570.8275, 1.338232
571.3096, 1.811401
571.7917, 2.365511
572.2739, 2.949215
572.7560, 3.309902
573.2381, 2.631573
573.7202, 0.4476620
574.2023, 0.9322610
574.6844, 0.7958130
575.1666, 0.1906320
575.6487, 0.3904270
576.1308, 0.8421120
576.6129, 1.056335
577.0950, 0.9636900
577.5771, 0.7203060
578.0593, 0.6967160
578.5414, 1.049793
579.0235, 1.141958
579.5056, 0.6264990
579.9877, 0.1963010
580.4698, 0.2184030
580.9520, 0.5456120
581.4341, 0.8483720
581.9162, 0.9779570
582.3983, 1.025343
582.8804, 1.169193
583.3625, 1.381689
583.8447, 1.315523
584.3268, 0.7936590
584.8089, 0.1954770
585.2910, 4.3779001E-02
585.7731, 3.3752002E-02
586.2552, 1.1023000E-02
586.7374, 0.6861630
587.2195, 1.000944
587.7016, 5.3438000E-02
588.1837, 1.505077
588.6658, 2.525963
589.1479, 2.670059
589.6301, 2.409786
590.1122, 2.299410
590.5943, 2.349117
591.0764, 2.459982
591.5585, 2.853941
592.0406, 3.040962
592.5228, 2.771673
593.0049, 2.297916
593.4870, 1.870358
593.9691, 1.558521
594.4512, 1.405239
594.9333, 1.546076
595.4155, 1.895842
595.8976, 2.023581
596.3797, 1.827414
596.8618, 1.777691
597.3439, 2.313431
597.8260, 3.118143
598.3082, 3.389313
598.7903, 2.866709
599.2724, 2.470974
599.7545, 2.755939
600.2366, 3.154909
600.7188, 3.000971
601.2009, 2.305716
601.6830, 1.508020
602.1651, 0.8715360
602.6472, 0.4293590
603.1293, 0.3159890
603.6115, 0.6556930
604.0936, 1.110804
604.5757, 1.956434
605.0578, 2.637587
605.5399, 2.629789
606.0220, 2.132332
606.5042, 1.856636
606.9863, 2.333521
607.4684, 3.037699
607.9505, 3.037174
608.4326, 2.351330
608.9147, 1.771919
609.3969, 1.504673
609.8790, 1.407816
610.3611, 1.347797
610.8432, 1.324915
611.3253, 1.370363
611.8074, 1.577644
612.2896, 1.760010
612.7717, 1.901279
613.2538, 1.927998
613.7359, 1.613024
614.2180, 0.9233020
614.7001, 0.2678790
615.1823, 0.1402050
615.6644, 0.5635490
616.1465, 1.047470
616.6286, 1.843491
617.1107, 2.334406
617.5928, 2.093948
618.0750, 1.647131
618.5571, 1.611656
619.0392, 2.084200
619.5213, 2.482504
620.0034, 2.240259
620.4855, 1.640741
620.9677, 1.309380
621.4498, 1.277367
621.9319, 1.395443
622.4140, 1.678347
622.8961, 1.973183
623.3782, 1.879271
623.8604, 1.156017
624.3425, 0.8073290
624.8246, 1.279440
625.3067, 1.833069
625.7888, 1.995346
626.2709, 1.824697
626.7531, 1.587189
627.2352, 1.416111
627.7173, 1.187904
628.1994, 0.4864410
628.6815, 0.9592630
629.1636, 1.315674
629.6458, 0.4904880
630.1279, 2.142080
630.6100, 2.198668
631.0921, 1.406113
631.5742, 1.157045
632.0563, 1.948370
632.5385, 2.655342
633.0206, 2.177238
633.5027, 1.084200
633.9848, 0.5372490
634.4669, 0.6998410
634.9490, 0.9975570
635.4312, 1.002344
635.9133, 0.8078710
636.3954, 0.8574180
636.8775, 1.421667
637.3596, 1.868563
637.8417, 2.234827
638.3239, 2.428848
638.8060, 2.260788
639.2881, 1.845404
639.7702, 1.530863
640.2523, 1.530386
640.7344, 1.734249
641.2166, 1.972427
641.6987, 2.250692
642.1808, 2.455954
642.6629, 2.595505
643.1450, 2.593819
643.6271, 2.297882
644.1093, 1.754791
644.5914, 1.339315
645.0735, 1.192501
645.5556, 1.216236
646.0377, 1.334755
646.5198, 1.495684
647.0020, 1.672052
647.4841, 1.849194
647.9662, 1.991232
648.4483, 2.067934
648.9304, 2.080271
649.4125, 2.017622
649.8947, 1.761459
650.3768, 1.657864
650.8589, 2.021116
651.3410, 2.347235
651.8231, 2.154139
652.3052, 1.543596
652.7874, 1.125689
653.2695, 1.268562
653.7516, 1.695301
654.2337, 2.258368
654.7158, 2.845818
655.1979, 2.931479
655.6801, 2.309242
656.1622, 1.471994
656.6443, 0.9117680
657.1264, 0.6313380
657.6085, 0.6158600
658.0906, 1.057137
658.5728, 1.483805
659.0549, 1.884253
659.5370, 2.157953
660.0191, 2.101812
660.5012, 1.757462
660.9833, 1.516727
661.4655, 1.809834
661.9476, 2.395475
662.4297, 2.441177
662.9118, 1.862446
663.3939, 1.424877
663.8760, 1.441214
664.3582, 1.603792
664.8403, 1.523186
665.3224, 1.223206
665.8045, 1.010309
666.2866, 0.9293230
666.7687, 0.9564420
667.2509, 1.114914
667.7330, 1.333277
668.2151, 1.641186
668.6972, 2.019169
669.1793, 2.300632
669.6614, 2.288172
670.1436, 2.007351
670.6257, 1.840117
671.1078, 1.866495
671.5899, 1.839979
672.0720, 1.622530
672.5541, 1.364929
673.0363, 1.159868
673.5184, 1.037619
674.0005, 1.036713
674.4826, 1.326668
674.9647, 1.654297
675.4468, 1.631449
675.9290, 1.381290
676.4111, 1.368153
676.8932, 1.743973
677.3753, 2.184788
677.8574, 2.276236
678.3395, 2.002813
678.8217, 1.814934
679.3038, 1.779642
679.7859, 1.751015
680.2680, 1.631876
680.7501, 1.558744
681.2322, 1.722761
681.7144, 2.102629
682.1965, 2.435787
682.6786, 2.514074
683.1607, 2.383173
683.6428, 2.027590
684.1249, 1.494513
684.6071, 1.221336
685.0892, 1.375448
685.5713, 1.703278
686.0534, 1.954723
686.5355, 2.060139
687.0176, 1.951752
687.4998, 1.370142
687.9819, 1.093893
688.4640, 1.732819
688.9461, 2.531126
689.4282, 2.633327
689.9103, 2.016211
690.3925, 1.358160
690.8746, 1.175560
691.3567, 1.307011
691.8388, 1.373264
692.3209, 1.372812
692.8030, 1.413115
693.2852, 1.513096
693.7673, 1.680210
694.2494, 2.007624
694.7315, 2.466797
695.2136, 2.635384
695.6957, 2.235109
696.1779, 1.861887
696.6600, 1.741423
697.1421, 1.741426
697.6242, 1.746546
698.1063, 1.739126
698.5884, 1.670973
699.0706, 1.546589
699.5527, 1.345739
700.0348, 0.8688720
700.5169, 1.5069999E-03
700.9990, 0.3562700
701.4811, 0.2115420
701.9633, 1.005249
702.4454, 1.452795
702.9275, 1.629482
703.4096, 1.731091
703.8917, 1.805216
704.3738, 1.777229
704.8560, 1.468292
705.3381, 1.124411
705.8202, 1.147932
706.3023, 1.505665
706.7844, 1.728086
707.2665, 1.501549
707.7487, 1.045280
708.2308, 0.9119850
708.7129, 1.182802
709.1950, 1.412731
709.6771, 1.666431
710.1592, 1.720135
710.6414, 1.197161
711.1235, 0.4003280
711.6056, 6.8549998E-03
712.0877, 0.2862820
712.5698, 0.5997830
713.0519, 0.5971830
713.5341, 0.4855100
714.0162, 0.5051500
714.4983, 0.6616340
714.9804, 0.8588470
715.4625, 1.047667
715.9446, 1.208448
716.4268, 1.304502
716.9089, 1.343781
717.3910, 1.263844
717.8731, 0.8412130
718.3552, 0.6094230
718.8373, 1.072062
719.3195, 1.764748
719.8016, 1.972124
720.2837, 1.516151
720.7658, 1.042889
721.2479, 0.7278350
721.7300, 0.6208570
722.2122, 1.053808
722.6943, 1.791466
723.1764, 1.956278
723.6585, 1.156773
724.1406, 6.8434000E-02
724.6227, 0.2479480
725.1049, 0.2974830
725.5870, 0.7492640
726.0691, 1.117861
726.5512, 1.369612
727.0333, 1.503120
727.5154, 1.511974
727.9976, 1.317133
728.4797, 0.9231070
728.9618, 0.6312580
729.4439, 0.6557270
729.9260, 0.7620770
730.4081, 0.7988910
730.8903, 0.7417720
731.3724, 0.4882510
731.8545, 2.5021000E-02
732.3366, 0.4096970
732.8187, 0.5735510
733.3008, 0.4750400
733.7830, 0.1835990
734.2651, 0.5036430
734.7472, 0.9432930
735.2293, 0.6150400
735.7114, 0.3037170
736.1935, 0.7421630
736.6757, 1.738701
737.1578, 2.376619
737.6399, 2.321379
738.1220, 1.900465
738.6041, 1.006828
739.0862, 2.0741999E-02
739.5684, 0.3902660
740.0505, 0.1762620
740.5326, 0.2328450
741.0147, 0.5313720
741.4968, 0.7613180
741.9789, 1.084362
742.4611, 1.546633
742.9432, 1.938524
743.4253, 2.325819
743.9074, 2.522802
744.3895, 2.290342
744.8716, 1.842411
745.3538, 1.614098
745.8359, 1.789120
746.3180, 1.799200
746.8001, 1.072824
747.2822, 0.2870850
747.7643, 0.2880630
748.2465, 0.8807350
748.7286, 1.258205
749.2107, 1.052408
749.6928, 0.6314300
750.1749, 0.5555840
750.6570, 0.8441010
751.1392, 1.093264
751.6213, 1.345627
752.1034, 1.458746
752.5855, 1.286743
753.0676, 1.005146
753.5497, 0.8571260
754.0319, 0.8517820
754.5140, 0.7308960
754.9961, 0.1616270
755.4782, 0.2576120
755.9603, 5.6072000E-02
756.4424, 0.4887960
756.9246, 1.062134
757.4067, 1.528109
757.8888, 1.639565
758.3709, 1.054981
758.8530, 7.1778998E-02
759.3351, 0.1200100
759.8173, 0.5541360
760.2994, 1.172113
760.7815, 1.626440
761.2636, 1.822050
761.7457, 1.598637
762.2278, 1.024776
762.7100, 0.4528390
763.1921, 0.3491290
763.6742, 0.7751790
764.1563, 0.4025400
764.6384, 0.1703090
765.1205, 0.5441460
765.6027, 0.6812800
766.0848, 0.6043380
766.5669, 0.3122860
767.0490, 1.6540000E-03
767.5311, 0.1135480
768.0132, 2.8971000E-02
768.4954, 0.3718340
768.9775, 1.150330
769.4596, 1.762627
769.9417, 1.982321
770.4238, 1.872244
770.9059, 1.482904
771.3881, 0.6639480
771.8702, 0.1898370
772.3523, 6.1779000E-02
772.8344, 0.2599700
773.3165, 1.154898
773.7986, 2.150019
774.2808, 2.604124
774.7629, 2.432896
775.2450, 1.948881
775.7271, 1.166864
776.2092, 0.3759560
776.6913, 7.2733000E-02
777.1735, 0.1526340
777.6556, 0.1272640
778.1377, 0.1266480
778.6198, 0.1597460
779.1019, 0.4798600
779.5840, 1.613541
780.0662, 2.322987
780.5483, 2.468676
781.0304, 2.446983
781.5125, 2.113758
781.9946, 1.785095
782.4767, 1.657238
782.9589, 1.660835
783.4410, 1.531635
783.9231, 1.171259
784.4052, 0.8661020
784.8873, 0.7460820
785.3694, 0.8028580
785.8516, 1.184027
786.3337, 1.746082
786.8158, 2.025064
787.2979, 1.837059
787.7800, 1.370453
788.2621, 0.7484360
788.7443, 1.1940000E-03
789.2264, 0.1257630
789.7085, 1.632517
790.1906, 2.519773
790.6727, 1.809528
791.1548, 0.6901320
791.6370, 0.4076840
792.1191, 0.8336410
792.6012, 1.051870
793.0833, 0.6503910
793.5654, 0.3682020
794.0475, 0.6965560
794.5297, 1.135557
795.0118, 1.078215
795.4939, 0.6167370
795.9760, 0.3377740
796.4581, 0.5954590
796.9402, 0.9716470
797.4224, 0.6471710
797.9045, 0.1705680
798.3866, 0.1829660
798.8687, 0.8076970
799.3508, 1.578875
799.8329, 1.450787
800.3151, 0.8241630
800.7972, 0.4042470
801.2793, 0.1841740
801.7614, 0.2046780
802.2435, 0.7068270
802.7256, 1.130409
803.2078, 1.261108
803.6899, 1.267450
804.1720, 1.276957
804.6541, 1.332672
805.1362, 1.532291
805.6183, 2.176321
806.1005, 2.699249
806.5826, 2.298683
807.0647, 1.368319
807.5468, 0.7951030
808.0289, 0.7178940
808.5110, 0.8084370
808.9932, 0.8403590
809.4753, 0.8592360
809.9574, 1.014486
810.4395, 1.369886
810.9216, 1.574446
811.4037, 1.573473
811.8859, 1.482140
812.3680, 1.327080
812.8501, 1.127308
813.3322, 0.8538550
813.8143, 0.5096190
814.2964, 0.3460140
814.7786, 0.5097370
815.2607, 0.7572170
815.7428, 1.019886
816.2249, 1.242434
816.7070, 1.364208
817.1891, 1.362392
817.6713, 1.233541
818.1534, 0.8311020
818.6355, 0.4585150
819.1176, 0.9398420
819.5997, 2.112677
820.0818, 2.600048
820.5640, 2.096912
821.0461, 1.454067
821.5282, 1.305269
822.0103, 1.492985
822.4924, 1.356678
822.9745, 0.4401820
823.4567, 0.1318070
823.9388, 1.077576
824.4209, 1.885826
824.9030, 1.890301
825.3851, 1.561468
825.8672, 1.596569
826.3494, 2.081652
826.8315, 2.373493
827.3136, 1.991901
827.7957, 1.468809
828.2778, 1.159815
828.7599, 1.066202
829.2421, 1.229351
829.7242, 1.618916
830.2063, 2.061195
830.6884, 2.451494
831.1705, 2.736637
831.6526, 2.716534
832.1348, 2.375750
832.6169, 2.240036
833.0990, 2.438290
833.5811, 2.629305
834.0632, 2.645702
834.5453, 2.497454
835.0275, 2.173393
835.5096, 1.555292
835.9917, 1.115978
836.4738, 0.8992460
836.9559, 0.8325000
837.4380, 0.8794520
837.9202, 1.048395
838.4023, 1.513918
838.8844, 2.188923
839.3665, 2.478767
839.8486, 1.772030
840.3307, 0.9084470
840.8129, 0.8363970
841.2950, 1.203882
841.7771, 1.319031
842.2592, 1.094498
842.7413, 0.7353840
843.2234, 0.3478870
843.7056, 5.2120000E-02
844.1877, 0.1873650
844.6698, 0.8030170
845.1519, 1.218246
845.6340, 1.374533
846.1161, 1.430855
846.5983, 1.395601
847.0804, 1.349119
847.5625, 1.431158
848.0446, 1.655151
848.5267, 1.776976
849.0089, 1.759365
849.4910, 1.673901
849.9731, 1.432093
850.4552, 1.214792
850.9373, 1.238373
851.4194, 1.435186
851.9016, 1.518082
852.3837, 1.310043
852.8658, 1.156315
853.3479, 1.539925
853.8300, 2.093613
854.3121, 2.073711
854.7943, 1.558784
855.2764, 1.159765
855.7585, 1.137135
856.2406, 1.361404
856.7227, 1.742901
857.2048, 2.236586
857.6870, 2.235428
858.1691, 1.553621
858.6512, 1.122894
859.1333, 1.247656
859.6154, 1.577295
860.0975, 1.921658
860.5797, 2.226265
861.0618, 2.203224
861.5439, 1.549101
862.0260, 1.097942
862.5081, 0.8403550
862.9902, 0.8588620
863.4724, 1.495581
863.9545, 2.318630
864.4366, 2.604506
864.9187, 2.188381
865.4008, 1.663612
865.8829, 1.331503
866.3651, 1.177557
866.8472, 1.158775
867.3293, 1.294598
867.8114, 1.734673
868.2935, 2.443354
868.7756, 2.944910
869.2578, 2.866314
869.7399, 2.368568
870.2220, 1.713718
870.7041, 0.8766140
871.1862, 0.6820180
871.6683, 1.391840
872.1505, 1.930397
872.6326, 1.674559
873.1147, 0.9978290
873.5968, 0.4800430
874.0789, 0.1035540
874.5610, 5.4950002E-03
875.0432, 0.2239510
875.5253, 0.6122000
876.0074, 1.534636
876.4895, 2.267794
876.9716, 1.935724
877.4537, 0.8389320
877.9359, 0.2038800
878.4180, 0.5368330
878.9001, 1.157757
879.3822, 1.934484
879.8643, 2.571749
880.3464, 2.660475
880.8286, 2.320194
881.3107, 1.895176
881.7928, 1.524019
882.2749, 1.230463
882.7570, 1.071842
883.2391, 0.9988750
883.7213, 0.8675160
884.2034, 0.6729320
884.6855, 0.4133420
885.1676, 3.7533000E-02
885.6497, 2.6400001E-03
886.1318, 0.7859590
886.6140, 2.033958
887.0961, 2.418425
887.5782, 1.419870
888.0603, 0.9032330
888.5424, 1.322544
889.0245, 1.635015
889.5067, 1.211058
889.9888, 0.5876790
890.4709, 0.3777480
890.9530, 0.6044600
891.4351, 0.9365140
891.9172, 1.524139
892.3994, 1.933929
892.8815, 1.980247
893.3636, 1.774319
893.8457, 1.294073
894.3278, 0.6715090
894.8099, 0.2035350
895.2921, 2.0733001E-02
895.7742, 1.7881000E-02
896.2563, 2.8231001E-02
896.7384, 8.2130004E-03
897.2205, 0.1563890
897.7026, 0.3906120
898.1848, 0.6552600
898.6669, 0.9223940
899.1490, 0.9875160
899.6311, 0.5792960
900.1132, 9.3960002E-02
900.5953, 0.1781790
901.0775, 0.3855210
901.5596, 0.8628370
902.0417, 1.152321
902.5238, 1.382153
903.0059, 1.700859
903.4880, 1.975311
903.9702, 1.887732
904.4523, 1.276237
904.9344, 0.9565730
905.4165, 1.328932
905.8986, 1.473549
906.3807, 0.9682880
906.8629, 0.3442040
907.3450, 8.5429996E-03
907.8271, 3.4834001E-02
908.3092, 3.4874000E-02
908.7913, 0.2762870
909.2734, 0.4074020
909.7556, 0.1060260
910.2377, 0.1886390
910.7198, 0.1222570
911.2019, 0.2753090
911.6840, 1.049147
912.1661, 2.118189
912.6483, 2.794369
913.1304, 2.257385
913.6125, 1.202236
914.0946, 0.7328990
914.5767, 0.7101150
915.0588, 0.7093200
915.5410, 0.6549000
916.0231, 0.6136050
916.5052, 0.6186520
916.9873, 0.7152290
917.4694, 1.140099
917.9515, 1.930813
918.4337, 1.824930
918.9158, 0.5355720
919.3979, 0.3114320
919.8800, 8.4100000E-04
920.3621, 0.6353930
920.8442, 0.7002560
921.3264, 0.2613700
921.8085, 1.7654000E-02
922.2906, 0.1368050
922.7727, 0.1761110
923.2548, 7.6660000E-02
923.7369, 0.2001760
924.2191, 8.3352998E-02
924.7012, 0.5856550
925.1833, 1.047432
925.6654, 1.441236
926.1475, 1.750660
926.6296, 2.205467
927.1118, 2.265879
927.5939, 1.168337
928.0760, 7.9363003E-02
928.5581, 0.2472990
929.0402, 0.4879420
929.5223, 1.110483
930.0045, 1.172026
930.4866, 1.040434
930.9687, 1.043640
931.4508, 1.072727
931.9329, 0.9170150
932.4150, 0.6360870
932.8972, 0.4228840
933.3793, 0.3360390
933.8614, 0.3684520
934.3435, 0.5458010
934.8256, 0.7676980
935.3077, 0.7331050
935.7899, 0.4686740
936.2720, 0.3790300
936.7541, 0.5183530
937.2362, 0.6968400
937.7183, 0.8092710
938.2004, 0.9682410
938.6826, 1.425194
939.1647, 1.268240
939.6468, 0.9865760
940.1289, 1.048243
940.6110, 0.1337950
941.0931, 0.2137170
941.5753, 0.2989560
942.0574, 0.2562240
942.5395, 0.1240270
943.0216, 4.0950002E-03
943.5037, 0.1628780
943.9858, 0.2103790
944.4680, 4.3021999E-02
944.9501, 0.1924480
945.4322, 2.7870000E-03
945.9143, 0.3112960
946.3964, 0.4626260
946.8785, 0.4861660
947.3607, 0.6530590
947.8428, 1.178944
948.3249, 1.570625
948.8070, 1.373804
949.2891, 1.082184
949.7712, 1.290215
950.2534, 1.730862
950.7355, 1.765160
951.2176, 1.264868
951.6997, 0.7224790
952.1818, 0.5127280
952.6639, 0.4588180
953.1461, 0.2672670
953.6282, 5.9284002E-02
954.1103, 0.2346420
954.5924, 0.7442970
955.0745, 1.008375
955.5566, 0.7352940
956.0388, 0.3527870
956.5209, 0.5068820
957.0030, 1.044750
957.4851, 1.208530
957.9672, 0.9984720
958.4493, 0.6254120
958.9315, 8.7530002E-02
959.4136, 0.1023560
959.8957, 0.5367220
960.3778, 1.590137
960.8599, 1.930397
961.3420, 1.354219
961.8242, 1.154005
962.3063, 1.611696
962.7884, 1.717550
963.2705, 0.8561310
963.7526, 0.1048950
964.2347, 0.2387740
964.7169, 0.3320880
965.1990, 0.7089540
965.6811, 0.6857150
966.1632, 0.7822700
966.6453, 1.312710
967.1274, 1.611271
967.6096, 1.158880
968.0917, 0.4230160
968.5738, 5.8209999E-03
969.0559, 8.1308998E-02
969.5380, 4.3660998E-02
970.0201, 0.5569110
970.5023, 0.9663600
970.9844, 0.9744590
971.4665, 0.9236810
971.9486, 1.167643
972.4307, 1.548458
972.9128, 1.650211
973.3950, 1.374081
973.8771, 1.228868
974.3592, 1.697165
974.8413, 2.243452
975.3234, 2.437621
975.8055, 2.385146
976.2877, 2.210602
976.7698, 1.974295
977.2519, 1.626295
977.7340, 1.207117
978.2161, 0.8563450
978.6982, 0.7811750
979.1804, 0.8633950
979.6625, 0.9056370
980.1446, 0.9175590
980.6267, 0.8912760
981.1088, 0.8206080
981.5909, 0.7908830
982.0731, 0.8938380
982.5552, 0.9695000
983.0373, 0.6195800
983.5194, 5.1892001E-02
984.0015, 0.2658120
984.4836, 7.6999997E-05
984.9658, 0.4581420
985.4479, 1.050200
985.9300, 1.508104
986.4121, 1.556085
986.8942, 1.338730
987.3763, 1.295330
987.8585, 1.471140
988.3406, 1.513236
988.8227, 1.371359
989.3048, 1.192674
989.7869, 0.9851120
990.2690, 0.8675580
990.7512, 1.014081
991.2333, 1.397588
991.7154, 1.669082
992.1975, 1.727102
992.6796, 1.904025
993.1617, 2.499766
993.6439, 2.829188
994.1260, 2.354529
994.6081, 1.551170
995.0902, 1.034080
995.5723, 0.8015390
996.0544, 0.8716640
996.5366, 1.698061
997.0187, 2.177559
997.5008, 1.892976
997.9829, 1.458698
998.4650, 1.192166
998.9471, 1.059618
999.4293, 0.9777490
999.9114, 0.9145110
1000.393, 0.9007550
1000.876, 1.007335
1001.358, 1.107913
1001.840, 1.142300
1002.322, 1.147332
1002.804, 1.228697
1003.286, 1.313191
1003.768, 1.103142
1004.250, 0.4926010
1004.733, 7.8226000E-02
1005.215, 0.3567710
1005.697, 0.7629100
1006.179, 0.8595820
1006.661, 0.8396630
1007.143, 0.9838640
1007.625, 1.267736
1008.107, 1.515574
1008.589, 1.660135
1009.072, 1.665746
1009.554, 1.290686
1010.036, 0.9353560
1010.518, 1.211173
1011.000, 1.829658
1011.482, 2.326969
1011.964, 2.551079
1012.446, 2.243571
1012.929, 1.201393
1013.411, 0.1589340
1013.893, 7.2120003E-02
1014.375, 0.5774010
1014.857, 1.061781
1015.339, 1.468656
1015.821, 1.719868
1016.303, 1.790607
1016.785, 1.598116
1017.268, 1.030483
1017.750, 0.4776830
1018.232, 0.6921350
1018.714, 1.427752
1019.196, 1.587196
1019.678, 1.210398
1020.160, 0.9495430
1020.642, 0.9864330
1021.125, 1.257219
1021.607, 1.727859
1022.089, 2.198831
1022.571, 2.334783
1023.053, 2.123178
1023.535, 1.549616
1024.017, 0.5861090
1024.499, 3.6194000E-02
1024.981, 8.1161000E-02
1025.464, 0.2365120
1025.946, 0.7681990
1026.428, 1.423379
1026.910, 2.001871
1027.392, 2.556437
1027.874, 2.535162
1028.356, 1.729052
1028.838, 1.314233
1029.321, 1.843054
1029.803, 2.456428
1030.285, 2.255355
1030.767, 1.472116
1031.249, 1.183603
1031.731, 1.568204
1032.213, 1.778323
1032.695, 1.827810
1033.177, 1.548630
1033.660, 0.5894150
1034.142, 0.2265360
1034.624, 0.1175060
1035.106, 1.364454
1035.588, 1.887650
1036.070, 1.376261
1036.552, 0.8715180
1037.034, 0.2851350
1037.516, 7.4146003E-02
1037.999, 9.5602997E-02
1038.481, 0.1151860
1038.963, 0.5253880
1039.445, 1.077831
1039.927, 1.314867
1040.409, 0.7288360
1040.891, 0.7347370
1041.373, 2.147738
1041.855, 3.091249
1042.338, 2.382580
1042.820, 1.272466
1043.302, 1.134270
1043.784, 1.839684
1044.266, 2.206879
1044.748, 1.915720
1045.230, 1.682035
1045.712, 1.472820
1046.195, 1.408300
1046.677, 1.745469
1047.159, 2.103237
1047.641, 2.002427
1048.123, 1.507418
1048.605, 1.151770
1049.087, 0.9360850
1049.569, 0.9630530
1050.052, 1.606277
1050.534, 2.071688
1051.016, 1.840107
1051.498, 1.351503
1051.980, 1.040788
1052.462, 0.9376830
1052.944, 0.9883730
1053.426, 1.345982
1053.908, 1.527073
1054.391, 1.377783
1054.873, 1.117966
1055.355, 0.6337390
1055.837, 0.1464290
1056.319, 0.2117120
1056.801, 0.3726220
1057.283, 8.8223003E-02
1057.765, 1.007966
1058.248, 1.813197
1058.730, 1.868649
1059.212, 1.708698
1059.694, 1.583036
1060.176, 1.438118
1060.658, 1.112332
1061.140, 0.6773200
1061.622, 0.4645030
1062.104, 0.6202850
1062.587, 0.8366330
1063.069, 0.8663970
1063.551, 1.095305
1064.033, 2.259682
1064.515, 3.382924
1064.997, 3.051736
1065.479, 1.603283
1065.961, 0.6902270
1066.443, 0.8860980
1066.926, 1.285860
1067.408, 1.848223
1067.890, 2.133445
1068.372, 1.609016
1068.854, 0.8609660
1069.336, 0.4838480
1069.818, 0.5253750
1070.300, 0.8716280
1070.782, 1.595794
1071.265, 2.247602
1071.747, 2.798132
1072.229, 3.026373
1072.711, 2.460377
1073.193, 1.747679
1073.675, 1.677911
1074.157, 2.084789
1074.639, 2.299870
1075.122, 2.124913
1075.604, 1.849031
1076.086, 1.520541
1076.568, 1.230946
1077.050, 1.122353
1077.532, 1.009476
1078.014, 0.5408790
1078.496, 6.3975997E-02
1078.979, 0.1957000
1079.461, 0.3218220
1079.943, 0.8841070
1080.425, 1.326048
1080.907, 1.607643
1081.389, 1.509328
1081.871, 1.395978
1082.353, 1.714153
1082.835, 2.259944
1083.318, 2.528055
1083.800, 2.412380
1084.282, 2.258375
1084.764, 2.257216
1085.246, 2.199160
1085.728, 1.880379
1086.210, 1.551579
1086.692, 1.478068
1087.175, 1.536309
1087.657, 1.454113
1088.139, 1.196639
1088.621, 1.027118
1089.103, 1.135888
1089.585, 1.233203
1090.067, 1.209323
1090.549, 1.109081
1091.031, 0.9211050
1091.514, 0.7202440
1091.996, 0.6091860
1092.478, 0.6264820
1092.960, 0.6174890
1093.442, 0.5458040
1093.924, 0.4137340
1094.406, 8.6799003E-02
1094.888, 0.3156160
1095.370, 0.5057360
1095.853, 1.607579
1096.335, 1.939693
1096.817, 1.543932
1097.299, 1.276231
1097.781, 1.487924
1098.263, 1.512699
1098.745, 0.7796550
1099.227, 0.2331630
1099.709, 0.7424820
1100.192, 1.405353
1100.674, 0.9637990
1101.156, 0.1888820
1101.638, 0.3885870
1102.120, 1.071095
1102.602, 1.976358
1103.084, 1.340746
1103.566, 0.6316660
1104.049, 0.3334700
1104.531, 0.2863280
1105.013, 0.4722780
1105.495, 0.7528340
1105.977, 0.8221090
1106.459, 0.6077480
1106.941, 0.4324310
1107.423, 0.3595050
1107.906, 0.3175430
1108.388, 0.2773180
1108.870, 0.2733480
1109.352, 0.3239130
1109.834, 0.4289450
1110.316, 0.6757280
1110.798, 1.092560
1111.280, 1.095429
1111.762, 2.8068000E-02
1112.245, 0.5324120
1112.727, 6.8582997E-02
1113.209, 0.5658880
1113.691, 1.119265
1114.173, 1.492015
1114.655, 1.491590
1115.137, 1.187297
1115.619, 1.148028
1116.102, 1.606654
1116.584, 1.878386
1117.066, 1.906873
1117.548, 1.809944
1118.030, 1.460981
1118.512, 1.192184
1118.994, 1.483145
1119.476, 2.093574
1119.958, 1.997764
1120.441, 0.7857810
1120.923, 0.2126820
1121.405, 0.6515700
1121.887, 0.8922270
1122.369, 0.4755130
1122.851, 6.2068000E-02
1123.333, 0.1386770
1123.815, 0.5644840
1124.297, 1.102150
1124.780, 1.805529
1125.262, 1.863698
1125.744, 1.078429
1126.226, 0.3319410
1126.708, 0.3227680
1127.190, 0.5751240
1127.672, 0.1770580
1128.154, 0.5483030
1128.636, 1.196417
1129.119, 1.724076
1129.601, 1.639159
1130.083, 0.8431700
1130.565, 0.5687970
1131.047, 0.9889200
1131.529, 1.518300
1132.011, 1.963919
1132.493, 2.106321
1132.976, 1.653483
1133.458, 0.8714080
1133.940, 0.5333950
1134.422, 0.6084370
1134.904, 0.7327580
1135.386, 0.8893980
1135.868, 1.170472
1136.350, 1.579865
1136.833, 1.610154
1137.315, 0.8716900
1137.797, 7.4383996E-02
1138.279, 0.1344310
1138.761, 0.3808060
1139.243, 0.3017990
1139.725, 0.1961040
1140.207, 0.2717250
1140.689, 0.1425880
1141.172, 0.4646880
1141.654, 0.4196750
1142.136, 0.2954090
1142.618, 0.3890880
1143.100, 0.6081730
1143.582, 0.8546180
1144.064, 1.081800
1144.546, 1.202291
1145.029, 1.210721
1145.511, 1.115541
1145.993, 0.9254130
1146.475, 0.6432540
1146.957, 0.1476670
1147.439, 0.1207240
1147.921, 0.5310570
1148.403, 1.440350
1148.885, 1.948651
1149.368, 2.039104
1149.850, 1.547112
1150.332, 0.6845650
1150.814, 0.2627580
1151.296, 0.6910900
1151.778, 1.135527
1152.260, 1.107501
1152.742, 0.8850270
1153.224, 0.5829440
1153.707, 0.2955470
1154.189, 8.8995002E-02
1154.671, 8.8060005E-03
1155.153, 0.1270690
1155.635, 0.4591610
1156.117, 0.9295800
1156.599, 1.770753
1157.081, 2.379862
1157.563, 2.593021
1158.046, 2.516239
1158.528, 2.007118
1159.010, 1.343250
1159.492, 0.7040440
1159.974, 0.2132990
1160.456, 0.1240750
1160.938, 0.6805920
1161.420, 1.215086
1161.903, 1.820036
1162.385, 2.227888
1162.867, 2.298254
1163.349, 2.222462
1163.831, 2.113026
1164.313, 1.983658
1164.795, 1.857212
1165.277, 1.719723
1165.760, 1.705982
1166.242, 1.829725
1166.724, 2.066036
1167.206, 2.495384
1167.688, 2.756060
1168.170, 2.638912
1168.652, 2.318321
1169.134, 1.993565
1169.616, 1.680119
1170.099, 1.435329
1170.581, 1.323395
1171.063, 1.380289
1171.545, 1.602583
1172.027, 1.529762
1172.509, 1.014046
1172.991, 0.7192550
1173.473, 1.198818
1173.956, 1.907860
1174.438, 1.833370
1174.920, 1.237700
1175.402, 0.8993870
1175.884, 0.8111170
1176.366, 0.9544390
1176.848, 1.290066
1177.330, 1.777079
1177.813, 2.373343
1178.295, 2.563656
1178.777, 1.536060
1179.259, 0.3920140
1179.741, 0.7785760
1180.223, 1.722788
1180.705, 1.775930
1181.187, 1.255091
1181.669, 1.009525
1182.151, 1.195398
1182.634, 1.545248
1183.116, 1.982763
1183.598, 2.393692
1184.080, 2.856270
1184.562, 3.077114
1185.044, 2.797544
1185.526, 2.296774
1186.008, 1.651793
1186.490, 1.012691
1186.973, 0.6749670
1187.455, 0.6942290
1187.937, 0.8949600
1188.419, 1.546690
1188.901, 1.924183
1189.383, 1.536695
1189.865, 1.255873
1190.347, 1.773710
1190.830, 2.417402
1191.312, 2.360607
1191.794, 2.612265
1192.276, 2.701656
1192.758, 2.348637
1193.240, 2.466206
1193.722, 1.852940
1194.204, 1.230198
1194.687, 0.6752380
1195.169, 0.4657940
1195.651, 0.8665770
1196.133, 1.446083
1196.615, 1.502810
1197.097, 1.125816
1197.579, 0.8488900
1198.061, 0.6810910
1198.543, 0.8032820
1199.026, 1.187954
1199.508, 1.369249
1199.990, 1.201561
1200.472, 1.055962
1200.954, 1.238413
1201.436, 1.541611
1201.918, 1.662151
1202.400, 1.672039
1202.883, 1.769333
1203.365, 1.855467
1203.847, 1.585464
1204.329, 1.061876
1204.811, 0.8346820
1205.293, 1.100086
1205.775, 1.362667
1206.257, 0.9318560
1206.740, 0.5958600
1207.222, 1.184042
1207.704, 1.861713
1208.186, 1.712675
1208.668, 1.237705
1209.150, 1.256540
1209.632, 1.765604
1210.114, 2.228947
1210.596, 2.528021
1211.078, 2.776600
1211.561, 3.189249
1212.043, 3.292187
1212.525, 2.820076
1213.007, 2.113997
1213.489, 1.072975
1213.971, 0.1809350
1214.453, 0.4082490
1214.935, 0.1056230
1215.417, 0.3649920
1215.900, 0.1646610
1216.382, 0.4577350
1216.864, 0.2128390
1217.346, 0.9930130
1217.828, 1.554058
1218.310, 1.956495
1218.792, 2.275579
1219.274, 2.362064
1219.757, 1.727451
1220.239, 1.990362
1220.721, 2.000734
1221.203, 1.769928
1221.685, 2.149035
1222.167, 1.820141
1222.649, 1.359282
1223.131, 0.9911350
1223.614, 0.7382110
1224.096, 0.6342370
1224.578, 0.5986940
1225.060, 0.5000440
1225.542, 0.4576020
1226.024, 0.7292520
1226.506, 1.086033
1226.988, 1.127096
1227.470, 0.9148710
1227.953, 0.7666380
1228.435, 0.7769930
1228.917, 0.9115940
1229.399, 1.244537
1229.881, 1.576788
1230.363, 2.037573
1230.845, 2.260208
1231.327, 1.765728
1231.810, 1.112616
1232.292, 1.063454
1232.774, 0.7788720
1233.256, 0.6096460
1233.738, 0.8130110
1234.220, 0.6363330
1234.702, 1.005478
1235.184, 1.413786
1235.667, 1.837048
1236.149, 1.991261
1236.631, 1.678101
1237.113, 1.265646
1237.595, 1.196871
1238.077, 1.365973
1238.559, 1.452446
1239.041, 1.486176
1239.523, 1.524427
1240.005, 1.648272
1240.488, 2.495419
1240.970, 3.950165
1241.452, 4.482296
1241.934, 3.329187
1242.416, 2.048967
1242.898, 2.357670
1243.380, 2.908188
1243.862, 2.137159
1244.344, 1.048717
1244.827, 0.7263130
1245.309, 0.9549310
1245.791, 1.271002
1246.273, 1.598579
1246.755, 2.096104
1247.237, 3.076584
1247.719, 3.273405
1248.201, 1.484856
1248.684, 0.1677070
1249.166, 0.2410470
1249.648, 0.7758790
1250.130, 1.452894
1250.612, 2.061684
1251.094, 2.381205
1251.576, 2.485809
1252.058, 2.558870
1252.541, 2.630169
1253.023, 2.342472
1253.505, 1.616888
1253.987, 1.517363
1254.469, 2.309303
1254.951, 2.777630
1255.433, 2.202332
1255.915, 1.372213
1256.397, 1.298140
1256.880, 1.543276
1257.362, 1.027241
1257.844, 1.486723
1258.326, 0.7739350
1258.808, 1.935331
1259.290, 2.538614
1259.772, 2.415033
1260.254, 2.111937
1260.737, 1.829199
1261.219, 1.551311
1261.701, 1.392967
1262.183, 1.073332
1262.665, 4.8374001E-02
1263.147, 0.8487850
1263.629, 6.7785002E-02
1264.111, 1.254309
1264.594, 1.495790
1265.076, 0.8547520
1265.558, 0.7754230
1266.040, 1.495543
1266.522, 1.926649
1267.004, 2.060125
1267.486, 1.859171
1267.968, 1.217812
1268.450, 0.8245300
1268.932, 1.049774
1269.415, 1.561989
1269.897, 2.023668
1270.379, 2.429352
1270.861, 2.859091
1271.343, 3.198132
1271.825, 2.891088
1272.307, 2.222563
1272.789, 2.144997
1273.271, 2.663809
1273.754, 3.087130
1274.236, 3.100378
1274.718, 2.673077
1275.200, 2.750395
1275.682, 2.678444
1276.164, 2.183361
1276.646, 1.600258
1277.128, 1.096197
1277.611, 0.6959480
1278.093, 0.2518830
1278.575, 6.2458001E-02
1279.057, 0.5036750
1279.539, 2.183165
1280.021, 2.853277
1280.503, 2.118073
1280.985, 1.572538
1281.468, 1.357994
1281.950, 1.504833
1282.432, 1.995214
1282.914, 2.322683
1283.396, 1.442516
1283.878, 0.1255280
1284.360, 3.2579999E-03
1284.842, 0.5206030
1285.324, 0.0000000E+00
##END=



