##NAMES=Olivenite
##RRUFFID=R050532
##IDEAL CHEMISTRY=Cu^2+^_2_As^5+^O_4_(OH)
##LOCALITY=Tsumeb mine, Tsumeb, Otavi District, Oshikoto, Namibia
##OWNER=RRUFF
##SOURCE=University of Arizona Mineral Museum
##DESCRIPTION=Dark green prismatic crystals on botryoidal bayldonite R050670
##STATUS=The identification of this mineral has been confirmed by X-ray diffraction and chemical analysis
##URL=rruff.info/R050532
##MEASURED CHEMISTRY=(Cu_0.99_Zn_0.01_)_2_(As_1.00_O_4_)(OH)
146.8561, 0.0000000E+00
147.3382, 8.5259996E-02
147.8204, 0.2901040
148.3025, 0.4999450
148.7846, 0.6705700
149.2667, 0.8238330
149.7488, 1.011255
150.2309, 1.273602
150.7131, 1.460596
151.1952, 1.515724
151.6773, 1.539259
152.1594, 1.401834
152.6415, 1.121330
153.1236, 0.9224410
153.6058, 1.091980
154.0879, 1.427860
154.5700, 1.741377
155.0521, 1.464874
155.5342, 0.5315250
156.0163, 0.2603150
156.4985, 1.056435
156.9806, 1.828489
157.4627, 2.223446
157.9448, 2.051136
158.4269, 1.557957
158.9090, 1.032953
159.3912, 0.3452820
159.8733, 5.6320000E-03
160.3554, 0.4025750
160.8375, 1.055840
161.3196, 1.357870
161.8017, 1.035522
162.2839, 0.4132480
162.7660, 0.4382650
163.2481, 1.959015
163.7302, 2.768738
164.2123, 1.990709
164.6944, 0.5618000
165.1766, 0.4948690
165.6587, 0.4412060
166.1408, 0.5426720
166.6229, 1.257618
167.1050, 1.566372
167.5871, 2.097653
168.0693, 2.322000
168.5514, 2.310962
169.0335, 2.544824
169.5156, 3.297840
169.9977, 4.474110
170.4798, 4.763388
170.9620, 3.387910
171.4441, 2.064697
171.9262, 1.751908
172.4083, 2.283102
172.8904, 2.757620
173.3725, 2.463206
173.8547, 1.481876
174.3368, 0.8585400
174.8189, 0.6427840
175.3010, 0.7403800
175.7831, 1.322891
176.2652, 2.421045
176.7474, 3.180681
177.2295, 2.485868
177.7116, 0.9591180
178.1937, 0.1584190
178.6758, 1.052921
179.1579, 2.624910
179.6401, 3.365863
180.1222, 3.102644
180.6043, 2.479414
181.0864, 1.503797
181.5685, 0.4876870
182.0506, 3.4506001E-02
182.5328, 0.7878350
183.0149, 2.264091
183.4970, 2.879361
183.9791, 2.051865
184.4612, 1.217049
184.9433, 1.035198
185.4255, 1.278595
185.9076, 1.570535
186.3897, 1.735197
186.8718, 1.755205
187.3539, 1.412137
187.8360, 0.1301950
188.3182, 1.135024
188.8003, 0.7443040
189.2824, 0.5765760
189.7645, 1.876763
190.2466, 2.396501
190.7287, 2.104662
191.2109, 1.824663
191.6930, 1.273627
192.1751, 0.9998140
192.6572, 1.514641
193.1393, 2.524994
193.6214, 3.240635
194.1036, 2.868553
194.5857, 1.153699
195.0678, 0.4714370
195.5499, 1.754329
196.0320, 3.051421
196.5141, 3.364541
196.9963, 2.810472
197.4784, 2.112988
197.9605, 1.918399
198.4426, 2.312916
198.9247, 2.663305
199.4068, 2.926964
199.8890, 3.192165
200.3711, 3.610514
200.8532, 4.164827
201.3353, 4.491818
201.8174, 4.146879
202.2995, 3.082375
202.7817, 2.378699
203.2638, 2.129223
203.7459, 2.224827
204.2280, 2.738874
204.7101, 3.730717
205.1922, 4.600521
205.6744, 4.715805
206.1565, 4.215604
206.6386, 3.730922
207.1207, 3.175508
207.6028, 2.780958
208.0849, 3.028880
208.5671, 4.145098
209.0492, 5.184768
209.5313, 5.195395
210.0134, 4.553541
210.4955, 4.009310
210.9776, 3.868540
211.4598, 4.006233
211.9419, 4.179508
212.4240, 4.443237
212.9061, 4.611420
213.3882, 4.441694
213.8703, 4.106573
214.3525, 3.953057
214.8346, 4.262987
215.3167, 4.884873
215.7988, 5.253183
216.2809, 5.231918
216.7630, 5.149678
217.2451, 5.277379
217.7273, 5.435581
218.2094, 5.314672
218.6915, 4.596066
219.1736, 3.419262
219.6557, 2.649357
220.1378, 2.429571
220.6200, 2.506481
221.1021, 3.000949
221.5842, 3.691427
222.0663, 4.250632
222.5484, 4.442558
223.0305, 4.265396
223.5127, 4.115536
223.9948, 3.959794
224.4769, 3.917913
224.9590, 4.096737
225.4411, 4.399879
225.9232, 4.667387
226.4054, 4.788522
226.8875, 4.779501
227.3696, 4.840163
227.8517, 5.205679
228.3338, 5.393270
228.8159, 5.235523
229.2981, 4.828025
229.7802, 4.306508
230.2623, 3.732021
230.7444, 3.135234
231.2265, 2.895072
231.7086, 3.510370
232.1908, 3.905927
232.6729, 3.699965
233.1550, 3.084027
233.6371, 2.422257
234.1192, 1.914071
234.6013, 1.559299
235.0835, 1.394023
235.5656, 1.577966
236.0477, 1.720954
236.5298, 1.618602
237.0119, 1.400588
237.4940, 1.432611
237.9762, 1.993002
238.4583, 2.886112
238.9404, 3.175430
239.4225, 2.253337
239.9046, 1.504873
240.3867, 1.661021
240.8689, 2.387069
241.3510, 2.889969
241.8331, 2.779893
242.3152, 2.175311
242.7973, 1.435049
243.2794, 1.337334
243.7616, 0.5275470
244.2437, 0.8372650
244.7258, 0.7036610
245.2079, 0.4572010
245.6900, 0.2355960
246.1721, 6.1967000E-02
246.6543, 0.1793180
247.1364, 0.5292420
247.6185, 0.9007210
248.1006, 1.364834
248.5827, 1.854883
249.0648, 2.088258
249.5470, 1.814398
250.0291, 1.427797
250.5112, 1.650006
250.9933, 2.633863
251.4754, 3.314037
251.9576, 2.591979
252.4397, 0.8585510
252.9218, 0.1219310
253.4039, 0.4800930
253.8860, 1.546397
254.3681, 1.800124
254.8503, 1.248595
255.3324, 0.6438820
255.8145, 0.4391350
256.2966, 0.5743590
256.7787, 0.7438100
257.2608, 0.8767220
257.7430, 1.066753
258.2251, 1.520166
258.7072, 2.179047
259.1893, 2.559569
259.6714, 2.087259
260.1535, 0.9807130
260.6357, 0.4912480
261.1178, 1.053452
261.5999, 1.855489
262.0820, 2.472069
262.5641, 2.898539
263.0462, 3.131368
263.5284, 3.034005
264.0105, 2.687786
264.4926, 2.594070
264.9747, 2.902151
265.4568, 3.265523
265.9389, 3.566607
266.4211, 3.791205
266.9032, 3.904583
267.3853, 3.836879
267.8674, 3.644840
268.3495, 3.578094
268.8316, 3.683328
269.3138, 3.858429
269.7959, 4.182125
270.2780, 4.522177
270.7601, 4.667112
271.2422, 4.469676
271.7243, 4.037243
272.2065, 3.732639
272.6886, 3.640650
273.1707, 3.541524
273.6528, 3.281985
274.1349, 3.063596
274.6170, 2.988292
275.0992, 3.190177
275.5813, 3.572675
276.0634, 3.924953
276.5455, 4.438547
277.0276, 4.523897
277.5097, 3.643697
277.9919, 2.585348
278.4740, 2.133488
278.9561, 2.563759
279.4382, 3.456961
279.9203, 4.076483
280.4024, 4.454191
280.8846, 4.438521
281.3667, 3.503580
281.8488, 2.563065
282.3309, 2.453528
282.8130, 3.319159
283.2951, 4.475819
283.7773, 4.853985
284.2594, 4.007532
284.7415, 3.483686
285.2236, 3.659363
285.7057, 3.864122
286.1878, 3.577628
286.6700, 2.815687
287.1521, 2.078178
287.6342, 2.042285
288.1163, 3.056984
288.5984, 3.382349
289.0805, 2.171518
289.5627, 1.081017
290.0448, 1.020528
290.5269, 1.843387
291.0090, 2.758350
291.4911, 3.015963
291.9732, 2.543523
292.4554, 2.339523
292.9375, 2.779557
293.4196, 3.109696
293.9017, 3.030482
294.3838, 2.643472
294.8659, 2.176104
295.3481, 1.762569
295.8302, 1.418810
296.3123, 1.387034
296.7944, 2.204345
297.2765, 2.767047
297.7586, 2.735309
298.2408, 2.337119
298.7229, 1.901494
299.2050, 1.607042
299.6871, 1.434533
300.1692, 1.309348
300.6513, 1.034051
301.1335, 1.074917
301.6156, 1.935344
302.0977, 2.908739
302.5798, 3.069972
303.0619, 2.071264
303.5440, 0.5965710
304.0262, 0.1262860
304.5083, 1.799831
304.9904, 2.767081
305.4725, 2.503839
305.9546, 1.877127
306.4367, 1.681574
306.9189, 2.046757
307.4010, 2.441714
307.8831, 2.025868
308.3652, 0.1410080
308.8473, 0.7953220
309.3294, 0.4027800
309.8116, 0.4486910
310.2937, 1.519245
310.7758, 2.610383
311.2579, 3.354109
311.7400, 3.292727
312.2221, 2.257479
312.7043, 1.612989
313.1864, 1.695791
313.6685, 1.775249
314.1506, 1.524751
314.6327, 1.025373
315.1148, 0.4880460
315.5970, 2.6097000E-02
316.0791, 0.3275840
316.5612, 9.8883003E-02
317.0433, 1.630026
317.5254, 2.923018
318.0075, 3.169589
318.4897, 2.763515
318.9718, 2.292027
319.4539, 2.052672
319.9360, 1.986586
320.4181, 1.902245
320.9002, 1.690910
321.3824, 1.608384
321.8645, 1.780135
322.3466, 2.029576
322.8287, 2.232085
323.3108, 2.332459
323.7929, 2.274532
324.2751, 1.931232
324.7572, 1.008840
325.2393, 0.3759190
325.7214, 1.0240000E-03
326.2035, 0.1015260
326.6856, 0.2084430
327.1678, 0.8463000
327.6499, 1.473802
328.1320, 1.701487
328.6141, 1.394604
329.0962, 1.378114
329.5783, 2.268863
330.0605, 2.799871
330.5426, 1.940678
331.0247, 0.2237230
331.5068, 0.8752710
331.9889, 0.1592650
332.4710, 2.220324
332.9532, 3.546163
333.4353, 2.838882
333.9174, 2.084823
334.3995, 1.431767
334.8816, 1.016743
335.3637, 1.107890
335.8459, 1.861559
336.3280, 2.933671
336.8101, 3.235395
337.2922, 1.862039
337.7743, 1.060278
338.2564, 1.407669
338.7386, 2.119408
339.2206, 2.457414
339.7028, 2.237056
340.1849, 1.852585
340.6670, 1.907172
341.1491, 2.566100
341.6312, 3.267487
342.1133, 4.522866
342.5955, 5.398262
343.0776, 5.152441
343.5597, 3.928822
344.0418, 2.515828
344.5239, 1.629526
345.0060, 1.292866
345.4882, 1.076309
345.9703, 1.059464
346.4524, 1.096999
346.9345, 1.032516
347.4166, 1.007502
347.8987, 1.358138
348.3809, 2.377284
348.8630, 3.773169
349.3451, 4.294080
349.8272, 3.341593
350.3093, 2.393970
350.7914, 1.593377
351.2736, 1.002420
351.7557, 0.7254000
352.2378, 0.7935750
352.7199, 1.059493
353.2020, 1.276873
353.6841, 1.405175
354.1663, 1.610474
354.6484, 2.274705
355.1305, 2.764792
355.6126, 2.451228
356.0947, 1.369843
356.5768, 0.3533660
357.0590, 0.2577650
357.5411, 1.124225
358.0232, 1.869000
358.5053, 2.642070
358.9874, 3.082566
359.4695, 2.763654
359.9517, 2.025974
360.4338, 1.599043
360.9159, 2.070434
361.3980, 3.042584
361.8801, 3.223347
362.3622, 2.248926
362.8444, 1.272088
363.3265, 0.4214570
363.8086, 0.1050420
364.2907, 8.5375004E-02
364.7728, 1.218402
365.2549, 2.482386
365.7371, 2.661228
366.2192, 1.597684
366.7013, 0.8813660
367.1834, 1.350165
367.6655, 2.036115
368.1476, 2.201055
368.6298, 1.824306
369.1119, 1.321145
369.5940, 0.9237580
370.0761, 0.6344370
370.5582, 0.4658990
371.0403, 0.4078760
371.5225, 0.5019680
372.0046, 0.9865350
372.4867, 1.642222
372.9688, 1.930833
373.4509, 1.374826
373.9330, 0.4952650
374.4152, 0.1470440
374.8973, 0.3833840
375.3794, 0.6410870
375.8615, 0.6061560
376.3436, 0.4663740
376.8257, 0.4403270
377.3079, 0.6021080
377.7900, 0.8099250
378.2721, 0.9891110
378.7542, 1.133985
379.2363, 1.223471
379.7184, 1.258271
380.2006, 1.220232
380.6827, 1.070060
381.1648, 0.8134210
381.6469, 0.5419970
382.1290, 0.2440310
382.6111, 3.6637001E-02
383.0933, 0.2629120
383.5754, 0.4339500
384.0575, 0.4671990
384.5396, 0.5772331
385.0217, 0.3601210
385.5038, 0.6033720
385.9860, 0.2490840
386.4681, 0.1444990
386.9502, 0.2001930
387.4323, 3.7200001E-04
387.9144, 0.1204130
388.3965, 2.8635999E-02
388.8787, 0.1999640
389.3608, 0.1074640
389.8429, 1.402681
390.3250, 2.214968
390.8071, 1.873877
391.2892, 1.073122
391.7714, 0.6294350
392.2535, 0.7286010
392.7356, 1.102713
393.2177, 1.467464
393.6998, 1.843833
394.1819, 2.148351
394.6641, 2.428254
395.1462, 2.543329
395.6283, 2.343922
396.1104, 1.922961
396.5925, 1.486872
397.0746, 1.147799
397.5568, 0.9303940
398.0389, 0.9732960
398.5210, 1.826631
399.0031, 2.273797
399.4852, 1.685014
399.9673, 0.8486530
400.4495, 0.7546090
400.9316, 1.671528
401.4137, 2.910344
401.8958, 3.408982
402.3779, 2.907148
402.8600, 2.342535
403.3422, 1.289104
403.8243, 0.5519130
404.3064, 0.8578820
404.7885, 1.900934
405.2706, 2.706091
405.7527, 2.458135
406.2349, 1.323548
406.7170, 0.6485180
407.1991, 0.7335960
407.6812, 0.8826970
408.1633, 0.9440290
408.6454, 0.9686910
409.1276, 0.9824260
409.6097, 1.020564
410.0918, 1.163083
410.5739, 1.703491
411.0560, 2.906292
411.5381, 3.301997
412.0203, 1.581710
412.5024, 0.1109800
412.9845, 0.3334220
413.4666, 0.7184750
413.9487, 1.735277
414.4308, 1.573163
414.9130, 0.6194330
415.3951, 0.4428260
415.8772, 1.379260
416.3593, 2.269238
416.8414, 2.457909
417.3235, 2.217732
417.8057, 1.816699
418.2878, 1.178501
418.7699, 0.6839960
419.2520, 0.8232830
419.7341, 1.526661
420.2162, 2.121829
420.6984, 2.396107
421.1805, 2.488044
421.6626, 2.552490
422.1447, 2.605438
422.6268, 2.651096
423.1089, 2.883413
423.5911, 3.027121
424.0732, 2.492780
424.5553, 1.211975
425.0374, 0.1622780
425.5195, 0.2040100
426.0016, 1.174716
426.4838, 1.722472
426.9659, 1.584649
427.4480, 1.317545
427.9301, 1.018486
428.4122, 0.7840790
428.8943, 0.8919790
429.3765, 1.479829
429.8586, 2.216269
430.3407, 2.511215
430.8228, 2.090259
431.3049, 1.797752
431.7870, 1.872535
432.2692, 1.903699
432.7513, 1.385246
433.2334, 0.4512100
433.7155, 0.1678320
434.1976, 0.1940000
434.6797, 1.434920
435.1619, 2.061628
435.6440, 1.428092
436.1261, 0.9070080
436.6082, 0.6118180
437.0903, 0.5890740
437.5724, 1.045906
438.0546, 2.012995
438.5367, 2.983891
439.0188, 3.066574
439.5009, 1.893698
439.9830, 1.017065
440.4651, 0.3878000
440.9473, 0.1222220
441.4294, 0.6254100
441.9115, 1.600648
442.3936, 2.237904
442.8757, 1.804731
443.3578, 0.7199620
443.8400, 0.6527290
444.3221, 2.268538
444.8042, 3.195065
445.2863, 1.745064
445.7684, 0.3262210
446.2505, 1.377976
446.7327, 1.052543
447.2148, 0.2773900
447.6969, 0.1070460
448.1790, 0.1914860
448.6611, 0.6054400
449.1432, 1.721954
449.6254, 2.626788
450.1075, 2.238454
450.5896, 0.9510460
451.0717, 5.8511000E-02
451.5538, 0.4346020
452.0359, 0.4301570
452.5181, 0.1504680
453.0002, 0.3558110
453.4823, 0.7405190
453.9644, 0.7867990
454.4465, 0.6883300
454.9286, 0.9107110
455.4108, 1.536917
455.8929, 2.147403
456.3750, 2.882523
456.8571, 3.428138
457.3392, 3.238867
457.8214, 2.323352
458.3035, 1.484890
458.7856, 1.501892
459.2677, 2.390042
459.7498, 2.696643
460.2319, 1.916505
460.7141, 1.235646
461.1962, 0.9848980
461.6783, 1.036347
462.1604, 1.259629
462.6425, 1.592103
463.1246, 1.901040
463.6068, 1.901478
464.0889, 1.316036
464.5710, 1.167114
465.0531, 2.227186
465.5352, 2.983473
466.0173, 2.362292
466.4995, 0.8031210
466.9816, 0.4680140
467.4637, 0.6442530
467.9458, 2.3378000E-02
468.4279, 0.8342410
468.9100, 1.998012
469.3922, 2.761766
469.8743, 2.702723
470.3564, 2.258434
470.8385, 1.596618
471.3206, 0.8104070
471.8027, 0.3877740
472.2849, 1.061822
472.7670, 2.481994
473.2491, 3.246096
473.7312, 3.077350
474.2133, 2.698997
474.6954, 2.636360
475.1776, 2.750847
475.6597, 2.707968
476.1418, 2.248875
476.6239, 1.873728
477.1060, 2.033329
477.5881, 2.568005
478.0703, 3.026379
478.5524, 3.266658
479.0345, 3.335552
479.5166, 3.273974
479.9987, 3.049949
480.4808, 2.836293
480.9630, 2.515849
481.4451, 2.313905
481.9272, 2.555872
482.4093, 3.081689
482.8914, 3.337330
483.3735, 2.966483
483.8557, 2.190423
484.3378, 1.788226
484.8199, 2.004762
485.3020, 2.275570
485.7841, 2.685275
486.2662, 3.064131
486.7484, 3.314381
487.2305, 3.405628
487.7126, 3.307430
488.1947, 2.922901
488.6768, 2.286057
489.1589, 1.952659
489.6411, 2.090920
490.1232, 2.276913
490.6053, 2.430711
491.0874, 2.527659
491.5695, 2.467940
492.0516, 2.256303
492.5338, 2.127140
493.0159, 2.442522
493.4980, 3.135754
493.9801, 3.448156
494.4622, 3.182876
494.9443, 2.687475
495.4265, 1.987165
495.9086, 1.249322
496.3907, 1.039727
496.8728, 2.012703
497.3549, 3.104591
497.8370, 3.393903
498.3192, 3.037512
498.8013, 2.557197
499.2834, 2.097164
499.7655, 1.785669
500.2476, 1.909159
500.7297, 2.676276
501.2119, 3.118868
501.6940, 3.086900
502.1761, 2.787239
502.6582, 2.178399
503.1403, 1.408252
503.6224, 0.8042990
504.1045, 0.5476260
504.5866, 0.6754310
505.0688, 1.055429
505.5509, 1.967202
506.0330, 2.593792
506.5151, 2.765163
506.9972, 2.758744
507.4793, 2.747571
507.9615, 2.762609
508.4436, 2.771558
508.9257, 2.735589
509.4078, 2.686542
509.8899, 2.655509
510.3720, 2.561663
510.8542, 2.529341
511.3363, 2.473163
511.8184, 2.354475
512.3005, 2.054883
512.7827, 1.523734
513.2648, 1.146042
513.7469, 1.281398
514.2290, 1.795021
514.7111, 2.393093
515.1932, 3.119424
515.6754, 3.523895
516.1575, 3.014190
516.6396, 1.859067
517.1217, 1.344282
517.6038, 2.172428
518.0859, 2.881935
518.5681, 2.694560
519.0502, 1.981536
519.5323, 1.283380
520.0144, 0.7570750
520.4965, 0.4949010
520.9786, 0.6568700
521.4608, 1.354743
521.9429, 1.795232
522.4250, 1.968946
522.9071, 1.945993
523.3892, 1.529763
523.8713, 0.9964340
524.3535, 0.7917270
524.8356, 1.065303
525.3177, 1.540161
525.7998, 1.790225
526.2819, 1.743459
526.7640, 1.589415
527.2462, 1.043357
527.7283, 0.7156260
528.2104, 1.116019
528.6925, 1.942975
529.1746, 2.502355
529.6567, 2.457717
530.1389, 2.079468
530.6210, 1.597598
531.1031, 1.031309
531.5852, 0.7607570
532.0673, 1.020790
532.5494, 1.422663
533.0316, 1.443690
533.5137, 1.112891
533.9958, 0.8758580
534.4779, 0.8945030
534.9600, 0.9794510
535.4421, 0.9818450
535.9243, 0.9210850
536.4064, 0.8518250
536.8885, 0.7812260
537.3706, 0.7975310
537.8527, 1.107101
538.3348, 2.053702
538.8170, 2.596583
539.2991, 2.549273
539.7812, 2.344254
540.2633, 2.016209
540.7454, 1.627233
541.2275, 1.493347
541.7097, 1.820276
542.1918, 2.359179
542.6739, 2.390271
543.1560, 1.727472
543.6381, 1.349378
544.1202, 1.637973
544.6024, 1.962857
545.0845, 1.990679
545.5666, 1.765101
546.0487, 1.618631
546.5308, 1.785566
547.0129, 2.107400
547.4951, 2.473439
547.9772, 2.872656
548.4593, 2.719236
548.9414, 1.459595
549.4235, 0.1125340
549.9056, 0.4038620
550.3878, 0.7692690
550.8699, 1.737153
551.3520, 2.216109
551.8341, 2.379904
552.3162, 2.235963
552.7983, 1.747030
553.2805, 1.274543
553.7626, 0.9765890
554.2447, 0.8211570
554.7268, 0.6938100
555.2089, 0.3761080
555.6910, 0.5022290
556.1732, 1.683510
556.6553, 2.744073
557.1374, 2.803994
557.6195, 2.072683
558.1016, 1.402891
558.5837, 1.367263
559.0659, 1.679206
559.5480, 1.614121
560.0301, 1.084166
560.5122, 0.6917380
560.9943, 0.5320730
561.4764, 0.6626360
561.9586, 1.206891
562.4407, 2.132831
562.9228, 2.979627
563.4049, 3.724627
563.8870, 4.207399
564.3691, 4.214612
564.8513, 3.773856
565.3334, 3.013515
565.8155, 1.890937
566.2976, 0.7788060
566.7797, 0.4294880
567.2618, 1.374382
567.7440, 1.868275
568.2261, 1.547482
568.7082, 1.111755
569.1903, 0.9602930
569.6724, 1.027111
570.1545, 1.061351
570.6367, 0.9265330
571.1188, 0.7254020
571.6009, 0.6426750
572.0830, 0.6946260
572.5651, 0.7615280
573.0472, 0.8708570
573.5294, 0.9508300
574.0115, 0.9297640
574.4936, 0.8458050
574.9757, 0.7887720
575.4578, 0.7141700
575.9399, 0.7928430
576.4221, 1.419958
576.9042, 2.455465
577.3863, 3.065596
577.8684, 2.949924
578.3505, 2.517402
578.8326, 2.165841
579.3148, 1.896972
579.7969, 1.850324
580.2790, 2.363827
580.7611, 2.753252
581.2432, 2.633756
581.7253, 2.183044
582.2075, 1.633992
582.6896, 1.089370
583.1717, 0.6877320
583.6538, 0.6738550
584.1359, 1.130834
584.6180, 1.376044
585.1002, 1.198076
585.5823, 1.056492
586.0643, 1.116947
586.5464, 1.287923
587.0286, 1.482178
587.5107, 1.685693
587.9928, 1.774752
588.4749, 1.535454
588.9570, 1.069525
589.4391, 0.7597680
589.9213, 0.6400220
590.4034, 0.7248850
590.8855, 1.196715
591.3676, 1.856100
591.8497, 1.978176
592.3318, 1.201081
592.8140, 0.5140820
593.2961, 0.1132260
593.7782, 2.5983000E-02
594.2603, 0.5400550
594.7424, 1.521747
595.2245, 2.201806
595.7067, 1.910033
596.1888, 0.8354130
596.6709, 2.9294999E-02
597.1530, 0.6491620
597.6351, 0.7859770
598.1172, 0.2685770
598.5994, 1.348335
599.0815, 1.548850
599.5636, 0.9109130
600.0457, 8.1046999E-02
600.5278, 0.7730620
601.0099, 1.388281
601.4921, 1.010546
601.9742, 1.407952
602.4563, 1.343133
602.9384, 1.264815
603.4205, 0.7076880
603.9026, 0.3839270
604.3848, 0.2784190
604.8669, 0.3581060
605.3490, 0.9358240
605.8311, 1.399514
606.3132, 1.111680
606.7953, 0.4364210
607.2775, 0.3272280
607.7596, 1.131868
608.2417, 2.082291
608.7238, 1.748778
609.2059, 0.3684590
609.6880, 1.262850
610.1702, 0.1779240
610.6523, 1.614068
611.1344, 2.421618
611.6165, 2.724947
612.0986, 2.640580
612.5807, 2.174470
613.0629, 1.688846
613.5450, 1.452137
614.0271, 1.465122
614.5092, 1.840871
614.9913, 2.645626
615.4734, 3.332523
615.9556, 3.636485
616.4377, 3.564299
616.9198, 3.127205
617.4019, 2.026349
617.8840, 1.163528
618.3661, 0.6906280
618.8483, 0.5462910
619.3304, 0.9277110
619.8125, 1.635903
620.2946, 1.988006
620.7767, 1.490754
621.2589, 0.4950910
621.7410, 5.4644000E-02
622.2231, 0.3448440
622.7052, 0.7026720
623.1873, 1.164266
623.6694, 1.467406
624.1516, 1.480440
624.6337, 1.271500
625.1158, 1.028567
625.5979, 0.7221540
626.0800, 0.5594780
626.5621, 1.007111
627.0443, 1.807139
627.5264, 1.909758
628.0085, 0.9807180
628.4906, 6.4099999E-04
628.9727, 1.0945000E-02
629.4548, 1.008535
629.9370, 1.457355
630.4191, 0.8494020
630.9012, 0.4192930
631.3833, 0.5360420
631.8654, 0.9053750
632.3475, 1.287030
632.8297, 1.599490
633.3118, 1.786431
633.7939, 1.790769
634.2760, 1.633834
634.7581, 1.321224
635.2402, 0.7262480
635.7224, 0.5048020
636.2045, 1.242069
636.6866, 2.101562
637.1687, 2.065863
637.6508, 1.190580
638.1329, 0.6322650
638.6151, 0.9530170
639.0972, 1.554629
639.5793, 2.132596
640.0614, 2.579124
640.5435, 2.571135
641.0256, 1.991598
641.5078, 1.271770
641.9899, 0.9902870
642.4720, 1.192324
642.9541, 1.463406
643.4362, 2.142015
643.9183, 2.492687
644.4005, 2.044057
644.8826, 1.389107
645.3647, 1.216986
645.8468, 1.646620
646.3289, 2.192549
646.8110, 2.532391
647.2932, 2.678219
647.7753, 2.622282
648.2574, 2.359176
648.7395, 2.034718
649.2216, 1.679515
649.7037, 1.340329
650.1859, 1.082825
650.6680, 0.8734310
651.1501, 0.8789750
651.6322, 1.335841
652.1143, 1.796800
652.5964, 1.974144
653.0786, 1.966748
653.5607, 1.985533
654.0428, 2.109502
654.5249, 2.258228
655.0070, 2.336585
655.4891, 2.387225
655.9713, 2.148489
656.4534, 1.234300
656.9355, 0.6240210
657.4176, 1.222410
657.8997, 2.182580
658.3818, 2.385056
658.8640, 1.633287
659.3461, 1.001070
659.8282, 1.183294
660.3103, 1.566602
660.7924, 1.387026
661.2745, 0.7830920
661.7567, 0.5447320
662.2388, 1.080168
662.7209, 2.040487
663.2030, 2.821621
663.6851, 3.549046
664.1672, 3.685668
664.6494, 2.511823
665.1315, 1.519566
665.6136, 1.248946
666.0957, 1.447649
666.5778, 1.864755
667.0599, 2.422101
667.5421, 2.633995
668.0242, 1.932418
668.5063, 0.7061760
668.9884, 0.1905650
669.4705, 0.4748280
669.9526, 0.7942670
670.4348, 0.7568470
670.9169, 0.4837750
671.3990, 0.2126800
671.8811, 0.1530350
672.3632, 0.2456990
672.8453, 0.3798015
673.3275, 0.4509440
673.8096, 0.9829840
674.2917, 1.521033
674.7738, 1.912978
675.2559, 2.096415
675.7380, 2.117147
676.2202, 2.007611
676.7023, 1.775371
677.1844, 1.472042
677.6665, 1.055360
678.1486, 0.7214320
678.6307, 0.6457110
679.1129, 0.6713990
679.5950, 0.3875570
680.0771, 0.4032520
680.5592, 0.5921900
681.0413, 0.7271660
681.5234, 2.192790
682.0056, 2.821397
682.4877, 2.724618
682.9698, 2.267596
683.4519, 1.614365
683.9340, 0.9538050
684.4161, 0.5862020
684.8983, 0.5470710
685.3804, 0.4441980
685.8625, 8.2162000E-02
686.3446, 1.5114000E-02
686.8267, 0.8261490
687.3088, 1.854443
687.7910, 2.111973
688.2731, 1.438072
688.7552, 0.7603530
689.2373, 0.3679100
689.7194, 0.2956430
690.2015, 0.6899020
690.6837, 1.391436
691.1658, 1.712017
691.6479, 1.354418
692.1300, 0.7875560
692.6121, 0.7994200
693.0942, 1.471035
693.5764, 1.799407
694.0585, 1.550373
694.5406, 1.348462
695.0227, 1.491081
695.5048, 1.684880
695.9869, 1.548797
696.4691, 1.045209
696.9512, 0.6300880
697.4333, 0.5166360
697.9154, 0.6762620
698.3975, 1.366908
698.8796, 2.385734
699.3618, 2.624657
699.8439, 1.611474
700.3260, 0.2430830
700.8081, 0.3006860
701.2902, 5.4855000E-02
701.7723, 0.5256090
702.2545, 1.250370
702.7366, 1.920140
703.2187, 2.597429
703.7008, 3.112515
704.1829, 3.298640
704.6650, 3.146464
705.1472, 2.769555
705.6293, 2.044585
706.1114, 1.283741
706.5935, 1.023444
707.0756, 1.209440
707.5577, 1.543253
708.0399, 1.982845
708.5220, 2.317165
709.0041, 2.290859
709.4862, 1.906755
709.9683, 1.615905
710.4504, 1.367314
710.9326, 1.232020
711.4147, 1.231955
711.8968, 1.340272
712.3789, 1.704273
712.8610, 2.190774
713.3431, 2.276565
713.8253, 1.442317
714.3074, 0.3802490
714.7895, 0.2949390
715.2716, 1.042605
715.7537, 1.598826
716.2358, 1.760578
716.7180, 1.668155
717.2001, 1.406480
717.6822, 1.033789
718.1643, 0.9485760
718.6464, 1.410787
719.1285, 1.781412
719.6107, 2.020834
720.0928, 2.136051
720.5749, 2.056983
721.0570, 1.850046
721.5391, 1.730553
722.0212, 1.835828
722.5034, 1.999870
722.9855, 1.997834
723.4676, 1.852340
723.9497, 1.630391
724.4318, 1.286733
724.9139, 1.250121
725.3961, 1.976841
725.8782, 3.064680
726.3603, 3.328712
726.8424, 2.272107
727.3245, 1.564473
727.8066, 1.677205
728.2888, 1.776170
728.7709, 1.210127
729.2530, 0.3470630
729.7351, 0.1399180
730.2172, 1.7013000E-02
730.6993, 0.4730790
731.1815, 1.069547
731.6636, 1.704551
732.1457, 1.944918
732.6278, 1.753121
733.1099, 1.545521
733.5920, 1.521947
734.0742, 1.526816
734.5563, 1.273088
735.0384, 0.6488020
735.5205, 0.3699250
736.0026, 0.6964680
736.4847, 1.044409
736.9669, 1.348858
737.4490, 1.544859
737.9311, 1.475460
738.4132, 1.176366
738.8953, 0.9341780
739.3774, 0.8786070
739.8596, 0.9634240
740.3417, 1.202001
740.8238, 1.566998
741.3059, 1.504787
741.7880, 0.7379290
742.2701, 1.9610000E-03
742.7523, 1.9889001E-02
743.2344, 0.7514150
743.7165, 1.391502
744.1986, 2.023875
744.6807, 2.456585
745.1628, 2.837729
745.6450, 2.860414
746.1271, 1.829642
746.6092, 0.2332510
747.0913, 0.4930250
747.5734, 0.5293230
748.0555, 1.953767
748.5377, 2.082623
749.0198, 1.203088
749.5019, 0.2080700
749.9840, 0.8306750
750.4661, 1.235145
750.9482, 0.4086740
751.4304, 1.052334
751.9125, 1.657192
752.3946, 0.8695880
752.8767, 0.4777110
753.3588, 0.7596850
753.8409, 1.095882
754.3231, 1.277848
754.8052, 1.335059
755.2873, 1.264345
755.7694, 1.078476
756.2515, 1.032670
756.7336, 1.578300
757.2158, 2.256614
757.6979, 2.132431
758.1800, 1.346424
758.6621, 0.7912310
759.1442, 0.8407600
759.6263, 1.173550
760.1085, 1.455935
760.5906, 1.687113
761.0727, 1.807594
761.5548, 1.562733
762.0369, 1.594920
762.5190, 2.480903
763.0012, 3.263973
763.4833, 3.017212
763.9654, 1.988653
764.4475, 1.312972
764.9296, 1.684752
765.4117, 2.106827
765.8939, 1.587039
766.3760, 0.6004590
766.8581, 4.4275999E-02
767.3402, 0.2190030
767.8223, 6.5247998E-02
768.3044, 0.8680120
768.7866, 1.845704
769.2687, 2.038349
769.7508, 1.115800
770.2329, 0.6441610
770.7150, 0.9987240
771.1971, 1.339406
771.6793, 1.298733
772.1614, 1.015883
772.6435, 0.5638610
773.1256, 0.1009390
773.6077, 0.4025900
774.0898, 0.3379030
774.5720, 0.2704118
775.0541, 0.3096937
775.5362, 0.2548470
776.0183, 0.1819400
776.5004, 0.1124840
776.9825, 7.7973001E-02
777.4647, 3.8465001E-02
777.9468, 0.3505430
778.4289, 0.2546240
778.9110, 0.3380030
779.3931, 0.8815590
779.8752, 1.288818
780.3574, 1.544836
780.8395, 1.572174
781.3216, 1.417637
781.8037, 1.322828
782.2858, 1.310068
782.7679, 1.339730
783.2501, 1.536553
783.7322, 1.662168
784.2143, 1.295233
784.6964, 0.6994750
785.1785, 0.7203390
785.6606, 1.788752
786.1428, 2.820215
786.6249, 2.034696
787.1070, 2.0151000E-02
787.5891, 0.5695810
788.0712, 0.4996960
788.5533, 1.329253
789.0355, 0.9471950
789.5176, 0.1455600
789.9997, 0.1851520
790.4818, 1.250952
790.9639, 1.995919
791.4460, 2.669338
791.9282, 2.721682
792.4103, 1.324432
792.8924, 0.2400480
793.3745, 0.7473880
793.8566, 0.2236480
794.3387, 0.4365930
794.8209, 0.8723570
795.3030, 1.152057
795.7851, 1.309335
796.2672, 1.370592
796.7493, 1.393743
797.2314, 1.385876
797.7136, 1.290635
798.1957, 1.048807
798.6778, 0.7868680
799.1599, 0.8786840
799.6420, 1.493591
800.1241, 1.714628
800.6063, 1.143078
801.0884, 0.7977720
801.5705, 1.495967
802.0526, 2.499397
802.5347, 2.909542
803.0168, 2.646703
803.4990, 2.182269
803.9811, 1.296821
804.4632, 0.6168900
804.9453, 0.7111240
805.4274, 1.209981
805.9095, 1.404520
806.3917, 1.186445
806.8738, 0.8806040
807.3559, 0.7059130
807.8380, 0.6174400
808.3201, 0.7101140
808.8022, 1.053932
809.2844, 1.464955
809.7665, 1.919385
810.2486, 2.257280
810.7307, 2.352930
811.2128, 2.257495
811.6949, 2.112405
812.1771, 1.792993
812.6592, 1.686934
813.1413, 2.012983
813.6234, 2.306186
814.1055, 2.276975
814.5876, 2.134020
815.0698, 2.242073
815.5519, 2.647153
816.0340, 2.884705
816.5161, 2.367312
816.9982, 1.762236
817.4803, 2.073552
817.9625, 2.916156
818.4446, 3.180470
818.9267, 2.641564
819.4088, 1.985868
819.8909, 1.804645
820.3730, 1.953097
820.8552, 1.855610
821.3373, 1.358863
821.8194, 1.342746
822.3015, 2.231091
822.7836, 3.065360
823.2657, 3.295195
823.7479, 3.063212
824.2300, 2.514774
824.7121, 1.389167
825.1942, 0.9621910
825.6763, 2.278696
826.1584, 3.560879
826.6406, 3.689150
827.1227, 3.183783
827.6048, 2.782505
828.0869, 2.681173
828.5690, 2.799410
829.0511, 3.142794
829.5333, 3.595815
830.0154, 3.932081
830.4975, 4.190189
830.9796, 4.590906
831.4617, 5.172552
831.9438, 5.741493
832.4260, 6.102985
832.9081, 6.308588
833.3902, 6.509662
833.8723, 6.671668
834.3544, 6.893672
834.8365, 7.068680
835.3187, 7.442760
835.8008, 8.520599
836.2829, 9.619746
836.7650, 9.624059
837.2471, 8.393055
837.7292, 7.765223
838.2114, 8.871960
838.6935, 10.18712
839.1756, 10.86079
839.6577, 11.08791
840.1398, 11.07188
840.6219, 10.88493
841.1041, 10.82100
841.5862, 11.10968
842.0683, 11.50393
842.5504, 11.34693
843.0325, 11.65065
843.5146, 11.86048
843.9968, 11.98143
844.4789, 11.74685
844.9610, 11.97153
845.4431, 11.98493
845.9252, 12.01836
846.4073, 12.30807
846.8895, 12.12584
847.3716, 12.41168
847.8537, 12.51080
848.3358, 12.69552
848.8179, 12.69518
849.3000, 12.67754
849.7822, 12.79965
850.2643, 12.92475
850.7464, 12.99698
851.2285, 13.05876
851.7106, 13.27042
852.1927, 13.47977
852.6749, 13.58073
853.1570, 13.52958
853.6391, 13.25818
854.1212, 12.73676
854.6033, 11.99812
855.0854, 10.94229
855.5676, 9.689939
856.0497, 8.919340
856.5318, 8.652982
857.0139, 8.146899
857.4960, 7.021688
857.9781, 6.144378
858.4603, 6.643530
858.9424, 8.325369
859.4245, 8.813290
859.9066, 7.110570
860.3887, 5.904785
860.8708, 5.562534
861.3530, 5.570662
861.8351, 6.052217
862.3172, 6.569781
862.7993, 6.208290
863.2814, 4.614188
863.7635, 3.374114
864.2457, 3.462785
864.7278, 3.864463
865.2099, 3.880877
865.6920, 3.593865
866.1741, 3.055665
866.6563, 2.383576
867.1384, 2.085915
867.6205, 2.689120
868.1026, 3.632943
868.5847, 3.776422
869.0668, 3.245716
869.5490, 2.860755
870.0311, 2.739429
870.5132, 2.655640
870.9953, 2.477703
871.4774, 2.248671
871.9595, 2.037931
872.4417, 1.813560
872.9238, 1.790108
873.4059, 2.150334
873.8880, 2.448191
874.3701, 2.468359
874.8522, 2.372110
875.3344, 2.348837
875.8165, 2.380544
876.2986, 2.204642
876.7807, 1.529305
877.2628, 1.015296
877.7449, 0.7605010
878.2271, 0.8386320
878.7092, 1.702600
879.1913, 2.880056
879.6734, 3.287327
880.1555, 2.559656
880.6376, 1.687534
881.1198, 1.605427
881.6019, 1.997512
882.0840, 2.461375
882.5661, 2.894315
883.0482, 2.726470
883.5303, 1.839076
884.0125, 1.197415
884.4946, 1.709829
884.9767, 2.970693
885.4588, 3.185127
885.9409, 2.156992
886.4230, 1.678919
886.9052, 2.155357
887.3873, 2.539526
887.8694, 2.209520
888.3515, 1.565818
888.8336, 1.262851
889.3157, 1.344417
889.7979, 1.431892
890.2800, 1.683718
890.7621, 1.721566
891.2442, 1.196447
891.7263, 0.6175910
892.2084, 0.3667860
892.6906, 0.4544040
893.1727, 0.8540320
893.6548, 1.722461
894.1369, 2.286830
894.6190, 1.699172
895.1011, 0.7657180
895.5833, 0.5285420
896.0654, 0.7700080
896.5475, 0.6166810
897.0296, 0.1220970
897.5117, 0.6914160
897.9938, 0.2666510
898.4760, 0.7139460
898.9581, 1.075083
899.4402, 0.8613920
899.9223, 0.5386330
900.4044, 0.1729620
900.8865, 0.1030150
901.3687, 0.6340940
901.8508, 1.443790
902.3329, 1.786769
902.8150, 1.571990
903.2971, 1.334487
903.7792, 0.9740900
904.2614, 0.7653000
904.7435, 0.9164160
905.2256, 1.149076
905.7077, 1.224541
906.1898, 1.157875
906.6719, 1.046704
907.1541, 0.7776930
907.6362, 0.6659110
908.1183, 1.049750
908.6004, 1.368764
909.0825, 1.041290
909.5646, 0.4301400
910.0468, 0.2545320
910.5289, 0.6771550
911.0110, 1.077906
911.4931, 0.9785460
911.9752, 0.6975200
912.4573, 0.4802640
912.9395, 0.3753390
913.4216, 0.6029220
913.9037, 1.097606
914.3858, 1.354405
914.8679, 1.066280
915.3500, 0.4872330
915.8321, 8.5330002E-02
916.3142, 0.1495970
916.7963, 0.3360060
917.2784, 0.4851410
917.7606, 0.3739230
918.2427, 0.1386660
918.7248, 0.6855480
919.2069, 0.8759040
919.6890, 0.7484640
920.1711, 0.5781780
920.6533, 0.2206330
921.1354, 0.1908510
921.6175, 0.9239880
922.0996, 1.469176
922.5817, 0.9350290
923.0638, 8.8592000E-02
923.5460, 0.2597150
924.0281, 1.663869
924.5102, 2.318991
924.9923, 1.139902
925.4744, 0.2018630
925.9565, 0.4397230
926.4387, 1.086444
926.9208, 1.529913
927.4029, 1.721773
927.8850, 1.767084
928.3671, 1.688583
928.8492, 1.551495
929.3314, 1.456578
929.8135, 1.281925
930.2956, 0.7585080
930.7777, 0.7381102
931.2598, 0.3995500
931.7419, 0.5597620
932.2241, 0.3239020
932.7062, 0.5164170
933.1883, 0.4091875
933.6704, 0.3546364
934.1525, 0.3416310
934.6346, 0.2356690
935.1168, 0.3297590
935.5989, 0.2590710
936.0810, 0.1723930
936.5631, 4.8978999E-02
937.0452, 0.6243080
937.5273, 1.414420
938.0095, 1.843824
938.4916, 1.874658
938.9737, 1.647043
939.4558, 0.9316940
939.9379, 0.5220060
940.4200, 1.315355
940.9022, 0.5945095
941.3843, 2.506097
941.8664, 8.4619999E-02
942.3485, 0.9687210
942.8306, 0.6274170
943.3127, 1.889340
943.7949, 1.763572
944.2770, 1.187104
944.7591, 0.9485380
945.2412, 1.019991
945.7233, 1.052661
946.2054, 0.9169220
946.6876, 0.8364370
947.1697, 0.8502700
947.6518, 0.9881030
948.1339, 1.531864
948.6160, 2.096437
949.0981, 1.872536
949.5803, 0.8538230
950.0624, 0.2420030
950.5445, 1.080914
951.0266, 2.161484
951.5087, 2.320796
951.9908, 1.877298
952.4730, 1.109123
952.9551, 0.2524510
953.4372, 1.9340999E-02
953.9193, 0.4438410
954.4014, 1.214097
954.8835, 1.885619
955.3657, 2.348027
955.8478, 2.356360
956.3299, 1.937304
956.8120, 1.256383
957.2941, 0.3446550
957.7762, 0.2393180
958.2584, 0.1222130
958.7405, 0.5400420
959.2226, 1.418427
959.7047, 2.607183
960.1868, 2.804409
960.6689, 1.705276
961.1511, 0.8542000
961.6332, 0.7563090
962.1153, 0.8800000
962.5974, 0.6980830
963.0795, 0.3543320
963.5616, 0.5174200
964.0438, 1.737337
964.5259, 2.274747
965.0080, 1.403736
965.4901, 0.7862060
965.9722, 1.392526
966.4543, 2.234109
966.9365, 2.140425
967.4186, 1.218666
967.9007, 0.7395370
968.3828, 1.329667
968.8649, 1.704628
969.3470, 1.325441
969.8292, 0.9123720
970.3113, 1.086621
970.7934, 1.465438
971.2755, 1.226196
971.7576, 0.3055130
972.2397, 7.3775999E-02
972.7219, 1.321660
973.2040, 2.681435
973.6861, 2.742566
974.1682, 2.209696
974.6503, 1.788442
975.1324, 1.532797
975.6146, 1.233305
976.0967, 0.8333400
976.5788, 0.7315210
977.0609, 1.680973
977.5430, 2.846265
978.0251, 3.011951
978.5073, 2.475322
978.9894, 1.833439
979.4715, 1.233891
979.9536, 0.7137250
980.4357, 0.3186470
980.9178, 0.2540440
981.4000, 1.061312
981.8821, 2.375962
982.3642, 2.484394
982.8463, 1.536349
983.3284, 0.9801010
983.8105, 1.173507
984.2927, 1.737915
984.7748, 2.455404
985.2569, 3.129337
985.7390, 3.253692
986.2211, 2.796090
986.7032, 2.426234
987.1854, 2.153741
987.6675, 1.985252
988.1496, 1.976063
988.6317, 1.897413
989.1138, 1.460918
989.5959, 0.7949860
990.0781, 0.4130020
990.5602, 0.3837120
991.0423, 0.4468320
991.5244, 0.5813280
992.0065, 0.8661770
992.4886, 1.642525
992.9708, 2.239333
993.4529, 1.602353
993.9350, 9.3211003E-02
994.4171, 0.7577760
994.8992, 0.4202480
995.3813, 1.333673
995.8635, 1.888780
996.3456, 2.201326
996.8277, 2.032551
997.3098, 1.823736
997.7919, 2.280395
998.2740, 3.365746
998.7562, 3.969737
999.2383, 3.577725
999.7204, 3.098779
1000.203, 2.616578
1000.685, 2.284550
1001.167, 2.177974
1001.649, 2.103872
1002.131, 1.585755
1002.613, 0.6078410
1003.095, 0.1816050
1003.577, 1.360839
1004.059, 2.450908
1004.542, 2.328726
1005.024, 1.819244
1005.506, 1.755972
1005.988, 1.985890
1006.470, 1.940302
1006.952, 1.478788
1007.434, 1.084058
1007.916, 0.9937050
1008.398, 1.214439
1008.881, 2.333409
1009.363, 3.427547
1009.845, 2.572186
1010.327, 0.3821770
1010.809, 0.6373480
1011.291, 0.4479090
1011.773, 2.048382
1012.255, 2.860519
1012.738, 3.065350
1013.220, 2.695954
1013.702, 2.018387
1014.184, 1.812678
1014.666, 1.348512
1015.148, 1.763574
1015.630, 0.5244830
1016.112, 0.6020620
1016.594, 2.7222000E-02
1017.077, 1.468575
1017.559, 1.676358
1018.041, 0.8829210
1018.523, 0.5419800
1019.005, 0.8753140
1019.487, 1.297924
1019.969, 1.491367
1020.451, 1.486454
1020.934, 1.241484
1021.416, 0.8427410
1021.898, 0.8808380
1022.380, 1.336456
1022.862, 1.435362
1023.344, 1.000484
1023.826, 0.6395940
1024.308, 0.7146820
1024.791, 1.178375
1025.273, 2.142521
1025.755, 1.867786
1026.237, 3.545627
1026.719, 1.828023
1027.201, 0.7139760
1027.683, 0.7484710
1028.165, 1.238438
1028.647, 1.840232
1029.130, 2.349042
1029.612, 2.245888
1030.094, 1.428589
1030.576, 1.250676
1031.058, 1.968157
1031.540, 2.316352
1032.022, 1.849044
1032.504, 1.361023
1032.986, 1.456742
1033.469, 1.860955
1033.951, 1.951083
1034.433, 1.682777
1034.915, 1.338276
1035.397, 0.7024520
1035.879, 0.4983380
1036.361, 1.349493
1036.843, 1.955521
1037.326, 1.071028
1037.808, 0.5394890
1038.290, 1.064162
1038.772, 0.2652920
1039.254, 0.5807830
1039.736, 1.657006
1040.218, 2.413989
1040.700, 2.519085
1041.182, 2.519228
1041.665, 2.981209
1042.147, 2.650426
1042.629, 3.372573
1043.111, 2.145964
1043.593, 1.325865
1044.075, 0.9576520
1044.557, 0.9608160
1045.039, 1.861080
1045.521, 2.600623
1046.004, 2.135479
1046.486, 1.072983
1046.968, 0.8201830
1047.450, 1.665465
1047.932, 2.175832
1048.414, 1.862473
1048.896, 1.663086
1049.378, 1.950878
1049.861, 2.311735
1050.343, 2.511497
1050.825, 2.544642
1051.307, 2.368473
1051.789, 1.914494
1052.271, 1.639272
1052.753, 1.933970
1053.235, 2.196437
1053.718, 2.386901
1054.200, 2.357506
1054.682, 1.762018
1055.164, 0.9972320
1055.646, 0.7229480
1056.128, 1.017015
1056.610, 1.322033
1057.092, 1.473797
1057.574, 1.639049
1058.057, 1.982490
1058.539, 2.261365
1059.021, 2.336232
1059.503, 2.192967
1059.985, 1.673503
1060.467, 0.7643800
1060.949, 0.3612280
1061.431, 1.289433
1061.913, 2.065700
1062.396, 1.804971
1062.878, 1.477261
1063.360, 2.159177
1063.842, 3.169705
1064.324, 3.116611
1064.806, 1.865297
1065.288, 0.9569780
1065.770, 1.235888
1066.253, 1.595036
1066.735, 1.634623
1067.217, 1.551165
1067.699, 1.169148
1068.181, 0.8656580
1068.663, 1.360256
1069.145, 2.700219
1069.627, 3.450337
1070.109, 2.668269
1070.592, 1.926169
1071.074, 2.017035
1071.556, 2.325739
1072.038, 2.495222
1072.520, 2.519197
1073.002, 2.444996
1073.484, 2.276951
1073.966, 1.909786
1074.448, 1.189785
1074.931, 0.8025670
1075.413, 1.435967
1075.895, 2.140279
1076.377, 2.173519
1076.859, 1.886160
1077.341, 1.769759
1077.823, 1.857162
1078.305, 1.930502
1078.788, 1.923133
1079.270, 1.870042
1079.752, 1.706810
1080.234, 1.592119
1080.716, 1.718647
1081.198, 1.894491
1081.680, 1.809179
1082.162, 1.554073
1082.644, 1.596986
1083.127, 2.218510
1083.609, 2.456665
1084.091, 1.311150
1084.573, 0.3153610
1085.055, 0.7074780
1085.537, 1.496767
1086.019, 1.597593
1086.501, 1.145514
1086.984, 0.7702720
1087.466, 0.6263820
1087.948, 0.6466830
1088.430, 0.9215360
1088.912, 1.205623
1089.394, 1.477777
1089.876, 1.608522
1090.358, 1.334476
1090.840, 0.8757740
1091.323, 0.6900230
1091.805, 0.8710010
1092.287, 1.118534
1092.769, 1.359604
1093.251, 1.593302
1093.733, 1.993417
1094.215, 2.218201
1094.697, 1.893948
1095.179, 1.258711
1095.662, 0.6064620
1096.144, 1.2286000E-02
1096.626, 0.2995120
1097.108, 0.1087130
1097.590, 0.1978340
1098.072, 0.5491780
1098.554, 0.9387270
1099.036, 1.648854
1099.519, 2.214025
1100.001, 1.801363
1100.483, 0.5756410
1100.965, 0.1465050
1101.447, 8.6804003E-02
1101.929, 0.5152440
1102.411, 1.284228
1102.893, 1.837669
1103.375, 1.758416
1103.858, 1.418725
1104.340, 1.241654
1104.822, 1.196879
1105.304, 1.038936
1105.786, 0.6286470
1106.268, 0.4701810
1106.750, 0.8202250
1107.232, 1.213853
1107.714, 1.513455
1108.197, 1.784044
1108.679, 2.267663
1109.161, 2.711503
1109.643, 2.385482
1110.125, 1.025873
1110.607, 0.3935650
1111.089, 1.658890
1111.571, 2.210520
1112.054, 0.7396640
1112.536, 0.6784450
1113.018, 0.7810610
1113.500, 0.1422930
1113.982, 0.4520100
1114.464, 0.9944570
1114.946, 1.208940
1115.428, 0.7212820
1115.911, 0.5364640
1116.393, 1.023197
1116.875, 1.370907
1117.357, 1.076951
1117.839, 0.6620160
1118.321, 0.7003590
1118.803, 1.120448
1119.285, 1.524565
1119.767, 2.071479
1120.250, 2.160306
1120.732, 1.389740
1121.214, 1.015499
1121.696, 1.656690
1122.178, 2.387599
1122.660, 2.507657
1123.142, 2.110230
1123.624, 1.322812
1124.106, 1.4828000E-02
1124.589, 0.4054700
1125.071, 0.5158910
1125.553, 1.114242
1126.035, 1.022522
1126.517, 0.7071730
1126.999, 0.3798160
1127.481, 0.1229910
1127.963, 7.3109999E-02
1128.446, 0.2180010
1128.928, 0.4477620
1129.410, 0.7865260
1129.892, 0.9711220
1130.374, 0.9519970
1130.856, 0.9316860
1131.338, 0.9903330
1131.820, 1.129629
1132.302, 1.399755
1132.785, 1.655348
1133.267, 1.269512
1133.749, 0.3183370
1134.231, 0.1362800
1134.713, 0.7573650
1135.195, 1.305335
1135.677, 1.535366
1136.159, 1.599429
1136.641, 1.594732
1137.124, 1.566434
1137.606, 1.696086
1138.088, 1.851902
1138.570, 1.352400
1139.052, 0.3954350
1139.534, 2.8372999E-02
1140.016, 0.1787330
1140.498, 0.5503230
1140.981, 0.8600540
1141.463, 0.9690260
1141.945, 0.5023720
1142.427, 2.6323000E-02
1142.909, 0.8114160
1143.391, 2.223682
1143.873, 2.996416
1144.355, 3.074512
1144.838, 2.612832
1145.320, 1.752910
1145.802, 1.005415
1146.284, 0.7226310
1146.766, 0.6466730
1147.248, 0.5188940
1147.730, 0.4512040
1148.212, 0.6889150
1148.694, 1.033070
1149.177, 1.066633
1149.659, 0.8838580
1150.141, 1.019659
1150.623, 1.724538
1151.105, 2.314419
1151.587, 2.511810
1152.069, 2.281169
1152.551, 0.9755470
1153.033, 0.2389360
1153.516, 4.6107002E-02
1153.998, 1.288882
1154.480, 2.362072
1154.962, 3.048953
1155.444, 3.220044
1155.926, 2.490851
1156.408, 1.737878
1156.890, 0.9522380
1157.373, 0.5283910
1157.855, 1.174681
1158.337, 0.5420734
1158.819, 1.602664
1159.301, 0.3562060
1159.783, 0.4295190
1160.265, 0.5667680
1160.747, 0.4445280
1161.229, 0.6132659
1161.712, 0.6750470
1162.194, 0.9014760
1162.676, 1.070603
1163.158, 1.418111
1163.640, 1.737912
1164.122, 1.572529
1164.604, 1.800686
1165.086, 1.811127
1165.568, 1.522304
1166.051, 1.716164
1166.533, 0.8902650
1167.015, 0.5061100
1167.497, 1.281883
1167.979, 2.446602
1168.461, 3.282567
1168.943, 3.774193
1169.425, 3.817548
1169.908, 3.398816
1170.390, 2.983198
1170.872, 2.641141
1171.354, 2.404043
1171.836, 2.288162
1172.318, 1.948807
1172.800, 1.135820
1173.282, 0.4818880
1173.765, 1.070015
1174.247, 2.356360
1174.729, 2.655204
1175.211, 2.247363
1175.693, 2.230086
1176.175, 2.558663
1176.657, 2.321337
1177.139, 1.300162
1177.621, 0.4595970
1178.104, 0.5720990
1178.586, 0.9447290
1179.068, 0.5355680
1179.550, 5.7162002E-02
1180.032, 0.8722700
1180.514, 2.204143
1180.996, 2.541497
1181.478, 1.988812
1181.960, 1.552822
1182.443, 1.577472
1182.925, 1.800906
1183.407, 2.255957
1183.889, 2.533872
1184.371, 2.185914
1184.853, 1.745784
1185.335, 1.627588
1185.817, 1.770063
1186.300, 2.148322
1186.782, 2.681348
1187.264, 2.861713
1187.746, 2.385829
1188.228, 1.976943
1188.710, 1.810817
1189.192, 1.663018
1189.674, 1.413540
1190.156, 1.192067
1190.639, 1.090232
1191.121, 1.092400
1191.603, 1.177416
1192.085, 1.343903
1192.567, 1.659566
1193.049, 2.326558
1193.531, 2.512319
1194.013, 1.968145
1194.495, 1.438874
1194.978, 1.270372
1195.460, 1.086514
1195.942, 0.3816140
1196.424, 1.036762
1196.906, 0.1843380
1197.388, 2.088713
1197.870, 3.274131
1198.352, 3.699538
1198.835, 3.230398
1199.317, 1.926237
1199.799, 1.052132
1200.281, 1.282316
1200.763, 1.641191
1201.245, 0.7364970
1201.727, 1.562155
1202.209, 0.3589910
1202.692, 2.061163
1203.174, 2.478628
1203.656, 1.826049
1204.138, 1.080514
1204.620, 0.5249430
1205.102, 0.1047920
1205.584, 0.2592700
1206.066, 0.2122370
1206.548, 0.9707220
1207.031, 2.130368
1207.513, 2.293733
1207.995, 2.026911
1208.477, 1.729213
1208.959, 1.596066
1209.441, 2.034984
1209.923, 3.065812
1210.405, 3.650490
1210.887, 3.006909
1211.370, 2.733102
1211.852, 3.710558
1212.334, 4.269822
1212.816, 3.332519
1213.298, 2.077309
1213.780, 1.360270
1214.262, 1.104026
1214.744, 1.159609
1215.227, 1.570776
1215.709, 1.803180
1216.191, 1.798525
1216.673, 1.908794
1217.155, 2.251462
1217.637, 2.262542
1218.119, 1.676658
1218.601, 1.016791
1219.083, 0.7932920
1219.566, 0.9324710
1220.048, 1.613585
1220.530, 2.556899
1221.012, 2.123708
1221.494, 0.6799410
1221.976, 9.0880997E-02
1222.458, 0.5595260
1222.940, 1.270166
1223.422, 1.831275
1223.905, 2.047464
1224.387, 1.525396
1224.869, 0.9233330
1225.351, 0.9689300
1225.833, 1.322502
1226.315, 1.904219
1226.797, 2.318516
1227.279, 1.593860
1227.762, 6.8589002E-02
1228.244, 0.4549580
1228.726, 0.8025880
1229.208, 1.719225
1229.690, 1.082089
1230.172, 0.6367810
1230.654, 1.099688
1231.136, 1.832364
1231.619, 2.642808
1232.101, 3.318208
1232.583, 3.615511
1233.065, 3.547651
1233.547, 3.194055
1234.029, 2.431437
1234.511, 1.755387
1234.993, 1.072222
1235.475, 0.9515600
1235.958, 0.7026896
1236.440, 0.7152144
1236.922, 0.7391290
1237.404, 0.7488270
1237.886, 0.7940100
1238.368, 0.8537502
1238.850, 0.9566139
1239.332, 1.060238
1239.814, 1.318211
1240.297, 1.560185
1240.779, 1.979428
1241.261, 2.530977
1241.743, 2.706602
1242.225, 2.224923
1242.707, 1.684042
1243.189, 1.644956
1243.671, 1.753064
1244.154, 1.581238
1244.636, 1.476158
1245.118, 2.018823
1245.600, 2.803174
1246.082, 3.167204
1246.564, 3.058070
1247.046, 2.485836
1247.528, 1.053217
1248.010, 0.2157500
1248.493, 0.6028370
1248.975, 1.056988
1249.457, 1.394994
1249.939, 1.585393
1250.421, 1.538969
1250.903, 1.427394
1251.385, 1.509820
1251.867, 1.425426
1252.349, 1.672834
1252.832, 1.331361
1253.314, 1.086787
1253.796, 0.9483600
1254.278, 1.102617
1254.760, 1.593371
1255.242, 1.970111
1255.724, 1.986465
1256.206, 1.890901
1256.689, 2.040170
1257.171, 2.113506
1257.653, 1.180848
1258.135, 0.1184180
1258.617, 0.3020000
1259.099, 1.272624
1259.581, 2.050960
1260.063, 2.438643
1260.546, 2.512835
1261.028, 2.275599
1261.510, 2.007140
1261.992, 1.693961
1262.474, 1.365870
1262.956, 1.053921
1263.438, 0.8554910
1263.920, 1.023535
1264.402, 1.307484
1264.885, 1.396356
1265.367, 1.345279
1265.849, 1.342604
1266.331, 1.370080
1266.813, 1.613845
1267.295, 2.165110
1267.777, 2.395479
1268.259, 2.159232
1268.741, 2.008974
1269.224, 2.201533
1269.706, 2.283947
1270.188, 1.788470
1270.670, 1.076998
1271.152, 0.8241110
1271.634, 0.8604920
1272.116, 0.7714510
1272.598, 0.6125860
1273.081, 0.7880890
1273.563, 1.167540
1274.045, 1.377815
1274.527, 1.321140
1275.009, 1.138409
1275.491, 0.8143990
1275.973, 0.5703200
1276.455, 0.3849260
1276.938, 0.4652840
1277.420, 1.455908
1277.902, 2.268559
1278.384, 1.444405
1278.866, 3.9910998E-02
1279.348, 6.5603003E-02
1279.830, 1.286776
1280.312, 1.979044
1280.794, 1.839476
1281.276, 1.620437
1281.759, 1.304705
1282.241, 1.163909
1282.723, 1.084005
1283.205, 0.8108670
1283.687, 0.3574800
1284.169, 2.8270001E-03
1284.651, 0.4133880
1285.133, 1.120878
1285.616, 0.7748270
1286.098, 0.0000000E+00
##END=



