##NAMES=Ondrusite
##RRUFFID=R141029
##IDEAL CHEMISTRY=CaCu^2+^_4_(As^5+^O_4_)_2_(As^5+^O_3_OH)_2_&#183;10H_2_O
##LOCALITY=Svornost mine, Jáchymov, Krušné Hory Mts, Karlovy Vary, Bohemia, Czech Republic
##OWNER=RRUFF
##SOURCE=William W. Pinch
##DESCRIPTION=Pale green thin bladed crystals with striations parallel to the elongated direction, associated with quartz
##STATUS=The identification of this mineral has been confirmed by single-crystal X-ray diffraction.
##URL=rruff.info/R141029
93.36774, 0.0000000E+00
93.84985, 2.213501
94.33197, 1.948303
94.81409, 2.452057
95.29620, 2.644699
95.77832, 2.137894
96.26044, 1.181183
96.74255, 0.3622280
97.22467, 0.6668700
97.70679, 1.174606
98.18890, 1.557495
98.67102, 1.884720
99.15314, 1.922363
99.63525, 1.582901
100.1174, 0.8785400
100.5995, 4.2358000E-02
101.0816, 0.2393340
101.5637, 0.8185730
102.0458, 1.535660
102.5280, 1.388794
103.0101, 0.7720490
103.4922, 0.1899720
103.9743, 5.8029000E-02
104.4564, 1.0147000E-02
104.9385, 0.2248840
105.4207, 0.5076600
105.9028, 0.8422550
106.3849, 1.424026
106.8670, 2.199646
107.3491, 2.768463
107.8312, 2.676880
108.3134, 1.949707
108.7955, 1.304611
109.2776, 0.8285370
109.7597, 0.5519260
110.2418, 0.4941410
110.7239, 0.7118840
111.2061, 0.9543000
111.6882, 1.009857
112.1703, 0.8111270
112.6524, 0.6149600
113.1345, 0.5607600
113.6166, 0.5580440
114.0988, 0.6186220
114.5809, 0.8827670
115.0630, 1.150436
115.5451, 1.439133
116.0272, 1.291107
116.5093, 1.131958
116.9915, 1.350845
117.4736, 2.227615
117.9557, 2.646393
118.4378, 2.470993
118.9199, 2.322708
119.4020, 1.991592
119.8842, 1.829056
120.3663, 1.880661
120.8484, 1.958862
121.3305, 2.550858
121.8126, 3.095490
122.2947, 3.423798
122.7769, 3.699432
123.2590, 3.980759
123.7411, 4.326996
124.2232, 4.666031
124.7053, 4.601318
125.1874, 3.867996
125.6696, 3.168884
126.1517, 2.678986
126.6338, 2.425644
127.1159, 2.378036
127.5980, 2.654892
128.0801, 3.090454
128.5623, 3.146774
129.0444, 2.371780
129.5265, 1.535965
130.0086, 1.581512
130.4907, 2.698029
130.9728, 3.599686
131.4550, 3.126434
131.9371, 1.968277
132.4192, 1.023682
132.9013, 0.7088010
133.3834, 0.8557740
133.8655, 0.9875640
134.3477, 1.133255
134.8298, 1.219986
135.3119, 1.282181
135.7940, 1.300171
136.2761, 1.166824
136.7582, 0.6835020
137.2404, 0.1683810
137.7225, 0.4058840
138.2046, 0.9028630
138.6867, 2.001480
139.1688, 2.245728
139.6509, 1.743164
140.1331, 0.9691470
140.6152, 0.3928830
141.0973, 1.9028001E-02
141.5794, 5.5633999E-02
142.0615, 0.5189060
142.5436, 1.061661
143.0258, 1.020264
143.5079, 0.3436280
143.9900, 0.4336400
144.4721, 0.5573430
144.9542, 0.3913730
145.4363, 0.9156950
145.9185, 0.6031040
146.4006, 2.8717000E-02
146.8827, 0.3346250
147.3648, 9.5000997E-02
147.8469, 0.3148040
148.3290, 0.1889800
148.8112, 0.5373380
149.2933, 1.071945
149.7754, 0.9841770
150.2575, 0.4617160
150.7396, 6.6253997E-02
151.2217, 0.1928710
151.7039, 0.3005980
152.1860, 0.5126800
152.6681, 0.8444060
153.1502, 1.162766
153.6323, 1.343887
154.1144, 1.381989
154.5966, 1.458481
155.0787, 1.849701
155.5608, 2.162308
156.0429, 2.003296
156.5250, 1.274643
157.0071, 0.4436040
157.4893, 0.2347110
157.9714, 0.9605560
158.4535, 1.459732
158.9356, 1.381256
159.4177, 1.137375
159.8998, 0.9638060
160.3820, 0.9554140
160.8641, 1.064377
161.3462, 1.187073
161.8283, 1.314636
162.3104, 1.483643
162.7925, 1.782730
163.2747, 2.091049
163.7568, 2.291016
164.2389, 2.326370
164.7210, 2.206009
165.2031, 1.961105
165.6852, 1.245483
166.1674, 0.7884670
166.6495, 0.8457790
167.1316, 1.232239
167.6137, 1.637970
168.0958, 1.893341
168.5779, 2.023041
169.0601, 2.165802
169.5422, 2.386871
170.0243, 2.548904
170.5064, 2.610123
170.9885, 2.570465
171.4706, 2.409943
171.9528, 2.046539
172.4349, 1.570816
172.9170, 1.335739
173.3991, 1.540283
173.8812, 1.817612
174.3633, 1.796021
174.8455, 1.466690
175.3276, 1.333847
175.8097, 1.980225
176.2918, 2.976837
176.7739, 3.548447
177.2560, 3.345901
177.7382, 2.783173
178.2203, 2.415955
178.7024, 2.279877
179.1845, 2.238785
179.6666, 2.349045
180.1487, 2.479462
180.6309, 2.432648
181.1130, 2.046661
181.5951, 1.476425
182.0772, 1.121536
182.5593, 0.9786680
183.0414, 1.094925
183.5236, 1.710205
184.0057, 2.504074
184.4878, 2.990921
184.9699, 2.810776
185.4520, 2.106384
185.9341, 1.798218
186.4163, 2.348206
186.8984, 2.798416
187.3805, 2.904861
187.8626, 2.763168
188.3447, 2.527008
188.8268, 2.265213
189.3090, 1.981842
189.7911, 1.978577
190.2732, 2.725555
190.7553, 3.276825
191.2374, 3.231369
191.7195, 2.774994
192.2017, 2.377945
192.6838, 2.426254
193.1659, 2.952011
193.6480, 3.111145
194.1301, 2.628876
194.6122, 2.127182
195.0944, 1.873779
195.5765, 1.845337
196.0586, 1.874298
196.5407, 1.717072
197.0228, 1.356491
197.5049, 1.158676
197.9871, 1.246201
198.4692, 1.365128
198.9513, 1.336639
199.4334, 1.174149
199.9155, 1.036774
200.3976, 0.9887080
200.8798, 1.044724
201.3619, 1.247696
201.8440, 1.833206
202.3261, 2.404205
202.8082, 2.557495
203.2903, 2.211380
203.7725, 1.819595
204.2546, 1.815552
204.7367, 2.041916
205.2188, 2.077591
205.7009, 1.577408
206.1830, 0.9350740
206.6652, 0.7084350
207.1473, 1.003616
207.6294, 1.406982
208.1115, 1.712234
208.5936, 1.932434
209.0757, 2.061493
209.5579, 2.093124
210.0400, 2.024979
210.5221, 1.802505
211.0042, 1.307053
211.4863, 0.9274750
211.9685, 0.8356480
212.4506, 0.9672240
212.9327, 1.277466
213.4148, 1.842773
213.8969, 2.521774
214.3790, 2.874268
214.8612, 2.808350
215.3433, 2.522705
215.8254, 1.829163
216.3075, 1.063705
216.7896, 0.7568210
217.2717, 1.327454
217.7539, 2.492081
218.2360, 2.925674
218.7181, 1.863647
219.2002, 1.053818
219.6823, 0.9898680
220.1644, 1.406464
220.6466, 1.984528
221.1287, 2.573380
221.6108, 3.109970
222.0929, 3.211990
222.5750, 2.191772
223.0571, 1.476822
223.5393, 1.510971
224.0214, 1.957001
224.5035, 2.328110
224.9856, 2.329636
225.4677, 2.022400
225.9498, 1.790787
226.4320, 1.592682
226.9141, 1.513702
227.3962, 1.656570
227.8783, 1.915466
228.3604, 2.162552
228.8425, 2.336578
229.3247, 2.408997
229.8068, 2.201523
230.2889, 1.133636
230.7710, 0.4606320
231.2531, 0.7326810
231.7352, 1.552078
232.2174, 2.194321
232.6995, 2.250397
233.1816, 1.882095
233.6637, 1.822205
234.1458, 2.466080
234.6279, 2.871460
235.1101, 2.552948
235.5922, 1.831192
236.0743, 1.376297
236.5564, 1.556290
237.0385, 2.145187
237.5206, 2.396790
238.0028, 2.139938
238.4849, 1.900330
238.9670, 1.859406
239.4491, 1.963821
239.9312, 2.124863
240.4133, 2.349808
240.8955, 2.541321
241.3776, 2.452301
241.8597, 1.965302
242.3418, 1.545990
242.8239, 1.438736
243.3060, 1.551651
243.7882, 1.642593
244.2703, 1.634888
244.7524, 1.562759
245.2345, 1.453995
245.7166, 1.275314
246.1987, 1.203293
246.6809, 1.356796
247.1630, 1.691452
247.6451, 2.108795
248.1272, 2.706696
248.6093, 3.188782
249.0914, 3.171753
249.5736, 2.652313
250.0557, 2.086823
250.5378, 1.693237
251.0199, 1.456863
251.5020, 1.308746
251.9841, 1.238068
252.4663, 1.258423
252.9484, 1.473709
253.4305, 1.850830
253.9126, 2.047668
254.3947, 1.672913
254.8768, 0.8808140
255.3590, 0.4556880
255.8411, 0.6899110
256.3232, 1.037979
256.8053, 1.098862
257.2874, 0.9350130
257.7695, 0.7709660
258.2516, 0.6859440
258.7338, 0.6978000
259.2159, 0.9434200
259.6980, 1.655716
260.1801, 2.268036
260.6622, 2.523682
261.1443, 2.473358
261.6265, 2.222702
262.1086, 1.712250
262.5907, 1.032013
263.0728, 0.6143950
263.5549, 0.5618130
264.0370, 0.6335910
264.5192, 0.7387700
265.0013, 0.8827060
265.4834, 1.097015
265.9655, 1.462036
266.4476, 1.867554
266.9297, 1.893753
267.4119, 1.171951
267.8940, 0.6304170
268.3761, 0.7299960
268.8582, 1.110992
269.3403, 1.270416
269.8224, 0.9302060
270.3046, 0.3443910
270.7867, 0.1087950
271.2688, 0.4293980
271.7509, 0.8124540
272.2330, 1.241058
272.7151, 1.627930
273.1973, 1.870575
273.6794, 1.925171
274.1615, 1.871597
274.6436, 1.912567
275.1257, 2.253983
275.6078, 2.258865
276.0900, 1.504562
276.5721, 0.6431430
277.0542, 0.2409520
277.5363, 0.4530180
278.0184, 0.9883420
278.5005, 1.399918
278.9827, 1.743820
279.4648, 1.809982
279.9469, 1.332184
280.4290, 0.8040010
280.9111, 0.6156770
281.3932, 0.8041990
281.8754, 1.066223
282.3575, 0.9456020
282.8396, 0.1583250
283.3217, 0.1722720
283.8038, 0.3326420
284.2859, 0.9179380
284.7681, 1.160965
285.2502, 1.061523
285.7323, 0.8941350
286.2144, 0.9667210
286.6965, 1.364304
287.1786, 1.502365
287.6608, 1.057388
288.1429, 0.6791530
288.6250, 0.7751010
289.1071, 1.195175
289.5892, 1.445663
290.0714, 1.067459
290.5535, 4.5502000E-02
291.0356, 0.4625850
291.5177, 1.9989001E-02
291.9998, 0.5140230
292.4819, 0.8288570
292.9641, 0.9564360
293.4462, 0.9052730
293.9283, 0.6581570
294.4104, 0.2670750
294.8925, 7.9163000E-02
295.3746, 0.4034270
295.8568, 0.5938260
296.3389, 0.3476100
296.8210, 3.0182000E-02
297.3031, 5.1178001E-02
297.7852, 0.5260930
298.2673, 1.431396
298.7495, 1.877823
299.2316, 1.286209
299.7137, 0.9358520
300.1958, 1.051987
300.6779, 1.345749
301.1600, 1.555099
301.6422, 1.587296
302.1243, 1.472855
302.6064, 1.253769
303.0885, 0.7899930
303.5706, 0.4811860
304.0527, 0.4308170
304.5349, 0.4623110
305.0170, 0.4529720
305.4991, 0.3804320
305.9812, 0.2830810
306.4633, 0.2347870
306.9454, 0.2478030
307.4276, 0.2777400
307.9097, 0.3936610
308.3918, 0.4597170
308.8739, 0.4161990
309.3560, 0.2751310
309.8381, 0.1008910
310.3203, 6.1294999E-02
310.8024, 0.2142490
311.2845, 0.2771910
311.7666, 0.2377930
312.2487, 0.1361850
312.7308, 4.3136999E-02
313.2130, 0.2744140
313.6951, 0.5156560
314.1772, 0.7432250
314.6593, 0.9524690
315.1414, 1.104141
315.6235, 1.203506
316.1057, 1.237106
316.5878, 1.211838
317.0699, 1.115158
317.5520, 0.8909150
318.0341, 0.5124050
318.5162, 7.6935001E-02
318.9984, 0.1609190
319.4805, 7.5455002E-02
319.9626, 6.8099998E-02
320.4447, 0.3545840
320.9268, 0.6485900
321.4089, 0.8407440
321.8911, 0.8976290
322.3732, 0.8367310
322.8553, 0.6748960
323.3374, 0.3690800
323.8195, 6.4773999E-02
324.3016, 0.4884800
324.7838, 0.8472290
325.2659, 0.5030060
325.7480, 0.4239200
326.2301, 1.220642
326.7122, 1.120773
327.1943, 5.3055000E-02
327.6765, 0.6311040
328.1586, 0.1441500
328.6407, 0.3837740
329.1228, 0.5804900
329.6049, 0.5109410
330.0870, 0.3978120
330.5692, 0.3876040
331.0513, 0.4678190
331.5334, 0.5434270
332.0155, 0.6345670
332.4976, 0.6969450
332.9797, 0.7127230
333.4619, 0.7007140
333.9440, 0.6669310
334.4261, 0.6144710
334.9082, 0.5829320
335.3904, 0.6690830
335.8725, 0.9478610
336.3546, 1.245575
336.8367, 1.741318
337.3188, 2.130539
337.8009, 2.037292
338.2831, 1.442841
338.7652, 0.7730100
339.2473, 0.6557010
339.7294, 1.406906
340.2115, 1.710526
340.6936, 1.181519
341.1758, 0.6056210
341.6579, 0.3616490
342.1400, 0.4320070
342.6221, 0.6142730
343.1042, 0.7458340
343.5863, 0.8260190
344.0685, 0.9028320
344.5506, 0.9656220
345.0327, 1.034042
345.5148, 1.161560
345.9969, 1.290100
346.4790, 1.304810
346.9612, 1.111664
347.4433, 0.8155210
347.9254, 0.7207950
348.4075, 0.9039610
348.8896, 1.175369
349.3717, 1.696259
349.8539, 2.200943
350.3360, 2.460144
350.8181, 2.406555
351.3002, 2.161057
351.7823, 1.888504
352.2644, 1.586899
352.7466, 1.265945
353.2287, 0.8497770
353.7108, 0.4759060
354.1929, 0.1886290
354.6750, 5.8289999E-03
355.1571, 4.2174999E-02
355.6393, 0.1273800
356.1214, 0.5122680
356.6035, 0.7229460
357.0856, 0.5257420
357.5677, 0.4668730
358.0498, 0.9026640
358.5320, 1.517181
359.0141, 1.766663
359.4962, 1.252441
359.9783, 0.3203890
360.4604, 4.3747000E-02
360.9425, 0.4684600
361.4247, 0.8258510
361.9068, 0.4933170
362.3889, 2.2890000E-03
362.8710, 0.1025850
363.3531, 0.3380430
363.8352, 0.8880000
364.3174, 0.8569030
364.7995, 0.1259310
365.2816, 0.1499630
365.7637, 0.8094790
366.2458, 1.794769
366.7279, 1.907455
367.2101, 1.230133
367.6922, 0.5280760
368.1743, 0.3088840
368.6564, 0.4985350
369.1385, 0.8261410
369.6206, 1.424911
370.1028, 1.898972
370.5849, 1.926712
371.0670, 1.684235
371.5491, 1.484222
372.0312, 1.480438
372.5133, 1.525497
372.9955, 1.348862
373.4776, 0.9140010
373.9597, 0.6277010
374.4418, 0.8029020
374.9239, 1.140259
375.4060, 1.240570
375.8882, 1.026108
376.3703, 0.7634120
376.8524, 0.5484310
377.3345, 0.4203030
377.8166, 0.5519410
378.2987, 1.093246
378.7809, 1.694031
379.2630, 1.957001
379.7451, 1.923737
380.2272, 1.827484
380.7093, 1.777756
381.1914, 1.692032
381.6736, 1.337875
382.1557, 0.6612700
382.6378, 0.2165070
383.1199, 0.6418760
383.6020, 1.684738
384.0841, 2.132462
384.5663, 1.448273
385.0484, 0.6776280
385.5305, 0.4438480
386.0126, 0.6500400
386.4947, 0.8245540
386.9768, 0.7732700
387.4590, 0.5861360
387.9411, 0.4149930
388.4232, 0.1793370
388.9053, 0.1678470
389.3874, 0.6602480
389.8695, 1.300720
390.3517, 1.697937
390.8338, 1.778473
391.3159, 1.660980
391.7980, 1.445374
392.2801, 1.117126
392.7622, 0.8009640
393.2444, 0.3255770
393.7265, 2.0737000E-02
394.2086, 0.1923680
394.6907, 0.6841740
395.1728, 1.089340
395.6549, 1.167496
396.1371, 0.9883120
396.6192, 0.8274840
397.1013, 0.6761930
397.5834, 0.5558320
398.0655, 0.4663540
398.5476, 0.4101560
399.0298, 0.4023280
399.5119, 0.4419860
399.9940, 0.4948430
400.4761, 0.5112610
400.9582, 0.4718480
401.4403, 0.4649050
401.9225, 0.5852360
402.4046, 0.6457520
402.8867, 0.4404450
403.3688, 9.5825002E-02
403.8509, 5.0384998E-02
404.3330, 0.2800140
404.8152, 0.9588930
405.2973, 1.236130
405.7794, 0.7571720
406.2615, 0.3955540
406.7436, 0.3657680
407.2257, 0.4936830
407.7079, 0.6321560
408.1900, 0.7317350
408.6721, 0.7725070
409.1542, 0.6640470
409.6363, 0.3342290
410.1184, 0.2634120
410.6006, 0.8290560
411.0827, 1.372665
411.5648, 1.536362
412.0469, 1.378815
412.5290, 1.165710
413.0111, 1.114304
413.4933, 1.139389
413.9754, 0.8596340
414.4575, 8.1238002E-02
414.9396, 0.4808960
415.4217, 0.3130490
415.9038, 0.2006530
416.3860, 0.6796420
416.8681, 1.073792
417.3502, 1.312103
417.8323, 1.211792
418.3144, 0.8190610
418.7965, 0.6494900
419.2787, 0.9781950
419.7608, 1.331345
420.2429, 1.093277
420.7250, 0.3199460
421.2071, 0.3153840
421.6892, 0.6822510
422.1714, 0.7543950
422.6535, 0.3372800
423.1356, 0.5731200
423.6177, 1.366165
424.0998, 1.549194
424.5819, 1.251892
425.0641, 1.127563
425.5462, 1.281479
426.0283, 1.471405
426.5104, 1.686218
426.9925, 1.852829
427.4746, 1.769241
427.9568, 1.343765
428.4389, 0.8385470
428.9210, 0.6564940
429.4031, 0.9597170
429.8852, 1.153809
430.3673, 1.269257
430.8495, 1.252304
431.3316, 0.9397890
431.8137, 0.4251560
432.2958, 4.7286998E-02
432.7779, 6.1370999E-02
433.2600, 0.4195860
433.7422, 0.7331850
434.2243, 1.043152
434.7064, 1.253601
435.1885, 1.279633
435.6706, 1.232056
436.1527, 1.236435
436.6349, 1.326965
437.1170, 1.434372
437.5991, 1.423752
438.0812, 1.195206
438.5633, 1.217834
439.0454, 1.791626
439.5276, 2.336884
440.0097, 2.686905
440.4918, 2.822601
440.9739, 2.732407
441.4560, 2.347977
441.9381, 1.807327
442.4203, 1.518463
442.9024, 1.560349
443.3845, 1.652527
443.8666, 1.817627
444.3487, 1.934174
444.8308, 1.841156
445.3130, 1.513336
445.7951, 1.226929
446.2772, 1.260284
446.7593, 1.550583
447.2414, 1.803741
447.7235, 2.049835
448.2057, 2.121109
448.6878, 1.672852
449.1699, 0.9434660
449.6520, 0.5272520
450.1341, 0.7918090
450.6162, 1.222717
451.0984, 1.296097
451.5805, 1.072815
452.0626, 0.9975890
452.5447, 1.290390
453.0268, 1.747742
453.5089, 1.962555
453.9911, 1.889130
454.4732, 1.862091
454.9553, 1.994720
455.4374, 2.186493
455.9195, 2.422455
456.4016, 2.663071
456.8838, 2.635269
457.3659, 2.017105
457.8480, 0.8752290
458.3301, 0.4509430
458.8122, 1.450592
459.2943, 2.233002
459.7765, 2.166046
460.2586, 1.673019
460.7407, 1.385330
461.2228, 1.500320
461.7049, 1.760010
462.1870, 1.789978
462.6692, 1.475067
463.1513, 1.262527
463.6334, 1.254181
464.1155, 1.245377
464.5976, 0.9780880
465.0797, 0.6548610
465.5619, 0.8006900
466.0440, 1.858337
466.5261, 3.319244
467.0082, 3.588821
467.4903, 2.092239
467.9724, 0.9724270
468.4546, 1.071671
468.9367, 1.532776
469.4188, 1.770248
469.9009, 1.723145
470.3830, 1.668640
470.8651, 1.884094
471.3473, 2.269638
471.8294, 2.462494
472.3115, 2.422119
472.7936, 2.207855
473.2757, 1.730972
473.7578, 1.203369
474.2400, 1.012436
474.7221, 1.388977
475.2042, 1.831985
475.6863, 1.976852
476.1684, 1.914810
476.6505, 1.953766
477.1327, 2.221771
477.6148, 2.435730
478.0969, 2.132584
478.5790, 1.188126
479.0611, 0.6962130
479.5432, 1.184402
480.0254, 1.750549
480.5075, 1.792007
480.9896, 1.431137
481.4717, 1.119171
481.9538, 1.127350
482.4359, 1.309494
482.9181, 1.233521
483.4002, 0.3733980
483.8823, 4.2739999E-02
484.3644, 0.7342680
484.8465, 1.572250
485.3286, 1.934113
485.8108, 1.788605
486.2929, 1.448486
486.7750, 1.143829
487.2571, 0.8827360
487.7392, 0.7307970
488.2213, 0.7189410
488.7035, 0.7722400
489.1856, 0.8652040
489.6677, 1.003937
490.1498, 1.214211
490.6319, 1.506294
491.1140, 1.791420
491.5962, 1.987808
492.0783, 2.097862
492.5604, 2.134262
493.0425, 2.094536
493.5246, 1.989395
494.0067, 1.780685
494.4889, 1.513939
494.9710, 1.284370
495.4531, 1.073891
495.9352, 0.9522320
496.4173, 1.021446
496.8994, 1.236412
497.3816, 1.464157
497.8637, 1.691849
498.3458, 1.807320
498.8279, 1.577332
499.3100, 0.8765110
499.7921, 0.4783400
500.2743, 0.7115330
500.7564, 1.018585
501.2385, 0.9612960
501.7206, 0.6515880
502.2027, 0.5182040
502.6848, 0.8090060
503.1670, 1.334030
503.6491, 1.513000
504.1312, 1.017258
504.6133, 0.6944660
505.0954, 0.7215580
505.5775, 0.7979510
506.0597, 0.6812130
506.5418, 0.3992080
507.0239, 0.1701580
507.5060, 0.1778640
507.9881, 0.3731230
508.4702, 0.5129470
508.9524, 0.5525360
509.4345, 0.6401980
509.9166, 0.8924410
510.3987, 1.174927
510.8808, 1.401573
511.3629, 1.559654
511.8451, 1.566986
512.3271, 1.154495
512.8093, 0.5496140
513.2914, 0.5159990
513.7735, 1.238541
514.2556, 1.926819
514.7377, 2.060860
515.2198, 1.709633
515.7020, 1.194954
516.1841, 0.2353210
516.6662, 0.4684680
517.1483, 0.4145200
517.6304, 4.1763000E-02
518.1125, 0.2787020
518.5947, 0.1487350
519.0768, 1.8074000E-02
519.5589, 0.3389510
520.0410, 1.209343
520.5231, 1.524651
521.0052, 0.8502880
521.4874, 0.2035830
521.9695, 0.1510850
522.4516, 0.2633970
522.9337, 0.2102740
523.4158, 2.5116000E-02
523.8979, 0.2667770
524.3801, 0.6876070
524.8622, 1.309677
525.3443, 1.673172
525.8264, 1.608429
526.3085, 1.442116
526.7906, 1.283012
527.2728, 1.129631
527.7549, 1.031151
528.2370, 1.063301
528.7191, 1.098793
529.2012, 0.9105150
529.6833, 0.5220790
530.1655, 0.3084870
530.6476, 0.4229740
531.1297, 0.6413880
531.6118, 0.7331470
532.0939, 0.7134400
532.5760, 0.6463700
533.0582, 0.3820880
533.5403, 0.2158890
534.0224, 0.4803850
534.5045, 1.038643
534.9866, 1.494728
535.4688, 1.678848
535.9509, 1.643799
536.4330, 1.463783
536.9151, 1.000893
537.3972, 0.7342220
537.8793, 0.7839660
538.3615, 0.8994520
538.8436, 1.007774
539.3257, 1.065331
539.8078, 0.9791030
540.2899, 0.6764140
540.7720, 0.3110430
541.2542, 0.2640910
541.7363, 0.6346740
542.2184, 0.9896770
542.7005, 1.288918
543.1826, 1.529594
543.6647, 1.774590
544.1469, 1.973427
544.6290, 1.937599
545.1111, 1.354683
545.5932, 0.6429980
546.0753, 0.5249400
546.5574, 0.9784240
547.0396, 1.326698
547.5217, 1.295898
548.0038, 1.071434
548.4859, 0.9300000
548.9680, 0.8797070
549.4501, 0.8117450
549.9323, 0.7074050
550.4144, 0.5788880
550.8965, 0.4070280
551.3786, 0.2134480
551.8607, 7.3601000E-02
552.3428, 2.7145000E-02
552.8250, 5.6999002E-02
553.3071, 0.1136700
553.7892, 0.1133650
554.2713, 0.3051680
554.7534, 0.9541700
555.2355, 1.531105
555.7177, 1.672249
556.1998, 1.480705
556.6819, 1.312187
557.1640, 1.413475
557.6461, 1.588684
558.1282, 1.334404
558.6104, 0.5536800
559.0925, 2.8175000E-02
559.5746, 0.1599500
560.0567, 0.1003110
560.5388, 8.0321997E-02
561.0209, 9.1582999E-02
561.5031, 6.7703001E-02
561.9852, 1.1520000E-03
562.4673, 0.1246800
562.9494, 0.3510280
563.4315, 0.6601720
563.9136, 1.003342
564.3958, 1.395409
564.8779, 1.698990
565.3600, 1.646484
565.8421, 1.037109
566.3242, 0.6850430
566.8063, 0.6942900
567.2885, 0.7941670
567.7706, 0.8602830
568.2527, 0.9179840
568.7348, 1.083496
569.2169, 1.420708
569.6990, 1.760162
570.1812, 1.695374
570.6633, 1.055138
571.1454, 0.6344450
571.6275, 0.6613620
572.1096, 0.7525330
572.5917, 0.6920930
573.0739, 0.5493470
573.5560, 0.5154650
574.0381, 0.7365260
574.5202, 0.9369810
575.0023, 0.8083800
575.4844, 0.4330220
575.9666, 0.1344760
576.4487, 1.0788000E-02
576.9308, 3.3484999E-02
577.4129, 8.0367997E-02
577.8950, 0.3330080
578.3771, 0.4680400
578.8593, 0.3590620
579.3414, 0.2617720
579.8235, 0.2964400
580.3056, 0.4078980
580.7877, 0.4995270
581.2698, 0.5490950
581.7520, 0.6273420
582.2341, 0.8897320
582.7162, 1.403603
583.1984, 1.441254
583.6805, 0.3834000
584.1626, 0.3795620
584.6447, 0.2620320
585.1268, 0.2601470
585.6089, 0.6089020
586.0911, 0.6332240
586.5732, 0.5527570
587.0553, 0.5175930
587.5374, 0.5393220
588.0195, 0.7308200
588.5016, 1.166016
588.9838, 1.431213
589.4659, 1.176926
589.9480, 0.5793840
590.4301, 0.1816410
590.9122, 4.1499999E-03
591.3943, 6.4099999E-04
591.8765, 0.2703930
592.3586, 0.6321950
592.8407, 0.8727570
593.3228, 0.9746020
593.8049, 1.049217
594.2870, 1.191818
594.7692, 1.354385
595.2513, 1.282021
595.7334, 0.6699370
596.2155, 0.3730010
596.6976, 0.7741010
597.1797, 1.237183
597.6619, 1.307816
598.1440, 1.023430
598.6261, 0.7119060
599.1082, 0.5097580
599.5903, 0.4579010
600.0724, 0.7586210
600.5546, 1.414383
601.0367, 1.752579
601.5188, 1.436905
602.0009, 0.8999100
602.4830, 0.6808400
602.9651, 0.7647400
603.4473, 0.9105000
603.9294, 1.179001
604.4115, 1.425346
604.8936, 1.513077
605.3757, 1.501602
605.8578, 1.521408
606.3400, 1.616226
606.8221, 1.634384
607.3042, 1.304283
607.7863, 0.5187910
608.2684, 9.3062997E-02
608.7505, 0.3240970
609.2327, 0.5878680
609.7148, 0.6852260
610.1969, 0.7210310
610.6790, 0.8716580
611.1611, 1.187920
611.6432, 1.447021
612.1254, 1.333153
612.6075, 1.006966
613.0896, 1.077621
613.5717, 1.662231
614.0538, 2.049835
614.5359, 1.713692
615.0181, 0.9168240
615.5002, 0.4405750
615.9823, 0.3269200
616.4644, 0.3812260
616.9465, 0.7314070
617.4286, 1.100899
617.9108, 1.266090
618.3929, 1.235367
618.8750, 1.129250
619.3571, 1.021461
619.8392, 0.9144290
620.3214, 0.7967990
620.8035, 0.6414790
621.2856, 0.5588840
621.7677, 0.7248540
622.2498, 0.8056490
622.7319, 0.5026170
623.2141, 2.2659000E-02
623.6962, 0.3456120
624.1783, 0.2654420
624.6604, 6.1110002E-03
625.1425, 0.3366850
625.6246, 0.6882480
626.1068, 0.7333830
626.5889, 0.3751530
627.0710, 2.5734000E-02
627.5531, 0.1301350
628.0352, 4.8813000E-02
628.5173, 0.2014620
628.9995, 0.3178410
629.4816, 0.4238660
629.9637, 0.5312350
630.4458, 0.6267930
630.9279, 0.6492770
631.4100, 0.6218190
631.8922, 0.7147220
632.3743, 1.144531
632.8564, 1.782829
633.3385, 2.166916
633.8206, 2.291954
634.3027, 2.151466
634.7849, 1.479782
635.2670, 0.7927550
635.7491, 0.5958480
636.2312, 0.8489690
636.7133, 1.155045
637.1954, 1.595787
637.6776, 1.863091
638.1597, 1.496216
638.6418, 0.7760700
639.1239, 0.4544370
639.6060, 0.7766040
640.0881, 1.283081
640.5703, 1.398293
641.0524, 1.088127
641.5345, 0.8011320
642.0166, 0.2935790
642.4987, 0.1022720
642.9808, 0.6543120
643.4630, 1.379341
643.9451, 1.692528
644.4272, 1.506027
644.9093, 1.191994
645.3914, 1.021790
645.8735, 0.9402920
646.3557, 0.8217470
646.8378, 0.6599960
647.3199, 0.4383090
647.8020, 8.3221003E-02
648.2841, 0.2364200
648.7662, 0.2100520
649.2484, 0.2375870
649.7305, 0.6069180
650.2126, 0.8812870
650.6947, 1.035034
651.1768, 1.006111
651.6589, 0.8606110
652.1411, 0.6849370
652.6232, 0.5164870
653.1053, 0.4014660
653.5874, 0.3912810
654.0695, 0.4811780
654.5516, 0.6715770
655.0338, 1.087013
655.5159, 1.354446
655.9980, 1.187103
656.4801, 0.8445890
656.9622, 0.5890880
657.4443, 0.4476470
657.9265, 0.3546980
658.4086, 0.2207490
658.8907, 0.1635820
659.3728, 0.4617390
659.8549, 0.9905010
660.3370, 1.168953
660.8192, 0.7043080
661.3013, 1.0216000E-02
661.7834, 0.1546860
662.2655, 0.4240720
662.7476, 0.7245940
663.2297, 0.4672620
663.7119, 0.2364200
664.1940, 0.1665500
664.6761, 0.2453310
665.1582, 0.5128780
665.6403, 0.9802090
666.1224, 1.357574
666.6046, 1.353317
667.0867, 1.099045
667.5688, 0.8094180
668.0509, 0.4980930
668.5330, 0.5940320
669.0151, 1.500862
669.4973, 2.655312
669.9794, 2.883720
670.4615, 1.721130
670.9436, 0.8746870
671.4257, 0.4149860
671.9078, 0.2313310
672.3900, 0.4675060
672.8721, 0.9024730
673.3542, 1.105034
673.8363, 0.9395750
674.3184, 0.6684720
674.8005, 0.5941470
675.2827, 0.6959080
675.7648, 0.7523350
676.2469, 0.7405170
676.7290, 0.7410960
677.2111, 0.8319170
677.6932, 0.9311220
678.1754, 0.8729630
678.6575, 0.6125030
679.1396, 0.4455870
679.6217, 0.4155650
680.1038, 0.5251160
680.5859, 0.9552380
681.0681, 1.499695
681.5502, 1.642120
682.0323, 1.223259
682.5144, 0.6538390
682.9965, 0.5084300
683.4786, 0.8097990
683.9608, 1.076958
684.4429, 1.366821
684.9250, 1.511497
685.4071, 1.310295
685.8892, 1.017120
686.3713, 0.9261320
686.8535, 1.080559
687.3356, 1.086479
687.8177, 0.5235520
688.2998, 8.3572000E-02
688.7819, 0.1199800
689.2640, 0.2792280
689.7462, 0.6085130
690.2283, 0.6712880
690.7104, 0.6114040
691.1925, 0.6265410
691.6746, 0.7222600
692.1567, 0.8671420
692.6389, 1.197235
693.1210, 1.385803
693.6031, 1.228897
694.0852, 0.9693370
694.5673, 0.8308410
695.0494, 0.8355560
695.5316, 0.8307040
696.0137, 0.6067050
696.4958, 0.4011540
696.9779, 0.6727980
697.4600, 1.286247
697.9421, 1.578766
698.4243, 1.301308
698.9064, 0.7702330
699.3885, 0.3488920
699.8706, 3.2990001E-02
700.3527, 0.1316220
700.8348, 0.1387860
701.3170, 1.5640000E-02
701.7991, 0.6252290
702.2812, 1.203751
702.7633, 1.192390
703.2454, 0.6225590
703.7275, 0.1070020
704.2097, 5.8814999E-02
704.6918, 0.2563480
705.1739, 0.4578320
705.6560, 0.6486280
706.1381, 0.6714170
706.6202, 0.4679490
707.1024, 0.3429490
707.5845, 0.6303020
708.0666, 1.305061
708.5487, 1.711723
709.0308, 1.877670
709.5129, 1.766869
709.9951, 0.9752430
710.4772, 0.2024920
710.9593, 0.1099240
711.4414, 0.6240460
711.9235, 1.207207
712.4056, 1.606934
712.8878, 1.806458
713.3699, 1.692978
713.8520, 1.318375
714.3341, 1.067459
714.8162, 1.035286
715.2983, 1.047966
715.7805, 0.9351040
716.2626, 0.7140730
716.7447, 0.6133960
717.2268, 0.7306980
717.7089, 0.8310930
718.1910, 0.9061510
718.6732, 0.9493260
719.1553, 0.9209370
719.6374, 0.8494190
720.1195, 0.8452380
720.6016, 0.9433590
721.0837, 1.055275
721.5659, 1.031052
722.0480, 0.9071350
722.5301, 0.9194950
723.0122, 1.121727
723.4943, 1.273857
723.9764, 1.229240
724.4586, 1.044456
724.9407, 0.8736650
725.4228, 0.7050700
725.9049, 0.5880740
726.3870, 0.4600070
726.8691, 0.4545900
727.3513, 0.8180470
727.8334, 1.299202
728.3155, 1.463982
728.7976, 1.177460
729.2797, 0.7167430
729.7618, 0.2083360
730.2440, 0.2322080
730.7261, 3.3172999E-02
731.2082, 0.8792420
731.6903, 1.466827
732.1724, 1.193054
732.6545, 0.5871660
733.1367, 0.4281770
733.6188, 0.8283080
734.1009, 1.064529
734.5830, 1.036125
735.0651, 0.9677510
735.5472, 0.9331130
736.0294, 0.8998870
736.5115, 0.8215480
736.9936, 0.6956020
737.4757, 0.5503390
737.9578, 0.3566060
738.4399, 0.2070390
738.9221, 0.3604130
739.4042, 0.7886890
739.8863, 1.074867
740.3684, 1.109566
740.8505, 0.9955520
741.3326, 0.7750240
741.8148, 0.4711530
742.2969, 0.3702320
742.7790, 0.7169950
743.2611, 0.9070510
743.7432, 0.7463460
744.2253, 0.5126500
744.7075, 0.3893810
745.1896, 0.3740690
745.6717, 0.3968730
746.1538, 0.4164960
746.6359, 0.4589000
747.1180, 0.6174160
747.6002, 0.8214570
748.0823, 0.8405150
748.5644, 0.6438980
749.0465, 0.3291780
749.5286, 0.1290360
750.0107, 0.5461650
750.4929, 0.4597930
750.9750, 0.4321590
751.4571, 1.086830
751.9392, 1.570564
752.4213, 1.764030
752.9034, 1.403275
753.3856, 0.8230740
753.8677, 0.4560930
754.3498, 0.4016110
754.8319, 0.4803850
755.3140, 0.6069110
755.7961, 0.7547230
756.2783, 0.9376910
756.7604, 1.121384
757.2425, 1.054008
757.7246, 0.6217650
758.2067, 0.2071530
758.6888, 0.3308560
759.1710, 0.9962620
759.6531, 1.250465
760.1352, 0.7609940
760.6173, 0.3433150
761.0994, 1.5815999E-02
761.5815, 0.1270600
762.0637, 0.1417850
762.5458, 0.6824040
763.0279, 0.9968950
763.5100, 0.8211980
763.9921, 0.4886320
764.4742, 0.1403050
764.9564, 0.1286770
765.4385, 7.6880999E-02
765.9206, 0.2837450
766.4027, 0.6729510
766.8848, 0.9214320
767.3669, 1.047165
767.8491, 1.080421
768.3312, 0.9966890
768.8133, 0.8954320
769.2954, 0.7593690
769.7775, 0.6436690
770.2596, 0.6232760
770.7418, 0.6110760
771.2239, 0.4644090
771.7060, 0.1496280
772.1881, 9.8357998E-02
772.6702, 0.2855910
773.1523, 0.2862320
773.6345, 0.2018430
774.1166, 0.9075780
774.5987, 1.281647
775.0808, 1.181602
775.5629, 0.8693620
776.0450, 0.5632780
776.5272, 0.2879710
777.0093, 0.1877670
777.4914, 0.3011860
777.9735, 0.3782040
778.4556, 0.3379670
778.9377, 0.2841490
779.4199, 0.3537290
779.9020, 0.4982990
780.3841, 0.4759670
780.8662, 9.1286004E-02
781.3483, 0.1834490
781.8304, 0.1919330
782.3126, 8.6441003E-02
782.7947, 6.3102998E-02
783.2768, 0.2106170
783.7589, 0.2660520
784.2410, 0.1833270
784.7231, 0.1079860
785.2053, 0.2791980
785.6874, 0.6116180
786.1695, 0.7432630
786.6516, 0.6468120
787.1337, 0.5710370
787.6158, 0.6382600
788.0980, 0.7262650
788.5801, 0.7010730
789.0622, 0.5333250
789.5443, 0.4287950
790.0264, 0.4310460
790.5085, 0.4386140
790.9907, 0.3915100
791.4728, 0.3719790
791.9549, 0.4974370
792.4370, 0.7335890
792.9191, 0.8915100
793.4012, 0.8394620
793.8834, 0.7313610
794.3655, 0.7634200
794.8476, 0.8388290
795.3297, 0.6934280
795.8118, 0.3206940
796.2939, 2.1919001E-02
796.7761, 2.3800000E-03
797.2582, 0.1632080
797.7403, 0.3454210
798.2224, 0.5930940
798.7045, 0.6331100
799.1866, 0.2881090
799.6688, 3.1590001E-03
800.1509, 7.2685003E-02
800.6330, 0.2712710
801.1151, 0.3023990
801.5972, 0.1312330
802.0793, 4.5150999E-02
802.5615, 0.2472530
803.0436, 0.4320220
803.5257, 0.3381200
804.0078, 0.1377790
804.4899, 0.1245270
804.9720, 0.3245540
805.4542, 0.4965360
805.9363, 0.4179080
806.4184, 0.2461170
806.9005, 0.4233170
807.3826, 0.9107280
807.8647, 1.035423
808.3469, 0.6504060
808.8290, 0.2683330
809.3111, 0.1725310
809.7932, 0.3060000
810.2753, 0.5108110
810.7574, 0.9059140
811.2396, 1.126564
811.7217, 1.036537
812.2038, 0.9285200
812.6859, 0.9747540
813.1680, 1.056107
813.6501, 0.9406280
814.1323, 0.6038510
814.6144, 0.4122090
815.0965, 0.7701570
815.5786, 1.250633
816.0607, 1.328285
816.5428, 1.127922
817.0250, 0.9624330
817.5071, 0.9084090
817.9892, 0.9404910
818.4713, 1.060234
818.9534, 1.199684
819.4355, 1.059761
819.9177, 0.5494610
820.3998, 0.3001940
820.8819, 0.5484920
821.3640, 0.7744900
821.8461, 0.5549700
822.3282, 0.1367030
822.8104, 5.4469998E-03
823.2925, 0.2472080
823.7746, 0.5525130
824.2567, 0.9164660
824.7388, 1.258774
825.2209, 1.626953
825.7031, 1.903381
826.1852, 1.857765
826.6673, 1.490952
827.1494, 1.119499
827.6315, 0.9676670
828.1136, 0.9774630
828.5958, 1.099945
829.0779, 1.304420
829.5600, 1.426476
830.0421, 1.425819
830.5242, 1.434113
831.0063, 1.573265
831.4885, 1.807030
831.9706, 1.947037
832.4527, 1.963089
832.9348, 1.960815
833.4169, 1.999992
833.8990, 1.941475
834.3812, 1.544846
834.8633, 1.124939
835.3454, 1.136917
835.8275, 1.626289
836.3096, 2.047035
836.7917, 2.160500
837.2739, 2.216713
837.7560, 2.386658
838.2381, 2.589371
838.7202, 2.733536
839.2023, 2.778305
839.6844, 2.685684
840.1666, 2.407272
840.6487, 2.062607
841.1308, 1.843163
841.6129, 1.741882
842.0950, 1.751846
842.5771, 1.880295
843.0593, 2.006973
843.5414, 2.052605
844.0235, 2.085548
844.5056, 2.247467
844.9877, 2.580940
845.4698, 2.827713
845.9520, 2.989922
846.4341, 3.059914
846.9162, 3.026764
847.3983, 2.912941
847.8804, 2.670380
848.3625, 2.346176
848.8447, 2.156631
849.3268, 2.226967
849.8089, 2.362549
850.2910, 2.396408
850.7731, 2.474182
851.2552, 2.885185
851.7374, 3.505127
852.2195, 3.903564
852.7016, 3.881920
853.1837, 3.647736
853.6658, 3.434799
854.1479, 3.241997
854.6301, 3.009186
855.1122, 2.736130
855.5943, 2.603554
856.0764, 2.690269
856.5585, 2.881721
857.0406, 3.093262
857.5228, 3.306335
858.0049, 3.287567
858.4870, 2.686676
858.9691, 2.453545
859.4512, 3.154556
859.9333, 3.756325
860.4155, 3.491364
860.8976, 2.769386
861.3797, 2.381523
861.8618, 2.520836
862.3439, 2.679428
862.8260, 2.525429
863.3082, 2.366219
863.7903, 2.555626
864.2724, 2.862129
864.7545, 2.815430
865.2366, 2.361290
865.7188, 1.899437
866.2009, 1.732063
866.6830, 1.755516
867.1651, 1.817085
867.6472, 1.910034
868.1293, 1.887070
868.6115, 1.713081
869.0936, 1.609154
869.5757, 1.723854
870.0578, 1.958237
870.5399, 2.055511
871.0220, 1.997612
871.5042, 1.996864
871.9863, 2.168396
872.4684, 2.213120
872.9505, 1.987381
873.4326, 1.636749
873.9147, 1.162727
874.3969, 0.6297680
874.8790, 0.4209210
875.3611, 0.9400180
875.8432, 1.323837
876.3253, 1.118996
876.8074, 0.7824860
877.2896, 0.6965940
877.7717, 0.8198780
878.2538, 0.9927060
878.7359, 1.154045
879.2180, 1.225983
879.7001, 1.103004
880.1823, 0.8574140
880.6644, 0.5032810
881.1465, 0.1304240
881.6286, 0.2258220
882.1107, 0.8969190
882.5928, 1.436172
883.0750, 1.166092
883.5571, 0.3956220
884.0392, 0.2565310
884.5213, 0.9114460
885.0034, 1.223518
885.4855, 0.9395980
885.9677, 0.6779860
886.4498, 0.8107830
886.9319, 1.112564
887.4140, 1.179298
887.8961, 0.9638750
888.3782, 0.8292770
888.8604, 0.8945540
889.3425, 0.9021840
889.8246, 0.6813430
890.3067, 0.4546740
890.7888, 0.4993290
891.2709, 0.7170100
891.7531, 0.7160420
892.2352, 0.2668230
892.7173, 0.1094130
893.1994, 4.1466001E-02
893.6815, 0.3852690
894.1636, 0.5605010
894.6458, 0.5848310
895.1279, 0.5582200
895.6100, 0.5216900
896.0921, 0.5338520
896.5742, 0.7085420
897.0563, 0.9177700
897.5385, 0.6909100
898.0206, 8.6189002E-02
898.5027, 2.7802000E-02
898.9848, 0.5551830
899.4669, 1.004753
899.9490, 0.7092290
900.4312, 7.5591996E-02
900.9133, 9.5146000E-02
901.3954, 1.015358
901.8775, 1.431976
902.3596, 1.092438
902.8417, 0.6791150
903.3239, 0.3197940
903.8060, 5.6496002E-02
904.2881, 7.8247003E-02
904.7702, 9.5306002E-02
905.2523, 6.8222001E-02
905.7344, 5.5511001E-02
906.2166, 1.1856000E-02
906.6987, 0.3106690
907.1808, 0.5784450
907.6629, 0.5367740
908.1450, 0.3550190
908.6271, 0.4145660
909.1093, 0.8061070
909.5914, 1.085899
910.0735, 0.8923570
910.5556, 0.5180590
911.0377, 0.1714860
911.5198, 7.3532000E-02
912.0020, 3.0290000E-03
912.4841, 0.3623810
912.9662, 0.7438430
913.4483, 0.9787980
913.9304, 1.047684
914.4125, 0.8242870
914.8947, 0.3669660
915.3768, 0.1946030
915.8589, 0.3448560
916.3410, 0.3530350
916.8231, 7.3090000E-03
917.3052, 0.3132550
917.7874, 1.3504000E-02
918.2695, 0.7853010
918.7516, 0.9827350
919.2337, 0.1730880
919.7158, 0.2522510
920.1979, 0.1264500
920.6801, 0.5383000
921.1622, 0.4351650
921.6443, 0.1471180
922.1264, 0.2728580
922.6085, 0.9264070
923.0906, 1.275269
923.5728, 1.035789
924.0549, 0.6830670
924.5370, 0.2217410
925.0191, 0.1425320
925.5012, 0.1163020
925.9833, 0.1787410
926.4655, 0.2870330
926.9476, 3.3553999E-02
927.4297, 0.2403340
927.9118, 0.1937030
928.3939, 0.7609560
928.8760, 0.9961850
929.3582, 0.9417190
929.8403, 0.6760100
930.3224, 0.2741930
930.8045, 2.7184000E-02
931.2866, 0.2167590
931.7687, 0.6021270
932.2509, 0.7172010
932.7330, 0.6243360
933.2151, 0.6408620
933.6972, 0.7939680
934.1793, 0.8441620
934.6614, 0.6642680
935.1436, 0.3910370
935.6257, 0.2156600
936.1078, 0.1358030
936.5899, 0.1028900
937.0720, 0.1045460
937.5541, 0.2232820
938.0363, 0.5608830
938.5184, 0.8382570
939.0005, 0.8265300
939.4826, 0.6148910
939.9647, 0.4433140
940.4468, 0.2844010
940.9290, 0.2424550
941.4111, 0.3328930
941.8932, 0.5150070
942.3753, 1.003990
942.8574, 1.408478
943.3395, 1.228928
943.8217, 0.5949550
944.3038, 0.2153850
944.7859, 0.3422930
945.2680, 0.5566180
945.7501, 0.8122480
946.2322, 1.002548
946.7144, 1.053322
947.1965, 0.9789510
947.6786, 0.7109910
948.1607, 0.2914510
948.6428, 0.1185610
949.1249, 0.5911410
949.6071, 1.233025
950.0892, 1.716110
950.5713, 1.956406
951.0534, 1.665260
951.5355, 0.9712370
952.0176, 0.4149930
952.4998, 0.2402110
952.9819, 0.3273390
953.4640, 0.6317290
953.9461, 1.053261
954.4282, 1.322235
954.9103, 1.432983
955.3925, 1.287178
955.8746, 0.8584210
956.3567, 0.4389720
956.8388, 0.2266690
957.3209, 0.1763990
957.8030, 0.1993100
958.2852, 0.2964250
958.7673, 0.4915390
959.2494, 0.8687900
959.7315, 0.9818880
960.2136, 0.5956420
960.6957, 0.1017990
961.1779, 0.1310880
961.6600, 0.1488720
962.1421, 0.1975400
962.6242, 0.3993840
963.1063, 0.3782120
963.5884, 0.1006550
964.0706, 0.5146180
964.5527, 0.6912160
965.0348, 0.6875760
965.5169, 0.4686660
965.9990, 6.8953998E-02
966.4811, 9.3200997E-02
966.9633, 0.2563710
967.4454, 0.5421750
967.9275, 0.6462400
968.4096, 0.6344600
968.8917, 0.4458310
969.3738, 0.2126160
969.8560, 0.1849900
970.3381, 0.4002000
970.8202, 0.5796280
971.3023, 0.5655980
971.7844, 0.5034030
972.2665, 0.4240040
972.7487, 0.3935390
973.2308, 0.5616070
973.7129, 0.8454670
974.1950, 0.9857330
974.6771, 0.8808820
975.1592, 0.6930010
975.6414, 0.5478820
976.1235, 0.4871900
976.6056, 0.6381150
977.0877, 0.9222950
977.5698, 1.174522
978.0519, 1.382149
978.5341, 1.463295
979.0162, 1.371147
979.4983, 1.196236
979.9804, 1.076149
980.4625, 0.9881970
980.9446, 0.7962800
981.4268, 0.5231930
981.9089, 0.4390790
982.3910, 0.6158140
982.8731, 0.8227010
983.3552, 0.9142610
983.8373, 0.8743130
984.3195, 0.5259550
984.8016, 0.1697850
985.2837, 0.3468020
985.7658, 0.1611250
986.2479, 0.5797040
986.7300, 0.6209790
987.2122, 0.5764310
987.6943, 0.8044510
988.1764, 1.211411
988.6585, 1.249878
989.1406, 0.6926800
989.6227, 0.4474330
990.1049, 0.6976700
990.5870, 0.9969710
991.0691, 1.226204
991.5512, 1.359169
992.0333, 1.349953
992.5154, 1.203209
992.9976, 0.9972690
993.4797, 0.6205520
993.9618, 0.3532180
994.4439, 0.2322540
994.9260, 0.1989590
995.4081, 0.2743840
995.8903, 0.3952410
996.3724, 0.4774930
996.8545, 0.5155330
997.3366, 0.5523990
997.8187, 0.5843050
998.3008, 0.6325380
998.7830, 0.7991100
999.2651, 0.8927080
999.7472, 0.6863250
1000.229, 0.3428500
1000.711, 0.1393590
1001.194, 0.1310420
1001.676, 0.2224430
1002.158, 0.4587940
1002.640, 0.6791690
1003.122, 0.8031770
1003.604, 0.8544920
1004.086, 0.8076400
1004.568, 0.7219090
1005.050, 0.7312770
1005.533, 0.8761220
1006.015, 1.032921
1006.497, 1.192894
1006.979, 1.251808
1007.461, 0.9785160
1007.943, 0.6056440
1008.425, 0.5338210
1008.907, 0.7236790
1009.390, 0.8289490
1009.872, 0.7015380
1010.354, 0.6725690
1010.836, 1.376663
1011.318, 2.179573
1011.800, 1.779884
1012.282, 0.6984940
1012.764, 0.2848660
1013.246, 0.6503140
1013.729, 1.057701
1014.211, 1.120087
1014.693, 1.013042
1015.175, 0.9236910
1015.657, 0.8600350
1016.139, 0.8360480
1016.621, 0.8576350
1017.103, 1.010746
1017.586, 1.289841
1018.068, 1.396168
1018.550, 1.128666
1019.032, 0.7132070
1019.514, 0.5874940
1019.996, 0.6938510
1020.478, 0.5915180
1020.960, 0.3009380
1021.442, 0.1250000
1021.925, 9.8247997E-02
1022.407, 0.2391430
1022.889, 0.5997700
1023.371, 0.9897840
1023.853, 0.9809720
1024.335, 0.5617940
1024.817, 0.3268390
1025.299, 0.2779770
1025.781, 0.3181460
1026.264, 0.4379460
1026.746, 0.5937390
1027.228, 0.7775690
1027.710, 0.9251250
1028.192, 0.8467060
1028.674, 0.4858630
1029.156, 0.3829880
1029.638, 0.6445620
1030.120, 0.7907600
1030.603, 0.6409450
1031.085, 0.4843560
1031.567, 0.5629230
1032.049, 0.7833560
1032.531, 0.9069940
1033.013, 0.9360920
1033.495, 0.8406490
1033.977, 0.4896660
1034.460, 0.3320010
1034.942, 0.5112340
1035.424, 0.7997780
1035.906, 1.115604
1036.388, 1.399818
1036.870, 1.460556
1037.352, 1.204098
1037.834, 1.053616
1038.317, 1.074654
1038.799, 1.144974
1039.281, 1.268223
1039.763, 1.293705
1040.245, 1.021774
1040.727, 0.5799030
1041.209, 0.3277780
1041.691, 0.3184740
1042.173, 0.3321500
1042.656, 0.4439890
1043.138, 0.4414100
1043.620, 0.1246530
1044.102, 0.1460720
1044.584, 2.1121999E-02
1045.066, 0.4399530
1045.548, 0.5931470
1046.030, 0.3382150
1046.512, 0.2500530
1046.995, 0.6703000
1047.477, 0.8930590
1047.959, 0.4793050
1048.441, 3.8109999E-03
1048.923, 3.7365001E-02
1049.405, 0.2084580
1049.887, 0.3258020
1050.369, 0.2212910
1050.852, 0.2251510
1051.334, 0.5068740
1051.816, 0.7657320
1052.298, 0.9665570
1052.780, 1.045033
1053.262, 0.8240620
1053.744, 0.4764480
1054.226, 0.4257770
1054.708, 0.8018340
1055.191, 1.036167
1055.673, 0.8181460
1056.155, 0.6036260
1056.637, 0.5493770
1057.119, 0.5813940
1057.601, 0.6973950
1058.083, 0.8286250
1058.565, 0.8238140
1059.047, 0.6525540
1059.530, 0.5677490
1060.012, 0.7948230
1060.494, 0.9712980
1060.976, 0.9172210
1061.458, 0.7722090
1061.940, 0.6251870
1062.422, 0.4853520
1062.904, 0.3031540
1063.387, 7.2898999E-02
1063.869, 3.6079001E-02
1064.351, 0.4993740
1064.833, 0.8929630
1065.315, 0.9378400
1065.797, 0.8316350
1066.279, 0.6244620
1066.761, 0.4401210
1067.244, 0.5049290
1067.726, 0.8390010
1068.208, 1.113838
1068.690, 1.216240
1069.172, 1.207951
1069.654, 1.016426
1070.136, 0.8212130
1070.618, 0.7727810
1071.100, 0.8219530
1071.583, 0.8929630
1072.065, 0.9615330
1072.547, 0.9665600
1073.029, 0.8125110
1073.511, 0.7129250
1073.993, 0.8801380
1074.475, 1.029728
1074.957, 0.8528330
1075.439, 0.5619620
1075.922, 0.5197910
1076.404, 0.7265280
1076.886, 0.8365630
1077.368, 0.6491090
1077.850, 0.5201340
1078.332, 0.7249720
1078.814, 0.9633870
1079.297, 1.038574
1079.779, 1.000881
1080.261, 0.8923300
1080.743, 0.7506370
1081.225, 0.6745910
1081.707, 0.7130580
1082.189, 0.7645530
1082.671, 0.8511280
1083.153, 0.8599400
1083.635, 0.6269610
1084.118, 0.3487850
1084.600, 0.2718350
1085.082, 0.3703380
1085.564, 0.4457470
1086.046, 0.4355960
1086.528, 0.4363440
1087.010, 0.4610980
1087.492, 0.5414050
1087.975, 0.7701800
1088.457, 1.000835
1088.939, 1.114471
1089.421, 1.100540
1089.903, 0.9589420
1090.385, 0.6828420
1090.867, 0.3734510
1091.349, 8.0752999E-02
1091.832, 0.3657300
1092.314, 0.2567860
1092.796, 1.0704000E-02
1093.278, 0.3206750
1093.760, 0.6016160
1094.242, 0.7965090
1094.724, 0.8915250
1095.206, 0.7595900
1095.688, 2.8873000E-02
1096.171, 0.5155070
1096.653, 0.1426700
1097.135, 0.4120640
1097.617, 0.7476580
1098.099, 0.9244420
1098.581, 1.085766
1099.063, 1.240360
1099.545, 1.297256
1100.027, 1.197166
1100.510, 1.061966
1100.992, 0.8926810
1101.474, 0.7264330
1101.956, 0.5238230
1102.438, 0.3838770
1102.920, 0.4344290
1103.402, 0.6323130
1103.884, 0.7536810
1104.367, 0.7537880
1104.849, 0.7049520
1105.331, 0.4719960
1105.813, 0.3748970
1106.295, 0.7030720
1106.777, 1.076389
1107.259, 1.126587
1107.741, 0.9440190
1108.224, 0.8211060
1108.706, 0.7766340
1109.188, 0.8145370
1109.670, 1.085552
1110.152, 1.227955
1110.634, 1.154011
1111.116, 0.9318080
1111.598, 0.4184340
1112.080, 0.1420970
1112.563, 0.2347300
1113.045, 0.2121050
1113.527, 0.5102160
1114.009, 0.6272130
1114.491, 0.6481480
1114.973, 0.5476720
1115.455, 0.3927540
1115.937, 9.5477998E-02
1116.419, 0.1325380
1116.902, 6.2977001E-02
1117.384, 0.6271480
1117.866, 0.8806500
1118.348, 0.6602060
1118.830, 0.5037570
1119.312, 0.4190290
1119.794, 0.4244310
1120.276, 0.5804250
1120.759, 0.7393840
1121.241, 0.7461130
1121.723, 0.6539760
1122.205, 0.6707530
1122.687, 0.8550830
1123.169, 0.8395580
1123.651, 0.5329630
1124.133, 0.3227230
1124.615, 0.2958220
1125.098, 0.4224090
1125.580, 0.7327690
1126.062, 1.081821
1126.544, 1.179256
1127.026, 1.029964
1127.508, 0.8330460
1127.990, 0.5643350
1128.472, 0.4977570
1128.954, 0.7139360
1129.437, 0.8178290
1129.919, 0.5865440
1130.401, 0.3147540
1130.883, 0.3737750
1131.365, 0.6866840
1131.847, 0.9975050
1132.329, 1.296276
1132.811, 1.349434
1133.294, 1.142937
1133.776, 0.7550240
1134.258, 0.2111050
1134.740, 0.1420520
1135.222, 1.9051000E-02
1135.704, 0.4120450
1136.186, 0.4604070
1136.668, 0.2658460
1137.151, 0.2610630
1137.633, 0.4072610
1138.115, 0.4345130
1138.597, 0.3056260
1139.079, 0.2184180
1139.561, 0.2853970
1140.043, 0.3438340
1140.525, 0.1231040
1141.007, 0.1753920
1141.490, 0.1874010
1141.972, 3.6770001E-03
1142.454, 0.2133520
1142.936, 0.4142760
1143.418, 0.5087620
1143.900, 0.4768220
1144.382, 0.4278450
1144.864, 0.4369960
1145.346, 0.4886020
1145.829, 0.5424080
1146.311, 0.6164820
1146.793, 0.7439610
1147.275, 0.9038580
1147.757, 1.079464
1148.239, 1.245968
1148.721, 1.331337
1149.203, 1.299660
1149.686, 1.154526
1150.168, 0.7976680
1150.650, 0.5138510
1151.132, 0.6069220
1151.614, 0.7784650
1152.096, 0.6159550
1152.578, 0.2551540
1153.060, 8.5078999E-02
1153.542, 0.1911810
1154.025, 0.3973500
1154.507, 0.9198680
1154.989, 1.276443
1155.471, 1.185917
1155.953, 0.9761470
1156.435, 0.8168180
1156.917, 0.6985780
1157.399, 0.5786060
1157.881, 0.4626810
1158.364, 0.4250600
1158.846, 0.5674020
1159.328, 0.6069530
1159.810, 0.3468670
1160.292, 0.2267910
1160.774, 0.5224950
1161.256, 0.8389320
1161.738, 0.8506970
1162.221, 0.6635780
1162.703, 0.5322840
1163.185, 0.4681360
1163.667, 0.3517000
1164.149, 0.1299930
1164.631, 1.4416000E-02
1165.113, 2.5246000E-02
1165.595, 0.2004170
1166.078, 0.6305120
1166.560, 1.072468
1167.042, 1.225719
1167.524, 1.130672
1168.006, 0.9287410
1168.488, 0.6073270
1168.970, 0.5322270
1169.452, 0.7314490
1169.934, 0.7830960
1170.417, 0.5709760
1170.899, 0.4139020
1171.381, 0.5201260
1171.863, 0.7495960
1172.345, 0.9233250
1172.827, 1.008743
1173.309, 0.7013550
1173.791, 0.2116780
1174.273, 0.5489500
1174.756, 1.653503
1175.238, 2.380470
1175.720, 2.294449
1176.202, 1.848949
1176.684, 1.283989
1177.166, 0.8530040
1177.648, 1.097725
1178.130, 1.521679
1178.613, 1.286591
1179.095, 0.6851270
1179.577, 0.3964880
1180.059, 0.4916570
1180.541, 0.6323930
1181.023, 0.6786610
1181.505, 0.7217750
1181.987, 0.8746800
1182.469, 0.9754490
1182.952, 0.8856240
1183.434, 0.7205890
1183.916, 0.5378380
1184.398, 0.3818700
1184.880, 0.3854450
1185.362, 0.5602380
1185.844, 0.6998140
1186.326, 0.7516980
1186.808, 0.7729300
1187.291, 0.7489090
1187.773, 0.7236630
1188.255, 0.7205310
1188.737, 0.7170830
1189.219, 0.5001790
1189.701, 0.3089750
1190.183, 1.053471
1190.665, 3.208244
1191.148, 3.707455
1191.630, 1.720482
1192.112, 0.4381750
1192.594, 0.5641020
1193.076, 0.9326250
1193.558, 0.9465640
1194.040, 0.8366390
1194.522, 0.9146120
1195.005, 1.099953
1195.487, 0.9900130
1195.969, 0.6024780
1196.451, 0.5290370
1196.933, 0.7767070
1197.415, 0.7221110
1197.897, 0.2055850
1198.379, 0.1646690
1198.861, 1.0746000E-02
1199.344, 0.3436970
1199.826, 0.2433820
1200.308, 4.1161001E-02
1200.790, 0.1111150
1201.272, 0.4594650
1201.754, 0.4023250
1202.236, 3.5309002E-02
1202.718, 0.1582680
1203.200, 4.7890000E-02
1203.683, 0.1827580
1204.165, 0.4673650
1204.647, 0.7197270
1205.129, 0.9199640
1205.611, 1.016758
1206.093, 0.8681560
1206.575, 0.6533510
1207.057, 0.5792770
1207.540, 0.6372030
1208.022, 0.7849160
1208.504, 1.037849
1208.986, 1.049763
1209.468, 0.3462220
1209.950, 2.0794000E-02
1210.432, 0.5438800
1210.914, 1.061630
1211.396, 0.9704210
1211.879, 0.6450040
1212.361, 0.4002950
1212.843, 0.2578090
1213.325, 0.3395350
1213.807, 0.7391320
1214.289, 0.8934710
1214.771, 0.7362480
1215.253, 0.5764200
1215.735, 0.4423260
1216.218, 0.5116310
1216.700, 0.9290960
1217.182, 1.339180
1217.664, 1.260532
1218.146, 0.8870350
1218.628, 0.8898700
1219.110, 1.162106
1219.592, 1.123859
1220.075, 0.8154640
1220.557, 0.5574190
1221.039, 0.4296800
1221.521, 0.2969470
1222.003, 7.8579001E-02
1222.485, 4.8943002E-02
1222.967, 0.1753460
1223.449, 0.5001910
1223.932, 0.7121240
1224.414, 0.7866710
1224.896, 0.5679090
1225.378, 0.2480320
1225.860, 0.2524450
1226.342, 0.5772510
1226.824, 0.6926920
1227.306, 0.3055920
1227.788, 1.5835000E-02
1228.271, 0.1281240
1228.753, 0.2442020
1229.235, 0.1126590
1229.717, 5.5049998E-03
1230.199, 0.2074850
1230.681, 0.5231670
1231.163, 0.4590420
1231.645, 2.9491000E-02
1232.127, 5.3654000E-02
1232.610, 0.4165730
1233.092, 0.5569920
1233.574, 0.1784400
1234.056, 3.9455000E-02
1234.538, 0.4373820
1235.020, 0.7895390
1235.502, 0.6395840
1235.984, 0.3083340
1236.467, 0.3867300
1236.949, 0.7446140
1237.431, 0.8046110
1237.913, 0.6334270
1238.395, 0.5055730
1238.877, 0.4493060
1239.359, 0.4589880
1239.841, 0.5123020
1240.323, 0.4472540
1240.806, 0.1010700
1241.288, 0.1393430
1241.770, 0.1829830
1242.252, 0.6229290
1242.734, 0.7165990
1243.216, 0.6624300
1243.698, 0.6717870
1244.180, 0.7211990
1244.662, 0.7128830
1245.145, 0.6343840
1245.627, 0.5612490
1246.109, 0.4815750
1246.591, 0.4634860
1247.073, 0.6375850
1247.555, 0.7259410
1248.037, 0.5699390
1248.519, 0.3791350
1249.002, 0.2811850
1249.484, 0.2582700
1249.966, 0.2862510
1250.448, 0.3611600
1250.930, 0.4250300
1251.412, 0.4853210
1251.894, 0.4164700
1252.376, 0.1974790
1252.859, 0.1147730
1253.341, 0.2673990
1253.823, 0.3386340
1254.305, 0.1007540
1254.787, 0.1753920
1255.269, 0.1040420
1255.751, 0.1605300
1256.233, 0.3432350
1256.715, 0.4894180
1257.198, 0.7365910
1257.680, 0.9772990
1258.162, 0.8440440
1258.644, 0.3662760
1259.126, 0.2257350
1259.608, 0.8048630
1260.090, 1.349117
1260.572, 1.597847
1261.054, 1.608376
1261.537, 1.263828
1262.019, 0.8042950
1262.501, 0.3615150
1262.983, 5.3084999E-02
1263.465, 0.1408880
1263.947, 0.5684360
1264.429, 0.9159280
1264.911, 1.222404
1265.394, 1.291306
1265.876, 1.071331
1266.358, 0.8046230
1266.840, 0.5312420
1267.322, 0.3604890
1267.804, 0.3472370
1268.286, 0.4358600
1268.768, 0.4781570
1269.250, 0.5666960
1269.733, 0.8289380
1270.215, 1.118793
1270.697, 1.115570
1271.179, 0.9254460
1271.661, 0.8917160
1272.143, 1.019386
1272.625, 1.093731
1273.107, 1.011326
1273.589, 0.8811570
1274.072, 0.5719180
1274.554, 0.4027140
1275.036, 0.7088700
1275.518, 1.000393
1276.000, 0.9692420
1276.482, 0.7487910
1276.964, 0.3397480
1277.446, 7.1308002E-02
1277.929, 0.1161080
1278.411, 1.016956
1278.893, 1.290619
1279.375, 0.6980590
1279.857, 0.3871120
1280.339, 0.2126010
1280.821, 0.3314510
1281.303, 0.3107530
1281.786, 0.2148250
1282.268, 0.0000000E+00
##END=



