##NAMES=Orickite
##RRUFFID=R070739
##IDEAL CHEMISTRY=CuFeS_2_&#183;nH_2_O
##LOCALITY=Abundancia vein, Emma Louise Gold mine, El Guanaco, Taltal Province, Antofagasta, Chile
##OWNER=RRUFF
##SOURCE=Michael Scott
##DESCRIPTION=Dark gray to black metallic massive
##STATUS=The identification of this mineral is not yet confirmed.
##URL=rruff.info/R070739
113.7380, 0.0000000E+00
114.2202, 72.56055
114.7023, 83.30664
115.1844, 46.17969
115.6665, 5.146484
116.1486, 0.1875000
116.6307, 29.23242
117.1129, 65.51758
117.5950, 110.8535
118.0771, 129.6992
118.5592, 120.1914
119.0413, 83.26562
119.5234, 41.81641
120.0056, 12.47852
120.4877, 1.509766
120.9698, 6.585938
121.4519, 1.976563
121.9340, 23.44531
122.4161, 50.53320
122.8982, 86.25781
123.3804, 123.5332
123.8625, 166.1562
124.3446, 209.8281
124.8267, 230.5957
125.3088, 196.3926
125.7909, 100.5645
126.2731, 28.94141
126.7552, 4.332031
127.2373, 0.4492190
127.7194, 9.371094
128.2015, 30.96094
128.6837, 55.98438
129.1658, 70.97656
129.6479, 66.58789
130.1300, 70.55078
130.6121, 98.73047
131.0942, 128.0801
131.5764, 135.5762
132.0585, 110.5137
132.5406, 64.82812
133.0227, 40.86523
133.5048, 63.35156
133.9869, 82.22070
134.4691, 90.86133
134.9512, 91.79102
135.4333, 88.14258
135.9154, 80.51562
136.3975, 70.15430
136.8796, 75.06055
137.3618, 111.8281
137.8439, 146.0195
138.3260, 156.8477
138.8081, 146.4648
139.2902, 136.4434
139.7723, 149.0000
140.2545, 183.5566
140.7366, 198.4336
141.2187, 169.2090
141.7008, 127.5430
142.1829, 107.6914
142.6650, 115.3203
143.1472, 139.9336
143.6293, 182.5527
144.1114, 238.5293
144.5935, 279.1914
145.0756, 281.1699
145.5577, 255.8965
146.0399, 245.6113
146.5220, 266.6309
147.0041, 292.8594
147.4862, 314.0176
147.9683, 329.3418
148.4504, 337.5039
148.9326, 335.6562
149.4147, 299.7305
149.8968, 283.4121
150.3789, 321.7363
150.8610, 369.7617
151.3431, 402.4766
151.8252, 418.6133
152.3074, 424.9355
152.7895, 422.4824
153.2716, 412.0137
153.7537, 401.8145
154.2358, 395.2148
154.7179, 393.5957
155.2001, 394.2969
155.6822, 395.3574
156.1643, 396.1191
156.6464, 400.5371
157.1285, 433.5801
157.6106, 439.9375
158.0928, 380.7969
158.5749, 298.1641
159.0570, 257.6074
159.5391, 303.6133
160.0212, 422.0547
160.5033, 457.6543
160.9855, 331.1680
161.4676, 217.0020
161.9497, 168.9941
162.4318, 178.2891
162.9139, 212.1523
163.3960, 251.1270
163.8782, 293.9746
164.3603, 312.2285
164.8424, 299.5586
165.3245, 270.6230
165.8066, 225.7793
166.2887, 166.8984
166.7709, 113.9570
167.2530, 85.70898
167.7351, 83.01562
168.2172, 91.58594
168.6993, 125.0332
169.1814, 164.6250
169.6636, 191.2520
170.1457, 184.9746
170.6278, 163.0176
171.1099, 136.2793
171.5920, 108.9121
172.0741, 95.16016
172.5563, 105.9492
173.0384, 135.7148
173.5205, 173.0527
174.0026, 232.5566
174.4847, 275.1504
174.9668, 250.7383
175.4490, 165.7637
175.9311, 103.8438
176.4132, 160.9727
176.8953, 331.9238
177.3774, 410.8770
177.8595, 266.2109
178.3417, 91.82031
178.8238, 13.07227
179.3059, 41.72852
179.7880, 106.9375
180.2701, 131.2266
180.7522, 103.7363
181.2344, 80.48633
181.7165, 78.81445
182.1986, 78.02539
182.6807, 58.28125
183.1628, 15.46289
183.6449, 27.77539
184.1271, 28.64844
184.6092, 45.30469
185.0913, 97.72461
185.5734, 117.8047
186.0555, 117.0332
186.5376, 100.2656
187.0198, 69.63477
187.5019, 32.64062
187.9840, 9.001953
188.4661, 15.02734
188.9482, 14.82617
189.4303, 0.9316410
189.9125, 22.31445
190.3946, 36.72461
190.8767, 37.55664
191.3588, 28.25000
191.8409, 25.80664
192.3230, 49.72266
192.8052, 59.10156
193.2873, 38.84180
193.7694, 0.4472660
194.2515, 43.00195
194.7336, 81.83398
195.2157, 114.9355
195.6979, 120.5684
196.1800, 73.35352
196.6621, 31.31055
197.1442, 16.57812
197.6263, 24.91406
198.1084, 40.43555
198.5906, 52.00977
199.0727, 61.29492
199.5548, 83.99414
200.0369, 138.5996
200.5190, 189.4941
201.0011, 215.9043
201.4833, 218.2637
201.9654, 209.4707
202.4475, 198.0039
202.9296, 182.8711
203.4117, 160.9805
203.8938, 119.6934
204.3760, 79.51172
204.8581, 59.11328
205.3402, 59.92578
205.8223, 72.54102
206.3044, 101.2539
206.7865, 138.0605
207.2687, 152.1797
207.7508, 115.8086
208.2329, 61.91016
208.7150, 33.97852
209.1971, 36.58008
209.6792, 56.16602
210.1614, 100.7793
210.6435, 156.5898
211.1256, 187.0684
211.6077, 156.4258
212.0898, 93.75000
212.5719, 62.82617
213.0541, 72.86133
213.5362, 103.1992
214.0183, 158.3848
214.5004, 224.0020
214.9825, 261.0527
215.4646, 226.5684
215.9468, 140.8145
216.4289, 91.05078
216.9110, 97.74414
217.3931, 117.5391
217.8752, 127.7148
218.3573, 129.7734
218.8395, 128.2070
219.3216, 127.9902
219.8037, 128.4570
220.2858, 118.4727
220.7679, 84.69727
221.2500, 54.87500
221.7322, 44.03516
222.2143, 48.61133
222.6964, 56.01953
223.1785, 59.97461
223.6606, 61.00195
224.1427, 46.18555
224.6249, 17.65430
225.1070, 68.40820
225.5891, 77.08789
226.0712, 48.85352
226.5533, 7.904297
227.0354, 27.49414
227.5176, 58.45117
227.9997, 72.87305
228.4818, 47.89062
228.9639, 24.69336
229.4460, 16.43555
229.9281, 24.86328
230.4103, 47.95312
230.8924, 91.31055
231.3745, 169.3535
231.8566, 200.4805
232.3387, 137.7676
232.8208, 71.45703
233.3030, 36.99805
233.7851, 38.90625
234.2672, 68.11133
234.7493, 119.9629
235.2314, 210.2793
235.7135, 264.3359
236.1957, 281.5527
236.6778, 269.8320
237.1599, 214.4180
237.6420, 125.8574
238.1241, 45.92383
238.6062, 25.82422
239.0884, 88.13086
239.5705, 139.2188
240.0526, 191.7266
240.5347, 225.6777
241.0168, 213.9395
241.4989, 159.9043
241.9811, 104.9551
242.4632, 99.69531
242.9453, 164.0586
243.4274, 206.0918
243.9095, 220.4570
244.3916, 219.8301
244.8738, 201.2676
245.3559, 169.3652
245.8380, 146.5684
246.3201, 164.3770
246.8022, 246.7051
247.2843, 288.7461
247.7665, 267.7695
248.2486, 226.5020
248.7307, 188.6895
249.2128, 160.6641
249.6949, 144.7129
250.1770, 143.8535
250.6592, 165.9941
251.1413, 183.0703
251.6234, 186.8535
252.1055, 192.1191
252.5876, 218.0195
253.0697, 264.0000
253.5519, 302.3340
254.0340, 297.1797
254.5161, 229.5527
254.9982, 197.0078
255.4803, 231.0879
255.9624, 279.2832
256.4445, 301.0020
256.9267, 290.8906
257.4088, 267.7090
257.8909, 247.0332
258.3730, 227.1074
258.8551, 228.5898
259.3372, 273.4941
259.8194, 325.5410
260.3015, 351.5703
260.7836, 348.8750
261.2657, 343.1914
261.7478, 360.8828
262.2299, 406.6328
262.7121, 443.0684
263.1942, 476.1582
263.6763, 495.7773
264.1584, 483.6895
264.6405, 440.2969
265.1227, 399.3398
265.6048, 393.1055
266.0869, 424.9922
266.5690, 452.2598
267.0511, 429.7969
267.5332, 432.3203
268.0154, 571.6973
268.4975, 844.4414
268.9796, 1061.129
269.4617, 1040.088
269.9438, 778.2812
270.4259, 590.8145
270.9081, 512.7832
271.3902, 492.3379
271.8723, 512.2441
272.3544, 566.8809
272.8365, 603.1113
273.3186, 571.8281
273.8008, 478.8594
274.2829, 416.4121
274.7650, 399.0684
275.2471, 402.9082
275.7292, 414.2109
276.2113, 432.0059
276.6935, 455.8281
277.1756, 492.3418
277.6577, 534.9043
278.1398, 548.9004
278.6219, 516.3906
279.1040, 469.8750
279.5862, 423.9805
280.0683, 380.5586
280.5504, 351.1816
281.0325, 346.9531
281.5146, 362.9453
281.9967, 373.0020
282.4789, 373.6758
282.9610, 367.5020
283.4431, 361.2227
283.9252, 356.1074
284.4073, 346.3984
284.8894, 323.5000
285.3716, 292.3789
285.8537, 269.9727
286.3358, 262.3340
286.8179, 254.9355
287.3000, 236.2109
287.7821, 209.8223
288.2643, 192.9902
288.7464, 200.3086
289.2285, 215.8027
289.7106, 199.5664
290.1927, 134.6113
290.6748, 71.99414
291.1570, 33.96289
291.6391, 17.23242
292.1212, 12.88086
292.6033, 19.82812
293.0854, 34.32812
293.5675, 50.00586
294.0497, 70.65039
294.5318, 83.99609
295.0139, 78.36914
295.4960, 61.95703
295.9781, 56.13867
296.4602, 71.69922
296.9424, 92.42188
297.4245, 84.95117
297.9066, 43.22266
298.3887, 9.847656
298.8708, 0.7031250
299.3529, 7.992188
299.8351, 20.41211
300.3172, 36.50977
300.7993, 51.27148
301.2814, 49.51367
301.7635, 25.35156
302.2456, 31.24609
302.7278, 121.0176
303.2099, 232.5996
303.6920, 272.3516
304.1741, 217.4648
304.6562, 133.5605
305.1383, 91.11328
305.6205, 91.90234
306.1026, 99.95508
306.5847, 121.7188
307.0668, 142.7754
307.5489, 142.9434
308.0310, 119.8691
308.5132, 98.42773
308.9953, 104.3438
309.4774, 139.0840
309.9595, 163.3848
310.4416, 173.0508
310.9237, 173.8535
311.4059, 160.8457
311.8880, 137.0938
312.3701, 129.7832
312.8522, 168.3203
313.3343, 247.1934
313.8164, 293.1426
314.2986, 278.8730
314.7807, 259.8672
315.2628, 263.6797
315.7449, 289.6367
316.2270, 334.6934
316.7091, 408.2051
317.1913, 497.2422
317.6734, 529.8652
318.1555, 444.9238
318.6376, 376.6523
319.1197, 392.5117
319.6018, 464.8730
320.0840, 528.4336
320.5661, 550.8965
321.0482, 543.8418
321.5303, 543.8008
322.0124, 552.1426
322.4945, 566.2754
322.9767, 588.8145
323.4588, 614.1484
323.9409, 633.9922
324.4230, 644.9316
324.9051, 651.3945
325.3872, 662.3672
325.8694, 679.2617
326.3515, 698.3145
326.8336, 740.3535
327.3157, 774.0449
327.7978, 755.5039
328.2799, 675.9395
328.7621, 581.3887
329.2442, 535.6680
329.7263, 565.5059
330.2084, 583.1387
330.6905, 590.2227
331.1726, 584.5645
331.6548, 564.5078
332.1369, 530.0195
332.6190, 479.4375
333.1011, 405.2891
333.5832, 294.6016
334.0653, 239.0664
334.5475, 278.0293
335.0296, 324.0137
335.5117, 335.4492
335.9938, 317.0977
336.4759, 297.7715
336.9580, 301.8672
337.4402, 329.5234
337.9223, 330.5605
338.4044, 280.3008
338.8865, 229.9316
339.3686, 185.7012
339.8507, 151.2539
340.3329, 124.7285
340.8150, 103.6230
341.2971, 100.0605
341.7792, 169.0059
342.2613, 454.1914
342.7434, 627.2031
343.2256, 586.0664
343.7077, 442.5137
344.1898, 311.3184
344.6719, 241.0312
345.1540, 211.3770
345.6361, 182.1094
346.1183, 152.5801
346.6004, 125.6836
347.0825, 85.19531
347.5646, 56.77344
348.0467, 72.29297
348.5288, 132.5215
349.0110, 196.3613
349.4931, 203.3203
349.9752, 131.0000
350.4573, 91.17773
350.9394, 96.07812
351.4215, 126.2344
351.9037, 199.9004
352.3858, 299.4629
352.8679, 369.0566
353.3500, 343.1465
353.8321, 226.0000
354.3142, 159.8906
354.7964, 179.7910
355.2785, 211.2402
355.7606, 228.3242
356.2427, 234.5234
356.7248, 239.4961
357.2069, 251.4043
357.6891, 264.0176
358.1712, 255.2305
358.6533, 210.5879
359.1354, 177.3047
359.6175, 183.2109
360.0996, 206.6055
360.5818, 225.1348
361.0639, 232.8574
361.5460, 230.1074
362.0281, 210.1562
362.5102, 169.1328
362.9923, 144.7852
363.4745, 160.5273
363.9566, 191.9238
364.4387, 217.2773
364.9208, 234.7969
365.4029, 244.3223
365.8850, 242.9941
366.3672, 232.5820
366.8493, 224.4609
367.3314, 227.3086
367.8135, 223.2441
368.2956, 189.5840
368.7777, 129.0098
369.2599, 70.98828
369.7420, 15.58398
370.2241, 25.99805
370.7062, 25.71875
371.1883, 26.01367
371.6704, 82.23633
372.1526, 106.8555
372.6347, 102.1797
373.1168, 82.17578
373.5989, 26.75977
374.0810, 27.50391
374.5631, 49.46875
375.0453, 40.81641
375.5274, 21.52344
376.0095, 1.732422
376.4916, 19.21875
376.9737, 44.45703
377.4558, 97.75977
377.9380, 128.2500
378.4201, 98.34180
378.9022, 34.58789
379.3843, 13.17969
379.8664, 25.55859
380.3485, 11.25000
380.8307, 14.21289
381.3128, 67.01758
381.7949, 100.8164
382.2770, 103.4375
382.7591, 90.91406
383.2412, 70.67383
383.7234, 47.07812
384.2055, 35.48438
384.6876, 58.67383
385.1697, 134.9414
385.6518, 165.6562
386.1339, 119.7871
386.6161, 65.63672
387.0982, 29.14258
387.5803, 12.79883
388.0624, 13.99609
388.5445, 32.84180
389.0266, 67.13477
389.5088, 92.43750
389.9909, 116.5312
390.4730, 120.5703
390.9551, 71.05273
391.4372, 9.875000
391.9193, 0.7910160
392.4015, 67.73438
392.8836, 166.4434
393.3657, 188.4160
393.8478, 92.08984
394.3299, 19.87500
394.8120, 6.257813
395.2942, 5.669922
395.7763, 23.90820
396.2584, 77.35352
396.7405, 119.6133
397.2226, 106.9961
397.7047, 39.07031
398.1869, 13.34766
398.6690, 41.39844
399.1511, 57.16797
399.6332, 70.90625
400.1153, 79.57227
400.5974, 73.95898
401.0796, 39.18164
401.5617, 10.55664
402.0438, 45.08398
402.5259, 64.57617
403.0080, 70.45117
403.4901, 45.97461
403.9723, 14.15820
404.4544, 12.52734
404.9365, 63.10352
405.4186, 119.0781
405.9007, 138.1172
406.3828, 128.3887
406.8650, 121.9746
407.3471, 135.1387
407.8292, 155.3359
408.3113, 159.2930
408.7934, 143.4219
409.2755, 131.5625
409.7577, 143.3203
410.2398, 158.3359
410.7219, 138.6582
411.2040, 77.49023
411.6861, 21.04102
412.1682, 19.05273
412.6504, 80.57617
413.1325, 125.4238
413.6146, 136.8574
414.0967, 147.7754
414.5788, 190.2148
415.0609, 250.1113
415.5431, 282.8867
416.0252, 258.8477
416.5073, 190.4355
416.9894, 135.2656
417.4715, 95.75391
417.9536, 67.70508
418.4358, 50.44727
418.9179, 45.11328
419.4000, 57.45117
419.8821, 88.00195
420.3642, 123.3926
420.8463, 142.0605
421.3285, 135.6895
421.8106, 135.3027
422.2927, 157.0449
422.7748, 170.2188
423.2569, 152.5137
423.7390, 110.4375
424.2212, 69.19531
424.7033, 47.33008
425.1854, 42.58594
425.6675, 39.84961
426.1496, 29.15430
426.6317, 38.54297
427.1139, 92.94922
427.5960, 165.6875
428.0781, 222.9062
428.5602, 254.4316
429.0423, 270.2617
429.5244, 278.5039
430.0066, 279.3320
430.4887, 269.2812
430.9708, 238.3926
431.4529, 204.8203
431.9350, 187.4395
432.4171, 187.4102
432.8993, 191.7148
433.3814, 192.7695
433.8635, 194.5508
434.3456, 205.9902
434.8277, 228.4492
435.3098, 251.4277
435.7920, 270.9277
436.2741, 284.5996
436.7562, 276.6328
437.2383, 217.7754
437.7204, 161.7637
438.2025, 146.4531
438.6847, 162.3516
439.1668, 180.3535
439.6489, 187.4414
440.1310, 184.7930
440.6131, 175.4922
441.0952, 152.0605
441.5774, 132.3164
442.0595, 105.4727
442.5416, 89.65039
443.0237, 113.5352
443.5058, 175.4902
443.9879, 233.7266
444.4701, 234.5664
444.9522, 162.5059
445.4343, 142.5820
445.9164, 244.3496
446.3985, 328.6875
446.8806, 346.5840
447.3628, 315.0176
447.8449, 266.4980
448.3270, 214.1191
448.8091, 166.4648
449.2912, 147.2109
449.7733, 165.3066
450.2555, 187.4941
450.7376, 219.5430
451.2197, 241.6543
451.7018, 230.8203
452.1839, 183.5547
452.6660, 135.9453
453.1482, 117.2695
453.6303, 125.3770
454.1124, 150.8066
454.5945, 206.4980
455.0766, 248.8867
455.5587, 220.1641
456.0409, 143.3945
456.5230, 91.49023
457.0051, 104.4727
457.4872, 132.1211
457.9693, 132.3770
458.4514, 108.6367
458.9336, 74.94141
459.4156, 30.22461
459.8978, 12.88086
460.3799, 6.878906
460.8620, 84.72852
461.3441, 147.3516
461.8262, 150.1016
462.3083, 119.9648
462.7905, 68.75195
463.2726, 5.070313
463.7547, 34.90430
464.2368, 7.724609
464.7189, 97.61914
465.2010, 173.6816
465.6832, 220.3535
466.1653, 238.2969
466.6474, 195.3125
467.1295, 130.1191
467.6116, 111.2480
468.0938, 177.0586
468.5759, 280.0879
469.0580, 306.1074
469.5401, 220.4531
470.0222, 155.9434
470.5043, 156.2285
470.9865, 170.2656
471.4686, 163.8945
471.9507, 136.1289
472.4328, 113.2148
472.9149, 121.5938
473.3970, 151.3965
473.8792, 168.1289
474.3613, 170.5938
474.8434, 158.8145
475.3255, 112.4355
475.8076, 54.18359
476.2897, 35.02344
476.7719, 89.75195
477.2540, 146.6973
477.7361, 149.8320
478.2182, 115.4434
478.7003, 93.17773
479.1824, 100.8730
479.6646, 125.0156
480.1467, 146.1914
480.6288, 166.5430
481.1109, 175.9043
481.5930, 157.9414
482.0751, 141.1484
482.5573, 143.6797
483.0394, 166.6680
483.5215, 208.1504
484.0036, 270.6387
484.4857, 346.8027
484.9678, 388.2266
485.4500, 394.0605
485.9321, 360.5176
486.4142, 239.5898
486.8963, 106.5352
487.3784, 39.15625
487.8605, 55.92773
488.3427, 105.1172
488.8248, 128.9434
489.3069, 129.2188
489.7890, 113.2031
490.2711, 66.32422
490.7532, 23.64648
491.2354, 1.728516
491.7175, 9.250000
492.1996, 4.806641
492.6817, 62.12500
493.1638, 122.5918
493.6459, 121.3906
494.1281, 65.08008
494.6102, 34.60547
495.0923, 72.82031
495.5744, 142.4141
496.0565, 161.3574
496.5386, 113.0371
497.0208, 80.78711
497.5029, 97.17578
497.9850, 132.5996
498.4671, 158.1680
498.9492, 170.6875
499.4313, 178.9102
499.9135, 189.0430
500.3956, 201.0254
500.8777, 215.8184
501.3598, 250.6406
501.8419, 267.0293
502.3240, 240.0508
502.8062, 200.2227
503.2883, 188.2773
503.7704, 214.0840
504.2525, 242.4844
504.7346, 217.0059
505.2167, 124.6797
505.6989, 76.83789
506.1810, 116.1445
506.6631, 155.8691
507.1452, 140.1582
507.6273, 94.74023
508.1094, 80.95312
508.5916, 139.1289
509.0737, 218.2051
509.5558, 246.2715
510.0379, 224.8145
510.5200, 201.5664
511.0021, 191.8203
511.4843, 189.0254
511.9664, 184.8672
512.4485, 180.3145
512.9306, 170.5332
513.4127, 149.5898
513.8948, 128.2324
514.3770, 117.8125
514.8591, 118.3145
515.3412, 122.3301
515.8233, 124.5859
516.3054, 133.3047
516.7875, 132.6191
517.2697, 153.0938
517.7518, 166.8848
518.2339, 177.2656
518.7160, 179.3086
519.1981, 162.9746
519.6802, 129.9688
520.1624, 94.01953
520.6445, 76.12109
521.1266, 77.10547
521.6087, 64.79688
522.0908, 25.76758
522.5729, 2.300781
523.0551, 26.69922
523.5372, 72.99609
524.0193, 96.07422
524.5014, 70.27539
524.9835, 46.20703
525.4656, 86.99609
525.9478, 178.5176
526.4299, 249.3730
526.9120, 282.7578
527.3941, 286.2285
527.8762, 254.8809
528.3583, 186.4492
528.8405, 148.5254
529.3226, 182.6387
529.8047, 217.8359
530.2868, 198.8750
530.7689, 141.6934
531.2510, 97.61328
531.7332, 93.95508
532.2153, 111.4297
532.6974, 100.3965
533.1795, 28.63672
533.6616, 11.99219
534.1437, 7.101563
534.6259, 13.81836
535.1080, 48.29102
535.5901, 87.55664
536.0722, 108.6934
536.5543, 87.43750
537.0364, 40.66406
537.5186, 24.29883
538.0007, 47.20508
538.4828, 67.06445
538.9649, 65.00977
539.4470, 53.64258
539.9291, 45.99414
540.4113, 42.53906
540.8934, 44.61914
541.3755, 57.83984
541.8576, 74.93555
542.3397, 84.89062
542.8218, 86.34375
543.3040, 82.71875
543.7861, 76.81250
544.2682, 68.03711
544.7503, 50.84961
545.2324, 7.876953
545.7145, 32.88672
546.1967, 27.81836
546.6788, 110.2012
547.1609, 139.4688
547.6430, 102.7109
548.1251, 49.12695
548.6072, 35.58984
549.0894, 64.32227
549.5715, 68.18945
550.0536, 17.92578
550.5357, 12.43750
551.0178, 33.92773
551.4999, 103.3848
551.9821, 114.3418
552.4642, 30.63281
552.9463, 62.99023
553.4284, 86.22461
553.9105, 53.47266
554.3926, 19.83984
554.8748, 4.652344
555.3569, 27.09375
555.8390, 57.05078
556.3211, 93.53711
556.8032, 112.2031
557.2853, 99.71289
557.7675, 82.56055
558.2496, 55.89844
558.7317, 36.87500
559.2138, 66.74023
559.6959, 158.2227
560.1780, 260.3867
560.6602, 292.6309
561.1423, 236.6055
561.6244, 185.0117
562.1065, 120.8457
562.5886, 79.89258
563.0707, 100.3086
563.5529, 148.7090
564.0350, 161.1250
564.5171, 101.6113
564.9992, 21.01953
565.4813, 13.08398
565.9634, 3.097656
566.4456, 15.59570
566.9277, 41.44531
567.4098, 62.74414
567.8919, 63.83398
568.3740, 46.83008
568.8561, 29.25977
569.3383, 1.037109
569.8204, 17.91797
570.3025, 3.603516
570.7846, 51.66016
571.2667, 100.2969
571.7488, 138.9453
572.2310, 165.6035
572.7131, 174.4121
573.1952, 157.2988
573.6773, 144.0879
574.1594, 136.6191
574.6415, 131.0078
575.1237, 133.6152
575.6058, 136.0215
576.0879, 115.5215
576.5700, 50.55859
577.0521, 13.99219
577.5342, 7.878906
578.0164, 116.8398
578.4985, 194.7031
578.9806, 209.0430
579.4627, 191.3398
579.9448, 168.4062
580.4269, 140.7148
580.9091, 110.8066
581.3912, 67.81250
581.8733, 32.74609
582.3554, 25.81836
582.8375, 38.17578
583.3196, 44.70312
583.8018, 34.21484
584.2839, 23.06445
584.7660, 40.67773
585.2481, 103.5840
585.7302, 135.2129
586.2123, 102.6133
586.6945, 73.88281
587.1766, 88.44531
587.6587, 126.5781
588.1408, 144.8457
588.6229, 120.0820
589.1050, 77.76758
589.5872, 54.49023
590.0693, 49.54883
590.5514, 38.27344
591.0335, 3.998047
591.5156, 20.86914
591.9977, 13.34375
592.4799, 97.26953
592.9620, 153.4180
593.4441, 152.2227
593.9262, 137.2617
594.4083, 126.8496
594.8904, 121.7031
595.3726, 121.6523
595.8547, 126.1289
596.3368, 137.8047
596.8189, 167.4863
597.3010, 227.1875
597.7831, 255.0684
598.2653, 215.1328
598.7474, 180.0137
599.2295, 183.6270
599.7116, 203.0039
600.1937, 197.8633
600.6758, 149.6035
601.1580, 97.03516
601.6401, 84.11523
602.1222, 103.9785
602.6043, 120.3652
603.0864, 124.0332
603.5685, 133.6328
604.0507, 180.9180
604.5328, 255.5293
605.0149, 283.7305
605.4970, 226.1465
605.9791, 170.0176
606.4612, 138.2480
606.9434, 126.2578
607.4255, 135.6406
607.9076, 163.4492
608.3897, 191.7266
608.8718, 206.2578
609.3539, 205.9922
609.8361, 187.1094
610.3182, 116.7383
610.8003, 78.20898
611.2824, 140.1230
611.7645, 232.3164
612.2466, 275.2500
612.7288, 252.4277
613.2109, 209.7441
613.6930, 160.4102
614.1751, 117.5254
614.6572, 114.5547
615.1393, 152.9336
615.6215, 181.0586
616.1036, 160.0566
616.5857, 110.1602
617.0678, 105.3105
617.5499, 223.6992
618.0320, 277.7832
618.5142, 193.8691
618.9963, 93.59961
619.4784, 76.17773
619.9605, 133.3984
620.4426, 196.4688
620.9247, 221.8105
621.4069, 215.4102
621.8890, 182.3301
622.3711, 113.1445
622.8532, 74.55273
623.3353, 98.02539
623.8174, 145.0723
624.2996, 178.1758
624.7817, 197.3008
625.2638, 205.8613
625.7459, 197.1621
626.2280, 184.7695
626.7101, 181.0781
627.1923, 181.8086
627.6744, 173.7793
628.1565, 154.2227
628.6386, 132.8887
629.1207, 129.1992
629.6028, 152.2266
630.0850, 155.2617
630.5671, 101.5117
631.0492, 65.79883
631.5313, 88.18359
632.0134, 139.0605
632.4955, 170.5176
632.9777, 164.8301
633.4598, 151.3672
633.9419, 164.9805
634.4240, 194.0488
634.9061, 195.9707
635.3882, 165.3340
635.8704, 127.7031
636.3525, 99.21680
636.8346, 79.88867
637.3167, 69.96484
637.7988, 67.26367
638.2809, 75.39062
638.7631, 108.5645
639.2452, 143.9434
639.7273, 166.8730
640.2094, 171.8652
640.6915, 147.6973
641.1736, 72.90234
641.6558, 26.52539
642.1379, 46.64453
642.6200, 34.77539
643.1021, 98.98242
643.5842, 106.8359
644.0663, 87.89648
644.5485, 66.01367
645.0306, 42.02344
645.5127, 40.40430
645.9948, 106.4590
646.4769, 163.9082
646.9590, 121.9766
647.4412, 22.96289
647.9233, 10.79297
648.4054, 68.61523
648.8875, 178.0332
649.3696, 181.4785
649.8517, 48.04883
650.3339, 14.31836
650.8160, 72.43164
651.2981, 138.0820
651.7802, 105.8516
652.2623, 27.30469
652.7444, 28.82422
653.2266, 46.56836
653.7087, 30.41602
654.1908, 53.98242
654.6729, 161.4375
655.1550, 173.6953
655.6371, 79.96680
656.1193, 1.363281
656.6014, 23.09961
657.0835, 115.2539
657.5656, 163.8457
658.0477, 137.4102
658.5298, 108.4453
659.0120, 59.66016
659.4941, 23.11523
659.9762, 29.61328
660.4583, 68.71680
660.9404, 106.7422
661.4225, 128.8574
661.9047, 131.2148
662.3868, 95.17188
662.8689, 22.46875
663.3510, 24.74414
663.8331, 30.32227
664.3152, 13.00391
664.7974, 16.15039
665.2795, 56.05469
665.7616, 85.94336
666.2437, 92.83008
666.7258, 104.3047
667.2079, 141.1133
667.6901, 183.0723
668.1722, 199.1289
668.6543, 186.8809
669.1364, 178.0703
669.6185, 210.5684
670.1006, 271.6738
670.5828, 279.1016
671.0649, 216.4160
671.5470, 152.9258
672.0291, 98.44336
672.5112, 63.91992
672.9933, 66.72266
673.4755, 108.2285
673.9576, 139.8574
674.4397, 139.3047
674.9218, 130.9160
675.4039, 130.4570
675.8860, 137.9316
676.3682, 158.0742
676.8503, 192.1230
677.3324, 215.4062
677.8145, 181.8359
678.2966, 78.44531
678.7787, 26.89453
679.2609, 62.10742
679.7430, 98.42969
680.2251, 92.25977
680.7072, 73.39844
681.1893, 87.93164
681.6714, 150.7617
682.1536, 192.5371
682.6357, 152.9199
683.1178, 81.39062
683.5999, 40.83594
684.0820, 33.73828
684.5641, 42.22656
685.0463, 57.81445
685.5284, 77.88672
686.0105, 95.12695
686.4926, 101.5664
686.9747, 123.7207
687.4568, 207.8594
687.9390, 260.5977
688.4211, 210.0586
688.9032, 107.0332
689.3853, 50.99414
689.8674, 82.16016
690.3495, 131.5039
690.8317, 144.4492
691.3138, 131.9160
691.7959, 108.1758
692.2780, 76.73438
692.7601, 70.04492
693.2422, 116.0391
693.7244, 197.8535
694.2065, 250.9180
694.6886, 279.5234
695.1707, 270.2695
695.6528, 181.7402
696.1349, 94.75000
696.6171, 48.22852
697.0992, 44.55273
697.5813, 85.84180
698.0634, 193.7578
698.5455, 302.2168
699.0276, 319.7812
699.5098, 265.1191
699.9919, 214.4219
700.4740, 190.4453
700.9561, 167.7227
701.4382, 123.4219
701.9203, 63.13867
702.4025, 29.20312
702.8846, 32.85938
703.3667, 48.31641
703.8488, 81.90234
704.3309, 120.2559
704.8130, 163.1836
705.2952, 202.8066
705.7773, 217.6641
706.2594, 187.3223
706.7415, 143.4746
707.2236, 127.7656
707.7057, 135.2637
708.1879, 145.8203
708.6700, 159.1152
709.1521, 175.9043
709.6342, 199.5957
710.1163, 229.3477
710.5984, 245.0898
711.0806, 245.9980
711.5627, 237.3418
712.0448, 213.0117
712.5269, 184.6699
713.0090, 152.9941
713.4911, 124.2773
713.9733, 115.7793
714.4554, 150.4453
714.9375, 198.1641
715.4196, 210.9922
715.9017, 191.4824
716.3839, 161.1426
716.8660, 129.1973
717.3481, 104.0938
717.8302, 96.30859
718.3123, 106.0918
718.7944, 107.1523
719.2766, 86.42773
719.7587, 74.35742
720.2408, 81.24219
720.7229, 95.53320
721.2050, 101.4805
721.6871, 102.4238
722.1693, 121.8828
722.6514, 196.6055
723.1335, 273.7812
723.6156, 246.3359
724.0977, 130.6504
724.5798, 47.55859
725.0620, 30.57422
725.5441, 44.49805
726.0262, 54.69531
726.5083, 62.25000
726.9904, 86.54492
727.4725, 167.5195
727.9547, 214.4453
728.4368, 193.1855
728.9189, 145.8555
729.4010, 100.1836
729.8831, 63.52148
730.3652, 42.00586
730.8474, 43.66602
731.3295, 57.88477
731.8116, 70.66016
732.2937, 82.69922
732.7758, 97.51562
733.2579, 116.6523
733.7401, 135.4668
734.2222, 152.2734
734.7043, 166.2793
735.1864, 156.2910
735.6685, 90.66211
736.1506, 43.15430
736.6328, 30.02148
737.1149, 31.94531
737.5970, 30.49805
738.0791, 27.83398
738.5612, 41.97656
739.0433, 95.87695
739.5255, 154.4355
740.0076, 177.9688
740.4897, 172.9258
740.9718, 155.0898
741.4539, 127.8125
741.9360, 104.4668
742.4182, 98.37109
742.9003, 106.9395
743.3824, 108.0508
743.8645, 97.85742
744.3466, 86.82031
744.8287, 71.71289
745.3109, 61.64844
745.7930, 63.97266
746.2751, 73.39844
746.7572, 79.90430
747.2393, 75.60742
747.7214, 77.47461
748.2036, 115.3535
748.6857, 164.5781
749.1678, 166.6289
749.6499, 117.1738
750.1320, 75.95117
750.6141, 93.26367
751.0963, 147.7793
751.5784, 147.9883
752.0605, 61.86523
752.5426, 12.38672
753.0247, 41.14258
753.5068, 81.79102
753.9890, 102.3301
754.4711, 102.1582
754.9532, 79.03516
755.4353, 13.89844
755.9174, 39.61328
756.3995, 62.89844
756.8817, 54.58984
757.3638, 14.39648
757.8459, 124.1445
758.3280, 188.8320
758.8101, 151.3438
759.2922, 59.37500
759.7744, 14.29102
760.2565, 20.76562
760.7386, 28.27148
761.2207, 29.39062
761.7028, 37.82031
762.1849, 78.49414
762.6671, 128.7168
763.1492, 127.8125
763.6313, 43.49805
764.1134, 20.25000
764.5955, 39.77344
765.0776, 30.67578
765.5598, 12.27734
766.0419, 71.91797
766.5240, 114.8320
767.0061, 126.4570
767.4882, 121.6250
767.9703, 121.5215
768.4525, 122.4609
768.9346, 94.84961
769.4167, 31.60938
769.8988, 9.097656
770.3809, 10.39844
770.8630, 59.06836
771.3452, 76.48242
771.8273, 52.59375
772.3094, 25.86133
772.7915, 40.28516
773.2736, 68.52734
773.7557, 17.07031
774.2379, 138.7832
774.7200, 185.3438
775.2021, 133.4375
775.6842, 67.30078
776.1663, 42.21875
776.6484, 46.43945
777.1306, 75.15234
777.6127, 116.4316
778.0948, 128.3438
778.5769, 93.36133
779.0590, 44.16797
779.5411, 19.83594
780.0233, 20.56250
780.5054, 36.37109
780.9875, 79.68359
781.4696, 117.6016
781.9517, 159.5664
782.4338, 180.3672
782.9160, 140.2383
783.3981, 48.95117
783.8802, 9.642578
784.3623, 8.250000
784.8444, 51.39648
785.3265, 105.5312
785.8087, 155.4512
786.2908, 178.7578
786.7729, 171.8867
787.2550, 140.3594
787.7371, 80.85156
788.2192, 14.46094
788.7014, 12.28125
789.1835, 82.61328
789.6656, 133.0820
790.1477, 143.3320
790.6298, 140.9062
791.1119, 147.3125
791.5941, 158.0703
792.0762, 153.6758
792.5583, 127.1680
793.0404, 97.00781
793.5225, 51.50391
794.0046, 15.80859
794.4868, 8.875000
794.9689, 26.57422
795.4510, 60.77734
795.9331, 110.9648
796.4152, 154.5742
796.8973, 161.9414
797.3795, 145.7617
797.8616, 136.0156
798.3437, 135.3242
798.8258, 148.2148
799.3079, 181.7344
799.7900, 211.3438
800.2722, 187.0742
800.7543, 90.28125
801.2364, 26.69531
801.7185, 17.27734
802.2006, 13.07422
802.6827, 15.39453
803.1649, 38.93750
803.6470, 13.93750
804.1291, 63.55859
804.6112, 117.9766
805.0933, 94.63281
805.5754, 63.84766
806.0576, 89.53906
806.5397, 142.0664
807.0218, 159.2969
807.5039, 131.9297
807.9860, 99.21094
808.4681, 94.97656
808.9503, 113.9570
809.4324, 149.3477
809.9145, 203.8867
810.3966, 214.1719
810.8787, 147.9297
811.3608, 83.65625
811.8430, 95.16797
812.3251, 169.9492
812.8072, 217.7930
813.2893, 218.6211
813.7714, 218.9141
814.2535, 229.7773
814.7357, 239.4297
815.2178, 245.6250
815.6999, 242.8320
816.1820, 223.2812
816.6641, 178.3164
817.1462, 144.7227
817.6284, 173.2227
818.1105, 223.2148
818.5926, 218.4688
819.0747, 165.0820
819.5568, 123.0547
820.0389, 120.6328
820.5211, 139.8008
821.0032, 154.3711
821.4853, 164.2891
821.9674, 162.6250
822.4495, 144.9766
822.9316, 131.2383
823.4138, 129.4297
823.8959, 134.7812
824.3780, 143.4570
824.8601, 155.0469
825.3422, 171.8711
825.8243, 215.5391
826.3065, 238.8555
826.7886, 205.2852
827.2707, 153.5039
827.7528, 118.2109
828.2349, 110.8750
828.7170, 127.4727
829.1992, 183.6875
829.6813, 238.3242
830.1633, 220.7539
830.6454, 151.7266
831.1276, 112.6289
831.6097, 121.8984
832.0918, 142.4375
832.5739, 155.1250
833.0560, 154.5117
833.5381, 112.7930
834.0203, 7.816406
834.5024, 32.89844
834.9845, 121.0469
835.4666, 258.5000
835.9487, 259.1133
836.4308, 192.9258
836.9130, 160.6055
837.3951, 175.1602
837.8772, 182.8281
838.3593, 160.9922
838.8414, 138.6523
839.3235, 131.5117
839.8057, 135.8906
840.2878, 145.9219
840.7699, 159.8516
841.2520, 178.1953
841.7341, 211.4141
842.2162, 242.1094
842.6984, 217.7969
843.1805, 151.5469
843.6626, 127.9766
844.1447, 168.1250
844.6268, 212.2383
845.1089, 208.7148
845.5911, 168.4102
846.0732, 142.3008
846.5553, 136.7344
847.0374, 129.0039
847.5195, 106.7188
848.0016, 95.37109
848.4838, 113.2148
848.9659, 151.5430
849.4480, 197.3594
849.9301, 262.0977
850.4122, 296.1992
850.8943, 248.8672
851.3765, 202.7930
851.8586, 236.4453
852.3407, 303.8164
852.8228, 317.2930
853.3049, 255.3320
853.7870, 180.5586
854.2692, 148.7656
854.7513, 139.8125
855.2334, 109.0977
855.7155, 65.05859
856.1976, 55.66406
856.6797, 94.37500
857.1619, 137.9570
857.6440, 147.7266
858.1261, 129.4961
858.6082, 114.8477
859.0903, 104.7734
859.5724, 94.48828
860.0546, 80.32812
860.5367, 68.75781
861.0188, 65.74219
861.5009, 72.28125
861.9830, 86.76562
862.4651, 122.0703
862.9473, 127.4922
863.4294, 40.63281
863.9115, 24.33203
864.3936, 38.89453
864.8757, 155.5469
865.3578, 191.2578
865.8400, 116.3906
866.3221, 41.80078
866.8042, 58.14844
867.2863, 114.2617
867.7684, 141.8867
868.2505, 149.6562
868.7327, 171.1445
869.2148, 212.2812
869.6969, 237.7031
870.1790, 213.8242
870.6611, 154.3750
871.1432, 105.4219
871.6254, 66.26953
872.1075, 44.57422
872.5896, 45.08594
873.0717, 53.76562
873.5538, 63.84375
874.0359, 74.57031
874.5181, 83.34766
875.0002, 89.54688
875.4823, 95.83203
875.9644, 103.3633
876.4465, 108.9570
876.9286, 111.5742
877.4108, 112.4492
877.8929, 113.0625
878.3750, 113.7656
878.8571, 113.8125
879.3392, 118.4648
879.8214, 117.2344
880.3035, 85.97266
880.7856, 49.72656
881.2677, 55.59766
881.7498, 104.7500
882.2319, 159.6367
882.7141, 197.5781
883.1962, 217.1484
883.6783, 217.5977
884.1604, 197.9648
884.6425, 136.2227
885.1246, 25.88672
885.6068, 41.57812
886.0889, 14.37109
886.5710, 64.26953
887.0531, 118.1719
887.5352, 146.5625
888.0173, 154.5742
888.4995, 131.9766
888.9816, 106.8125
889.4637, 84.26953
889.9458, 65.63281
890.4279, 49.49609
890.9100, 36.91406
891.3922, 38.13672
891.8743, 72.48828
892.3564, 95.83203
892.8385, 94.02344
893.3206, 79.85547
893.8027, 58.19531
894.2849, 36.08203
894.7670, 27.94141
895.2491, 40.94922
895.7312, 60.28125
896.2133, 74.92969
896.6954, 87.20703
897.1776, 103.1328
897.6597, 119.8594
898.1418, 128.0898
898.6239, 124.2344
899.1060, 104.4180
899.5881, 50.53516
900.0703, 17.81250
900.5524, 8.558594
901.0345, 135.9297
901.5166, 207.0430
901.9987, 173.6289
902.4808, 130.0430
902.9630, 163.6875
903.4451, 114.4297
903.9272, 68.69141
904.4093, 77.09766
904.8914, 22.61328
905.3735, 20.34766
905.8557, 4.230469
906.3378, 30.32812
906.8199, 52.30859
907.3020, 61.61328
907.7841, 56.80859
908.2662, 46.89062
908.7484, 18.08203
909.2305, 4.894531
909.7126, 42.87891
910.1947, 93.71875
910.6768, 109.5742
911.1589, 90.92578
911.6411, 73.30859
912.1232, 79.25000
912.6053, 84.20312
913.0874, 52.67188
913.5695, 7.804688
914.0516, 10.88281
914.5338, 2.015625
915.0159, 20.42969
915.4980, 49.91797
915.9801, 85.94922
916.4622, 138.5117
916.9443, 199.8594
917.4265, 213.7031
917.9086, 178.8281
918.3907, 128.0547
918.8728, 63.06641
919.3549, 21.33594
919.8370, 43.62500
920.3192, 115.0391
920.8013, 157.8516
921.2834, 177.7695
921.7655, 166.2812
922.2476, 100.4180
922.7297, 35.70703
923.2119, 1.062500
923.6940, 11.04688
924.1761, 14.35547
924.6582, 12.74219
925.1403, 14.19141
925.6224, 122.3164
926.1046, 195.3047
926.5867, 149.0820
927.0688, 61.30859
927.5509, 17.76172
928.0330, 24.77734
928.5151, 35.44531
928.9973, 26.59375
929.4794, 17.97266
929.9615, 20.39453
930.4436, 33.76562
930.9257, 74.18750
931.4078, 125.6172
931.8900, 133.1250
932.3721, 73.20703
932.8542, 5.390625
933.3363, 1.773438
933.8184, 34.89062
934.3005, 73.06641
934.7827, 108.6914
935.2648, 147.7266
935.7469, 196.3086
936.2290, 217.3008
936.7111, 169.4648
937.1932, 81.17969
937.6754, 59.24219
938.1575, 112.6016
938.6396, 157.5508
939.1217, 184.3906
939.6038, 206.0742
940.0859, 231.0430
940.5681, 253.5742
941.0502, 266.6797
941.5323, 277.5859
942.0144, 240.3203
942.4965, 86.62891
942.9786, 16.65234
943.4608, 8.480469
943.9429, 41.04297
944.4250, 85.80078
944.9071, 120.1406
945.3892, 131.6797
945.8713, 103.1094
946.3535, 78.94922
946.8356, 60.42969
947.3177, 59.79297
947.7998, 111.1680
948.2819, 176.2695
948.7640, 174.1523
949.2462, 89.24219
949.7283, 40.02344
950.2104, 155.0352
950.6925, 278.0898
951.1746, 246.1953
951.6567, 137.9922
952.1389, 80.53906
952.6210, 87.01953
953.1031, 106.2422
953.5852, 109.7188
954.0673, 104.4180
954.5494, 97.41797
955.0316, 89.50391
955.5137, 82.41797
955.9958, 76.26953
956.4779, 69.89062
956.9600, 62.86328
957.4421, 60.29297
957.9243, 67.67578
958.4064, 84.47266
958.8885, 104.7617
959.3706, 129.3984
959.8527, 125.2539
960.3348, 76.86719
960.8170, 50.08203
961.2991, 99.31641
961.7812, 181.2617
962.2633, 189.7969
962.7454, 101.1289
963.2275, 42.02344
963.7097, 23.69141
964.1918, 14.71094
964.6739, 2.921875
965.1560, 6.585938
965.6381, 42.28516
966.1202, 136.6992
966.6024, 186.3633
967.0845, 169.8555
967.5666, 140.9648
968.0487, 83.71484
968.5308, 36.88281
969.0129, 31.57031
969.4951, 47.13672
969.9772, 46.75781
970.4593, 23.10547
970.9414, 8.941406
971.4235, 19.31250
971.9056, 36.08984
972.3878, 46.88672
972.8699, 62.56641
973.3520, 114.8438
973.8341, 185.6523
974.3162, 205.2266
974.7983, 132.2109
975.2805, 47.88281
975.7626, 15.25391
976.2447, 4.445313
976.7268, 32.66406
977.2089, 74.97266
977.6910, 58.69922
978.1732, 27.07422
978.6553, 118.0898
979.1374, 167.6680
979.6195, 185.3398
980.1016, 179.2109
980.5837, 154.5781
981.0659, 124.8867
981.5480, 92.27734
982.0301, 59.83984
982.5122, 29.01562
982.9943, 1.574219
983.4764, 25.77734
983.9586, 49.68359
984.4407, 43.78516
984.9228, 8.445313
985.4049, 21.09766
985.8870, 35.93359
986.3691, 48.43750
986.8513, 69.87109
987.3334, 94.87109
987.8155, 109.0781
988.2976, 113.7148
988.7797, 96.59375
989.2618, 47.97266
989.7440, 7.992188
990.2261, 3.886719
990.7082, 6.757813
991.1903, 30.64062
991.6724, 73.24609
992.1545, 58.95703
992.6367, 65.84766
993.1188, 135.4141
993.6009, 93.81250
994.0830, 40.11328
994.5651, 33.89062
995.0472, 54.50391
995.5294, 58.67578
996.0115, 40.93359
996.4936, 32.34375
996.9757, 39.29688
997.4578, 49.17578
997.9399, 50.03125
998.4221, 59.87109
998.9042, 110.7500
999.3863, 185.0039
999.8684, 216.1016
1000.351, 166.0703
1000.833, 132.8516
1001.315, 177.6406
1001.797, 216.4414
1002.279, 169.2500
1002.761, 100.1758
1003.243, 117.5586
1003.725, 220.2695
1004.207, 276.0117
1004.690, 187.1523
1005.172, 94.62500
1005.654, 68.29297
1006.136, 87.24219
1006.618, 169.3359
1007.100, 270.0312
1007.582, 285.5898
1008.064, 187.8359
1008.547, 98.32031
1009.029, 117.4414
1009.511, 177.3242
1009.993, 229.6445
1010.475, 263.6875
1010.957, 251.8281
1011.439, 203.1758
1011.921, 166.1523
1012.403, 166.3594
1012.886, 172.8594
1013.368, 146.3398
1013.850, 105.9727
1014.332, 84.09766
1014.814, 79.54688
1015.296, 86.66016
1015.778, 102.6914
1016.260, 119.1641
1016.742, 127.6250
1017.225, 139.3789
1017.707, 193.1016
1018.189, 265.9922
1018.671, 255.8828
1019.153, 169.8672
1019.635, 126.4453
1020.117, 169.2383
1020.599, 226.2148
1021.082, 216.9688
1021.564, 169.9062
1022.046, 189.0000
1022.528, 267.4922
1023.010, 319.9297
1023.492, 336.5703
1023.974, 303.6172
1024.456, 204.6641
1024.938, 105.4297
1025.421, 110.6797
1025.903, 210.7812
1026.385, 288.9375
1026.867, 346.5703
1027.349, 366.8281
1027.831, 339.7578
1028.313, 305.9258
1028.795, 292.4375
1029.278, 291.0938
1029.760, 279.8945
1030.242, 253.3828
1030.724, 270.4297
1031.206, 356.0703
1031.688, 394.8359
1032.170, 341.0156
1032.652, 260.8359
1033.135, 202.6367
1033.617, 168.5781
1034.099, 173.7734
1034.581, 242.4062
1035.063, 268.2539
1035.545, 228.1445
1036.027, 205.1992
1036.509, 227.1172
1036.991, 272.3164
1037.474, 323.0195
1037.956, 377.2539
1038.438, 420.0781
1038.920, 461.5898
1039.402, 471.4570
1039.884, 422.2734
1040.366, 375.3555
1040.848, 353.6992
1041.330, 350.7539
1041.813, 369.5039
1042.295, 414.6094
1042.777, 427.6133
1043.259, 356.7500
1043.741, 325.4609
1044.223, 397.6602
1044.705, 456.7422
1045.187, 410.0078
1045.670, 320.2734
1046.152, 306.4336
1046.634, 387.2148
1047.116, 431.0117
1047.598, 395.0391
1048.080, 365.6094
1048.562, 354.4180
1049.044, 362.2109
1049.526, 404.6680
1050.009, 465.7109
1050.491, 511.6289
1050.973, 543.0820
1051.455, 519.6367
1051.937, 345.4570
1052.419, 227.2617
1052.901, 290.6641
1053.383, 397.0039
1053.865, 434.4453
1054.348, 407.8984
1054.830, 351.6367
1055.312, 248.8047
1055.794, 188.9883
1056.276, 233.0664
1056.758, 279.6523
1057.240, 276.2305
1057.722, 253.7344
1058.205, 258.2656
1058.687, 279.1562
1059.169, 251.3398
1059.651, 122.5938
1060.133, 36.01172
1060.615, 32.34766
1061.097, 80.49609
1061.579, 218.1875
1062.062, 369.2227
1062.544, 424.8945
1063.026, 380.9766
1063.508, 326.4570
1063.990, 269.1250
1064.472, 242.5117
1064.954, 290.5312
1065.436, 343.4766
1065.918, 342.3125
1066.401, 314.5625
1066.883, 296.7305
1067.365, 290.7930
1067.847, 295.1992
1068.329, 303.1289
1068.811, 318.0977
1069.293, 347.6680
1069.775, 378.2383
1070.257, 406.7930
1070.740, 424.8516
1071.222, 411.7461
1071.704, 368.1953
1072.186, 343.1523
1072.668, 364.3750
1073.150, 399.0820
1073.632, 451.0352
1074.114, 492.2461
1074.597, 501.6680
1075.079, 480.2930
1075.561, 410.7188
1076.043, 295.4375
1076.525, 245.6602
1077.007, 391.0859
1077.489, 510.4805
1077.971, 479.1172
1078.453, 384.7148
1078.936, 269.9844
1079.418, 168.1094
1079.900, 138.0781
1080.382, 192.9766
1080.864, 235.3945
1081.346, 183.1602
1081.828, 155.3516
1082.310, 266.2383
1082.792, 387.2305
1083.275, 377.8672
1083.757, 283.5078
1084.239, 222.6836
1084.721, 224.7578
1085.203, 237.3594
1085.685, 254.7930
1086.167, 256.1133
1086.649, 203.5664
1087.131, 152.0430
1087.614, 174.6797
1088.096, 237.0547
1088.578, 243.6289
1089.060, 167.5117
1089.542, 99.24219
1090.024, 55.43750
1090.506, 53.13281
1090.988, 149.7773
1091.471, 251.5312
1091.953, 255.9570
1092.435, 193.5352
1092.917, 155.7227
1093.399, 167.3516
1093.881, 171.9766
1094.363, 124.3828
1094.845, 95.12500
1095.328, 151.4844
1095.810, 213.1445
1096.292, 189.2305
1096.774, 111.6250
1097.256, 71.57031
1097.738, 92.72656
1098.220, 118.4805
1098.702, 146.6602
1099.184, 155.5820
1099.667, 115.9492
1100.149, 69.99219
1100.631, 41.94922
1101.113, 41.10156
1101.595, 98.85156
1102.077, 243.7852
1102.559, 309.5430
1103.041, 182.2031
1103.523, 63.67578
1104.006, 31.24609
1104.488, 35.34375
1104.970, 41.41016
1105.452, 47.53125
1105.934, 57.33984
1106.416, 71.89844
1106.898, 86.57422
1107.380, 116.4727
1107.863, 124.9102
1108.345, 65.01562
1108.827, 12.84375
1109.309, 44.70312
1109.791, 125.1094
1110.273, 166.9492
1110.755, 158.0977
1111.237, 137.8047
1111.719, 84.94922
1112.202, 54.76172
1112.684, 84.67188
1113.166, 117.0547
1113.648, 96.83203
1114.130, 53.84766
1114.612, 62.40234
1115.094, 141.4180
1115.576, 188.9102
1116.058, 211.2500
1116.541, 191.4648
1117.023, 75.85156
1117.505, 20.68359
1117.987, 3.675781
1118.469, 79.20312
1118.951, 56.15234
1119.433, 88.92578
1119.915, 159.2930
1120.398, 126.7578
1120.880, 75.24609
1121.362, 7.234375
1121.844, 59.57422
1122.326, 24.48828
1122.808, 41.87500
1123.290, 31.37109
1123.772, 52.51562
1124.255, 64.42969
1124.737, 10.87891
1125.219, 38.12891
1125.701, 58.26172
1126.183, 139.6016
1126.665, 120.4258
1127.147, 62.54297
1127.629, 62.96094
1128.111, 117.7148
1128.594, 148.6797
1129.076, 149.4609
1129.558, 177.8633
1130.040, 253.3711
1130.522, 285.5430
1131.004, 221.3320
1131.486, 122.8906
1131.968, 59.03516
1132.450, 40.98828
1132.933, 181.5859
1133.415, 478.3008
1133.897, 566.9570
1134.379, 403.7227
1134.861, 256.7461
1135.343, 240.9375
1135.825, 282.3633
1136.307, 306.6992
1136.790, 314.8945
1137.272, 296.7148
1137.754, 262.3203
1138.236, 290.8516
1138.718, 374.9844
1139.200, 390.3242
1139.682, 296.8555
1140.164, 205.8555
1140.646, 223.0391
1141.129, 288.4727
1141.611, 296.9531
1142.093, 267.0703
1142.575, 243.6328
1143.057, 227.5273
1143.539, 202.0664
1144.021, 166.5820
1144.503, 154.9766
1144.985, 201.3984
1145.468, 246.6680
1145.950, 200.8398
1146.432, 121.8281
1146.914, 89.42578
1147.396, 97.45312
1147.878, 129.8906
1148.360, 177.5195
1148.842, 226.6406
1149.325, 277.6328
1149.807, 293.7383
1150.289, 204.7305
1150.771, 108.4258
1151.253, 114.0664
1151.735, 161.6289
1152.217, 145.0312
1152.699, 80.53516
1153.182, 80.14062
1153.664, 195.9219
1154.146, 294.4961
1154.628, 297.9141
1155.110, 282.6914
1155.592, 273.0078
1156.074, 281.6680
1156.556, 344.5820
1157.038, 429.1992
1157.521, 445.5312
1158.003, 363.5547
1158.485, 314.8164
1158.967, 388.1016
1159.449, 413.4883
1159.931, 269.0977
1160.413, 134.8438
1160.895, 146.0742
1161.377, 246.6484
1161.860, 336.4258
1162.342, 418.5938
1162.824, 437.2578
1163.306, 338.9727
1163.788, 277.2031
1164.270, 298.4336
1164.752, 304.9531
1165.234, 228.2656
1165.717, 143.2539
1166.199, 153.5430
1166.681, 246.5664
1167.163, 306.6055
1167.645, 327.4570
1168.127, 344.2656
1168.609, 357.6719
1169.091, 375.2227
1169.573, 403.3164
1170.056, 417.0742
1170.538, 386.2734
1171.020, 332.8242
1171.502, 325.4922
1171.984, 360.7031
1172.466, 385.2656
1172.948, 397.5195
1173.430, 415.3203
1173.912, 442.7578
1174.395, 472.7930
1174.877, 501.5195
1175.359, 518.3711
1175.841, 509.6562
1176.323, 482.4688
1176.805, 443.3867
1177.287, 399.9062
1177.769, 401.3203
1178.252, 448.7617
1178.734, 481.5195
1179.216, 472.4688
1179.698, 441.6172
1180.180, 394.1875
1180.662, 349.9805
1181.144, 347.7305
1181.626, 361.8672
1182.109, 366.5000
1182.591, 360.1602
1183.073, 324.0938
1183.555, 263.4219
1184.037, 231.5469
1184.519, 291.9727
1185.001, 341.6797
1185.483, 297.6250
1185.965, 253.6602
1186.448, 303.7305
1186.930, 388.6133
1187.412, 414.2148
1187.894, 376.4688
1188.376, 338.6758
1188.858, 309.5703
1189.340, 285.3906
1189.822, 273.2344
1190.304, 256.3867
1190.787, 208.2344
1191.269, 172.5352
1191.751, 198.6875
1192.233, 266.0117
1192.715, 305.0898
1193.197, 308.5938
1193.679, 329.0000
1194.161, 383.3398
1194.644, 387.9961
1195.126, 303.8828
1195.608, 249.0312
1196.090, 312.2539
1196.572, 251.7344
1197.054, 382.3281
1197.536, 258.1445
1198.018, 221.7930
1198.500, 269.3125
1198.983, 314.3906
1199.465, 344.4414
1199.947, 322.0000
1200.429, 231.6094
1200.911, 142.7734
1201.393, 121.2656
1201.875, 150.2266
1202.357, 229.7422
1202.839, 322.5508
1203.322, 339.5273
1203.804, 296.5859
1204.286, 239.5312
1204.768, 189.1055
1205.250, 184.1445
1205.732, 258.4336
1206.214, 330.4375
1206.696, 335.9805
1207.179, 310.0820
1207.661, 263.3438
1208.143, 218.0156
1208.625, 212.8867
1209.107, 231.3516
1209.589, 198.2930
1210.071, 77.41406
1210.553, 63.01953
1211.036, 314.9648
1211.518, 536.0234
1212.000, 668.3867
1212.482, 707.5703
1212.964, 570.9883
1213.446, 387.0156
1213.928, 380.4023
1214.410, 537.0117
1214.892, 545.8242
1215.375, 317.0703
1215.857, 190.2852
1216.339, 220.5820
1216.821, 241.9531
1217.303, 196.4727
1217.785, 121.3008
1218.267, 39.75000
1218.749, 26.48047
1219.231, 7.164063
1219.714, 89.66016
1220.196, 144.9297
1220.678, 161.7891
1221.160, 193.0586
1221.642, 244.4062
1222.124, 254.6172
1222.606, 190.1367
1223.088, 109.5391
1223.571, 74.34375
1224.053, 67.98438
1224.535, 79.34766
1225.017, 91.89844
1225.499, 55.89062
1225.981, 0.2656250
1226.463, 14.91406
1226.945, 111.9492
1227.427, 199.1836
1227.910, 239.8281
1228.392, 238.5859
1228.874, 158.7344
1229.356, 81.55469
1229.838, 59.76172
1230.320, 71.46484
1230.802, 108.8320
1231.284, 154.4062
1231.766, 149.9961
1232.249, 65.16797
1232.731, 21.44141
1233.213, 59.61328
1233.695, 71.84375
1234.177, 20.28516
1234.659, 22.64062
1235.141, 11.12500
1235.623, 21.00000
1236.106, 23.42188
1236.588, 2.636719
1237.070, 0.7500000
1237.552, 17.76172
1238.034, 64.06250
1238.516, 139.4648
1238.998, 192.4492
1239.480, 207.2930
1239.963, 203.9219
1240.445, 196.2070
1240.927, 182.9180
1241.409, 156.7422
1241.891, 129.6562
1242.373, 135.2773
1242.855, 154.1211
1243.337, 140.8477
1243.819, 100.5352
1244.302, 68.30078
1244.784, 55.91406
1245.266, 52.53516
1245.748, 70.61328
1246.230, 96.34766
1246.712, 146.9844
1247.194, 182.2070
1247.676, 155.8164
1248.158, 105.2617
1248.641, 84.76172
1249.123, 56.85156
1249.605, 23.42969
1250.087, 19.30859
1250.569, 17.42188
1251.051, 30.04297
1251.533, 16.78906
1252.015, 32.54297
1252.498, 80.32031
1252.980, 94.64453
1253.462, 90.36719
1253.944, 71.42188
1254.426, 43.87500
1254.908, 84.89844
1255.390, 178.8750
1255.872, 181.5234
1256.354, 93.06641
1256.837, 26.28906
1257.319, 18.78125
1257.801, 42.23438
1258.283, 84.40234
1258.765, 117.6289
1259.247, 76.34766
1259.729, 34.24609
1260.211, 117.2461
1260.693, 234.3555
1261.176, 211.7188
1261.658, 110.0820
1262.140, 49.17188
1262.622, 45.77344
1263.104, 73.98828
1263.586, 191.0391
1264.068, 244.2188
1264.550, 114.8867
1265.033, 11.01953
1265.515, 58.62500
1265.997, 154.8359
1266.479, 185.2578
1266.961, 156.9883
1267.443, 105.6094
1267.925, 16.85156
1268.407, 1.007813
1268.890, 68.12109
1269.372, 94.44141
1269.854, 42.75000
1270.336, 7.8125000E-02
1270.818, 0.0000000E+00
##END=



