##NAMES=Orthogersdorffite
##RRUFFID=R070342
##IDEAL CHEMISTRY=Ni^3+^(AsS)^3-^
##LOCALITY=Leichtenberg, Fichtelgebirge, Franconia, Bavaria, Germany
##OWNER=RRUFF
##SOURCE=Michael Scott
##DESCRIPTION=Dark grey metallic grains embedded in epoxy. Structure refined to determine space group.
##STATUS=The identification of this mineral is confirmed by single-crystal X-ray diffraction and chemical analysis.
##URL=rruff.info/R070342
##MEASURED CHEMISTRY=(Ni_0.94_Fe_0.04_Co_0.02_)_Σ=1_(As_0.99_Sb_0.01_)_Σ=1_S_1.00_
138.0910, 0.0000000E+00
138.5731, 12.22839
139.0553, 30.19470
139.5374, 42.13171
140.0195, 46.28641
140.5016, 43.15320
140.9837, 36.82520
141.4658, 21.85425
141.9480, 7.482880
142.4301, 0.3653260
142.9122, 3.104187
143.3943, 16.42441
143.8764, 25.81064
144.3585, 36.37067
144.8407, 41.92505
145.3228, 40.25873
145.8049, 35.19260
146.2870, 30.25024
146.7691, 26.62350
147.2512, 21.55008
147.7334, 12.82150
148.2155, 2.184540
148.6976, 9.252411
149.1797, 2.757233
149.6618, 10.08569
150.1439, 19.65683
150.6261, 22.29749
151.1082, 24.82480
151.5903, 28.85028
152.0724, 34.74725
152.5545, 41.38419
153.0366, 49.25150
153.5188, 57.75537
154.0009, 65.69272
154.4830, 77.05450
154.9651, 84.81055
155.4472, 85.47363
155.9293, 72.60349
156.4115, 61.52386
156.8936, 54.59177
157.3757, 51.61722
157.8578, 51.75128
158.3399, 59.05627
158.8221, 66.91531
159.3042, 71.07651
159.7863, 66.23956
160.2684, 61.74506
160.7505, 61.45932
161.2326, 64.78983
161.7148, 67.14386
162.1969, 65.87897
162.6790, 62.97632
163.1611, 60.36465
163.6432, 57.44037
164.1253, 55.92801
164.6075, 58.53384
165.0896, 65.41788
165.5717, 69.28592
166.0538, 61.81400
166.5359, 49.50851
167.0180, 41.63754
167.5002, 44.86536
167.9823, 52.07675
168.4644, 57.87524
168.9465, 61.59659
169.4286, 65.78448
169.9107, 74.87952
170.3929, 85.90106
170.8750, 92.79858
171.3571, 88.10455
171.8392, 79.51486
172.3213, 75.20361
172.8034, 76.62445
173.2856, 81.03391
173.7677, 90.37976
174.2498, 101.9842
174.7319, 106.5652
175.2140, 91.76315
175.6961, 67.99573
176.1783, 51.47046
176.6604, 46.70319
177.1425, 47.46423
177.6246, 47.21765
178.1067, 46.11288
178.5888, 45.13251
179.0710, 45.16296
179.5531, 45.84409
180.0352, 46.57123
180.5173, 47.83771
180.9994, 48.40817
181.4815, 44.64038
181.9637, 36.69131
182.4458, 30.39899
182.9279, 32.83276
183.4100, 41.64133
183.8921, 47.66681
184.3742, 45.74872
184.8564, 40.49768
185.3385, 44.28555
185.8206, 57.81711
186.3027, 72.25830
186.7848, 78.28412
187.2669, 76.77686
187.7491, 74.75800
188.2312, 74.74899
188.7133, 76.13202
189.1954, 78.10303
189.6775, 81.57291
190.1596, 81.39203
190.6418, 65.41873
191.1239, 34.34708
191.6060, 12.88510
192.0881, 16.77148
192.5702, 42.43076
193.0524, 58.14737
193.5345, 62.57516
194.0166, 60.53632
194.4987, 57.84763
194.9808, 54.34274
195.4629, 53.35382
195.9451, 57.76529
196.4272, 68.13748
196.9093, 72.71194
197.3914, 68.88159
197.8735, 62.75433
198.3556, 67.91895
198.8378, 86.24634
199.3199, 103.5139
199.8020, 109.7194
200.2841, 103.7992
200.7662, 105.0913
201.2483, 116.8033
201.7305, 134.3619
202.2126, 146.9805
202.6947, 154.4262
203.1768, 157.9146
203.6589, 157.0952
204.1410, 150.6146
204.6232, 150.4437
205.1053, 160.2963
205.5874, 175.9781
206.0695, 181.6145
206.5516, 172.9894
207.0337, 165.3629
207.5159, 169.9990
207.9980, 189.8792
208.4801, 206.1799
208.9622, 215.9521
209.4443, 220.4012
209.9264, 225.8649
210.4086, 233.7045
210.8907, 239.8348
211.3728, 239.1208
211.8549, 227.4080
212.3370, 223.9011
212.8191, 235.3161
213.3013, 258.6162
213.7834, 269.1832
214.2655, 261.3604
214.7476, 250.0210
215.2297, 249.6693
215.7118, 266.5764
216.1940, 276.9174
216.6761, 275.3233
217.1582, 262.3307
217.6403, 249.1192
218.1224, 235.2153
218.6045, 221.9223
219.0867, 210.6773
219.5688, 202.1607
220.0509, 194.0457
220.5330, 185.9119
221.0151, 177.6332
221.4972, 170.5515
221.9794, 165.0522
222.4615, 160.2523
222.9436, 155.5449
223.4257, 152.2485
223.9078, 145.9673
224.3899, 133.9022
224.8721, 114.8584
225.3542, 104.2169
225.8363, 105.7145
226.3184, 111.9740
226.8005, 114.6106
227.2827, 113.3035
227.7648, 108.7274
228.2469, 99.49863
228.7290, 84.31085
229.2111, 75.25397
229.6932, 75.59723
230.1754, 79.52151
230.6575, 79.22394
231.1396, 72.22473
231.6217, 65.35898
232.1038, 60.41949
232.5859, 57.64444
233.0681, 55.63437
233.5502, 54.93509
234.0323, 54.61450
234.5144, 53.42291
234.9965, 51.66110
235.4786, 48.46661
235.9608, 42.97092
236.4429, 34.25140
236.9250, 27.89618
237.4071, 24.75690
237.8892, 23.50543
238.3713, 22.18109
238.8535, 21.08380
239.3356, 19.34064
239.8177, 15.71442
240.2998, 8.165039
240.7819, 7.063232
241.2640, 15.67084
241.7462, 28.81207
242.2283, 37.91730
242.7104, 42.80499
243.1925, 43.89728
243.6746, 40.45782
244.1567, 30.36731
244.6389, 22.73041
245.1210, 16.99921
245.6031, 14.02606
246.0852, 16.30804
246.5673, 28.32043
247.0494, 37.95972
247.5316, 40.69299
248.0137, 34.77069
248.4958, 27.52008
248.9779, 17.78491
249.4600, 7.408691
249.9421, 0.1272580
250.4243, 3.063354
250.9064, 5.051636
251.3885, 7.032593
251.8706, 9.612335
252.3527, 9.973969
252.8348, 7.210144
253.3170, 2.806702
253.7991, 0.6406860
254.2812, 3.466553
254.7633, 4.605530
255.2454, 2.925659
255.7275, 3.170532
256.2097, 5.998779
256.6918, 4.715393
257.1739, 0.7213750
257.6560, 4.242432
258.1381, 12.37030
258.6202, 16.86456
259.1024, 13.16205
259.5845, 2.838745
260.0666, 8.909485
260.5487, 0.2663570
261.0308, 14.68787
261.5129, 19.92627
261.9951, 11.26758
262.4772, 2.778625
262.9593, 0.6618650
263.4414, 6.860474
263.9235, 9.828918
264.4056, 8.341003
264.8878, 4.795471
265.3699, 3.198425
265.8520, 3.654297
266.3341, 5.768494
266.8162, 10.59052
267.2983, 19.25018
267.7805, 22.77521
268.2626, 19.95294
268.7447, 13.28235
269.2268, 6.185242
269.7089, 2.140076
270.1910, 7.988770
270.6732, 9.349426
271.1553, 5.699707
271.6374, 2.486694
272.1195, 0.2191160
272.6016, 2.600037
273.0837, 4.519836
273.5659, 5.689392
274.0480, 7.968323
274.5301, 13.90277
275.0122, 23.81897
275.4943, 24.75671
275.9764, 13.25287
276.4586, 0.7100830
276.9407, 5.4076999E-02
277.4228, 17.46393
277.9049, 32.74115
278.3870, 37.49512
278.8691, 32.24255
279.3513, 29.05334
279.8334, 28.47388
280.3155, 28.55872
280.7976, 25.26947
281.2798, 18.32208
281.7619, 15.34387
282.2440, 22.14728
282.7261, 36.70148
283.2082, 42.15845
283.6903, 36.82489
284.1725, 28.62469
284.6546, 28.22821
285.1367, 35.29968
285.6188, 40.88568
286.1009, 40.66113
286.5830, 36.27600
287.0652, 34.86816
287.5473, 36.66724
288.0294, 40.13159
288.5115, 44.91583
288.9936, 50.60956
289.4757, 53.79529
289.9579, 53.95422
290.4400, 50.67584
290.9221, 39.52905
291.4042, 19.61749
291.8863, 3.031616
292.3684, 5.867920
292.8506, 23.85242
293.3327, 38.37848
293.8148, 42.40784
294.2969, 40.15320
294.7790, 39.33209
295.2611, 39.94843
295.7433, 41.30090
296.2254, 43.65497
296.7075, 46.37878
297.1896, 47.61646
297.6717, 46.60797
298.1538, 44.08667
298.6360, 40.52100
299.1181, 36.01324
299.6002, 32.14838
300.0823, 29.77393
300.5644, 28.90918
301.0465, 29.62903
301.5287, 32.28925
302.0108, 36.11267
302.4929, 40.71985
302.9750, 45.96344
303.4571, 50.72986
303.9392, 54.55554
304.4214, 57.40790
304.9035, 59.21722
305.3856, 59.53668
305.8677, 59.42432
306.3498, 59.93878
306.8319, 60.83319
307.3141, 61.24164
307.7962, 58.59631
308.2783, 56.02893
308.7604, 57.67224
309.2425, 66.95435
309.7246, 74.93237
310.2068, 72.62811
310.6889, 64.17755
311.1710, 59.28265
311.6531, 64.34808
312.1352, 73.37854
312.6173, 83.04242
313.0995, 94.14960
313.5816, 101.4345
314.0637, 98.51459
314.5458, 90.57727
315.0279, 87.09137
315.5100, 95.51495
315.9922, 106.2433
316.4743, 113.8191
316.9564, 116.6405
317.4385, 121.3967
317.9206, 133.4314
318.4027, 148.5770
318.8849, 159.5393
319.3670, 159.8172
319.8491, 159.6523
320.3312, 164.0521
320.8133, 174.8253
321.2954, 181.3228
321.7776, 180.1315
322.2597, 174.2487
322.7418, 166.8691
323.2239, 156.4404
323.7060, 146.5610
324.1881, 137.3903
324.6703, 128.7550
325.1524, 123.3023
325.6345, 125.9229
326.1166, 129.4914
326.5987, 128.4153
327.0808, 118.1494
327.5630, 109.1224
328.0451, 103.1063
328.5272, 100.1468
329.0093, 96.36572
329.4914, 91.38330
329.9735, 86.47351
330.4557, 82.42712
330.9378, 80.56848
331.4199, 76.97906
331.9020, 69.19281
332.3841, 59.06171
332.8662, 56.82465
333.3484, 68.20734
333.8305, 78.83624
334.3126, 79.64917
334.7947, 66.15613
335.2768, 59.15680
335.7589, 62.96185
336.2411, 72.00195
336.7232, 71.29333
337.2053, 57.45001
337.6874, 43.70728
338.1695, 36.23718
338.6516, 35.83197
339.1338, 37.45374
339.6159, 41.34033
340.0980, 46.73035
340.5801, 53.36407
341.0622, 61.77515
341.5443, 67.03369
342.0265, 65.06189
342.5086, 57.05518
342.9907, 55.02185
343.4728, 60.04266
343.9549, 66.86731
344.4370, 69.10938
344.9192, 67.09924
345.4013, 64.15753
345.8834, 61.81036
346.3655, 59.37427
346.8476, 53.83649
347.3297, 45.04657
347.8119, 37.93213
348.2940, 40.47388
348.7761, 48.92242
349.2582, 51.61597
349.7403, 41.65698
350.2225, 27.76404
350.7046, 24.75446
351.1867, 31.32605
351.6688, 37.16449
352.1509, 31.63928
352.6331, 21.45361
353.1152, 17.51544
353.5973, 25.33026
354.0794, 34.13800
354.5615, 32.45459
355.0436, 23.45349
355.5258, 16.80035
356.0079, 20.46716
356.4900, 27.33105
356.9721, 31.42798
357.4542, 31.55267
357.9363, 29.62793
358.4185, 24.37067
358.9006, 18.22028
359.3827, 15.32898
359.8648, 21.69269
360.3469, 28.26312
360.8290, 29.66370
361.3112, 24.64606
361.7933, 20.29645
362.2754, 19.01172
362.7575, 19.47412
363.2396, 20.25586
363.7217, 21.76831
364.2039, 22.82806
364.6860, 23.93060
365.1681, 25.07623
365.6502, 23.04358
366.1323, 11.23578
366.6144, 0.1119380
367.0966, 3.887146
367.5787, 9.326965
368.0608, 18.87036
368.5429, 22.62659
369.0250, 21.43677
369.5071, 19.44061
369.9893, 15.67828
370.4714, 12.23370
370.9535, 10.39307
371.4356, 11.87134
371.9177, 10.57196
372.3998, 3.532349
372.8820, 4.857727
373.3641, 3.012085
373.8462, 14.38165
374.3283, 28.14508
374.8104, 28.66449
375.2925, 14.35956
375.7747, 6.039795
376.2568, 4.584717
376.7389, 7.098511
377.2210, 10.81909
377.7031, 15.96991
378.1852, 19.20526
378.6674, 18.70142
379.1495, 15.50983
379.6316, 14.45032
380.1137, 15.73175
380.5958, 17.12665
381.0779, 17.00732
381.5601, 15.33337
382.0422, 11.39001
382.5243, 3.123901
383.0064, 5.128479
383.4885, 3.813538
383.9706, 5.687439
384.4528, 13.09729
384.9349, 7.633850
385.4170, 3.497803
385.8991, 7.686035
386.3812, 1.543274
386.8633, 6.607605
387.3455, 9.101196
387.8276, 7.655518
388.3097, 6.222839
388.7918, 8.542786
389.2739, 10.54724
389.7560, 7.505615
390.2382, 1.562378
390.7203, 8.132385
391.2024, 5.550171
391.6845, 1.351868
392.1666, 7.055115
392.6487, 11.31079
393.1309, 12.51288
393.6130, 7.519836
394.0951, 2.839355
394.5772, 9.179321
395.0593, 6.926636
395.5414, 1.300415
396.0236, 4.440247
396.5057, 11.89398
396.9878, 17.03760
397.4699, 18.28943
397.9520, 16.76520
398.4341, 15.99420
398.9163, 17.09583
399.3984, 17.79443
399.8805, 17.29510
400.3626, 15.43262
400.8447, 12.62750
401.3268, 7.389893
401.8090, 2.316895
402.2911, 1.600464
402.7732, 7.346863
403.2553, 11.91766
403.7374, 12.91150
404.2195, 10.56451
404.7017, 9.468994
405.1838, 10.22821
405.6659, 10.59894
406.1480, 7.105286
406.6301, 0.3931270
407.1122, 3.224670
407.5944, 1.559570
408.0765, 10.48065
408.5586, 15.49121
409.0407, 16.66425
409.5228, 16.07068
410.0049, 13.47797
410.4871, 10.16449
410.9692, 10.70569
411.4513, 16.24353
411.9334, 22.11774
412.4155, 23.61719
412.8976, 21.85895
413.3798, 18.24286
413.8619, 10.23621
414.3440, 2.495667
414.8261, 0.6345830
415.3082, 4.743835
415.7903, 9.570313
416.2725, 11.77551
416.7546, 12.77551
417.2367, 14.25073
417.7188, 17.77740
418.2009, 20.67358
418.6830, 21.77991
419.1652, 21.25372
419.6473, 19.61835
420.1294, 14.83789
420.6115, 10.62000
421.0937, 9.180725
421.5758, 12.39307
422.0579, 15.03467
422.5400, 15.01758
423.0221, 14.31976
423.5042, 16.28687
423.9864, 26.62433
424.4685, 33.24493
424.9506, 31.63513
425.4327, 21.34204
425.9148, 15.56476
426.3969, 16.18427
426.8791, 19.16937
427.3612, 21.26538
427.8433, 22.42188
428.3254, 22.69385
428.8075, 21.53510
429.2896, 19.70349
429.7718, 20.66418
430.2539, 25.29828
430.7360, 27.79895
431.2181, 23.97705
431.7002, 14.52020
432.1823, 7.675049
432.6645, 3.944092
433.1466, 2.539246
433.6287, 2.757446
434.1108, 4.484253
434.5929, 7.303894
435.0750, 12.89380
435.5572, 18.64648
436.0393, 18.57031
436.5214, 12.96509
437.0035, 8.185120
437.4856, 11.23132
437.9677, 17.62384
438.4499, 20.55347
438.9320, 15.36627
439.4141, 11.31079
439.8962, 17.75659
440.3783, 30.71857
440.8604, 39.73840
441.3426, 38.68640
441.8247, 34.62518
442.3068, 30.65546
442.7889, 27.06262
443.2710, 23.72766
443.7531, 20.05042
444.2353, 17.60077
444.7174, 17.14362
445.1995, 21.32178
445.6816, 24.78088
446.1637, 26.42273
446.6458, 26.69507
447.1280, 26.76782
447.6101, 26.08142
448.0922, 25.63245
448.5743, 26.08142
449.0564, 29.10236
449.5385, 30.81079
450.0207, 30.18842
450.5028, 28.32306
450.9849, 26.98291
451.4670, 25.97638
451.9491, 26.37494
452.4312, 30.24823
452.9134, 37.01208
453.3955, 37.25061
453.8776, 30.06238
454.3597, 21.23590
454.8418, 16.33142
455.3239, 14.70740
455.8061, 13.82086
456.2882, 12.82251
456.7703, 12.71820
457.2524, 15.79010
457.7345, 21.29346
458.2166, 26.27368
458.6988, 28.78979
459.1809, 29.90857
459.6630, 30.41168
460.1451, 30.29871
460.6272, 30.57465
461.1093, 33.51935
461.5915, 36.61603
462.0736, 36.65118
462.5557, 29.19513
463.0378, 22.43439
463.5199, 19.70740
464.0020, 21.01471
464.4842, 21.15894
464.9663, 16.64935
465.4484, 12.88953
465.9305, 12.94385
466.4126, 22.84204
466.8947, 25.79688
467.3769, 17.43262
467.8590, 4.062073
468.3411, 4.854248
468.8232, 10.83527
469.3053, 8.462402
469.7874, 8.089600
470.2696, 37.42938
470.7517, 49.97070
471.2338, 41.60089
471.7159, 27.24646
472.1980, 20.73596
472.6801, 21.85596
473.1623, 20.83490
473.6444, 14.86469
474.1265, 8.660461
474.6086, 12.42792
475.0907, 24.58881
475.5728, 34.93469
476.0550, 37.30121
476.5371, 34.68036
477.0192, 31.22742
477.5013, 27.05750
477.9834, 23.11847
478.4655, 18.83997
478.9477, 15.62946
479.4298, 15.59833
479.9119, 22.45209
480.3940, 28.71307
480.8761, 29.39996
481.3582, 26.25104
481.8404, 24.23773
482.3225, 25.84070
482.8046, 28.23755
483.2867, 30.31714
483.7688, 32.09741
484.2509, 33.15991
484.7331, 33.15460
485.2152, 32.56732
485.6973, 31.93207
486.1794, 32.12305
486.6615, 30.54126
487.1436, 25.49927
487.6258, 18.18225
488.1079, 16.35229
488.5900, 21.76434
489.0721, 27.86353
489.5542, 31.53125
490.0363, 32.78137
490.5185, 30.86548
491.0006, 24.84882
491.4827, 18.86304
491.9648, 19.49579
492.4470, 25.51453
492.9291, 30.23328
493.4112, 31.33136
493.8933, 29.81604
494.3754, 25.82147
494.8575, 19.84839
495.3397, 15.35907
495.8218, 16.11841
496.3039, 18.75446
496.7860, 19.25543
497.2681, 16.34363
497.7502, 14.04834
498.2324, 14.67932
498.7145, 17.16034
499.1966, 20.04541
499.6787, 25.16797
500.1608, 28.32812
500.6429, 28.22211
501.1251, 24.89618
501.6072, 19.48602
502.0893, 4.386536
502.5714, 6.046631
503.0535, 3.756714
503.5356, 20.21771
504.0178, 35.29828
504.4999, 39.19403
504.9820, 36.09003
505.4641, 30.98444
505.9462, 22.87079
506.4283, 18.36017
506.9105, 21.09955
507.3926, 28.52661
507.8747, 29.72394
508.3568, 24.39056
508.8389, 18.32397
509.3210, 15.66577
509.8032, 15.55359
510.2853, 15.21155
510.7674, 13.90259
511.2495, 14.03723
511.7316, 21.35480
512.2137, 31.80017
512.6959, 37.04608
513.1780, 28.30316
513.6601, 17.71118
514.1422, 13.31622
514.6243, 14.43176
515.1064, 15.73395
515.5886, 14.71191
516.0707, 13.53522
516.5528, 13.45624
517.0349, 14.57538
517.5170, 16.92712
517.9991, 25.32745
518.4813, 33.07141
518.9634, 30.52197
519.4455, 7.756653
519.9276, 7.977905
520.4097, 8.780518
520.8918, 2.612915
521.3740, 7.376587
521.8561, 3.509460
522.3382, 0.3583980
522.8203, 2.121643
523.3024, 10.48560
523.7845, 17.75781
524.2667, 24.04919
524.7488, 27.43011
525.2309, 23.69379
525.7130, 14.74164
526.1951, 7.035583
526.6772, 3.807617
527.1594, 2.633545
527.6415, 1.273621
528.1236, 6.998352
528.6057, 7.654602
529.0878, 7.734741
529.5699, 25.09930
530.0521, 32.33862
530.5342, 25.29175
531.0163, 20.42706
531.4984, 26.20117
531.9805, 35.43213
532.4626, 40.50397
532.9448, 37.57184
533.4269, 33.78003
533.9090, 29.95575
534.3911, 25.85413
534.8732, 19.98712
535.3553, 9.341125
535.8375, 3.538879
536.3196, 7.176575
536.8017, 21.55750
537.2838, 27.38184
537.7659, 23.01312
538.2480, 15.65698
538.7302, 12.27075
539.2123, 12.59027
539.6944, 15.52802
540.1765, 22.17139
540.6586, 28.89398
541.1407, 30.64819
541.6229, 28.18201
542.1050, 24.26648
542.5871, 19.61041
543.0692, 14.67798
543.5513, 8.574341
544.0334, 1.415222
544.5156, 1.674133
544.9977, 6.086243
545.4798, 16.45337
545.9619, 22.83636
546.4440, 22.16394
546.9261, 20.20496
547.4083, 15.03540
547.8904, 9.606934
548.3725, 9.533752
548.8546, 18.59827
549.3367, 26.89294
549.8188, 32.52075
550.3010, 35.45050
550.7831, 34.68976
551.2652, 29.32971
551.7473, 23.29108
552.2294, 19.52570
552.7115, 17.77539
553.1937, 15.12921
553.6758, 10.86932
554.1579, 7.741333
554.6400, 11.63287
555.1221, 19.69012
555.6042, 23.45813
556.0864, 16.26666
556.5685, 7.251343
557.0506, 6.214783
557.5327, 11.14807
558.0148, 14.61145
558.4969, 9.213623
558.9791, 4.240417
559.4612, 6.182922
559.9433, 17.80457
560.4254, 25.81512
560.9075, 27.61371
561.3896, 26.05145
561.8718, 23.19977
562.3539, 18.26819
562.8360, 13.12140
563.3181, 6.493103
563.8002, 0.4379880
564.2823, 1.174194
564.7645, 10.58600
565.2466, 18.27313
565.7287, 19.75555
566.2108, 16.09851
566.6929, 11.52472
567.1750, 5.971619
567.6572, 1.699951
568.1393, 1.773560
568.6214, 4.361267
569.1035, 5.786255
569.5856, 5.342773
570.0677, 4.297791
570.5499, 3.219543
571.0320, 2.484497
571.5141, 2.140320
571.9962, 0.8872070
572.4783, 1.764954
572.9604, 7.064514
573.4426, 15.93665
573.9247, 24.14966
574.4068, 34.07477
574.8889, 40.21417
575.3710, 39.24902
575.8531, 29.10870
576.3353, 23.09430
576.8174, 22.94720
577.2995, 24.42511
577.7816, 22.79614
578.2637, 18.33508
578.7458, 14.62775
579.2280, 11.10675
579.7101, 8.557251
580.1922, 8.699097
580.6743, 11.38873
581.1564, 14.58844
581.6385, 17.41980
582.1207, 20.22192
582.6028, 24.15839
583.0849, 28.86102
583.5670, 31.75281
584.0491, 28.93689
584.5313, 25.21301
585.0134, 24.96259
585.4955, 30.53009
585.9776, 33.28180
586.4597, 29.83392
586.9418, 23.96863
587.4240, 18.72369
587.9061, 12.55176
588.3882, 9.766541
588.8703, 12.71979
589.3524, 18.84259
589.8345, 19.77802
590.3167, 13.84082
590.7988, 9.358398
591.2809, 12.52686
591.7630, 20.34656
592.2451, 15.68762
592.7272, 2.046204
593.2094, 15.89838
593.6915, 5.147156
594.1736, 18.18066
594.6557, 29.87524
595.1378, 23.55927
595.6199, 15.17853
596.1021, 18.85974
596.5842, 27.39056
597.0663, 30.49518
597.5485, 16.98199
598.0306, 5.656555
598.5127, 4.551270
598.9948, 11.15668
599.4769, 14.26147
599.9590, 10.91150
600.4412, 6.715637
600.9233, 2.721436
601.4054, 1.325806
601.8875, 0.5833130
602.3696, 6.861633
602.8517, 14.17273
603.3339, 13.36664
603.8160, 5.309875
604.2981, 2.187134
604.7802, 6.359436
605.2623, 12.20923
605.7444, 11.72119
606.2266, 7.011841
606.7087, 3.731628
607.1908, 3.859314
607.6729, 6.260864
608.1550, 11.82391
608.6371, 19.22144
609.1193, 24.34155
609.6014, 24.38965
610.0835, 22.69427
610.5656, 20.67010
611.0477, 18.45410
611.5298, 15.46442
612.0120, 9.661255
612.4941, 5.114075
612.9762, 5.201233
613.4583, 11.94391
613.9404, 16.08429
614.4225, 17.21039
614.9047, 15.67468
615.3868, 9.835327
615.8689, 0.2865600
616.3510, 4.341980
616.8331, 0.6368410
617.3152, 8.056335
617.7974, 20.02277
618.2795, 33.41132
618.7616, 41.73767
619.2437, 37.07758
619.7258, 29.20380
620.2079, 25.17847
620.6901, 25.41199
621.1722, 26.38293
621.6543, 29.19830
622.1364, 30.72162
622.6185, 28.32117
623.1006, 18.08588
623.5828, 12.64325
624.0649, 14.76752
624.5470, 19.13995
625.0291, 18.76581
625.5112, 12.33203
625.9933, 8.612427
626.4755, 10.36707
626.9576, 14.12000
627.4397, 10.81860
627.9218, 1.682251
628.4039, 3.987061
628.8860, 2.474670
629.3682, 12.91370
629.8503, 15.55811
630.3324, 11.30084
630.8145, 7.055481
631.2966, 6.018555
631.7787, 7.046753
632.2609, 9.731384
632.7430, 14.55011
633.2251, 18.90588
633.7072, 22.69568
634.1893, 25.51111
634.6714, 27.05212
635.1536, 27.29407
635.6357, 26.34308
636.1178, 24.19318
636.5999, 21.09125
637.0820, 15.66699
637.5641, 7.492065
638.0463, 5.090576
638.5284, 15.15210
639.0105, 29.81586
639.4926, 29.94189
639.9747, 17.50751
640.4568, 7.366028
640.9390, 12.38470
641.4211, 20.89813
641.9032, 19.94562
642.3853, 8.649719
642.8674, 2.199707
643.3495, 12.87982
643.8317, 26.37195
644.3138, 32.61890
644.7959, 25.59283
645.2780, 20.60065
645.7601, 18.66602
646.2422, 17.87628
646.7244, 16.10510
647.2065, 13.33624
647.6886, 9.120056
648.1707, 1.895813
648.6528, 4.669373
649.1349, 1.499146
649.6171, 10.11981
650.0992, 21.11548
650.5813, 27.68115
651.0634, 30.19391
651.5455, 31.10321
652.0276, 30.09674
652.5098, 27.47589
652.9919, 20.37292
653.4740, 14.18774
653.9561, 13.30182
654.4382, 19.42639
654.9203, 22.79694
655.4025, 17.51788
655.8846, 12.95093
656.3667, 16.55322
656.8488, 33.65698
657.3309, 42.52747
657.8130, 41.10968
658.2952, 33.83002
658.7773, 24.40686
659.2594, 13.29700
659.7415, 8.028015
660.2236, 12.50238
660.7057, 20.38379
661.1879, 23.06421
661.6700, 21.74921
662.1521, 19.73889
662.6342, 18.39850
663.1163, 17.07666
663.5984, 13.59393
664.0806, 8.780212
664.5627, 9.150269
665.0448, 24.56879
665.5269, 37.86804
666.0090, 40.63599
666.4911, 30.88629
666.9733, 25.89185
667.4554, 28.22278
667.9375, 30.21307
668.4196, 23.21814
668.9017, 7.721741
669.3839, 0.1011350
669.8660, 2.511902
670.3481, 9.577148
670.8302, 18.83844
671.3123, 27.74768
671.7944, 30.25348
672.2766, 20.92938
672.7587, 10.46259
673.2408, 5.409912
673.7229, 4.251465
674.2050, 3.725342
674.6871, 3.463684
675.1693, 3.770020
675.6514, 4.287842
676.1335, 5.317566
676.6156, 9.017517
677.0977, 17.22882
677.5798, 23.92426
678.0620, 26.41870
678.5441, 24.96466
679.0262, 20.57434
679.5083, 12.93036
679.9904, 7.001770
680.4725, 7.856384
680.9547, 12.78296
681.4368, 17.63330
681.9189, 22.05542
682.4010, 24.80542
682.8831, 23.79242
683.3652, 21.24939
683.8474, 19.40356
684.3295, 18.93573
684.8116, 18.89447
685.2937, 19.83264
685.7758, 20.81366
686.2579, 20.32147
686.7401, 18.04333
687.2222, 15.88617
687.7043, 13.46808
688.1864, 12.21741
688.6685, 16.62177
689.1506, 26.34314
689.6328, 34.23969
690.1149, 38.46454
690.5970, 38.18262
691.0791, 28.96753
691.5612, 12.81256
692.0433, 0.1294560
692.5255, 1.247864
693.0076, 0.5545650
693.4897, 0.4555050
693.9718, 2.184082
694.4539, 3.768921
694.9360, 2.233643
695.4182, 1.008667
695.9003, 2.871582
696.3824, 10.05939
696.8645, 9.601318
697.3466, 0.7140500
697.8287, 12.86841
698.3109, 17.78955
698.7930, 16.72595
699.2751, 16.47839
699.7572, 18.80743
700.2393, 21.34540
700.7214, 20.29156
701.2036, 17.06329
701.6857, 14.51990
702.1678, 13.44281
702.6499, 13.83301
703.1320, 17.39398
703.6141, 22.39227
704.0963, 24.40192
704.5784, 21.83801
705.0605, 18.36041
705.5426, 13.75690
706.0247, 8.896851
706.5068, 8.170166
706.9890, 12.48218
707.4711, 16.87347
707.9532, 19.12000
708.4353, 19.43884
708.9174, 16.86768
709.3995, 11.87604
709.8817, 9.270020
710.3638, 15.80615
710.8459, 23.97040
711.3280, 26.24512
711.8101, 21.06262
712.2922, 17.45520
712.7744, 20.65405
713.2565, 24.26849
713.7386, 23.67804
714.2207, 15.92603
714.7028, 11.93701
715.1849, 13.02539
715.6671, 15.53149
716.1492, 14.85999
716.6313, 11.38654
717.1134, 9.411682
717.5955, 9.525208
718.0776, 11.83923
718.5598, 19.80414
719.0419, 29.63263
719.5240, 33.84637
720.0061, 25.69769
720.4882, 16.39453
720.9703, 3.372498
721.4525, 15.36200
721.9346, 22.15833
722.4167, 24.04034
722.8988, 6.289063
723.3809, 13.89062
723.8630, 11.33264
724.3452, 8.359070
724.8273, 19.53113
725.3094, 4.638245
725.7915, 15.58661
726.2736, 16.22003
726.7557, 21.57452
727.2379, 16.70526
727.7200, 14.99475
728.2021, 23.64948
728.6842, 26.50348
729.1663, 20.45929
729.6484, 26.11536
730.1306, 10.86749
730.6127, 13.96350
731.0948, 24.97394
731.5769, 19.44476
732.0590, 25.28937
732.5411, 30.81085
733.0233, 34.10583
733.5054, 31.59534
733.9875, 28.60284
734.4696, 25.38275
734.9517, 24.27075
735.4338, 25.80353
735.9160, 27.70251
736.3981, 26.97552
736.8802, 25.33374
737.3623, 25.66815
737.8444, 30.89966
738.3266, 33.98767
738.8087, 29.22382
739.2908, 21.75659
739.7729, 19.51642
740.2551, 28.31580
740.7372, 31.87128
741.2193, 26.15027
741.7014, 16.04047
742.1835, 11.68756
742.6656, 13.16388
743.1478, 17.29535
743.6299, 25.75812
744.1120, 32.96832
744.5941, 25.82458
745.0762, 9.345398
745.5583, 1.100647
746.0405, 9.199646
746.5226, 21.10760
747.0047, 23.55975
747.4868, 17.94501
747.9689, 13.48486
748.4510, 10.61664
748.9332, 10.07153
749.4153, 13.52521
749.8974, 20.24091
750.3795, 20.29120
750.8616, 12.73163
751.3438, 6.931152
751.8259, 10.43591
752.3080, 18.77771
752.7901, 24.13281
753.2722, 26.65424
753.7543, 27.58063
754.2365, 25.10651
754.7186, 21.51215
755.2007, 21.00641
755.6828, 24.58862
756.1649, 23.40259
756.6470, 10.11346
757.1292, 3.206177
757.6113, 9.424377
758.0934, 7.460815
758.5755, 2.056824
759.0576, 8.301270
759.5397, 17.19708
760.0219, 15.15454
760.5040, 6.055847
760.9861, 3.075317
761.4682, 9.275818
761.9503, 16.14459
762.4324, 17.37408
762.9146, 15.30066
763.3967, 12.35248
763.8788, 5.203430
764.3609, 3.663757
764.8430, 16.08295
765.3251, 31.08142
765.8073, 34.76825
766.2894, 23.32617
766.7715, 15.90558
767.2536, 16.09839
767.7357, 19.62195
768.2178, 19.07666
768.7000, 15.49243
769.1821, 13.27930
769.6642, 14.52417
770.1463, 16.52014
770.6284, 16.39050
771.1105, 15.39874
771.5927, 15.98810
772.0748, 22.83154
772.5569, 26.69208
773.0390, 23.12579
773.5211, 15.55292
774.0032, 13.03857
774.4854, 17.12903
774.9675, 20.45605
775.4496, 20.62811
775.9317, 18.79547
776.4138, 17.85754
776.8959, 17.59241
777.3781, 16.75757
777.8602, 13.50513
778.3423, 10.37476
778.8244, 9.530762
779.3065, 10.66895
779.7886, 12.38959
780.2708, 15.74988
780.7529, 17.98602
781.2350, 17.31232
781.7171, 14.40393
782.1992, 15.41064
782.6813, 21.10419
783.1635, 27.56250
783.6456, 35.52783
784.1277, 42.24597
784.6098, 34.57172
785.0919, 14.31256
785.5740, 0.9588010
786.0562, 4.104492
786.5383, 15.95569
787.0204, 25.15851
787.5025, 31.01910
787.9846, 31.84546
788.4667, 18.96674
788.9489, 9.081726
789.4310, 10.89484
789.9131, 25.38562
790.3952, 32.00043
790.8773, 29.36853
791.3594, 25.00446
791.8416, 25.38214
792.3237, 28.28265
792.8058, 27.32092
793.2879, 22.08966
793.7700, 15.90033
794.2521, 8.338196
794.7343, 2.533325
795.2164, 2.320068
795.6985, 10.13000
796.1806, 13.95538
796.6627, 9.290710
797.1448, 4.027649
797.6270, 3.875366
798.1091, 9.889465
798.5912, 11.31732
799.0733, 7.007263
799.5554, 4.058533
800.0375, 13.82141
800.5197, 28.68018
801.0018, 32.21454
801.4839, 20.80347
801.9660, 9.929871
802.4481, 9.972656
802.9302, 14.04498
803.4124, 16.05420
803.8945, 13.11023
804.3766, 13.76605
804.8587, 20.11340
805.3408, 27.29907
805.8229, 31.15729
806.3051, 31.69659
806.7872, 30.38147
807.2693, 27.38568
807.7514, 22.13092
808.2335, 10.18622
808.7156, 3.120667
809.1978, 8.587463
809.6799, 1.544006
810.1620, 4.029053
810.6441, 1.692444
811.1262, 9.333618
811.6083, 9.214172
812.0905, 4.283081
812.5726, 12.79895
813.0547, 3.790710
813.5368, 16.84137
814.0189, 24.32397
814.5010, 26.53790
814.9832, 7.444763
815.4653, 15.14069
815.9474, 12.06665
816.4295, 8.884644
816.9116, 21.05469
817.3937, 5.280273
817.8759, 17.20978
818.3580, 18.08014
818.8401, 24.01178
819.3222, 18.98364
819.8043, 17.34058
820.2864, 26.66071
820.7686, 29.91040
821.2507, 20.19641
821.7328, 23.53448
822.2149, 21.30847
822.6970, 15.95038
823.1791, 14.12903
823.6613, 18.54755
824.1434, 22.68341
824.6255, 22.54205
825.1076, 19.58472
825.5897, 15.42218
826.0718, 2.367493
826.5540, 0.9188840
827.0361, 18.39850
827.5182, 39.05481
828.0003, 42.23602
828.4824, 28.16138
828.9645, 17.99292
829.4467, 15.19678
829.9288, 15.50024
830.4109, 15.15576
830.8930, 14.29584
831.3751, 13.21698
831.8572, 11.42206
832.3394, 10.75586
832.8215, 13.27130
833.3036, 16.47723
833.7857, 17.61743
834.2678, 16.05695
834.7499, 14.01300
835.2321, 11.19519
835.7142, 8.917480
836.1963, 10.05768
836.6784, 13.29559
837.1605, 13.29376
837.6426, 8.418945
838.1248, 3.070618
838.6069, 0.5139160
839.0890, 2.141296
839.5711, 1.276489
840.0532, 3.938599
840.5353, 8.197205
841.0175, 12.18787
841.4996, 14.50793
841.9817, 12.32031
842.4638, 5.254333
842.9459, 3.910767
843.4280, 10.18433
843.9102, 16.96179
844.3923, 14.27466
844.8744, 7.062378
845.3565, 3.454224
845.8386, 5.873962
846.3207, 9.079224
846.8029, 11.19385
847.2850, 13.11658
847.7671, 16.10150
848.2492, 22.87091
848.7313, 22.08990
849.2134, 10.88129
849.6956, 0.5239260
850.1777, 1.132141
850.6598, 6.592712
851.1419, 15.27332
851.6240, 24.47327
852.1061, 30.22504
852.5883, 27.62109
853.0704, 21.37128
853.5525, 15.24878
854.0346, 8.097351
854.5167, 7.635376
854.9988, 19.88885
855.4810, 31.41034
855.9631, 30.62543
856.4452, 17.23895
856.9273, 11.53870
857.4094, 14.30304
857.8915, 20.59192
858.3737, 31.36029
858.8558, 40.38562
859.3379, 36.42853
859.8200, 17.01764
860.3021, 3.652405
860.7842, 9.391846
861.2664, 19.60004
861.7485, 26.69336
862.2306, 30.76135
862.7127, 30.23218
863.1948, 23.84650
863.6769, 18.39435
864.1591, 21.09137
864.6412, 27.73511
865.1233, 26.07483
865.6054, 16.64868
866.0875, 11.48956
866.5696, 24.72089
867.0518, 38.10321
867.5339, 39.86975
868.0160, 27.56293
868.4981, 19.80786
868.9802, 19.14062
869.4623, 18.22314
869.9445, 12.17365
870.4266, 2.942871
870.9087, 4.974121
871.3908, 17.14636
871.8729, 27.27106
872.3550, 25.32159
872.8372, 20.40076
873.3193, 20.02454
873.8014, 23.64978
874.2835, 26.96521
874.7656, 31.48260
875.2477, 32.31744
875.7299, 26.77118
876.2120, 16.93347
876.6941, 9.714966
877.1762, 5.147888
877.6583, 4.974609
878.1404, 11.57196
878.6226, 21.32007
879.1047, 32.52136
879.5869, 43.00031
880.0690, 47.45660
880.5511, 38.14087
881.0332, 29.09344
881.5153, 24.74805
881.9974, 23.18402
882.4796, 20.16724
882.9617, 15.03857
883.4438, 12.45422
883.9259, 14.17993
884.4080, 17.60516
884.8901, 19.61682
885.3723, 20.02740
885.8544, 18.23511
886.3365, 12.58368
886.8186, 7.086426
887.3007, 1.950012
887.7828, 1.227356
888.2650, 4.7424000E-02
888.7471, 7.349792
889.2292, 14.48077
889.7113, 21.73602
890.1934, 26.54504
890.6755, 24.23041
891.1577, 16.84821
891.6398, 10.93713
892.1219, 7.807678
892.6040, 7.197937
893.0861, 11.61426
893.5682, 16.74115
894.0504, 18.06635
894.5325, 12.11932
895.0146, 10.28662
895.4967, 15.24286
895.9788, 19.37781
896.4609, 12.90094
896.9431, 1.325073
897.4252, 2.738892
897.9073, 9.935608
898.3894, 23.00128
898.8715, 24.84082
899.3536, 23.71753
899.8358, 28.14093
900.3179, 39.71246
900.8000, 44.78284
901.2821, 40.23944
901.7642, 31.76892
902.2463, 19.79260
902.7285, 5.671204
903.2106, 1.015503
903.6927, 0.4117430
904.1748, 2.511780
904.6569, 4.346313
905.1390, 7.319946
905.6212, 16.45953
906.1033, 29.40784
906.5854, 36.46875
907.0675, 27.39215
907.5496, 21.28217
908.0317, 25.47174
908.5139, 34.77789
908.9960, 30.07550
909.4781, 11.30090
909.9602, 1.625671
910.4423, 0.5556030
910.9244, 8.329163
911.4066, 9.751770
911.8887, 8.512939
912.3708, 11.45923
912.8529, 30.12897
913.3350, 41.08923
913.8171, 36.63507
914.2993, 25.62524
914.7814, 17.83545
915.2635, 13.42358
915.7456, 11.30115
916.2277, 11.47711
916.7098, 13.11041
917.1920, 16.89313
917.6741, 20.84619
918.1562, 21.37982
918.6383, 16.28351
919.1204, 13.16821
919.6025, 16.71960
920.0847, 21.08856
920.5668, 21.89685
921.0489, 18.19110
921.5310, 18.48578
922.0131, 23.32660
922.4952, 28.46228
922.9774, 31.34290
923.4595, 30.49622
923.9416, 20.98138
924.4237, 3.774292
924.9058, 7.776062
925.3879, 7.146484
925.8701, 0.6229250
926.3522, 10.99371
926.8343, 26.54724
927.3164, 36.01447
927.7985, 38.98083
928.2806, 40.22211
928.7628, 42.52069
929.2449, 43.75995
929.7270, 38.04895
930.2091, 28.45752
930.6912, 23.14758
931.1733, 33.28943
931.6555, 39.05713
932.1376, 30.89777
932.6197, 16.40845
933.1018, 6.460388
933.5839, 0.9402470
934.0660, 2.745422
934.5482, 14.22516
935.0303, 27.48560
935.5124, 34.11255
935.9945, 34.96173
936.4766, 30.79810
936.9587, 19.42834
937.4409, 9.719421
937.9230, 4.090393
938.4051, 1.566589
938.8872, 1.523743
939.3693, 4.148560
939.8514, 9.164246
940.3336, 17.07733
940.8157, 23.20764
941.2978, 22.46637
941.7799, 18.10278
942.2620, 13.59955
942.7441, 9.457581
943.2263, 8.610901
943.7084, 15.86279
944.1905, 22.90735
944.6726, 26.76880
945.1547, 27.57013
945.6368, 27.73193
946.1190, 27.74359
946.6011, 24.42175
947.0832, 13.73315
947.5653, 1.833191
948.0474, 5.524353
948.5295, 7.574097
949.0117, 2.528259
949.4938, 20.23969
949.9759, 37.40460
950.4580, 44.74377
950.9401, 44.50684
951.4222, 38.09680
951.9044, 25.33960
952.3865, 15.31012
952.8686, 9.150146
953.3507, 6.624268
953.8328, 9.324707
954.3149, 14.65100
954.7971, 19.90485
955.2792, 25.56232
955.7613, 27.14777
956.2434, 20.83344
956.7255, 13.74420
957.2076, 9.871765
957.6898, 9.165955
958.1719, 10.16833
958.6540, 12.87378
959.1361, 16.24097
959.6182, 20.47400
960.1003, 24.35425
960.5825, 26.79333
961.0646, 27.80157
961.5467, 28.20728
962.0288, 28.59692
962.5109, 27.63110
962.9930, 24.61560
963.4752, 20.41107
963.9573, 15.38409
964.4394, 10.47894
964.9215, 12.34296
965.4036, 27.59900
965.8857, 41.32556
966.3679, 40.33905
966.8500, 31.14050
967.3321, 21.96808
967.8142, 11.79407
968.2963, 6.059631
968.7784, 5.664795
969.2606, 7.697449
969.7427, 11.05359
970.2248, 14.45203
970.7069, 11.48450
971.1890, 1.791687
971.6711, 5.511169
972.1533, 2.015991
972.6354, 3.933838
973.1175, 6.462769
973.5996, 5.454163
974.0817, 6.374084
974.5638, 9.017944
975.0460, 14.57672
975.5281, 25.37762
976.0102, 37.78668
976.4923, 45.19281
976.9744, 47.79413
977.4565, 46.17413
977.9387, 39.18671
978.4208, 29.65930
978.9029, 14.64606
979.3850, 0.3967290
979.8671, 8.072083
980.3492, 7.562317
980.8314, 3.361267
981.3135, 4.817261
981.7956, 13.23529
982.2777, 18.03326
982.7598, 19.87579
983.2419, 21.27307
983.7241, 23.03741
984.2062, 23.02747
984.6883, 15.34430
985.1704, 11.25494
985.6525, 17.66205
986.1346, 33.07819
986.6168, 42.28687
987.0989, 45.32648
987.5810, 43.42053
988.0631, 34.47980
988.5452, 23.22083
989.0273, 11.66156
989.5095, 1.448669
989.9916, 2.954224
990.4737, 2.544006
990.9558, 9.288025
991.4379, 17.42749
991.9200, 24.67377
992.4022, 27.45154
992.8843, 26.06189
993.3664, 20.80109
993.8485, 10.88092
994.3306, 2.776489
994.8127, 1.968750
995.2949, 4.278320
995.7770, 6.050354
996.2591, 6.643799
996.7412, 10.13049
997.2233, 17.87909
997.7054, 23.44043
998.1876, 19.63593
998.6697, 12.20789
999.1518, 16.32941
999.6339, 28.87085
1000.116, 37.35193
1000.598, 36.20270
1001.080, 29.87122
1001.562, 13.20563
1002.044, 4.575134
1002.527, 4.334351
1003.009, 15.54376
1003.491, 30.18524
1003.973, 34.76691
1004.455, 33.57776
1004.937, 26.83209
1005.419, 19.17590
1005.901, 16.74097
1006.384, 22.56384
1006.866, 27.75751
1007.348, 33.29022
1007.830, 34.38965
1008.312, 26.29889
1008.794, 11.30084
1009.276, 1.542725
1009.758, 2.851929
1010.240, 1.425537
1010.723, 14.11383
1011.205, 27.64520
1011.687, 25.52759
1012.169, 13.80383
1012.651, 9.783997
1013.133, 17.49390
1013.615, 21.39264
1014.097, 17.68311
1014.580, 13.43097
1015.062, 21.42566
1015.544, 35.13147
1016.026, 42.27600
1016.508, 40.23236
1016.990, 33.33881
1017.472, 15.08551
1017.954, 0.3909910
1018.436, 0.8748780
1018.919, 10.51715
1019.401, 17.49652
1019.883, 20.05487
1020.365, 21.19153
1020.847, 21.26294
1021.329, 21.87366
1021.811, 25.52521
1022.293, 30.97327
1022.776, 35.26953
1023.258, 38.75378
1023.740, 39.05945
1024.222, 34.35492
1024.704, 29.06964
1025.186, 31.38281
1025.668, 38.32043
1026.150, 38.15442
1026.632, 28.60480
1027.115, 21.17761
1027.597, 27.33301
1028.079, 34.14453
1028.561, 31.16901
1029.043, 18.99072
1029.525, 12.74091
1030.007, 13.42322
1030.489, 18.38074
1030.972, 30.04535
1031.454, 40.90833
1031.936, 37.80518
1032.418, 26.26733
1032.900, 18.21222
1033.382, 20.19727
1033.864, 21.92572
1034.346, 21.97443
1034.828, 21.77789
1035.311, 23.68866
1035.793, 27.08081
1036.275, 26.78345
1036.757, 22.35925
1037.239, 19.04669
1037.721, 21.70367
1038.203, 25.56171
1038.685, 27.23975
1039.167, 26.74402
1039.650, 25.94110
1040.132, 24.64941
1040.614, 23.70166
1041.096, 22.85565
1041.578, 23.41199
1042.060, 31.80743
1042.542, 42.13269
1043.024, 42.34222
1043.507, 19.53491
1043.989, 5.297363
1044.471, 9.133362
1044.953, 18.46564
1045.435, 25.03021
1045.917, 28.78564
1046.399, 28.76013
1046.881, 25.04932
1047.364, 19.92444
1047.846, 11.23853
1048.328, 5.121094
1048.810, 6.752441
1049.292, 14.63159
1049.774, 21.06128
1050.256, 25.58337
1050.738, 30.84174
1051.220, 38.80273
1051.703, 43.79987
1052.185, 32.72400
1052.667, 14.39618
1053.149, 6.179871
1053.631, 14.15173
1054.113, 19.19873
1054.595, 13.45587
1055.077, 6.889465
1055.559, 5.684570
1056.042, 8.998535
1056.524, 11.15131
1057.006, 12.54724
1057.488, 13.34528
1057.970, 12.50580
1058.452, 13.35974
1058.934, 19.79169
1059.416, 28.85645
1059.899, 35.20935
1060.381, 40.08691
1060.863, 37.90308
1061.345, 26.58850
1061.827, 13.87030
1062.309, 5.309082
1062.791, 1.542297
1063.273, 6.866882
1063.755, 21.15436
1064.238, 28.08014
1064.720, 13.11835
1065.202, 3.793518
1065.684, 12.10486
1066.166, 29.13727
1066.648, 31.77350
1067.130, 23.47919
1067.612, 16.35748
1068.094, 13.64240
1068.577, 14.96027
1069.059, 26.16394
1069.541, 37.04938
1070.023, 36.35486
1070.505, 20.35492
1070.987, 16.96002
1071.469, 25.89178
1071.951, 34.08392
1072.434, 34.90643
1072.916, 31.45740
1073.398, 24.38751
1073.880, 15.89581
1074.362, 13.35291
1074.844, 21.94818
1075.326, 31.29712
1075.808, 42.78040
1076.291, 50.01361
1076.773, 39.58618
1077.255, 18.08997
1077.737, 3.803955
1078.219, 0.5477910
1078.701, 1.973022
1079.183, 17.25726
1079.665, 31.72644
1080.147, 39.38885
1080.630, 40.58209
1081.112, 35.19482
1081.594, 23.58130
1082.076, 17.16522
1082.558, 22.97742
1083.040, 30.33789
1083.522, 28.83521
1084.004, 23.46832
1084.486, 21.18201
1084.969, 24.64856
1085.451, 25.34576
1085.933, 22.45386
1086.415, 19.46014
1086.897, 20.32465
1087.379, 22.16364
1087.861, 18.71240
1088.343, 11.30902
1088.826, 6.076843
1089.308, 4.874573
1089.790, 7.151978
1090.272, 14.59277
1090.754, 23.09778
1091.236, 24.12488
1091.718, 20.14227
1092.200, 23.99091
1092.682, 38.14893
1093.165, 51.11719
1093.647, 59.61584
1094.129, 60.69702
1094.611, 49.70813
1095.093, 29.14270
1095.575, 14.71985
1096.057, 6.505554
1096.539, 3.139221
1097.022, 5.455872
1097.504, 9.887146
1097.986, 13.12592
1098.468, 16.06427
1098.950, 20.32312
1099.432, 28.78143
1099.914, 30.93329
1100.396, 25.49841
1100.879, 17.82397
1101.361, 7.917419
1101.843, 0.1929930
1102.325, 8.654785
1102.807, 27.85223
1103.289, 37.16821
1103.771, 14.40228
1104.253, 1.231079
1104.735, 7.361877
1105.218, 22.17987
1105.700, 33.64526
1106.182, 41.18347
1106.664, 39.93109
1107.146, 29.18341
1107.628, 18.21112
1108.110, 12.14075
1108.592, 7.845215
1109.074, 2.028564
1109.557, 3.481689
1110.039, 2.888672
1110.521, 21.46423
1111.003, 27.99359
1111.485, 10.87512
1111.967, 6.728516
1112.449, 3.361267
1112.931, 21.50226
1113.414, 24.07031
1113.896, 3.670959
1114.378, 3.988037
1114.860, 3.560059
1115.342, 13.58392
1115.824, 19.44727
1116.306, 21.52277
1116.788, 17.96429
1117.271, 11.78204
1117.753, 9.656372
1118.235, 16.80414
1118.717, 24.09003
1119.199, 32.18646
1119.681, 37.94952
1120.163, 36.60327
1120.645, 30.66620
1121.127, 29.52563
1121.609, 32.48566
1122.092, 29.42792
1122.574, 2.770081
1123.056, 15.07886
1123.538, 11.41119
1124.020, 4.927551
1124.502, 18.86530
1124.984, 30.11493
1125.466, 35.69287
1125.949, 34.57855
1126.431, 31.23193
1126.913, 31.19141
1127.395, 27.80701
1127.877, 9.925415
1128.359, 18.35345
1128.841, 17.54053
1129.323, 14.48047
1129.806, 36.92963
1130.288, 30.32208
1130.770, 18.24963
1131.252, 27.03485
1131.734, 43.64252
1132.216, 50.52661
1132.698, 43.08002
1133.180, 35.44238
1133.662, 27.41614
1134.145, 20.20709
1134.627, 13.16724
1135.109, 8.278442
1135.591, 10.02509
1136.073, 16.41779
1136.555, 22.49219
1137.037, 27.24182
1137.519, 30.92188
1138.001, 33.54187
1138.484, 35.69696
1138.966, 40.42767
1139.448, 44.48956
1139.930, 36.91229
1140.412, 18.72711
1140.894, 4.876709
1141.376, 4.148499
1141.858, 4.917603
1142.341, 2.527832
1142.823, 1.329834
1143.305, 14.63818
1143.787, 37.12805
1144.269, 41.86127
1144.751, 22.47766
1145.233, 6.510498
1145.715, 12.40582
1146.198, 23.68286
1146.680, 33.13837
1147.162, 39.89111
1147.644, 37.25415
1148.126, 26.08771
1148.608, 18.02087
1149.090, 16.45117
1149.572, 19.47504
1150.054, 30.52594
1150.536, 42.02759
1151.019, 47.01373
1151.501, 45.25275
1151.983, 37.52173
1152.465, 24.23663
1152.947, 14.18768
1153.429, 16.47467
1153.911, 22.35846
1154.393, 25.29364
1154.876, 25.47748
1155.358, 22.66681
1155.840, 15.22498
1156.322, 10.37494
1156.804, 8.323730
1157.286, 8.454041
1157.768, 12.02191
1158.250, 16.23090
1158.733, 16.22217
1159.215, 13.52460
1159.697, 14.90332
1160.179, 24.96912
1160.661, 31.11255
1161.143, 31.35437
1161.625, 28.88800
1162.107, 27.59253
1162.589, 26.04401
1163.072, 20.04700
1163.554, 9.889282
1164.036, 5.028137
1164.518, 10.20233
1165.000, 17.26941
1165.482, 25.78296
1165.964, 32.98639
1166.446, 32.41803
1166.928, 26.91693
1167.411, 22.63501
1167.893, 21.53088
1168.375, 20.08032
1168.857, 16.62390
1169.339, 13.10980
1169.821, 8.597595
1170.303, 5.919128
1170.785, 14.63165
1171.268, 29.63043
1171.750, 32.82928
1172.232, 11.65167
1172.714, 4.438660
1173.196, 1.910095
1173.678, 7.255066
1174.160, 17.38678
1174.642, 28.25531
1175.125, 38.24731
1175.607, 47.07404
1176.089, 53.01819
1176.571, 56.25342
1177.053, 53.90613
1177.535, 38.07300
1178.017, 21.33466
1178.499, 16.43768
1178.981, 23.17761
1179.464, 27.03979
1179.946, 27.82214
1180.428, 25.82056
1180.910, 16.97852
1181.392, 9.205872
1181.874, 5.418274
1182.356, 5.389709
1182.838, 12.11279
1183.320, 26.14496
1183.803, 30.10492
1184.285, 22.38544
1184.767, 13.35797
1185.249, 9.585388
1185.731, 8.324890
1186.213, 6.935364
1186.695, 6.649475
1187.177, 9.350830
1187.660, 14.13385
1188.142, 13.99670
1188.624, 6.641724
1189.106, 4.271118
1189.588, 26.51501
1190.070, 48.52667
1190.552, 48.38208
1191.034, 29.22125
1191.516, 19.99927
1191.999, 21.90210
1192.481, 21.87378
1192.963, 16.14581
1193.445, 9.133484
1193.927, 1.747437
1194.409, 2.319458
1194.891, 2.627625
1195.373, 17.03015
1195.855, 28.04291
1196.338, 36.01312
1196.820, 37.01959
1197.302, 27.04242
1197.784, 15.32855
1198.266, 10.71594
1198.748, 11.05383
1199.230, 15.28796
1199.712, 24.92560
1200.195, 25.53809
1200.677, 15.72321
1201.159, 6.708801
1201.641, 5.272278
1202.123, 6.507141
1202.605, 3.895935
1203.087, 0.4489140
1203.569, 1.505920
1204.052, 9.522278
1204.534, 16.67712
1205.016, 23.57495
1205.498, 26.31738
1205.980, 17.43561
1206.462, 6.863586
1206.944, 6.657837
1207.426, 13.54889
1207.908, 20.89178
1208.391, 32.39575
1208.873, 28.84491
1209.355, 5.837891
1209.837, 12.95807
1210.319, 0.2940060
1210.801, 22.79028
1211.283, 26.37531
1211.765, 16.43707
1212.247, 15.73914
1212.730, 32.45520
1213.212, 36.38068
1213.694, 22.12158
1214.176, 5.711243
1214.658, 3.348267
1215.140, 6.731628
1215.622, 5.117798
1216.104, 0.1817630
1216.587, 2.361511
1217.069, 16.57751
1217.551, 27.29321
1218.033, 32.15039
1218.515, 32.56189
1218.997, 26.61310
1219.479, 19.45135
1219.961, 16.56665
1220.443, 18.49054
1220.926, 24.49664
1221.408, 37.70392
1221.890, 40.30511
1222.372, 25.39337
1222.854, 8.453857
1223.336, 9.435547
1223.818, 17.91107
1224.300, 22.15222
1224.782, 20.59192
1225.265, 20.50610
1225.747, 22.68732
1226.229, 22.28058
1226.711, 16.69446
1227.193, 10.97614
1227.675, 10.67371
1228.157, 14.06866
1228.639, 20.50769
1229.122, 30.46948
1229.604, 34.06250
1230.086, 30.16388
1230.568, 27.55725
1231.050, 32.11133
1231.532, 36.41290
1232.014, 30.59418
1232.496, 19.77448
1232.979, 8.152954
1233.461, 5.202820
1233.943, 2.760864
1234.425, 17.63434
1234.907, 31.65253
1235.389, 22.33655
1235.871, 9.711853
1236.353, 15.54437
1236.835, 28.75525
1237.318, 34.68573
1237.800, 32.05182
1238.282, 28.18677
1238.764, 23.02112
1239.246, 17.66742
1239.728, 11.47778
1240.210, 7.110840
1240.692, 8.203247
1241.175, 11.91583
1241.657, 14.15668
1242.139, 14.39941
1242.621, 15.94141
1243.103, 18.82471
1243.585, 22.66541
1244.067, 29.72717
1244.549, 35.06146
1245.031, 37.46594
1245.514, 34.60059
1245.996, 19.88074
1246.478, 9.400330
1246.960, 15.40472
1247.442, 1.432617
1247.924, 20.44031
1248.406, 30.35663
1248.888, 36.25781
1249.370, 41.07648
1249.853, 43.33215
1250.335, 39.30719
1250.817, 29.38605
1251.299, 27.54498
1251.781, 33.54565
1252.263, 34.87378
1252.745, 14.22589
1253.227, 1.744080
1253.710, 2.711731
1254.192, 5.341980
1254.674, 19.52649
1255.156, 37.69183
1255.638, 40.65277
1256.120, 28.89728
1256.602, 22.82098
1257.084, 43.44623
1257.567, 58.56683
1258.049, 56.63422
1258.531, 46.34650
1259.013, 38.66772
1259.495, 32.85498
1259.977, 25.03241
1260.459, 15.44489
1260.941, 9.895020
1261.423, 14.92603
1261.906, 19.18884
1262.388, 19.79755
1262.870, 19.10132
1263.352, 21.48798
1263.834, 24.87927
1264.316, 22.74951
1264.798, 14.41534
1265.280, 11.43036
1265.762, 18.73535
1266.245, 26.66144
1266.727, 34.60236
1267.209, 40.12622
1267.691, 37.91730
1268.173, 31.96594
1268.655, 28.67041
1269.137, 28.50562
1269.619, 29.20197
1270.102, 31.19312
1270.584, 31.30573
1271.066, 26.52869
1271.548, 21.91632
1272.030, 28.41217
1272.512, 38.20270
1272.994, 46.19794
1273.476, 51.30658
1273.958, 50.14380
1274.441, 40.89746
1274.923, 33.48901
1275.405, 31.20032
1275.887, 29.21051
1276.369, 21.43781
1276.851, 12.89557
1277.333, 7.227112
1277.815, 5.184387
1278.297, 11.44269
1278.780, 26.64459
1279.262, 34.41284
1279.744, 29.92291
1280.226, 23.72241
1280.708, 25.90485
1281.190, 27.91425
1281.672, 19.80151
1282.154, 7.057068
1282.637, 15.12830
1283.119, 40.69989
1283.601, 50.39398
1284.083, 35.25446
1284.565, 18.22083
1285.047, 10.28925
1285.529, 7.714111
1286.011, 8.975891
1286.494, 13.17108
1286.976, 18.57330
1287.458, 24.64087
1287.940, 29.39410
1288.422, 32.33478
1288.904, 34.79767
1289.386, 37.51239
1289.868, 39.89832
1290.350, 43.36536
1290.833, 44.06116
1291.315, 27.46393
1291.797, 4.469116
1292.279, 1.534851
1292.761, 15.94885
1293.243, 30.73260
1293.725, 41.12732
1294.207, 34.14856
1294.689, 16.29498
1295.172, 0.0000000E+00
##END=



