##NAMES=Orthominasragrite
##RRUFFID=R060974
##IDEAL CHEMISTRY=V^4+^O(S^6+^O_4_)&#183;5H_2_O
##LOCALITY=Temple Mountain, Emery County, Utah, USA
##OWNER=RRUFF
##SOURCE=Michael Scott
##DESCRIPTION=Light blue grainy crust
##STATUS=The identification of this mineral is not yet confirmed.
##URL=rruff.info/R060974
204.4521, 0.0000000E+00
204.9342, 11.25818
205.4163, 34.14612
205.8984, 43.99707
206.3805, 31.75598
206.8627, 17.02710
207.3448, 13.50732
207.8269, 17.98779
208.3090, 23.69958
208.7911, 29.28967
209.2732, 33.57690
209.7554, 41.20422
210.2375, 42.58301
210.7196, 36.18713
211.2017, 29.96912
211.6838, 24.83997
212.1659, 26.07739
212.6481, 39.88513
213.1302, 56.34241
213.6123, 54.74890
214.0944, 28.11670
214.5765, 3.339844
215.0586, 8.531738
215.5408, 8.837158
216.0229, 1.290894
216.5050, 26.82715
216.9871, 54.32178
217.4692, 57.26550
217.9513, 28.91223
218.4335, 7.493408
218.9156, 16.11743
219.3977, 43.18555
219.8798, 59.33643
220.3619, 56.33350
220.8440, 43.13684
221.3262, 31.10779
221.8083, 19.61218
222.2904, 11.68347
222.7725, 9.734863
223.2546, 11.62000
223.7367, 13.85461
224.2189, 15.73303
224.7010, 17.59094
225.1831, 20.02124
225.6652, 23.07336
226.1473, 25.62793
226.6294, 25.20410
227.1115, 24.96606
227.5937, 31.26819
228.0758, 45.99573
228.5579, 59.56189
229.0400, 59.62732
229.5221, 45.97412
230.0042, 35.37866
230.4864, 30.30298
230.9685, 29.14722
231.4506, 33.21790
231.9327, 42.51917
232.4148, 47.79370
232.8969, 37.99829
233.3791, 13.03491
233.8612, 2.750977
234.3433, 5.789673
234.8254, 1.245605
235.3075, 10.31384
235.7896, 27.79126
236.2718, 43.02576
236.7539, 49.44788
237.2360, 47.50488
237.7181, 48.01379
238.2002, 54.08704
238.6823, 59.73486
239.1645, 61.78906
239.6466, 60.46741
240.1287, 56.74902
240.6108, 50.56958
241.0929, 42.66223
241.5750, 37.10010
242.0572, 32.74402
242.5393, 31.50842
243.0214, 38.29199
243.5035, 48.97681
243.9856, 52.40063
244.4677, 41.34790
244.9499, 22.21863
245.4320, 17.58850
245.9141, 42.29077
246.3962, 59.87512
246.8783, 56.92773
247.3604, 43.46350
247.8426, 34.64624
248.3247, 36.36682
248.8068, 44.55835
249.2889, 50.89429
249.7710, 55.65955
250.2531, 57.86035
250.7352, 56.49548
251.2174, 52.88208
251.6995, 47.59290
252.1816, 40.92700
252.6637, 34.50745
253.1458, 30.80103
253.6279, 30.96094
254.1101, 31.61389
254.5922, 30.43298
255.0743, 31.25635
255.5564, 39.24048
256.0385, 53.81995
256.5207, 68.04016
257.0028, 74.12231
257.4849, 70.42847
257.9670, 65.23047
258.4491, 55.21228
258.9312, 46.91394
259.4134, 43.82043
259.8955, 45.61755
260.3776, 50.37036
260.8597, 57.09485
261.3418, 65.89404
261.8239, 70.67236
262.3060, 67.15662
262.7881, 64.38306
263.2703, 63.90234
263.7524, 65.83875
264.2345, 71.43872
264.7166, 82.45520
265.1987, 96.41479
265.6808, 99.70105
266.1630, 79.73035
266.6451, 63.77576
267.1272, 56.63794
267.6093, 55.15137
268.0914, 56.15149
268.5735, 58.35889
269.0557, 60.63538
269.5378, 60.08337
270.0199, 54.34082
270.5020, 50.19019
270.9841, 49.85449
271.4662, 50.26440
271.9484, 47.71289
272.4305, 41.58191
272.9126, 35.75500
273.3947, 38.44067
273.8768, 53.57007
274.3589, 64.71399
274.8411, 71.04651
275.3232, 72.44360
275.8053, 65.23816
276.2874, 51.01294
276.7695, 38.22021
277.2516, 35.86621
277.7338, 44.18042
278.2159, 49.89099
278.6980, 50.27307
279.1801, 50.76025
279.6622, 54.33777
280.1443, 60.16333
280.6265, 65.91797
281.1086, 71.27966
281.5907, 75.41443
282.0728, 74.37402
282.5549, 64.90942
283.0370, 57.28870
283.5192, 59.86975
284.0013, 66.76575
284.4834, 69.37109
284.9655, 64.43738
285.4476, 54.17004
285.9297, 38.41138
286.4119, 15.47827
286.8940, 0.5113530
287.3761, 6.313354
287.8582, 20.58350
288.3403, 27.82507
288.8224, 24.38513
289.3046, 19.25427
289.7867, 18.54175
290.2688, 21.98547
290.7509, 28.68323
291.2330, 40.65198
291.7151, 52.88391
292.1973, 59.31592
292.6794, 60.39929
293.1615, 57.01294
293.6436, 44.02197
294.1257, 27.94189
294.6078, 22.73584
295.0900, 32.73755
295.5721, 44.47009
296.0542, 41.38062
296.5363, 23.38416
297.0184, 11.54065
297.5005, 11.90918
297.9827, 17.08179
298.4648, 20.28735
298.9469, 21.33496
299.4290, 24.62537
299.9111, 34.51379
300.3932, 50.23999
300.8754, 60.21838
301.3575, 62.25732
301.8396, 61.55029
302.3217, 58.79895
302.8038, 54.94458
303.2859, 51.74976
303.7681, 50.10876
304.2502, 49.75061
304.7323, 49.83215
305.2144, 51.61633
305.6965, 52.28125
306.1786, 48.39893
306.6608, 44.78320
307.1429, 49.46216
307.6250, 63.98694
308.1071, 78.54919
308.5892, 76.62610
309.0714, 45.53455
309.5535, 28.37671
310.0356, 33.70239
310.5177, 43.41650
310.9998, 45.95532
311.4819, 41.84753
311.9640, 40.19324
312.4461, 51.73743
312.9283, 77.42004
313.4104, 86.26025
313.8925, 59.79285
314.3746, 34.84570
314.8567, 19.85718
315.3388, 13.54089
315.8210, 13.33203
316.3031, 19.03845
316.7852, 27.71729
317.2673, 31.21631
317.7494, 28.67285
318.2315, 22.60547
318.7137, 9.312500
319.1958, 4.607178
319.6779, 13.17566
320.1600, 14.75134
320.6421, 11.92725
321.1242, 6.090942
321.6064, 2.918457
322.0885, 9.272583
322.5706, 10.43433
323.0527, 9.788696
323.5348, 10.53064
324.0169, 12.74438
324.4991, 14.11340
324.9812, 9.432373
325.4633, 2.770996
325.9454, 3.061523
326.4275, 12.09375
326.9096, 24.77612
327.3918, 40.67102
327.8739, 57.53174
328.3560, 67.54517
328.8381, 64.11841
329.3202, 57.08130
329.8023, 53.79089
330.2845, 54.64197
330.7666, 59.72498
331.2487, 71.78357
331.7308, 85.95203
332.2129, 86.88635
332.6950, 66.24854
333.1772, 47.92114
333.6593, 40.87878
334.1414, 40.30066
334.6235, 37.86926
335.1056, 30.97937
335.5877, 24.19165
336.0699, 24.22021
336.5520, 35.16492
337.0341, 42.98376
337.5162, 46.51672
337.9983, 47.94104
338.4804, 48.51428
338.9626, 48.38782
339.4447, 47.31921
339.9268, 45.24280
340.4089, 42.14246
340.8910, 36.47937
341.3731, 20.29321
341.8553, 10.22729
342.3374, 16.53833
342.8195, 29.61023
343.3016, 33.55627
343.7837, 20.26147
344.2658, 9.6557997E-02
344.7480, 2.198730
345.2301, 22.02197
345.7122, 43.33252
346.1943, 61.09631
346.6764, 71.89880
347.1585, 69.47742
347.6407, 54.42615
348.1228, 38.21228
348.6049, 32.15442
349.0870, 35.76392
349.5691, 38.67395
350.0512, 38.99597
350.5334, 39.95154
351.0155, 44.09912
351.4976, 50.80359
351.9797, 56.83362
352.4618, 63.00000
352.9439, 65.87109
353.4261, 58.06335
353.9082, 38.85229
354.3903, 27.17676
354.8724, 36.67493
355.3545, 58.48279
355.8366, 71.64111
356.3188, 73.86414
356.8009, 71.64685
357.2830, 65.74109
357.7651, 57.91602
358.2472, 52.40356
358.7293, 50.78540
359.2115, 49.54321
359.6936, 43.40125
360.1757, 30.14709
360.6578, 20.21143
361.1399, 13.76855
361.6220, 10.89209
362.1041, 12.97119
362.5862, 19.09399
363.0684, 26.40735
363.5505, 33.24048
364.0326, 39.26025
364.5147, 40.42065
364.9968, 30.73975
365.4789, 23.01733
365.9611, 18.94165
366.4432, 18.19751
366.9253, 21.78027
367.4074, 29.84839
367.8895, 38.14624
368.3716, 37.97168
368.8538, 24.32178
369.3359, 17.40149
369.8180, 26.51978
370.3001, 36.17065
370.7822, 36.72009
371.2643, 29.56104
371.7465, 23.85364
372.2286, 28.70105
372.7107, 40.86487
373.1928, 45.27417
373.6749, 38.49609
374.1570, 31.93152
374.6392, 31.25964
375.1213, 34.55823
375.6034, 40.49146
376.0855, 51.72925
376.5676, 60.05859
377.0497, 53.30469
377.5319, 34.68176
378.0140, 25.29700
378.4961, 35.00928
378.9782, 51.92444
379.4603, 58.67712
379.9424, 55.59949
380.4246, 46.31348
380.9067, 21.79224
381.3888, 2.742554
381.8709, 9.498047
382.3530, 1.948120
382.8351, 17.44263
383.3173, 26.42871
383.7994, 29.12549
384.2815, 31.20471
384.7636, 35.20654
385.2457, 35.86975
385.7278, 30.16467
386.2100, 20.77502
386.6921, 10.86694
387.1742, 1.743530
387.6563, 6.043701
388.1384, 11.67004
388.6205, 15.55737
389.1027, 16.03503
389.5848, 9.055664
390.0669, 2.309814
390.5490, 1.243530
391.0311, 4.617310
391.5132, 6.706543
391.9954, 3.177246
392.4775, 5.069336
392.9596, 14.77722
393.4417, 27.55444
393.9238, 38.04138
394.4059, 43.63074
394.8881, 45.74963
395.3702, 45.01123
395.8523, 40.41833
396.3344, 36.38806
396.8165, 35.82947
397.2986, 38.77075
397.7808, 46.70447
398.2629, 62.19885
398.7450, 77.66882
399.2271, 84.57764
399.7092, 83.42114
400.1913, 75.11511
400.6735, 50.21106
401.1556, 25.43042
401.6377, 15.75757
402.1198, 19.58069
402.6019, 26.41895
403.0840, 30.86719
403.5662, 32.32397
404.0483, 28.32727
404.5304, 9.672485
405.0125, 2.788696
405.4946, 1.879272
405.9767, 3.178345
406.4589, 2.210693
406.9410, 6.330322
407.4231, 14.88525
407.9052, 13.20789
408.3873, 0.8422850
408.8694, 7.423706
409.3516, 3.557007
409.8336, 10.99438
410.3158, 3.084717
410.7979, 13.03467
411.2800, 23.51758
411.7621, 20.11841
412.2442, 11.81482
412.7263, 14.91772
413.2085, 30.77539
413.6906, 40.18164
414.1727, 32.31177
414.6548, 20.06140
415.1369, 20.37158
415.6190, 34.33667
416.1012, 44.79919
416.5833, 39.46838
417.0654, 28.77856
417.5475, 28.36560
418.0296, 39.54626
418.5117, 52.74854
418.9939, 62.40356
419.4760, 68.09924
419.9581, 66.36108
420.4402, 46.93884
420.9223, 33.40002
421.4044, 39.76770
421.8866, 53.11780
422.3687, 53.38562
422.8508, 35.25598
423.3329, 13.06995
423.8150, 9.161743
424.2971, 31.54102
424.7793, 42.19897
425.2614, 26.03564
425.7435, 12.91797
426.2256, 18.09473
426.7077, 35.15015
427.1898, 49.28442
427.6720, 52.44812
428.1541, 47.87451
428.6362, 39.74646
429.1183, 26.10999
429.6004, 20.22107
430.0826, 34.41272
430.5647, 51.66821
431.0468, 52.62915
431.5289, 35.65576
432.0110, 22.22986
432.4931, 28.32983
432.9753, 42.59326
433.4574, 44.11218
433.9395, 30.74670
434.4216, 21.24695
434.9037, 31.43396
435.3858, 57.29382
435.8680, 69.76025
436.3501, 61.54236
436.8322, 50.56958
437.3143, 39.05347
437.7964, 28.72778
438.2785, 21.45178
438.7607, 17.82825
439.2428, 17.30908
439.7249, 19.66589
440.2070, 26.41931
440.6891, 33.50708
441.1712, 49.12439
441.6534, 56.65930
442.1355, 40.75378
442.6176, 14.30798
443.0997, 1.041504
443.5818, 13.74072
444.0639, 39.53662
444.5461, 59.13879
445.0282, 72.57861
445.5103, 78.10229
445.9924, 71.31018
446.4745, 60.63940
446.9566, 53.79199
447.4388, 51.12207
447.9209, 51.82544
448.4030, 59.56042
448.8851, 67.48132
449.3672, 66.35498
449.8493, 57.05408
450.3315, 48.27954
450.8136, 44.58594
451.2957, 44.94116
451.7778, 45.87109
452.2599, 50.23621
452.7420, 51.23535
453.2242, 44.84302
453.7063, 36.95667
454.1884, 33.62146
454.6705, 35.08777
455.1526, 36.53320
455.6347, 33.07825
456.1169, 25.02893
456.5990, 19.37842
457.0811, 16.53149
457.5632, 15.60852
458.0453, 15.19702
458.5274, 16.76538
459.0095, 23.23425
459.4916, 35.87793
459.9738, 48.16748
460.4559, 54.13013
460.9380, 54.35156
461.4201, 50.72644
461.9022, 42.04712
462.3843, 33.82422
462.8665, 32.00879
463.3486, 35.40662
463.8307, 35.47656
464.3128, 24.47937
464.7949, 16.28796
465.2770, 23.83875
465.7592, 39.89856
466.2413, 47.52771
466.7234, 39.49561
467.2055, 25.63428
467.6876, 21.70190
468.1697, 33.06714
468.6519, 41.50684
469.1340, 50.73206
469.6161, 53.46606
470.0982, 40.29565
470.5803, 18.77405
471.0624, 4.161011
471.5446, 5.032593
472.0267, 15.03186
472.5088, 23.25183
472.9909, 29.86523
473.4730, 33.28857
473.9551, 32.17310
474.4373, 28.57947
474.9194, 24.96399
475.4015, 20.09497
475.8836, 15.10974
476.3657, 11.65991
476.8478, 9.301514
477.3300, 9.460571
477.8121, 10.96997
478.2942, 10.98315
478.7763, 8.248657
479.2584, 5.584229
479.7405, 8.109863
480.2227, 21.48254
480.7048, 30.93420
481.1869, 35.47607
481.6690, 36.53979
482.1511, 33.42468
482.6332, 27.46643
483.1154, 21.80029
483.5975, 18.04089
484.0796, 17.14185
484.5617, 24.20154
485.0438, 43.52319
485.5259, 60.07275
486.0081, 73.40027
486.4902, 79.64270
486.9723, 69.74988
487.4544, 43.60217
487.9365, 24.90820
488.4186, 37.49109
488.9008, 62.91296
489.3829, 65.34558
489.8650, 42.78711
490.3471, 24.10034
490.8292, 27.64441
491.3113, 47.15430
491.7935, 59.68188
492.2756, 64.63428
492.7577, 64.79651
493.2398, 56.60254
493.7219, 46.35132
494.2040, 38.80969
494.6862, 35.10779
495.1683, 35.42676
495.6504, 40.23706
496.1325, 49.13123
496.6146, 59.72009
497.0967, 75.85950
497.5789, 86.29626
498.0610, 85.24182
498.5431, 79.27869
499.0252, 73.07251
499.5073, 67.43286
499.9894, 63.72766
500.4716, 62.70325
500.9537, 64.31726
501.4358, 71.70776
501.9179, 85.78601
502.4000, 91.23572
502.8821, 74.56409
503.3643, 43.15381
503.8464, 25.88513
504.3285, 29.47205
504.8106, 35.11157
505.2927, 43.97607
505.7748, 50.44910
506.2570, 46.17139
506.7391, 32.05640
507.2212, 18.32080
507.7033, 13.55493
508.1854, 17.08691
508.6675, 24.85156
509.1496, 40.50964
509.6317, 54.50940
510.1139, 63.41077
510.5960, 66.65198
511.0781, 65.55566
511.5602, 61.48193
512.0424, 57.37659
512.5245, 51.73474
513.0066, 46.68726
513.4887, 44.62048
513.9708, 45.70435
514.4529, 46.25146
514.9351, 43.79333
515.4172, 39.31555
515.8993, 36.02344
516.3814, 29.01868
516.8635, 30.87964
517.3456, 53.91479
517.8278, 78.50732
518.3099, 85.96448
518.7920, 76.82910
519.2741, 64.28381
519.7562, 57.62805
520.2383, 56.45764
520.7205, 60.50281
521.2026, 74.47095
521.6847, 81.56531
522.1668, 68.24927
522.6489, 52.11609
523.1310, 47.23499
523.6132, 54.26562
524.0953, 63.07678
524.5774, 73.55103
525.0595, 80.20288
525.5416, 69.62354
526.0237, 44.41162
526.5059, 30.49475
526.9880, 43.94495
527.4701, 70.83862
527.9522, 78.72241
528.4343, 52.05347
528.9164, 33.65051
529.3986, 27.24487
529.8807, 25.76025
530.3628, 29.04993
530.8449, 33.51575
531.3270, 29.89648
531.8091, 10.36450
532.2913, 13.13000
532.7734, 8.937744
533.2554, 29.36145
533.7375, 46.92688
534.2197, 17.86035
534.7018, 18.80920
535.1839, 27.57617
535.6660, 12.03101
536.1481, 6.168335
536.6302, 23.78027
537.1124, 39.63232
537.5945, 51.86548
538.0766, 61.53662
538.5587, 72.82874
539.0408, 87.44177
539.5229, 98.89685
540.0051, 96.09692
540.4872, 73.73621
540.9693, 59.99316
541.4514, 58.86621
541.9335, 62.08228
542.4156, 70.94714
542.8978, 81.34399
543.3799, 87.68689
543.8620, 87.92761
544.3441, 84.65027
544.8262, 78.70996
545.3083, 71.16760
545.7905, 67.91528
546.2726, 70.45361
546.7547, 74.17004
547.2368, 75.39514
547.7189, 74.89819
548.2010, 76.91138
548.6832, 92.97034
549.1653, 97.11328
549.6474, 65.72620
550.1295, 28.05762
550.6116, 21.16028
551.0938, 46.94067
551.5759, 75.62781
552.0580, 79.72607
552.5401, 63.92041
553.0222, 61.12256
553.5043, 80.52075
553.9865, 92.22644
554.4686, 78.26331
554.9507, 58.84839
555.4328, 50.16907
555.9149, 53.33972
556.3970, 59.11206
556.8792, 65.07715
557.3613, 70.05786
557.8434, 72.51965
558.3255, 72.56116
558.8076, 70.86853
559.2897, 67.56274
559.7719, 63.40979
560.2540, 59.91260
560.7361, 57.54431
561.2182, 54.74072
561.7003, 46.39905
562.1824, 42.71997
562.6646, 54.39673
563.1467, 73.18140
563.6288, 83.71863
564.1109, 79.16687
564.5930, 64.72266
565.0751, 43.80908
565.5573, 17.45654
566.0394, 6.716553
566.5215, 29.99878
567.0036, 42.67725
567.4857, 30.70166
567.9678, 1.192139
568.4500, 16.19531
568.9321, 8.785400
569.4142, 22.20789
569.8963, 4.553345
570.3784, 43.63513
570.8605, 62.02991
571.3427, 55.93933
571.8248, 44.96240
572.3069, 47.57556
572.7890, 59.40210
573.2711, 54.64478
573.7532, 21.92798
574.2354, 4.529175
574.7175, 30.41211
575.1996, 65.96375
575.6817, 80.08337
576.1638, 71.90491
576.6459, 60.35522
577.1281, 48.07251
577.6102, 39.03748
578.0923, 40.78345
578.5744, 49.56165
579.0565, 51.79834
579.5386, 41.48584
580.0208, 27.50842
580.5029, 25.00183
580.9850, 38.21118
581.4671, 46.22729
581.9492, 41.83142
582.4313, 39.72546
582.9135, 47.99243
583.3956, 60.14343
583.8777, 65.37903
584.3598, 59.72290
584.8419, 53.63831
585.3240, 57.35291
585.8062, 67.21143
586.2883, 74.83984
586.7704, 79.33130
587.2525, 80.21155
587.7346, 76.87903
588.2167, 69.90955
588.6989, 61.57300
589.1810, 45.92444
589.6631, 37.31665
590.1452, 43.20361
590.6273, 49.70117
591.1094, 42.89026
591.5916, 26.67908
592.0737, 18.99023
592.5558, 31.40137
593.0379, 49.91333
593.5200, 47.13416
594.0021, 23.94922
594.4843, 11.03882
594.9664, 17.48010
595.4485, 28.94507
595.9306, 32.45752
596.4127, 28.58655
596.8948, 27.55627
597.3770, 33.64783
597.8591, 37.67407
598.3412, 32.98987
598.8233, 26.50159
599.3054, 28.08301
599.7875, 38.16003
600.2697, 47.28088
600.7518, 46.22461
601.2339, 37.76794
601.7160, 34.65698
602.1981, 38.04895
602.6802, 42.25757
603.1624, 45.62329
603.6445, 49.14380
604.1266, 53.70288
604.6087, 59.29590
605.0908, 66.09290
605.5729, 83.24255
606.0551, 92.98218
606.5372, 72.63184
607.0193, 37.88147
607.5014, 22.26794
607.9835, 36.37830
608.4656, 60.53857
608.9478, 69.65076
609.4299, 63.28418
609.9120, 61.49683
610.3941, 66.57288
610.8762, 71.60388
611.3583, 78.08911
611.8405, 80.83313
612.3226, 71.33203
612.8047, 46.32678
613.2868, 26.73340
613.7689, 24.18262
614.2510, 30.69446
614.7332, 42.17358
615.2153, 55.56543
615.6974, 61.08752
616.1795, 53.74072
616.6616, 42.47070
617.1437, 45.14001
617.6259, 68.57825
618.1080, 77.11572
618.5901, 56.32715
619.0722, 38.06482
619.5543, 37.74646
620.0364, 46.23694
620.5186, 48.63501
621.0007, 39.77026
621.4828, 35.79053
621.9649, 57.61597
622.4470, 85.24744
622.9291, 84.16248
623.4113, 55.93091
623.8934, 28.88525
624.3755, 18.76587
624.8576, 22.30664
625.3397, 34.05811
625.8218, 66.32153
626.3040, 80.15601
626.7861, 52.49866
627.2682, 26.24341
627.7503, 27.72339
628.2324, 42.58740
628.7145, 43.22546
629.1967, 16.09656
629.6788, 7.352295
630.1609, 3.516113
630.6430, 33.31555
631.1251, 55.39026
631.6072, 66.16675
632.0893, 64.41260
632.5714, 47.19336
633.0535, 22.19336
633.5356, 15.50964
634.0178, 41.64014
634.4999, 57.77710
634.9820, 54.08911
635.4641, 48.85022
635.9462, 52.52710
636.4283, 61.71704
636.9105, 67.00806
637.3926, 64.73743
637.8747, 59.73792
638.3568, 54.13989
638.8389, 49.32031
639.3210, 50.18579
639.8032, 56.93054
640.2853, 60.75293
640.7674, 54.99634
641.2495, 42.12354
641.7316, 31.25366
642.2137, 17.90735
642.6959, 15.24048
643.1780, 35.78406
643.6601, 55.25488
644.1422, 59.59424
644.6243, 52.33496
645.1064, 43.79211
645.5886, 37.59985
646.0707, 31.61084
646.5528, 22.95142
647.0349, 13.37744
647.5170, 5.629272
647.9991, 0.3858640
648.4813, 0.8527830
648.9634, 10.00720
649.4455, 25.76440
649.9276, 40.53784
650.4097, 58.59595
650.8918, 66.81958
651.3740, 53.33984
651.8561, 40.63086
652.3382, 43.81213
652.8203, 56.99561
653.3024, 64.46240
653.7845, 60.22156
654.2667, 50.64343
654.7488, 34.30664
655.2309, 18.22656
655.7130, 19.58594
656.1951, 38.79480
656.6772, 57.02332
657.1594, 61.07947
657.6415, 54.29211
658.1236, 46.69641
658.6057, 33.82727
659.0878, 30.88086
659.5699, 52.16382
660.0521, 70.88757
660.5342, 73.13770
661.0163, 62.92163
661.4984, 48.94226
661.9805, 30.90125
662.4626, 16.17700
662.9448, 8.023560
663.4269, 6.967529
663.9090, 19.64600
664.3911, 42.92834
664.8732, 56.67639
665.3553, 47.35693
665.8375, 23.58496
666.3196, 5.650879
666.8017, 8.192627
667.2838, 8.243652
667.7659, 22.53760
668.2480, 46.36365
668.7302, 34.08130
669.2123, 2.748657
669.6944, 14.92151
670.1765, 10.92700
670.6586, 0.5239260
671.1407, 14.85254
671.6229, 29.53687
672.1050, 36.83484
672.5871, 37.37524
673.0692, 35.54858
673.5513, 33.68542
674.0334, 30.73706
674.5156, 22.03357
674.9977, 6.000732
675.4798, 5.421509
675.9619, 31.91907
676.4440, 51.49121
676.9261, 33.11108
677.4083, 0.2707520
677.8904, 0.6699220
678.3725, 51.97986
678.8546, 85.54236
679.3367, 75.08752
679.8188, 51.48914
680.3010, 31.91138
680.7831, 18.65540
681.2652, 12.78894
681.7473, 14.72290
682.2294, 19.84070
682.7115, 22.17615
683.1937, 22.31274
683.6758, 26.16052
684.1579, 35.49634
684.6400, 37.85852
685.1221, 22.86023
685.6042, 2.861572
686.0864, 1.628540
686.5685, 27.98047
687.0506, 40.88477
687.5327, 27.16760
688.0148, 13.35852
688.4969, 12.20654
688.9791, 16.32800
689.4612, 19.71863
689.9433, 20.59680
690.4254, 19.45862
690.9075, 15.38574
691.3896, 10.09155
691.8718, 7.500732
692.3539, 7.339600
692.8360, 5.295776
693.3181, 1.062622
693.8002, 4.844727
694.2823, 4.338867
694.7645, 28.10889
695.2466, 40.23865
695.7287, 30.01172
696.2108, 22.01721
696.6929, 18.89343
697.1750, 20.93384
697.6572, 31.16162
698.1393, 47.94788
698.6214, 61.37854
699.1035, 66.50574
699.5856, 66.54932
700.0677, 62.57312
700.5499, 56.10449
701.0320, 50.60730
701.5141, 46.68323
701.9962, 42.18359
702.4783, 35.03650
702.9604, 26.03748
703.4426, 17.23096
703.9247, 5.464722
704.4068, 5.625732
704.8889, 33.24707
705.3710, 57.72180
705.8531, 51.37292
706.3353, 23.79517
706.8174, 3.380615
707.2995, 4.663818
707.7816, 7.423584
708.2637, 5.094116
708.7458, 0.3134770
709.2280, 3.896851
709.7101, 8.244995
710.1922, 17.78040
710.6743, 33.28662
711.1564, 48.34570
711.6385, 55.51587
712.1207, 55.88977
712.6028, 49.52625
713.0849, 34.29272
713.5670, 26.50403
714.0491, 38.55701
714.5313, 60.80481
715.0134, 71.40320
715.4955, 65.90466
715.9776, 58.92078
716.4597, 44.46252
716.9418, 35.11401
717.4240, 40.99719
717.9061, 53.20227
718.3882, 58.16797
718.8703, 52.88843
719.3524, 48.55762
719.8345, 56.75745
720.3167, 67.99878
720.7988, 66.44702
721.2809, 55.66992
721.7630, 51.80029
722.2451, 60.37622
722.7272, 71.41687
723.2094, 73.16638
723.6915, 66.07422
724.1736, 59.23474
724.6557, 52.25684
725.1378, 46.09180
725.6199, 42.29504
726.1021, 38.38098
726.5842, 30.32532
727.0663, 19.51440
727.5484, 14.24316
728.0305, 23.73840
728.5126, 31.71936
728.9948, 27.22864
729.4769, 19.99365
729.9590, 22.07324
730.4411, 32.57898
730.9232, 41.70325
731.4053, 43.09802
731.8874, 41.61218
732.3695, 48.51099
732.8516, 61.12219
733.3337, 59.29297
733.8159, 39.07422
734.2980, 16.03589
734.7801, 2.454956
735.2622, 14.32812
735.7443, 13.45325
736.2264, 8.860229
736.7086, 24.43213
737.1907, 22.49548
737.6728, 26.20935
738.1549, 56.97644
738.6370, 93.19995
739.1191, 101.1488
739.6013, 73.08704
740.0834, 45.51562
740.5655, 38.77844
741.0476, 40.93323
741.5297, 41.79419
742.0118, 41.61206
742.4940, 40.81555
742.9761, 40.11816
743.4582, 44.72559
743.9403, 65.36731
744.4224, 94.34802
744.9045, 82.45752
745.3867, 19.60022
745.8688, 17.07019
746.3509, 0.3443600
746.8330, 31.73511
747.3151, 47.09070
747.7972, 46.90894
748.2794, 46.22729
748.7615, 42.20349
749.2436, 41.65967
749.7257, 48.22949
750.2078, 56.25000
750.6899, 63.24243
751.1721, 68.06311
751.6542, 68.30688
752.1363, 62.39966
752.6184, 56.25195
753.1005, 55.26794
753.5826, 57.55005
754.0648, 61.66565
754.5469, 66.36096
755.0290, 65.73816
755.5111, 56.73584
755.9932, 45.31641
756.4753, 41.24731
756.9575, 45.08118
757.4396, 45.12073
757.9217, 40.11194
758.4038, 34.42383
758.8859, 26.65930
759.3680, 21.47546
759.8502, 25.28638
760.3323, 37.82385
760.8144, 52.99780
761.2965, 81.61145
761.7786, 98.80469
762.2607, 87.27844
762.7429, 66.87793
763.2250, 55.92786
763.7071, 55.42932
764.1892, 57.66516
764.6713, 59.65283
765.1534, 59.89294
765.6356, 59.97241
766.1177, 56.83423
766.5998, 36.58643
767.0819, 0.3597410
767.5640, 25.96582
768.0461, 26.81665
768.5283, 10.50549
769.0104, 9.222534
769.4925, 34.01489
769.9746, 44.65625
770.4567, 33.01086
770.9388, 24.46912
771.4210, 34.72986
771.9031, 50.92114
772.3852, 53.06201
772.8673, 39.71021
773.3494, 29.75989
773.8315, 23.40417
774.3137, 23.17163
774.7958, 37.55676
775.2779, 53.83716
775.7600, 54.86523
776.2421, 41.99048
776.7242, 34.19836
777.2064, 44.56567
777.6885, 61.32532
778.1706, 73.42615
778.6527, 80.93164
779.1348, 83.62451
779.6169, 81.74170
780.0991, 76.72424
780.5812, 69.13623
781.0633, 60.80835
781.5454, 55.27014
782.0275, 52.18994
782.5096, 56.08435
782.9918, 71.90222
783.4739, 82.42834
783.9560, 77.90381
784.4381, 64.88867
784.9202, 51.75977
785.4023, 36.66357
785.8845, 32.69739
786.3666, 51.92566
786.8487, 68.39417
787.3308, 76.08923
787.8129, 75.55652
788.2950, 58.65271
788.7772, 30.11487
789.2593, 17.07556
789.7414, 42.87219
790.2235, 73.91821
790.7056, 75.57019
791.1877, 62.88232
791.6699, 65.52258
792.1520, 83.14587
792.6341, 90.66382
793.1162, 72.10229
793.5983, 44.41199
794.0804, 40.69812
794.5626, 58.83447
795.0447, 59.49805
795.5268, 36.73486
796.0089, 21.35791
796.4910, 30.36902
796.9731, 47.28357
797.4553, 47.31934
797.9374, 27.59106
798.4195, 13.33606
798.9016, 5.275024
799.3837, 2.208618
799.8658, 9.759155
800.3480, 17.19580
800.8301, 14.57996
801.3122, 4.384277
801.7943, 2.301880
802.2764, 0.3643800
802.7585, 2.727539
803.2407, 0.2891850
803.7228, 3.009155
804.2049, 10.30261
804.6870, 32.45483
805.1691, 41.87219
805.6512, 28.75098
806.1334, 14.29675
806.6155, 28.60229
807.0976, 59.09033
807.5797, 66.95007
808.0618, 53.68286
808.5439, 43.61255
809.0261, 45.07947
809.5082, 52.84729
809.9903, 61.49011
810.4724, 70.98083
810.9545, 81.35034
811.4366, 96.31909
811.9188, 101.1539
812.4009, 87.14478
812.8830, 70.58850
813.3651, 63.58228
813.8472, 63.36206
814.3293, 61.55579
814.8115, 57.38660
815.2936, 52.91809
815.7757, 45.62195
816.2578, 40.97791
816.7399, 43.78162
817.2220, 50.56458
817.7042, 56.27747
818.1863, 59.75928
818.6684, 62.31311
819.1505, 65.44287
819.6326, 67.43262
820.1147, 66.07959
820.5969, 62.41431
821.0790, 57.20190
821.5611, 51.41968
822.0432, 49.48462
822.5253, 55.70789
823.0074, 64.08325
823.4896, 60.34119
823.9717, 45.99207
824.4538, 38.03210
824.9359, 38.82837
825.4180, 33.56445
825.9001, 13.54626
826.3823, 5.419312
826.8644, 5.884888
827.3465, 54.55334
827.8286, 79.12891
828.3107, 69.38147
828.7928, 54.41858
829.2749, 34.56934
829.7570, 17.51062
830.2391, 9.337891
830.7213, 9.798340
831.2034, 16.97400
831.6855, 40.63867
832.1676, 57.30225
832.6497, 57.00928
833.1318, 51.10486
833.6140, 48.31970
834.0961, 47.20776
834.5782, 40.66260
835.0603, 25.55688
835.5424, 16.88806
836.0245, 36.48730
836.5067, 59.97571
836.9888, 51.98608
837.4709, 24.86963
837.9530, 11.56433
838.4351, 20.11401
838.9172, 37.60669
839.3994, 56.21655
839.8815, 70.78247
840.3636, 63.11450
840.8457, 36.23462
841.3278, 22.43970
841.8099, 26.81909
842.2921, 40.79736
842.7742, 62.79077
843.2563, 82.48022
843.7384, 75.47266
844.2205, 34.25012
844.7026, 6.462646
845.1848, 8.201904
845.6669, 8.040894
846.1490, 18.70349
846.6311, 50.60205
847.1132, 64.26538
847.5953, 60.80603
848.0775, 53.53564
848.5596, 32.16333
849.0417, 22.10608
849.5238, 42.79980
850.0059, 62.46570
850.4880, 50.14465
850.9702, 21.40869
851.4523, 15.01270
851.9344, 45.33362
852.4165, 69.87598
852.8986, 61.31445
853.3807, 41.19812
853.8629, 21.51892
854.3450, 7.115845
854.8271, 9.314087
855.3092, 26.92334
855.7913, 37.88293
856.2734, 22.61182
856.7556, 1.901978
857.2377, 9.954956
857.7198, 4.243286
858.2019, 9.263062
858.6840, 28.63049
859.1661, 37.30823
859.6483, 25.03320
860.1304, 7.068848
860.6125, 10.75513
861.0946, 34.89258
861.5767, 43.62622
862.0588, 35.31677
862.5410, 22.56128
863.0231, 6.556030
863.5052, 6.184082
863.9873, 9.676025
864.4694, 4.279053
864.9515, 7.984863
865.4337, 35.99915
865.9158, 53.16479
866.3979, 54.59363
866.8800, 48.70300
867.3621, 33.79456
867.8442, 16.86047
868.3264, 9.340820
868.8085, 12.89941
869.2906, 18.26758
869.7727, 25.66101
870.2548, 32.44666
870.7369, 41.65063
871.2191, 46.79700
871.7012, 34.53772
872.1833, 11.12878
872.6654, 4.714233
873.1475, 31.53503
873.6296, 57.35498
874.1118, 57.24500
874.5939, 46.58240
875.0760, 38.47437
875.5581, 34.82935
876.0402, 38.86389
876.5223, 50.48962
877.0045, 57.70581
877.4866, 46.19214
877.9687, 26.39795
878.4508, 15.97290
878.9329, 12.92126
879.4150, 10.17700
879.8972, 6.962036
880.3793, 9.961304
880.8614, 24.28796
881.3435, 41.89893
881.8256, 46.70312
882.3077, 39.40979
882.7899, 32.13928
883.2720, 25.38721
883.7541, 21.80823
884.2362, 21.64441
884.7183, 20.01892
885.2004, 9.443359
885.6826, 8.099854
886.1647, 13.30676
886.6468, 0.8529050
887.1289, 8.864380
887.6110, 13.57385
888.0931, 15.25061
888.5753, 13.87354
889.0574, 10.70483
889.5395, 6.911621
890.0216, 0.1807860
890.5037, 4.288696
890.9858, 33.57288
891.4680, 56.45117
891.9501, 61.17700
892.4322, 59.01892
892.9143, 59.54114
893.3964, 62.08936
893.8785, 60.95813
894.3607, 51.63416
894.8428, 45.53149
895.3249, 48.36987
895.8070, 53.80969
896.2891, 62.15967
896.7712, 67.88110
897.2534, 58.02979
897.7355, 32.38098
898.2176, 16.37329
898.6997, 35.04578
899.1818, 58.19165
899.6639, 59.19299
900.1461, 49.80542
900.6282, 45.30444
901.1103, 46.88269
901.5924, 50.13330
902.0745, 53.06641
902.5566, 56.38220
903.0388, 62.11035
903.5209, 67.82959
904.0030, 66.30627
904.4851, 59.28906
904.9672, 54.86255
905.4493, 55.28040
905.9315, 61.78174
906.4136, 77.08838
906.8957, 93.48767
907.3778, 91.17346
907.8599, 73.08862
908.3420, 66.04016
908.8242, 72.19385
909.3063, 72.79163
909.7884, 58.85535
910.2705, 43.65149
910.7526, 46.21472
911.2347, 34.08655
911.7169, 26.71106
912.1990, 30.78101
912.6811, 16.97156
913.1632, 31.52051
913.6453, 42.66199
914.1274, 26.35510
914.6096, 2.215210
915.0917, 8.167114
915.5738, 14.89868
916.0559, 35.36560
916.5380, 59.35999
917.0201, 67.80225
917.5023, 44.34058
917.9844, 14.98523
918.4665, 0.8725590
918.9486, 0.5102540
919.4307, 5.940430
919.9128, 24.26514
920.3950, 35.88049
920.8771, 37.17603
921.3592, 34.35718
921.8413, 26.64807
922.3234, 19.53149
922.8055, 19.12354
923.2877, 25.30139
923.7698, 33.16882
924.2519, 50.17883
924.7340, 57.28748
925.2161, 36.99878
925.6982, 15.42090
926.1804, 14.56970
926.6625, 26.89099
927.1446, 35.19080
927.6267, 35.24036
928.1088, 33.88342
928.5909, 38.74817
929.0730, 38.39771
929.5551, 12.72083
930.0372, 14.57129
930.5193, 6.475708
931.0015, 28.98804
931.4836, 51.56140
931.9657, 42.20752
932.4478, 26.21533
932.9299, 21.60559
933.4120, 22.82263
933.8942, 21.73218
934.3763, 21.90955
934.8584, 36.32654
935.3405, 63.67017
935.8226, 80.72046
936.3047, 69.85156
936.7869, 48.60010
937.2690, 35.56616
937.7511, 30.07251
938.2332, 36.29333
938.7153, 49.37769
939.1974, 50.79968
939.6796, 34.62744
940.1617, 13.20581
940.6438, 4.600952
941.1259, 15.62537
941.6080, 9.065796
942.0901, 10.65576
942.5723, 25.16711
943.0544, 32.37195
943.5365, 38.54688
944.0186, 47.72205
944.5007, 54.18835
944.9828, 45.64099
945.4650, 25.65637
945.9471, 13.66174
946.4292, 9.341553
946.9113, 3.579224
947.3934, 5.837158
947.8755, 7.699585
948.3577, 7.385986
948.8398, 29.54517
949.3219, 36.11206
949.8040, 51.44189
950.2861, 34.56250
950.7682, 64.68372
951.2504, 80.00989
951.7325, 68.06384
952.2146, 46.87146
952.6967, 29.89099
953.1788, 18.53040
953.6609, 20.05566
954.1431, 38.79858
954.6252, 46.46313
955.1073, 37.33643
955.5894, 34.02466
956.0715, 48.61975
956.5536, 64.99951
957.0358, 63.96204
957.5179, 48.30713
958.0000, 41.04309
958.4821, 45.18176
958.9642, 49.83948
959.4464, 55.13586
959.9285, 59.68225
960.4106, 65.72046
960.8927, 67.47839
961.3748, 53.09827
961.8569, 21.90369
962.3391, 9.194092
962.8212, 22.10242
963.3033, 41.06860
963.7854, 77.69849
964.2675, 102.5105
964.7496, 91.32922
965.2318, 61.77185
965.7139, 44.19727
966.1960, 40.64294
966.6781, 42.64148
967.1602, 51.94067
967.6423, 62.31042
968.1245, 84.28674
968.6066, 95.82751
969.0887, 69.22363
969.5708, 24.82935
970.0529, 10.38184
970.5350, 37.65857
971.0172, 57.13086
971.4993, 58.97314
971.9814, 61.25854
972.4635, 66.84607
972.9456, 74.34351
973.4277, 84.99536
973.9099, 96.17749
974.3920, 101.7642
974.8741, 98.47632
975.3562, 97.30371
975.8383, 102.0408
976.3204, 106.7574
976.8026, 110.0084
977.2847, 111.5393
977.7668, 108.9170
978.2489, 104.1041
978.7310, 105.1210
979.2131, 115.5684
979.6953, 126.9283
980.1774, 149.0706
980.6595, 157.9023
981.1416, 121.6324
981.6237, 78.23401
982.1058, 78.84998
982.5880, 118.7598
983.0701, 144.1738
983.5522, 132.0845
984.0343, 121.8464
984.5164, 129.1389
984.9985, 138.8650
985.4807, 144.2274
985.9628, 144.6216
986.4449, 136.8501
986.9270, 122.5992
987.4091, 115.5367
987.8912, 128.4438
988.3734, 134.4016
988.8555, 114.3240
989.3376, 91.08008
989.8197, 82.59363
990.3018, 81.81580
990.7839, 75.28455
991.2661, 61.75403
991.7482, 52.83093
992.2303, 56.47070
992.7124, 60.64197
993.1945, 54.39978
993.6766, 52.06848
994.1588, 73.43262
994.6409, 103.5474
995.1230, 112.8389
995.6051, 97.42505
996.0872, 86.88184
996.5693, 96.95227
997.0515, 110.4435
997.5336, 122.9028
998.0157, 131.8346
998.4978, 134.7123
998.9799, 131.8076
999.4620, 123.5317
999.9442, 110.3673
1000.426, 102.2660
1000.908, 108.1323
1001.391, 114.7723
1001.873, 119.3254
1002.355, 118.1305
1002.837, 101.4631
1003.319, 78.61169
1003.801, 68.53394
1004.283, 75.49316
1004.765, 85.32092
1005.247, 93.48108
1005.730, 100.2954
1006.212, 107.7590
1006.694, 112.9344
1007.176, 117.0769
1007.658, 116.1091
1008.140, 96.79016
1008.622, 55.57324
1009.104, 29.65515
1009.586, 51.45471
1010.069, 72.53357
1010.551, 59.24902
1011.033, 40.79346
1011.515, 51.21582
1011.997, 77.51990
1012.479, 81.21606
1012.961, 53.16101
1013.443, 33.60876
1013.926, 47.58752
1014.408, 63.62878
1014.890, 64.31348
1015.372, 60.22974
1015.854, 61.63806
1016.336, 66.27600
1016.818, 68.56677
1017.300, 67.56848
1017.782, 59.28406
1018.265, 25.59534
1018.747, 5.555542
1019.229, 35.04077
1019.711, 69.77661
1020.193, 67.36938
1020.675, 40.80701
1021.157, 23.67566
1021.639, 23.07703
1022.122, 21.60730
1022.604, 14.02832
1023.086, 4.242310
1023.568, 10.85193
1024.050, 23.25415
1024.532, 25.57715
1025.014, 20.70386
1025.496, 14.99194
1025.978, 9.470337
1026.461, 3.207886
1026.943, 7.722290
1027.425, 14.42664
1027.907, 11.68872
1028.389, 5.900024
1028.871, 6.090942
1029.353, 14.83728
1029.835, 1.628296
1030.318, 48.91479
1030.800, 81.57458
1031.282, 88.53760
1031.764, 84.62842
1032.246, 60.19312
1032.728, 39.70007
1033.210, 45.98962
1033.692, 64.33044
1034.174, 64.35962
1034.656, 41.30908
1035.139, 34.95569
1035.621, 74.56165
1036.103, 93.88989
1036.585, 56.89368
1037.067, 23.49072
1037.549, 35.83716
1038.031, 69.43958
1038.513, 85.80823
1038.996, 83.64001
1039.478, 72.66504
1039.960, 37.98230
1040.442, 18.55957
1040.924, 27.85327
1041.406, 40.30127
1041.888, 43.13123
1042.370, 42.08667
1042.853, 45.08215
1043.335, 52.11401
1043.817, 59.70215
1044.299, 69.63770
1044.781, 76.50000
1045.263, 82.55859
1045.745, 79.52649
1046.227, 55.94055
1046.709, 31.81018
1047.192, 36.55481
1047.674, 21.96082
1048.156, 16.36121
1048.638, 28.90894
1049.120, 16.10107
1049.602, 45.96155
1050.084, 67.18225
1050.566, 56.16443
1051.048, 34.53381
1051.531, 25.83862
1052.013, 27.42676
1052.495, 25.23035
1052.977, 17.62805
1053.459, 19.52832
1053.941, 33.63196
1054.423, 46.44043
1054.905, 53.24805
1055.388, 51.63281
1055.870, 38.11584
1056.352, 18.01978
1056.834, 7.051636
1057.316, 5.037354
1057.798, 6.488770
1058.280, 11.19714
1058.762, 20.58618
1059.245, 35.33655
1059.727, 47.08826
1060.209, 48.78333
1060.691, 45.56384
1061.173, 48.50964
1061.655, 55.75781
1062.137, 59.60339
1062.619, 59.36536
1063.101, 49.17834
1063.583, 29.16992
1064.066, 14.60669
1064.548, 15.14026
1065.030, 24.55493
1065.512, 39.73218
1065.994, 54.52588
1066.476, 51.45886
1066.958, 36.49744
1067.440, 28.64844
1067.923, 29.03601
1068.405, 23.35400
1068.887, 4.247437
1069.369, 10.49475
1069.851, 6.343018
1070.333, 29.97949
1070.815, 23.00732
1071.297, 1.943726
1071.780, 7.315430
1072.262, 2.877930
1072.744, 10.95581
1073.226, 32.08704
1073.708, 49.99060
1074.190, 53.40369
1074.672, 51.14941
1075.154, 47.50659
1075.636, 43.20300
1076.119, 39.88721
1076.601, 36.17371
1077.083, 26.39685
1077.565, 10.61841
1078.047, 4.024414
1078.529, 19.78699
1079.011, 36.23303
1079.493, 46.32361
1079.975, 51.36975
1080.458, 52.56714
1080.940, 49.15112
1081.422, 31.98767
1081.904, 5.014648
1082.386, 1.535034
1082.868, 52.38538
1083.350, 82.87061
1083.832, 60.24207
1084.314, 40.21130
1084.797, 54.05310
1085.279, 74.38806
1085.761, 71.53711
1086.243, 51.35095
1086.725, 40.92151
1087.207, 47.30518
1087.689, 44.00378
1088.171, 18.36487
1088.654, 4.771118
1089.136, 18.93372
1089.618, 34.32312
1090.100, 28.56055
1090.582, 14.25354
1091.064, 22.76941
1091.546, 12.64929
1092.028, 5.783569
1092.510, 16.97351
1092.993, 1.217529
1093.475, 28.76013
1093.957, 54.45801
1094.439, 52.99500
1094.921, 39.40027
1095.403, 34.91846
1095.885, 36.46985
1096.367, 26.07117
1096.849, 5.889526
1097.332, 0.9377440
1097.814, 12.93994
1098.296, 27.45703
1098.778, 38.86523
1099.260, 46.40234
1099.742, 48.96863
1100.224, 48.34436
1100.706, 46.66736
1101.189, 44.78247
1101.671, 45.06287
1102.153, 47.15527
1102.635, 48.40894
1103.117, 48.84070
1103.599, 51.11536
1104.081, 58.01697
1104.563, 61.23242
1105.046, 48.79175
1105.528, 32.35925
1106.010, 19.81934
1106.492, 14.66162
1106.974, 28.23975
1107.456, 52.93152
1107.938, 62.63953
1108.420, 47.84521
1108.902, 31.09302
1109.385, 20.32959
1109.867, 13.84729
1110.349, 15.56165
1110.831, 16.64099
1111.313, 4.123291
1111.795, 11.98853
1112.277, 9.716309
1112.759, 13.61377
1113.241, 26.72070
1113.724, 13.75867
1114.206, 8.747559
1114.688, 25.89807
1115.170, 38.62781
1115.652, 32.15918
1116.134, 20.59656
1116.616, 18.33582
1117.098, 24.22498
1117.581, 33.57385
1118.063, 50.45374
1118.545, 54.77441
1119.027, 43.31494
1119.509, 30.14941
1119.991, 17.40173
1120.473, 11.92798
1120.955, 20.78748
1121.438, 33.84082
1121.920, 27.74231
1122.402, 35.76318
1122.884, 44.55701
1123.366, 40.89221
1123.848, 61.24451
1124.330, 69.10034
1124.812, 72.26892
1125.294, 74.29736
1125.776, 70.56055
1126.259, 53.76172
1126.741, 32.31641
1127.223, 17.93787
1127.705, 10.45654
1128.187, 6.328735
1128.669, 6.119507
1129.151, 17.09265
1129.633, 36.44702
1130.116, 40.37805
1130.598, 7.705444
1131.080, 18.75122
1131.562, 0.3509520
1132.044, 26.41968
1132.526, 22.47766
1133.008, 12.90833
1133.490, 37.94995
1133.973, 83.81750
1134.455, 98.34253
1134.937, 65.51099
1135.419, 36.91199
1135.901, 22.10144
1136.383, 13.79138
1136.865, 12.28979
1137.347, 14.67761
1137.829, 22.61902
1138.312, 30.52966
1138.794, 27.64990
1139.276, 15.68115
1139.758, 22.95032
1140.240, 62.17114
1140.722, 69.98022
1141.204, 34.00415
1141.686, 4.853149
1142.168, 0.6031490
1142.651, 7.979370
1143.133, 25.21594
1143.615, 42.48462
1144.097, 35.73389
1144.579, 42.92419
1145.061, 45.99548
1145.543, 35.10486
1146.025, 44.81311
1146.508, 37.88245
1146.990, 27.73169
1147.472, 21.19531
1147.954, 20.54407
1148.436, 29.97815
1148.918, 40.74304
1149.400, 47.65039
1149.882, 49.22974
1150.365, 32.29907
1150.847, 7.162720
1151.329, 0.7065430
1151.811, 11.19226
1152.293, 25.97217
1152.775, 40.38965
1153.257, 48.24097
1153.739, 43.84412
1154.221, 36.16345
1154.703, 24.74377
1155.186, 16.51904
1155.668, 19.26550
1156.150, 29.99988
1156.632, 42.03723
1157.114, 57.08948
1157.596, 58.74829
1158.078, 40.58728
1158.560, 22.62427
1159.043, 2.177368
1159.525, 2.369263
1160.007, 23.04614
1160.489, 51.68408
1160.971, 52.43628
1161.453, 33.89270
1161.935, 22.72363
1162.417, 18.77393
1162.900, 22.18042
1163.382, 32.27722
1163.864, 45.59827
1164.346, 60.30579
1164.828, 67.94250
1165.310, 63.36780
1165.792, 54.53711
1166.274, 49.33496
1166.756, 45.94019
1167.239, 41.30835
1167.721, 37.35608
1168.203, 39.49597
1168.685, 43.97021
1169.167, 38.38647
1169.649, 21.97546
1170.131, 17.55566
1170.613, 42.11743
1171.095, 64.38928
1171.578, 77.98633
1172.060, 81.20435
1172.542, 62.88049
1173.024, 42.62659
1173.506, 40.46216
1173.988, 51.24780
1174.470, 61.40149
1174.952, 71.65125
1175.434, 75.66919
1175.917, 72.87927
1176.399, 64.56848
1176.881, 48.53491
1177.363, 37.89233
1177.845, 39.24731
1178.327, 44.65100
1178.809, 46.02917
1179.291, 44.55652
1179.774, 41.71509
1180.256, 38.09790
1180.738, 34.74475
1181.220, 33.83569
1181.702, 47.59460
1182.184, 73.16248
1182.666, 83.92932
1183.148, 67.01855
1183.630, 47.79688
1184.113, 49.92566
1184.595, 56.88855
1185.077, 54.41797
1185.559, 50.64868
1186.041, 58.40332
1186.523, 68.45679
1187.005, 60.50879
1187.487, 35.75623
1187.969, 23.66431
1188.452, 36.53333
1188.934, 45.94336
1189.416, 54.27197
1189.898, 54.62524
1190.380, 38.24622
1190.862, 26.09473
1191.344, 33.15356
1191.826, 51.83801
1192.309, 72.54980
1192.791, 92.67395
1193.273, 84.87122
1193.755, 51.11621
1194.237, 34.48425
1194.719, 38.03552
1195.201, 54.82935
1195.683, 80.72131
1196.166, 95.01025
1196.648, 81.65198
1197.130, 60.13965
1197.612, 48.74036
1198.094, 46.70825
1198.576, 58.91174
1199.058, 75.91821
1199.540, 86.09155
1200.022, 88.88135
1200.505, 87.14978
1200.987, 81.47656
1201.469, 70.59839
1201.951, 46.96545
1202.433, 28.69141
1202.915, 22.79468
1203.397, 18.82947
1203.879, 14.65491
1204.361, 8.267578
1204.844, 4.469116
1205.326, 18.10242
1205.808, 18.24390
1206.290, 4.981689
1206.772, 8.384644
1207.254, 29.36829
1207.736, 20.21704
1208.218, 23.44275
1208.701, 65.34192
1209.183, 91.07007
1209.665, 93.74988
1210.147, 61.59973
1210.629, 25.75110
1211.111, 34.68481
1211.593, 58.48047
1212.075, 53.89099
1212.557, 37.20789
1213.040, 37.59802
1213.522, 51.27393
1214.004, 56.20728
1214.486, 47.09692
1214.968, 43.33057
1215.450, 54.81946
1215.932, 64.54309
1216.414, 69.69897
1216.896, 72.73633
1217.379, 72.53088
1217.861, 74.00366
1218.343, 83.38477
1218.825, 95.44910
1219.307, 97.35950
1219.789, 89.35217
1220.271, 77.45398
1220.753, 62.19775
1221.236, 61.52747
1221.718, 75.77124
1222.200, 82.71423
1222.682, 75.01416
1223.164, 69.33997
1223.646, 79.32678
1224.128, 93.23169
1224.610, 105.1553
1225.093, 107.1306
1225.575, 78.28455
1226.057, 43.23425
1226.539, 35.15796
1227.021, 47.98804
1227.503, 60.65161
1227.985, 69.61707
1228.467, 71.12854
1228.949, 58.95056
1229.432, 48.34216
1229.914, 37.22217
1230.396, 34.43555
1230.878, 47.06848
1231.360, 58.17236
1231.842, 52.96460
1232.324, 42.68323
1232.806, 50.90503
1233.288, 71.30957
1233.771, 69.93738
1234.253, 51.74902
1234.735, 38.51367
1235.217, 31.25085
1235.699, 22.62256
1236.181, 11.32788
1236.663, 3.160400
1237.145, 1.038696
1237.628, 4.266846
1238.110, 16.30640
1238.592, 27.43958
1239.074, 32.91589
1239.556, 35.09326
1240.038, 13.46460
1240.520, 4.028442
1241.002, 10.44861
1241.484, 52.99329
1241.967, 83.44897
1242.449, 103.9606
1242.931, 100.5853
1243.413, 66.19983
1243.895, 50.96692
1244.377, 67.67175
1244.859, 82.19580
1245.341, 75.37329
1245.823, 60.29651
1246.306, 49.87231
1246.788, 44.19141
1247.270, 48.31116
1247.752, 53.90283
1248.234, 41.69507
1248.716, 23.58643
1249.198, 27.90381
1249.680, 49.68103
1250.163, 54.60425
1250.645, 30.43103
1251.127, 15.57349
1251.609, 30.29346
1252.091, 38.65259
1252.573, 28.92957
1253.055, 19.50049
1253.537, 14.84802
1254.020, 18.29321
1254.502, 33.52820
1254.984, 54.51758
1255.466, 71.36670
1255.948, 81.51245
1256.430, 75.29871
1256.912, 59.38477
1257.394, 42.61914
1257.876, 26.96680
1258.359, 12.12524
1258.841, 0.5113530
1259.323, 0.9423830
1259.805, 20.00647
1260.287, 41.34143
1260.769, 50.51135
1261.251, 55.59509
1261.733, 61.82825
1262.215, 65.23462
1262.698, 61.25830
1263.180, 51.44971
1263.662, 35.18591
1264.144, 15.97229
1264.626, 24.65430
1265.108, 69.00806
1265.590, 77.70911
1266.072, 49.66394
1266.555, 24.22156
1267.037, 7.893433
1267.519, 0.3383790
1268.001, 0.8214110
1268.483, 5.756226
1268.965, 22.72095
1269.447, 38.84363
1269.929, 40.21399
1270.411, 32.39758
1270.894, 18.59668
1271.376, 5.013306
1271.858, 0.0000000E+00
##END=



