##NAMES=Owyheeite
##RRUFFID=R070543
##IDEAL CHEMISTRY=Ag^1+^_3_Pb^2+^_10_Sb^3+^_11_S^2-^_28_
##LOCALITY=Covada, Colville Indian Reservation, Ferry County, Washington, USA
##OWNER=RRUFF
##SOURCE=James Shigley
##DESCRIPTION=Aggregate of metallic black acicular crystals associated with quartz
##STATUS=The identification of this mineral has been confirmed by single-crystal X-ray diffraction.
##URL=rruff.info/R070543
154.6660, 0.0000000E+00
155.1481, 9.892822
155.6303, 24.54248
156.1124, 39.07178
156.5945, 80.14404
157.0766, 61.17993
157.5587, 25.97852
158.0408, 6.881836
158.5230, 7.835205
159.0051, 48.17651
159.4872, 94.24463
159.9693, 118.9360
160.4514, 121.7415
160.9335, 120.5415
161.4157, 129.7446
161.8978, 142.7180
162.3799, 148.9736
162.8620, 144.7161
163.3441, 141.1548
163.8262, 134.0300
164.3084, 130.1035
164.7905, 140.1892
165.2726, 167.5920
165.7547, 199.3447
166.2368, 213.7258
166.7189, 204.6606
167.2011, 194.0801
167.6832, 180.4480
168.1653, 167.9980
168.6474, 164.0581
169.1295, 171.4128
169.6116, 181.6614
170.0938, 179.3918
170.5759, 159.5454
171.0580, 142.5322
171.5401, 133.0627
172.0222, 127.4468
172.5043, 121.0466
172.9865, 112.4556
173.4686, 102.1121
173.9507, 89.75977
174.4328, 72.75122
174.9149, 60.82397
175.3970, 60.17310
175.8792, 64.41479
176.3613, 61.86743
176.8434, 47.33838
177.3255, 31.25732
177.8076, 33.93652
178.2897, 59.22021
178.7719, 81.24048
179.2540, 93.75928
179.7361, 99.00586
180.2182, 98.88525
180.7003, 92.68677
181.1824, 85.39355
181.6646, 86.41919
182.1467, 96.63159
182.6288, 106.2644
183.1109, 109.2197
183.5930, 110.4790
184.0751, 120.2966
184.5573, 143.4277
185.0394, 170.2524
185.5215, 186.0496
186.0036, 191.2363
186.4857, 193.2781
186.9678, 191.8696
187.4500, 189.2424
187.9321, 188.6814
188.4142, 190.2168
188.8963, 195.9678
189.3784, 212.4497
189.8605, 240.3267
190.3427, 262.6450
190.8248, 266.7529
191.3069, 263.1387
191.7890, 273.7610
192.2711, 307.4709
192.7532, 344.7908
193.2354, 358.0032
193.7175, 348.4670
194.1996, 339.3867
194.6817, 339.8643
195.1638, 345.3083
195.6459, 345.8242
196.1281, 337.4185
196.6102, 330.3772
197.0923, 342.7180
197.5744, 372.6809
198.0565, 392.6948
198.5386, 382.8892
199.0207, 360.8306
199.5029, 357.2205
199.9850, 379.5178
200.4671, 411.8325
200.9492, 444.1213
201.4313, 475.9141
201.9134, 491.8416
202.3956, 470.5359
202.8777, 435.9297
203.3598, 427.6018
203.8419, 454.8857
204.3240, 491.2734
204.8061, 513.3904
205.2883, 523.2844
205.7704, 525.5317
206.2525, 511.0994
206.7346, 493.3523
207.2167, 492.0872
207.6988, 510.7229
208.1810, 536.7888
208.6631, 563.0447
209.1452, 588.5933
209.6273, 607.8994
210.1094, 617.3608
210.5915, 621.0662
211.0737, 621.1045
211.5558, 616.7026
212.0379, 617.2607
212.5200, 632.6533
213.0021, 660.1909
213.4842, 684.0557
213.9664, 701.6660
214.4485, 714.5601
214.9306, 724.5100
215.4127, 731.5640
215.8948, 734.8127
216.3769, 732.8704
216.8591, 728.2209
217.3412, 727.9529
217.8233, 735.2722
218.3054, 745.6169
218.7875, 756.6226
219.2696, 768.1826
219.7518, 776.4355
220.2339, 775.5403
220.7160, 770.1392
221.1981, 775.1519
221.6802, 803.9556
222.1623, 831.7993
222.6445, 836.5981
223.1266, 821.5405
223.6087, 809.7090
224.0908, 812.1553
224.5729, 827.7361
225.0550, 849.3784
225.5371, 885.2356
226.0193, 916.6904
226.5014, 929.9265
226.9835, 929.0828
227.4656, 931.3394
227.9477, 947.0232
228.4298, 966.6982
228.9120, 966.6174
229.3941, 936.2180
229.8762, 908.5886
230.3583, 901.9421
230.8404, 909.5730
231.3225, 913.6875
231.8047, 906.7837
232.2868, 894.2524
232.7689, 885.9333
233.2510, 879.0623
233.7331, 881.7422
234.2152, 904.2156
234.6974, 936.8208
235.1795, 961.8511
235.6616, 973.1233
236.1437, 976.2527
236.6258, 981.4233
237.1079, 991.5337
237.5901, 996.5918
238.0722, 989.5569
238.5543, 978.2292
239.0364, 973.4067
239.5185, 977.7651
240.0006, 985.0500
240.4828, 987.5278
240.9649, 984.2773
241.4470, 980.5674
241.9291, 972.4185
242.4112, 966.5508
242.8933, 972.8818
243.3755, 992.0146
243.8576, 1009.974
244.3397, 1011.283
244.8218, 991.7073
245.3039, 983.5732
245.7860, 996.2583
246.2682, 1012.592
246.7503, 1020.828
247.2324, 1020.971
247.7145, 1020.344
248.1966, 1026.420
248.6787, 1039.328
249.1608, 1035.792
249.6430, 997.5352
250.1251, 962.9980
250.6072, 955.8381
251.0893, 967.9419
251.5714, 973.8237
252.0535, 955.3604
252.5357, 916.8250
253.0178, 896.8171
253.4999, 908.8220
253.9820, 921.2544
254.4641, 931.3750
254.9462, 935.8252
255.4284, 927.4241
255.9105, 901.6460
256.3926, 865.5161
256.8747, 841.9465
257.3568, 842.3408
257.8390, 842.5918
258.3211, 839.8284
258.8032, 836.6362
259.2853, 839.3792
259.7674, 849.8533
260.2495, 858.5415
260.7316, 846.1030
261.2137, 792.1555
261.6959, 748.4832
262.1780, 717.1150
262.6601, 693.8806
263.1422, 680.3428
263.6243, 674.6729
264.1064, 667.1248
264.5886, 642.1853
265.0707, 587.3149
265.5528, 553.9470
266.0349, 557.9324
266.5170, 566.8057
266.9991, 569.0203
267.4813, 561.3772
267.9634, 541.7754
268.4455, 504.1987
268.9276, 446.2102
269.4097, 406.8870
269.8918, 409.2661
270.3740, 409.4199
270.8561, 393.0234
271.3382, 364.3411
271.8203, 334.3977
272.3024, 310.1157
272.7845, 290.5142
273.2667, 269.7417
273.7488, 243.3433
274.2309, 222.9045
274.7130, 217.3586
275.1951, 217.2056
275.6772, 209.3188
276.1594, 186.4504
276.6415, 156.9434
277.1236, 140.1721
277.6057, 143.4688
278.0878, 139.0151
278.5699, 109.3689
279.0521, 74.50684
279.5342, 51.16895
280.0163, 43.86792
280.4984, 44.17773
280.9805, 42.81104
281.4626, 39.48413
281.9448, 39.16602
282.4269, 50.90430
282.9090, 58.90967
283.3911, 47.22534
283.8732, 15.75586
284.3553, 13.14355
284.8375, 21.41895
285.3196, 13.00317
285.8017, 6.439453
286.2838, 2.926758
286.7659, 3.646484
287.2480, 12.57690
287.7302, 27.34717
288.2123, 37.90381
288.6944, 38.08716
289.1765, 32.37305
289.6586, 27.21411
290.1407, 22.56665
290.6229, 20.59888
291.1050, 24.33691
291.5871, 32.10083
292.0692, 38.84961
292.5513, 50.05469
293.0334, 55.27637
293.5156, 41.68701
293.9977, 11.82080
294.4798, 16.18799
294.9619, 33.24023
295.4440, 41.60327
295.9261, 48.54053
296.4083, 52.68091
296.8904, 58.03247
297.3725, 66.88501
297.8546, 77.20947
298.3367, 85.10645
298.8188, 88.79370
299.3010, 91.77954
299.7831, 100.3030
300.2652, 114.9822
300.7473, 133.4089
301.2294, 157.9939
301.7115, 186.1787
302.1937, 215.3438
302.6758, 242.7668
303.1579, 266.2520
303.6400, 282.3276
304.1221, 288.7100
304.6042, 301.1836
305.0864, 320.1956
305.5685, 343.3113
306.0506, 373.2161
306.5327, 406.9194
307.0148, 437.0696
307.4969, 458.2637
307.9791, 471.0972
308.4612, 482.7737
308.9433, 488.3218
309.4254, 499.1077
309.9075, 519.9207
310.3896, 545.6743
310.8717, 569.8938
311.3539, 589.5303
311.8360, 606.6951
312.3181, 627.3035
312.8002, 657.3997
313.2823, 677.8547
313.7644, 682.8340
314.2466, 681.4087
314.7287, 680.6753
315.2108, 682.2439
315.6929, 681.8628
316.1750, 671.9937
316.6571, 650.9485
317.1393, 635.0471
317.6214, 631.7544
318.1035, 627.4575
318.5856, 614.6553
319.0677, 594.6392
319.5498, 572.0715
320.0320, 546.5806
320.5141, 521.3018
320.9962, 506.6772
321.4783, 505.7939
321.9604, 507.3987
322.4425, 508.2705
322.9247, 507.1511
323.4068, 500.8999
323.8889, 484.8481
324.3710, 468.9568
324.8531, 468.4585
325.3352, 482.1104
325.8174, 483.7610
326.2995, 454.7051
326.7816, 415.9907
327.2637, 402.8799
327.7458, 421.0901
328.2279, 441.9143
328.7101, 456.0098
329.1922, 463.5249
329.6743, 462.7930
330.1564, 452.3687
330.6385, 440.3171
331.1206, 435.8325
331.6028, 439.5938
332.0849, 446.3069
332.5670, 462.6599
333.0491, 476.6689
333.5312, 477.8567
334.0133, 467.2339
334.4955, 452.4526
334.9776, 437.5825
335.4597, 423.4211
335.9418, 419.8521
336.4239, 436.6240
336.9060, 451.1587
337.3882, 459.7316
337.8703, 461.9072
338.3524, 455.6182
338.8345, 440.0095
339.3166, 420.1780
339.7987, 407.6949
340.2809, 407.9548
340.7630, 405.9570
341.2451, 402.9125
341.7272, 396.5234
342.2093, 384.4122
342.6914, 366.7267
343.1736, 345.8738
343.6557, 322.3879
344.1378, 295.6891
344.6199, 273.4476
345.1020, 256.0486
345.5841, 242.3539
346.0663, 236.6112
346.5484, 234.2485
347.0305, 226.1760
347.5126, 206.4011
347.9947, 179.5972
348.4768, 153.8119
348.9590, 127.4149
349.4411, 106.7682
349.9232, 98.53589
350.4053, 95.17212
350.8874, 90.81531
351.3695, 86.01172
351.8517, 79.43970
352.3338, 66.89648
352.8159, 49.55066
353.2980, 33.11938
353.7801, 17.51917
354.2622, 6.101440
354.7444, 5.857910
355.2265, 15.43665
355.7086, 22.47668
356.1907, 22.82141
356.6728, 20.18860
357.1549, 19.05847
357.6371, 19.27332
358.1192, 15.62183
358.6013, 2.064941
359.0834, 18.51648
359.5655, 24.04016
360.0476, 0.5228270
360.5297, 20.22510
361.0118, 21.16492
361.4940, 11.77563
361.9761, 4.646973
362.4582, 4.476929
362.9403, 8.125610
363.4224, 10.09082
363.9045, 9.404785
364.3867, 8.929688
364.8688, 10.79150
365.3509, 11.10291
365.8330, 6.250122
366.3151, 2.825073
366.7972, 11.86462
367.2794, 17.29980
367.7615, 19.44458
368.2436, 20.56445
368.7257, 20.59473
369.2078, 19.36230
369.6899, 17.45728
370.1721, 14.33740
370.6542, 8.066528
371.1363, 3.225952
371.6184, 13.67078
372.1005, 12.25049
372.5826, 2.457764
373.0648, 11.29846
373.5469, 5.693604
374.0290, 3.802490
374.5111, 6.219116
374.9932, 1.553223
375.4753, 0.6552730
375.9575, 9.042725
376.4396, 23.27600
376.9217, 25.73425
377.4038, 13.56775
377.8859, 2.760376
378.3680, 7.000122
378.8502, 24.00903
379.3323, 35.26721
379.8144, 38.99829
380.2965, 38.37708
380.7786, 31.61499
381.2607, 21.80811
381.7429, 16.18066
382.2250, 17.97241
382.7071, 24.04651
383.1892, 28.39221
383.6713, 30.92419
384.1534, 31.51660
384.6356, 25.56470
385.1177, 21.07861
385.5998, 25.62463
386.0819, 38.32361
386.5640, 51.84668
387.0461, 59.93750
387.5283, 62.71484
388.0104, 63.89819
388.4925, 62.19324
388.9746, 60.38342
389.4567, 60.22412
389.9388, 59.91504
390.4210, 55.68359
390.9031, 45.44617
391.3852, 36.18677
391.8673, 40.88855
392.3494, 61.64917
392.8315, 74.60681
393.3137, 70.21045
393.7958, 61.28088
394.2779, 56.09631
394.7600, 54.96631
395.2421, 59.28784
395.7242, 77.63306
396.2064, 98.97192
396.6885, 102.2195
397.1706, 85.46289
397.6527, 67.38855
398.1348, 57.71753
398.6169, 56.59436
399.0991, 62.04736
399.5812, 83.09680
400.0633, 98.78809
400.5454, 96.68848
401.0275, 85.01062
401.5096, 77.05334
401.9918, 76.84875
402.4739, 80.13403
402.9560, 80.99976
403.4381, 78.19763
403.9202, 77.04041
404.4023, 79.00635
404.8845, 80.94763
405.3666, 79.20642
405.8487, 76.04822
406.3308, 77.93005
406.8129, 89.92529
407.2950, 107.6235
407.7772, 115.0322
408.2592, 106.8285
408.7414, 98.78479
409.2235, 92.99805
409.7056, 89.23376
410.1877, 88.18237
410.6698, 89.76331
411.1519, 91.07947
411.6341, 88.40234
412.1162, 82.62939
412.5983, 80.51770
413.0804, 84.36462
413.5625, 88.69165
414.0446, 89.92358
414.5268, 88.56299
415.0089, 85.29065
415.4910, 75.97803
415.9731, 68.87195
416.4552, 71.99500
416.9373, 81.63599
417.4195, 89.14502
417.9016, 92.81335
418.3837, 93.73499
418.8658, 94.35779
419.3479, 94.31726
419.8300, 93.96948
420.3122, 93.89233
420.7943, 93.71216
421.2764, 91.58801
421.7585, 88.48865
422.2406, 89.12048
422.7227, 98.36829
423.2049, 113.3484
423.6870, 114.0695
424.1691, 83.46399
424.6512, 62.99268
425.1333, 69.75305
425.6154, 83.25830
426.0976, 81.01550
426.5797, 58.61658
427.0618, 36.27393
427.5439, 39.51233
428.0260, 66.00452
428.5081, 80.25903
428.9903, 74.65503
429.4724, 65.68127
429.9545, 63.81299
430.4366, 50.24817
430.9187, 68.52197
431.4008, 78.66162
431.8830, 81.33691
432.3651, 52.06165
432.8472, 63.95264
433.3293, 59.13489
433.8114, 54.03784
434.2935, 72.34937
434.7757, 48.14978
435.2578, 65.86609
435.7399, 66.37646
436.2220, 74.75012
436.7041, 66.83447
437.1862, 64.20325
437.6684, 78.28296
438.1505, 83.10437
438.6326, 73.32910
439.1147, 82.49707
439.5968, 57.42822
440.0789, 62.32544
440.5611, 80.23950
441.0432, 71.22559
441.5253, 80.84167
442.0074, 83.35205
442.4895, 53.62646
442.9716, 79.68835
443.4538, 81.65356
443.9359, 58.93567
444.4180, 83.35828
444.9001, 64.16907
445.3822, 60.55908
445.8643, 68.66650
446.3465, 64.53943
446.8286, 79.66150
447.3107, 76.21460
447.7928, 71.10144
448.2749, 73.19873
448.7570, 54.73596
449.2392, 74.23230
449.7213, 67.82507
450.2034, 74.43274
450.6855, 68.15479
451.1676, 63.45032
451.6497, 61.06543
452.1319, 65.40930
452.6140, 67.58167
453.0961, 60.29578
453.5782, 48.09851
454.0603, 40.40564
454.5424, 41.97815
455.0246, 48.77258
455.5067, 52.05115
455.9888, 50.48877
456.4709, 49.37488
456.9530, 50.89636
457.4351, 51.76257
457.9172, 48.64111
458.3994, 42.62158
458.8815, 38.75415
459.3636, 40.21948
459.8457, 45.65283
460.3278, 53.64539
460.8099, 64.38184
461.2921, 73.78284
461.7742, 81.19678
462.2563, 85.17297
462.7384, 82.60620
463.2205, 70.73511
463.7026, 61.18347
464.1848, 60.38611
464.6669, 62.07727
465.1490, 57.97107
465.6311, 48.23804
466.1132, 41.17175
466.5953, 43.93591
467.0775, 55.00024
467.5596, 62.02698
468.0417, 62.06677
468.5238, 61.69897
469.0059, 63.91382
469.4880, 65.17517
469.9702, 59.05481
470.4523, 46.09448
470.9344, 36.33557
471.4165, 45.20020
471.8986, 69.76965
472.3807, 76.40759
472.8629, 56.56116
473.3450, 35.89539
473.8271, 29.51135
474.3092, 31.95923
474.7913, 35.71802
475.2734, 39.38623
475.7556, 44.54419
476.2377, 54.50415
476.7198, 66.09790
477.2019, 73.91260
477.6840, 76.75073
478.1661, 74.40527
478.6483, 64.77026
479.1304, 46.29956
479.6125, 39.27075
480.0946, 60.15845
480.5767, 72.45020
481.0588, 53.09851
481.5410, 21.21643
482.0231, 5.596924
482.5052, 16.31323
482.9873, 37.77551
483.4694, 48.21729
483.9515, 46.17371
484.4337, 42.65186
484.9158, 33.85840
485.3979, 29.38672
485.8800, 38.64355
486.3621, 55.00806
486.8442, 63.83777
487.3264, 56.97607
487.8085, 46.11218
488.2906, 43.88611
488.7727, 47.72827
489.2548, 45.36145
489.7369, 31.05371
490.2191, 14.49194
490.7012, 9.845581
491.1833, 19.83167
491.6654, 28.12158
492.1475, 37.16382
492.6296, 42.16077
493.1118, 38.08508
493.5939, 28.83728
494.0760, 21.67651
494.5581, 19.85303
495.0402, 20.89233
495.5223, 19.89856
496.0045, 15.34949
496.4866, 15.15356
496.9687, 27.70312
497.4508, 36.49097
497.9329, 28.54578
498.4150, 10.62842
498.8972, 9.1187000E-02
499.3793, 7.642700
499.8614, 20.66028
500.3435, 23.50867
500.8256, 18.15491
501.3077, 17.21594
501.7899, 25.78516
502.2720, 36.38586
502.7541, 39.08325
503.2362, 32.01599
503.7183, 27.08594
504.2004, 25.65979
504.6826, 25.35840
505.1647, 26.92371
505.6468, 28.34705
506.1289, 24.41736
506.6110, 12.77991
507.0931, 0.1654050
507.5752, 0.5268550
508.0573, 19.00549
508.5395, 29.82495
509.0216, 26.88745
509.5037, 20.94409
509.9858, 14.57849
510.4679, 9.562500
510.9500, 9.758789
511.4322, 18.64783
511.9143, 29.05933
512.3964, 33.78247
512.8785, 33.30518
513.3607, 28.37219
513.8428, 17.77344
514.3249, 8.374146
514.8070, 9.639038
515.2891, 24.12683
515.7712, 30.49658
516.2534, 20.27759
516.7355, 11.06580
517.2176, 12.94116
517.6997, 20.51855
518.1818, 25.08521
518.6639, 23.24402
519.1461, 16.57593
519.6282, 4.879150
520.1103, 13.76465
520.5924, 22.80774
521.0745, 16.66687
521.5566, 7.500122
522.0388, 1.054688
522.5209, 7.758423
523.0030, 9.531738
523.4851, 2.725952
523.9672, 3.123291
524.4493, 3.941284
524.9315, 17.55408
525.4136, 18.68201
525.8957, 2.433228
526.3778, 14.92676
526.8599, 17.40833
527.3420, 3.766479
527.8242, 6.437134
528.3063, 12.38013
528.7884, 15.89258
529.2705, 15.91040
529.7526, 14.36414
530.2347, 13.37195
530.7169, 13.43701
531.1990, 13.70947
531.6810, 13.81531
532.1631, 13.59558
532.6453, 10.06653
533.1274, 0.5494380
533.6095, 5.364014
534.0916, 1.868652
534.5737, 13.99072
535.0558, 18.59766
535.5380, 12.39648
536.0201, 6.578979
536.5022, 5.434937
536.9843, 7.984497
537.4664, 15.72375
537.9485, 27.43237
538.4307, 34.11133
538.9128, 27.33667
539.3949, 11.42786
539.8770, 7.512573
540.3591, 31.26208
540.8412, 42.71936
541.3234, 28.66724
541.8055, 10.59546
542.2876, 3.622437
542.7697, 8.338623
543.2518, 15.62903
543.7339, 21.16577
544.2161, 25.17041
544.6982, 28.26526
545.1803, 30.52222
545.6624, 25.84644
546.1445, 7.673950
546.6266, 12.11792
547.1088, 14.78320
547.5909, 1.320313
548.0730, 16.04041
548.5551, 30.09839
549.0372, 39.42603
549.5193, 38.15894
550.0015, 30.66272
550.4836, 26.78967
550.9657, 30.76636
551.4478, 36.71570
551.9299, 33.11401
552.4120, 17.56665
552.8942, 10.36279
553.3763, 19.21802
553.8584, 29.80090
554.3405, 36.43555
554.8226, 39.52173
555.3047, 39.40198
555.7869, 34.99268
556.2690, 30.19189
556.7511, 28.13123
557.2332, 27.73242
557.7153, 26.99951
558.1974, 25.52515
558.6796, 22.17419
559.1617, 15.00989
559.6438, 4.942261
560.1259, 1.443115
560.6080, 11.50000
561.0901, 19.48828
561.5723, 23.05505
562.0544, 24.53223
562.5365, 26.47791
563.0186, 28.77405
563.5007, 28.71069
563.9828, 22.14197
564.4650, 12.71033
564.9471, 10.84717
565.4292, 17.31482
565.9113, 21.96045
566.3934, 20.93799
566.8755, 16.34888
567.3577, 9.694336
567.8398, 4.1870002E-02
568.3219, 4.172852
568.8040, 1.336670
569.2861, 9.679810
569.7682, 18.53040
570.2504, 26.53198
570.7325, 32.08826
571.2146, 34.48950
571.6967, 33.72632
572.1788, 28.33643
572.6609, 17.08264
573.1431, 11.16638
573.6252, 13.48010
574.1073, 17.21021
574.5894, 20.09753
575.0715, 21.76929
575.5536, 20.75073
576.0358, 14.85010
576.5179, 11.72742
577.0000, 18.83752
577.4821, 30.29944
577.9642, 37.04468
578.4464, 38.01953
578.9285, 36.43115
579.4106, 33.72717
579.8927, 30.12012
580.3748, 27.37085
580.8569, 26.11670
581.3391, 24.57861
581.8212, 22.20630
582.3033, 19.96777
582.7854, 19.93176
583.2675, 20.68921
583.7496, 16.93506
584.2318, 0.8533940
584.7139, 15.49658
585.1960, 12.34778
585.6781, 6.223389
586.1602, 20.19299
586.6423, 23.86694
587.1245, 22.35327
587.6066, 20.53577
588.0887, 18.36206
588.5708, 16.71704
589.0529, 17.50964
589.5350, 16.51697
590.0172, 7.271729
590.4993, 1.529541
590.9814, 3.021118
591.4635, 21.60498
591.9456, 39.01855
592.4277, 38.33948
592.9099, 24.96887
593.3920, 21.61035
593.8741, 30.46082
594.3562, 33.99561
594.8383, 22.08704
595.3204, 4.178833
595.8026, 4.111572
596.2847, 2.048706
596.7668, 0.8217770
597.2489, 2.397339
597.7310, 4.937378
598.2131, 13.58057
598.6953, 23.65002
599.1774, 23.32874
599.6595, 8.205933
600.1416, 8.518433
600.6237, 4.519043
601.1058, 21.56580
601.5880, 36.06763
602.0701, 34.24353
602.5522, 28.75867
603.0343, 24.08203
603.5164, 20.54944
603.9985, 19.20386
604.4807, 20.67847
604.9628, 20.38928
605.4449, 13.74219
605.9270, 6.968628
606.4091, 7.764404
606.8912, 15.53113
607.3734, 26.87073
607.8555, 40.67346
608.3376, 51.44397
608.8197, 42.93652
609.3018, 4.670776
609.7839, 14.33899
610.2661, 2.711548
610.7482, 23.55591
611.2303, 32.73120
611.7124, 33.40515
612.1945, 31.38428
612.6766, 25.98401
613.1588, 22.32019
613.6409, 26.18469
614.1230, 32.84802
614.6051, 33.82739
615.0872, 28.53772
615.5693, 23.02905
616.0515, 21.56604
616.5336, 23.35339
617.0157, 24.96497
617.4978, 23.94165
617.9799, 27.80151
618.4620, 47.09302
618.9442, 62.53369
619.4263, 59.61426
619.9084, 43.65649
620.3905, 31.64038
620.8726, 31.78845
621.3547, 35.14502
621.8369, 34.64136
622.3190, 31.09875
622.8011, 25.42773
623.2832, 17.96582
623.7653, 11.96790
624.2474, 10.13892
624.7296, 12.27844
625.2117, 16.79138
625.6938, 26.10669
626.1759, 33.35498
626.6580, 40.45984
627.1401, 44.10022
627.6223, 38.88562
628.1044, 27.53784
628.5865, 20.80786
629.0686, 26.70679
629.5507, 35.19556
630.0328, 33.68799
630.5149, 25.21899
630.9970, 19.81335
631.4791, 19.92407
631.9612, 21.99365
632.4434, 22.88965
632.9255, 22.91907
633.4076, 22.81946
633.8897, 22.39001
634.3718, 21.26294
634.8539, 18.55261
635.3361, 15.88672
635.8182, 14.04211
636.3003, 13.22571
636.7824, 13.74829
637.2645, 16.43286
637.7466, 19.84521
638.2288, 21.42383
638.7109, 22.07349
639.1930, 26.55969
639.6751, 36.58411
640.1572, 44.93311
640.6393, 43.80566
641.1215, 33.50610
641.6036, 25.31067
642.0857, 14.72620
642.5678, 11.68591
643.0499, 29.49390
643.5320, 48.90479
644.0142, 50.80518
644.4963, 36.63599
644.9784, 22.92944
645.4605, 19.47778
645.9426, 20.27942
646.4247, 17.69006
646.9069, 12.90723
647.3890, 10.74573
647.8711, 12.54431
648.3532, 14.95020
648.8353, 14.82690
649.3174, 12.28259
649.7996, 13.29016
650.2817, 21.57520
650.7638, 28.00928
651.2459, 32.46777
651.7280, 34.27332
652.2101, 31.60657
652.6923, 25.20740
653.1744, 18.66199
653.6565, 12.49451
654.1386, 8.268799
654.6207, 7.467407
655.1028, 9.598145
655.5850, 13.73694
656.0671, 19.67334
656.5492, 26.54559
657.0313, 34.48279
657.5134, 42.78455
657.9955, 42.52130
658.4777, 25.97235
658.9598, 16.35010
659.4419, 22.34741
659.9240, 30.42450
660.4061, 29.55103
660.8882, 21.64990
661.3704, 17.38702
661.8525, 24.03613
662.3346, 32.12097
662.8167, 32.86011
663.2988, 28.87378
663.7809, 25.04840
664.2631, 22.53845
664.7452, 22.12286
665.2273, 25.25269
665.7094, 30.26685
666.1915, 27.59662
666.6736, 11.59906
667.1558, 0.9798580
667.6379, 2.200745
668.1200, 6.207520
668.6021, 4.227295
669.0842, 1.340881
669.5663, 2.359131
670.0485, 5.562683
670.5306, 15.15912
671.0127, 24.48914
671.4948, 31.43823
671.9769, 31.76691
672.4590, 25.90729
672.9412, 19.13116
673.4233, 15.02661
673.9054, 12.81744
674.3875, 9.895935
674.8696, 5.344666
675.3517, 4.583862
675.8339, 10.86560
676.3160, 17.34467
676.7981, 19.48102
677.2802, 18.59222
677.7623, 17.07892
678.2444, 14.06616
678.7266, 12.94995
679.2087, 17.23419
679.6908, 22.32690
680.1729, 24.31866
680.6550, 22.96771
681.1371, 18.35461
681.6193, 10.16705
682.1014, 2.281433
682.5835, 1.693665
683.0656, 8.368164
683.5477, 16.13837
684.0298, 25.31573
684.5120, 28.96088
684.9941, 20.26569
685.4762, 5.544006
685.9583, 0.1748050
686.4404, 5.358765
686.9225, 11.99908
687.4047, 22.41949
687.8868, 29.87061
688.3689, 29.56732
688.8510, 23.66382
689.3331, 15.17694
689.8152, 5.254944
690.2974, 3.198547
690.7795, 7.326965
691.2616, 7.591125
691.7437, 4.418030
692.2258, 2.232422
692.7079, 7.598511
693.1901, 9.624390
693.6722, 9.726563
694.1543, 10.10400
694.6364, 11.15741
695.1185, 10.45801
695.6006, 5.313171
696.0828, 1.731628
696.5649, 2.034668
697.0470, 4.172729
697.5291, 5.663208
698.0112, 6.341919
698.4933, 8.428162
698.9755, 15.95532
699.4576, 23.55115
699.9397, 24.07440
700.4218, 19.22894
700.9039, 13.50165
701.3860, 8.146484
701.8682, 4.598633
702.3503, 4.353333
702.8324, 7.154114
703.3145, 10.82623
703.7966, 16.22809
704.2787, 20.58356
704.7609, 24.31744
705.2430, 25.89026
705.7251, 24.23181
706.2072, 19.58698
706.6893, 12.57373
707.1714, 1.937256
707.6536, 11.08295
708.1357, 5.129700
708.6178, 7.419434
709.0999, 18.56873
709.5820, 26.57550
710.0641, 30.46838
710.5463, 29.43018
711.0284, 25.33118
711.5105, 21.20764
711.9926, 17.01715
712.4747, 12.29639
712.9568, 5.992859
713.4390, 2.893005
713.9211, 6.998169
714.4032, 16.21942
714.8853, 23.40173
715.3674, 30.81189
715.8495, 31.67493
716.3317, 18.39172
716.8138, 6.354187
717.2959, 3.096741
717.7780, 5.657898
718.2601, 8.819397
718.7422, 11.01282
719.2244, 12.17249
719.7065, 12.10437
720.1886, 11.03143
720.6707, 8.038025
721.1528, 3.995789
721.6349, 4.270691
722.1171, 11.00922
722.5992, 19.07837
723.0813, 21.90808
723.5634, 19.45929
724.0455, 17.02118
724.5276, 13.16876
725.0098, 11.76367
725.4919, 17.01129
725.9740, 22.68921
726.4561, 24.08173
726.9382, 21.40210
727.4203, 17.83783
727.9025, 11.58014
728.3846, 8.234070
728.8667, 11.71765
729.3488, 19.23169
729.8309, 29.47620
730.3130, 40.60828
730.7951, 47.24304
731.2772, 45.37976
731.7593, 39.73199
732.2415, 40.85284
732.7236, 48.09052
733.2057, 45.32568
733.6878, 27.66071
734.1699, 15.09479
734.6520, 22.36377
735.1342, 40.67792
735.6163, 47.60785
736.0984, 37.54919
736.5805, 28.44318
737.0626, 18.56915
737.5447, 11.52490
738.0269, 8.976013
738.5090, 10.08026
738.9911, 16.18921
739.4732, 27.19073
739.9553, 31.84668
740.4374, 13.70502
740.9196, 7.589539
741.4017, 4.061462
741.8838, 15.94806
742.3659, 26.59216
742.8480, 20.68823
743.3301, 11.10382
743.8123, 10.99316
744.2944, 18.58612
744.7765, 21.70654
745.2586, 18.98230
745.7407, 17.06329
746.2228, 16.49945
746.7050, 18.26874
747.1871, 26.08020
747.6692, 37.40710
748.1513, 40.70081
748.6334, 27.33289
749.1155, 18.89417
749.5977, 24.30237
750.0798, 32.48901
750.5619, 36.41888
751.0440, 35.88776
751.5261, 30.50098
752.0082, 20.34064
752.4904, 12.44800
752.9725, 17.10870
753.4546, 27.79730
753.9367, 28.72925
754.4188, 20.84534
754.9009, 17.70251
755.3831, 25.36639
755.8652, 36.17767
756.3473, 39.42365
756.8294, 34.93402
757.3115, 29.69513
757.7936, 22.28119
758.2758, 17.22437
758.7579, 16.94238
759.2400, 18.50854
759.7221, 19.52972
760.2042, 20.02539
760.6863, 20.18774
761.1685, 18.45947
761.6506, 18.41382
762.1327, 20.43726
762.6148, 25.39191
763.0969, 39.23212
763.5790, 56.73676
764.0612, 63.77698
764.5433, 52.70673
765.0254, 35.68048
765.5075, 26.46112
765.9896, 24.21979
766.4717, 25.73541
766.9539, 29.61505
767.4360, 28.59668
767.9181, 18.86664
768.4002, 6.962952
768.8823, 4.496765
769.3644, 13.13171
769.8466, 17.67822
770.3287, 17.48212
770.8108, 14.20557
771.2929, 2.013977
771.7750, 8.239563
772.2571, 1.627258
772.7393, 19.96405
773.2214, 30.44043
773.7035, 10.30872
774.1856, 4.022522
774.6677, 8.638123
775.1498, 29.69006
775.6320, 41.13019
776.1141, 42.09698
776.5962, 39.81647
777.0783, 38.11066
777.5604, 34.36676
778.0425, 20.05933
778.5247, 1.968445
779.0068, 1.461792
779.4889, 19.13947
779.9710, 38.40710
780.4531, 51.91113
780.9352, 57.72510
781.4174, 50.47510
781.8995, 28.06970
782.3816, 16.34314
782.8637, 19.94470
783.3458, 24.48907
783.8279, 25.74988
784.3101, 25.84888
784.7922, 26.87170
785.2743, 28.34528
785.7564, 30.77722
786.2385, 35.58673
786.7206, 39.60852
787.2028, 43.26660
787.6849, 44.62415
788.1670, 41.06250
788.6491, 33.69977
789.1312, 25.09851
789.6133, 15.52765
790.0955, 9.496399
790.5776, 13.46802
791.0597, 23.16327
791.5418, 32.07605
792.0239, 39.20300
792.5060, 42.71484
792.9882, 41.76898
793.4703, 38.06134
793.9524, 33.37244
794.4345, 27.83856
794.9166, 23.38397
795.3987, 19.70044
795.8809, 18.56653
796.3630, 22.35541
796.8451, 25.72070
797.3272, 21.15863
797.8093, 10.10132
798.2914, 9.127563
798.7736, 29.18555
799.2557, 42.09387
799.7378, 41.47693
800.2199, 36.40051
800.7020, 30.01593
801.1841, 24.34973
801.6663, 23.30768
802.1484, 28.80969
802.6305, 32.93011
803.1126, 30.06128
803.5947, 24.23676
804.0768, 16.88568
804.5590, 10.50537
805.0411, 12.22955
805.5232, 22.98669
806.0053, 32.57513
806.4874, 31.32233
806.9695, 22.11407
807.4517, 9.989014
807.9338, 4.415833
808.4159, 8.585571
808.8980, 1.091614
809.3801, 12.80383
809.8622, 18.36584
810.3444, 18.78821
810.8265, 16.78308
811.3086, 9.512573
811.7907, 7.255493
812.2728, 14.83392
812.7549, 21.05701
813.2371, 18.86920
813.7192, 14.10443
814.2013, 14.85822
814.6834, 22.01135
815.1655, 26.42639
815.6476, 24.91382
816.1298, 21.81653
816.6119, 16.86353
817.0940, 12.78400
817.5761, 14.05597
818.0582, 19.35394
818.5403, 22.27783
819.0225, 19.46368
819.5046, 13.16699
819.9867, 0.9742430
820.4688, 11.14044
820.9509, 8.938538
821.4330, 5.542847
821.9152, 17.17401
822.3973, 19.02490
822.8794, 14.57452
823.3615, 6.321472
823.8436, 4.602966
824.3257, 5.261841
824.8079, 5.960022
825.2900, 13.57446
825.7721, 11.37329
826.2542, 9.612183
826.7363, 20.03485
827.2184, 40.05219
827.7006, 49.56439
828.1826, 42.61096
828.6647, 35.24414
829.1469, 26.10455
829.6290, 18.37195
830.1111, 16.01312
830.5932, 16.58618
831.0753, 15.69916
831.5574, 12.30237
832.0396, 10.56665
832.5217, 15.73712
833.0038, 19.94403
833.4859, 14.23199
833.9680, 7.262634
834.4501, 14.53894
834.9323, 34.52588
835.4144, 46.82654
835.8965, 35.28430
836.3786, 18.55444
836.8607, 19.76294
837.3428, 31.17188
837.8250, 38.13348
838.3071, 39.04810
838.7892, 32.94940
839.2713, 19.58789
839.7534, 5.972046
840.2355, 4.243835
840.7177, 12.80005
841.1998, 12.03149
841.6819, 0.4556880
842.1640, 4.145325
842.6461, 5.563904
843.1282, 17.78302
843.6104, 21.32800
844.0925, 17.68359
844.5746, 18.04926
845.0567, 25.69788
845.5388, 30.54187
846.0209, 30.47644
846.5031, 29.03302
846.9852, 27.55377
847.4673, 26.03778
847.9494, 24.19110
848.4315, 21.72345
848.9136, 20.81860
849.3958, 23.83215
849.8779, 26.24683
850.3600, 27.10394
850.8421, 25.59967
851.3242, 18.80463
851.8063, 8.435425
852.2885, 1.958252
852.7706, 3.877625
853.2527, 8.349304
853.7348, 12.45251
854.2169, 15.11359
854.6990, 13.21118
855.1812, 8.501709
855.6633, 7.548462
856.1454, 12.69702
856.6275, 17.61316
857.1096, 13.25543
857.5917, 3.944519
858.0739, 2.483398
858.5560, 8.063599
859.0381, 15.55139
859.5202, 23.90546
860.0023, 26.52747
860.4844, 16.69122
860.9666, 0.7830810
861.4487, 0.3447270
861.9308, 17.15533
862.4129, 24.40424
862.8950, 16.15411
863.3771, 8.339111
863.8593, 8.704529
864.3414, 13.12372
864.8235, 16.03772
865.3056, 17.24506
865.7877, 19.04742
866.2698, 25.25751
866.7520, 27.71246
867.2341, 20.39630
867.7162, 12.54596
868.1983, 11.03619
868.6804, 13.49054
869.1625, 15.02240
869.6447, 13.79926
870.1268, 15.12885
870.6089, 26.19318
871.0910, 34.43384
871.5731, 29.30499
872.0552, 17.84802
872.5374, 8.790649
873.0195, 4.139404
873.5016, 3.273621
873.9837, 7.606689
874.4658, 12.83978
874.9479, 15.09131
875.4301, 15.59430
875.9122, 16.12000
876.3943, 16.74530
876.8764, 16.34985
877.3585, 14.46661
877.8406, 13.64020
878.3228, 18.82678
878.8049, 26.93591
879.2870, 25.93823
879.7691, 16.86414
880.2512, 9.318909
880.7333, 5.378235
881.2155, 3.846497
881.6976, 3.430908
882.1797, 4.385071
882.6618, 8.119934
883.1439, 14.84967
883.6260, 15.50134
884.1082, 8.030212
884.5903, 1.448547
885.0724, 0.9155880
885.5545, 0.3609620
886.0366, 5.185913
886.5187, 14.00684
887.0009, 17.32159
887.4830, 10.56110
887.9651, 7.289978
888.4472, 12.43213
888.9293, 17.96283
889.4114, 18.25360
889.8936, 15.51288
890.3757, 14.28046
890.8578, 15.11926
891.3399, 15.89319
891.8220, 17.73120
892.3041, 17.83533
892.7863, 11.95215
893.2684, 6.169617
893.7505, 9.359436
894.2326, 19.12946
894.7147, 21.49139
895.1968, 6.306763
895.6790, 5.067871
896.1611, 0.6577150
896.6432, 11.59766
897.1253, 19.63556
897.6074, 23.84265
898.0895, 23.53699
898.5717, 18.87341
899.0538, 12.57123
899.5359, 2.339661
900.0180, 4.550293
900.5001, 5.558960
900.9822, 22.55127
901.4644, 28.50433
901.9465, 23.05591
902.4286, 15.56268
902.9107, 10.53998
903.3928, 7.724548
903.8749, 8.098083
904.3571, 9.995789
904.8392, 7.464722
905.3213, 1.895508
905.8034, 2.269348
906.2855, 10.52911
906.7676, 17.70911
907.2498, 16.12762
907.7319, 10.38574
908.2140, 12.41272
908.6961, 21.92426
909.1782, 28.04053
909.6603, 30.09167
910.1425, 27.84894
910.6246, 19.98761
911.1067, 13.16284
911.5888, 16.42468
912.0709, 28.28882
912.5530, 33.97540
913.0352, 32.49799
913.5173, 27.65771
913.9994, 16.83289
914.4815, 9.761536
914.9636, 14.14838
915.4457, 24.00195
915.9279, 28.04150
916.4100, 25.44220
916.8921, 21.63354
917.3742, 13.48621
917.8563, 8.989380
918.3384, 15.19147
918.8206, 20.54681
919.3027, 12.54816
919.7848, 2.656311
920.2669, 5.916504
920.7490, 10.37048
921.2311, 21.65680
921.7133, 21.13055
922.1954, 19.81104
922.6775, 21.58594
923.1596, 25.37500
923.6417, 33.33014
924.1238, 43.07861
924.6060, 41.60535
925.0881, 14.31616
925.5702, 5.302124
926.0523, 1.558228
926.5344, 14.84918
927.0165, 22.84650
927.4986, 25.25049
927.9807, 21.08533
928.4628, 11.29529
928.9449, 6.630127
929.4271, 19.75684
929.9092, 32.00519
930.3913, 26.03418
930.8734, 14.47693
931.3555, 13.05505
931.8376, 19.90466
932.3198, 25.04327
932.8019, 24.80756
933.2840, 23.93335
933.7661, 29.46753
934.2482, 33.98907
934.7303, 24.79749
935.2125, 8.869812
935.6946, 0.6627810
936.1767, 1.222717
936.6588, 2.148499
937.1409, 1.247803
937.6230, 2.759949
938.1052, 10.26672
938.5873, 29.40320
939.0694, 34.96948
939.5515, 29.19849
940.0336, 22.31873
940.5157, 17.04987
940.9979, 11.54474
941.4800, 4.106750
941.9621, 3.239502
942.4442, 8.075256
942.9263, 9.617004
943.4084, 1.080627
943.8906, 16.71155
944.3727, 30.12640
944.8548, 34.77173
945.3369, 33.77063
945.8190, 30.11121
946.3011, 25.03491
946.7833, 22.00482
947.2654, 20.98291
947.7475, 20.38312
948.2296, 20.11163
948.7117, 19.46735
949.1938, 18.06110
949.6760, 16.46204
950.1581, 15.24310
950.6402, 14.54498
951.1223, 16.14264
951.6044, 20.73578
952.0865, 23.05530
952.5687, 22.43097
953.0508, 18.25824
953.5329, 7.673157
954.0150, 1.872131
954.4971, 3.096985
954.9792, 23.75012
955.4614, 32.97815
955.9435, 26.56018
956.4256, 21.45184
956.9077, 20.29962
957.3898, 22.30347
957.8719, 27.68097
958.3541, 35.33685
958.8362, 41.85254
959.3183, 48.16107
959.8004, 48.52307
960.2825, 39.42474
960.7646, 31.02661
961.2468, 23.66779
961.7289, 20.52966
962.2110, 27.93341
962.6931, 40.91742
963.1752, 42.26562
963.6573, 25.56317
964.1395, 13.89008
964.6216, 5.515442
965.1037, 4.673462
965.5858, 20.45581
966.0679, 37.67719
966.5500, 40.95203
967.0322, 33.53241
967.5143, 31.29108
967.9964, 39.04700
968.4785, 41.20502
968.9606, 29.52332
969.4427, 21.64154
969.9249, 29.11475
970.4070, 39.79669
970.8891, 39.59448
971.3712, 30.06482
971.8533, 25.40930
972.3354, 30.19080
972.8176, 34.67889
973.2997, 40.84827
973.7818, 42.75812
974.2639, 33.29797
974.7460, 20.65881
975.2281, 13.63501
975.7103, 12.94305
976.1924, 17.50964
976.6745, 35.05225
977.1566, 46.14862
977.6387, 41.11755
978.1208, 34.06964
978.6030, 34.96472
979.0851, 38.70258
979.5672, 38.21411
980.0493, 32.73242
980.5314, 25.67987
981.0135, 12.66382
981.4957, 5.582397
981.9778, 13.35315
982.4599, 22.91479
982.9420, 25.45306
983.4241, 23.23413
983.9063, 20.75238
984.3884, 19.21191
984.8705, 21.09186
985.3526, 30.57990
985.8347, 38.31622
986.3168, 40.10516
986.7990, 38.92651
987.2811, 36.61292
987.7632, 33.23108
988.2453, 26.63885
988.7274, 16.69708
989.2095, 13.59351
989.6917, 29.83234
990.1738, 42.51752
990.6559, 38.29907
991.1380, 28.92114
991.6201, 23.42206
992.1022, 21.01208
992.5844, 18.82440
993.0665, 15.58136
993.5486, 11.29260
994.0307, 2.997192
994.5128, 2.705933
994.9949, 0.8705440
995.4771, 3.477173
995.9592, 7.069153
996.4413, 9.279602
996.9234, 9.647217
997.4055, 8.040344
997.8876, 7.948669
998.3698, 12.00238
998.8519, 16.61230
999.3340, 21.53333
999.8161, 24.54108
1000.298, 23.71320
1000.780, 19.57129
1001.262, 12.20667
1001.745, 0.8894650
1002.227, 5.662231
1002.709, 2.864319
1003.191, 5.002869
1003.673, 21.97107
1004.155, 37.61053
1004.637, 40.01965
1005.119, 33.21649
1005.602, 26.81635
1006.084, 23.10486
1006.566, 21.79297
1007.048, 26.25360
1007.530, 28.77008
1008.012, 21.32007
1008.494, 13.32483
1008.976, 16.92957
1009.458, 26.34802
1009.941, 25.77563
1010.423, 11.18445
1010.905, 1.434692
1011.387, 8.714233
1011.869, 17.30103
1012.351, 18.91064
1012.833, 19.05634
1013.315, 25.74219
1013.797, 34.26636
1014.280, 32.17218
1014.762, 16.47296
1015.244, 5.639343
1015.726, 11.72174
1016.208, 17.84857
1016.690, 14.70642
1017.172, 9.738220
1017.654, 10.32776
1018.137, 14.12714
1018.619, 14.01996
1019.101, 9.548767
1019.583, 10.59399
1020.065, 26.70978
1020.547, 40.68994
1021.029, 48.48383
1021.511, 49.03284
1021.993, 34.39124
1022.476, 14.92670
1022.958, 11.84888
1023.440, 28.32605
1023.922, 35.15314
1024.404, 12.14825
1024.886, 4.886047
1025.368, 6.5246999E-02
1025.850, 9.816956
1026.333, 14.91632
1026.815, 16.31915
1027.297, 15.99792
1027.779, 14.29199
1028.261, 15.44312
1028.743, 23.93567
1029.225, 30.19464
1029.707, 32.15247
1030.189, 31.27454
1030.672, 26.65155
1031.154, 20.69757
1031.636, 15.54388
1032.118, 11.56470
1032.600, 13.02533
1033.082, 28.18024
1033.564, 37.20569
1034.046, 33.37494
1034.528, 28.02521
1035.011, 27.15289
1035.493, 26.54382
1035.975, 19.23041
1036.457, 6.015869
1036.939, 1.903809
1037.421, 16.42871
1037.903, 25.79431
1038.385, 27.81073
1038.868, 26.05292
1039.350, 18.98334
1039.832, 11.06262
1040.314, 7.878235
1040.796, 8.449097
1041.278, 5.734497
1041.760, 8.230103
1042.242, 9.015381
1042.724, 15.43799
1043.207, 33.92035
1043.689, 33.25690
1044.171, 26.52820
1044.653, 25.63629
1045.135, 28.96356
1045.617, 30.03674
1046.099, 28.61603
1046.581, 25.17133
1047.063, 17.04425
1047.546, 14.62860
1048.028, 24.99310
1048.510, 32.53607
1048.992, 22.23096
1049.474, 2.613464
1049.956, 2.681519
1050.438, 8.459229
1050.920, 17.13660
1051.403, 23.42834
1051.885, 26.38110
1052.367, 24.73517
1052.849, 23.33337
1053.331, 25.65869
1053.813, 28.84473
1054.295, 27.10297
1054.777, 20.71570
1055.260, 17.09705
1055.742, 16.33752
1056.224, 16.16162
1056.706, 16.18042
1057.188, 16.50616
1057.670, 17.21863
1058.152, 18.21967
1058.634, 19.84521
1059.116, 21.38354
1059.599, 19.16595
1060.081, 13.29370
1060.563, 7.500549
1061.045, 2.462646
1061.527, 0.3634030
1062.009, 2.229309
1062.491, 5.668274
1062.973, 8.541138
1063.455, 10.55017
1063.938, 10.92456
1064.420, 9.860535
1064.902, 6.000610
1065.384, 1.033813
1065.866, 3.303955
1066.348, 14.69916
1066.830, 26.40521
1067.312, 32.19434
1067.795, 33.06067
1068.277, 27.48236
1068.759, 19.51062
1069.241, 16.46619
1069.723, 16.90503
1070.205, 16.23041
1070.687, 13.79669
1071.169, 12.07672
1071.651, 11.93573
1072.134, 14.48840
1072.616, 25.05701
1073.098, 34.63489
1073.580, 33.87177
1074.062, 25.82867
1074.544, 10.35681
1075.026, 7.301819
1075.508, 10.84406
1075.990, 7.367920
1076.473, 23.23053
1076.955, 22.63104
1077.437, 17.50366
1077.919, 12.29919
1078.401, 8.318054
1078.883, 5.774597
1079.365, 5.524536
1079.847, 10.79486
1080.329, 22.60266
1080.812, 29.02271
1081.294, 22.99457
1081.776, 16.74274
1082.258, 11.84406
1082.740, 9.232178
1083.222, 12.15253
1083.704, 17.43555
1084.186, 21.90259
1084.669, 25.24060
1085.151, 23.19989
1085.633, 6.458984
1086.115, 4.2479999E-02
1086.597, 10.63538
1087.079, 22.12933
1087.561, 30.30243
1088.043, 34.65729
1088.526, 33.98254
1089.008, 29.31702
1089.490, 24.78784
1089.972, 20.92096
1090.454, 14.54602
1090.936, 4.216064
1091.418, 3.717346
1091.900, 8.358459
1092.382, 6.758667
1092.865, 4.700439
1093.347, 19.79517
1093.829, 26.50635
1094.311, 25.42444
1094.793, 25.29968
1095.275, 26.18738
1095.757, 23.96857
1096.239, 18.12921
1096.721, 18.33643
1097.204, 29.61981
1097.686, 37.68903
1098.168, 22.82147
1098.650, 2.540955
1099.132, 7.757263
1099.614, 0.7327880
1100.096, 7.418762
1100.578, 11.58820
1101.061, 12.77631
1101.543, 11.73267
1102.025, 13.44922
1102.507, 22.82452
1102.989, 31.77686
1103.471, 30.45898
1103.953, 24.02106
1104.435, 15.95459
1104.917, 9.432190
1105.400, 10.87292
1105.882, 18.87415
1106.364, 25.23517
1106.846, 26.93170
1107.328, 25.58838
1107.810, 18.35376
1108.292, 13.02594
1108.774, 16.02472
1109.256, 20.72919
1109.739, 19.11035
1110.221, 14.74023
1110.703, 17.51013
1111.185, 29.10840
1111.667, 34.54309
1112.149, 26.61108
1112.631, 18.55725
1113.113, 9.984619
1113.596, 5.055603
1114.078, 9.584595
1114.560, 15.84302
1115.042, 14.57062
1115.524, 7.419678
1116.006, 4.065796
1116.488, 5.899902
1116.970, 7.555542
1117.453, 9.301147
1117.935, 10.02283
1118.417, 9.141174
1118.899, 7.854004
1119.381, 6.745728
1119.863, 6.463013
1120.345, 7.854004
1120.827, 10.94574
1121.309, 17.72052
1121.792, 27.77075
1122.274, 29.97113
1122.756, 23.15991
1123.238, 18.87476
1123.720, 22.22845
1124.202, 27.17383
1124.684, 27.39874
1125.166, 25.56854
1125.648, 27.02966
1126.131, 30.00861
1126.613, 32.13239
1127.095, 31.90936
1127.577, 23.41821
1128.059, 7.914429
1128.541, 1.884705
1129.023, 1.630798
1129.505, 8.059937
1129.988, 11.07556
1130.470, 11.50806
1130.952, 7.867981
1131.434, 3.716858
1131.916, 2.941833
1132.398, 5.303833
1132.880, 9.898865
1133.362, 17.21320
1133.844, 20.10675
1134.327, 9.805237
1134.809, 2.365967
1135.291, 1.748779
1135.773, 5.172913
1136.255, 17.03662
1136.737, 27.74628
1137.219, 23.11328
1137.701, 7.046265
1138.183, 1.182739
1138.666, 10.63538
1139.148, 14.29456
1139.630, 9.867249
1140.112, 6.839966
1140.594, 6.397644
1141.076, 9.552856
1141.558, 17.49561
1142.040, 27.16028
1142.523, 34.35522
1143.005, 38.32111
1143.487, 30.81812
1143.969, 14.14380
1144.451, 10.23529
1144.933, 19.80017
1145.415, 29.21509
1145.897, 33.45508
1146.380, 36.05951
1146.862, 40.88232
1147.344, 42.15961
1147.826, 27.42560
1148.308, 7.951660
1148.790, 0.4216920
1149.272, 0.6594850
1149.754, 0.5215450
1150.236, 0.4016720
1150.719, 0.8986820
1151.201, 4.845459
1151.683, 11.02161
1152.165, 23.33649
1152.647, 32.42181
1153.129, 29.94116
1153.611, 26.54840
1154.093, 35.05060
1154.575, 45.18622
1155.058, 36.74731
1155.540, 10.99384
1156.022, 0.3838500
1156.504, 16.36475
1156.986, 23.94427
1157.468, 19.66278
1157.950, 16.58606
1158.432, 19.46661
1158.915, 21.28662
1159.397, 15.53052
1159.879, 8.779724
1160.361, 14.94592
1160.843, 31.62061
1161.325, 34.69379
1161.807, 25.25128
1162.289, 22.67767
1162.771, 28.52625
1163.254, 33.72278
1163.736, 34.98138
1164.218, 34.64813
1164.700, 34.82648
1165.182, 33.65283
1165.664, 26.52441
1166.146, 18.05536
1166.628, 14.75391
1167.110, 15.48932
1167.593, 18.46155
1168.075, 22.90906
1168.557, 28.47760
1169.039, 34.66644
1169.521, 38.82678
1170.003, 39.31403
1170.485, 38.30786
1170.967, 34.46466
1171.450, 31.84680
1171.932, 36.33081
1172.414, 41.96716
1172.896, 37.41541
1173.378, 25.62860
1173.860, 19.15259
1174.342, 19.83380
1174.824, 19.13940
1175.306, 15.25037
1175.789, 16.60077
1176.271, 26.60254
1176.753, 35.41193
1177.235, 37.68604
1177.717, 34.86230
1178.199, 28.01642
1178.681, 18.68719
1179.163, 9.513123
1179.646, 3.009644
1180.128, 11.18030
1180.610, 29.96985
1181.092, 35.83215
1181.574, 25.24701
1182.056, 15.42712
1182.538, 15.92975
1183.020, 18.14954
1183.502, 10.88019
1183.984, 6.412415
1184.467, 23.67407
1184.949, 42.17004
1185.431, 35.40204
1185.913, 14.83191
1186.395, 3.911377
1186.877, 5.642090
1187.359, 11.48944
1187.841, 25.34497
1188.324, 33.20172
1188.806, 30.91876
1189.288, 27.33429
1189.770, 23.50818
1190.252, 21.25696
1190.734, 22.45636
1191.216, 25.12653
1191.698, 25.84949
1192.181, 24.65228
1192.663, 19.88037
1193.145, 12.05054
1193.627, 15.93256
1194.109, 31.19592
1194.591, 37.79535
1195.073, 30.32062
1195.555, 22.75189
1196.037, 25.25867
1196.520, 27.61951
1197.002, 10.97894
1197.484, 5.780029
1197.966, 6.568542
1198.448, 29.14636
1198.930, 35.50122
1199.412, 29.09857
1199.894, 23.60626
1200.376, 21.83539
1200.859, 21.61523
1201.341, 24.85120
1201.823, 24.99530
1202.305, 17.60480
1202.787, 11.23492
1203.269, 7.512573
1203.751, 7.613770
1204.233, 14.26624
1204.716, 23.12982
1205.198, 26.13690
1205.680, 23.80145
1206.162, 24.01929
1206.644, 26.78009
1207.126, 26.44830
1207.608, 22.72626
1208.090, 20.12280
1208.573, 20.02478
1209.055, 21.60602
1209.537, 24.38672
1210.019, 26.87134
1210.501, 27.60986
1210.983, 26.67822
1211.465, 22.34412
1211.947, 17.74951
1212.429, 17.39661
1212.911, 20.24005
1213.394, 23.67059
1213.876, 27.03461
1214.358, 29.95575
1214.840, 34.10986
1215.322, 34.02716
1215.804, 25.06342
1216.286, 17.03979
1216.768, 12.25110
1217.251, 9.547485
1217.733, 8.295776
1218.215, 8.627380
1218.697, 11.08411
1219.179, 15.16803
1219.661, 17.15448
1220.143, 17.37128
1220.625, 22.83710
1221.108, 32.73895
1221.590, 36.33020
1222.072, 31.72473
1222.554, 26.23407
1223.036, 23.73962
1223.518, 22.97192
1224.000, 25.99664
1224.482, 26.44226
1224.964, 14.13623
1225.447, 1.6663000E-02
1225.929, 4.852661
1226.411, 3.418457
1226.893, 1.380066
1227.375, 0.9843750
1227.857, 7.314148
1228.339, 23.24506
1228.821, 25.38202
1229.303, 0.6098020
1229.786, 9.592468
1230.268, 12.48779
1230.750, 32.97980
1231.232, 36.37854
1231.714, 31.59650
1232.196, 26.50287
1232.678, 23.25635
1233.160, 25.55353
1233.643, 31.41748
1234.125, 33.94122
1234.607, 33.60773
1235.089, 33.65247
1235.571, 33.03473
1236.053, 23.37292
1236.535, 3.422668
1237.017, 7.078308
1237.500, 9.092224
1237.982, 25.51581
1238.464, 28.59558
1238.946, 28.19928
1239.428, 28.77130
1239.910, 29.53821
1240.392, 30.88110
1240.874, 30.95105
1241.356, 25.06854
1241.839, 13.60931
1242.321, 9.571777
1242.803, 13.83862
1243.285, 20.12695
1243.767, 28.26599
1244.249, 29.40149
1244.731, 21.40326
1245.213, 13.52777
1245.695, 11.31989
1246.178, 11.34631
1246.660, 13.31818
1247.142, 17.17834
1247.624, 22.12726
1248.106, 22.57562
1248.588, 16.28345
1249.070, 7.495972
1249.552, 9.985657
1250.035, 21.36096
1250.517, 24.26544
1250.999, 12.09869
1251.481, 6.890320
1251.963, 14.48987
1252.445, 19.65656
1252.927, 16.08014
1253.409, 12.21033
1253.891, 11.47284
1254.374, 11.51154
1254.856, 10.16638
1255.338, 8.339417
1255.820, 7.914978
1256.302, 8.545410
1256.784, 8.463074
1257.266, 8.685059
1257.748, 13.75439
1258.230, 21.29022
1258.713, 23.32990
1259.195, 18.73273
1259.677, 13.32770
1260.159, 9.118896
1260.641, 5.634094
1261.123, 0.1470340
1261.605, 1.096741
1262.087, 10.87329
1262.570, 19.66266
1263.052, 11.27118
1263.534, 0.9483030
1264.016, 5.639038
1264.498, 24.03442
1264.980, 27.46960
1265.462, 18.55786
1265.944, 0.0000000E+00
##END=



