##NAMES=Oxy-schorl
##RRUFFID=R140339
##IDEAL CHEMISTRY=Na(Fe^2+^_2_Al)Al_6_Si_6_O_18_(BO_3_)_3_(OH)_3_O
##LOCALITY=PÅ™ibyslavice, Bohemia, Czech Republic
##OWNER=RRUFF
##SOURCE=Bob Jenkins
##DESCRIPTION=Black grains embedded in quartz and orthoclase
##STATUS=The identification of this mineral has been confirmed only by single crystal X-ray diffraction.
##URL=rruff.info/R140339
147.9675, 0.0000000E+00
148.4497, 0.7650150
148.9318, 0.5946040
149.4139, 2.9300000E-03
149.8960, 0.2414550
150.3781, 1.049194
150.8602, 2.073608
151.3424, 2.134033
151.8245, 1.834229
152.3066, 0.9910890
152.7887, 0.1453860
153.2708, 0.3314210
153.7529, 0.3024900
154.2351, 0.1223140
154.7172, 0.6743160
155.1993, 1.427246
155.6814, 2.234009
156.1635, 2.973633
156.6456, 3.782837
157.1278, 4.847046
157.6099, 6.263916
158.0920, 7.971924
158.5741, 9.737671
159.0562, 12.15173
159.5383, 14.00085
160.0205, 14.18604
160.5026, 13.48474
160.9847, 13.86597
161.4668, 16.74866
161.9489, 21.42493
162.4310, 24.61633
162.9131, 25.39014
163.3953, 25.71057
163.8774, 26.65051
164.3595, 28.15454
164.8416, 29.70801
165.3237, 30.86584
165.8058, 31.90430
166.2880, 33.47400
166.7701, 36.35144
167.2522, 39.23792
167.7343, 40.29199
168.2164, 39.15405
168.6985, 38.42493
169.1807, 40.08264
169.6628, 43.04419
170.1449, 46.13525
170.6270, 48.83167
171.1091, 51.11316
171.5912, 53.04968
172.0734, 54.75024
172.5555, 55.48706
173.0376, 54.49695
173.5197, 52.72498
174.0018, 51.48975
174.4839, 51.77893
174.9661, 53.23828
175.4482, 53.64417
175.9303, 51.85376
176.4124, 50.25708
176.8945, 49.52576
177.3766, 49.36169
177.8588, 49.35278
178.3409, 49.13965
178.8230, 48.69324
179.3051, 48.09399
179.7872, 47.44922
180.2693, 46.59082
180.7515, 45.43433
181.2336, 44.01306
181.7157, 42.39978
182.1978, 40.69446
182.6799, 38.89111
183.1620, 37.17859
183.6441, 35.70251
184.1263, 34.14014
184.6084, 32.32275
185.0905, 30.31409
185.5726, 28.31409
186.0547, 26.63354
186.5368, 25.44800
187.0190, 23.82410
187.5011, 20.55505
187.9832, 17.64905
188.4653, 16.71057
188.9474, 17.73071
189.4296, 19.54199
189.9117, 20.78516
190.3938, 21.16687
190.8759, 20.20117
191.3580, 16.62720
191.8401, 12.45508
192.3223, 10.25134
192.8044, 10.51685
193.2865, 11.33582
193.7686, 11.06921
194.2507, 10.06738
194.7328, 9.445190
195.2150, 9.745605
195.6971, 10.66370
196.1792, 11.73694
196.6613, 13.11377
197.1434, 14.06836
197.6255, 13.95129
198.1077, 13.07532
198.5898, 12.22803
199.0719, 11.85095
199.5540, 11.84888
200.0361, 11.86646
200.5182, 11.91431
201.0004, 12.01318
201.4825, 12.00024
201.9646, 11.98694
202.4467, 12.29504
202.9288, 13.46619
203.4109, 15.41113
203.8930, 16.25342
204.3752, 14.60559
204.8573, 13.28430
205.3394, 13.79773
205.8215, 16.06775
206.3036, 18.10364
206.7857, 18.58057
207.2679, 17.39417
207.7500, 16.60339
208.2321, 16.33911
208.7142, 16.36780
209.1963, 16.85339
209.6784, 17.62085
210.1606, 18.29309
210.6427, 18.52795
211.1248, 18.28137
211.6069, 17.92346
212.0890, 17.56848
212.5711, 17.01929
213.0533, 15.86292
213.5354, 14.35132
214.0175, 13.20996
214.4996, 13.17749
214.9817, 14.48169
215.4638, 15.28308
215.9460, 15.46240
216.4281, 15.37659
216.9102, 15.03064
217.3923, 14.52856
217.8744, 14.14795
218.3565, 14.20959
218.8387, 14.80579
219.3208, 14.90137
219.8029, 14.51929
220.2850, 13.68774
220.7671, 12.08643
221.2492, 9.854614
221.7314, 7.826294
222.2135, 6.730225
222.6956, 6.666260
223.1777, 6.725098
223.6598, 7.541138
224.1419, 8.020630
224.6240, 6.992554
225.1062, 4.480103
225.5883, 2.046753
226.0704, 1.096191
226.5525, 1.461914
227.0346, 1.377930
227.5167, 0.3359380
227.9989, 0.9414060
228.4810, 1.699951
228.9631, 1.885132
229.4452, 2.092285
229.9273, 2.922119
230.4094, 4.091797
230.8916, 4.816895
231.3737, 4.828003
231.8558, 4.406006
232.3379, 3.766357
232.8200, 2.866577
233.3021, 1.999878
233.7843, 1.397095
234.2664, 0.9696040
234.7485, 0.5751950
235.2306, 0.1307370
235.7127, 0.2730710
236.1948, 0.3753660
236.6770, 1.9286999E-02
237.1591, 2.0020001E-02
237.6412, 1.213013
238.1233, 2.822144
238.6054, 3.733887
239.0875, 3.397705
239.5697, 2.554321
240.0518, 2.442871
240.5339, 3.309082
241.0160, 4.075439
241.4981, 4.227295
241.9802, 4.127930
242.4624, 4.089111
242.9445, 4.204956
243.4266, 4.431274
243.9087, 4.605713
244.3908, 4.516846
244.8729, 5.003540
245.3550, 6.911255
245.8372, 9.087524
246.3193, 10.49207
246.8014, 10.75037
247.2835, 10.47229
247.7656, 10.74390
248.2477, 11.89087
248.7299, 12.80139
249.2120, 13.05957
249.6941, 13.15076
250.1762, 13.46179
250.6583, 14.12366
251.1404, 14.95532
251.6226, 15.71924
252.1047, 16.64709
252.5868, 16.92444
253.0689, 15.83252
253.5510, 14.61047
254.0331, 14.17236
254.5153, 14.73816
254.9974, 15.82080
255.4795, 16.66528
255.9616, 17.02661
256.4437, 17.69299
256.9258, 18.94763
257.4080, 20.27063
257.8901, 21.34216
258.3722, 22.09448
258.8543, 22.65442
259.3364, 23.18018
259.8185, 23.66565
260.3007, 24.12769
260.7828, 24.62915
261.2649, 25.06470
261.7470, 25.42419
262.2291, 25.66382
262.7112, 25.67590
263.1934, 25.28015
263.6755, 24.24329
264.1576, 23.68445
264.6397, 23.65527
265.1218, 23.92859
265.6039, 24.44934
266.0861, 25.17993
266.5682, 26.05029
267.0503, 26.99561
267.5324, 28.00293
268.0145, 29.19714
268.4966, 30.83142
268.9788, 32.37903
269.4609, 33.59363
269.9430, 34.48169
270.4251, 35.16357
270.9072, 35.71802
271.3893, 36.13928
271.8715, 36.52527
272.3536, 37.00818
272.8357, 37.34790
273.3178, 37.33032
273.7999, 37.06079
274.2820, 36.80029
274.7642, 36.70190
275.2463, 36.77075
275.7284, 37.13049
276.2105, 38.36121
276.6926, 39.19470
277.1747, 38.86914
277.6568, 37.80774
278.1389, 37.01526
278.6211, 37.08057
279.1032, 37.73877
279.5853, 37.87451
280.0674, 37.35596
280.5495, 36.62012
281.0316, 35.43176
281.5138, 34.14905
281.9959, 33.50928
282.4780, 33.90967
282.9601, 34.82373
283.4422, 34.93933
283.9243, 34.17603
284.4065, 33.03821
284.8886, 31.33337
285.3707, 29.33679
285.8528, 27.40771
286.3349, 25.68835
286.8170, 24.25586
287.2992, 23.26697
287.7813, 22.88879
288.2634, 22.16992
288.7455, 21.18335
289.2276, 19.78015
289.7097, 17.34021
290.1919, 13.66663
290.6740, 10.27966
291.1561, 9.340088
291.6382, 11.26343
292.1203, 12.23511
292.6024, 11.14368
293.0846, 9.354858
293.5667, 8.214844
294.0488, 7.867920
294.5309, 7.600830
295.0130, 6.784790
295.4951, 5.448120
295.9773, 4.223511
296.4594, 2.741333
296.9415, 1.606323
297.4236, 1.516479
297.9057, 2.416138
298.3878, 3.365356
298.8700, 3.659912
299.3521, 3.398071
299.8342, 3.432861
300.3163, 4.503052
300.7984, 5.197144
301.2805, 4.297241
301.7627, 2.145630
302.2448, 0.3167720
302.7269, 0.3763430
303.2090, 0.1260990
303.6911, 0.3342290
304.1732, 1.150635
304.6554, 1.909302
305.1375, 2.522217
305.6196, 2.955444
306.1017, 3.019165
306.5838, 2.516724
307.0659, 1.840332
307.5481, 1.897949
308.0302, 2.960693
308.5123, 3.607666
308.9944, 2.940552
309.4765, 1.651123
309.9586, 1.001953
310.4408, 1.381226
310.9229, 2.120605
311.4050, 2.233032
311.8871, 1.669678
312.3692, 1.598633
312.8513, 2.668213
313.3335, 4.150635
313.8156, 5.166870
314.2977, 5.577881
314.7798, 5.824219
315.2619, 6.344971
315.7440, 7.099487
316.2262, 7.568237
316.7083, 7.306274
317.1904, 7.022949
317.6725, 7.435669
318.1546, 8.512451
318.6367, 9.522583
319.1188, 9.993774
319.6010, 9.980835
320.0831, 9.927246
320.5652, 9.640015
321.0473, 9.500488
321.5294, 9.864990
322.0115, 10.58960
322.4937, 11.13135
322.9758, 11.16870
323.4579, 10.95154
323.9400, 11.11108
324.4221, 11.70471
324.9042, 12.46497
325.3864, 13.62390
325.8685, 14.84937
326.3506, 15.38855
326.8327, 14.89709
327.3148, 14.04773
327.7969, 13.86060
328.2791, 14.34375
328.7612, 15.18726
329.2433, 16.65808
329.7254, 18.31531
330.2075, 19.67395
330.6896, 20.65112
331.1718, 21.34460
331.6539, 21.70874
332.1360, 21.71313
332.6181, 22.29309
333.1002, 23.97461
333.5823, 25.85754
334.0645, 27.33423
334.5466, 28.38232
335.0287, 29.20801
335.5108, 29.84167
335.9929, 30.37061
336.4750, 31.35938
336.9572, 33.54810
337.4393, 35.36963
337.9214, 35.85608
338.4035, 35.46069
338.8856, 35.24207
339.3677, 35.67981
339.8499, 36.61035
340.3320, 37.59497
340.8141, 38.20190
341.2962, 39.58215
341.7783, 43.70911
342.2604, 48.10840
342.7426, 48.89331
343.2247, 44.94678
343.7068, 39.45947
344.1889, 36.76038
344.6710, 37.79260
345.1531, 39.53162
345.6353, 43.55969
346.1174, 47.19189
346.5995, 47.94250
347.0816, 45.86572
347.5637, 43.05420
348.0458, 41.26831
348.5280, 40.54932
349.0101, 40.47961
349.4922, 41.86890
349.9743, 42.99268
350.4564, 42.76624
350.9385, 41.69373
351.4207, 41.06909
351.9028, 41.70850
352.3849, 43.22681
352.8670, 43.95886
353.3491, 43.00085
353.8312, 42.26038
354.3134, 41.79175
354.7955, 41.71436
355.2776, 42.33594
355.7597, 43.75500
356.2418, 45.51794
356.7239, 46.84229
357.2061, 47.62378
357.6882, 48.03284
358.1703, 47.80029
358.6524, 47.57886
359.1345, 47.50427
359.6166, 47.64832
360.0987, 48.35107
360.5808, 50.16479
361.0630, 53.35901
361.5451, 55.56128
362.0272, 55.79224
362.5093, 55.89587
362.9914, 56.52258
363.4735, 57.58130
363.9557, 58.75427
364.4378, 59.83582
364.9199, 60.78430
365.4020, 61.43787
365.8841, 61.20483
366.3662, 61.68677
366.8484, 63.59265
367.3305, 65.84265
367.8126, 67.46692
368.2947, 68.16223
368.7768, 68.24280
369.2589, 68.13159
369.7411, 67.75696
370.2232, 67.41772
370.7053, 67.05261
371.1874, 66.74548
371.6695, 66.61487
372.1516, 66.60095
372.6338, 66.45886
373.1159, 65.91968
373.5980, 64.99585
374.0801, 64.02271
374.5622, 62.78040
375.0443, 61.76074
375.5265, 61.41394
376.0086, 61.32336
376.4907, 60.82886
376.9728, 59.55188
377.4549, 57.81226
377.9370, 56.37695
378.4192, 55.46423
378.9013, 54.23267
379.3834, 52.00964
379.8655, 49.65002
380.3476, 47.84485
380.8297, 46.73010
381.3119, 45.88586
381.7940, 44.96716
382.2761, 43.97473
382.7582, 42.88684
383.2403, 41.74731
383.7224, 40.44214
384.2046, 38.81921
384.6867, 36.96997
385.1688, 35.16602
385.6509, 33.19849
386.1330, 31.45557
386.6151, 31.17615
387.0973, 32.88586
387.5794, 34.14124
388.0615, 33.15222
388.5436, 30.90649
389.0257, 28.66736
389.5078, 26.54663
389.9900, 24.68970
390.4721, 23.34814
390.9542, 22.45105
391.4363, 21.49670
391.9184, 20.28577
392.4005, 18.98950
392.8827, 17.86169
393.3648, 16.91663
393.8469, 15.94116
394.3290, 14.73132
394.8111, 13.48901
395.2932, 12.62537
395.7754, 12.23035
396.2575, 11.86804
396.7396, 11.13745
397.2217, 10.06934
397.7038, 9.067139
398.1859, 8.118408
398.6681, 7.262451
399.1501, 6.496216
399.6323, 5.834717
400.1144, 5.343018
400.5965, 5.070923
401.0786, 4.955688
401.5607, 4.844116
402.0428, 4.805420
402.5250, 4.638306
403.0071, 4.085938
403.4892, 3.479492
403.9713, 3.310669
404.4534, 3.661743
404.9355, 4.046631
405.4177, 3.852051
405.8998, 2.888550
406.3819, 2.316284
406.8640, 2.632446
407.3461, 2.824707
407.8282, 2.310791
408.3104, 1.254761
408.7925, 9.0332001E-02
409.2746, 0.9606930
409.7567, 1.820923
410.2388, 2.150757
410.7209, 1.589478
411.2031, 0.9124760
411.6852, 0.1713870
412.1673, 1.151733
412.6494, 1.473145
413.1315, 1.027466
413.6136, 0.2365720
414.0958, 0.2757570
414.5779, 0.2987060
415.0600, 0.9013670
415.5421, 3.190063
416.0242, 5.026489
416.5063, 5.159058
416.9885, 4.133423
417.4706, 3.403076
417.9527, 4.061768
418.4348, 5.531738
418.9169, 5.685425
419.3990, 3.742188
419.8812, 2.202881
420.3633, 2.296997
420.8454, 2.873291
421.3275, 2.728027
421.8096, 1.547241
422.2917, 0.4475100
422.7739, 0.9281010
423.2560, 2.879150
423.7381, 3.921631
424.2202, 3.341064
424.7023, 2.255859
425.1844, 1.348022
425.6666, 0.6513670
426.1487, 0.3079830
426.6308, 0.6317140
427.1129, 1.229736
427.5950, 1.611938
428.0771, 1.786743
428.5593, 1.542114
429.0414, 0.5568850
429.5235, 0.8421630
430.0056, 1.936768
430.4877, 2.763672
430.9698, 3.214233
431.4520, 3.062866
431.9341, 2.526978
432.4162, 1.992554
432.8983, 1.542603
433.3804, 1.219116
433.8625, 1.064819
434.3447, 1.095215
434.8268, 1.291260
435.3089, 1.938477
435.7910, 2.501221
436.2731, 2.535645
436.7552, 2.150391
437.2374, 1.739746
437.7195, 1.510620
438.2016, 1.463989
438.6837, 1.627197
439.1658, 1.811768
439.6479, 2.464966
440.1301, 3.672852
440.6122, 5.333374
441.0943, 7.908569
441.5764, 11.19641
442.0585, 13.72900
442.5406, 13.58545
443.0227, 10.26526
443.5049, 7.949951
443.9870, 7.173462
444.4691, 6.881836
444.9512, 7.080933
445.4333, 7.497681
445.9154, 7.790527
446.3976, 7.793091
446.8797, 7.507324
447.3618, 6.726563
447.8439, 4.932739
448.3260, 4.187744
448.8081, 5.870605
449.2903, 7.992554
449.7724, 9.242432
450.2545, 9.597412
450.7366, 10.00806
451.2187, 11.48877
451.7008, 13.68262
452.1830, 14.90637
452.6651, 14.75623
453.1472, 14.54907
453.6293, 15.32397
454.1114, 16.46411
454.5935, 16.99719
455.0757, 16.36340
455.5578, 15.77075
456.0399, 16.50330
456.5220, 18.21484
457.0041, 19.32678
457.4862, 19.24487
457.9684, 18.73193
458.4505, 18.79541
458.9326, 19.42603
459.4147, 19.98108
459.8968, 20.40027
460.3789, 20.66772
460.8611, 20.58557
461.3432, 20.26770
461.8253, 20.32800
462.3074, 21.26978
462.7895, 22.76196
463.2716, 23.41943
463.7538, 22.52771
464.2359, 21.80237
464.7180, 21.00049
465.2001, 20.69312
465.6822, 22.03955
466.1643, 24.95422
466.6465, 27.47571
467.1286, 27.24548
467.6107, 23.82080
468.0928, 21.98157
468.5749, 23.31836
469.0570, 24.66882
469.5392, 25.11975
470.0213, 25.07471
470.5034, 25.26941
470.9855, 26.03699
471.4676, 26.88745
471.9497, 26.85229
472.4319, 25.65771
472.9140, 24.91248
473.3961, 25.36926
473.8782, 25.75830
474.3603, 25.45544
474.8424, 24.59143
475.3246, 23.57019
475.8067, 22.34167
476.2888, 21.08118
476.7709, 20.32495
477.2530, 20.21729
477.7351, 20.64966
478.2173, 21.91125
478.6994, 23.35791
479.1815, 24.00879
479.6636, 23.68994
480.1457, 23.32861
480.6278, 23.13855
481.1100, 23.09216
481.5920, 23.50598
482.0742, 24.53833
482.5563, 25.52039
483.0384, 25.80798
483.5205, 25.36975
484.0026, 24.87451
484.4847, 24.21301
484.9669, 23.52930
485.4490, 22.49023
485.9311, 21.57605
486.4132, 21.78931
486.8953, 23.51978
487.3774, 25.90674
487.8596, 27.52417
488.3417, 28.13831
488.8238, 28.61206
489.3059, 28.77551
489.7880, 28.99377
490.2701, 29.60156
490.7523, 30.40918
491.2344, 30.89551
491.7165, 30.66772
492.1986, 30.14648
492.6807, 30.56116
493.1628, 32.25806
493.6450, 33.94824
494.1271, 35.41772
494.6092, 36.74719
495.0913, 38.08948
495.5734, 39.39990
496.0555, 40.33093
496.5377, 40.03210
497.0198, 39.21472
497.5019, 40.18945
497.9840, 43.44983
498.4661, 46.35181
498.9482, 47.17273
499.4304, 46.80237
499.9125, 46.98499
500.3946, 47.93750
500.8767, 49.12292
501.3588, 50.30396
501.8409, 51.53699
502.3231, 53.08472
502.8052, 55.00830
503.2873, 56.66956
503.7694, 57.35889
504.2515, 57.03589
504.7336, 57.18396
505.2158, 57.84875
505.6979, 58.87561
506.1800, 60.47107
506.6621, 62.31763
507.1442, 63.95117
507.6263, 65.20642
508.1085, 66.22876
508.5906, 67.18481
509.0727, 67.95593
509.5548, 69.07690
510.0369, 70.87598
510.5190, 72.68298
511.0012, 74.38696
511.4833, 75.89282
511.9654, 76.98376
512.4475, 77.45752
512.9296, 77.78430
513.4117, 78.87317
513.8939, 80.82800
514.3760, 82.84570
514.8581, 85.26172
515.3402, 87.14539
515.8223, 87.37219
516.3044, 86.22717
516.7866, 85.60010
517.2687, 86.78894
517.7508, 88.63489
518.2329, 89.51282
518.7150, 89.48877
519.1971, 89.81177
519.6793, 91.20288
520.1614, 93.13586
520.6435, 94.38708
521.1256, 94.81934
521.6077, 95.15149
522.0898, 95.52686
522.5720, 95.82922
523.0541, 95.76770
523.5362, 95.46631
524.0183, 95.47009
524.5004, 96.17615
524.9825, 97.51294
525.4647, 99.17261
525.9468, 102.0222
526.4289, 103.9016
526.9110, 104.1245
527.3931, 103.7200
527.8752, 103.4644
528.3574, 103.4740
528.8395, 103.4327
529.3216, 102.8839
529.8037, 102.0154
530.2858, 102.0715
530.7679, 103.4252
531.2501, 104.8428
531.7322, 106.3650
532.2143, 107.4006
532.6964, 107.0027
533.1785, 104.8068
533.6606, 102.7153
534.1428, 102.0752
534.6249, 102.3954
535.1070, 102.6597
535.5891, 102.6921
536.0712, 102.7607
536.5533, 103.2336
537.0355, 103.9747
537.5176, 104.0844
537.9997, 103.0406
538.4818, 102.1230
538.9639, 101.5106
539.4460, 101.1895
539.9282, 101.5242
540.4103, 102.5123
540.8924, 103.3156
541.3745, 102.9017
541.8566, 101.1561
542.3387, 99.78357
542.8209, 99.35730
543.3029, 98.71948
543.7850, 97.63220
544.2672, 96.23328
544.7493, 94.48230
545.2314, 92.41650
545.7135, 90.70374
546.1956, 90.49890
546.6777, 91.55579
547.1599, 91.35364
547.6420, 89.40308
548.1241, 87.04150
548.6062, 84.73254
549.0883, 82.59741
549.5704, 80.93579
550.0526, 79.99976
550.5347, 79.27185
551.0168, 78.50940
551.4989, 77.57874
551.9810, 76.18604
552.4631, 74.23584
552.9453, 72.40613
553.4274, 71.45862
553.9095, 71.42908
554.3916, 70.85864
554.8737, 68.94055
555.3558, 67.33533
555.8380, 67.18665
556.3201, 67.38208
556.8022, 66.36414
557.2843, 63.81482
557.7664, 60.96765
558.2485, 59.42786
558.7307, 59.29871
559.2128, 57.77161
559.6949, 53.22815
560.1770, 49.67578
560.6591, 48.82092
561.1412, 49.40576
561.6234, 50.14514
562.1055, 50.79016
562.5876, 50.79846
563.0697, 48.98828
563.5518, 46.11328
564.0339, 44.96008
564.5161, 46.12219
564.9982, 47.58289
565.4803, 48.08606
565.9624, 47.66382
566.4445, 46.76013
566.9266, 45.28113
567.4088, 43.46704
567.8909, 40.93555
568.3730, 38.33447
568.8551, 36.54883
569.3372, 35.69031
569.8193, 35.12280
570.3015, 34.29846
570.7836, 33.22119
571.2657, 32.09497
571.7478, 30.55688
572.2299, 29.46606
572.7120, 29.01831
573.1942, 29.00159
573.6763, 29.56177
574.1584, 30.54517
574.6405, 30.97168
575.1226, 29.51343
575.6047, 26.72620
576.0869, 25.02893
576.5690, 24.65356
577.0511, 24.39990
577.5332, 23.77100
578.0153, 22.90601
578.4974, 22.14581
578.9796, 21.62256
579.4617, 20.61707
579.9438, 18.18823
580.4259, 15.53894
580.9080, 14.14948
581.3901, 14.00958
581.8723, 14.19421
582.3544, 14.20837
582.8365, 13.94818
583.3186, 13.01447
583.8007, 10.25226
584.2828, 8.607483
584.7650, 9.333130
585.2471, 10.10822
585.7292, 9.206482
586.2113, 6.935181
586.6934, 4.602173
587.1755, 2.850586
587.6577, 1.883179
588.1398, 2.707153
588.6219, 5.779358
589.1040, 7.420776
589.5861, 5.965271
590.0682, 3.613892
590.5504, 2.568665
591.0325, 2.593567
591.5146, 2.174377
591.9967, 6.4025998E-02
592.4788, 2.006165
592.9609, 2.320801
593.4431, 1.338623
593.9252, 0.3706050
594.4073, 0.1402590
594.8894, 0.1594240
595.3715, 0.4846190
595.8536, 2.129028
596.3358, 2.880798
596.8179, 1.669250
597.3000, 0.8320920
597.7821, 1.829895
598.2642, 3.529419
598.7463, 4.192261
599.2285, 3.257568
599.7106, 1.725403
600.1927, 0.7308350
600.6748, 0.2477420
601.1569, 0.2672730
601.6390, 1.053223
602.1212, 1.431580
602.6033, 0.5372310
603.0854, 0.8732910
603.5675, 1.560669
604.0496, 1.145081
604.5317, 0.7012330
605.0139, 0.9024660
605.4960, 1.354614
605.9781, 1.366333
606.4602, 0.8890990
606.9423, 0.7226560
607.4244, 1.553223
607.9066, 3.072876
608.3887, 3.785156
608.8708, 3.097473
609.3529, 2.391846
609.8350, 1.274353
610.3171, 0.4472050
610.7993, 0.8101810
611.2814, 1.982971
611.7635, 2.543945
612.2456, 1.424011
612.7277, 0.4741820
613.2098, 1.236633
613.6920, 0.7731320
614.1741, 0.3585820
614.6562, 0.2834470
615.1383, 0.4228520
615.6204, 0.5993040
616.1025, 0.8425900
616.5847, 1.386108
617.0668, 2.737244
617.5489, 3.928772
618.0310, 4.082031
618.5131, 3.665283
618.9952, 3.653198
619.4774, 4.351624
619.9595, 5.433289
620.4416, 6.403259
620.9237, 7.079224
621.4058, 7.536743
621.8879, 7.817444
622.3701, 8.158020
622.8522, 8.454529
623.3343, 8.926697
623.8164, 9.897644
624.2985, 11.39911
624.7806, 12.97858
625.2628, 14.29218
625.7448, 15.32648
626.2269, 16.24493
626.7090, 17.10620
627.1912, 17.27698
627.6733, 15.99207
628.1554, 14.33789
628.6375, 14.76483
629.1196, 17.94678
629.6017, 19.52313
630.0839, 17.16638
630.5660, 14.54089
631.0481, 14.37872
631.5302, 16.01233
632.0123, 17.51660
632.4944, 17.98621
632.9766, 17.75220
633.4587, 17.32404
633.9408, 16.63422
634.4229, 16.11102
634.9050, 15.81226
635.3871, 15.67816
635.8693, 15.74854
636.3514, 15.88391
636.8335, 15.94598
637.3156, 15.93951
637.7977, 15.75830
638.2798, 15.29474
638.7620, 14.62445
639.2441, 13.74628
639.7262, 12.69312
640.2083, 11.94757
640.6904, 11.92810
641.1725, 12.32782
641.6547, 12.09814
642.1368, 10.46265
642.6189, 9.321777
643.1010, 8.798096
643.5831, 8.673035
644.0652, 9.149353
644.5474, 9.882263
645.0295, 10.08008
645.5116, 9.271667
645.9937, 8.017029
646.4758, 7.219604
646.9579, 6.876587
647.4401, 6.498352
647.9222, 5.944275
648.4043, 5.510864
648.8864, 5.553467
649.3685, 5.907959
649.8506, 6.065430
650.3328, 5.734009
650.8149, 5.530579
651.2970, 6.044678
651.7791, 6.677002
652.2612, 6.687988
652.7433, 6.019897
653.2255, 4.979980
653.7076, 3.689026
654.1897, 2.344604
654.6718, 1.753601
655.1539, 2.316895
655.6360, 2.538330
656.1182, 1.596924
656.6003, 0.7661740
657.0824, 0.9252930
657.5645, 1.856873
658.0466, 2.762512
658.5287, 3.390442
659.0109, 3.753906
659.4930, 3.772644
659.9751, 3.534119
660.4572, 3.305115
660.9393, 3.120178
661.4214, 2.764526
661.9036, 1.990356
662.3857, 0.8869630
662.8678, 0.4024660
663.3499, 1.478943
663.8320, 1.937866
664.3141, 1.004150
664.7963, 0.1340940
665.2784, 0.5398560
665.7605, 0.2878420
666.2426, 6.5552004E-02
666.7247, 0.3265990
667.2068, 0.3718260
667.6890, 0.1840210
668.1711, 1.328491
668.6532, 2.234375
669.1353, 2.815369
669.6174, 2.941833
670.0995, 2.276123
670.5817, 0.8600460
671.0638, 0.4221800
671.5459, 1.756165
672.0280, 2.674072
672.5101, 2.953003
672.9922, 2.797852
673.4744, 2.237000
673.9565, 1.408691
674.4386, 0.7427370
674.9207, 0.5793460
675.4028, 0.7786870
675.8849, 0.9879760
676.3671, 1.343750
676.8492, 1.007996
677.3313, 1.171936
677.8134, 2.966187
678.2955, 2.022034
678.7776, 0.8345340
679.2598, 2.617004
679.7419, 2.048157
680.2240, 1.020203
680.7061, 0.4846190
681.1882, 0.2724000
681.6703, 5.0050002E-03
682.1525, 0.3229980
682.6346, 0.2231450
683.1167, 0.7664180
683.5988, 2.446838
684.0809, 3.922058
684.5630, 5.563782
685.0452, 6.185303
685.5273, 4.388916
686.0094, 2.616699
686.4915, 2.549194
686.9736, 3.697021
687.4557, 4.413269
687.9379, 3.962952
688.4200, 3.090515
688.9021, 2.078979
689.3842, 1.206055
689.8663, 1.272705
690.3484, 2.401672
690.8306, 3.890869
691.3127, 5.350769
691.7948, 6.599670
692.2769, 6.662659
692.7590, 4.025574
693.2411, 2.649719
693.7233, 3.589417
694.2054, 4.980408
694.6875, 5.817200
695.1696, 6.166321
695.6517, 6.468018
696.1339, 6.942139
696.6160, 7.364868
697.0981, 7.398315
697.5802, 7.165283
698.0623, 7.004028
698.5444, 6.944519
699.0266, 7.363159
699.5087, 8.773743
699.9908, 10.70685
700.4729, 11.35748
700.9550, 9.496582
701.4371, 8.194824
701.9193, 7.534668
702.4014, 7.393555
702.8835, 7.898438
703.3656, 8.832336
703.8477, 9.895386
704.3298, 11.00269
704.8120, 11.80402
705.2941, 11.63220
705.7762, 10.72455
706.2583, 10.14270
706.7404, 9.957336
707.2225, 10.41461
707.7046, 11.98315
708.1867, 14.05353
708.6688, 14.97943
709.1509, 14.12555
709.6331, 13.80780
710.1152, 14.89594
710.5973, 15.84619
711.0794, 15.32764
711.5615, 14.11914
712.0436, 13.69336
712.5258, 14.59729
713.0079, 16.10565
713.4900, 17.52924
713.9721, 18.77301
714.4542, 19.57263
714.9363, 19.97449
715.4185, 19.84827
715.9006, 18.68237
716.3827, 17.37061
716.8648, 17.77496
717.3469, 20.36688
717.8290, 21.63818
718.3112, 20.20349
718.7933, 18.55585
719.2754, 18.03534
719.7575, 18.02417
720.2396, 17.39935
720.7217, 15.97711
721.2039, 14.75140
721.6860, 14.76007
722.1681, 15.56946
722.6502, 15.59369
723.1323, 14.77979
723.6144, 13.99414
724.0966, 13.48309
724.5787, 13.14178
725.0608, 12.84229
725.5429, 12.54889
726.0250, 12.37183
726.5071, 12.84497
726.9893, 12.87189
727.4714, 11.54437
727.9535, 9.956665
728.4356, 9.340820
728.9177, 9.801331
729.3998, 10.76550
729.8820, 11.95502
730.3641, 13.09381
730.8462, 13.61060
731.3283, 13.48883
731.8104, 12.62683
732.2925, 10.55054
732.7747, 8.782349
733.2568, 8.611084
733.7389, 9.848694
734.2210, 11.30304
734.7031, 13.54401
735.1852, 14.93994
735.6674, 14.86560
736.1495, 14.25549
736.6316, 13.57513
737.1137, 12.91541
737.5958, 12.51636
738.0779, 12.50714
738.5601, 12.78412
739.0422, 13.44958
739.5243, 14.38538
740.0064, 14.30176
740.4885, 12.88776
740.9706, 11.61310
741.4528, 11.23029
741.9349, 11.50696
742.4170, 12.07379
742.8991, 13.12763
743.3812, 13.73004
743.8633, 13.63879
744.3455, 13.26910
744.8276, 12.24335
745.3097, 11.32056
745.7918, 11.93066
746.2739, 14.32587
746.7560, 16.75763
747.2382, 17.43933
747.7203, 16.88245
748.2024, 16.51093
748.6845, 16.32446
749.1666, 16.27704
749.6487, 16.27856
750.1309, 16.59943
750.6130, 17.77130
751.0951, 19.88959
751.5772, 20.88379
752.0593, 19.82349
752.5414, 18.92249
753.0236, 18.55908
753.5057, 18.61053
753.9878, 19.06793
754.4699, 19.82343
754.9520, 20.67505
755.4341, 21.70953
755.9163, 22.34222
756.3984, 21.19116
756.8805, 18.82031
757.3626, 17.97479
757.8447, 19.18579
758.3268, 20.49011
758.8090, 20.44513
759.2911, 19.51703
759.7732, 19.28296
760.2553, 20.46069
760.7374, 21.06500
761.2195, 20.65881
761.7017, 20.21729
762.1838, 20.05627
762.6659, 20.22583
763.1480, 20.93146
763.6301, 22.26697
764.1122, 23.28888
764.5944, 22.95166
765.0765, 22.04651
765.5586, 21.75348
766.0407, 22.06433
766.5228, 22.71136
767.0049, 23.60596
767.4871, 24.55157
767.9692, 25.30151
768.4513, 25.84857
768.9334, 26.19043
769.4155, 26.06793
769.8976, 26.13501
770.3798, 26.31384
770.8619, 26.89178
771.3440, 28.44769
771.8261, 30.72308
772.3082, 32.43365
772.7903, 32.99854
773.2725, 33.06494
773.7546, 32.84668
774.2367, 32.53186
774.7188, 32.44897
775.2009, 32.60590
775.6830, 32.69592
776.1652, 32.48401
776.6473, 32.27716
777.1294, 32.99438
777.6115, 34.96149
778.0936, 35.60724
778.5757, 34.18738
779.0579, 32.57922
779.5400, 31.46173
780.0221, 30.86658
780.5042, 31.14575
780.9863, 32.71716
781.4684, 33.26788
781.9506, 31.28693
782.4327, 29.07111
782.9148, 28.10852
783.3969, 27.91687
783.8790, 27.64368
784.3611, 27.03473
784.8433, 26.25830
785.3254, 25.49536
785.8075, 24.66382
786.2896, 23.34003
786.7717, 21.51227
787.2538, 20.40131
787.7360, 20.53107
788.2181, 20.77197
788.7002, 19.99286
789.1823, 18.36438
789.6644, 17.37842
790.1465, 17.96362
790.6286, 17.82422
791.1107, 16.23297
791.5928, 14.37427
792.0750, 12.91992
792.5571, 11.82104
793.0392, 10.84802
793.5213, 9.949280
794.0034, 8.954468
794.4855, 7.302063
794.9677, 5.620728
795.4498, 5.460754
795.9319, 6.674500
796.4140, 7.456116
796.8961, 7.000549
797.3782, 6.146790
797.8604, 6.078674
798.3425, 6.855896
798.8246, 6.757751
799.3067, 4.886108
799.7888, 3.750549
800.2709, 4.807129
800.7531, 6.158691
801.2352, 6.237061
801.7173, 5.293640
802.1994, 4.778625
802.6815, 5.249329
803.1636, 5.940430
803.6458, 6.601257
804.1279, 7.208557
804.6100, 7.499329
805.0921, 7.694275
805.5742, 8.720947
806.0563, 11.16528
806.5385, 13.66486
807.0206, 13.71722
807.5027, 11.55969
807.9848, 10.43280
808.4669, 10.68304
808.9490, 10.85059
809.4312, 10.34863
809.9133, 9.360840
810.3954, 8.032288
810.8775, 6.235474
811.3596, 5.026367
811.8417, 4.514221
812.3239, 4.366882
812.8060, 4.732849
813.2881, 5.320190
813.7702, 6.069702
814.2523, 6.798889
814.7344, 6.943604
815.2166, 5.989319
815.6987, 4.864441
816.1808, 4.725708
816.6629, 5.098267
817.1450, 4.858459
817.6271, 3.945007
818.1093, 3.075500
818.5914, 2.642212
819.0735, 2.562866
819.5556, 3.043579
820.0377, 4.284851
820.5198, 4.894653
821.0020, 4.654297
821.4841, 4.165955
821.9662, 3.375549
822.4483, 2.652771
822.9304, 2.558655
823.4125, 3.076599
823.8947, 3.293030
824.3768, 2.758118
824.8589, 1.989380
825.3410, 1.006775
825.8231, 0.1651610
826.3052, 7.5679999E-03
826.7874, 0.4135130
827.2695, 0.6975100
827.7516, 0.4855350
828.2337, 7.5928003E-02
828.7158, 0.2797240
829.1979, 0.4885860
829.6801, 5.0903000E-02
830.1622, 1.394958
830.6443, 2.351685
831.1264, 2.274902
831.6085, 1.638367
832.0906, 1.227783
832.5728, 1.115784
833.0549, 0.7872310
833.5370, 0.2597050
834.0191, 0.9765630
834.5012, 0.7556760
834.9833, 0.4063110
835.4655, 0.7382200
835.9476, 1.601196
836.4297, 2.096497
836.9118, 1.875427
837.3939, 1.345947
837.8760, 0.3810420
838.3582, 0.6354370
838.8403, 1.088806
839.3224, 1.016541
839.8045, 0.8274540
840.2866, 0.7088620
840.7687, 0.6234740
841.2509, 0.6401370
841.7330, 0.7442630
842.2151, 0.7583620
842.6972, 0.6519780
843.1793, 0.6014400
843.6614, 0.6465450
844.1436, 0.8577270
844.6257, 1.425293
845.1078, 2.322998
845.5899, 2.569946
846.0720, 1.628357
846.5541, 0.8985600
847.0363, 0.3994140
847.5184, 5.7739001E-02
848.0005, 0.1109620
848.4826, 0.1216430
848.9647, 2.1118000E-02
849.4468, 0.1610720
849.9290, 0.5360110
850.4111, 1.544312
850.8932, 2.475281
851.3753, 2.647217
851.8574, 2.146851
852.3395, 0.9896850
852.8217, 0.6849370
853.3038, 1.925232
853.7859, 1.644287
854.2680, 0.3226320
854.7501, 0.6304320
855.2322, 1.219849
855.7144, 1.374878
856.1965, 0.9868770
856.6786, 0.5603030
857.1607, 0.4345700
857.6428, 0.5819700
858.1249, 0.9368900
858.6071, 1.764587
859.0892, 2.209656
859.5713, 1.244141
860.0534, 1.088440
860.5355, 3.948486
861.0176, 7.245483
861.4998, 7.459717
861.9819, 4.304626
862.4640, 1.445068
862.9461, 0.3038940
863.4282, 3.8086001E-02
863.9103, 0.1000370
864.3925, 0.5041500
864.8746, 0.8487550
865.3567, 1.095093
865.8388, 1.535767
866.3209, 2.413757
866.8030, 3.217773
867.2852, 3.029785
867.7673, 2.054382
868.2494, 1.012878
868.7315, 6.7382999E-02
869.2136, 0.5140990
869.6957, 7.2754003E-02
870.1779, 0.9826660
870.6600, 1.268677
871.1421, 0.9620970
871.6242, 0.9204710
872.1063, 1.381531
872.5884, 1.630981
873.0705, 1.266418
873.5526, 0.9793090
874.0347, 1.395264
874.5168, 2.100220
874.9990, 2.041260
875.4811, 0.6160280
875.9632, 0.2589110
876.4453, 0.7329100
876.9274, 1.894714
877.4095, 1.847900
877.8917, 1.128174
878.3738, 0.7562870
878.8559, 0.9630130
879.3380, 1.311829
879.8201, 1.593811
880.3022, 1.669128
880.7844, 0.8928830
881.2665, 0.3096920
881.7486, 4.3330002E-03
882.2307, 2.003113
882.7128, 3.499695
883.1949, 3.008789
883.6771, 1.474609
884.1592, 0.8742680
884.6413, 1.338135
885.1234, 1.754333
885.6055, 2.115234
886.0876, 2.429626
886.5698, 2.720459
887.0519, 2.933838
887.5340, 2.957153
888.0161, 2.809082
888.4982, 2.832520
888.9803, 3.631226
889.4625, 3.751465
889.9446, 1.856506
890.4267, 0.2343750
890.9088, 0.9629520
891.3909, 3.019165
891.8730, 4.210815
892.3552, 3.955627
892.8373, 3.399109
893.3194, 3.283875
893.8015, 3.164917
894.2836, 2.654419
894.7657, 1.839294
895.2479, 0.6514280
895.7300, 0.7846680
896.2121, 1.822327
896.6942, 1.954590
897.1763, 1.428284
897.6584, 0.4874270
898.1406, 0.7720340
898.6227, 1.280762
899.1048, 0.8660280
899.5869, 0.6514280
900.0690, 1.241272
900.5511, 2.073730
901.0333, 2.314209
901.5154, 1.935547
901.9975, 1.535400
902.4796, 1.129028
902.9617, 0.6655880
903.4438, 0.3583370
903.9260, 0.9544680
904.4081, 0.1060790
904.8902, 1.646423
905.3723, 2.913452
905.8544, 3.472839
906.3365, 3.758118
906.8187, 3.699585
907.3008, 3.584351
907.7829, 3.737366
908.2650, 3.857361
908.7471, 3.220337
909.2292, 1.930542
909.7114, 1.320679
910.1935, 2.560608
910.6756, 4.145264
911.1577, 4.752869
911.6398, 4.629944
912.1219, 3.843506
912.6041, 2.562012
913.0862, 1.497925
913.5683, 1.001282
914.0504, 1.006165
914.5325, 1.684570
915.0146, 2.811829
915.4968, 2.891418
915.9789, 1.881958
916.4610, 1.292969
916.9431, 1.607117
917.4252, 1.887756
917.9073, 1.272583
918.3895, 0.1124270
918.8716, 0.3489380
919.3537, 0.1817020
919.8358, 0.6538090
920.3179, 1.231506
920.8000, 1.465942
921.2822, 0.7984010
921.7643, 6.0913000E-02
922.2464, 0.2861330
922.7285, 8.7035999E-02
923.2106, 0.2592770
923.6927, 0.3260500
924.1749, 0.5288700
924.6570, 0.3695070
925.1391, 1.408813
925.6212, 1.909058
926.1033, 1.933411
926.5854, 1.730713
927.0676, 1.394409
927.5497, 0.8659060
928.0318, 0.3438110
928.5139, 1.450439
928.9960, 1.353149
929.4781, 0.6414790
929.9603, 0.6404420
930.4424, 1.405823
930.9245, 1.808655
931.4066, 1.096191
931.8887, 0.1503910
932.3708, 1.213318
932.8530, 2.007813
933.3351, 1.986572
933.8172, 1.153259
934.2993, 0.6258540
934.7814, 0.7622680
935.2635, 1.078613
935.7457, 1.037048
936.2278, 0.7333980
936.7099, 0.8547360
937.1920, 1.544067
937.6741, 2.018250
938.1563, 2.179199
938.6384, 2.099731
939.1205, 1.634644
939.6026, 1.099548
940.0847, 0.9403080
940.5668, 1.130737
941.0490, 1.487122
941.5311, 2.444702
942.0132, 2.959229
942.4953, 2.386963
942.9774, 1.759155
943.4595, 2.085205
943.9417, 2.941650
944.4238, 3.027283
944.9059, 1.735474
945.3880, 1.051208
945.8701, 2.449890
946.3522, 3.863281
946.8344, 3.608704
947.3165, 2.696533
947.7986, 2.601257
948.2807, 3.382996
948.7628, 4.204529
949.2449, 4.560425
949.7271, 4.760986
950.2092, 5.249817
950.6913, 5.696411
951.1734, 5.614441
951.6555, 5.013245
952.1376, 3.827820
952.6198, 2.132263
953.1019, 0.8950810
953.5840, 1.208313
954.0661, 2.316589
954.5482, 2.231384
955.0303, 1.225464
955.5124, 0.9802860
955.9945, 1.732727
956.4766, 2.292114
956.9587, 1.979553
957.4409, 1.473267
957.9230, 1.954895
958.4051, 3.393860
958.8872, 4.444946
959.3693, 5.127991
959.8514, 5.286987
960.3336, 4.745117
960.8157, 3.965393
961.2978, 3.075745
961.7799, 2.293945
962.2620, 2.354797
962.7441, 3.746582
963.2263, 4.408142
963.7084, 3.759277
964.1905, 3.153137
964.6726, 3.068665
965.1547, 3.080200
965.6368, 2.841492
966.1190, 2.376831
966.6011, 1.822083
967.0832, 0.9844970
967.5653, 0.4729000
968.0474, 0.5208130
968.5295, 0.8262330
969.0117, 1.369568
969.4938, 1.983582
969.9759, 2.493103
970.4580, 2.868164
970.9401, 3.135071
971.4222, 3.360596
971.9044, 3.396790
972.3865, 3.145142
972.8686, 2.664856
973.3507, 1.707947
973.8328, 0.6531980
974.3149, 0.4447630
974.7971, 1.283447
975.2792, 2.081482
975.7613, 1.825073
976.2434, 1.214905
976.7255, 1.304199
977.2076, 1.773865
977.6898, 1.671265
978.1719, 1.032104
978.6540, 0.7509160
979.1361, 1.246094
979.6182, 1.767273
980.1003, 1.083008
980.5825, 0.1600950
981.0646, 0.4344480
981.5467, 2.560364
982.0288, 4.026733
982.5109, 4.444336
982.9930, 4.368591
983.4752, 4.130676
983.9573, 3.867798
984.4394, 3.932190
984.9215, 4.331055
985.4036, 4.018555
985.8857, 2.739014
986.3679, 2.146667
986.8500, 2.923401
987.3321, 4.055420
987.8142, 4.708069
988.2963, 4.925598
988.7784, 5.000366
989.2606, 5.000793
989.7427, 4.927612
990.2248, 4.730591
990.7069, 4.349609
991.1890, 3.412415
991.6711, 2.672791
992.1533, 3.034546
992.6354, 4.279663
993.1175, 5.112183
993.5996, 5.393066
994.0817, 5.516479
994.5638, 5.376221
995.0460, 5.216309
995.5281, 5.164185
996.0102, 5.118530
996.4923, 5.014587
996.9744, 4.827759
997.4565, 4.429688
997.9387, 3.538757
998.4208, 2.866760
998.9029, 2.352112
999.3850, 2.363586
999.8671, 3.720215
1000.349, 5.445374
1000.831, 5.995789
1001.313, 5.304260
1001.796, 4.881226
1002.278, 5.730408
1002.760, 6.405762
1003.242, 5.853210
1003.724, 5.003235
1004.206, 4.662842
1004.688, 4.729065
1005.170, 4.877380
1005.653, 5.008179
1006.135, 5.098938
1006.617, 5.171204
1007.099, 5.145020
1007.581, 4.675476
1008.063, 4.227417
1008.545, 4.772095
1009.027, 5.928772
1009.509, 6.342346
1009.992, 5.592529
1010.474, 4.739014
1010.956, 4.789124
1011.438, 5.195679
1011.920, 4.975769
1012.402, 4.515137
1012.884, 5.036194
1013.366, 6.340210
1013.849, 6.725525
1014.331, 5.472717
1014.813, 3.949768
1015.295, 3.688965
1015.777, 4.292908
1016.259, 4.902588
1016.741, 5.488770
1017.223, 5.889771
1017.705, 6.091064
1018.188, 6.278442
1018.670, 6.559021
1019.152, 6.622437
1019.634, 5.791687
1020.116, 4.447510
1020.598, 4.892944
1021.080, 7.013977
1021.562, 7.475952
1022.044, 5.605652
1022.527, 3.868774
1023.009, 3.677307
1023.491, 4.450378
1023.973, 5.438171
1024.455, 6.577026
1024.937, 6.606934
1025.419, 5.355774
1025.901, 4.488647
1026.384, 4.346741
1026.866, 4.458191
1027.348, 4.542114
1027.830, 4.689819
1028.312, 5.163757
1028.794, 6.012573
1029.276, 5.921631
1029.758, 4.474060
1030.240, 3.567444
1030.723, 3.632629
1031.205, 4.130005
1031.687, 4.780823
1032.169, 5.561279
1032.651, 6.473389
1033.133, 7.576294
1033.615, 8.277344
1034.097, 8.497803
1034.579, 8.418945
1035.062, 7.592712
1035.544, 7.221619
1036.026, 8.535828
1036.508, 10.57928
1036.990, 11.25037
1037.472, 10.21136
1037.954, 9.677734
1038.436, 9.980957
1038.919, 10.25891
1039.401, 10.20117
1039.883, 10.25958
1040.365, 11.02307
1040.847, 12.02026
1041.329, 12.17456
1041.811, 11.28430
1042.293, 10.65546
1042.776, 10.42126
1043.258, 10.30493
1043.740, 10.29218
1044.222, 10.35358
1044.704, 10.50708
1045.186, 10.71265
1045.668, 10.98431
1046.150, 11.40564
1046.632, 11.29260
1047.115, 9.607727
1047.597, 8.710388
1048.079, 10.05109
1048.561, 11.50867
1049.043, 11.38184
1049.525, 10.40930
1050.007, 10.05811
1050.489, 10.52533
1050.971, 11.20190
1051.454, 12.57208
1051.936, 13.31439
1052.418, 12.34717
1052.900, 11.28131
1053.382, 11.70557
1053.864, 12.71008
1054.346, 12.37860
1054.828, 10.40375
1055.311, 8.780945
1055.793, 7.909912
1056.275, 7.645813
1056.757, 8.510315
1057.239, 9.413391
1057.721, 9.291199
1058.203, 8.735535
1058.685, 9.109314
1059.167, 10.54999
1059.650, 11.26550
1060.132, 10.03442
1060.614, 8.908508
1061.096, 8.610413
1061.578, 8.731873
1062.060, 9.149475
1062.542, 9.668030
1063.024, 10.03552
1063.506, 10.26508
1063.989, 10.47937
1064.471, 11.16827
1064.953, 11.06464
1065.435, 8.694092
1065.917, 6.369568
1066.399, 6.176392
1066.881, 7.119568
1067.363, 7.152405
1067.846, 6.105835
1068.328, 5.494751
1068.810, 6.180481
1069.292, 6.924988
1069.774, 7.315247
1070.256, 7.387878
1070.738, 7.219666
1071.220, 6.717407
1071.703, 5.240662
1072.185, 3.116211
1072.667, 2.438782
1073.149, 4.767578
1073.631, 6.867920
1074.113, 7.074646
1074.595, 6.580872
1075.077, 6.132507
1075.559, 5.748108
1076.042, 5.206299
1076.524, 4.601990
1077.006, 4.522705
1077.488, 5.527466
1077.970, 5.903870
1078.452, 3.755737
1078.934, 1.929260
1079.416, 2.940735
1079.898, 4.961060
1080.380, 5.802307
1080.863, 5.446899
1081.345, 4.969055
1081.827, 4.671204
1082.309, 4.518433
1082.791, 4.708679
1083.273, 4.776306
1083.755, 4.232666
1084.237, 3.575684
1084.720, 3.458984
1085.202, 3.684082
1085.684, 3.434875
1086.166, 2.387817
1086.648, 1.964233
1087.130, 3.442200
1087.612, 4.858765
1088.094, 5.344055
1088.577, 5.187317
1089.059, 4.377014
1089.541, 3.253906
1090.023, 2.418640
1090.505, 1.987061
1090.987, 1.648743
1091.469, 0.9885860
1091.951, 0.8079830
1092.433, 2.158508
1092.916, 3.443481
1093.398, 3.168823
1093.880, 2.064026
1094.362, 1.391113
1094.844, 1.310364
1095.326, 1.407227
1095.808, 1.872559
1096.290, 2.066223
1096.772, 1.422729
1097.255, 0.8264160
1097.737, 0.8864750
1098.219, 1.304932
1098.701, 1.637085
1099.183, 1.857239
1099.665, 2.241333
1100.147, 2.948975
1100.629, 3.615845
1101.112, 4.411011
1101.594, 4.822388
1102.076, 4.350220
1102.558, 3.551880
1103.040, 2.763733
1103.522, 2.174683
1104.004, 2.374756
1104.486, 3.840210
1104.969, 4.828857
1105.451, 4.753113
1105.933, 4.516418
1106.415, 4.335510
1106.897, 4.206238
1107.379, 4.112061
1107.861, 4.059509
1108.343, 4.097839
1108.825, 4.267517
1109.307, 4.278076
1109.790, 3.859924
1110.272, 3.626953
1110.754, 3.982422
1111.236, 4.263611
1111.718, 4.152588
1112.200, 3.681885
1112.682, 2.603821
1113.164, 0.8333130
1113.647, 0.3757930
1114.129, 2.928894
1114.611, 3.972595
1115.093, 2.153320
1115.575, 0.2090450
1116.057, 1.053650
1116.539, 1.534790
1117.021, 0.8546750
1117.504, 0.7857060
1117.986, 1.910950
1118.468, 2.510254
1118.950, 2.578186
1119.432, 1.929382
1119.914, 1.083923
1120.396, 3.2958999E-02
1120.878, 0.9235840
1121.360, 1.696045
1121.843, 2.053223
1122.325, 1.058777
1122.807, 1.853760
1123.289, 2.408142
1123.771, 0.4089970
1124.253, 2.003540
1124.735, 1.022400
1125.217, 0.2067260
1125.699, 0.2235720
1126.182, 0.4202270
1126.664, 0.8233030
1127.146, 0.9899290
1127.628, 0.9826050
1128.110, 0.7861940
1128.592, 0.5149540
1129.074, 0.1729130
1129.556, 0.1131590
1130.039, 0.2982180
1130.521, 0.2625120
1131.003, 0.2674560
1131.485, 0.9147340
1131.967, 1.6418001E-02
1132.449, 2.285706
1132.931, 3.422424
1133.413, 3.265320
1133.896, 2.510681
1134.378, 1.377319
1134.860, 0.8886110
1135.342, 1.961426
1135.824, 3.487244
1136.306, 3.296509
1136.788, 1.856140
1137.270, 0.7426150
1137.752, 4.7667999E-02
1138.234, 0.3083500
1138.717, 1.442078
1139.199, 2.122925
1139.681, 1.669739
1140.163, 1.079468
1140.645, 1.641968
1141.127, 2.643250
1141.609, 2.756653
1142.091, 2.294556
1142.574, 1.689148
1143.056, 1.181519
1143.538, 1.535400
1144.020, 2.823242
1144.502, 3.558472
1144.984, 2.419434
1145.466, 0.9378050
1145.948, 0.7063600
1146.431, 1.063293
1146.913, 1.192017
1147.395, 1.259583
1147.877, 1.710632
1148.359, 2.545105
1148.841, 3.540955
1149.323, 4.748779
1149.805, 5.219421
1150.287, 3.763062
1150.770, 2.023438
1151.252, 0.8899540
1151.734, 0.3427730
1152.216, 0.5113530
1152.698, 1.157410
1153.180, 1.872375
1153.662, 2.568726
1154.144, 3.042908
1154.626, 3.274902
1155.109, 3.215332
1155.591, 2.206604
1156.073, 1.612549
1156.555, 2.821289
1157.037, 4.590881
1157.519, 5.293457
1158.001, 4.955444
1158.483, 4.535583
1158.966, 3.970825
1159.448, 3.649231
1159.930, 3.761902
1160.412, 3.891541
1160.894, 3.717651
1161.376, 3.815125
1161.858, 4.883911
1162.340, 6.285828
1162.822, 6.523132
1163.305, 5.448792
1163.787, 4.947937
1164.269, 5.364075
1164.751, 5.357544
1165.233, 4.421265
1165.715, 3.833008
1166.197, 4.378662
1166.679, 5.432251
1167.161, 6.344727
1167.644, 6.979126
1168.126, 6.728638
1168.608, 5.564697
1169.090, 4.478577
1169.572, 3.502014
1170.054, 3.188293
1170.536, 3.700317
1171.018, 4.532349
1171.500, 5.363159
1171.983, 6.103882
1172.465, 6.656067
1172.947, 7.020935
1173.429, 7.288025
1173.911, 7.300232
1174.393, 6.370056
1174.875, 4.805603
1175.357, 4.258545
1175.840, 5.232727
1176.322, 6.399902
1176.804, 6.693176
1177.286, 6.575134
1177.768, 6.546265
1178.250, 6.524292
1178.732, 6.328674
1179.214, 6.005676
1179.697, 5.628296
1180.179, 5.335022
1180.661, 5.280518
1181.143, 5.461609
1181.625, 5.748962
1182.107, 6.009399
1182.589, 6.327271
1183.071, 6.837891
1183.553, 7.247314
1184.036, 7.498901
1184.518, 7.371094
1185.000, 6.208984
1185.482, 4.028564
1185.964, 2.574097
1186.446, 2.551392
1186.928, 2.807739
1187.410, 3.486206
1187.892, 3.924438
1188.375, 3.735229
1188.857, 3.269836
1189.339, 2.724426
1189.821, 2.295959
1190.303, 2.236389
1190.785, 2.474182
1191.267, 3.443665
1191.749, 5.765076
1192.232, 6.997192
1192.714, 6.486145
1193.196, 5.547241
1193.678, 4.658325
1194.160, 4.189819
1194.642, 4.710205
1195.124, 5.843445
1195.606, 6.117310
1196.089, 5.606201
1196.571, 5.093750
1197.053, 4.627625
1197.535, 4.724365
1198.017, 5.453186
1198.499, 5.769836
1198.981, 5.002197
1199.463, 3.973816
1199.945, 3.948608
1200.427, 4.311035
1200.910, 3.617981
1201.392, 2.427673
1201.874, 2.018066
1202.356, 2.273010
1202.838, 2.306946
1203.320, 1.956543
1203.802, 2.122742
1204.284, 3.605042
1204.767, 4.981628
1205.249, 5.145081
1205.731, 4.758301
1206.213, 4.057373
1206.695, 3.365967
1207.177, 3.039734
1207.659, 3.008240
1208.141, 3.000671
1208.624, 2.957214
1209.106, 3.062134
1209.588, 3.529480
1210.070, 3.910583
1210.552, 4.059998
1211.034, 4.171326
1211.516, 4.418823
1211.998, 4.596802
1212.480, 4.458801
1212.963, 4.076660
1213.445, 3.740662
1213.927, 3.458374
1214.409, 3.131958
1214.891, 2.666687
1215.373, 2.560120
1215.855, 2.993530
1216.337, 3.391296
1216.819, 3.503845
1217.302, 3.138184
1217.784, 1.903625
1218.266, 0.2695920
1218.748, 0.2492070
1219.230, 0.1680300
1219.712, 0.7697140
1220.194, 1.399536
1220.676, 1.481506
1221.159, 0.9490970
1221.641, 0.1563110
1222.123, 0.7395020
1222.605, 1.150879
1223.087, 5.9570000E-02
1223.569, 1.501526
1224.051, 1.292603
1224.533, 0.5654300
1225.016, 0.8375850
1225.498, 1.771484
1225.980, 2.524170
1226.462, 2.923584
1226.944, 3.166382
1227.426, 3.360657
1227.908, 3.293884
1228.390, 2.156860
1228.872, 1.561707
1229.354, 3.006165
1229.837, 4.454468
1230.319, 3.951172
1230.801, 2.536682
1231.283, 2.118774
1231.765, 2.671448
1232.247, 3.240540
1232.729, 3.925537
1233.211, 4.362854
1233.694, 4.580627
1234.176, 4.364380
1234.658, 3.565491
1235.140, 2.661560
1235.622, 1.935364
1236.104, 1.516968
1236.586, 1.802063
1237.068, 2.500305
1237.551, 2.391235
1238.033, 1.627075
1238.515, 0.6375120
1238.997, 0.3744510
1239.479, 0.6656490
1239.961, 0.1047970
1240.443, 0.5953980
1240.925, 1.023682
1241.407, 1.234436
1241.890, 1.168457
1242.372, 1.030396
1242.854, 1.086121
1243.336, 1.131775
1243.818, 0.7160640
1244.300, 0.1839600
1244.782, 0.4455570
1245.264, 1.565125
1245.746, 2.206055
1246.229, 1.623047
1246.711, 1.269775
1247.193, 1.602966
1247.675, 1.926331
1248.157, 1.988281
1248.639, 1.957947
1249.121, 1.913635
1249.603, 1.885620
1250.085, 1.987366
1250.568, 2.195190
1251.050, 1.888916
1251.532, 0.9285890
1252.014, 0.6085210
1252.496, 1.282104
1252.978, 2.176514
1253.460, 2.927185
1253.942, 2.725159
1254.425, 1.685059
1254.907, 0.4826050
1255.389, 0.4475710
1255.871, 1.138245
1256.353, 1.900574
1256.835, 2.552795
1257.317, 2.639771
1257.799, 2.421021
1258.281, 2.479370
1258.764, 2.912842
1259.246, 3.153809
1259.728, 2.867615
1260.210, 2.627502
1260.692, 3.008240
1261.174, 3.107788
1261.656, 1.728149
1262.138, 0.4478150
1262.620, 1.347290
1263.103, 3.253479
1263.585, 3.218384
1264.067, 1.506165
1264.549, 0.8211670
1265.031, 1.415771
1265.513, 2.123352
1265.995, 2.826721
1266.477, 3.411133
1266.960, 3.875488
1267.442, 3.812256
1267.924, 2.951721
1268.406, 1.987915
1268.888, 1.850830
1269.370, 2.320801
1269.852, 2.664856
1270.334, 2.758606
1270.817, 2.811096
1271.299, 2.713318
1271.781, 2.006958
1272.263, 0.9081420
1272.745, 0.3493040
1273.227, 0.7218020
1273.709, 1.014099
1274.191, 0.8633420
1274.673, 0.6190190
1275.156, 6.1096001E-02
1275.638, 2.3437999E-02
1276.120, 1.380737
1276.602, 2.969910
1277.084, 3.205322
1277.566, 2.362183
1278.048, 1.500488
1278.530, 0.5628660
1279.012, 0.1152950
1279.495, 0.4031980
1279.977, 0.5697020
1280.459, 0.4547730
1280.941, 0.3442380
1281.423, 0.1390990
1281.905, 1.1902000E-02
1282.387, 1.7761000E-02
1282.869, 0.1489870
1283.352, 0.3911130
1283.834, 0.5032350
1284.316, 0.3729250
1284.798, 0.0000000E+00
##END=



