##NAMES=Paratooite-(La)
##RRUFFID=R110066
##IDEAL CHEMISTRY=(La^3+^,Ca,Na,Sr)_6_Cu^2+^(CO_3_)_8_
##LOCALITY=Paratoo mine, Yunta, South Australia
##OWNER=RRUFF
##SOURCE=Renato & Adriana Pagano
##DESCRIPTION=Aggregates of platy pale blue crystals
##STATUS=The identification of this mineral has been confirmed only by chemical analysis
##URL=rruff.info/R110066
##MEASURED CHEMISTRY=(La_1.93_Nd_0.48_Pr_0.15_Y_0.10_Gd_0.05_Sm_0.04_Na_1.65_Ca_1.53_Sr_0.33_)_Î£=6.26_Cu_0.81_C_7.98_O_23.75_F_0.23_S_0.02_
139.8152, 1034.897
140.2973, 1036.889
140.7794, 1038.712
141.2615, 1040.529
141.7437, 1042.379
142.2258, 1044.512
142.7079, 1047.164
143.1900, 1050.131
143.6721, 1052.962
144.1542, 1055.630
144.6364, 1058.165
145.1185, 1060.274
145.6006, 1061.744
146.0827, 1064.095
146.5648, 1069.593
147.0469, 1075.962
147.5291, 1080.805
148.0112, 1083.026
148.4933, 1083.510
148.9754, 1083.962
149.4575, 1083.499
149.9396, 1084.754
150.4218, 1089.044
150.9039, 1095.110
151.3860, 1101.321
151.8681, 1106.744
152.3502, 1111.506
152.8323, 1116.408
153.3145, 1122.604
153.7966, 1127.750
154.2787, 1130.605
154.7608, 1132.021
155.2429, 1133.680
155.7250, 1136.948
156.2072, 1141.939
156.6893, 1146.715
157.1714, 1151.433
157.6535, 1155.855
158.1356, 1159.410
158.6177, 1162.386
159.0999, 1165.959
159.5820, 1171.379
160.0641, 1179.083
160.5462, 1185.691
161.0283, 1189.735
161.5104, 1193.698
161.9926, 1199.945
162.4747, 1208.737
162.9568, 1217.706
163.4389, 1224.113
163.9210, 1228.102
164.4031, 1231.928
164.8853, 1235.260
165.3674, 1238.846
165.8495, 1243.945
166.3316, 1251.129
166.8137, 1258.845
167.2958, 1265.375
167.7780, 1271.072
168.2601, 1277.356
168.7422, 1285.623
169.2243, 1295.219
169.7064, 1303.306
170.1885, 1309.038
170.6707, 1313.750
171.1528, 1317.877
171.6349, 1321.688
172.1170, 1326.200
172.5991, 1332.852
173.0812, 1341.814
173.5634, 1349.204
174.0455, 1353.057
174.5276, 1356.652
175.0097, 1360.955
175.4918, 1366.173
175.9739, 1372.321
176.4561, 1379.781
176.9382, 1389.531
177.4203, 1397.348
177.9024, 1402.204
178.3845, 1406.162
178.8666, 1410.080
179.3488, 1414.142
179.8309, 1418.184
180.3130, 1421.899
180.7951, 1424.969
181.2772, 1428.425
181.7593, 1432.703
182.2415, 1437.030
182.7236, 1440.511
183.2057, 1443.040
183.6878, 1445.623
184.1699, 1449.906
184.6520, 1457.599
185.1342, 1463.571
185.6163, 1466.785
186.0984, 1468.642
186.5805, 1470.523
187.0626, 1472.827
187.5447, 1475.322
188.0269, 1477.557
188.5090, 1479.391
188.9911, 1481.566
189.4732, 1484.357
189.9553, 1487.573
190.4374, 1490.858
190.9196, 1494.145
191.4017, 1497.455
191.8838, 1500.924
192.3659, 1504.557
192.8480, 1508.024
193.3301, 1511.240
193.8123, 1514.167
194.2944, 1516.741
194.7765, 1519.008
195.2586, 1520.736
195.7407, 1521.769
196.2228, 1522.099
196.7050, 1522.129
197.1871, 1521.803
197.6692, 1521.175
198.1513, 1521.428
198.6334, 1523.270
199.1155, 1525.761
199.5977, 1528.125
200.0798, 1530.362
200.5619, 1533.120
201.0440, 1537.470
201.5261, 1543.851
202.0082, 1549.111
202.4904, 1552.027
202.9725, 1554.310
203.4546, 1556.403
203.9367, 1558.528
204.4188, 1561.150
204.9009, 1565.028
205.3831, 1570.731
205.8652, 1575.928
206.3473, 1580.255
206.8294, 1584.305
207.3115, 1588.435
207.7936, 1592.670
208.2758, 1596.749
208.7579, 1600.099
209.2400, 1601.639
209.7221, 1604.938
210.2042, 1611.337
210.6863, 1618.213
211.1685, 1623.932
211.6506, 1628.124
212.1327, 1631.334
212.6148, 1634.286
213.0969, 1636.397
213.5790, 1639.551
214.0612, 1644.547
214.5433, 1649.994
215.0254, 1654.807
215.5075, 1658.711
215.9896, 1662.289
216.4717, 1666.293
216.9539, 1670.815
217.4360, 1675.726
217.9181, 1682.100
218.4002, 1688.337
218.8823, 1692.646
219.3644, 1694.569
219.8466, 1695.522
220.3287, 1697.307
220.8108, 1700.024
221.2929, 1703.047
221.7750, 1706.885
222.2571, 1710.773
222.7393, 1713.703
223.2214, 1715.416
223.7035, 1716.472
224.1856, 1716.968
224.6677, 1716.923
225.1498, 1718.300
225.6320, 1723.193
226.1141, 1729.441
226.5962, 1733.313
227.0783, 1733.819
227.5604, 1733.086
228.0425, 1732.752
228.5247, 1732.817
229.0068, 1733.627
229.4889, 1736.107
229.9710, 1739.355
230.4531, 1741.321
230.9352, 1741.543
231.4174, 1740.954
231.8995, 1739.689
232.3816, 1738.125
232.8637, 1737.403
233.3458, 1738.485
233.8279, 1740.869
234.3101, 1743.136
234.7922, 1745.772
235.2743, 1747.251
235.7564, 1745.942
236.2385, 1743.018
236.7206, 1740.854
237.2028, 1741.004
237.6849, 1743.005
238.1670, 1744.987
238.6491, 1747.345
239.1312, 1749.014
239.6133, 1749.591
240.0955, 1749.313
240.5776, 1748.494
241.0597, 1747.076
241.5418, 1745.326
242.0239, 1744.686
242.5060, 1746.430
242.9882, 1747.531
243.4703, 1746.390
243.9524, 1744.246
244.4345, 1743.000
244.9166, 1743.885
245.3987, 1746.337
245.8809, 1747.693
246.3630, 1747.421
246.8451, 1746.588
247.3272, 1744.958
247.8093, 1743.060
248.2914, 1741.672
248.7736, 1741.268
249.2557, 1741.457
249.7378, 1740.614
250.2199, 1737.291
250.7020, 1734.708
251.1841, 1733.858
251.6663, 1733.776
252.1484, 1733.503
252.6305, 1732.585
253.1126, 1730.926
253.5947, 1728.119
254.0768, 1722.040
254.5590, 1717.433
255.0411, 1715.132
255.5232, 1714.213
256.0053, 1713.956
256.4874, 1714.047
256.9695, 1714.031
257.4517, 1712.804
257.9338, 1708.590
258.4159, 1705.221
258.8980, 1703.204
259.3801, 1701.822
259.8622, 1700.290
260.3444, 1698.336
260.8265, 1696.256
261.3086, 1694.626
261.7907, 1693.895
262.2728, 1692.880
262.7549, 1691.442
263.2371, 1689.759
263.7192, 1687.982
264.2013, 1686.151
264.6834, 1684.288
265.1655, 1682.422
265.6476, 1680.542
266.1298, 1678.710
266.6119, 1676.461
267.0940, 1674.515
267.5761, 1673.721
268.0582, 1674.215
268.5403, 1675.222
269.0225, 1675.898
269.5046, 1676.184
269.9867, 1676.335
270.4688, 1676.219
270.9509, 1676.071
271.4330, 1676.163
271.9152, 1676.512
272.3973, 1676.748
272.8794, 1676.230
273.3615, 1674.930
273.8436, 1675.262
274.3257, 1678.922
274.8079, 1683.052
275.2900, 1685.240
275.7721, 1685.443
276.2542, 1685.257
276.7363, 1685.816
277.2184, 1687.060
277.7006, 1688.156
278.1827, 1688.628
278.6648, 1689.314
279.1469, 1691.005
279.6290, 1693.582
280.1111, 1696.082
280.5933, 1697.896
281.0754, 1699.201
281.5575, 1700.702
282.0396, 1702.249
282.5217, 1704.167
283.0038, 1707.146
283.4860, 1710.893
283.9681, 1713.816
284.4502, 1714.945
284.9323, 1714.987
285.4144, 1715.558
285.8965, 1716.864
286.3787, 1718.171
286.8608, 1718.728
287.3429, 1718.867
287.8250, 1719.977
288.3071, 1722.987
288.7892, 1726.504
289.2714, 1728.364
289.7535, 1728.378
290.2356, 1728.503
290.7177, 1729.593
291.1998, 1731.477
291.6819, 1733.891
292.1641, 1737.119
292.6462, 1740.189
293.1283, 1741.753
293.6104, 1742.007
294.0925, 1742.541
294.5746, 1744.469
295.0568, 1747.015
295.5389, 1748.439
296.0210, 1748.196
296.5031, 1747.863
296.9852, 1748.815
297.4673, 1750.748
297.9495, 1753.041
298.4316, 1756.093
298.9137, 1759.152
299.3958, 1760.782
299.8779, 1760.629
300.3600, 1760.639
300.8422, 1762.680
301.3243, 1765.686
301.8064, 1767.735
302.2885, 1767.732
302.7706, 1767.285
303.2527, 1768.555
303.7349, 1771.704
304.2170, 1774.364
304.6991, 1775.583
305.1812, 1775.510
305.6633, 1773.974
306.1454, 1770.131
306.6276, 1766.878
307.1097, 1767.437
307.5918, 1771.565
308.0739, 1774.929
308.5560, 1775.600
309.0381, 1775.315
309.5203, 1776.460
310.0024, 1779.309
310.4845, 1781.302
310.9666, 1779.762
311.4487, 1775.540
311.9308, 1773.034
312.4130, 1773.867
312.8951, 1775.533
313.3772, 1775.338
313.8593, 1773.617
314.3414, 1772.665
314.8235, 1774.975
315.3057, 1778.843
315.7878, 1779.445
316.2699, 1775.263
316.7520, 1770.500
317.2341, 1767.968
317.7162, 1767.178
318.1984, 1767.344
318.6805, 1768.936
319.1626, 1770.998
319.6447, 1772.222
320.1268, 1772.682
320.6089, 1771.949
321.0911, 1768.489
321.5732, 1764.010
322.0553, 1761.007
322.5374, 1760.560
323.0195, 1760.745
323.5016, 1759.427
323.9838, 1756.583
324.4659, 1754.076
324.9480, 1752.828
325.4301, 1752.144
325.9122, 1751.140
326.3943, 1749.697
326.8765, 1748.269
327.3586, 1747.200
327.8407, 1746.433
328.3228, 1745.779
328.8049, 1745.505
329.2870, 1744.855
329.7692, 1742.682
330.2513, 1739.158
330.7334, 1736.302
331.2155, 1735.701
331.6976, 1736.418
332.1797, 1736.266
332.6619, 1734.895
333.1440, 1732.997
333.6261, 1730.568
334.1082, 1727.987
334.5903, 1726.310
335.0724, 1726.505
335.5546, 1727.462
336.0367, 1727.991
336.5188, 1728.123
337.0009, 1727.399
337.4830, 1725.019
337.9651, 1721.733
338.4473, 1718.921
338.9294, 1716.611
339.4115, 1714.999
339.8936, 1715.060
340.3757, 1716.426
340.8578, 1716.079
341.3400, 1711.941
341.8221, 1706.509
342.3042, 1703.676
342.7863, 1703.768
343.2684, 1704.270
343.7505, 1704.542
344.2327, 1704.293
344.7148, 1702.473
345.1969, 1698.374
345.6790, 1693.969
346.1611, 1691.719
346.6432, 1691.280
347.1254, 1690.990
347.6075, 1690.576
348.0896, 1690.008
348.5717, 1689.335
349.0538, 1688.566
349.5359, 1687.432
350.0181, 1685.658
350.5002, 1683.303
350.9823, 1680.804
351.4644, 1677.502
351.9465, 1674.658
352.4286, 1673.385
352.9108, 1673.421
353.3929, 1673.595
353.8750, 1673.587
354.3571, 1673.108
354.8392, 1671.345
355.3214, 1667.632
355.8035, 1664.330
356.2856, 1662.728
356.7677, 1662.033
357.2498, 1660.818
357.7319, 1658.649
358.2141, 1656.034
358.6962, 1653.641
359.1783, 1651.545
359.6604, 1649.207
360.1425, 1646.395
360.6246, 1643.412
361.1068, 1640.471
361.5889, 1637.597
362.0710, 1634.968
362.5531, 1632.775
363.0352, 1631.012
363.5173, 1629.110
363.9995, 1627.192
364.4816, 1625.021
364.9637, 1622.307
365.4458, 1619.240
365.9279, 1616.257
366.4100, 1613.564
366.8922, 1611.153
367.3743, 1609.062
367.8564, 1606.894
368.3385, 1605.547
368.8206, 1606.595
369.3027, 1607.897
369.7849, 1606.814
370.2670, 1602.659
370.7491, 1596.806
371.2312, 1590.968
371.7133, 1584.808
372.1954, 1580.007
372.6776, 1577.850
373.1597, 1575.888
373.6418, 1572.231
374.1239, 1567.197
374.6060, 1562.627
375.0881, 1560.056
375.5703, 1559.419
376.0524, 1557.824
376.5345, 1554.686
377.0166, 1551.300
377.4987, 1547.727
377.9808, 1544.138
378.4630, 1540.675
378.9451, 1537.405
379.4272, 1534.392
379.9093, 1531.829
380.3914, 1530.172
380.8735, 1528.189
381.3557, 1525.209
381.8378, 1522.353
382.3199, 1520.736
382.8020, 1520.323
383.2841, 1519.966
383.7662, 1518.389
384.2484, 1515.448
384.7305, 1512.190
385.2126, 1508.186
385.6947, 1504.231
386.1768, 1500.197
386.6589, 1496.420
387.1411, 1493.615
387.6232, 1492.396
388.1053, 1492.141
388.5874, 1490.531
389.0695, 1486.692
389.5516, 1483.129
390.0338, 1480.483
390.5159, 1478.281
390.9980, 1476.197
391.4801, 1474.131
391.9622, 1471.978
392.4443, 1469.669
392.9265, 1467.246
393.4086, 1464.333
393.8907, 1460.334
394.3728, 1456.364
394.8549, 1452.887
395.3370, 1449.966
395.8192, 1447.737
396.3013, 1447.124
396.7834, 1447.249
397.2655, 1444.784
397.7476, 1438.577
398.2297, 1432.787
398.7119, 1429.857
399.1940, 1428.556
399.6761, 1427.652
400.1582, 1427.209
400.6403, 1426.242
401.1224, 1423.257
401.6046, 1418.380
402.0867, 1414.245
402.5688, 1411.877
403.0509, 1410.338
403.5330, 1408.424
404.0151, 1406.121
404.4973, 1404.027
404.9794, 1402.965
405.4615, 1402.124
405.9436, 1399.772
406.4257, 1395.543
406.9078, 1391.309
407.3900, 1388.819
407.8721, 1387.728
408.3542, 1386.020
408.8363, 1383.313
409.3184, 1380.195
409.8005, 1376.590
410.2827, 1372.804
410.7648, 1370.144
411.2469, 1369.485
411.7290, 1369.680
412.2111, 1367.885
412.6932, 1362.967
413.1754, 1359.192
413.6575, 1358.442
414.1396, 1358.568
414.6217, 1357.326
415.1038, 1354.344
415.5859, 1350.483
416.0681, 1346.370
416.5502, 1341.869
417.0323, 1338.922
417.5144, 1338.986
417.9965, 1338.814
418.4786, 1336.844
418.9608, 1333.704
419.4429, 1330.697
419.9250, 1328.492
420.4071, 1326.862
420.8892, 1325.204
421.3713, 1324.012
421.8535, 1322.001
422.3356, 1318.482
422.8177, 1314.646
423.2998, 1311.289
423.7819, 1308.574
424.2640, 1306.395
424.7462, 1304.791
425.2283, 1303.840
425.7104, 1302.210
426.1925, 1299.757
426.6746, 1296.696
427.1567, 1292.262
427.6389, 1287.448
428.1210, 1283.785
428.6031, 1282.048
429.0852, 1281.621
429.5673, 1281.697
430.0494, 1282.883
430.5316, 1282.406
431.0137, 1277.630
431.4958, 1272.301
431.9779, 1268.628
432.4600, 1266.801
432.9421, 1265.992
433.4243, 1266.320
433.9064, 1267.309
434.3885, 1266.638
434.8706, 1263.500
435.3527, 1260.334
435.8348, 1259.109
436.3170, 1258.842
436.7991, 1257.883
437.2812, 1255.720
437.7633, 1252.898
438.2454, 1249.768
438.7275, 1246.353
439.2097, 1242.854
439.6918, 1239.211
440.1739, 1235.730
440.6560, 1232.750
441.1381, 1230.141
441.6202, 1228.504
442.1024, 1229.125
442.5845, 1230.196
443.0666, 1229.465
443.5487, 1226.805
444.0308, 1223.789
444.5129, 1221.579
444.9951, 1220.078
445.4772, 1218.193
445.9593, 1216.055
446.4414, 1213.473
446.9235, 1209.813
447.4056, 1205.839
447.8878, 1202.678
448.3699, 1200.714
448.8520, 1199.563
449.3341, 1198.702
449.8162, 1198.383
450.2983, 1197.626
450.7805, 1196.596
451.2626, 1195.058
451.7447, 1192.539
452.2268, 1189.381
452.7089, 1186.378
453.1910, 1184.062
453.6732, 1182.332
454.1553, 1180.804
454.6374, 1179.470
455.1195, 1178.371
455.6016, 1177.670
456.0837, 1177.071
456.5659, 1176.329
457.0480, 1175.395
457.5301, 1174.406
458.0122, 1173.853
458.4943, 1173.698
458.9764, 1171.918
459.4586, 1167.353
459.9407, 1162.783
460.4228, 1159.553
460.9049, 1157.331
461.3870, 1155.609
461.8691, 1154.407
462.3513, 1153.311
462.8334, 1151.677
463.3155, 1149.541
463.7976, 1147.876
464.2797, 1147.325
464.7618, 1146.964
465.2440, 1145.339
465.7261, 1142.406
466.2082, 1140.214
466.6903, 1140.046
467.1724, 1140.658
467.6545, 1140.878
468.1367, 1140.552
468.6188, 1139.024
469.1009, 1135.433
469.5830, 1130.406
470.0651, 1127.042
470.5472, 1126.165
471.0294, 1125.667
471.5115, 1125.210
471.9936, 1124.755
472.4757, 1124.221
472.9578, 1123.595
473.4399, 1123.032
473.9221, 1122.874
474.4042, 1123.478
474.8863, 1122.321
475.3684, 1117.719
475.8505, 1113.344
476.3326, 1110.399
476.8148, 1108.648
477.2969, 1107.664
477.7790, 1107.272
478.2611, 1107.177
478.7432, 1106.792
479.2253, 1106.101
479.7075, 1105.174
480.1896, 1104.041
480.6717, 1102.661
481.1538, 1100.558
481.6359, 1098.057
482.1180, 1096.338
482.6002, 1096.479
483.0823, 1097.892
483.5644, 1099.204
484.0465, 1100.716
484.5286, 1100.948
485.0107, 1098.300
485.4929, 1094.459
485.9750, 1091.284
486.4571, 1088.986
486.9392, 1087.319
487.4213, 1086.343
487.9034, 1085.863
488.3856, 1085.450
488.8677, 1085.021
489.3498, 1084.755
489.8319, 1084.942
490.3140, 1085.505
490.7961, 1085.543
491.2783, 1084.710
491.7604, 1083.729
492.2425, 1082.751
492.7246, 1081.887
493.2067, 1081.511
493.6888, 1081.761
494.1710, 1081.950
494.6531, 1080.981
495.1352, 1078.448
495.6173, 1075.990
496.0994, 1072.768
496.5815, 1070.412
497.0637, 1070.003
497.5458, 1071.069
498.0279, 1072.739
498.5100, 1074.629
498.9921, 1076.261
499.4742, 1076.324
499.9564, 1074.203
500.4385, 1072.029
500.9206, 1069.275
501.4027, 1067.192
501.8848, 1067.081
502.3669, 1068.625
502.8491, 1070.009
503.3312, 1069.938
503.8133, 1068.820
504.2954, 1067.620
504.7775, 1066.266
505.2596, 1065.203
505.7418, 1064.611
506.2239, 1064.487
506.7060, 1065.016
507.1881, 1066.527
507.6702, 1067.341
508.1523, 1065.889
508.6345, 1063.432
509.1166, 1062.167
509.5987, 1062.417
510.0808, 1063.092
510.5629, 1063.468
511.0450, 1063.501
511.5272, 1062.841
512.0093, 1060.500
512.4914, 1058.721
512.9735, 1058.782
513.4556, 1059.518
513.9377, 1059.228
514.4199, 1057.523
514.9020, 1055.519
515.3841, 1054.615
515.8662, 1054.937
516.3483, 1055.524
516.8304, 1057.193
517.3126, 1058.252
517.7947, 1057.745
518.2768, 1056.471
518.7589, 1055.669
519.2410, 1055.849
519.7231, 1056.297
520.2053, 1055.984
520.6874, 1054.864
521.1695, 1053.543
521.6516, 1051.774
522.1337, 1050.236
522.6158, 1049.663
523.0980, 1049.681
523.5801, 1049.179
524.0622, 1047.262
524.5443, 1045.163
525.0264, 1044.272
525.5085, 1044.419
525.9907, 1044.648
526.4728, 1044.638
526.9549, 1044.568
527.4370, 1044.772
527.9191, 1045.356
528.4012, 1045.579
528.8834, 1045.285
529.3655, 1044.685
529.8476, 1043.669
530.3297, 1042.452
530.8118, 1041.620
531.2939, 1041.503
531.7761, 1041.809
532.2582, 1041.706
532.7403, 1040.210
533.2224, 1040.160
533.7045, 1043.285
534.1866, 1046.181
534.6688, 1046.577
535.1509, 1044.887
535.6330, 1042.897
536.1151, 1041.675
536.5972, 1041.069
537.0793, 1040.848
537.5615, 1041.270
538.0436, 1041.015
538.5257, 1039.001
539.0078, 1036.710
539.4899, 1035.327
539.9720, 1034.891
540.4542, 1035.084
540.9363, 1036.623
541.4184, 1038.280
541.9005, 1037.978
542.3826, 1035.754
542.8647, 1033.362
543.3469, 1031.226
543.8290, 1030.004
544.3111, 1032.046
544.7932, 1040.113
545.2753, 1044.517
545.7574, 1041.465
546.2396, 1035.953
546.7217, 1031.403
547.2038, 1028.434
547.6859, 1027.247
548.1680, 1028.217
548.6501, 1030.589
549.1323, 1030.845
549.6144, 1026.908
550.0965, 1024.469
550.5786, 1025.272
551.0607, 1026.724
551.5428, 1026.909
552.0250, 1025.801
552.5071, 1024.625
552.9892, 1024.323
553.4713, 1024.597
553.9534, 1024.593
554.4355, 1024.283
554.9177, 1023.828
555.3998, 1023.213
555.8819, 1022.535
556.3640, 1021.871
556.8461, 1021.194
557.3282, 1020.751
557.8104, 1021.282
558.2925, 1021.718
558.7746, 1020.435
559.2567, 1017.560
559.7388, 1014.866
560.2209, 1013.404
560.7031, 1012.874
561.1852, 1012.316
561.6673, 1011.640
562.1494, 1011.059
562.6315, 1010.664
563.1136, 1010.301
563.5958, 1009.606
564.0779, 1008.790
564.5600, 1008.749
565.0421, 1010.387
565.5242, 1012.783
566.0063, 1012.430
566.4885, 1007.948
566.9706, 1004.749
567.4527, 1005.531
567.9348, 1006.976
568.4169, 1006.513
568.8990, 1004.335
569.3812, 1002.781
569.8633, 1004.056
570.3454, 1006.158
570.8275, 1005.944
571.3096, 1003.547
571.7917, 1001.124
572.2739, 999.4432
572.7560, 998.4180
573.2381, 998.1250
573.7202, 999.0175
574.2023, 998.8397
574.6844, 996.0619
575.1666, 993.2993
575.6487, 992.4977
576.1308, 993.2284
576.6129, 994.1682
577.0950, 994.6541
577.5771, 994.6622
578.0593, 994.0253
578.5414, 992.3111
579.0235, 991.1240
579.5056, 991.3344
579.9877, 991.3346
580.4698, 990.1003
580.9520, 988.0966
581.4341, 986.4809
581.9162, 985.8826
582.3983, 985.6530
582.8804, 984.5793
583.3625, 982.8357
583.8447, 982.6436
584.3268, 985.1838
584.8089, 987.8893
585.2910, 987.9494
585.7731, 985.5980
586.2552, 983.1960
586.7374, 980.3060
587.2195, 978.0868
587.7016, 977.7905
588.1837, 978.4192
588.6658, 978.0589
589.1479, 976.1847
589.6301, 974.0941
590.1122, 973.5147
590.5943, 974.7154
591.0764, 974.8230
591.5585, 972.8715
592.0406, 970.8990
592.5228, 969.2542
593.0049, 967.8997
593.4870, 966.8601
593.9691, 966.1210
594.4512, 965.3779
594.9333, 964.3158
595.4155, 962.9941
595.8976, 961.5638
596.3797, 959.9030
596.8618, 958.7753
597.3439, 959.0930
597.8260, 960.0824
598.3082, 959.7593
598.7903, 957.4099
599.2724, 955.5701
599.7545, 955.8025
600.2366, 956.4886
600.7188, 955.6865
601.2009, 953.4525
601.6830, 951.2659
602.1651, 950.1228
602.6472, 949.7672
603.1293, 949.2899
603.6115, 948.8401
604.0936, 947.9626
604.5757, 945.9708
605.0578, 944.1616
605.5399, 943.3636
606.0220, 943.4662
606.5042, 943.9880
606.9863, 945.0239
607.4684, 945.7863
607.9505, 944.4555
608.4326, 941.1078
608.9147, 939.0350
609.3969, 939.5842
609.8790, 940.7712
610.3611, 940.3065
610.8432, 938.3510
611.3253, 936.8702
611.8074, 936.6967
612.2896, 936.3909
612.7717, 934.9145
613.2538, 932.8699
613.7359, 931.2965
614.2180, 930.4957
614.7001, 930.0966
615.1823, 929.7332
615.6644, 929.4270
616.1465, 928.6249
616.6286, 926.6350
617.1107, 925.1135
617.5928, 925.0525
618.0750, 925.3110
618.5571, 924.5159
619.0392, 922.4600
619.5213, 920.5227
620.0034, 920.1639
620.4855, 920.5729
620.9677, 919.6227
621.4498, 917.1755
621.9319, 915.2472
622.4140, 914.8692
622.8961, 915.5767
623.3782, 916.5675
623.8604, 918.1649
624.3425, 919.0179
624.8246, 918.3694
625.3067, 917.4628
625.7888, 917.3381
626.2709, 917.6371
626.7531, 917.2527
627.2352, 915.6271
627.7173, 913.4697
628.1994, 912.0613
628.6815, 911.4854
629.1636, 911.1816
629.6458, 911.4678
630.1279, 911.5633
630.6100, 910.9147
631.0921, 909.8697
631.5742, 909.0703
632.0563, 908.7503
632.5385, 908.4668
633.0206, 908.0942
633.5027, 907.4883
633.9848, 906.1686
634.4669, 904.0917
634.9490, 902.1083
635.4312, 900.8494
635.9133, 900.1752
636.3954, 899.3963
636.8775, 898.1082
637.3596, 897.2881
637.8417, 897.3322
638.3239, 897.5604
638.8060, 897.6581
639.2881, 897.5060
639.7702, 896.8983
640.2523, 895.5904
640.7344, 894.0722
641.2166, 893.5259
641.6987, 894.0195
642.1808, 893.7371
642.6629, 891.9725
643.1450, 889.9078
643.6271, 888.5618
644.1093, 887.7841
644.5914, 887.1280
645.0735, 886.8026
645.5556, 886.2858
646.0377, 884.8952
646.5198, 883.3485
647.0020, 882.9590
647.4841, 883.8196
647.9662, 884.6104
648.4483, 884.1327
648.9304, 882.5594
649.4125, 881.0578
649.8947, 879.6158
650.3768, 878.2903
650.8589, 876.8083
651.3410, 875.6653
651.8231, 875.7318
652.3052, 876.6390
652.7874, 876.5579
653.2695, 873.6673
653.7516, 870.1995
654.2337, 869.1528
654.7158, 870.0452
655.1979, 870.7385
655.6801, 870.6608
656.1622, 869.9578
656.6443, 868.5047
657.1264, 866.1842
657.6085, 865.5518
658.0906, 868.8956
658.5728, 870.8323
659.0549, 869.0995
659.5370, 865.9438
660.0191, 863.4883
660.5012, 862.1641
660.9833, 861.4932
661.4655, 861.3176
661.9476, 861.3635
662.4297, 860.4024
662.9118, 858.1365
663.3939, 857.4701
663.8760, 860.5974
664.3582, 864.1338
664.8403, 863.4247
665.3224, 858.8644
665.8045, 855.2989
666.2866, 853.8184
666.7687, 853.1741
667.2509, 853.1192
667.7330, 853.3002
668.2151, 853.2560
668.6972, 852.8422
669.1793, 852.0710
669.6614, 850.9048
670.1436, 849.3697
670.6257, 847.8232
671.1078, 846.1585
671.5899, 844.6949
672.0720, 843.8213
672.5541, 842.9551
673.0363, 841.5866
673.5184, 839.7238
674.0005, 837.7852
674.4826, 835.5585
674.9647, 833.6238
675.4468, 833.0490
675.9290, 833.2598
676.4111, 832.3665
676.8932, 829.7679
677.3753, 826.6956
677.8574, 824.6678
678.3395, 823.7542
678.8217, 822.0883
679.3038, 817.9617
679.7859, 815.3128
680.2680, 816.0574
680.7501, 817.7203
681.2322, 818.0646
681.7144, 816.9290
682.1965, 815.5876
682.6786, 814.9232
683.1607, 814.5248
683.6428, 813.4772
684.1249, 811.9223
684.6071, 811.3537
685.0892, 812.4905
685.5713, 813.7229
686.0534, 813.1033
686.5355, 810.4898
687.0176, 808.4288
687.4998, 807.1329
687.9819, 806.0618
688.4640, 805.2864
688.9461, 804.5403
689.4282, 803.3255
689.9103, 801.7570
690.3925, 800.7252
690.8746, 801.2062
691.3567, 802.4080
691.8388, 802.3887
692.3209, 801.1155
692.8030, 799.4760
693.2852, 797.4079
693.7673, 795.6109
694.2494, 794.9771
694.7315, 795.4280
695.2136, 795.5625
695.6957, 795.5252
696.1779, 794.9327
696.6600, 793.3109
697.1421, 791.2697
697.6242, 789.5112
698.1063, 788.0898
698.5884, 786.4920
699.0706, 784.1701
699.5527, 781.6631
700.0348, 780.7908
700.5169, 781.9145
700.9990, 782.2784
701.4811, 780.9005
701.9633, 779.2488
702.4454, 778.8172
702.9275, 779.1711
703.4096, 778.8151
703.8917, 777.1712
704.3738, 775.3118
704.8560, 773.3747
705.3381, 771.6252
705.8202, 770.5547
706.3023, 770.0602
706.7844, 769.3996
707.2665, 768.0410
707.7487, 766.2585
708.2308, 764.7718
708.7129, 763.5506
709.1950, 762.8142
709.6771, 763.0275
710.1592, 763.1512
710.6414, 762.0682
711.1235, 760.4887
711.6056, 760.1361
712.0877, 762.1568
712.5698, 763.3863
713.0519, 761.3978
713.5341, 758.3308
714.0162, 756.4633
714.4983, 756.0145
714.9804, 756.7560
715.4625, 758.6893
715.9446, 760.7985
716.4268, 760.5611
716.9089, 757.0677
717.3910, 755.4020
717.8731, 757.0602
718.3552, 758.6920
718.8373, 758.7690
719.3195, 757.8465
719.8016, 756.6661
720.2837, 755.3266
720.7658, 753.7408
721.2479, 751.3295
721.7300, 749.0311
722.2122, 748.1664
722.6943, 748.3775
723.1764, 748.1935
723.6585, 746.9696
724.1406, 745.3533
724.6227, 744.5052
725.1049, 744.6445
725.5870, 743.2924
726.0691, 739.2597
726.5512, 735.6703
727.0333, 733.6676
727.5154, 732.5518
727.9976, 731.9825
728.4797, 731.8828
728.9618, 731.2609
729.4439, 729.4411
729.9260, 727.1445
730.4081, 724.8988
730.8903, 722.7181
731.3724, 720.5870
731.8545, 718.5006
732.3366, 716.4429
732.8187, 714.3372
733.3008, 712.2305
733.7830, 710.7154
734.2651, 710.2974
734.7472, 709.3831
735.2293, 707.1160
735.7114, 704.6492
736.1935, 702.6701
736.6757, 701.1947
737.1578, 700.1055
737.6399, 699.5982
738.1220, 699.1679
738.6041, 698.3291
739.0862, 697.4097
739.5684, 697.1584
740.0505, 697.5364
740.5326, 697.5782
741.0147, 696.5599
741.4968, 694.7615
741.9789, 692.8019
742.4611, 690.2223
742.9432, 689.3143
743.4253, 692.1611
743.9074, 694.3438
744.3895, 692.9911
744.8716, 689.3964
745.3538, 685.7242
745.8359, 682.0174
746.3180, 679.2003
746.8001, 677.7853
747.2822, 677.4097
747.7643, 678.3866
748.2465, 680.0976
748.7286, 680.7614
749.2107, 679.5641
749.6928, 677.5892
750.1749, 676.5863
750.6570, 676.6447
751.1392, 675.5876
751.6213, 672.7074
752.1034, 670.3337
752.5855, 669.6630
753.0676, 669.7850
753.5497, 669.7582
754.0319, 669.5743
754.5140, 668.8600
754.9961, 666.8644
755.4782, 664.9975
755.9603, 664.4030
756.4424, 664.3782
756.9246, 663.6710
757.4067, 662.1159
757.8888, 660.7359
758.3709, 660.5609
758.8530, 661.0473
759.3351, 660.2317
759.8173, 657.9567
760.2994, 655.7349
760.7815, 653.7822
761.2636, 652.1675
761.7457, 651.0135
762.2278, 650.2834
762.7100, 649.7211
763.1921, 649.3957
763.6742, 649.1388
764.1563, 649.4812
764.6384, 649.4222
765.1205, 647.6740
765.6027, 644.8262
766.0848, 642.5433
766.5669, 641.5977
767.0490, 641.3411
767.5311, 641.3168
768.0132, 641.3268
768.4954, 639.9157
768.9775, 636.7623
769.4596, 634.2491
769.9417, 633.6738
770.4238, 634.1436
770.9059, 634.1500
771.3881, 633.5771
771.8702, 632.9586
772.3523, 632.6947
772.8344, 631.9065
773.3165, 629.6945
773.7986, 627.1534
774.2808, 625.4877
774.7629, 624.8524
775.2450, 624.6184
775.7271, 624.6190
776.2092, 624.5469
776.6913, 623.8320
777.1735, 622.6252
777.6556, 621.6354
778.1377, 621.0360
778.6198, 620.1796
779.1019, 618.3519
779.5840, 615.9174
780.0662, 614.8331
780.5483, 616.0983
781.0304, 616.8168
781.5125, 616.6193
781.9946, 616.0438
782.4767, 614.9626
782.9589, 613.7825
783.4410, 613.4410
783.9231, 614.4384
784.4052, 614.8600
784.8873, 612.5718
785.3694, 609.7355
785.8516, 609.5061
786.3337, 611.2219
786.8158, 611.9097
787.2979, 610.3954
787.7800, 608.3334
788.2621, 608.0781
788.7443, 609.5361
789.2264, 609.5179
789.7085, 607.5488
790.1906, 605.3787
790.6727, 602.9844
791.1548, 601.0858
791.6370, 600.8494
792.1191, 601.9547
792.6012, 602.1213
793.0833, 600.1504
793.5654, 598.2618
794.0475, 597.0967
794.5297, 596.5543
795.0118, 596.7968
795.4939, 597.5776
795.9760, 598.3300
796.4581, 598.8168
796.9402, 598.6269
797.4224, 596.4724
797.9045, 592.8273
798.3866, 591.2300
798.8687, 592.1876
799.3508, 593.2400
799.8329, 593.1893
800.3151, 592.4113
800.7972, 591.5416
801.2793, 590.4844
801.7614, 589.7109
802.2435, 590.0654
802.7256, 589.6483
803.2078, 586.8357
803.6899, 583.6824
804.1720, 582.4628
804.6541, 583.2365
805.1362, 584.2419
805.6183, 584.5298
806.1005, 584.6505
806.5826, 585.6248
807.0647, 586.7753
807.5468, 586.2347
808.0289, 583.8573
808.5110, 581.4509
808.9932, 580.2711
809.4753, 580.0081
809.9574, 579.9141
810.4395, 580.0820
810.9216, 580.0329
811.4037, 579.9711
811.8859, 579.3026
812.3680, 576.9225
812.8501, 574.1287
813.3322, 572.9471
813.8143, 573.6984
814.2964, 574.3139
814.7786, 574.1071
815.2607, 573.8625
815.7428, 574.0192
816.2249, 574.4319
816.7070, 575.0603
817.1891, 575.7621
817.6713, 575.9991
818.1534, 575.2763
818.6355, 573.9587
819.1176, 572.6963
819.5997, 571.4755
820.0818, 570.0935
820.5640, 568.4490
821.0461, 567.2218
821.5282, 566.9391
822.0103, 567.3722
822.4924, 567.9101
822.9745, 569.1844
823.4567, 569.1441
823.9388, 566.5282
824.4209, 564.0549
824.9030, 562.4868
825.3851, 561.7070
825.8672, 561.7360
826.3494, 562.5460
826.8315, 563.2599
827.3136, 563.5984
827.7957, 563.5623
828.2778, 562.9395
828.7599, 562.0172
829.2421, 561.1929
829.7242, 560.6077
830.2063, 560.4869
830.6884, 561.0893
831.1705, 562.0224
831.6526, 562.3303
832.1348, 561.9993
832.6169, 561.2870
833.0990, 560.0783
833.5811, 558.9569
834.0632, 558.3991
834.5453, 558.0370
835.0275, 556.8897
835.5096, 554.2118
835.9917, 553.0451
836.4738, 555.0964
836.9559, 556.6555
837.4380, 555.6954
837.9202, 553.9371
838.4023, 553.5281
838.8844, 554.5556
839.3665, 555.3040
839.8486, 554.8925
840.3307, 553.7589
840.8129, 551.6916
841.2950, 549.4402
841.7771, 548.8773
842.2592, 550.0017
842.7413, 550.7685
843.2234, 549.8011
843.7056, 548.2879
844.1877, 549.0622
844.6698, 552.4465
845.1519, 553.8554
845.6340, 552.4690
846.1161, 551.0262
846.5983, 550.5273
847.0804, 550.6860
847.5625, 551.2178
848.0446, 552.1473
848.5267, 552.9818
849.0089, 554.4450
849.4910, 554.8482
849.9731, 552.7349
850.4552, 550.1241
850.9373, 548.9611
851.4194, 548.9892
851.9016, 548.7331
852.3837, 547.5080
852.8658, 545.9828
853.3479, 544.1120
853.8300, 542.6478
854.3121, 543.5851
854.7943, 546.4218
855.2764, 548.3209
855.7585, 548.0477
856.2406, 546.6196
856.7227, 545.1182
857.2048, 543.6298
857.6870, 543.4741
858.1691, 545.1526
858.6512, 546.1926
859.1333, 546.0348
859.6154, 544.9510
860.0975, 542.6224
860.5797, 539.4534
861.0618, 537.6917
861.5439, 538.2791
862.0260, 538.6646
862.5081, 538.6472
862.9902, 538.2942
863.4724, 537.3676
863.9545, 536.2460
864.4366, 535.4005
864.9187, 534.9594
865.4008, 535.1061
865.8829, 536.6917
866.3651, 538.3428
866.8472, 538.3754
867.3293, 537.2281
867.8114, 535.9461
868.2935, 534.7756
868.7756, 533.3832
869.2578, 531.3708
869.7399, 529.4368
870.2220, 529.6796
870.7041, 532.2354
871.1862, 533.9167
871.6683, 534.2343
872.1505, 534.5370
872.6326, 535.7904
873.1147, 537.0847
873.5968, 536.6976
874.0789, 534.1191
874.5610, 532.6144
875.0432, 533.5492
875.5253, 533.7221
876.0074, 531.9057
876.4895, 529.4514
876.9716, 526.9087
877.4537, 524.7302
877.9359, 524.1116
878.4180, 526.0847
878.9001, 528.1118
879.3822, 528.7048
879.8643, 528.4838
880.3464, 527.7482
880.8286, 526.8703
881.3107, 526.6947
881.7928, 527.4885
882.2749, 528.5255
882.7570, 529.2410
883.2391, 529.4863
883.7213, 528.5007
884.2034, 526.3777
884.6855, 524.6929
885.1676, 523.8321
885.6497, 523.3014
886.1318, 522.6859
886.6140, 522.1259
887.0961, 522.1941
887.5782, 523.4775
888.0603, 523.8450
888.5424, 522.6618
889.0245, 521.4174
889.5067, 520.5056
889.9888, 519.9622
890.4709, 519.9758
890.9530, 520.5391
891.4351, 520.8980
891.9172, 521.1380
892.3994, 520.8441
892.8815, 519.1458
893.3636, 517.3651
893.8457, 516.9349
894.3278, 517.6075
894.8099, 518.2699
895.2921, 518.4545
895.7742, 518.5018
896.2563, 518.9489
896.7384, 519.3634
897.2205, 518.7297
897.7026, 517.3298
898.1848, 516.3293
898.6669, 516.0999
899.1490, 516.5365
899.6311, 517.7693
900.1132, 519.2787
900.5953, 518.6326
901.0775, 515.5098
901.5596, 514.0823
902.0417, 515.3577
902.5238, 516.9963
903.0059, 517.8949
903.4880, 517.9606
903.9702, 516.7374
904.4523, 513.4384
904.9344, 512.0320
905.4165, 514.1501
905.8986, 516.0380
906.3807, 517.3236
906.8629, 517.6915
907.3450, 516.1550
907.8271, 513.3635
908.3092, 511.9022
908.7913, 512.9117
909.2734, 514.3121
909.7556, 515.7955
910.2377, 516.7367
910.7198, 516.4694
911.2019, 515.2611
911.6840, 513.1507
912.1661, 510.3945
912.6483, 508.9959
913.1304, 511.8436
913.6125, 515.9803
914.0946, 516.2134
914.5767, 513.6368
915.0588, 511.5544
915.5410, 510.5710
916.0231, 510.2941
916.5052, 510.4913
916.9873, 511.1522
917.4694, 512.6387
917.9515, 515.0428
918.4337, 515.3403
918.9158, 512.9044
919.3979, 511.2844
919.8800, 512.0452
920.3621, 513.3591
920.8442, 513.2909
921.3264, 511.9762
921.8085, 510.8476
922.2906, 509.6207
922.7727, 509.0530
923.2548, 509.5634
923.7369, 510.2910
924.2191, 510.8190
924.7012, 511.3204
925.1833, 512.2755
925.6654, 513.7858
926.1475, 514.4954
926.6296, 513.2136
927.1118, 511.9585
927.5939, 512.0104
928.0760, 512.4371
928.5581, 512.0267
929.0402, 510.9806
929.5223, 510.5590
930.0045, 511.4682
930.4866, 512.0535
930.9687, 510.0405
931.4508, 507.2000
931.9329, 506.1880
932.4150, 506.8376
932.8972, 508.7010
933.3793, 511.4140
933.8614, 513.1417
934.3435, 512.0139
934.8256, 509.3962
935.3077, 508.9115
935.7899, 510.3645
936.2720, 510.7513
936.7541, 509.6645
937.2362, 508.5589
937.7183, 508.1496
938.2004, 508.0849
938.6826, 507.8199
939.1647, 507.3436
939.6468, 507.1979
940.1289, 507.4554
940.6110, 507.8751
941.0931, 508.4944
941.5753, 509.1601
942.0574, 509.8966
942.5395, 510.5760
943.0216, 510.8640
943.5037, 510.6870
943.9858, 510.3481
944.4680, 510.0721
944.9501, 509.4005
945.4322, 507.3677
945.9143, 505.4237
946.3964, 505.2485
946.8785, 506.6394
947.3607, 508.0401
947.8428, 509.1906
948.3249, 509.7240
948.8070, 508.9182
949.2891, 507.8480
949.7712, 507.5252
950.2534, 507.7344
950.7355, 507.8954
951.2176, 507.8626
951.6997, 507.9518
952.1818, 508.6662
952.6639, 509.2824
953.1461, 508.3731
953.6282, 506.7107
954.1103, 506.3615
954.5924, 507.3070
955.0745, 507.8332
955.5566, 507.0869
956.0388, 505.8765
956.5209, 505.1187
957.0030, 504.8649
957.4851, 505.7296
957.9672, 507.7055
958.4493, 508.4843
958.9315, 507.3878
959.4136, 506.3722
959.8957, 506.9582
960.3778, 508.4711
960.8599, 509.1228
961.3420, 508.6623
961.8242, 508.6999
962.3063, 509.7124
962.7884, 509.9797
963.2705, 508.4255
963.7526, 506.5836
964.2347, 506.0250
964.7169, 506.5795
965.1990, 506.9941
965.6811, 507.1790
966.1632, 507.3589
966.6453, 507.7326
967.1274, 507.8753
967.6096, 507.3781
968.0917, 506.6860
968.5738, 506.3485
969.0559, 506.3973
969.5380, 506.5500
970.0201, 506.4730
970.5023, 506.8430
970.9844, 508.4454
971.4665, 510.0947
971.9486, 510.9939
972.4307, 511.1481
972.9128, 510.5774
973.3950, 509.3150
973.8771, 508.2554
974.3592, 508.1583
974.8413, 508.2513
975.3234, 507.9219
975.8055, 507.3068
976.2877, 506.1874
976.7698, 504.9657
977.2519, 505.1904
977.7340, 507.6459
978.2161, 510.0005
978.6982, 508.9710
979.1804, 506.5108
979.6625, 506.3874
980.1446, 508.1482
980.6267, 510.2838
981.1088, 512.3440
981.5909, 513.9761
982.0731, 514.9646
982.5552, 515.2082
983.0373, 514.1334
983.5194, 512.0197
984.0015, 510.8527
984.4836, 510.6925
984.9658, 511.5409
985.4479, 513.5739
985.9300, 514.9040
986.4121, 513.5450
986.8942, 510.4850
987.3763, 509.3622
987.8585, 510.4491
988.3406, 511.7689
988.8227, 513.3354
989.3048, 514.8222
989.7869, 516.3350
990.2690, 517.2122
990.7512, 516.4174
991.2333, 514.1392
991.7154, 512.7564
992.1975, 512.3375
992.6796, 512.7172
993.1617, 514.6547
993.6439, 516.3242
994.1260, 516.9816
994.6081, 516.8129
995.0902, 515.7323
995.5723, 513.6729
996.0544, 512.7465
996.5366, 513.5496
997.0187, 514.7466
997.5008, 516.9389
997.9829, 518.6394
998.4650, 518.7556
998.9471, 517.8512
999.4293, 516.6993
999.9114, 515.3592
1000.393, 514.7305
1000.876, 515.1870
1001.358, 516.2430
1001.840, 518.6793
1002.322, 520.7899
1002.804, 520.6132
1003.286, 518.9776
1003.768, 517.9719
1004.250, 518.1847
1004.733, 518.7555
1005.215, 519.8303
1005.697, 520.4476
1006.179, 519.2698
1006.661, 517.5950
1007.143, 517.2316
1007.625, 518.0159
1008.107, 518.5822
1008.589, 518.3288
1009.072, 518.2219
1009.554, 519.7839
1010.036, 521.3420
1010.518, 519.9103
1011.000, 517.2812
1011.482, 517.6592
1011.964, 520.9899
1012.446, 523.3554
1012.929, 522.5403
1013.411, 520.8451
1013.893, 521.1928
1014.375, 522.5773
1014.857, 522.9466
1015.339, 522.5052
1015.821, 522.0920
1016.303, 521.9348
1016.785, 522.0433
1017.268, 522.4305
1017.750, 523.0541
1018.232, 524.0654
1018.714, 525.2567
1019.196, 525.7363
1019.678, 525.5231
1020.160, 524.8701
1020.642, 523.8556
1021.125, 523.3630
1021.607, 524.2090
1022.089, 525.6418
1022.571, 525.9933
1023.053, 525.2958
1023.535, 523.6859
1024.017, 521.0666
1024.499, 520.3531
1024.981, 522.6362
1025.464, 525.8797
1025.946, 528.4336
1026.428, 530.1635
1026.910, 530.4794
1027.392, 529.2306
1027.874, 527.8625
1028.356, 526.2253
1028.838, 525.5010
1029.321, 526.2838
1029.803, 527.5788
1030.285, 528.4404
1030.767, 528.9871
1031.249, 529.8454
1031.731, 531.3221
1032.213, 531.8386
1032.695, 530.9191
1033.177, 530.0917
1033.660, 529.6673
1034.142, 530.0082
1034.624, 531.8629
1035.106, 534.8239
1035.588, 536.2233
1036.070, 535.2712
1036.552, 534.6555
1037.034, 534.5599
1037.516, 534.5652
1037.999, 534.3983
1038.481, 534.3997
1038.963, 535.1356
1039.445, 536.4440
1039.927, 537.0566
1040.409, 536.6799
1040.891, 536.1157
1041.373, 534.5162
1041.855, 533.8254
1042.338, 535.2928
1042.820, 537.6245
1043.302, 540.0118
1043.784, 542.2595
1044.266, 542.9542
1044.748, 540.4841
1045.230, 539.1091
1045.712, 539.6737
1046.195, 540.6182
1046.677, 541.6429
1047.159, 542.5169
1047.641, 542.8632
1048.123, 542.7872
1048.605, 543.0590
1049.087, 544.1068
1049.569, 544.8725
1050.052, 544.5939
1050.534, 544.7145
1051.016, 546.4642
1051.498, 548.5518
1051.980, 549.4446
1052.462, 549.2474
1052.944, 549.1806
1053.426, 549.2675
1053.908, 549.8832
1054.391, 551.3613
1054.873, 553.0953
1055.355, 555.2145
1055.837, 557.1273
1056.319, 558.1931
1056.801, 558.4363
1057.283, 558.1442
1057.765, 556.4908
1058.248, 556.4410
1058.730, 560.1650
1059.212, 564.2407
1059.694, 566.9545
1060.176, 568.8530
1060.658, 570.2805
1061.140, 571.5797
1061.622, 573.7851
1062.104, 577.4827
1062.587, 581.1960
1063.069, 584.5856
1063.551, 587.6021
1064.033, 589.8898
1064.515, 592.0153
1064.997, 594.2500
1065.479, 596.9138
1065.961, 601.0137
1066.443, 607.3376
1066.926, 613.2532
1067.408, 617.4396
1067.890, 621.1791
1068.372, 624.5525
1068.854, 628.4107
1069.336, 634.2349
1069.818, 641.3613
1070.300, 647.3165
1070.782, 651.0672
1071.265, 655.3831
1071.747, 661.7715
1072.229, 668.8002
1072.711, 675.8947
1073.193, 682.9685
1073.675, 690.1912
1074.157, 697.2334
1074.639, 703.2819
1075.122, 708.0607
1075.604, 712.2901
1076.086, 716.5520
1076.568, 720.0716
1077.050, 722.7678
1077.532, 724.2009
1078.014, 723.3735
1078.496, 721.0062
1078.979, 718.9922
1079.461, 717.8708
1079.943, 716.0237
1080.425, 712.3925
1080.907, 708.2513
1081.389, 703.3305
1081.871, 699.0826
1082.353, 697.7015
1082.835, 697.8375
1083.318, 696.1525
1083.800, 691.9370
1084.282, 688.7963
1084.764, 688.9009
1085.246, 689.6696
1085.728, 689.3854
1086.210, 689.6083
1086.692, 691.9603
1087.175, 695.7236
1087.657, 699.9083
1088.139, 704.1721
1088.621, 707.0882
1089.103, 706.9843
1089.585, 706.9668
1090.067, 708.7736
1090.549, 710.7731
1091.031, 711.3662
1091.514, 711.4828
1091.996, 712.9603
1092.478, 715.7672
1092.960, 717.5715
1093.442, 716.6026
1093.924, 716.3760
1094.406, 718.6790
1094.888, 721.6398
1095.370, 724.8262
1095.853, 727.4413
1096.335, 728.7048
1096.817, 728.5508
1097.299, 727.1306
1097.781, 724.2833
1098.263, 720.7162
1098.745, 716.3715
1099.227, 711.7069
1099.709, 707.4667
1100.192, 702.6388
1100.674, 695.4882
1101.156, 686.8191
1101.638, 679.5311
1102.120, 674.3920
1102.602, 669.7461
1103.084, 664.9709
1103.566, 660.8483
1104.049, 658.1796
1104.531, 655.8146
1105.013, 652.4449
1105.495, 648.6554
1105.977, 645.8884
1106.459, 644.3342
1106.941, 643.5830
1107.423, 644.1351
1107.906, 644.6917
1108.388, 644.8420
1108.870, 644.9675
1109.352, 645.2589
1109.834, 645.7335
1110.316, 646.6122
1110.798, 647.9710
1111.280, 648.3961
1111.762, 646.1246
1112.245, 645.4278
1112.727, 648.4957
1113.209, 651.3388
1113.691, 651.6710
1114.173, 650.9272
1114.655, 650.7131
1115.137, 651.0393
1115.619, 652.0203
1116.102, 654.7172
1116.584, 656.1244
1117.066, 654.6721
1117.548, 654.2028
1118.030, 656.5212
1118.512, 659.8430
1118.994, 662.4979
1119.476, 664.7545
1119.958, 667.9056
1120.441, 669.1457
1120.923, 675.2328
1121.405, 672.1490
1121.887, 670.5113
1122.369, 672.5856
1122.851, 675.4869
1123.333, 677.2164
1123.815, 678.1658
1124.297, 679.0468
1124.780, 679.7447
1125.262, 681.9542
1125.744, 686.1627
1126.226, 690.3387
1126.708, 694.7859
1127.190, 696.6746
1127.672, 693.6368
1128.154, 689.1995
1128.636, 688.4885
1129.119, 691.1541
1129.601, 694.5970
1130.083, 699.0182
1130.565, 702.0117
1131.047, 703.1881
1131.529, 704.2086
1132.011, 705.7246
1132.493, 707.2570
1132.976, 708.1702
1133.458, 709.0516
1133.940, 712.1592
1134.422, 713.6973
1134.904, 715.8165
1135.386, 719.3049
1135.868, 720.7529
1136.350, 725.0546
1136.833, 729.0411
1137.315, 730.4237
1137.797, 730.6270
1138.279, 731.6616
1138.761, 733.5829
1139.243, 737.2357
1139.725, 741.9906
1140.207, 744.8176
1140.689, 745.5773
1141.172, 746.8054
1141.654, 749.7149
1142.136, 753.5057
1142.618, 757.7855
1143.100, 761.8592
1143.582, 764.1635
1144.064, 767.1566
1144.546, 769.3056
1145.029, 770.8157
1145.511, 772.7082
1145.993, 773.2173
1146.475, 774.4102
1146.957, 777.7742
1147.439, 782.1572
1147.921, 786.6892
1148.403, 791.3832
1148.885, 797.0176
1149.368, 802.3935
1149.850, 804.7440
1150.332, 804.5777
1150.814, 805.6476
1151.296, 809.6459
1151.778, 814.0018
1152.260, 816.6200
1152.742, 819.6896
1153.224, 825.6873
1153.707, 832.1566
1154.189, 836.5597
1154.671, 839.2235
1155.153, 841.0555
1155.635, 842.2289
1156.117, 844.7426
1156.599, 850.3460
1157.081, 855.7870
1157.563, 859.5945
1158.046, 863.4413
1158.528, 868.8030
1159.010, 874.5232
1159.492, 878.9260
1159.974, 882.0867
1160.456, 885.6146
1160.938, 889.7369
1161.420, 894.0126
1161.903, 898.0043
1162.385, 902.7496
1162.867, 909.4543
1163.349, 915.9036
1163.831, 919.8903
1164.313, 925.7261
1164.795, 930.5016
1165.277, 934.4711
1165.760, 939.8860
1166.242, 942.6458
1166.724, 946.9711
1167.206, 953.8535
1167.688, 961.2274
1168.170, 968.1608
1168.652, 974.6453
1169.134, 980.5618
1169.616, 986.7191
1170.099, 991.8515
1170.581, 997.9454
1171.063, 1003.504
1171.545, 1008.486
1172.027, 1014.814
1172.509, 1023.142
1172.991, 1031.975
1173.473, 1040.272
1173.956, 1047.965
1174.438, 1054.494
1174.920, 1060.447
1175.402, 1068.109
1175.884, 1076.822
1176.366, 1083.653
1176.848, 1088.764
1177.330, 1095.246
1177.813, 1104.410
1178.295, 1114.495
1178.777, 1124.318
1179.259, 1133.875
1179.741, 1142.635
1180.223, 1151.486
1180.705, 1162.115
1181.187, 1173.673
1181.669, 1183.953
1182.151, 1192.732
1182.634, 1201.430
1183.116, 1210.387
1183.598, 1220.336
1184.080, 1232.196
1184.562, 1244.559
1185.044, 1257.446
1185.526, 1269.532
1186.008, 1277.854
1186.490, 1284.789
1186.973, 1296.734
1187.455, 1315.048
1187.937, 1331.357
1188.419, 1343.274
1188.901, 1354.278
1189.383, 1363.047
1189.865, 1373.465
1190.347, 1389.059
1190.830, 1405.984
1191.312, 1419.701
1191.794, 1431.121
1192.276, 1444.930
1192.758, 1461.953
1193.240, 1478.722
1193.722, 1495.209
1194.204, 1511.302
1194.687, 1526.668
1195.169, 1542.708
1195.651, 1560.596
1196.133, 1576.863
1196.615, 1596.057
1197.097, 1611.889
1197.579, 1629.237
1198.061, 1648.081
1198.543, 1666.103
1199.026, 1683.186
1199.508, 1700.109
1199.990, 1717.131
1200.472, 1736.134
1200.954, 1758.667
1201.436, 1782.772
1201.918, 1806.137
1202.400, 1828.726
1202.883, 1849.692
1203.365, 1869.970
1203.847, 1891.730
1204.329, 1914.951
1204.811, 1938.444
1205.293, 1961.713
1205.775, 1985.376
1206.257, 2010.253
1206.740, 2035.125
1207.222, 2058.383
1207.704, 2081.949
1208.186, 2107.279
1208.668, 2134.262
1209.150, 2163.390
1209.632, 2194.078
1210.114, 2223.886
1210.596, 2252.026
1211.078, 2279.781
1211.561, 2307.857
1212.043, 2335.323
1212.525, 2359.952
1213.007, 2386.043
1213.489, 2417.476
1213.971, 2451.175
1214.453, 2482.133
1214.935, 2510.504
1215.417, 2539.353
1215.900, 2568.431
1216.382, 2599.061
1216.864, 2631.775
1217.346, 2663.055
1217.828, 2691.691
1218.310, 2719.153
1218.792, 2746.663
1219.274, 2774.647
1219.757, 2804.710
1220.239, 2836.087
1220.721, 2865.756
1221.203, 2893.845
1221.685, 2920.223
1222.167, 2945.212
1222.649, 2970.396
1223.131, 2996.353
1223.614, 3021.613
1224.096, 3044.761
1224.578, 3067.771
1225.060, 3093.889
1225.542, 3120.114
1226.024, 3142.990
1226.506, 3163.193
1226.988, 3181.635
1227.470, 3198.612
1227.953, 3214.179
1228.435, 3228.191
1228.917, 3242.174
1229.399, 3258.674
1229.881, 3272.244
1230.363, 3279.674
1230.845, 3285.427
1231.327, 3292.103
1231.810, 3298.559
1232.292, 3304.051
1232.774, 3308.093
1233.256, 3308.638
1233.738, 3305.352
1234.220, 3299.471
1234.702, 3289.243
1235.184, 3282.745
1235.667, 3282.720
1236.149, 3281.724
1236.631, 3275.981
1237.113, 3267.409
1237.595, 3258.123
1238.077, 3248.031
1238.559, 3236.007
1239.041, 3222.740
1239.523, 3211.893
1240.005, 3203.112
1240.488, 3194.249
1240.970, 3184.866
1241.452, 3175.663
1241.934, 3166.913
1242.416, 3157.971
1242.898, 3146.623
1243.380, 3136.602
1243.862, 3132.357
1244.344, 3130.814
1244.827, 3128.920
1245.309, 3126.841
1245.791, 3125.415
1246.273, 3124.672
1246.755, 3124.054
1247.237, 3123.260
1247.719, 3123.118
1248.201, 3122.715
1248.684, 3124.528
1249.166, 3131.198
1249.648, 3138.081
1250.130, 3141.835
1250.612, 3145.060
1251.094, 3151.244
1251.576, 3160.092
1252.058, 3169.789
1252.541, 3180.574
1253.023, 3189.954
1253.505, 3197.569
1253.987, 3208.492
1254.469, 3223.988
1254.951, 3240.138
1255.433, 3254.759
1255.915, 3267.628
1256.397, 3277.789
1256.880, 3286.998
1257.362, 3298.767
1257.844, 3312.040
1258.326, 3325.691
1258.808, 3338.663
1259.290, 3348.496
1259.772, 3355.507
1260.254, 3363.396
1260.737, 3373.888
1261.219, 3383.325
1261.701, 3388.063
1262.183, 3393.589
1262.665, 3404.122
1263.147, 3414.814
1263.629, 3421.797
1264.111, 3426.944
1264.594, 3434.007
1265.076, 3436.703
1265.558, 3438.790
1266.040, 3441.281
1266.522, 3439.477
1267.004, 3440.563
1267.486, 3440.366
1267.968, 3437.671
1268.450, 3435.919
1268.932, 3437.104
1269.415, 3438.460
1269.897, 3437.020
1270.379, 3433.128
1270.861, 3427.423
1271.343, 3420.031
1271.825, 3409.906
1272.307, 3398.715
1272.789, 3392.500
1273.271, 3390.587
1273.754, 3386.060
1274.236, 3376.328
1274.718, 3365.897
1275.200, 3357.727
1275.682, 3349.872
1276.164, 3341.674
1276.646, 3332.807
1277.128, 3322.715
1277.611, 3312.142
1278.093, 3301.939
1278.575, 3292.026
1279.057, 3282.166
1279.539, 3272.449
1280.021, 3263.427
1280.503, 3254.897
1280.985, 3245.676
1281.468, 3236.296
1281.950, 3227.890
1282.432, 3221.016
1282.914, 3213.677
1283.396, 3204.022
1283.878, 3193.840
1284.360, 3186.812
1284.842, 3180.137
1285.324, 3166.573
##END=



