##NAMES=Pargasite
##RRUFFID=R060072
##IDEAL CHEMISTRY=NaCa_2_(Mg_4_Al)(Si_6_Al_2_)O_22_(OH)_2_
##LOCALITY=Pein Pyit, Mogok, Burma
##OWNER=RRUFF
##SOURCE=Marcus Origlieri
##DESCRIPTION=Pale green prismatic crystal embedded in calcite
##STATUS=The identification of this mineral has been confirmed by X-ray diffraction and chemical analysis
##URL=rruff.info/R060072
##MEASURED CHEMISTRY=(Na_0.81_K_0.19_)_Σ=1_(Ca_1.90_Na_0.10_)_Σ=2_(Mg_3.46_Al_0.45_Fe^2+^_0.05_Ti_0.04_)_Σ=4_Al_1.00_(Si_5.57_Al_2.43_)_Σ=8_O_22_(OH)_2_
150.3615, 0.0000000E+00
150.8436, 54.06563
151.3257, 73.16026
151.8078, 61.19487
152.2899, 88.72237
152.7720, 161.2348
153.2542, 136.0694
153.7363, 69.63983
154.2184, 6.612667
154.7005, 9.017979
155.1826, 9.149448
155.6647, 133.2168
156.1469, 215.8529
156.6290, 204.0399
157.1111, 211.2753
157.5932, 258.3440
158.0753, 344.8381
158.5574, 437.6494
159.0396, 514.2998
159.5217, 578.0404
160.0038, 587.7776
160.4859, 510.1471
160.9680, 417.2618
161.4501, 324.0908
161.9323, 240.4234
162.4144, 172.8632
162.8965, 124.7366
163.3786, 93.59613
163.8607, 143.4388
164.3428, 348.0057
164.8250, 578.6759
165.3071, 716.6776
165.7892, 732.4537
166.2713, 716.6457
166.7534, 772.1994
167.2355, 918.8414
167.7177, 985.2828
168.1998, 910.5001
168.6819, 759.4838
169.1640, 623.5839
169.6461, 520.1965
170.1282, 444.6544
170.6104, 386.9149
171.0925, 343.9039
171.5746, 345.3124
172.0567, 427.9893
172.5388, 566.9349
173.0209, 707.4230
173.5031, 866.5199
173.9852, 951.4794
174.4673, 951.4142
174.9494, 878.2656
175.4315, 786.9735
175.9136, 728.9477
176.3958, 711.3826
176.8779, 733.6376
177.3600, 807.7148
177.8421, 849.0117
178.3242, 801.4666
178.8063, 659.5605
179.2885, 506.7344
179.7706, 499.2987
180.2527, 630.0674
180.7348, 762.1480
181.2169, 938.2719
181.6990, 1071.062
182.1812, 1118.634
182.6633, 1088.624
183.1454, 1024.861
183.6275, 987.3154
184.1096, 1018.221
184.5917, 980.4232
185.0738, 794.9368
185.5560, 604.9033
186.0381, 521.8539
186.5202, 569.3670
187.0023, 679.9424
187.4844, 737.8766
187.9665, 689.2790
188.4487, 671.2900
188.9308, 688.3624
189.4129, 731.4496
189.8950, 806.6764
190.3771, 914.2148
190.8592, 1023.783
191.3414, 1074.272
191.8235, 1051.104
192.3056, 995.3089
192.7877, 887.6847
193.2698, 762.9181
193.7519, 658.4568
194.2341, 575.9501
194.7162, 504.9567
195.1983, 387.9290
195.6804, 187.5860
196.1625, 62.00602
196.6446, 115.1113
197.1268, 277.6832
197.6089, 393.0190
198.0910, 404.9469
198.5731, 351.5768
199.0552, 297.6742
199.5373, 246.0833
200.0195, 181.3826
200.5016, 86.69704
200.9837, 31.89544
201.4658, 23.61995
201.9479, 137.5519
202.4300, 235.1336
202.9122, 267.0922
203.3943, 217.5228
203.8764, 145.7456
204.3585, 83.83057
204.8406, 31.11509
205.3227, 2.730240
205.8048, 3.353619
206.2870, 6.220047
206.7691, 40.77747
207.2512, 49.70705
207.7333, 133.8925
208.2154, 125.1518
208.6975, 13.16774
209.1797, 2.646801
209.6618, 44.65379
210.1439, 3.508629
210.6260, 8.059078
211.1081, 53.57737
211.5902, 14.67255
212.0724, 20.14932
212.5545, 51.42955
213.0366, 15.77685
213.5187, 24.10956
214.0008, 35.61425
214.4829, 104.7112
214.9651, 234.4926
215.4472, 371.7538
215.9293, 435.2589
216.4114, 383.1621
216.8935, 338.6970
217.3756, 303.4249
217.8578, 274.2826
218.3399, 249.7227
218.8220, 229.4945
219.3041, 214.0821
219.7862, 202.0007
220.2683, 177.8904
220.7505, 193.0949
221.2326, 278.4254
221.7147, 380.6320
222.1968, 463.1976
222.6789, 515.3710
223.1610, 543.9789
223.6432, 557.3942
224.1253, 541.8041
224.6074, 538.9746
225.0895, 564.6870
225.5716, 594.1141
226.0537, 604.0375
226.5358, 588.9888
227.0180, 559.8588
227.5001, 531.3981
227.9822, 505.9660
228.4643, 469.6100
228.9464, 400.7053
229.4285, 329.7834
229.9107, 295.4216
230.3928, 307.2914
230.8749, 333.3934
231.3570, 334.8526
231.8391, 311.9664
232.3212, 277.0632
232.8034, 213.3152
233.2855, 146.8162
233.7676, 122.1836
234.2497, 154.5660
234.7318, 187.0087
235.2139, 134.7307
235.6961, 10.67198
236.1782, 76.14085
236.6603, 83.49326
237.1424, 43.05706
237.6245, 2.596268
238.1066, 29.13543
238.5888, 78.01562
239.0709, 187.6132
239.5530, 337.4443
240.0351, 467.2939
240.5172, 572.2718
240.9993, 639.2372
241.4815, 625.5344
241.9636, 496.1942
242.4457, 368.5136
242.9278, 334.1648
243.4099, 362.9600
243.8920, 401.3527
244.3742, 445.7645
244.8563, 483.2271
245.3384, 466.7403
245.8205, 351.0231
246.3026, 286.4663
246.7847, 403.2418
247.2668, 616.6935
247.7490, 796.3062
248.2311, 890.2506
248.7132, 909.2628
249.1953, 874.6554
249.6774, 770.6767
250.1595, 642.9684
250.6417, 482.7340
251.1238, 321.5217
251.6059, 207.5000
252.0880, 175.7620
252.5701, 188.4831
253.0522, 142.8353
253.5344, 7.337677
254.0165, 131.7876
254.4986, 99.31145
254.9807, 85.18178
255.4628, 141.2384
255.9449, 26.99596
256.4271, 149.8408
256.9092, 245.5435
257.3913, 225.5029
257.8734, 184.4375
258.3555, 124.5510
258.8376, 60.21272
259.3198, 9.120911
259.8019, 25.65352
260.2840, 41.28644
260.7661, 29.80948
261.2482, 23.47632
261.7303, 90.52042
262.2125, 166.2293
262.6946, 250.3670
263.1767, 340.7725
263.6588, 436.8892
264.1409, 534.7258
264.6230, 636.1636
265.1052, 783.5001
265.5873, 859.1427
266.0694, 824.0734
266.5515, 741.3268
267.0336, 650.8259
267.5157, 569.8470
267.9979, 506.8784
268.4800, 459.0063
268.9621, 410.4756
269.4442, 401.2952
269.9263, 457.6563
270.4084, 528.5875
270.8906, 599.0019
271.3727, 653.9031
271.8548, 681.3634
272.3369, 665.2559
272.8190, 590.3749
273.3011, 520.0795
273.7833, 460.4789
274.2654, 401.4377
274.7475, 331.8979
275.2296, 255.4689
275.7117, 189.8287
276.1938, 154.9146
276.6760, 158.4141
277.1581, 148.0304
277.6402, 91.73601
278.1223, 54.46054
278.6044, 59.58328
279.0865, 109.4636
279.5686, 207.4766
280.0508, 367.0821
280.5329, 590.7113
281.0150, 711.8012
281.4971, 627.8054
281.9792, 565.1300
282.4613, 648.5250
282.9435, 822.5537
283.4256, 943.9489
283.9077, 914.2597
284.3898, 752.4683
284.8719, 634.5924
285.3540, 557.0214
285.8362, 516.4434
286.3183, 535.2018
286.8004, 587.6549
287.2825, 627.2618
287.7646, 628.5160
288.2467, 606.2708
288.7289, 614.6591
289.2110, 678.3686
289.6931, 740.5555
290.1752, 816.5017
290.6573, 880.8318
291.1394, 893.0927
291.6216, 836.8628
292.1037, 736.1723
292.5858, 635.7885
293.0679, 537.0543
293.5500, 439.9390
294.0321, 323.3121
294.5143, 215.8451
294.9964, 150.0560
295.4785, 133.9395
295.9606, 146.8264
296.4427, 162.0519
296.9248, 173.9136
297.4070, 211.8328
297.8891, 311.4662
298.3712, 416.6419
298.8533, 483.3598
299.3354, 503.0262
299.8175, 481.1254
300.2997, 415.6733
300.7818, 296.5447
301.2639, 195.8802
301.7460, 99.07059
302.2281, 30.81372
302.7102, 14.50751
303.1924, 47.05087
303.6745, 101.0980
304.1566, 160.6988
304.6387, 224.2682
305.1208, 276.3954
305.6029, 315.2525
306.0851, 345.1712
306.5672, 360.3508
307.0493, 366.3856
307.5314, 384.3559
308.0135, 434.1183
308.4956, 498.3813
308.9778, 500.2177
309.4599, 398.5970
309.9420, 297.7376
310.4241, 214.4210
310.9062, 156.0844
311.3883, 149.0146
311.8705, 205.3469
312.3526, 294.0974
312.8347, 316.2724
313.3168, 222.3579
313.7989, 188.8329
314.2810, 300.0479
314.7632, 463.4160
315.2453, 552.8432
315.7274, 532.0329
316.2095, 465.4066
316.6916, 450.5845
317.1737, 519.9150
317.6559, 383.6422
318.1380, 518.5517
318.6201, 597.1531
319.1022, 622.9867
319.5843, 433.5378
320.0664, 522.1112
320.5485, 499.2837
321.0306, 471.9073
321.5128, 599.6600
321.9949, 441.6054
322.4770, 566.9430
322.9591, 659.6924
323.4412, 675.1581
323.9233, 516.6132
324.4055, 622.8730
324.8876, 672.2028
325.3697, 667.6738
325.8518, 447.8647
326.3339, 506.0816
326.8160, 458.3550
327.2982, 405.9284
327.7803, 504.9560
328.2624, 316.7661
328.7445, 412.1708
329.2266, 394.9612
329.7087, 543.8624
330.1909, 660.2702
330.6730, 672.0095
331.1551, 633.3385
331.6372, 620.3370
332.1193, 659.3401
332.6014, 597.3333
333.0836, 744.5135
333.5657, 834.7512
334.0478, 871.1094
334.5299, 692.1848
335.0120, 791.8851
335.4941, 782.0679
335.9763, 765.2138
336.4584, 903.4779
336.9405, 755.9290
337.4226, 893.0867
337.9047, 915.8123
338.3868, 990.3185
338.8690, 952.7347
339.3511, 949.7825
339.8332, 1058.977
340.3153, 1106.091
340.7974, 1055.638
341.2795, 1133.492
341.7617, 982.1316
342.2438, 952.3739
342.7259, 891.9934
343.2080, 866.6683
343.6901, 866.8524
344.1722, 884.1077
344.6544, 912.8680
345.1365, 946.8798
345.6186, 979.7537
346.1007, 1006.590
346.5828, 1030.889
347.0649, 1034.633
347.5471, 1046.884
348.0292, 1112.612
348.5113, 1231.301
348.9934, 1339.731
349.4755, 1356.983
349.9576, 1253.586
350.4398, 1173.243
350.9219, 1101.485
351.4040, 1059.408
351.8861, 1070.296
352.3682, 1122.601
352.8503, 1185.917
353.3325, 1230.180
353.8146, 1258.308
354.2967, 1281.709
354.7788, 1304.180
355.2609, 1315.518
355.7430, 1296.627
356.2252, 1269.024
356.7073, 1274.397
357.1894, 1333.526
357.6715, 1408.303
358.1536, 1400.476
358.6357, 1250.437
359.1179, 1104.748
359.5999, 938.3735
360.0821, 802.4568
360.5642, 758.8605
361.0463, 809.7008
361.5284, 885.0840
362.0105, 862.4373
362.4926, 713.1466
362.9748, 627.3294
363.4569, 680.8187
363.9390, 724.4324
364.4211, 698.5770
364.9032, 614.6740
365.3853, 513.0027
365.8675, 420.5660
366.3496, 338.0432
366.8317, 295.8990
367.3138, 331.1023
367.7959, 360.1842
368.2780, 207.3805
368.7602, 337.0277
369.2423, 409.7309
369.7244, 428.5810
370.2065, 232.1639
370.6886, 313.7802
371.1707, 284.0219
371.6529, 249.7038
372.1350, 370.4998
372.6171, 205.4760
373.0992, 323.8187
373.5813, 329.0513
374.0634, 386.0563
374.5456, 330.9626
375.0277, 310.4967
375.5098, 222.6196
375.9919, 159.8301
376.4740, 142.3771
376.9561, 219.9269
377.4383, 349.0263
377.9204, 431.2690
378.4025, 398.3267
378.8846, 286.9964
379.3667, 194.9497
379.8488, 119.7492
380.3310, 70.53517
380.8131, 48.55765
381.2952, 54.26971
381.7773, 109.4991
382.2594, 235.4025
382.7415, 337.9946
383.2237, 278.7133
383.7058, 58.50630
384.1879, 93.63928
384.6700, 90.90219
385.1521, 31.94510
385.6342, 5.346687
386.1164, 10.31317
386.5985, 18.83126
387.0806, 11.79598
387.5627, 2.389671
388.0448, 7.121719
388.5269, 4.494453
389.0091, 18.77356
389.4912, 93.92726
389.9733, 35.25640
390.4554, 45.20711
390.9375, 91.49837
391.4196, 107.1800
391.9018, 70.48460
392.3839, 8.375389
392.8660, 38.03062
393.3481, 61.35300
393.8302, 199.1105
394.3123, 187.7267
394.7945, 17.90844
395.2766, 7.223320
395.7587, 66.50259
396.2408, 59.59308
396.7229, 108.0101
397.2050, 244.3633
397.6872, 382.7771
398.1693, 423.9236
398.6514, 356.8183
399.1335, 297.4611
399.6156, 265.5393
400.0977, 229.5687
400.5798, 154.2208
401.0620, 49.62073
401.5441, 42.66921
402.0262, 64.17783
402.5083, 38.82292
402.9904, 74.77898
403.4725, 153.9974
403.9547, 321.2398
404.4368, 333.1826
404.9189, 277.8569
405.4010, 276.9658
405.8831, 365.8060
406.3652, 470.7525
406.8474, 479.3521
407.3295, 345.2610
407.8116, 246.2135
408.2937, 207.6781
408.7758, 177.7646
409.2579, 104.8630
409.7401, 10.30151
410.2222, 31.45512
410.7043, 42.80554
411.1864, 215.4514
411.6685, 328.7681
412.1506, 354.5574
412.6328, 349.9830
413.1149, 296.4198
413.5970, 230.2897
414.0791, 197.8156
414.5612, 213.3066
415.0433, 240.0452
415.5255, 216.2168
416.0076, 123.0242
416.4897, 44.49998
416.9718, 18.46868
417.4539, 46.82233
417.9360, 17.98237
418.4182, 9.669586
418.9003, 140.4771
419.3824, 5.634342
419.8645, 94.78296
420.3466, 130.0356
420.8287, 50.00893
421.3109, 47.91544
421.7930, 34.41701
422.2751, 16.34361
422.7572, 153.3715
423.2393, 4.569225
423.7214, 139.1340
424.2036, 160.5824
424.6857, 233.8092
425.1678, 194.9290
425.6499, 190.6869
426.1320, 298.5753
426.6141, 344.3671
427.0963, 292.5804
427.5784, 369.0948
428.0605, 216.3949
428.5426, 203.6001
429.0247, 150.8388
429.5068, 107.8174
429.9890, 123.8328
430.4711, 270.8638
430.9532, 492.7100
431.4353, 607.6487
431.9174, 577.5004
432.3995, 496.3825
432.8817, 370.3752
433.3638, 230.1729
433.8459, 140.1349
434.3280, 119.8094
434.8101, 153.3012
435.2922, 229.6856
435.7744, 365.4878
436.2565, 465.6213
436.7386, 482.7628
437.2207, 495.6305
437.7028, 603.1933
438.1849, 769.6854
438.6671, 841.0602
439.1492, 701.6921
439.6313, 394.8938
440.1134, 179.2435
440.5955, 98.06903
441.0776, 59.15177
441.5598, 63.97552
442.0418, 98.41313
442.5240, 186.8437
443.0061, 327.2036
443.4882, 449.4649
443.9703, 453.7172
444.4524, 308.9597
444.9345, 197.1360
445.4167, 111.9801
445.8988, 68.35530
446.3809, 100.9881
446.8630, 176.3601
447.3451, 232.6370
447.8272, 244.1412
448.3094, 217.1171
448.7915, 158.8040
449.2736, 38.17042
449.7557, 21.05000
450.2378, 88.65022
450.7199, 214.3180
451.2021, 221.7548
451.6842, 98.74627
452.1663, 1.176361
452.6484, 98.67857
453.1305, 346.3984
453.6126, 448.7101
454.0948, 318.1035
454.5769, 169.5202
455.0590, 164.9913
455.5411, 243.2665
456.0232, 302.8306
456.5053, 321.7458
456.9875, 321.4964
457.4696, 305.1136
457.9517, 278.0041
458.4338, 263.9484
458.9159, 267.6968
459.3980, 289.2503
459.8802, 348.6114
460.3623, 454.7384
460.8444, 527.2844
461.3265, 510.6956
461.8086, 486.2400
462.2907, 557.6986
462.7729, 711.2587
463.2550, 829.6553
463.7371, 827.3250
464.2192, 726.1277
464.7013, 652.3290
465.1834, 641.7411
465.6656, 610.5361
466.1477, 506.9793
466.6298, 397.2117
467.1119, 358.2331
467.5940, 406.5649
468.0761, 497.6960
468.5583, 592.3599
469.0404, 683.9855
469.5225, 752.2840
470.0046, 769.7422
470.4867, 780.0204
470.9688, 793.8843
471.4510, 815.2476
471.9331, 840.6187
472.4152, 855.5636
472.8973, 870.8939
473.3794, 914.9347
473.8615, 1011.436
474.3437, 1061.953
474.8258, 1009.332
475.3079, 922.0151
475.7900, 831.4715
476.2721, 751.3450
476.7542, 704.3920
477.2364, 757.7312
477.7185, 846.7733
478.2006, 845.1485
478.6827, 740.8939
479.1648, 625.3030
479.6469, 511.9274
480.1291, 422.9083
480.6112, 398.0440
481.0933, 459.6172
481.5754, 518.6438
482.0575, 551.5109
482.5396, 557.2361
483.0217, 537.6796
483.5038, 483.2831
483.9860, 435.8626
484.4681, 427.1681
484.9502, 464.1226
485.4323, 525.3570
485.9144, 636.5958
486.3965, 734.7831
486.8787, 785.3168
487.3608, 804.1686
487.8429, 822.0010
488.3250, 845.9366
488.8071, 870.2942
489.2892, 881.6490
489.7714, 869.6467
490.2535, 868.2219
490.7356, 868.0925
491.2177, 887.2180
491.6998, 959.4534
492.1819, 1058.513
492.6641, 1110.998
493.1462, 1060.882
493.6283, 954.2751
494.1104, 929.7831
494.5925, 1025.271
495.0746, 1101.590
495.5568, 1119.321
496.0389, 1110.385
496.5210, 1092.234
497.0031, 1067.619
497.4852, 1033.524
497.9673, 990.4340
498.4495, 936.3640
498.9316, 860.0695
499.4137, 754.1418
499.8958, 657.7192
500.3779, 593.2466
500.8600, 553.3961
501.3422, 521.0363
501.8243, 492.8090
502.3064, 477.4819
502.7885, 484.3819
503.2706, 506.3809
503.7527, 538.8692
504.2349, 581.8940
504.7170, 609.6323
505.1991, 596.9944
505.6812, 542.0904
506.1633, 469.5667
506.6454, 350.9230
507.1276, 249.0205
507.6097, 178.4593
508.0918, 144.7413
508.5739, 160.3057
509.0560, 227.7664
509.5381, 291.3577
510.0203, 239.9077
510.5024, 1.748944
510.9845, 64.63033
511.4666, 141.3430
511.9487, 360.2961
512.4308, 437.0517
512.9130, 404.0164
513.3951, 327.6590
513.8772, 223.8073
514.3593, 145.3368
514.8414, 221.3255
515.3235, 481.3984
515.8057, 666.8682
516.2878, 699.6407
516.7699, 652.6853
517.2520, 566.3600
517.7341, 449.7486
518.2162, 364.6417
518.6984, 352.0024
519.1805, 374.6200
519.6626, 383.3386
520.1447, 378.8458
520.6268, 391.9544
521.1089, 442.4611
521.5911, 513.3658
522.0732, 570.2470
522.5553, 624.9482
523.0374, 639.7353
523.5195, 605.4210
524.0016, 531.1924
524.4838, 401.4560
524.9659, 232.4462
525.4480, 77.27454
525.9301, 29.62640
526.4122, 13.98344
526.8943, 5.826767
527.3765, 145.2461
527.8586, 255.5457
528.3407, 154.4475
528.8228, 7.795078
529.3049, 40.41969
529.7870, 17.09061
530.2692, 81.55801
530.7513, 52.81528
531.2334, 42.57512
531.7155, 29.80321
532.1976, 74.55988
532.6797, 140.8642
533.1619, 33.03895
533.6440, 231.0177
534.1261, 328.4668
534.6082, 207.9367
535.0903, 63.85757
535.5724, 11.36610
536.0546, 27.28554
536.5367, 84.95113
537.0188, 187.9389
537.5009, 239.7493
537.9830, 141.4311
538.4651, 50.78350
538.9473, 48.55858
539.4294, 54.12055
539.9115, 24.14140
540.3936, 53.47808
540.8757, 53.67252
541.3578, 101.8177
541.8400, 47.36376
542.3221, 38.82972
542.8042, 53.97888
543.2863, 49.82576
543.7684, 46.03978
544.2505, 32.93122
544.7326, 34.51503
545.2147, 72.76244
545.6968, 23.71675
546.1790, 10.13249
546.6611, 41.08029
547.1432, 72.60739
547.6253, 21.22998
548.1074, 30.87611
548.5895, 45.66565
549.0717, 4.763756
549.5538, 38.08224
550.0359, 28.61320
550.5180, 5.792496
551.0001, 34.52967
551.4822, 52.99567
551.9644, 62.40958
552.4465, 159.0146
552.9286, 238.0385
553.4107, 299.9655
553.8928, 344.1241
554.3749, 378.8735
554.8571, 407.9641
555.3392, 431.3489
555.8213, 474.5594
556.3034, 580.5020
556.7855, 649.8488
557.2676, 625.1154
557.7498, 565.5206
558.2319, 542.5174
558.7140, 571.6527
559.1961, 619.6144
559.6782, 659.7930
560.1603, 693.0168
560.6425, 654.6294
561.1246, 469.3968
561.6067, 324.7723
562.0888, 300.0840
562.5709, 331.2381
563.0530, 347.0161
563.5352, 330.2161
564.0173, 308.6336
564.4994, 307.0971
564.9815, 319.0760
565.4636, 324.9092
565.9457, 322.4135
566.4279, 322.5268
566.9100, 329.2022
567.3921, 345.7212
567.8742, 379.4017
568.3563, 429.8187
568.8384, 478.9019
569.3206, 564.3798
569.8027, 634.9987
570.2848, 601.9619
570.7669, 470.1599
571.2490, 360.7493
571.7311, 386.8864
572.2133, 530.8370
572.6954, 603.9918
573.1775, 551.9603
573.6596, 497.9612
574.1417, 432.6199
574.6238, 389.0145
575.1060, 409.7922
575.5881, 491.4660
576.0702, 576.9272
576.5523, 614.7998
577.0344, 619.8960
577.5165, 656.2443
577.9987, 740.2541
578.4808, 783.6408
578.9629, 719.8738
579.4450, 613.8901
579.9271, 556.2521
580.4092, 552.6022
580.8914, 566.5175
581.3735, 593.7013
581.8556, 625.1376
582.3377, 656.3580
582.8198, 682.3315
583.3019, 685.0891
583.7841, 645.5900
584.2662, 592.8901
584.7483, 588.7004
585.2304, 653.3155
585.7125, 754.6060
586.1946, 986.3846
586.6768, 1159.066
587.1589, 1111.658
587.6410, 917.0622
588.1231, 746.4840
588.6052, 695.4570
589.0873, 721.5528
589.5695, 777.8834
590.0516, 883.3541
590.5337, 946.2367
591.0158, 918.5436
591.4979, 850.9387
591.9800, 806.6514
592.4622, 786.7763
592.9443, 737.7817
593.4264, 589.2494
593.9085, 439.5897
594.3906, 379.3642
594.8727, 380.9574
595.3549, 380.9166
595.8370, 368.3979
596.3191, 356.6162
596.8012, 352.0641
597.2833, 331.3735
597.7654, 360.5429
598.2476, 550.5402
598.7297, 667.0646
599.2118, 563.6278
599.6939, 361.2304
600.1760, 213.8556
600.6581, 168.8726
601.1403, 162.9006
601.6224, 102.8863
602.1045, 5.849304
602.5866, 11.76239
603.0687, 137.5152
603.5508, 277.0965
604.0330, 276.0222
604.5151, 227.1230
604.9972, 266.6917
605.4793, 441.1834
605.9614, 571.3499
606.4435, 549.6843
606.9257, 444.6601
607.4078, 323.0320
607.8899, 199.0425
608.3720, 106.9678
608.8541, 71.49448
609.3362, 83.47101
609.8184, 101.3605
610.3005, 102.0130
610.7826, 135.8505
611.2647, 248.3731
611.7468, 354.7684
612.2289, 390.1616
612.7111, 372.4120
613.1932, 364.3479
613.6753, 406.9698
614.1574, 461.6989
614.6395, 443.3012
615.1216, 343.4801
615.6038, 279.1572
616.0859, 283.9109
616.5680, 310.4756
617.0501, 316.9136
617.5322, 310.2410
618.0143, 317.4732
618.4965, 376.9853
618.9786, 413.1992
619.4607, 340.0214
619.9428, 221.6078
620.4249, 189.4276
620.9070, 272.0714
621.3892, 379.9827
621.8713, 420.2054
622.3534, 394.8024
622.8355, 410.6169
623.3176, 538.4463
623.7997, 617.9933
624.2819, 618.7899
624.7640, 568.2572
625.2461, 457.3488
625.7282, 305.6584
626.2103, 205.4446
626.6924, 257.6833
627.1745, 401.9528
627.6566, 493.5339
628.1387, 531.4429
628.6208, 528.8511
629.1030, 463.7589
629.5851, 392.6972
630.0672, 419.2914
630.5493, 549.1821
631.0314, 634.5104
631.5135, 610.3220
631.9957, 575.2894
632.4778, 597.3585
632.9599, 661.5696
633.4420, 714.2411
633.9241, 732.4284
634.4063, 737.8456
634.8884, 768.6570
635.3705, 831.5520
635.8526, 873.7556
636.3347, 859.5983
636.8168, 875.7507
637.2990, 974.9152
637.7811, 1106.246
638.2632, 1219.666
638.7453, 1306.229
639.2274, 1344.493
639.7095, 1285.582
640.1917, 1181.200
640.6738, 1124.783
641.1559, 1121.958
641.6380, 1139.661
642.1201, 1172.849
642.6022, 1194.198
643.0844, 1132.745
643.5665, 901.8354
644.0486, 773.9243
644.5307, 808.4053
645.0128, 888.0165
645.4949, 968.0278
645.9771, 1040.216
646.4592, 1110.783
646.9413, 1173.262
647.4234, 1218.341
647.9055, 1236.729
648.3876, 1228.800
648.8698, 1227.165
649.3519, 1241.556
649.8340, 1244.843
650.3161, 1222.488
650.7982, 1174.928
651.2803, 1091.401
651.7625, 929.8384
652.2446, 838.8833
652.7267, 933.8301
653.2088, 1092.977
653.6909, 1208.260
654.1730, 1259.497
654.6552, 1226.885
655.1373, 1091.321
655.6194, 899.9088
656.1015, 771.2463
656.5836, 719.7762
657.0657, 696.8910
657.5479, 753.5331
658.0300, 788.0762
658.5121, 733.6025
658.9942, 628.5330
659.4763, 554.0558
659.9584, 543.8580
660.4406, 546.9182
660.9227, 516.1672
661.4048, 463.1103
661.8869, 416.8992
662.3690, 381.3226
662.8511, 349.5500
663.3333, 311.1099
663.8154, 275.4309
664.2975, 282.7475
664.7796, 404.4672
665.2617, 468.8667
665.7438, 434.1149
666.2260, 375.2843
666.7081, 332.1161
667.1902, 309.8028
667.6723, 305.0313
668.1544, 317.1303
668.6365, 342.8225
669.1187, 390.7192
669.6008, 458.7099
670.0829, 467.6941
670.5650, 379.6708
671.0471, 305.9857
671.5292, 356.5763
672.0114, 486.0676
672.4935, 527.3032
672.9756, 417.5646
673.4577, 322.8669
673.9398, 304.0073
674.4219, 313.0636
674.9041, 311.3640
675.3862, 292.3926
675.8683, 257.0556
676.3504, 204.2437
676.8325, 141.9724
677.3146, 81.91327
677.7968, 15.61337
678.2789, 7.068024
678.7610, 17.17917
679.2431, 91.45093
679.7252, 272.6691
680.2073, 492.4896
680.6895, 606.0690
681.1716, 561.3286
681.6537, 464.7373
682.1358, 335.2795
682.6179, 211.2518
683.1000, 161.2479
683.5822, 181.9552
684.0643, 198.5923
684.5464, 160.7528
685.0285, 91.23361
685.5106, 55.72195
685.9927, 63.54614
686.4749, 84.20575
686.9570, 126.4039
687.4391, 173.0938
687.9212, 253.4938
688.4033, 326.0259
688.8854, 305.0182
689.3676, 146.4233
689.8497, 32.05539
690.3318, 148.8685
690.8139, 208.4176
691.2960, 205.9534
691.7781, 143.4746
692.2603, 70.94879
692.7424, 14.54210
693.2245, 24.84824
693.7066, 44.94763
694.1887, 32.06854
694.6708, 24.50781
695.1530, 3.156021
695.6351, 4.027344
696.1172, 50.26241
696.5993, 127.9094
697.0814, 229.3898
697.5635, 355.3445
698.0457, 434.1168
698.5278, 343.7377
699.0099, 149.0203
699.4920, 76.90164
699.9741, 151.5846
700.4562, 214.7247
700.9384, 172.9951
701.4205, 84.03525
701.9026, 67.95480
702.3847, 187.3073
702.8668, 218.9573
703.3489, 50.64693
703.8311, 90.57738
704.3132, 72.39154
704.7953, 38.41382
705.2774, 116.2377
705.7595, 122.0173
706.2416, 112.5026
706.7238, 159.8653
707.2059, 245.5314
707.6880, 261.2811
708.1701, 190.5124
708.6522, 184.4758
709.1343, 325.1298
709.6164, 525.3632
710.0985, 646.4109
710.5806, 678.2566
711.0627, 717.0722
711.5449, 769.0609
712.0270, 824.2698
712.5091, 905.0256
712.9912, 971.8762
713.4733, 949.6438
713.9554, 833.5234
714.4376, 723.7064
714.9197, 738.5429
715.4018, 841.1298
715.8839, 872.2786
716.3660, 829.2393
716.8481, 732.9792
717.3303, 538.0734
717.8124, 371.5153
718.2945, 411.6672
718.7766, 641.4529
719.2587, 808.3452
719.7408, 838.1728
720.2230, 851.8950
720.7051, 912.0931
721.1872, 972.9595
721.6693, 949.3551
722.1514, 845.8098
722.6335, 757.4333
723.1157, 764.6161
723.5978, 821.9365
724.0799, 800.7689
724.5620, 691.3167
725.0441, 597.7357
725.5262, 540.7742
726.0084, 518.3687
726.4905, 521.8653
726.9726, 546.2256
727.4547, 573.4922
727.9368, 604.6179
728.4189, 624.2097
728.9011, 619.2619
729.3832, 617.0565
729.8653, 641.3434
730.3474, 693.0389
730.8295, 779.3387
731.3116, 911.0547
731.7938, 1022.782
732.2759, 966.6122
732.7580, 739.3280
733.2401, 601.2723
733.7222, 591.1172
734.2043, 625.4775
734.6865, 674.6102
735.1686, 727.8781
735.6507, 761.3274
736.1328, 762.5447
736.6149, 784.2293
737.0970, 874.6109
737.5792, 952.5018
738.0613, 928.3871
738.5434, 856.0475
739.0255, 865.5920
739.5076, 995.3647
739.9897, 1118.599
740.4719, 1061.546
740.9540, 855.0652
741.4361, 723.0930
741.9182, 674.7390
742.4003, 658.6439
742.8824, 662.0108
743.3646, 683.5584
743.8467, 720.1926
744.3288, 768.9138
744.8109, 838.7687
745.2930, 1008.914
745.7751, 1112.552
746.2573, 1043.776
746.7394, 889.6180
747.2215, 725.4219
747.7036, 584.7104
748.1857, 515.9427
748.6678, 587.4895
749.1500, 727.4493
749.6321, 769.3586
750.1142, 714.4597
750.5963, 625.0641
751.0784, 498.1632
751.5605, 375.2420
752.0427, 270.6979
752.5248, 197.7298
753.0069, 226.2137
753.4890, 515.8807
753.9711, 650.3186
754.4532, 444.3292
754.9354, 181.9125
755.4175, 49.94339
755.8996, 30.73447
756.3817, 50.20614
756.8638, 80.64096
757.3459, 83.32013
757.8281, 24.61578
758.3102, 39.61973
758.7923, 109.7085
759.2744, 56.60410
759.7565, 3.475136
760.2386, 8.012856
760.7208, 2.480377
761.2029, 71.39049
761.6850, 90.34811
762.1671, 212.8071
762.6492, 314.5317
763.1313, 344.4227
763.6135, 227.6519
764.0956, 68.82850
764.5777, 4.969246
765.0598, 13.60419
765.5419, 12.12024
766.0240, 42.23415
766.5062, 118.1223
766.9883, 168.8478
767.4704, 134.6771
767.9525, 119.1880
768.4346, 148.2868
768.9167, 175.5828
769.3989, 159.2791
769.8810, 106.4853
770.3631, 60.07609
770.8452, 37.62977
771.3273, 9.276119
771.8094, 17.57931
772.2916, 81.80956
772.7737, 114.2548
773.2558, 95.63163
773.7379, 60.34624
774.2200, 14.38283
774.7021, 31.76344
775.1843, 63.45962
775.6664, 27.50359
776.1485, 25.65474
776.6306, 80.08609
777.1127, 58.40191
777.5948, 55.53832
778.0770, 113.1155
778.5591, 194.6068
779.0412, 184.4984
779.5233, 184.6497
780.0054, 187.7322
780.4875, 219.0277
780.9697, 354.6607
781.4518, 469.5534
781.9339, 415.1589
782.4160, 206.0085
782.8981, 30.88311
783.3802, 54.95260
783.8624, 4.018421
784.3445, 0.7691990
784.8266, 34.80280
785.3087, 30.26206
785.7908, 52.73048
786.2729, 181.9762
786.7551, 374.7095
787.2372, 585.6866
787.7193, 733.4262
788.2014, 818.1063
788.6835, 836.8737
789.1656, 779.4628
789.6478, 684.7799
790.1299, 558.3250
790.6120, 421.9888
791.0941, 328.5006
791.5762, 284.9529
792.0583, 289.6422
792.5404, 376.0273
793.0225, 464.4531
793.5046, 490.8319
793.9868, 510.1452
794.4689, 611.8776
794.9510, 811.8382
795.4331, 1010.511
795.9152, 1161.116
796.3973, 1244.635
796.8795, 1213.586
797.3616, 1081.172
797.8437, 785.7637
798.3258, 902.1913
798.8079, 961.6631
799.2900, 967.2407
799.7722, 757.5122
800.2543, 825.7920
800.7364, 782.6503
801.2185, 734.9443
801.7006, 842.3576
802.1827, 663.9503
802.6649, 768.8958
803.1470, 760.7271
803.6291, 804.3207
804.1112, 735.8071
804.5933, 701.9125
805.0754, 780.1519
805.5576, 796.2955
806.0397, 714.8988
806.5218, 886.3033
807.0039, 994.2451
807.4860, 919.2477
807.9681, 783.6826
808.4503, 713.8343
808.9324, 704.4285
809.4145, 722.2849
809.8966, 762.1318
810.3787, 838.1542
810.8608, 975.3440
811.3430, 1112.279
811.8251, 1198.819
812.3072, 1234.681
812.7893, 1236.257
813.2714, 1220.001
813.7535, 1142.974
814.2357, 908.9413
814.7178, 693.9354
815.1999, 632.3621
815.6820, 680.1285
816.1641, 739.6082
816.6462, 777.0206
817.1284, 814.6940
817.6105, 886.2778
818.0926, 956.3448
818.5747, 937.9183
819.0568, 846.3425
819.5389, 801.9407
820.0211, 839.1956
820.5032, 903.5718
820.9853, 934.1008
821.4674, 932.5323
821.9495, 934.7104
822.4316, 953.0839
822.9138, 941.9980
823.3959, 859.1474
823.8780, 766.2670
824.3601, 702.5227
824.8422, 669.6815
825.3243, 680.0562
825.8065, 773.9436
826.2886, 808.0467
826.7707, 612.0848
827.2528, 435.6357
827.7349, 563.5433
828.2170, 881.1357
828.6992, 1114.293
829.1813, 1166.478
829.6634, 1123.748
830.1455, 1047.080
830.6276, 945.9412
831.1097, 859.0661
831.5919, 786.7667
832.0740, 757.8730
832.5561, 795.0598
833.0382, 796.2399
833.5203, 641.4418
834.0024, 364.6787
834.4846, 233.3212
834.9667, 331.9154
835.4488, 452.0959
835.9309, 626.6876
836.4130, 775.3094
836.8951, 860.4145
837.3773, 893.0028
837.8594, 887.6683
838.3415, 842.8016
838.8236, 804.1210
839.3057, 823.0179
839.7878, 836.4449
840.2700, 778.0272
840.7521, 664.7666
841.2342, 538.2722
841.7163, 422.8784
842.1984, 306.6251
842.6805, 179.8511
843.1627, 55.60345
843.6448, 46.85633
844.1269, 50.05308
844.6090, 50.61993
845.0911, 28.02666
845.5732, 98.28576
846.0554, 216.3632
846.5375, 318.2372
847.0196, 384.3450
847.5017, 441.2181
847.9838, 392.3877
848.4659, 85.42637
848.9481, 16.32622
849.4302, 45.10215
849.9123, 21.46654
850.3944, 59.53500
850.8765, 16.59216
851.3586, 25.18021
851.8408, 190.1387
852.3229, 444.2039
852.8050, 598.0341
853.2871, 679.5510
853.7692, 738.3328
854.2513, 777.4890
854.7335, 752.0347
855.2156, 625.2520
855.6977, 480.4530
856.1798, 513.4033
856.6619, 714.4312
857.1440, 760.4895
857.6262, 613.3912
858.1083, 425.5580
858.5904, 234.0109
859.0725, 87.72308
859.5546, 74.03699
860.0367, 210.8382
860.5189, 284.4042
861.0010, 197.6879
861.4831, 183.2051
861.9652, 347.8621
862.4473, 541.5338
862.9294, 683.9705
863.4116, 758.2966
863.8937, 740.6217
864.3758, 606.4146
864.8579, 440.0178
865.3400, 255.7490
865.8221, 94.74001
866.3043, 4.146797
866.7864, 22.36487
867.2685, 6.392700
867.7506, 43.69662
868.2327, 132.3469
868.7148, 275.7302
869.1970, 452.7307
869.6791, 601.3193
870.1612, 720.5157
870.6433, 802.3979
871.1254, 845.2473
871.6075, 849.0334
872.0897, 814.3802
872.5718, 739.3191
873.0539, 611.7567
873.5360, 367.6897
874.0181, 218.1840
874.5002, 207.8017
874.9823, 245.2303
875.4644, 343.2275
875.9465, 450.3412
876.4286, 508.5545
876.9108, 514.7294
877.3929, 509.3247
877.8750, 514.9241
878.3571, 503.3633
878.8392, 436.1294
879.3214, 358.2841
879.8035, 331.6246
880.2856, 348.5953
880.7677, 360.3479
881.2498, 343.6171
881.7319, 301.7290
882.2141, 184.1208
882.6962, 52.49494
883.1783, 149.7423
883.6604, 456.2491
884.1425, 646.9999
884.6246, 595.4213
885.1068, 504.8407
885.5889, 608.3362
886.0710, 873.1737
886.5531, 1044.385
887.0352, 1112.055
887.5173, 1114.249
887.9995, 1061.363
888.4816, 934.2884
888.9637, 627.6334
889.4458, 265.1797
889.9279, 112.6638
890.4100, 232.0821
890.8922, 324.1927
891.3743, 293.7517
891.8564, 288.8725
892.3385, 415.4756
892.8206, 578.6706
893.3027, 664.9148
893.7849, 672.0947
894.2670, 676.3818
894.7491, 730.7764
895.2312, 762.8875
895.7133, 694.1371
896.1954, 565.4944
896.6776, 431.1771
897.1597, 302.5612
897.6418, 182.4741
898.1239, 73.69752
898.6060, 3.830643
899.0881, 14.06621
899.5703, 27.75320
900.0524, 43.32601
900.5345, 33.09875
901.0166, 27.89880
901.4987, 30.52028
901.9808, 101.0530
902.4630, 75.27552
902.9451, 270.8539
903.4272, 415.4101
903.9093, 244.9489
904.3914, 120.5797
904.8735, 75.36508
905.3557, 35.07061
905.8378, 35.10052
906.3199, 56.29449
906.8020, 1.187538
907.2841, 23.00125
907.7662, 31.06181
908.2484, 40.92219
908.7305, 11.84243
909.2126, 37.79190
909.6947, 112.0516
910.1768, 183.9399
910.6589, 205.6697
911.1411, 275.0069
911.6232, 429.9981
912.1053, 570.7060
912.5874, 604.6617
913.0695, 574.7404
913.5516, 552.6607
914.0338, 524.0006
914.5159, 420.0884
914.9980, 234.3147
915.4801, 60.46071
915.9622, 27.48677
916.4443, 44.00340
916.9265, 11.09235
917.4086, 64.38750
917.8907, 243.0832
918.3728, 562.2134
918.8549, 790.4971
919.3370, 808.9182
919.8192, 721.8680
920.3013, 663.6741
920.7834, 634.5551
921.2655, 638.8397
921.7476, 777.6838
922.2297, 780.3768
922.7119, 438.2421
923.1940, 109.2181
923.6761, 16.42461
924.1582, 81.74345
924.6403, 130.8054
925.1224, 150.8058
925.6046, 158.5128
926.0867, 107.1852
926.5688, 105.0927
927.0509, 219.6644
927.5330, 394.6698
928.0151, 608.8435
928.4973, 822.6538
928.9794, 919.5076
929.4615, 807.8104
929.9436, 658.5474
930.4257, 631.8427
930.9078, 653.4628
931.3900, 599.0477
931.8721, 490.8633
932.3542, 441.0033
932.8363, 482.0144
933.3184, 512.4752
933.8005, 406.0571
934.2827, 248.6876
934.7648, 289.6367
935.2469, 503.8701
935.7290, 645.8005
936.2111, 666.5115
936.6932, 661.8032
937.1754, 694.9182
937.6575, 722.8724
938.1396, 648.5096
938.6217, 453.5639
939.1038, 402.1606
939.5859, 567.8309
940.0681, 674.8557
940.5502, 615.1259
941.0323, 531.5520
941.5144, 551.7799
941.9965, 638.2859
942.4786, 679.6305
942.9608, 620.3298
943.4429, 632.0706
943.9250, 825.0723
944.4071, 969.1315
944.8892, 955.0452
945.3713, 750.6722
945.8535, 887.5292
946.3356, 967.4283
946.8177, 993.4350
947.2998, 804.1404
947.7819, 892.8505
948.2640, 870.1414
948.7462, 842.8616
949.2283, 970.6850
949.7104, 812.6813
950.1925, 938.0367
950.6746, 950.2743
951.1567, 1014.276
951.6389, 966.1740
952.1210, 952.6894
952.6031, 1055.374
953.0852, 1079.037
953.5673, 1095.883
954.0494, 1115.880
954.5316, 1117.623
955.0137, 1089.612
955.4958, 1037.363
955.9779, 960.5624
956.4600, 864.8683
956.9421, 770.2870
957.4242, 679.5526
957.9063, 634.4699
958.3884, 644.0557
958.8705, 718.8943
959.3527, 878.6102
959.8348, 1085.399
960.3169, 1251.807
960.7990, 1399.204
961.2811, 1368.161
961.7632, 1080.225
962.2454, 831.8010
962.7275, 765.3431
963.2096, 739.5706
963.6917, 588.3320
964.1738, 326.5536
964.6559, 119.8999
965.1381, 41.77046
965.6202, 10.86589
966.1023, 20.80754
966.5844, 63.72870
967.0665, 44.25506
967.5486, 179.1305
968.0308, 320.2698
968.5129, 465.5326
968.9950, 559.2778
969.4771, 586.3965
969.9592, 563.8575
970.4413, 445.2074
970.9235, 323.9932
971.4056, 304.9495
971.8877, 331.8885
972.3698, 263.7793
972.8519, 61.54352
973.3340, 64.09978
973.8162, 37.83362
974.2983, 80.15473
974.7804, 84.55220
975.2625, 273.7857
975.7446, 365.3778
976.2267, 357.6254
976.7089, 301.8724
977.1910, 219.5560
977.6731, 147.4110
978.1552, 159.4215
978.6373, 187.4160
979.1194, 62.17533
979.6016, 47.15943
980.0837, 7.384186
980.5658, 33.60284
981.0479, 69.99910
981.5300, 57.06679
982.0121, 72.74533
982.4943, 143.0070
982.9764, 86.06834
983.4585, 7.332611
983.9406, 87.84113
984.4227, 36.53404
984.9048, 33.14053
985.3870, 98.45570
985.8691, 174.4428
986.3512, 245.9768
986.8333, 260.1986
987.3154, 209.6863
987.7975, 148.0335
988.2797, 63.55287
988.7618, 28.52574
989.2439, 85.63969
989.7260, 180.7383
990.2081, 273.1032
990.6902, 350.6302
991.1724, 281.2607
991.6545, 57.12381
992.1366, 14.06999
992.6187, 19.92156
993.1008, 109.0805
993.5829, 58.18766
994.0651, 20.67442
994.5472, 150.2872
995.0293, 332.5575
995.5114, 399.5005
995.9935, 214.6790
996.4756, 107.2492
996.9578, 222.0707
997.4399, 313.3621
997.9220, 177.0141
998.4041, 43.45624
998.8862, 106.4498
999.3683, 17.78418
999.8505, 135.6448
1000.333, 205.2725
1000.815, 255.3551
1001.297, 288.0642
1001.779, 314.6188
1002.261, 351.4117
1002.743, 388.0773
1003.225, 404.9946
1003.707, 397.7733
1004.190, 367.4134
1004.672, 280.3055
1005.154, 209.1528
1005.636, 234.9031
1006.118, 279.1407
1006.600, 219.9232
1007.082, 93.33347
1007.564, 29.16821
1008.046, 73.83340
1008.529, 159.0791
1009.011, 224.4836
1009.493, 307.5468
1009.975, 488.3313
1010.457, 699.7121
1010.939, 834.9551
1011.421, 877.3411
1011.903, 836.1835
1012.385, 714.9814
1012.868, 569.2602
1013.350, 439.4060
1013.832, 340.3203
1014.314, 329.7877
1014.796, 370.5691
1015.278, 311.7743
1015.760, 155.5129
1016.242, 110.9561
1016.725, 307.3277
1017.207, 588.0265
1017.689, 739.1627
1018.171, 783.6232
1018.653, 774.4149
1019.135, 725.6629
1019.617, 742.4921
1020.099, 844.7459
1020.581, 940.9565
1021.064, 969.5143
1021.546, 948.6468
1022.028, 919.0507
1022.510, 876.0982
1022.992, 725.1363
1023.474, 465.6736
1023.956, 331.2141
1024.438, 384.7931
1024.921, 540.0643
1025.403, 741.5114
1025.885, 939.8062
1026.367, 1000.136
1026.849, 909.9383
1027.331, 893.8709
1027.813, 972.7596
1028.295, 997.9026
1028.777, 915.3932
1029.260, 818.9193
1029.742, 792.4966
1030.224, 797.8278
1030.706, 721.6946
1031.188, 535.4538
1031.670, 385.5553
1032.152, 246.6074
1032.634, 222.8984
1033.116, 381.5226
1033.599, 572.9955
1034.081, 673.7392
1034.563, 712.1911
1035.045, 779.8977
1035.527, 895.5317
1036.009, 977.4355
1036.491, 1024.251
1036.973, 1040.417
1037.456, 1016.312
1037.938, 973.3033
1038.420, 930.6403
1038.902, 880.2789
1039.384, 772.4299
1039.866, 549.9285
1040.348, 430.5695
1040.830, 474.3413
1041.313, 552.4778
1041.795, 665.5533
1042.277, 766.7796
1042.759, 788.0900
1043.241, 760.0470
1043.723, 798.1509
1044.205, 967.1669
1044.687, 1021.236
1045.169, 848.8419
1045.651, 689.5645
1046.134, 591.9487
1046.616, 545.7454
1047.098, 571.5482
1047.580, 637.5287
1048.062, 644.2469
1048.544, 544.1143
1049.026, 557.1445
1049.508, 825.4089
1049.991, 1042.223
1050.473, 1048.529
1050.955, 1005.314
1051.437, 1085.334
1051.919, 1226.151
1052.401, 1221.005
1052.883, 997.1484
1053.365, 840.2510
1053.848, 875.1561
1054.330, 907.5067
1054.812, 879.0500
1055.294, 803.8347
1055.776, 639.5358
1056.258, 461.3815
1056.740, 434.3285
1057.222, 625.6866
1057.704, 765.3020
1058.187, 736.4240
1058.669, 684.8343
1059.151, 598.9390
1059.633, 580.1847
1060.115, 780.8044
1060.597, 1101.212
1061.079, 1309.858
1061.561, 1356.137
1062.043, 1341.782
1062.526, 1311.089
1063.008, 1222.743
1063.490, 982.6232
1063.972, 746.2048
1064.454, 666.1874
1064.936, 698.4061
1065.418, 724.8583
1065.900, 737.1594
1066.383, 733.8560
1066.865, 683.6364
1067.347, 658.5311
1067.829, 729.7281
1068.311, 701.8052
1068.793, 823.6218
1069.275, 888.4912
1069.757, 899.4791
1070.240, 697.0527
1070.722, 771.5199
1071.204, 733.8236
1071.686, 691.5613
1072.168, 809.7916
1072.650, 643.6879
1073.132, 760.9816
1073.614, 765.0095
1074.096, 819.6934
1074.578, 762.8326
1075.061, 740.7266
1075.543, 824.9635
1076.025, 846.6096
1076.507, 923.1385
1076.989, 1084.037
1077.471, 1024.736
1077.953, 852.4368
1078.435, 741.5931
1078.918, 709.7516
1079.400, 662.1623
1079.882, 546.1844
1080.364, 447.6462
1080.846, 419.3079
1081.328, 411.1995
1081.810, 405.0144
1082.292, 399.4310
1082.774, 376.1621
1083.257, 348.5041
1083.739, 383.8635
1084.221, 527.0528
1084.703, 675.2283
1085.185, 843.7960
1085.667, 931.9901
1086.149, 808.1396
1086.631, 613.8687
1087.114, 495.0684
1087.596, 461.8947
1088.078, 485.6443
1088.560, 578.6927
1089.042, 623.0917
1089.524, 497.5063
1090.006, 393.3062
1090.488, 448.4356
1090.970, 555.7072
1091.453, 599.1523
1091.935, 599.3328
1092.417, 629.1555
1092.899, 703.6826
1093.381, 827.6176
1093.863, 1135.133
1094.345, 1322.428
1094.827, 1214.915
1095.309, 957.4636
1095.792, 569.6279
1096.274, 168.8516
1096.756, 38.07953
1097.238, 15.45110
1097.720, 28.05946
1098.202, 33.35243
1098.684, 43.56854
1099.166, 61.12970
1099.649, 103.3109
1100.131, 191.3486
1100.613, 307.1374
1101.095, 445.5833
1101.577, 595.8120
1102.059, 669.4944
1102.541, 595.2249
1103.023, 523.0031
1103.505, 518.3606
1103.988, 486.8751
1104.470, 369.0469
1104.952, 201.4384
1105.434, 14.26315
1105.916, 28.44326
1106.398, 89.42172
1106.880, 58.41234
1107.362, 57.59589
1107.844, 71.34709
1108.327, 320.4686
1108.809, 479.1045
1109.291, 548.2883
1109.773, 458.0041
1110.255, 289.3923
1110.737, 300.3284
1111.219, 602.4213
1111.701, 720.9837
1112.184, 515.0625
1112.666, 274.8138
1113.148, 5.409546
1113.630, 40.02798
1114.112, 96.30133
1114.594, 156.7838
1115.076, 160.2199
1115.558, 99.50040
1116.041, 51.09398
1116.523, 66.37553
1117.005, 2.876335
1117.487, 31.86140
1117.969, 179.8474
1118.451, 321.7131
1118.933, 378.0009
1119.415, 303.1486
1119.897, 112.2497
1120.380, 26.60181
1120.862, 108.8485
1121.344, 90.15863
1121.826, 49.02251
1122.308, 106.3561
1122.790, 94.09177
1123.272, 362.6962
1123.754, 553.3766
1124.236, 662.1321
1124.719, 668.1469
1125.201, 551.1312
1125.683, 442.2719
1126.165, 347.6631
1126.647, 235.8827
1127.129, 83.57174
1127.611, 21.50457
1128.093, 3.083534
1128.576, 65.26622
1129.058, 38.55392
1129.540, 76.53288
1130.022, 100.1515
1130.504, 100.5303
1130.986, 98.04381
1131.468, 80.20610
1131.950, 89.07400
1132.432, 91.41776
1132.915, 1.683319
1133.397, 128.6062
1133.879, 276.6945
1134.361, 413.5601
1134.843, 535.4892
1135.325, 600.2469
1135.807, 604.2712
1136.289, 540.8120
1136.771, 408.8379
1137.254, 247.8806
1137.736, 79.25233
1138.218, 48.60934
1138.700, 4.409164
1139.182, 145.2355
1139.664, 144.9304
1140.146, 38.03252
1140.628, 61.43257
1141.111, 233.6871
1141.593, 335.0054
1142.075, 248.1684
1142.557, 140.1764
1143.039, 233.7170
1143.521, 401.1183
1144.003, 425.2554
1144.485, 359.6438
1144.968, 302.0806
1145.450, 262.0660
1145.932, 212.4903
1146.414, 149.5571
1146.896, 126.5629
1147.378, 196.9923
1147.860, 287.8605
1148.342, 337.2766
1148.824, 361.4594
1149.307, 375.0806
1149.789, 380.1406
1150.271, 373.8579
1150.753, 359.4985
1151.235, 340.8903
1151.717, 306.2520
1152.199, 337.5209
1152.681, 589.7752
1153.163, 799.1398
1153.646, 752.0519
1154.128, 605.3238
1154.610, 495.9490
1155.092, 438.9688
1155.574, 419.3683
1156.056, 434.1125
1156.538, 465.1856
1157.020, 507.1344
1157.503, 564.4278
1157.985, 624.1439
1158.467, 713.6885
1158.949, 861.0153
1159.431, 1038.468
1159.913, 1242.749
1160.395, 1455.578
1160.877, 1543.252
1161.359, 1431.692
1161.842, 1323.133
1162.324, 1190.855
1162.806, 1104.565
1163.288, 1107.996
1163.770, 1116.910
1164.252, 1087.247
1164.734, 1033.914
1165.216, 967.4195
1165.698, 892.3551
1166.181, 885.5116
1166.663, 969.5997
1167.145, 1053.018
1167.627, 1138.188
1168.109, 1162.251
1168.591, 1073.754
1169.073, 996.4943
1169.555, 1096.066
1170.037, 1294.483
1170.520, 1275.214
1171.002, 1044.384
1171.484, 756.7147
1171.966, 928.0871
1172.448, 1042.521
1172.930, 1103.070
1173.412, 948.3145
1173.894, 1071.582
1174.377, 1083.512
1174.859, 1090.574
1175.341, 1250.606
1175.823, 1127.192
1176.305, 1301.496
1176.787, 1313.160
1177.269, 1258.436
1177.751, 1268.949
1178.234, 1377.968
1178.716, 1422.458
1179.198, 1240.192
1179.680, 1049.176
1180.162, 1137.199
1180.644, 1326.625
1181.126, 1364.944
1181.608, 1309.010
1182.090, 1269.768
1182.573, 1281.560
1183.055, 1373.685
1183.537, 1571.052
1184.019, 1739.251
1184.501, 1827.364
1184.983, 1838.468
1185.465, 1724.621
1185.947, 1581.463
1186.429, 1468.446
1186.912, 1389.685
1187.394, 1344.839
1187.876, 1335.650
1188.358, 1322.547
1188.840, 1241.396
1189.322, 1226.338
1189.804, 1340.030
1190.286, 1465.041
1190.769, 1575.111
1191.251, 1676.171
1191.733, 1780.566
1192.215, 1853.319
1192.697, 1809.335
1193.179, 1625.718
1193.661, 1551.628
1194.143, 1643.016
1194.625, 1622.587
1195.108, 1415.543
1195.590, 1242.839
1196.072, 1213.713
1196.554, 1247.192
1197.036, 1247.722
1197.518, 1223.969
1198.000, 1169.869
1198.482, 1091.632
1198.964, 1131.540
1199.447, 1276.336
1199.929, 1294.739
1200.411, 1155.762
1200.893, 1134.441
1201.375, 1392.756
1201.857, 1692.320
1202.339, 1779.397
1202.821, 1710.317
1203.304, 1509.330
1203.786, 1259.920
1204.268, 1091.603
1204.750, 1013.035
1205.232, 1034.398
1205.714, 1137.029
1206.196, 1209.719
1206.678, 1183.235
1207.161, 1153.263
1207.643, 1208.101
1208.125, 1250.611
1208.607, 1174.093
1209.089, 1084.790
1209.571, 1136.592
1210.053, 1259.485
1210.535, 1251.485
1211.017, 1074.213
1211.500, 966.3398
1211.982, 1004.352
1212.464, 1046.446
1212.946, 1101.444
1213.428, 1115.473
1213.910, 1052.285
1214.392, 951.1669
1214.874, 823.1470
1215.356, 699.3668
1215.839, 685.8408
1216.321, 792.9430
1216.803, 923.9847
1217.285, 1099.936
1217.767, 1164.862
1218.249, 1092.794
1218.731, 791.8246
1219.213, 911.3343
1219.696, 973.8782
1220.178, 982.5709
1220.660, 775.9791
1221.142, 847.4174
1221.624, 807.4639
1222.106, 762.9629
1222.588, 873.5890
1223.070, 698.4338
1223.552, 806.6636
1224.035, 803.5179
1224.517, 850.4659
1224.999, 785.3450
1225.481, 754.8923
1225.963, 836.6205
1226.445, 856.3136
1226.927, 778.2885
1227.409, 828.5755
1227.891, 757.0223
1228.374, 681.6447
1228.856, 506.8979
1229.338, 406.9478
1229.820, 456.5527
1230.302, 444.8538
1230.784, 226.2442
1231.266, 74.29453
1231.748, 88.66693
1232.231, 184.2052
1232.713, 356.3405
1233.195, 537.1286
1233.677, 631.7816
1234.159, 645.3237
1234.641, 606.6716
1235.123, 490.8912
1235.605, 463.9977
1236.088, 558.9082
1236.570, 568.1655
1237.052, 433.4011
1237.534, 241.1311
1238.016, 36.70020
1238.498, 119.5525
1238.980, 114.9590
1239.462, 43.27587
1239.944, 30.61478
1240.427, 83.27575
1240.909, 70.69136
1241.391, 17.28920
1241.873, 3.735497
1242.355, 48.60658
1242.837, 143.3645
1243.319, 299.8781
1243.801, 391.2412
1244.283, 274.6881
1244.766, 114.0315
1245.248, 10.77563
1245.730, 75.13963
1246.212, 14.01180
1246.694, 101.6570
1247.176, 159.6170
1247.658, 147.5401
1248.140, 90.89701
1248.622, 90.20145
1249.105, 40.44020
1249.587, 61.13446
1250.069, 225.2574
1250.551, 257.5552
1251.033, 298.3888
1251.515, 455.8058
1251.997, 634.6358
1252.479, 703.4426
1252.962, 660.3834
1253.444, 464.1626
1253.926, 119.0313
1254.408, 1.380287
1254.890, 149.1319
1255.372, 138.9905
1255.854, 24.82603
1256.336, 89.36716
1256.818, 211.9295
1257.301, 279.4280
1257.783, 277.8628
1258.265, 251.3528
1258.747, 239.7169
1259.229, 254.2221
1259.711, 357.9013
1260.193, 488.7044
1260.675, 520.7896
1261.157, 459.0993
1261.640, 426.2295
1262.122, 472.9457
1262.604, 452.8501
1263.086, 253.5662
1263.568, 156.8405
1264.050, 259.4769
1264.532, 408.9425
1265.014, 551.3472
1265.497, 663.3790
1265.979, 698.6816
1266.461, 665.4108
1266.943, 682.2291
1267.425, 731.2787
1267.907, 742.1711
1268.389, 811.2078
1268.871, 785.7592
1269.354, 644.1300
1269.836, 518.2493
1270.318, 464.5605
1270.800, 350.2238
1271.282, 201.5556
1271.764, 146.8399
1272.246, 201.2897
1272.728, 317.0084
1273.210, 453.1876
1273.693, 585.3589
1274.175, 659.1263
1274.657, 677.5672
1275.139, 637.6797
1275.621, 560.8386
1276.103, 524.1060
1276.585, 549.4031
1277.067, 615.3348
1277.549, 833.2518
1278.032, 942.0817
1278.514, 729.3387
1278.996, 436.7981
1279.478, 261.7715
1279.960, 174.7998
1280.442, 62.88816
1280.924, 3.027481
1281.406, 27.96520
1281.889, 225.8649
1282.371, 409.4264
1282.853, 506.3336
1283.335, 526.6559
1283.817, 344.4517
1284.299, 158.0406
1284.781, 148.6808
1285.263, 116.0204
1285.745, 49.25852
1286.228, 0.0000000E+00
##END=



