##NAMES=Parisite-(Ce)
##RRUFFID=R120065
##IDEAL CHEMISTRY=CaCe_2_(CO_3_)_3_F_2_
##LOCALITY=East Kemptville Tin mine, East Kemptville, Argyle, Yarmouth Co., Nova Scotia, Canada
##OWNER=RRUFF
##SOURCE=Donald Doell
##DESCRIPTION=Pale orange hexagonal prismatic crystals, associated with R120064, anatase
##STATUS=The identification of this mineral is not yet confirmed.
##URL=rruff.info/R120065
169.2243, 6824.023
169.7064, 6943.335
170.1885, 7059.018
170.6707, 7167.791
171.1528, 7261.550
171.6349, 7344.961
172.1170, 7437.465
172.5991, 7559.250
173.0812, 7711.993
173.5634, 7857.667
174.0455, 7987.572
174.5276, 8116.115
175.0097, 8246.000
175.4918, 8378.917
175.9739, 8517.280
176.4561, 8665.370
176.9382, 8830.870
177.4203, 8983.133
177.9024, 9106.926
178.3845, 9230.519
178.8666, 9373.023
179.3488, 9533.649
179.8309, 9696.231
180.3130, 9835.791
180.7951, 9938.894
181.2772, 10047.07
181.7593, 10161.08
182.2415, 10278.58
182.7236, 10402.04
183.2057, 10530.59
183.6878, 10654.13
184.1699, 10756.55
184.6520, 10824.61
185.1342, 10895.44
185.6163, 10975.50
186.0984, 11055.98
186.5805, 11128.40
187.0626, 11190.42
187.5447, 11242.76
188.0269, 11283.42
188.5090, 11309.40
188.9911, 11338.55
189.4732, 11380.52
189.9553, 11427.28
190.4374, 11464.82
190.9196, 11489.55
191.4017, 11503.12
191.8838, 11505.14
192.3659, 11494.65
192.8480, 11487.13
193.3301, 11493.82
193.8123, 11510.15
194.2944, 11518.46
194.7765, 11509.50
195.2586, 11496.67
195.7407, 11496.56
196.2228, 11509.46
196.7050, 11519.20
197.1871, 11519.25
197.6692, 11509.16
198.1513, 11476.79
198.6334, 11401.94
199.1155, 11317.82
199.5977, 11246.69
200.0798, 11189.72
200.5619, 11136.68
201.0440, 11078.52
201.5261, 11014.71
202.0082, 10947.20
202.4904, 10878.27
202.9725, 10803.67
203.4546, 10717.00
203.9367, 10619.13
204.4188, 10519.41
204.9009, 10427.81
205.3831, 10342.32
205.8652, 10272.73
206.3473, 10240.88
206.8294, 10207.59
207.3115, 10143.84
207.7936, 10048.51
208.2758, 9946.601
208.7579, 9875.621
209.2400, 9856.949
209.7221, 9823.229
210.2042, 9767.846
210.6863, 9705.144
211.1685, 9638.279
211.6506, 9570.644
212.1327, 9512.361
212.6148, 9480.146
213.0969, 9499.707
213.5790, 9490.658
214.0612, 9439.131
214.5433, 9370.225
215.0254, 9298.288
215.5075, 9228.438
215.9896, 9164.030
216.4717, 9111.773
216.9539, 9080.850
217.4360, 9039.040
217.9181, 8973.309
218.4002, 8902.590
218.8823, 8845.433
219.3644, 8806.539
219.8466, 8777.129
220.3287, 8747.218
220.8108, 8717.270
221.2929, 8683.380
221.7750, 8634.490
222.2571, 8585.392
222.7393, 8556.803
223.2214, 8554.645
223.7035, 8563.464
224.1856, 8568.839
224.6677, 8571.327
225.1498, 8563.483
225.6320, 8530.254
226.1141, 8488.664
226.5962, 8466.788
227.0783, 8470.692
227.5604, 8490.168
228.0425, 8521.525
228.5247, 8561.620
229.0068, 8598.555
229.4889, 8625.577
229.9710, 8646.155
230.4531, 8669.363
230.9352, 8698.956
231.4174, 8724.507
231.8995, 8731.198
232.3816, 8726.497
232.8637, 8731.607
233.3458, 8770.022
233.8279, 8827.475
234.3101, 8857.297
234.7922, 8851.079
235.2743, 8826.823
235.7564, 8786.730
236.2385, 8738.847
236.7206, 8700.235
237.2028, 8690.049
237.6849, 8697.655
238.1670, 8676.131
238.6491, 8613.456
239.1312, 8536.620
239.6133, 8451.761
240.0955, 8363.199
240.5776, 8276.224
241.0597, 8193.330
241.5418, 8114.950
242.0239, 8045.568
242.5060, 7990.639
242.9882, 7937.657
243.4703, 7884.364
243.9524, 7829.970
244.4345, 7771.396
244.9166, 7704.811
245.3987, 7635.044
245.8809, 7587.341
246.3630, 7582.385
246.8451, 7574.221
247.3272, 7548.956
247.8093, 7516.284
248.2914, 7488.092
248.7736, 7470.474
249.2557, 7463.178
249.7378, 7465.546
250.2199, 7485.797
250.7020, 7506.464
251.1841, 7526.865
251.6663, 7545.838
252.1484, 7559.849
252.6305, 7567.058
253.1126, 7572.499
253.5947, 7592.589
254.0768, 7642.595
254.5590, 7690.016
255.0411, 7730.374
255.5232, 7768.169
256.0053, 7808.159
256.4874, 7852.243
256.9695, 7900.446
257.4517, 7952.763
257.9338, 8022.823
258.4159, 8080.269
258.8980, 8109.457
259.3801, 8132.673
259.8622, 8177.102
260.3444, 8251.659
260.8265, 8339.095
261.3086, 8406.373
261.7907, 8431.186
262.2728, 8471.199
262.7549, 8538.760
263.2371, 8616.347
263.7192, 8689.427
264.2013, 8753.854
264.6834, 8807.663
265.1655, 8845.663
265.6476, 8854.327
266.1298, 8881.055
266.6119, 8945.143
267.0940, 9017.735
267.5761, 9071.215
268.0582, 9100.602
268.5403, 9119.728
269.0225, 9145.537
269.5046, 9181.662
269.9867, 9204.630
270.4688, 9201.325
270.9509, 9192.477
271.4330, 9197.885
271.9152, 9219.322
272.3973, 9241.950
272.8794, 9251.219
273.3615, 9245.773
273.8436, 9242.812
274.3257, 9240.644
274.8079, 9242.361
275.2900, 9251.188
275.7721, 9267.031
276.2542, 9286.744
276.7363, 9310.959
277.2184, 9337.403
277.7006, 9353.393
278.1827, 9351.617
278.6648, 9344.973
279.1469, 9339.622
279.6290, 9336.191
280.1111, 9338.533
280.5933, 9351.883
281.0754, 9372.021
281.5575, 9384.231
282.0396, 9384.911
282.5217, 9382.263
283.0038, 9374.626
283.4860, 9365.168
283.9681, 9373.457
284.4502, 9419.227
284.9323, 9478.818
285.4144, 9500.579
285.8965, 9467.951
286.3787, 9439.539
286.8608, 9450.996
287.3429, 9493.930
287.8250, 9538.282
288.3071, 9574.254
288.7892, 9607.804
289.2714, 9650.553
289.7535, 9704.654
290.2356, 9750.205
290.7177, 9768.571
291.1998, 9771.005
291.6819, 9789.605
292.1641, 9836.342
292.6462, 9891.252
293.1283, 9929.335
293.6104, 9952.889
294.0925, 9983.925
294.5746, 10037.48
295.0568, 10103.23
295.5389, 10161.32
296.0210, 10209.37
296.5031, 10249.85
296.9852, 10281.76
297.4673, 10307.54
297.9495, 10333.33
298.4316, 10357.67
298.9137, 10384.36
299.3958, 10419.11
299.8779, 10462.52
300.3600, 10512.03
300.8422, 10573.83
301.3243, 10639.48
301.8064, 10691.79
302.2885, 10716.85
302.7706, 10737.60
303.2527, 10783.53
303.7349, 10856.66
304.2170, 10928.40
304.6991, 10978.93
305.1812, 11023.72
305.6633, 11084.46
306.1454, 11167.49
306.6276, 11257.08
307.1097, 11345.03
307.5918, 11430.54
308.0739, 11501.04
308.5560, 11543.13
309.0381, 11575.00
309.5203, 11618.61
310.0024, 11675.81
310.4845, 11732.57
310.9666, 11772.64
311.4487, 11801.65
311.9308, 11851.40
312.4130, 11943.74
312.8951, 12034.43
313.3772, 12073.17
313.8593, 12068.46
314.3414, 12075.11
314.8235, 12129.89
315.3057, 12215.75
315.7878, 12291.81
316.2699, 12356.64
316.7520, 12405.92
317.2341, 12428.24
317.7162, 12432.98
318.1984, 12439.26
318.6805, 12447.40
319.1626, 12463.99
319.6447, 12504.97
320.1268, 12575.85
320.6089, 12643.59
321.0911, 12687.71
321.5732, 12717.69
322.0553, 12746.11
322.5374, 12778.89
323.0195, 12805.45
323.5016, 12807.26
323.9838, 12784.03
324.4659, 12774.73
324.9480, 12806.22
325.4301, 12850.89
325.9122, 12876.46
326.3943, 12880.64
326.8765, 12869.83
327.3586, 12841.08
327.8407, 12798.23
328.3228, 12764.68
328.8049, 12751.29
329.2870, 12741.00
329.7692, 12713.02
330.2513, 12669.27
330.7334, 12631.74
331.2155, 12623.23
331.6976, 12627.55
332.1797, 12602.88
332.6619, 12536.82
333.1440, 12464.47
333.6261, 12422.38
334.1082, 12397.18
334.5903, 12355.00
335.0724, 12265.40
335.5546, 12163.95
336.0367, 12103.02
336.5188, 12087.09
337.0009, 12068.13
337.4830, 12014.18
337.9651, 11940.16
338.4473, 11875.82
338.9294, 11831.58
339.4115, 11786.18
339.8936, 11717.85
340.3757, 11630.08
340.8578, 11551.65
341.3400, 11495.37
341.8221, 11451.34
342.3042, 11402.66
342.7863, 11347.70
343.2684, 11295.91
343.7505, 11260.96
344.2327, 11232.26
344.7148, 11181.43
345.1969, 11097.97
345.6790, 11003.61
346.1611, 10917.95
346.6432, 10840.17
347.1254, 10775.98
347.6075, 10728.96
348.0896, 10695.44
348.5717, 10680.15
349.0538, 10684.51
349.5359, 10676.70
350.0181, 10626.20
350.5002, 10542.10
350.9823, 10471.09
351.4644, 10426.39
351.9465, 10386.57
352.4286, 10332.62
352.9108, 10269.04
353.3929, 10217.89
353.8750, 10193.79
354.3571, 10185.23
354.8392, 10162.83
355.3214, 10121.89
355.8035, 10080.31
356.2856, 10042.13
356.7677, 10008.11
357.2498, 9980.791
357.7319, 9961.477
358.2141, 9945.685
358.6962, 9928.265
359.1783, 9910.017
359.6604, 9885.319
360.1425, 9844.395
360.6246, 9802.275
361.1068, 9776.770
361.5889, 9768.060
362.0710, 9757.786
362.5531, 9728.257
363.0352, 9680.104
363.5173, 9648.596
363.9995, 9638.845
364.4816, 9638.622
364.9637, 9646.696
365.4458, 9659.989
365.9279, 9671.779
366.4100, 9678.498
366.8922, 9681.481
367.3743, 9684.835
367.8564, 9686.226
368.3385, 9691.106
368.8206, 9703.860
369.3027, 9718.859
369.7849, 9728.489
370.2670, 9730.828
370.7491, 9731.558
371.2312, 9738.840
371.7133, 9755.900
372.1954, 9769.736
372.6776, 9772.010
373.1597, 9778.121
373.6418, 9801.408
374.1239, 9838.849
374.6060, 9876.272
375.0881, 9903.051
375.5703, 9919.264
376.0524, 9931.311
376.5345, 9941.811
377.0166, 9945.539
377.4987, 9931.448
377.9808, 9912.397
378.4630, 9909.582
378.9451, 9932.908
379.4272, 9969.015
379.9093, 9985.148
380.3914, 9962.472
380.8735, 9950.978
381.3557, 9958.743
381.8378, 9972.580
382.3199, 9983.586
382.8020, 9990.116
383.2841, 9995.234
383.7662, 10003.44
384.2484, 10016.44
384.7305, 10020.37
385.2126, 10007.91
385.6947, 9992.834
386.1768, 9977.333
386.6589, 9962.518
387.1411, 9950.141
387.6232, 9941.985
388.1053, 9935.753
388.5874, 9922.283
389.0695, 9894.838
389.5516, 9873.066
390.0338, 9861.724
390.5159, 9856.929
390.9980, 9858.818
391.4801, 9867.148
391.9622, 9871.755
392.4443, 9857.670
392.9265, 9822.791
393.4086, 9790.758
393.8907, 9773.678
394.3728, 9750.908
394.8549, 9707.984
395.3370, 9648.393
395.8192, 9587.001
396.3013, 9530.939
396.7834, 9480.301
397.2655, 9435.697
397.7476, 9397.096
398.2297, 9364.922
398.7119, 9349.858
399.1940, 9338.104
399.6761, 9310.313
400.1582, 9258.180
400.6403, 9196.447
401.1224, 9136.206
401.6046, 9077.388
402.0867, 9029.355
402.5688, 9004.590
403.0509, 8980.552
403.5330, 8925.972
404.0151, 8840.114
404.4973, 8762.091
404.9794, 8719.798
405.4615, 8693.389
405.9436, 8644.006
406.4257, 8564.673
406.9078, 8486.282
407.3900, 8441.257
407.8721, 8420.875
408.3542, 8377.728
408.8363, 8290.327
409.3184, 8195.953
409.8005, 8115.812
410.2827, 8048.534
410.7648, 7991.951
411.2469, 7947.777
411.7290, 7908.520
412.2111, 7856.687
412.6932, 7789.671
413.1754, 7719.407
413.6575, 7639.546
414.1396, 7561.925
414.6217, 7503.768
415.1038, 7466.226
415.5859, 7428.268
416.0681, 7368.158
416.5502, 7283.277
417.0323, 7203.736
417.5144, 7128.753
417.9965, 7058.890
418.4786, 6992.401
418.9608, 6931.531
419.4429, 6883.051
419.9250, 6851.360
420.4071, 6826.871
420.8892, 6782.280
421.3713, 6699.431
421.8535, 6623.474
422.3356, 6555.467
422.8177, 6494.177
423.2998, 6439.061
423.7819, 6389.742
424.2640, 6347.254
424.7462, 6315.973
425.2283, 6297.785
425.7104, 6260.333
426.1925, 6180.345
426.6746, 6105.523
427.1567, 6052.500
427.6389, 6012.750
428.1210, 5972.329
428.6031, 5924.150
429.0852, 5873.428
429.5673, 5832.917
430.0494, 5807.201
430.5316, 5774.970
431.0137, 5724.404
431.4958, 5670.464
431.9779, 5619.145
432.4600, 5572.094
432.9421, 5535.178
433.4243, 5519.415
433.9064, 5518.936
434.3885, 5509.380
434.8706, 5491.224
435.3527, 5459.962
435.8348, 5399.515
436.3170, 5326.076
436.7991, 5266.334
437.2812, 5228.758
437.7633, 5204.401
438.2454, 5190.947
438.7275, 5186.085
439.2097, 5174.056
439.6918, 5148.952
440.1739, 5115.138
440.6560, 5074.694
441.1381, 5025.411
441.6202, 4989.289
442.1024, 4985.888
442.5845, 4991.523
443.0666, 4976.235
443.5487, 4938.459
444.0308, 4901.062
444.5129, 4882.015
444.9951, 4879.091
445.4772, 4869.054
445.9593, 4848.594
446.4414, 4826.159
446.9235, 4800.987
447.4056, 4776.398
447.8878, 4759.480
448.3699, 4752.381
448.8520, 4746.142
449.3341, 4725.271
449.8162, 4678.121
450.2983, 4650.475
450.7805, 4661.930
451.2626, 4671.849
451.7447, 4652.102
452.2268, 4612.192
452.7089, 4582.288
453.1910, 4584.343
453.6732, 4608.576
454.1553, 4613.337
454.6374, 4587.670
455.1195, 4560.162
455.6016, 4531.749
456.0837, 4506.080
456.5659, 4487.436
457.0480, 4475.989
457.5301, 4467.176
458.0122, 4458.101
458.4943, 4448.613
458.9764, 4431.936
459.4586, 4401.316
459.9407, 4373.418
460.4228, 4358.273
460.9049, 4351.252
461.3870, 4344.319
461.8691, 4334.715
462.3513, 4324.026
462.8334, 4315.752
463.3155, 4309.616
463.7976, 4297.870
464.2797, 4276.375
464.7618, 4250.170
465.2440, 4222.477
465.7261, 4192.701
466.2082, 4173.688
466.6903, 4174.652
467.1724, 4185.948
467.6545, 4201.824
468.1367, 4220.417
468.6188, 4224.343
469.1009, 4195.945
469.5830, 4144.990
470.0651, 4120.511
470.5472, 4145.865
471.0294, 4164.388
471.5115, 4160.349
471.9936, 4142.210
472.4757, 4115.322
472.9578, 4082.654
473.4399, 4056.327
473.9221, 4053.499
474.4042, 4081.610
474.8863, 4089.552
475.3684, 4060.312
475.8505, 4031.512
476.3326, 4015.250
476.8148, 4009.329
477.2969, 4008.469
477.7790, 4010.141
478.2611, 4015.058
478.7432, 4025.918
479.2253, 4046.220
479.7075, 4062.399
480.1896, 4072.232
480.6717, 4078.114
481.1538, 4081.834
481.6359, 4082.839
482.1180, 4078.262
482.6002, 4061.382
483.0823, 4039.043
483.5644, 4031.966
484.0465, 4043.699
484.5286, 4057.912
485.0107, 4066.606
485.4929, 4074.518
485.9750, 4089.510
486.4571, 4114.679
486.9392, 4134.285
487.4213, 4134.533
487.9034, 4122.925
488.3856, 4114.338
488.8677, 4110.483
489.3498, 4114.682
489.8319, 4133.955
490.3140, 4166.307
490.7961, 4185.450
491.2783, 4182.187
491.7604, 4175.774
492.2425, 4170.792
492.7246, 4169.604
493.2067, 4175.935
493.6888, 4191.022
494.1710, 4214.651
494.6531, 4248.211
495.1352, 4300.469
495.6173, 4333.909
496.0994, 4336.216
496.5815, 4334.561
497.0637, 4340.395
497.5458, 4352.698
498.0279, 4365.502
498.5100, 4374.997
498.9921, 4385.409
499.4742, 4410.542
499.9564, 4461.340
500.4385, 4498.684
500.9206, 4497.494
501.4027, 4496.958
501.8848, 4526.458
502.3669, 4582.340
502.8491, 4634.747
503.3312, 4660.938
503.8133, 4669.401
504.2954, 4681.019
504.7775, 4694.923
505.2596, 4716.104
505.7418, 4749.555
506.2239, 4790.472
506.7060, 4834.082
507.1881, 4882.681
507.6702, 4922.783
508.1523, 4940.546
508.6345, 4947.740
509.1166, 4966.823
509.5987, 5001.245
510.0808, 5031.187
510.5629, 5036.091
511.0450, 5020.005
511.5272, 5030.092
512.0093, 5093.772
512.4914, 5147.423
512.9735, 5164.729
513.4556, 5164.670
513.9377, 5173.301
514.4199, 5197.256
514.9020, 5224.087
515.3841, 5236.160
515.8662, 5229.026
516.3483, 5237.693
516.8304, 5281.359
517.3126, 5320.771
517.7947, 5346.709
518.2768, 5360.884
518.7589, 5363.682
519.2410, 5354.553
519.7231, 5344.845
520.2053, 5353.306
520.6874, 5381.478
521.1695, 5405.367
521.6516, 5423.758
522.1337, 5434.265
522.6158, 5432.549
523.0980, 5422.328
523.5801, 5414.094
524.0622, 5410.121
524.5443, 5411.132
525.0264, 5422.616
525.5085, 5441.907
525.9907, 5451.083
526.4728, 5441.285
526.9549, 5424.797
527.4370, 5420.818
527.9191, 5431.900
528.4012, 5438.245
528.8834, 5439.106
529.3655, 5433.653
529.8476, 5413.900
530.3297, 5386.765
530.8118, 5372.854
531.2939, 5384.178
531.7761, 5409.143
532.2582, 5417.765
532.7403, 5398.292
533.2224, 5383.533
533.7045, 5373.404
534.1866, 5367.917
534.6688, 5370.383
535.1509, 5377.760
535.6330, 5381.069
536.1151, 5371.956
536.5972, 5358.120
537.0793, 5364.961
537.5615, 5401.168
538.0436, 5421.791
538.5257, 5399.383
539.0078, 5367.027
539.4899, 5354.012
539.9720, 5360.557
540.4542, 5368.805
540.9363, 5372.662
541.4184, 5371.911
541.9005, 5360.761
542.3826, 5340.338
542.8647, 5333.080
543.3469, 5354.908
543.8290, 5393.040
544.3111, 5413.957
544.7932, 5411.086
545.2753, 5409.239
545.7574, 5414.352
546.2396, 5420.026
546.7217, 5417.948
547.2038, 5410.141
547.6859, 5406.761
548.1680, 5414.907
548.6501, 5433.206
549.1323, 5456.649
549.6144, 5493.337
550.0965, 5520.572
550.5786, 5530.076
551.0607, 5535.194
551.5428, 5546.166
552.0250, 5562.893
552.5071, 5577.631
552.9892, 5581.165
553.4713, 5579.767
553.9534, 5596.194
554.4355, 5636.064
554.9177, 5664.553
555.3998, 5660.594
555.8819, 5643.048
556.3640, 5638.653
556.8461, 5649.458
557.3282, 5659.177
557.8104, 5657.091
558.2925, 5653.180
558.7746, 5662.403
559.2567, 5683.639
559.7388, 5700.620
560.2209, 5703.105
560.7031, 5695.299
561.1852, 5690.633
561.6673, 5690.487
562.1494, 5691.740
562.6315, 5700.260
563.1136, 5705.566
563.5958, 5692.528
564.0779, 5667.552
564.5600, 5656.501
565.0421, 5681.646
565.5242, 5727.008
566.0063, 5735.265
566.4885, 5691.304
566.9706, 5654.296
567.4527, 5641.591
567.9348, 5638.191
568.4169, 5637.995
568.8990, 5639.232
569.3812, 5635.398
569.8633, 5613.484
570.3454, 5589.618
570.8275, 5593.569
571.3096, 5623.079
571.7917, 5642.261
572.2739, 5633.459
572.7560, 5610.786
573.2381, 5601.447
573.7202, 5612.759
574.2023, 5607.892
574.6844, 5563.939
575.1666, 5519.676
575.6487, 5503.417
576.1308, 5509.335
576.6129, 5517.929
577.0950, 5519.160
577.5771, 5516.015
578.0593, 5517.165
578.5414, 5530.781
579.0235, 5526.141
579.5056, 5485.925
579.9877, 5441.513
580.4698, 5404.567
580.9520, 5374.554
581.4341, 5347.815
581.9162, 5323.549
582.3983, 5300.104
582.8804, 5274.670
583.3625, 5247.550
583.8447, 5222.022
584.3268, 5196.815
584.8089, 5178.308
585.2910, 5180.778
585.7731, 5200.797
586.2552, 5201.515
586.7374, 5159.003
587.2195, 5118.212
587.7016, 5109.727
588.1837, 5117.030
588.6658, 5109.335
589.1479, 5077.826
589.6301, 5038.901
590.1122, 5013.791
590.5943, 5005.283
591.0764, 4983.566
591.5585, 4933.671
592.0406, 4887.574
592.5228, 4852.300
593.0049, 4825.004
593.4870, 4804.375
593.9691, 4789.611
594.4512, 4773.923
594.9333, 4749.055
595.4155, 4717.370
595.8976, 4689.789
596.3797, 4667.678
596.8618, 4646.516
597.3439, 4625.008
597.8260, 4602.192
598.3082, 4576.330
598.7903, 4546.737
599.2724, 4515.945
599.7545, 4484.617
600.2366, 4452.586
600.7188, 4418.231
601.2009, 4382.488
601.6830, 4350.669
602.1651, 4326.681
602.6472, 4308.101
603.1293, 4286.175
603.6115, 4260.993
604.0936, 4231.949
604.5757, 4196.513
605.0578, 4159.965
605.5399, 4124.340
606.0220, 4090.462
606.5042, 4058.959
606.9863, 4030.170
607.4684, 4004.307
607.9505, 3985.906
608.4326, 3974.426
608.9147, 3947.071
609.3969, 3889.665
609.8790, 3829.827
610.3611, 3802.016
610.8432, 3803.027
611.3253, 3795.492
611.8074, 3770.756
612.2896, 3741.563
612.7717, 3713.188
613.2538, 3685.295
613.7359, 3655.779
614.2180, 3624.324
614.7001, 3595.292
615.1823, 3574.305
615.6644, 3561.854
616.1465, 3546.925
616.6286, 3526.371
617.1107, 3507.778
617.5928, 3498.056
618.0750, 3488.390
618.5571, 3468.171
619.0392, 3435.819
619.5213, 3401.989
620.0034, 3373.702
620.4855, 3349.989
620.9677, 3327.480
621.4498, 3305.955
621.9319, 3291.474
622.4140, 3289.073
622.8961, 3293.414
623.3782, 3294.587
623.8604, 3295.628
624.3425, 3284.850
624.8246, 3242.280
625.3067, 3204.054
625.7888, 3204.283
626.2709, 3228.544
626.7531, 3237.144
627.2352, 3210.271
627.7173, 3166.976
628.1994, 3141.845
628.6815, 3137.729
629.1636, 3135.869
629.6458, 3138.033
630.1279, 3138.835
630.6100, 3136.192
631.0921, 3130.390
631.5742, 3121.603
632.0563, 3109.176
632.5385, 3095.907
633.0206, 3082.011
633.5027, 3069.187
633.9848, 3061.295
634.4669, 3058.848
634.9490, 3059.049
635.4312, 3061.027
635.9133, 3063.290
636.3954, 3058.603
636.8775, 3034.863
637.3596, 3020.596
637.8417, 3025.633
638.3239, 3033.173
638.8060, 3031.899
639.2881, 3022.110
639.7702, 3007.564
640.2523, 2987.671
640.7344, 2971.628
641.2166, 2984.502
641.6987, 3028.375
642.1808, 3052.360
642.6629, 3038.365
643.1450, 3015.502
643.6271, 3008.926
644.1093, 3015.028
644.5914, 3022.118
645.0735, 3032.653
645.5556, 3039.237
646.0377, 3034.153
646.5198, 3024.785
647.0020, 3022.968
647.4841, 3030.173
647.9662, 3037.560
648.4483, 3036.564
648.9304, 3029.130
649.4125, 3029.823
649.8947, 3044.985
650.3768, 3056.331
650.8589, 3054.900
651.3410, 3053.355
651.8231, 3064.105
652.3052, 3084.351
652.7874, 3097.549
653.2695, 3090.040
653.7516, 3076.537
654.2337, 3075.419
654.7158, 3084.462
655.1979, 3094.532
655.6801, 3103.706
656.1622, 3108.907
656.6443, 3104.972
657.1264, 3090.949
657.6085, 3086.777
658.0906, 3099.733
658.5728, 3111.965
659.0549, 3117.151
659.5370, 3120.869
660.0191, 3131.281
660.5012, 3148.075
660.9833, 3161.286
661.4655, 3160.645
661.9476, 3151.450
662.4297, 3152.135
662.9118, 3164.709
663.3939, 3170.161
663.8760, 3156.245
664.3582, 3140.490
664.8403, 3148.069
665.3224, 3176.715
665.8045, 3196.528
666.2866, 3197.998
666.7687, 3194.521
667.2509, 3190.622
667.7330, 3187.688
668.2151, 3186.649
668.6972, 3188.107
669.1793, 3194.627
669.6614, 3211.068
670.1436, 3235.921
670.6257, 3245.916
671.1078, 3230.488
671.5899, 3222.116
672.0720, 3240.090
672.5541, 3261.376
673.0363, 3266.843
673.5184, 3256.625
674.0005, 3245.373
674.4826, 3235.213
674.9647, 3230.059
675.4468, 3237.016
675.9290, 3252.309
676.4111, 3265.503
676.8932, 3273.406
677.3753, 3276.015
677.8574, 3272.632
678.3395, 3262.981
678.8217, 3254.438
679.3038, 3238.821
679.7859, 3235.427
680.2680, 3266.142
680.7501, 3297.814
681.2322, 3292.882
681.7144, 3253.318
682.1965, 3220.568
682.6786, 3227.021
683.1607, 3253.094
683.6428, 3269.876
684.1249, 3277.595
684.6071, 3275.935
685.0892, 3262.845
685.5713, 3247.591
686.0534, 3240.908
686.5355, 3243.422
687.0176, 3244.013
687.4998, 3245.161
687.9819, 3241.488
688.4640, 3230.369
688.9461, 3214.600
689.4282, 3193.381
689.9103, 3169.159
690.3925, 3151.545
690.8746, 3150.979
691.3567, 3159.106
691.8388, 3156.617
692.3209, 3143.371
692.8030, 3122.089
693.2852, 3088.585
693.7673, 3056.502
694.2494, 3042.601
694.7315, 3045.407
695.2136, 3040.603
695.6957, 3018.531
696.1779, 2999.325
696.6600, 2996.404
697.1421, 2996.116
697.6242, 2982.214
698.1063, 2953.749
698.5884, 2920.600
699.0706, 2889.164
699.5527, 2860.384
700.0348, 2837.633
700.5169, 2821.921
700.9990, 2806.330
701.4811, 2791.873
701.9633, 2773.828
702.4454, 2744.522
702.9275, 2707.819
703.4096, 2676.169
703.8917, 2654.085
704.3738, 2633.354
704.8560, 2612.351
705.3381, 2589.606
705.8202, 2561.895
706.3023, 2529.944
706.7844, 2499.249
707.2665, 2474.460
707.7487, 2450.649
708.2308, 2411.287
708.7129, 2349.442
709.1950, 2305.823
709.6771, 2298.674
710.1592, 2292.854
710.6414, 2262.795
711.1235, 2218.377
711.6056, 2180.811
712.0877, 2156.753
712.5698, 2132.319
713.0519, 2096.476
713.5341, 2059.533
714.0162, 2037.725
714.4983, 2028.267
714.9804, 2012.232
715.4625, 1978.113
715.9446, 1935.511
716.4268, 1905.375
716.9089, 1890.965
717.3910, 1873.652
717.8731, 1848.580
718.3552, 1826.354
718.8373, 1816.789
719.3195, 1810.948
719.8016, 1795.515
720.2837, 1767.459
720.7658, 1736.166
721.2479, 1701.623
721.7300, 1669.296
722.2122, 1645.614
722.6943, 1629.571
723.1764, 1616.995
723.6585, 1606.127
724.1406, 1595.463
724.6227, 1582.639
725.1049, 1567.278
725.5870, 1553.037
726.0691, 1543.762
726.5512, 1529.341
727.0333, 1499.696
727.5154, 1467.526
727.9976, 1447.188
728.4797, 1439.648
728.9618, 1431.340
729.4439, 1413.181
729.9260, 1394.820
730.4081, 1389.719
730.8903, 1390.861
731.3724, 1377.939
731.8545, 1346.020
732.3366, 1314.172
732.8187, 1303.610
733.3008, 1312.142
733.7830, 1312.424
734.2651, 1299.775
734.7472, 1289.023
735.2293, 1286.556
735.7114, 1284.489
736.1935, 1275.874
736.6757, 1262.350
737.1578, 1252.022
737.6399, 1251.094
738.1220, 1249.166
738.6041, 1237.834
739.0862, 1221.585
739.5684, 1206.419
740.0505, 1193.834
740.5326, 1185.141
741.0147, 1181.817
741.4968, 1181.590
741.9789, 1177.152
742.4611, 1166.971
742.9432, 1158.328
743.4253, 1153.456
743.9074, 1148.285
744.3895, 1138.541
744.8716, 1127.405
745.3538, 1121.654
745.8359, 1124.649
746.3180, 1125.388
746.8001, 1116.741
747.2822, 1105.036
747.7643, 1095.841
748.2465, 1089.551
748.7286, 1085.651
749.2107, 1083.934
749.6928, 1082.601
750.1749, 1078.838
750.6570, 1072.522
751.1392, 1066.147
751.6213, 1059.687
752.1034, 1053.094
752.5855, 1045.095
753.0676, 1037.849
753.5497, 1034.618
754.0319, 1035.562
754.5140, 1035.480
754.9961, 1030.063
755.4782, 1026.468
755.9603, 1033.490
756.4424, 1043.343
756.9246, 1043.105
757.4067, 1030.816
757.8888, 1014.747
758.3709, 1000.721
758.8530, 989.6360
759.3351, 986.2960
759.8173, 992.1302
760.2994, 993.1500
760.7815, 984.4039
761.2636, 973.8446
761.7457, 968.9457
762.2278, 968.1246
762.7100, 963.4039
763.1921, 949.8622
763.6742, 939.8634
764.1563, 939.1381
764.6384, 940.7349
765.1205, 937.5265
765.6027, 931.6989
766.0848, 931.4861
766.5669, 941.0485
767.0490, 951.9397
767.5311, 952.0820
768.0132, 943.3914
768.4954, 936.7850
768.9775, 933.2377
769.4596, 928.0150
769.9417, 916.5375
770.4238, 905.5524
770.9059, 909.1040
771.3881, 934.6279
771.8702, 944.0293
772.3523, 920.8665
772.8344, 901.7461
773.3165, 903.1522
773.7986, 912.9120
774.2808, 917.0895
774.7629, 913.8435
775.2450, 910.1171
775.7271, 910.4956
776.2092, 913.0529
776.6913, 916.8824
777.1735, 920.7155
777.6556, 917.2415
778.1377, 904.4258
778.6198, 893.6650
779.1019, 895.7288
779.5840, 907.3217
780.0662, 911.1240
780.5483, 900.1762
781.0304, 894.6696
781.5125, 901.4961
781.9946, 908.1805
782.4767, 909.8163
782.9589, 906.6806
783.4410, 897.8646
783.9231, 880.8300
784.4052, 870.0443
784.8873, 881.6182
785.3694, 899.2400
785.8516, 900.3563
786.3337, 888.8582
786.8158, 883.9409
787.2979, 893.1597
787.7800, 904.1067
788.2621, 898.4150
788.7443, 877.0109
789.2264, 870.3270
789.7085, 885.1505
790.1906, 895.5995
790.6727, 890.6396
791.1548, 881.7628
791.6370, 881.3323
792.1191, 887.9395
792.6012, 891.6932
793.0833, 890.3323
793.5654, 886.9156
794.0475, 880.2594
794.5297, 873.7161
795.0118, 870.2546
795.4939, 870.2132
795.9760, 874.0132
796.4581, 882.5959
796.9402, 890.3968
797.4224, 886.3290
797.9045, 872.8434
798.3866, 867.2551
798.8687, 871.6685
799.3508, 878.1224
799.8329, 883.6296
800.3151, 887.1251
800.7972, 886.0705
801.2793, 878.5789
801.7614, 873.9861
802.2435, 872.8442
802.7256, 873.6100
803.2078, 877.9415
803.6899, 882.6096
804.1720, 884.0306
804.6541, 882.1727
805.1362, 880.0770
805.6183, 879.7357
806.1005, 879.4628
806.5826, 876.6326
807.0647, 872.7254
807.5468, 870.7625
808.0289, 871.3561
808.5110, 875.2571
808.9932, 883.8090
809.4753, 893.3444
809.9574, 892.6508
810.4395, 877.9623
810.9216, 870.4893
811.4037, 875.7804
811.8859, 880.8584
812.3680, 878.5635
812.8501, 872.4633
813.3322, 866.5228
813.8143, 860.2546
814.2964, 859.0546
814.7786, 870.2345
815.2607, 880.3369
815.7428, 878.4633
816.2249, 872.0366
816.7070, 873.3785
817.1891, 883.4429
817.6713, 891.8805
818.1534, 890.1462
818.6355, 882.9026
819.1176, 878.2029
819.5997, 876.0326
820.0818, 876.7346
820.5640, 880.6016
821.0461, 885.5876
821.5282, 891.0857
822.0103, 895.7042
822.4924, 894.8325
822.9745, 884.1091
823.4567, 877.6096
823.9388, 872.7971
824.4209, 875.0418
824.9030, 896.2831
825.3851, 920.5370
825.8672, 924.5919
826.3494, 905.6553
826.8315, 888.9556
827.3136, 887.1721
827.7957, 891.5530
828.2778, 897.7598
828.7599, 903.8143
829.2421, 904.5062
829.7242, 900.1929
830.2063, 899.8552
830.6884, 911.4711
831.1705, 928.5897
831.6526, 934.1921
832.1348, 927.8301
832.6169, 922.9664
833.0990, 921.0492
833.5811, 921.1512
834.0632, 923.6276
834.5453, 927.0643
835.0275, 927.9968
835.5096, 924.4196
835.9917, 924.4249
836.4738, 931.8591
836.9559, 938.3845
837.4380, 938.6771
837.9202, 937.8539
838.4023, 943.6569
838.8844, 955.5732
839.3665, 963.3652
839.8486, 957.8495
840.3307, 950.4764
840.8129, 952.0795
841.2950, 960.5917
841.7771, 975.4799
842.2592, 994.4971
842.7413, 1006.103
843.2234, 1002.455
843.7056, 990.2204
844.1877, 981.6886
844.6698, 976.7563
845.1519, 978.2914
845.6340, 989.6248
846.1161, 997.8378
846.5983, 994.4052
847.0804, 988.0177
847.5625, 992.0045
848.0446, 1007.143
848.5267, 1018.972
849.0089, 1026.186
849.4910, 1030.947
849.9731, 1030.790
850.4552, 1030.832
850.9373, 1036.877
851.4194, 1047.369
851.9016, 1055.427
852.3837, 1056.972
852.8658, 1059.497
853.3479, 1074.179
853.8300, 1092.567
854.3121, 1096.317
854.7943, 1088.019
855.2764, 1087.789
855.7585, 1104.398
856.2406, 1122.518
856.7227, 1120.018
857.2048, 1099.232
857.6870, 1092.115
858.1691, 1102.495
858.6512, 1111.645
859.1333, 1114.871
859.6154, 1115.459
860.0975, 1112.733
860.5797, 1109.215
861.0618, 1118.736
861.5439, 1154.747
862.0260, 1180.968
862.5081, 1189.196
862.9902, 1191.188
863.4724, 1191.072
863.9545, 1190.634
864.4366, 1192.475
864.9187, 1197.102
865.4008, 1199.788
865.8829, 1194.237
866.3651, 1187.673
866.8472, 1188.067
867.3293, 1194.186
867.8114, 1204.589
868.2935, 1217.996
868.7756, 1228.574
869.2578, 1231.498
869.7399, 1229.762
870.2220, 1229.981
870.7041, 1232.073
871.1862, 1238.689
871.6683, 1251.491
872.1505, 1263.292
872.6326, 1269.456
873.1147, 1273.591
873.5968, 1282.579
874.0789, 1298.344
874.5610, 1308.373
875.0432, 1304.617
875.5253, 1305.871
876.0074, 1325.045
876.4895, 1343.949
876.9716, 1344.937
877.4537, 1331.406
877.9359, 1319.728
878.4180, 1313.945
878.9001, 1314.428
879.3822, 1327.186
879.8643, 1342.125
880.3464, 1344.524
880.8286, 1339.206
881.3107, 1342.810
881.7928, 1360.821
882.2749, 1381.175
882.7570, 1390.233
883.2391, 1391.704
883.7213, 1396.663
884.2034, 1405.016
884.6855, 1416.808
885.1676, 1433.012
885.6497, 1445.292
886.1318, 1446.370
886.6140, 1439.489
887.0961, 1435.197
887.5782, 1432.205
888.0603, 1435.475
888.5424, 1450.976
889.0245, 1464.504
889.5067, 1467.231
889.9888, 1466.898
890.4709, 1473.045
890.9530, 1486.000
891.4351, 1497.378
891.9172, 1504.433
892.3994, 1510.935
892.8815, 1518.495
893.3636, 1526.164
893.8457, 1533.842
894.3278, 1540.712
894.8099, 1543.673
895.2921, 1540.581
895.7742, 1540.512
896.2563, 1555.434
896.7384, 1561.802
897.2205, 1589.871
897.7026, 1596.020
898.1848, 1612.687
898.6669, 1644.480
899.1490, 1672.774
899.6311, 1677.959
900.1132, 1667.343
900.5953, 1670.081
901.0775, 1687.839
901.5596, 1698.855
902.0417, 1697.892
902.5238, 1697.192
903.0059, 1703.353
903.4880, 1715.080
903.9702, 1730.498
904.4523, 1751.251
904.9344, 1768.848
905.4165, 1784.094
905.8986, 1795.098
906.3807, 1796.369
906.8629, 1797.345
907.3450, 1807.495
907.8271, 1824.962
908.3092, 1840.030
908.7913, 1848.966
909.2734, 1858.059
909.7556, 1873.168
910.2377, 1887.093
910.7198, 1890.462
911.2019, 1888.475
911.6840, 1893.489
912.1661, 1908.362
912.6483, 1921.829
913.1304, 1919.721
913.6125, 1938.653
914.0946, 1931.999
914.5767, 1963.893
915.0588, 1986.895
915.5410, 1997.018
916.0231, 1998.301
916.5052, 1992.388
916.9873, 1984.539
917.4694, 1984.755
917.9515, 1993.209
918.4337, 2006.479
918.9158, 2026.240
919.3979, 2042.805
919.8800, 2051.626
920.3621, 2058.474
920.8442, 2069.912
921.3264, 2085.222
921.8085, 2096.293
922.2906, 2099.665
922.7727, 2104.529
923.2548, 2112.142
923.7369, 2120.351
924.2191, 2126.773
924.7012, 2133.778
925.1833, 2146.650
925.6654, 2166.402
926.1475, 2180.764
926.6296, 2186.853
927.1118, 2185.688
927.5939, 2168.670
928.0760, 2151.093
928.5581, 2149.861
929.0402, 2164.006
929.5223, 2184.945
930.0045, 2210.501
930.4866, 2231.350
930.9687, 2235.010
931.4508, 2231.087
931.9329, 2234.073
932.4150, 2242.917
932.8972, 2253.162
933.3793, 2263.005
933.8614, 2269.056
934.3435, 2267.248
934.8256, 2262.032
935.3077, 2264.199
935.7899, 2273.452
936.2720, 2288.898
936.7541, 2311.786
937.2362, 2321.066
937.7183, 2301.849
938.2004, 2278.607
938.6826, 2292.146
939.1647, 2343.916
939.6468, 2362.474
940.1289, 2328.891
940.6110, 2308.612
941.0931, 2322.125
941.5753, 2341.112
942.0574, 2342.293
942.5395, 2334.662
943.0216, 2344.633
943.5037, 2382.250
943.9858, 2406.714
944.4680, 2403.183
944.9501, 2400.155
945.4322, 2408.774
945.9143, 2422.763
946.3964, 2435.939
946.8785, 2447.930
947.3607, 2461.101
947.8428, 2479.167
948.3249, 2492.423
948.8070, 2489.692
949.2891, 2484.802
949.7712, 2489.088
950.2534, 2502.002
950.7355, 2522.211
951.2176, 2548.193
951.6997, 2573.986
952.1818, 2599.206
952.6639, 2616.250
953.1461, 2602.784
953.6282, 2576.066
954.1103, 2583.844
954.5924, 2624.645
955.0745, 2653.910
955.5566, 2649.517
956.0388, 2633.138
956.5209, 2633.754
957.0030, 2648.176
957.4851, 2660.635
957.9672, 2671.214
958.4493, 2681.170
958.9315, 2690.601
959.4136, 2701.697
959.8957, 2716.737
960.3778, 2733.365
960.8599, 2744.531
961.3420, 2747.681
961.8242, 2759.483
962.3063, 2786.032
962.7884, 2805.656
963.2705, 2807.354
963.7526, 2804.415
964.2347, 2809.269
964.7169, 2821.225
965.1990, 2835.419
965.6811, 2856.966
966.1632, 2872.793
966.6453, 2875.021
967.1274, 2880.536
967.6096, 2900.392
968.0917, 2925.264
968.5738, 2944.641
969.0559, 2957.582
969.5380, 2964.416
970.0201, 2958.547
970.5023, 2955.615
970.9844, 2960.887
971.4665, 2971.474
971.9486, 2989.966
972.4307, 3010.453
972.9128, 3020.730
973.3950, 3017.889
973.8771, 3016.537
974.3592, 3026.137
974.8413, 3040.198
975.3234, 3051.589
975.8055, 3064.561
976.2877, 3089.973
976.7698, 3123.777
977.2519, 3148.828
977.7340, 3157.041
978.2161, 3156.833
978.6982, 3150.598
979.1804, 3145.630
979.6625, 3160.284
980.1446, 3188.597
980.6267, 3210.044
981.1088, 3220.366
981.5909, 3226.469
982.0731, 3232.655
982.5552, 3239.808
983.0373, 3249.198
983.5194, 3260.968
984.0015, 3277.791
984.4836, 3299.733
984.9658, 3318.014
985.4479, 3329.958
985.9300, 3335.847
986.4121, 3333.905
986.8942, 3329.244
987.3763, 3343.222
987.8585, 3380.571
988.3406, 3404.384
988.8227, 3408.992
989.3048, 3413.400
989.7869, 3425.867
990.2690, 3440.303
990.7512, 3449.029
991.2333, 3452.680
991.7154, 3459.268
992.1975, 3470.892
992.6796, 3480.742
993.1617, 3483.284
993.6439, 3491.146
994.1260, 3519.455
994.6081, 3551.289
995.0902, 3556.993
995.5723, 3535.021
996.0544, 3533.628
996.5366, 3574.669
997.0187, 3607.664
997.5008, 3617.688
997.9829, 3624.444
998.4650, 3638.352
998.9471, 3658.048
999.4293, 3682.966
999.9114, 3713.757
1000.393, 3733.637
1000.876, 3726.535
1001.358, 3722.097
1001.840, 3738.607
1002.322, 3757.993
1002.804, 3760.026
1003.286, 3752.400
1003.768, 3756.438
1004.250, 3778.458
1004.733, 3802.345
1005.215, 3822.344
1005.697, 3837.895
1006.179, 3848.946
1006.661, 3854.943
1007.143, 3848.567
1007.625, 3836.527
1008.107, 3840.944
1008.589, 3872.130
1009.072, 3906.215
1009.554, 3926.761
1010.036, 3936.140
1010.518, 3929.031
1011.000, 3915.864
1011.482, 3921.021
1011.964, 3943.442
1012.446, 3957.957
1012.929, 3950.418
1013.411, 3934.570
1013.893, 3920.620
1014.375, 3913.339
1014.857, 3928.685
1015.339, 3959.415
1015.821, 3980.018
1016.303, 3985.335
1016.785, 3985.940
1017.268, 3988.517
1017.750, 3993.617
1018.232, 4004.376
1018.714, 4018.468
1019.196, 4027.416
1019.678, 4030.654
1020.160, 4023.203
1020.642, 4003.835
1021.125, 3989.414
1021.607, 3994.049
1022.089, 4010.204
1022.571, 4020.662
1023.053, 4025.927
1023.535, 4033.898
1024.017, 4044.781
1024.499, 4060.948
1024.981, 4083.773
1025.464, 4108.754
1025.946, 4133.385
1026.428, 4154.038
1026.910, 4156.104
1027.392, 4136.542
1027.874, 4127.451
1028.356, 4130.393
1028.838, 4142.280
1029.321, 4164.217
1029.803, 4188.639
1030.285, 4208.839
1030.767, 4225.151
1031.249, 4239.013
1031.731, 4250.196
1032.213, 4258.536
1032.695, 4258.757
1033.177, 4270.995
1033.660, 4309.168
1034.142, 4351.022
1034.624, 4370.532
1035.106, 4373.278
1035.588, 4395.335
1036.070, 4458.909
1036.552, 4486.436
1037.034, 4450.951
1037.516, 4423.570
1037.999, 4434.184
1038.481, 4461.225
1038.963, 4483.334
1039.445, 4501.415
1039.927, 4522.537
1040.409, 4551.784
1040.891, 4575.078
1041.373, 4584.799
1041.855, 4598.150
1042.338, 4624.405
1042.820, 4654.971
1043.302, 4677.075
1043.784, 4693.610
1044.266, 4728.153
1044.748, 4812.264
1045.230, 4862.134
1045.712, 4844.804
1046.195, 4826.869
1046.677, 4824.461
1047.159, 4841.872
1047.641, 4894.755
1048.123, 4975.246
1048.605, 5032.683
1049.087, 5050.807
1049.569, 5065.927
1050.052, 5084.660
1050.534, 5099.477
1051.016, 5092.062
1051.498, 5089.285
1051.980, 5130.592
1052.462, 5208.033
1052.944, 5264.328
1053.426, 5276.156
1053.908, 5293.677
1054.391, 5328.791
1054.873, 5371.218
1055.355, 5422.938
1055.837, 5474.306
1056.319, 5515.587
1056.801, 5546.695
1057.283, 5571.796
1057.765, 5585.955
1058.248, 5607.971
1058.730, 5647.786
1059.212, 5692.018
1059.694, 5737.109
1060.176, 5779.896
1060.658, 5815.981
1061.140, 5846.862
1061.622, 5879.852
1062.104, 5917.133
1062.587, 5955.646
1063.069, 5993.723
1063.551, 6033.098
1064.033, 6074.522
1064.515, 6117.986
1064.997, 6166.445
1065.479, 6216.992
1065.961, 6259.267
1066.443, 6287.388
1066.926, 6317.076
1067.408, 6353.503
1067.890, 6394.632
1068.372, 6443.019
1068.854, 6492.892
1069.336, 6538.441
1069.818, 6579.527
1070.300, 6618.123
1070.782, 6653.995
1071.265, 6692.376
1071.747, 6739.133
1072.229, 6785.299
1072.711, 6826.153
1073.193, 6863.167
1073.675, 6896.397
1074.157, 6927.153
1074.639, 6956.611
1075.122, 6983.772
1075.604, 7020.819
1076.086, 7088.563
1076.568, 7149.783
1077.050, 7166.287
1077.532, 7178.372
1078.014, 7236.348
1078.496, 7324.389
1078.979, 7391.528
1079.461, 7423.615
1079.943, 7458.371
1080.425, 7518.541
1080.907, 7578.620
1081.389, 7622.764
1081.871, 7661.388
1082.353, 7707.012
1082.835, 7754.573
1083.318, 7789.188
1083.800, 7807.717
1084.282, 7829.687
1084.764, 7863.656
1085.246, 7902.979
1085.728, 7944.316
1086.210, 7989.656
1086.692, 8037.971
1087.175, 8092.804
1087.657, 8167.565
1088.139, 8261.413
1088.621, 8333.017
1089.103, 8344.224
1089.585, 8360.400
1090.067, 8416.257
1090.549, 8481.279
1091.031, 8527.959
1091.514, 8569.937
1091.996, 8633.073
1092.478, 8717.900
1092.960, 8797.607
1093.442, 8859.571
1093.924, 8921.854
1094.406, 9001.047
1094.888, 9072.896
1095.370, 9104.563
1095.853, 9130.773
1096.335, 9203.543
1096.817, 9317.085
1097.299, 9414.214
1097.781, 9471.175
1098.263, 9533.728
1098.745, 9626.924
1099.227, 9717.033
1099.709, 9779.039
1100.192, 9834.767
1100.674, 9911.646
1101.156, 10003.27
1101.638, 10081.71
1102.120, 10140.18
1102.602, 10191.22
1103.084, 10227.22
1103.566, 10270.05
1104.049, 10330.37
1104.531, 10399.24
1105.013, 10465.95
1105.495, 10535.86
1105.977, 10623.33
1106.459, 10731.92
1106.941, 10846.96
1107.423, 10979.85
1107.906, 11099.83
1108.388, 11193.82
1108.870, 11276.92
1109.352, 11355.93
1109.834, 11431.79
1110.316, 11499.82
1110.798, 11559.17
1111.280, 11641.10
1111.762, 11781.70
1112.245, 11894.93
1112.727, 11945.56
1113.209, 11995.81
1113.691, 12075.08
1114.173, 12170.69
1114.655, 12267.59
1115.137, 12365.66
1115.619, 12471.07
1116.102, 12606.02
1116.584, 12706.91
1117.066, 12731.08
1117.548, 12783.58
1118.030, 12919.92
1118.512, 13079.29
1118.994, 13209.11
1119.476, 13313.76
1119.958, 13410.64
1120.441, 13499.21
1120.923, 13581.28
1121.405, 13652.51
1121.887, 13725.24
1122.369, 13796.49
1122.851, 13881.88
1123.333, 14000.66
1123.815, 14133.56
1124.297, 14235.05
1124.780, 14343.66
1125.262, 14450.15
1125.744, 14528.85
1126.226, 14639.98
1126.708, 14707.76
1127.190, 14781.28
1127.672, 14888.74
1128.154, 15014.17
1128.636, 15137.28
1129.119, 15256.58
1129.601, 15354.36
1130.083, 15428.12
1130.565, 15514.46
1131.047, 15618.09
1131.529, 15717.59
1132.011, 15801.46
1132.493, 15896.42
1132.976, 16032.30
1133.458, 16194.11
1133.940, 16340.83
1134.422, 16473.44
1134.904, 16605.82
1135.386, 16736.97
1135.868, 16826.22
1136.350, 16864.10
1136.833, 16927.81
1137.315, 17074.99
1137.797, 17262.87
1138.279, 17428.84
1138.761, 17573.53
1139.243, 17684.72
1139.725, 17774.73
1140.207, 17897.83
1140.689, 18059.52
1141.172, 18227.41
1141.654, 18386.61
1142.136, 18549.77
1142.618, 18734.04
1143.100, 18899.64
1143.582, 19095.01
1144.064, 19254.62
1144.546, 19430.21
1145.029, 19618.19
1145.511, 19793.50
1145.993, 19953.15
1146.475, 20131.24
1146.957, 20359.35
1147.439, 20593.59
1147.921, 20784.38
1148.403, 20962.47
1148.885, 21157.15
1149.368, 21368.13
1149.850, 21591.98
1150.332, 21825.72
1150.814, 22067.19
1151.296, 22312.65
1151.778, 22572.05
1152.260, 22867.65
1152.742, 23157.90
1153.224, 23390.60
1153.707, 23626.19
1154.189, 23946.93
1154.671, 24320.36
1155.153, 24654.97
1155.635, 24933.05
1156.117, 25234.35
1156.599, 25603.72
1157.081, 25972.19
1157.563, 26287.30
1158.046, 26629.02
1158.528, 27065.47
1159.010, 27544.36
1159.492, 28002.62
1159.974, 28436.11
1160.456, 28866.78
1160.938, 29270.00
1161.420, 29720.59
1161.903, 30230.79
1162.385, 30773.84
1162.867, 31367.84
1163.349, 31962.79
1163.831, 32510.21
1164.313, 33036.32
1164.795, 33594.07
1165.277, 34182.09
1165.760, 34836.02
1166.242, 35579.60
1166.724, 36311.05
1167.206, 36999.57
1167.688, 37710.45
1168.170, 38471.45
1168.652, 39279.29
1169.134, 40129.87
1169.616, 41016.80
1170.099, 41889.70
1170.581, 42749.03
1171.063, 43706.43
1171.545, 44772.60
1172.027, 45865.02
1172.509, 46967.23
1172.991, 48109.94
1173.473, 49318.55
1173.956, 50586.67
1174.438, 51898.32
1174.920, 53263.24
1175.402, 54705.16
1175.884, 56213.47
1176.366, 57717.43
1176.848, 59240.13
1177.330, 60924.57
1177.813, 62832.48
1178.295, 64825.87
1178.777, 66765.29
1179.259, 68995.23
1179.741, 71114.43
1180.223, 73609.55
1180.705, 76071.40
1181.187, 78560.83
1181.669, 81169.09
1182.151, 83926.05
1182.634, 86875.21
1183.116, 90035.79
1183.598, 93340.23
1184.080, 96732.22
1184.562, 100254.1
1185.044, 103878.2
1185.526, 107686.2
1186.008, 111825.4
1186.490, 116215.9
1186.973, 120670.3
1187.455, 125134.7
1187.937, 129786.2
1188.419, 134692.5
1188.901, 139774.3
1189.383, 145055.7
1189.865, 150495.3
1190.347, 156059.0
1190.830, 161754.7
1191.312, 167637.0
1191.794, 173660.3
1192.276, 179631.3
1192.758, 185513.5
1193.240, 191520.6
1193.722, 197652.2
1194.204, 203903.7
1194.687, 210356.2
1195.169, 216655.7
1195.651, 222599.7
1196.133, 228301.0
1196.615, 233997.4
1197.097, 239607.2
1197.579, 244750.0
1198.061, 249455.2
1198.543, 253832.6
1199.026, 257886.1
1199.508, 261311.3
1199.990, 264002.5
1200.472, 266374.1
1200.954, 268773.5
1201.436, 270790.4
1201.918, 271827.3
1202.400, 272030.9
1202.883, 271587.4
1203.365, 270589.9
1203.847, 269146.5
1204.329, 267342.7
1204.811, 265339.4
1205.293, 263200.2
1205.775, 260841.0
1206.257, 258118.7
1206.740, 255276.8
1207.222, 252408.7
1207.704, 249582.5
1208.186, 246695.4
1208.668, 243993.7
1209.150, 241814.7
1209.632, 240150.3
1210.114, 238751.4
1210.596, 237569.6
1211.078, 236648.7
1211.561, 235815.1
1212.043, 235480.6
1212.525, 235911.1
1213.007, 236729.7
1213.489, 237655.0
1213.971, 238825.5
1214.453, 240430.3
1214.935, 242468.6
1215.417, 244988.1
1215.900, 248080.2
1216.382, 251291.7
1216.864, 254575.2
1217.346, 258019.3
1217.828, 261684.0
1218.310, 265339.9
1218.792, 268830.0
1219.274, 272303.9
1219.757, 276183.6
1220.239, 280302.4
1220.721, 283920.9
1221.203, 287097.7
1221.685, 290144.9
1222.167, 293037.3
1222.649, 295433.7
1223.131, 297216.6
1223.614, 298453.4
1224.096, 299244.6
1224.578, 299369.6
1225.060, 298575.1
1225.542, 297117.7
1226.024, 294762.4
1226.506, 291840.9
1226.988, 288046.7
1227.470, 283483.2
1227.953, 278433.3
1228.435, 273002.8
1228.917, 267096.1
1229.399, 260470.6
1229.881, 253712.5
1230.363, 246747.5
1230.845, 239925.7
1231.327, 233473.3
1231.810, 227028.0
1232.292, 221019.9
1232.774, 214838.7
1233.256, 208980.6
1233.738, 203423.1
1234.220, 198266.8
1234.702, 193497.4
1235.184, 189272.3
1235.667, 185671.3
1236.149, 182468.3
1236.631, 179555.9
1237.113, 177021.3
1237.595, 174961.3
1238.077, 173360.9
1238.559, 172117.5
1239.041, 171362.0
1239.523, 170921.3
1240.005, 171088.2
1240.488, 171627.4
1240.970, 172535.5
1241.452, 173962.0
1241.934, 175993.0
1242.416, 178540.5
1242.898, 181570.1
1243.380, 185023.4
1243.862, 188808.0
1244.344, 193036.3
1244.827, 197801.2
1245.309, 203155.3
1245.791, 209219.1
1246.273, 215947.7
1246.755, 223085.3
1247.237, 230588.9
1247.719, 238452.6
1248.201, 246636.9
1248.684, 255285.6
1249.166, 264558.9
1249.648, 274145.4
1250.130, 283802.8
1250.612, 293689.6
1251.094, 304136.7
1251.576, 315055.4
1252.058, 325806.0
1252.541, 336456.7
1253.023, 346426.6
1253.505, 355735.0
1253.987, 364579.8
1254.469, 373039.7
1254.951, 380833.6
1255.433, 387822.5
1255.915, 393675.3
1256.397, 398071.5
1256.880, 400948.6
1257.362, 402059.3
1257.844, 401611.8
1258.326, 399986.4
1258.808, 397161.5
1259.290, 392903.0
1259.772, 387272.9
1260.254, 380605.8
1260.737, 373044.1
1261.219, 364532.8
1261.701, 354742.4
1262.183, 344417.0
1262.665, 333568.2
1263.147, 322620.8
1263.629, 311738.0
1264.111, 301012.3
1264.594, 290575.7
1265.076, 280404.0
1265.558, 270275.1
1266.040, 260022.9
1266.522, 250372.4
1267.004, 241342.2
1267.486, 232794.5
1267.968, 224726.3
1268.450, 216951.4
1268.932, 209353.5
1269.415, 202133.6
1269.897, 195465.6
1270.379, 189003.1
1270.861, 182972.3
1271.343, 177328.4
1271.825, 171973.9
1272.307, 167046.6
1272.789, 162428.3
1273.271, 158040.1
1273.754, 153749.1
1274.236, 149479.0
1274.718, 145409.8
1275.200, 141719.2
1275.682, 138203.3
1276.164, 134698.1
1276.646, 131371.8
1277.128, 128379.2
1277.611, 125621.2
1278.093, 123071.7
1278.575, 120652.0
1279.057, 118174.7
1279.539, 115599.0
1280.021, 113306.3
1280.503, 111337.2
1280.985, 109482.8
1281.468, 107775.4
1281.950, 106130.9
1282.432, 104511.3
1282.914, 102966.8
1283.396, 101528.3
1283.878, 100210.5
1284.360, 99057.23
1284.842, 97973.08
1285.324, 96717.47
##END=



