##NAMES=Parisite-(Ce)
##RRUFFID=R120061
##IDEAL CHEMISTRY=CaCe_2_(CO_3_)_3_F_2_
##LOCALITY=Snowbird mine, Fish Creek, Alberton, Mineral County, Montana, USA
##OWNER=RRUFF
##SOURCE=Donald Doell
##DESCRIPTION=Brown hexagonal prismatic crystals, associated with white quartz
##STATUS=The identification of this mineral has been confirmed by single-crystal X-ray diffraction.
##URL=rruff.info/R120061
94.01410, 0.0000000E+00
94.49622, 3.838867
94.97833, 14.07422
95.46045, 96.06738
95.94257, 239.0352
96.42468, 331.5771
96.90680, 340.0986
97.38892, 365.9414
97.87103, 433.4180
98.35315, 515.4941
98.83527, 573.6240
99.31738, 603.2051
99.79950, 585.4844
100.2816, 604.7100
100.7637, 664.8711
101.2458, 740.0820
101.7280, 813.3184
102.2101, 884.6582
102.6922, 954.7432
103.1743, 1023.729
103.6564, 1080.749
104.1385, 1160.783
104.6207, 1309.189
105.1028, 1506.434
105.5849, 1649.659
106.0670, 1687.292
106.5491, 1692.930
107.0313, 1721.825
107.5134, 1783.718
107.9955, 1868.075
108.4776, 1959.762
108.9597, 2063.346
109.4418, 2169.710
109.9240, 2270.062
110.4061, 2346.344
110.8882, 2396.517
111.3703, 2441.992
111.8524, 2499.218
112.3345, 2571.302
112.8167, 2651.572
113.2988, 2726.854
113.7809, 2815.648
114.2630, 2924.015
114.7451, 3014.826
115.2272, 3074.497
115.7094, 3129.208
116.1915, 3230.024
116.6736, 3376.099
117.1557, 3468.294
117.6378, 3488.354
118.1199, 3482.334
118.6021, 3472.408
119.0842, 3491.045
119.5663, 3546.694
120.0484, 3530.723
120.5305, 3434.327
121.0126, 3297.739
121.4948, 3150.426
121.9769, 3003.281
122.4590, 2851.770
122.9411, 2692.492
123.4232, 2531.430
123.9053, 2368.770
124.3875, 2187.152
124.8696, 2002.211
125.3517, 1859.543
125.8338, 1782.623
126.3159, 1727.025
126.7980, 1672.000
127.2802, 1613.422
127.7623, 1530.812
128.2444, 1394.869
128.7265, 1196.984
129.2086, 1028.219
129.6907, 904.6230
130.1729, 807.5840
130.6550, 740.0781
131.1371, 698.0059
131.6192, 664.2109
132.1013, 615.2891
132.5834, 552.8145
133.0656, 474.0195
133.5477, 353.8281
134.0298, 234.7168
134.5119, 153.3965
134.9940, 120.5156
135.4761, 116.7363
135.9583, 96.27344
136.4404, 41.64844
136.9225, 10.24609
137.4046, 72.57617
137.8867, 127.3652
138.3688, 147.1895
138.8510, 113.2715
139.3331, 44.56836
139.8152, 4.917969
140.2973, 8.708984
140.7794, 0.2148440
141.2615, 50.98242
141.7437, 132.6719
142.2258, 188.4629
142.7079, 183.1484
143.1900, 134.3516
143.6721, 87.84766
144.1542, 49.76953
144.6364, 8.318359
145.1185, 51.27344
145.6006, 131.7637
146.0827, 213.7129
146.5648, 287.6602
147.0469, 359.3672
147.5291, 436.6875
148.0112, 524.6953
148.4933, 618.1289
148.9754, 703.2656
149.4575, 776.6016
149.9396, 852.5664
150.4218, 921.0352
150.9039, 999.5156
151.3860, 1111.445
151.8681, 1344.410
152.3502, 1624.695
152.8323, 1883.652
153.3145, 2088.156
153.7966, 2303.098
154.2787, 2539.215
154.7608, 2797.723
155.2429, 3077.043
155.7250, 3376.582
156.2072, 3692.734
156.6893, 4070.488
157.1714, 4607.043
157.6535, 5106.207
158.1356, 5464.562
158.6177, 5697.840
159.0999, 5908.492
159.5820, 6191.023
160.0641, 6563.312
160.5462, 6907.902
161.0283, 7161.535
161.5104, 7427.492
161.9926, 7788.988
162.4747, 8255.414
162.9568, 8776.816
163.4389, 9307.543
163.9210, 9848.328
164.4031, 10371.54
164.8853, 10876.73
165.3674, 11360.95
165.8495, 11788.47
166.3316, 12133.72
166.8137, 12492.31
167.2958, 12986.29
167.7780, 13584.72
168.2601, 14162.34
168.7422, 14622.93
169.2243, 15004.04
169.7064, 15452.16
170.1885, 16033.79
170.6707, 16623.50
171.1528, 17134.62
171.6349, 17579.56
172.1170, 18022.56
172.5991, 18516.15
173.0812, 19063.02
173.5634, 19607.86
174.0455, 20184.22
174.5276, 20731.73
175.0097, 21211.61
175.4918, 21628.11
175.9739, 22010.85
176.4561, 22390.66
176.9382, 22786.21
177.4203, 23143.59
177.9024, 23431.21
178.3845, 23709.64
178.8666, 24019.00
179.3488, 24355.52
179.8309, 24686.02
180.3130, 24957.77
180.7951, 25160.36
181.2772, 25302.89
181.7593, 25365.33
182.2415, 25392.97
182.7236, 25422.59
183.2057, 25461.59
183.6878, 25482.91
184.1699, 25444.36
184.6520, 25321.62
185.1342, 25176.03
185.6163, 25020.80
186.0984, 24837.71
186.5805, 24608.39
187.0626, 24328.99
187.5447, 24004.02
188.0269, 23627.20
188.5090, 23187.71
188.9911, 22734.78
189.4732, 22306.14
189.9553, 21875.84
190.4374, 21393.75
190.9196, 20839.55
191.4017, 20232.09
191.8838, 19577.84
192.3659, 18871.25
192.8480, 18201.88
193.3301, 17641.13
193.8123, 17157.96
194.2944, 16634.08
194.7765, 16019.51
195.2586, 15379.81
195.7407, 14783.39
196.2228, 14232.21
196.7050, 13704.44
197.1871, 13189.57
197.6692, 12681.74
198.1513, 12169.45
198.6334, 11652.12
199.1155, 11131.37
199.5977, 10584.62
200.0798, 10017.19
200.5619, 9498.039
201.0440, 9111.219
201.5261, 8877.680
202.0082, 8636.930
202.4904, 8337.633
202.9725, 8051.719
203.4546, 7825.148
203.9367, 7658.742
204.4188, 7512.211
204.9009, 7332.516
205.3831, 7100.570
205.8652, 6893.531
206.3473, 6741.008
206.8294, 6591.141
207.3115, 6401.758
207.7936, 6171.188
208.2758, 5939.430
208.7579, 5771.852
209.2400, 5736.891
209.7221, 5606.750
210.2042, 5308.367
210.6863, 4982.609
211.1685, 4726.789
211.6506, 4558.984
212.1327, 4429.031
212.6148, 4263.844
213.0969, 4027.336
213.5790, 3830.898
214.0612, 3703.625
214.5433, 3594.742
215.0254, 3470.328
215.5075, 3320.164
215.9896, 3150.883
216.4717, 2970.438
216.9539, 2778.289
217.4360, 2572.250
217.9181, 2323.812
218.4002, 2075.539
218.8823, 1867.016
219.3644, 1707.680
219.8466, 1589.656
220.3287, 1522.250
220.8108, 1528.297
221.2929, 1459.828
221.7750, 1229.539
222.2571, 940.0391
222.7393, 724.8125
223.2214, 617.6094
223.7035, 548.7422
224.1856, 424.8906
224.6677, 250.1484
225.1498, 105.4453
225.6320, 21.70312
226.1141, 21.57031
226.5962, 49.99219
227.0783, 58.82812
227.5604, 77.70312
228.0425, 149.8438
228.5247, 262.6641
229.0068, 357.2891
229.4889, 401.8906
229.9710, 414.9375
230.4531, 438.8906
230.9352, 488.5625
231.4174, 528.2422
231.8995, 537.1719
232.3816, 518.2578
232.8637, 474.1797
233.3458, 379.0391
233.8279, 256.8828
234.3101, 182.6016
234.7922, 176.3828
235.2743, 195.3438
235.7564, 223.7188
236.2385, 256.1016
236.7206, 280.2422
237.2028, 296.8672
237.6849, 301.4297
238.1670, 261.1250
238.6491, 122.5625
239.1312, 21.27344
239.6133, 26.18750
240.0955, 97.08594
240.5776, 163.3516
241.0597, 184.9297
241.5418, 169.1406
242.0239, 154.8672
242.5060, 130.2188
242.9882, 124.4844
243.4703, 149.6406
243.9524, 195.3750
244.4345, 255.7812
244.9166, 337.7969
245.3987, 420.3125
245.8809, 399.0703
246.3630, 151.2500
246.8451, 44.32031
247.3272, 106.9062
247.8093, 93.96875
248.2914, 77.76562
248.7736, 97.70312
249.2557, 143.4766
249.7378, 171.0391
250.2199, 184.6406
250.7020, 171.6016
251.1841, 131.5234
251.6663, 63.91406
252.1484, 45.68750
252.6305, 204.7656
253.1126, 386.2109
253.5947, 503.2969
254.0768, 550.7109
254.5590, 527.2500
255.0411, 361.8047
255.5232, 153.4375
256.0053, 24.28906
256.4874, 26.44531
256.9695, 90.07812
257.4517, 46.99219
257.9338, 237.5781
258.4159, 476.4922
258.8980, 674.7891
259.3801, 823.8984
259.8622, 894.7422
260.3444, 879.4688
260.8265, 838.8281
261.3086, 889.2734
261.7907, 1132.875
262.2728, 1310.516
262.7549, 1388.633
263.2371, 1414.992
263.7192, 1427.672
264.2013, 1438.562
264.6834, 1449.664
265.1655, 1463.984
265.6476, 1481.906
266.1298, 1501.930
266.6119, 1514.773
267.0940, 1536.414
267.5761, 1581.773
268.0582, 1654.945
268.5403, 1746.641
269.0225, 1853.859
269.5046, 1986.320
269.9867, 2079.320
270.4688, 2117.656
270.9509, 2124.141
271.4330, 2110.180
271.9152, 2078.875
272.3973, 2042.445
272.8794, 2001.469
273.3615, 1957.578
273.8436, 1972.656
274.3257, 2123.336
274.8079, 2280.680
275.2900, 2310.828
275.7721, 2217.578
276.2542, 2147.016
276.7363, 2223.281
277.2184, 2429.664
277.7006, 2579.047
278.1827, 2663.758
278.6648, 2694.406
279.1469, 2645.781
279.6290, 2529.992
280.1111, 2435.742
280.5933, 2414.852
281.0754, 2461.016
281.5575, 2529.820
282.0396, 2646.195
282.5217, 2753.992
283.0038, 2815.125
283.4860, 2836.375
283.9681, 2852.312
284.4502, 2880.703
284.9323, 2911.172
285.4144, 2922.352
285.8965, 2909.852
286.3787, 2882.438
286.8608, 2817.828
287.3429, 2738.391
287.8250, 2721.211
288.3071, 2795.531
288.7892, 2938.969
289.2714, 3131.688
289.7535, 3381.984
290.2356, 3612.219
290.7177, 3780.227
291.1998, 3902.953
291.6819, 4039.227
292.1641, 4228.242
292.6462, 4369.055
293.1283, 4280.797
293.6104, 3996.352
294.0925, 3834.359
294.5746, 3998.328
295.0568, 4358.062
295.5389, 4658.828
296.0210, 4866.492
296.5031, 5037.750
296.9852, 5196.711
297.4673, 5348.477
297.9495, 5520.648
298.4316, 5793.148
298.9137, 6065.250
299.3958, 6131.117
299.8779, 5932.406
300.3600, 5792.023
300.8422, 6020.375
301.3243, 6439.977
301.8064, 6745.422
302.2885, 6824.406
302.7706, 6809.398
303.2527, 6839.594
303.7349, 6919.883
304.2170, 7042.023
304.6991, 7212.516
305.1812, 7406.109
305.6633, 7591.516
306.1454, 7760.125
306.6276, 7931.344
307.1097, 8149.961
307.5918, 8409.391
308.0739, 8586.625
308.5560, 8587.266
309.0381, 8529.516
309.5203, 8553.570
310.0024, 8669.008
310.4845, 8792.898
310.9666, 8878.359
311.4487, 8927.602
311.9308, 8933.664
312.4130, 8851.227
312.8951, 8798.125
313.3772, 8889.016
313.8593, 9103.047
314.3414, 9326.750
314.8235, 9535.406
315.3057, 9712.180
315.7878, 9804.586
316.2699, 9785.984
316.7520, 9732.375
317.2341, 9687.367
317.7162, 9650.648
318.1984, 9622.922
318.6805, 9610.492
319.1626, 9605.359
319.6447, 9587.219
320.1268, 9549.367
320.6089, 9535.609
321.0911, 9597.531
321.5732, 9693.328
322.0553, 9771.312
322.5374, 9836.680
323.0195, 9856.914
323.5016, 9758.930
323.9838, 9540.422
324.4659, 9390.883
324.9480, 9429.016
325.4301, 9542.961
325.9122, 9582.508
326.3943, 9523.086
326.8765, 9478.414
327.3586, 9605.273
327.8407, 9849.539
328.3228, 9878.508
328.8049, 9500.297
329.2870, 9042.422
329.7692, 8847.773
330.2513, 8895.469
330.7334, 8984.055
331.2155, 9054.398
331.6976, 9092.844
332.1797, 9045.594
332.6619, 8872.359
333.1440, 8710.859
333.6261, 8721.633
334.1082, 8835.961
334.5903, 8888.367
335.0724, 8737.180
335.5546, 8543.578
336.0367, 8544.453
336.5188, 8759.156
337.0009, 8976.461
337.4830, 9086.359
337.9651, 9113.555
338.4473, 9106.758
338.9294, 9064.273
339.4115, 8999.727
339.8936, 8923.312
340.3757, 8834.430
340.8578, 8724.000
341.3400, 8558.328
341.8221, 8401.938
342.3042, 8358.195
342.7863, 8445.188
343.2684, 8531.523
343.7505, 8528.023
344.2327, 8477.000
344.7148, 8490.531
345.1969, 8608.227
345.6790, 8751.070
346.1611, 8824.594
346.6432, 8840.023
347.1254, 8851.539
347.6075, 8907.945
348.0896, 8951.164
348.5717, 8883.062
349.0538, 8690.445
349.5359, 8511.180
350.0181, 8450.945
350.5002, 8492.797
350.9823, 8535.609
351.4644, 8558.164
351.9465, 8594.367
352.4286, 8709.023
352.9108, 8874.156
353.3929, 8941.148
353.8750, 8803.594
354.3571, 8556.852
354.8392, 8440.086
355.3214, 8482.703
355.8035, 8563.492
356.2856, 8681.742
356.7677, 8802.258
357.2498, 8853.805
357.7319, 8810.703
358.2141, 8724.516
358.6962, 8654.719
359.1783, 8598.203
359.6604, 8577.469
360.1425, 8634.312
360.6246, 8703.938
361.1068, 8718.875
361.5889, 8675.375
362.0710, 8630.109
362.5531, 8640.750
363.0352, 8703.094
363.5173, 8687.141
363.9995, 8510.078
364.4816, 8343.609
364.9637, 8280.445
365.4458, 8294.375
365.9279, 8312.453
366.4100, 8296.891
366.8922, 8258.664
367.3743, 8232.680
367.8564, 8127.727
368.3385, 8159.281
368.8206, 8499.766
369.3027, 8929.469
369.7849, 9197.703
370.2670, 9233.758
370.7491, 9125.898
371.2312, 8989.289
371.7133, 8822.219
372.1954, 8627.984
372.6776, 8340.266
373.1597, 8083.469
373.6418, 7933.969
374.1239, 7888.961
374.6060, 7906.227
375.0881, 7959.852
375.5703, 8048.023
376.0524, 8089.336
376.5345, 8068.141
377.0166, 8018.641
377.4987, 7902.672
377.9808, 7774.156
378.4630, 7721.414
378.9451, 7785.828
379.4272, 7908.727
379.9093, 7946.406
380.3914, 7818.844
380.8735, 7736.344
381.3557, 7757.102
381.8378, 7785.492
382.3199, 7739.766
382.8020, 7617.289
383.2841, 7482.695
383.7662, 7405.500
384.2484, 7388.781
384.7305, 7379.086
385.2126, 7418.961
385.6947, 7422.000
386.1768, 7329.297
386.6589, 7182.852
387.1411, 7066.414
387.6232, 7033.484
388.1053, 7059.242
388.5874, 7059.984
389.0695, 7035.898
389.5516, 6983.938
390.0338, 6890.336
390.5159, 6779.945
390.9980, 6663.414
391.4801, 6543.852
391.9622, 6455.453
392.4443, 6464.156
392.9265, 6582.156
393.4086, 6623.047
393.8907, 6460.695
394.3728, 6321.406
394.8549, 6397.211
395.3370, 6633.047
395.8192, 6800.578
396.3013, 6730.312
396.7834, 6479.102
397.2655, 6217.945
397.7476, 5916.141
398.2297, 5689.156
398.7119, 5660.453
399.1940, 5719.992
399.6761, 5734.312
400.1582, 5666.375
400.6403, 5555.211
401.1224, 5417.336
401.6046, 5251.812
402.0867, 5135.078
402.5688, 5111.094
403.0509, 5118.656
403.5330, 5081.719
404.0151, 5002.195
404.4973, 4930.555
404.9794, 4913.125
405.4615, 4912.477
405.9436, 4851.867
406.4257, 4716.109
406.9078, 4571.352
407.3900, 4483.398
407.8721, 4435.016
408.3542, 4338.148
408.8363, 4141.164
409.3184, 3947.227
409.8005, 3845.602
410.2827, 3808.555
410.7648, 3733.367
411.2469, 3558.945
411.7290, 3349.633
412.2111, 3270.938
412.6932, 3391.422
413.1754, 3452.227
413.6575, 3371.383
414.1396, 3231.242
414.6217, 3117.273
415.1038, 3041.945
415.5859, 2958.359
416.0681, 2816.547
416.5502, 2609.445
417.0323, 2442.297
417.5144, 2346.320
417.9965, 2250.477
418.4786, 2095.594
418.9608, 1922.281
419.4429, 1816.586
419.9250, 1826.859
420.4071, 1911.078
420.8892, 1950.805
421.3713, 1924.406
421.8535, 1884.766
422.3356, 1837.188
422.8177, 1770.883
423.2998, 1670.023
423.7819, 1538.992
424.2640, 1409.281
424.7462, 1316.391
425.2283, 1262.117
425.7104, 1184.609
426.1925, 1042.461
426.6746, 924.9062
427.1567, 859.2109
427.6389, 832.9609
428.1210, 837.0391
428.6031, 873.5938
429.0852, 912.8594
429.5673, 883.9922
430.0494, 759.9844
430.5316, 661.5703
431.0137, 696.1250
431.4958, 712.9297
431.9779, 582.3594
432.4600, 309.1172
432.9421, 50.90625
433.4243, 67.67969
433.9064, 70.10156
434.3885, 57.42969
434.8706, 29.83594
435.3527, 1.187500
435.8348, 29.36719
436.3170, 55.01562
436.7991, 76.74219
437.2812, 96.95312
437.7633, 110.3750
438.2454, 119.3125
438.7275, 119.8438
439.2097, 85.92969
439.6918, 2.687500
440.1739, 111.6719
440.6560, 197.2188
441.1381, 265.3125
441.6202, 292.2188
442.1024, 230.4141
442.5845, 145.6719
443.0666, 112.4453
443.5487, 136.8828
444.0308, 183.4141
444.5129, 229.2266
444.9951, 273.4062
445.4772, 318.0547
445.9593, 360.2500
446.4414, 404.5781
446.9235, 453.6797
447.4056, 505.3203
447.8878, 558.5156
448.3699, 612.7344
448.8520, 664.4531
449.3341, 714.9297
449.8162, 788.5156
450.2983, 782.1172
450.7805, 626.6641
451.2626, 467.0938
451.7447, 368.2109
452.2268, 329.8203
452.7089, 333.5938
453.1910, 371.2500
453.6732, 431.8359
454.1553, 466.3203
454.6374, 458.7188
455.1195, 451.5547
455.6016, 463.3047
456.0837, 471.1094
456.5659, 446.4453
457.0480, 388.6875
457.5301, 331.0703
458.0122, 318.7734
458.4943, 350.9531
458.9764, 347.9297
459.4586, 298.1094
459.9407, 224.1172
460.4228, 113.1719
460.9049, 7.203125
461.3870, 85.56250
461.8691, 95.68750
462.3513, 70.46094
462.8334, 36.51562
463.3155, 4.765625
463.7976, 17.86719
464.2797, 6.796875
464.7618, 68.30469
465.2440, 187.6172
465.7261, 368.1172
466.2082, 487.9062
466.6903, 463.3984
467.1724, 379.0547
467.6545, 326.8594
468.1367, 315.8750
468.6188, 337.4297
469.1009, 392.7109
469.5830, 475.6016
470.0651, 552.2969
470.5472, 627.1328
471.0294, 691.6719
471.5115, 717.6484
471.9936, 742.7969
472.4757, 830.3594
472.9578, 991.5938
473.4399, 1159.297
473.9221, 1250.594
474.4042, 1250.367
474.8863, 1258.578
475.3684, 1262.742
475.8505, 1285.742
476.3326, 1362.352
476.8148, 1458.570
477.2969, 1516.543
477.7790, 1508.098
478.2611, 1457.910
478.7432, 1409.863
479.2253, 1345.320
479.7075, 1339.516
480.1896, 1452.504
480.6717, 1584.902
481.1538, 1679.621
481.6359, 1742.305
482.1180, 1817.402
482.6002, 1949.250
483.0823, 2111.082
483.5644, 2219.484
484.0465, 2258.875
484.5286, 2302.605
485.0107, 2400.008
485.4929, 2510.008
485.9750, 2574.684
486.4571, 2577.141
486.9392, 2593.789
487.4213, 2684.293
487.9034, 2820.438
488.3856, 2935.867
488.8677, 3017.039
489.3498, 3102.191
489.8319, 3228.312
490.3140, 3392.418
490.7961, 3539.605
491.2783, 3667.844
491.7604, 3781.125
492.2425, 3874.359
492.7246, 3955.559
493.2067, 4034.938
493.6888, 4116.059
494.1710, 4207.281
494.6531, 4324.164
495.1352, 4479.980
495.6173, 4620.168
496.0994, 4738.254
496.5815, 4849.340
497.0637, 4950.645
497.5458, 5051.090
498.0279, 5167.500
498.5100, 5311.211
498.9921, 5466.121
499.4742, 5590.992
499.9564, 5680.164
500.4385, 5770.414
500.9206, 5835.078
501.4027, 5918.770
501.8848, 6072.648
502.3669, 6282.809
502.8491, 6469.367
503.3312, 6565.637
503.8133, 6601.098
504.2954, 6651.770
504.7775, 6717.508
505.2596, 6799.305
505.7418, 6906.414
506.2239, 7026.426
506.7060, 7147.238
507.1881, 7275.344
507.6702, 7373.184
508.1523, 7395.305
508.6345, 7399.215
509.1166, 7472.590
509.5987, 7625.191
510.0808, 7801.410
510.5629, 7965.203
511.0450, 8111.566
511.5272, 8218.660
512.0093, 8299.250
512.4914, 8336.660
512.9735, 8270.770
513.4556, 8179.445
513.9377, 8183.477
514.4199, 8310.254
514.9020, 8464.004
515.3841, 8509.223
515.8662, 8411.742
516.3483, 8418.129
516.8304, 8670.148
517.3126, 8885.199
517.7947, 8954.270
518.2768, 8948.758
518.7589, 8982.707
519.2410, 9100.547
519.7231, 9228.887
520.2053, 9234.180
520.6874, 9100.066
521.1695, 9086.199
521.6516, 9339.227
522.1337, 9580.312
522.6158, 9597.422
523.0980, 9455.516
523.5801, 9332.871
524.0622, 9269.000
524.5443, 9263.387
525.0264, 9362.738
525.5085, 9543.172
525.9907, 9650.152
526.4728, 9620.211
526.9549, 9520.445
527.4370, 9439.938
527.9191, 9376.535
528.4012, 9337.656
528.8834, 9313.031
529.3655, 9321.441
529.8476, 9405.137
530.3297, 9537.082
530.8118, 9638.641
531.2939, 9665.047
531.7761, 9641.348
532.2582, 9636.828
532.7403, 9689.648
533.2224, 9687.711
533.7045, 9582.617
534.1866, 9470.688
534.6688, 9414.070
535.1509, 9401.422
535.6330, 9379.523
536.1151, 9304.750
536.5972, 9208.125
537.0793, 9179.391
537.5615, 9237.195
538.0436, 9299.453
538.5257, 9373.102
539.0078, 9416.031
539.4899, 9370.336
539.9720, 9241.672
540.4542, 9141.258
540.9363, 9164.270
541.4184, 9226.785
541.9005, 9200.195
542.3826, 9084.301
542.8647, 8968.312
543.3469, 8902.711
543.8290, 8860.695
544.3111, 8762.109
544.7932, 8550.336
545.2753, 8422.293
545.7574, 8480.223
546.2396, 8578.703
546.7217, 8582.234
547.2038, 8498.059
547.6859, 8429.453
548.1680, 8456.262
548.6501, 8542.277
549.1323, 8520.934
549.6144, 8313.020
550.0965, 8146.020
550.5786, 8037.215
551.0607, 7968.328
551.5428, 7944.801
552.0250, 7956.938
552.5071, 7967.691
552.9892, 7946.418
553.4713, 7903.352
553.9534, 7877.855
554.4355, 7886.793
554.9177, 7879.684
555.3998, 7806.031
555.8819, 7705.598
556.3640, 7645.621
556.8461, 7635.820
557.3282, 7612.434
557.8104, 7550.770
558.2925, 7463.316
558.7746, 7353.465
559.2567, 7225.496
559.7388, 7108.512
560.2209, 7016.672
560.7031, 6948.852
561.1852, 6901.965
561.6673, 6921.469
562.1494, 6900.055
562.6315, 6787.035
563.1136, 6663.805
563.5958, 6603.914
564.0779, 6594.055
564.5600, 6567.660
565.0421, 6474.551
565.5242, 6334.938
566.0063, 6210.816
566.4885, 6095.043
566.9706, 6018.098
567.4527, 6051.152
567.9348, 6078.242
568.4169, 5998.465
568.8990, 5824.043
569.3812, 5668.227
569.8633, 5610.336
570.3454, 5596.879
570.8275, 5550.746
571.3096, 5473.883
571.7917, 5406.492
572.2739, 5377.148
572.7560, 5345.047
573.2381, 5219.367
573.7202, 4957.496
574.2023, 4773.172
574.6844, 4719.625
575.1666, 4719.902
575.6487, 4751.332
576.1308, 4791.527
576.6129, 4798.344
577.0950, 4748.438
577.5771, 4663.801
578.0593, 4601.074
578.5414, 4596.496
579.0235, 4513.523
579.5056, 4270.199
579.9877, 4015.094
580.4698, 3777.539
580.9520, 3582.773
581.4341, 3484.598
581.9162, 3542.797
582.3983, 3632.742
582.8804, 3564.480
583.3625, 3355.121
583.8447, 3197.418
584.3268, 3146.281
584.8089, 3136.434
585.2910, 3126.320
585.7731, 3110.598
586.2552, 3028.234
586.7374, 2796.910
587.2195, 2578.605
587.7016, 2470.797
588.1837, 2430.859
588.6658, 2386.961
589.1479, 2316.320
589.6301, 2233.074
590.1122, 2157.699
590.5943, 2095.754
591.0764, 1985.539
591.5585, 1736.543
592.0406, 1544.871
592.5228, 1502.441
593.0049, 1519.773
593.4870, 1485.805
593.9691, 1372.555
594.4512, 1252.594
594.9333, 1207.457
595.4155, 1215.426
595.8976, 1175.246
596.3797, 1069.852
596.8618, 970.6367
597.3439, 935.8086
597.8260, 929.4883
598.3082, 863.6055
598.7903, 714.3867
599.2724, 566.8438
599.7545, 438.1797
600.2366, 331.0820
600.7188, 255.7383
601.2009, 208.3750
601.6830, 169.8359
602.1651, 126.3203
602.6472, 81.95703
603.1293, 52.09766
603.6115, 39.28125
604.0936, 36.83594
604.5757, 60.50391
605.0578, 79.19922
605.5399, 85.73828
606.0220, 71.47266
606.5042, 10.95703
606.9863, 133.5312
607.4684, 294.9961
607.9505, 358.9531
608.4326, 327.5508
608.9147, 282.6055
609.3969, 241.2852
609.8790, 199.4609
610.3611, 125.8359
610.8432, 28.40625
611.3253, 34.84375
611.8074, 295.3828
612.2896, 520.3516
612.7717, 531.3555
613.2538, 410.8164
613.7359, 290.6797
614.2180, 213.7422
614.7001, 168.7617
615.1823, 146.0938
615.6644, 147.2344
616.1465, 142.4062
616.6286, 135.4805
617.1107, 116.1953
617.5928, 54.89844
618.0750, 4.121094
618.5571, 6.761719
619.0392, 95.02344
619.5213, 151.2812
620.0034, 59.85547
620.4855, 114.9492
620.9677, 226.7773
621.4498, 268.0703
621.9319, 296.8672
622.4140, 339.3086
622.8961, 389.5273
623.3782, 434.1055
623.8604, 470.0117
624.3425, 511.1758
624.8246, 557.0742
625.3067, 610.6328
625.7888, 663.7812
626.2709, 726.7734
626.7531, 831.7656
627.2352, 995.6055
627.7173, 1174.695
628.1994, 1283.609
628.6815, 1307.719
629.1636, 1341.594
629.6458, 1397.809
630.1279, 1453.891
630.6100, 1491.543
631.0921, 1522.770
631.5742, 1573.586
632.0563, 1660.371
632.5385, 1737.246
633.0206, 1744.047
633.5027, 1724.543
633.9848, 1774.438
634.4669, 1906.656
634.9490, 2058.176
635.4312, 2191.219
635.9133, 2301.746
636.3954, 2369.555
636.8775, 2344.500
637.3596, 2343.355
637.8417, 2365.918
638.3239, 2416.918
638.8060, 2528.820
639.2881, 2674.852
639.7702, 2773.293
640.2523, 2763.273
640.7344, 2709.531
641.2166, 2745.676
641.6987, 2876.066
642.1808, 2997.574
642.6629, 3109.570
643.1450, 3175.926
643.6271, 3117.102
644.1093, 2974.934
644.5914, 2910.293
645.0735, 2996.031
645.5556, 3106.059
646.0377, 3186.875
646.5198, 3254.129
647.0020, 3338.316
647.4841, 3440.734
647.9662, 3525.012
648.4483, 3556.148
648.9304, 3541.848
649.4125, 3535.059
649.8947, 3547.137
650.3768, 3546.023
650.8589, 3500.977
651.3410, 3461.777
651.8231, 3465.453
652.3052, 3509.336
652.7874, 3566.566
653.2695, 3644.902
653.7516, 3709.402
654.2337, 3687.941
654.7158, 3606.234
655.1979, 3595.426
655.6801, 3701.773
656.1622, 3836.391
656.6443, 3903.129
657.1264, 3898.645
657.6085, 3888.770
658.0906, 3843.746
658.5728, 3831.449
659.0549, 3895.195
659.5370, 3982.707
660.0191, 4041.051
660.5012, 4062.152
660.9833, 4070.375
661.4655, 4090.215
661.9476, 4109.797
662.4297, 4079.879
662.9118, 3989.508
663.3939, 3937.727
663.8760, 3959.895
664.3582, 4028.293
664.8403, 4128.770
665.3224, 4255.184
665.8045, 4333.031
666.2866, 4328.285
666.7687, 4302.934
667.2509, 4283.273
667.7330, 4268.629
668.2151, 4247.703
668.6972, 4221.617
669.1793, 4221.066
669.6614, 4280.934
670.1436, 4393.062
670.6257, 4454.859
671.1078, 4454.773
671.5899, 4445.242
672.0720, 4422.898
672.5541, 4404.008
673.0363, 4403.270
673.5184, 4419.062
674.0005, 4432.832
674.4826, 4444.367
674.9647, 4443.395
675.4468, 4404.707
675.9290, 4345.422
676.4111, 4321.449
676.8932, 4349.035
677.3753, 4381.176
677.8574, 4361.520
678.3395, 4286.301
678.8217, 4257.414
679.3038, 4334.961
679.7859, 4386.160
680.2680, 4366.684
680.7501, 4321.902
681.2322, 4289.691
681.7144, 4276.281
682.1965, 4270.500
682.6786, 4269.145
683.1607, 4268.922
683.6428, 4270.684
684.1249, 4272.422
684.6071, 4253.859
685.0892, 4204.867
685.5713, 4146.586
686.0534, 4100.488
686.5355, 4068.676
687.0176, 4033.188
687.4998, 4002.465
687.9819, 3958.805
688.4640, 3879.059
688.9461, 3793.211
689.4282, 3725.648
689.9103, 3683.199
690.3925, 3661.672
690.8746, 3668.348
691.3567, 3686.191
691.8388, 3662.781
692.3209, 3596.336
692.8030, 3558.164
693.2852, 3581.980
693.7673, 3610.590
694.2494, 3583.918
694.7315, 3504.312
695.2136, 3420.324
695.6957, 3328.984
696.1779, 3238.594
696.6600, 3132.102
697.1421, 3038.094
697.6242, 2992.066
698.1063, 2993.762
698.5884, 3012.359
699.0706, 3027.910
699.5527, 3038.219
700.0348, 3039.461
700.5169, 3034.840
700.9990, 2998.246
701.4811, 2920.020
701.9633, 2813.711
702.4454, 2666.539
702.9275, 2496.293
703.4096, 2363.121
703.8917, 2291.160
704.3738, 2238.406
704.8560, 2180.965
705.3381, 2135.951
705.8202, 2143.672
706.3023, 2191.062
706.7844, 2198.338
707.2665, 2106.951
707.7487, 1952.691
708.2308, 1835.178
708.7129, 1759.326
709.1950, 1695.344
709.6771, 1642.975
710.1592, 1599.516
710.6414, 1571.973
711.1235, 1550.561
711.6056, 1512.223
712.0877, 1443.516
712.5698, 1384.783
713.0519, 1381.342
713.5341, 1383.779
714.0162, 1320.826
714.4983, 1202.441
714.9804, 1094.064
715.4625, 1031.162
715.9446, 995.2871
716.4268, 945.7480
716.9089, 874.5762
717.3910, 823.7773
717.8731, 814.9238
718.3552, 799.4355
718.8373, 740.7188
719.3195, 665.1973
719.8016, 616.2910
720.2837, 606.5801
720.7658, 590.1270
721.2479, 522.3379
721.7300, 450.3926
722.2122, 443.0410
722.6943, 481.9160
723.1764, 482.0488
723.6585, 404.5156
724.1406, 307.0078
724.6227, 286.4004
725.1049, 354.2402
725.5870, 389.3184
726.0691, 379.8496
726.5512, 356.0547
727.0333, 319.8066
727.5154, 278.3496
727.9976, 241.6992
728.4797, 210.8359
728.9618, 177.0273
729.4439, 105.0762
729.9260, 57.10547
730.4081, 120.6758
730.8903, 249.4570
731.3724, 339.6543
731.8545, 359.6504
732.3366, 320.1406
732.8187, 220.0156
733.3008, 67.98438
733.7830, 30.93750
734.2651, 70.92188
734.7472, 68.92773
735.2293, 38.05273
735.7114, 130.8750
736.1935, 95.16211
736.6757, 36.59180
737.1578, 112.0586
737.6399, 41.52148
738.1220, 41.77344
738.6041, 44.42578
739.0862, 4.089844
739.5684, 19.65625
740.0505, 19.12305
740.5326, 19.45312
741.0147, 39.31445
741.4968, 73.34375
741.9789, 107.1445
742.4611, 146.1816
742.9432, 157.6465
743.4253, 110.0957
743.9074, 71.84961
744.3895, 108.0391
744.8716, 171.8008
745.3538, 166.4141
745.8359, 46.98828
746.3180, 42.66992
746.8001, 4.378906
747.2822, 83.09570
747.7643, 71.13867
748.2465, 10.52148
748.7286, 63.05469
749.2107, 42.12305
749.6928, 9.244141
750.1749, 28.23438
750.6570, 13.85938
751.1392, 1.029297
751.6213, 19.74414
752.1034, 15.60156
752.5855, 65.21094
753.0676, 152.2598
753.5497, 141.2500
754.0319, 25.80859
754.5140, 52.67969
754.9961, 27.82617
755.4782, 13.11523
755.9603, 14.16992
756.4424, 3.167969
756.9246, 2.798828
757.4067, 36.75781
757.8888, 64.13867
758.3709, 54.03711
758.8530, 19.91797
759.3351, 11.66211
759.8173, 34.87891
760.2994, 23.81250
760.7815, 59.76758
761.2636, 135.4062
761.7457, 120.5020
762.2278, 38.33984
762.7100, 0.6093750
763.1921, 35.57812
763.6742, 74.68750
764.1563, 106.4023
764.6384, 134.1309
765.1205, 152.5859
765.6027, 168.1562
766.0848, 205.0391
766.5669, 276.8613
767.0490, 345.8828
767.5311, 346.1445
768.0132, 294.7578
768.4954, 302.7246
768.9775, 387.0625
769.4596, 427.7578
769.9417, 346.0391
770.4238, 219.0820
770.9059, 187.7734
771.3881, 288.3730
771.8702, 341.4258
772.3523, 291.9766
772.8344, 260.4512
773.3165, 292.7871
773.7986, 362.2168
774.2808, 459.2227
774.7629, 568.5703
775.2450, 629.5020
775.7271, 562.8848
776.2092, 462.2891
776.6913, 490.0801
777.1735, 610.2148
777.6556, 660.7539
778.1377, 602.1484
778.6198, 551.7168
779.1019, 620.9492
779.5840, 775.2285
780.0662, 832.8262
780.5483, 719.0840
781.0304, 650.1328
781.5125, 681.7617
781.9946, 717.6387
782.4767, 706.2422
782.9589, 665.9160
783.4410, 631.0840
783.9231, 606.0742
784.4052, 607.6816
784.8873, 663.4160
785.3694, 740.0430
785.8516, 805.1738
786.3337, 853.0254
786.8158, 872.3535
787.2979, 859.1621
787.7800, 836.6699
788.2621, 835.6641
788.7443, 855.9199
789.2264, 874.8418
789.7085, 886.0938
790.1906, 913.8086
790.6727, 971.2812
791.1548, 1040.180
791.6370, 1102.035
792.1191, 1158.885
792.6012, 1225.500
793.0833, 1342.271
793.5654, 1422.832
794.0475, 1417.246
794.5297, 1368.498
795.0118, 1311.283
795.4939, 1258.139
795.9760, 1210.605
796.4581, 1166.803
796.9402, 1134.857
797.4224, 1127.764
797.9045, 1145.117
798.3866, 1195.471
798.8687, 1286.180
799.3508, 1346.596
799.8329, 1331.391
800.3151, 1279.113
800.7972, 1265.834
801.2793, 1310.404
801.7614, 1326.959
802.2435, 1291.281
802.7256, 1255.125
803.2078, 1223.510
803.6899, 1214.742
804.1720, 1248.660
804.6541, 1319.654
805.1362, 1385.861
805.6183, 1435.369
806.1005, 1463.572
806.5826, 1441.682
807.0647, 1395.979
807.5468, 1392.076
808.0289, 1438.521
808.5110, 1493.730
808.9932, 1526.910
809.4753, 1549.332
809.9574, 1602.355
810.4395, 1707.955
810.9216, 1729.230
811.4037, 1606.557
811.8859, 1502.172
812.3680, 1509.564
812.8501, 1570.035
813.3322, 1605.621
813.8143, 1612.602
814.2964, 1600.934
814.7786, 1535.473
815.2607, 1491.025
815.7428, 1530.947
816.2249, 1610.842
816.7070, 1660.371
817.1891, 1670.537
817.6713, 1690.846
818.1534, 1771.787
818.6355, 1875.324
819.1176, 1913.660
819.5997, 1892.633
820.0818, 1882.332
820.5640, 1898.178
821.0461, 1914.895
821.5282, 1906.943
822.0103, 1889.174
822.4924, 1914.342
822.9745, 2023.625
823.4567, 2082.406
823.9388, 2062.686
824.4209, 2028.971
824.9030, 1986.652
825.3851, 1948.785
825.8672, 1938.379
826.3494, 1960.947
826.8315, 1984.508
827.3136, 1994.178
827.7957, 1990.105
828.2778, 1962.408
828.7599, 1928.174
829.2421, 1917.270
829.7242, 1933.026
830.2063, 1960.258
830.6884, 1990.715
831.1705, 2025.338
831.6526, 2065.729
832.1348, 2112.225
832.6169, 2144.861
833.0990, 2152.932
833.5811, 2169.576
834.0632, 2223.208
834.5453, 2291.430
835.0275, 2325.912
835.5096, 2315.389
835.9917, 2307.831
836.4738, 2289.024
836.9559, 2285.752
837.4380, 2328.720
837.9202, 2384.909
838.4023, 2408.293
838.8844, 2396.001
839.3665, 2393.550
839.8486, 2439.781
840.3307, 2496.111
840.8129, 2528.754
841.2950, 2536.343
841.7771, 2501.029
842.2592, 2431.756
842.7413, 2392.873
843.2234, 2427.108
843.7056, 2503.573
844.1877, 2566.064
844.6698, 2616.063
845.1519, 2648.352
845.6340, 2661.306
846.1161, 2652.018
846.5983, 2597.005
847.0804, 2540.862
847.5625, 2562.761
848.0446, 2669.909
848.5267, 2713.476
849.0089, 2630.570
849.4910, 2561.048
849.9731, 2533.910
850.4552, 2537.916
850.9373, 2577.303
851.4194, 2643.490
851.9016, 2716.771
852.3837, 2801.662
852.8658, 2840.566
853.3479, 2716.574
853.8300, 2537.895
854.3121, 2519.902
854.7943, 2647.270
855.2764, 2769.484
855.7585, 2820.511
856.2406, 2824.034
856.7227, 2805.175
857.2048, 2767.217
857.6870, 2746.708
858.1691, 2740.047
858.6512, 2762.516
859.1333, 2844.087
859.6154, 2912.914
860.0975, 2887.778
860.5797, 2794.183
861.0618, 2767.329
861.5439, 2886.043
862.0260, 2937.778
862.5081, 2834.820
862.9902, 2723.928
863.4724, 2688.825
863.9545, 2706.894
864.4366, 2740.773
864.9187, 2781.205
865.4008, 2804.924
865.8829, 2779.760
866.3651, 2742.430
866.8472, 2745.180
867.3293, 2767.512
867.8114, 2747.262
868.2935, 2680.947
868.7756, 2643.402
869.2578, 2696.307
869.7399, 2795.711
870.2220, 2826.715
870.7041, 2785.279
871.1862, 2768.262
871.6683, 2794.557
872.1505, 2808.621
872.6326, 2766.887
873.1147, 2705.264
873.5968, 2689.512
874.0789, 2730.773
874.5610, 2761.287
875.0432, 2799.398
875.5253, 2804.098
876.0074, 2723.574
876.4895, 2645.395
876.9716, 2662.848
877.4537, 2747.602
877.9359, 2780.283
878.4180, 2697.105
878.9001, 2615.768
879.3822, 2610.418
879.8643, 2643.211
880.3464, 2693.363
880.8286, 2744.133
881.3107, 2747.564
881.7928, 2688.244
882.2749, 2634.900
882.7570, 2685.572
883.2391, 2790.486
883.7213, 2770.496
884.2034, 2635.289
884.6855, 2556.287
885.1676, 2579.723
885.6497, 2625.012
886.1318, 2628.910
886.6140, 2603.787
887.0961, 2591.344
887.5782, 2601.189
888.0603, 2591.721
888.5424, 2548.582
889.0245, 2507.416
889.5067, 2479.055
889.9888, 2464.797
890.4709, 2460.834
890.9530, 2466.115
891.4351, 2491.553
891.9172, 2585.752
892.3994, 2647.158
892.8815, 2591.693
893.3636, 2517.211
893.8457, 2544.623
894.3278, 2638.529
894.8099, 2659.131
895.2921, 2541.145
895.7742, 2415.986
896.2563, 2430.414
896.7384, 2499.846
897.2205, 2465.568
897.7026, 2353.537
898.1848, 2283.412
898.6669, 2292.484
899.1490, 2340.955
899.6311, 2395.441
900.1132, 2453.361
900.5953, 2509.844
901.0775, 2569.678
901.5596, 2572.936
902.0417, 2493.283
902.5238, 2413.518
903.0059, 2381.887
903.4880, 2381.410
903.9702, 2377.816
904.4523, 2363.408
904.9344, 2363.715
905.4165, 2416.139
905.8986, 2444.857
906.3807, 2389.719
906.8629, 2336.598
907.3450, 2391.627
907.8271, 2521.080
908.3092, 2569.451
908.7913, 2469.336
909.2734, 2358.246
909.7556, 2270.607
910.2377, 2217.166
910.7198, 2234.549
911.2019, 2284.541
911.6840, 2292.117
912.1661, 2240.410
912.6483, 2184.330
913.1304, 2171.010
913.6125, 2167.949
914.0946, 2118.031
914.5767, 2042.100
915.0588, 1997.910
915.5410, 1994.062
916.0231, 2020.508
916.5052, 2077.385
916.9873, 2130.994
917.4694, 2109.732
917.9515, 2010.613
918.4337, 1926.918
918.9158, 1860.273
919.3979, 1820.789
919.8800, 1812.691
920.3621, 1814.568
920.8442, 1813.896
921.3264, 1812.473
921.8085, 1789.701
922.2906, 1711.961
922.7727, 1664.895
923.2548, 1669.768
923.7369, 1688.373
924.2191, 1727.766
924.7012, 1757.023
925.1833, 1724.756
925.6654, 1624.730
926.1475, 1522.205
926.6296, 1410.510
927.1118, 1326.637
927.5939, 1327.201
928.0760, 1340.484
928.5581, 1265.305
929.0402, 1127.148
929.5223, 1037.357
930.0045, 1047.555
930.4866, 1095.197
930.9687, 1137.441
931.4508, 1175.031
931.9329, 1225.664
932.4150, 1272.051
932.8972, 1249.250
933.3793, 1144.057
933.8614, 1023.047
934.3435, 944.2344
934.8256, 894.8223
935.3077, 840.5195
935.7899, 782.5488
936.2720, 742.7383
936.7541, 723.9824
937.2362, 689.5273
937.7183, 615.0566
938.2004, 539.8164
938.6826, 530.1133
939.1647, 587.8691
939.6468, 567.9414
940.1289, 413.3516
940.6110, 325.3438
941.0931, 388.6406
941.5753, 462.5508
942.0574, 435.6113
942.5395, 348.1836
943.0216, 318.1172
943.5037, 384.3359
943.9858, 389.3711
944.4680, 245.9336
944.9501, 130.1777
945.4322, 153.9707
945.9143, 204.7949
946.3964, 150.9238
946.8785, 7.240234
947.3607, 105.6367
947.8428, 144.1094
948.3249, 152.1836
948.8070, 124.1934
949.2891, 101.5879
949.7712, 127.9668
950.2534, 187.9375
950.7355, 270.3672
951.2176, 362.4707
951.6997, 395.7578
952.1818, 269.1484
952.6639, 121.5352
953.1461, 190.5156
953.6282, 376.6445
954.1103, 419.7305
954.5924, 316.2266
955.0745, 261.8789
955.5566, 353.6797
956.0388, 492.2344
956.5209, 537.5781
957.0030, 509.9922
957.4851, 519.6367
957.9672, 564.8516
958.4493, 599.1328
958.9315, 610.3750
959.4136, 621.6523
959.8957, 650.7773
960.3778, 689.2852
960.8599, 718.2500
961.3420, 741.9219
961.8242, 726.4766
962.3063, 640.1250
962.7884, 597.1133
963.2705, 653.6484
963.7526, 744.0469
964.2347, 819.5312
964.7169, 875.7930
965.1990, 875.8359
965.6811, 732.8438
966.1632, 665.4844
966.6453, 749.6641
967.1274, 830.0508
967.6096, 828.4727
968.0917, 792.6211
968.5738, 776.2422
969.0559, 782.9023
969.5380, 812.3906
970.0201, 915.2148
970.5023, 974.4062
970.9844, 888.8867
971.4665, 795.6758
971.9486, 825.4492
972.4307, 929.1797
972.9128, 993.2891
973.3950, 986.6484
973.8771, 950.3047
974.3592, 874.9844
974.8413, 811.5078
975.3234, 803.3594
975.8055, 839.9648
976.2877, 938.9922
976.7698, 1064.996
977.2519, 1098.887
977.7340, 981.9922
978.2161, 835.7383
978.6982, 805.3281
979.1804, 829.9023
979.6625, 785.9180
980.1446, 697.7852
980.6267, 655.4727
981.1088, 672.6211
981.5909, 677.4805
982.0731, 615.3164
982.5552, 544.1797
983.0373, 601.0391
983.5194, 758.6875
984.0015, 788.2539
984.4836, 682.7383
984.9658, 580.9531
985.4479, 523.8438
985.9300, 484.2891
986.4121, 442.9961
986.8942, 399.9336
987.3763, 347.4609
987.8585, 278.7930
988.3406, 209.8203
988.8227, 132.5742
989.3048, 92.39844
989.7869, 127.5195
990.2690, 174.1562
990.7512, 158.5273
991.2333, 87.82422
991.7154, 22.96484
992.1975, 55.04688
992.6796, 92.75000
993.1617, 17.63672
993.6439, 4.648438
994.1260, 170.2227
994.6081, 407.4922
995.0902, 500.4414
995.5723, 441.8438
996.0544, 427.0781
996.5366, 513.4609
997.0187, 580.9141
997.5008, 547.0664
997.9829, 544.0859
998.4650, 704.2695
998.9471, 942.1641
999.4293, 1095.363
999.9114, 1136.363
1000.393, 1158.977
1000.876, 1199.184
1001.358, 1223.195
1001.840, 1175.996
1002.322, 1126.938
1002.804, 1148.949
1003.286, 1229.363
1003.768, 1310.961
1004.250, 1371.648
1004.733, 1466.586
1005.215, 1651.391
1005.697, 1858.801
1006.179, 2092.980
1006.661, 2283.059
1007.143, 2279.773
1007.625, 2142.926
1008.107, 2100.469
1008.589, 2250.375
1009.072, 2461.145
1009.554, 2666.344
1010.036, 2842.281
1010.518, 2917.949
1011.000, 2943.840
1011.482, 3051.113
1011.964, 3245.176
1012.446, 3407.000
1012.929, 3462.570
1013.411, 3507.938
1013.893, 3695.027
1014.375, 3945.594
1014.857, 4068.250
1015.339, 4108.266
1015.821, 4270.859
1016.303, 4583.215
1016.785, 4856.887
1017.268, 4959.262
1017.750, 4976.250
1018.232, 5044.332
1018.714, 5152.625
1019.196, 5245.812
1019.678, 5329.758
1020.160, 5475.445
1020.642, 5700.148
1021.125, 5924.199
1021.607, 6088.348
1022.089, 6211.199
1022.571, 6333.062
1023.053, 6453.605
1023.535, 6528.750
1024.017, 6550.109
1024.499, 6686.844
1024.981, 7007.000
1025.464, 7367.523
1025.946, 7646.980
1026.428, 7848.527
1026.910, 7955.945
1027.392, 7947.590
1027.874, 8034.852
1028.356, 8237.094
1028.838, 8497.969
1029.321, 8814.879
1029.803, 9124.637
1030.285, 9358.500
1030.767, 9544.570
1031.249, 9817.391
1031.731, 10217.28
1032.213, 10563.24
1032.695, 10864.55
1033.177, 11063.09
1033.660, 11070.24
1034.142, 11069.81
1034.624, 11251.47
1035.106, 11596.94
1035.588, 11984.84
1036.070, 12481.00
1036.552, 12857.90
1037.034, 13050.90
1037.516, 13231.26
1037.999, 13460.63
1038.481, 13703.98
1038.963, 13920.59
1039.445, 14114.66
1039.927, 14321.54
1040.409, 14495.02
1040.891, 14766.64
1041.373, 15279.74
1041.855, 15704.25
1042.338, 15801.16
1042.820, 15836.77
1043.302, 16112.79
1043.784, 16593.94
1044.266, 17003.30
1044.748, 17311.20
1045.230, 17579.20
1045.712, 17712.65
1046.195, 17925.42
1046.677, 18372.08
1047.159, 18891.24
1047.641, 19284.20
1048.123, 19573.58
1048.605, 19976.63
1049.087, 20680.56
1049.569, 21203.56
1050.052, 21275.06
1050.534, 21384.59
1051.016, 21764.11
1051.498, 22291.17
1051.980, 22862.46
1052.462, 23452.87
1052.944, 23996.48
1053.426, 24446.52
1053.908, 24924.35
1054.391, 25497.17
1054.873, 26056.06
1055.355, 26530.99
1055.837, 26973.49
1056.319, 27418.30
1056.801, 27886.08
1057.283, 28460.81
1057.765, 29256.12
1058.248, 29927.88
1058.730, 30253.68
1059.212, 30569.59
1059.694, 31055.02
1060.176, 31637.98
1060.658, 32257.81
1061.140, 32890.83
1061.622, 33487.23
1062.104, 34016.41
1062.587, 34549.57
1063.069, 35082.13
1063.551, 35654.68
1064.033, 36323.02
1064.515, 37020.61
1064.997, 37689.36
1065.479, 38312.86
1065.961, 38867.38
1066.443, 39311.43
1066.926, 39807.41
1067.408, 40476.50
1067.890, 41152.68
1068.372, 41758.05
1068.854, 42303.34
1069.336, 42783.96
1069.818, 43222.36
1070.300, 43679.63
1070.782, 44174.14
1071.265, 44696.63
1071.747, 45297.50
1072.229, 45869.87
1072.711, 46337.82
1073.193, 46752.45
1073.675, 47130.64
1074.157, 47506.08
1074.639, 47958.08
1075.122, 48518.91
1075.604, 49078.92
1076.086, 49610.21
1076.568, 50100.91
1077.050, 50502.89
1077.532, 50893.08
1078.014, 51386.72
1078.496, 51926.82
1078.979, 52308.81
1079.461, 52465.08
1079.943, 52773.41
1080.425, 53577.84
1080.907, 54362.30
1081.389, 54801.89
1081.871, 55118.25
1082.353, 55531.08
1082.835, 55994.83
1083.318, 56337.46
1083.800, 56524.03
1084.282, 56796.04
1084.764, 57342.64
1085.246, 57882.42
1085.728, 58274.41
1086.210, 58603.20
1086.692, 58894.45
1087.175, 59199.89
1087.657, 59601.41
1088.139, 60102.73
1088.621, 60589.02
1089.103, 61053.53
1089.585, 61449.32
1090.067, 61711.72
1090.549, 61955.39
1091.031, 62177.00
1091.514, 62469.92
1091.996, 63028.06
1092.478, 63836.55
1092.960, 64577.77
1093.442, 65203.40
1093.924, 65643.79
1094.406, 65771.52
1094.888, 65802.34
1095.370, 65789.38
1095.853, 65844.45
1096.335, 66134.06
1096.817, 66621.35
1097.299, 67048.17
1097.781, 67315.02
1098.263, 67672.25
1098.745, 68200.49
1099.227, 68829.34
1099.709, 69638.46
1100.192, 70465.21
1100.674, 71049.37
1101.156, 71485.25
1101.638, 72145.20
1102.120, 73162.13
1102.602, 74128.91
1103.084, 74875.55
1103.566, 75646.17
1104.049, 76560.78
1104.531, 77523.52
1105.013, 78395.19
1105.495, 79193.66
1105.977, 80073.66
1106.459, 81105.46
1106.941, 82334.73
1107.423, 83890.34
1107.906, 85417.56
1108.388, 86798.27
1108.870, 88070.09
1109.352, 89277.77
1109.834, 90420.99
1110.316, 91467.47
1110.798, 92427.63
1111.280, 93294.90
1111.762, 93965.95
1112.245, 94611.47
1112.727, 95192.67
1113.209, 95903.22
1113.691, 96916.38
1114.173, 97999.22
1114.655, 98860.82
1115.137, 99521.60
1115.619, 100279.8
1116.102, 101189.6
1116.584, 101973.6
1117.066, 102662.3
1117.548, 103231.0
1118.030, 103685.9
1118.512, 104000.4
1118.994, 104110.7
1119.476, 104039.4
1119.958, 103962.2
1120.441, 103933.1
1120.923, 103751.5
1121.405, 103324.8
1121.887, 102770.1
1122.369, 102128.9
1122.851, 101446.1
1123.333, 100772.2
1123.815, 100052.1
1124.297, 99163.91
1124.780, 98103.07
1125.262, 96890.54
1125.744, 95436.91
1126.226, 94160.77
1126.708, 93166.09
1127.190, 92243.58
1127.672, 91304.75
1128.154, 90309.02
1128.636, 89195.38
1129.119, 87968.69
1129.601, 86639.42
1130.083, 85207.81
1130.565, 83765.62
1131.047, 82319.05
1131.529, 80875.28
1132.011, 79452.12
1132.493, 77985.78
1132.976, 76389.88
1133.458, 74747.31
1133.940, 73353.05
1134.422, 72180.64
1134.904, 70820.31
1135.386, 69261.84
1135.868, 67768.41
1136.350, 66410.88
1136.833, 65064.83
1137.315, 63656.44
1137.797, 62208.05
1138.279, 60762.88
1138.761, 59303.56
1139.243, 57699.69
1139.725, 56004.84
1140.207, 54521.17
1140.689, 53243.73
1141.172, 51709.23
1141.654, 49711.98
1142.136, 47725.53
1142.618, 46307.31
1143.100, 45138.06
1143.582, 43709.44
1144.064, 42095.41
1144.546, 40314.56
1145.029, 38519.38
1145.511, 37175.03
1145.993, 36373.25
1146.475, 35609.94
1146.957, 34633.28
1147.439, 33331.75
1147.921, 31346.44
1148.403, 29185.88
1148.885, 27433.16
1149.368, 25938.50
1149.850, 24382.31
1150.332, 22718.28
1150.814, 21092.34
1151.296, 19502.53
1151.778, 18158.72
1152.260, 17409.03
1152.742, 16651.56
1153.224, 15482.97
1153.707, 14143.59
1154.189, 12970.53
1154.671, 11852.88
1155.153, 10420.41
1155.635, 8610.281
1156.117, 6909.375
1156.599, 5550.438
1157.081, 4216.719
1157.563, 2741.031
1158.046, 1335.406
1158.528, 118.7812
1159.010, 971.2188
1159.492, 1959.844
1159.974, 2885.562
1160.456, 3802.000
1160.938, 4734.750
1161.420, 5635.344
1161.903, 6662.562
1162.385, 7443.219
1162.867, 7532.688
1163.349, 7743.781
1163.831, 8810.781
1164.313, 10394.03
1164.795, 11763.91
1165.277, 12913.19
1165.760, 13712.75
1166.242, 14028.88
1166.724, 14414.69
1167.206, 15004.25
1167.688, 15636.06
1168.170, 16313.50
1168.652, 16811.88
1169.134, 16823.81
1169.616, 16479.31
1170.099, 16503.19
1170.581, 16889.00
1171.063, 17055.69
1171.545, 16938.56
1172.027, 16871.31
1172.509, 16899.38
1172.991, 16676.69
1173.473, 15890.62
1173.956, 14866.00
1174.438, 14167.75
1174.920, 13681.06
1175.402, 13219.06
1175.884, 12720.38
1176.366, 11951.81
1176.848, 10899.75
1177.330, 9910.938
1177.813, 9093.812
1178.295, 8046.062
1178.777, 6313.688
1179.259, 4105.938
1179.741, 1362.688
1180.223, 1438.812
1180.705, 3245.562
1181.187, 4618.812
1181.669, 6710.938
1182.151, 9613.500
1182.634, 12494.69
1183.116, 14844.94
1183.598, 17421.69
1184.080, 20665.62
1184.562, 24218.12
1185.044, 27731.62
1185.526, 31495.06
1186.008, 35909.00
1186.490, 40853.12
1186.973, 46166.94
1187.455, 51807.94
1187.937, 57123.81
1188.419, 61107.69
1188.901, 66171.19
1189.383, 73494.25
1189.865, 81257.38
1190.347, 88587.12
1190.830, 95773.56
1191.312, 103021.8
1191.794, 110392.1
1192.276, 118295.6
1192.758, 126844.9
1193.240, 135642.4
1193.722, 144454.6
1194.204, 154172.4
1194.687, 165173.5
1195.169, 176545.6
1195.651, 187800.2
1196.133, 199154.6
1196.615, 211059.9
1197.097, 223384.2
1197.579, 235572.2
1198.061, 247797.8
1198.543, 261256.0
1199.026, 276044.0
1199.508, 291025.5
1199.990, 305724.1
1200.472, 321515.2
1200.954, 339397.1
1201.436, 358171.2
1201.918, 375955.0
1202.400, 393568.4
1202.883, 412635.0
1203.365, 432727.9
1203.847, 452444.4
1204.329, 472008.5
1204.811, 493357.4
1205.293, 517066.1
1205.775, 541245.4
1206.257, 564413.6
1206.740, 587878.8
1207.222, 612417.8
1207.704, 637849.5
1208.186, 664155.0
1208.668, 691145.8
1209.150, 719209.9
1209.632, 748023.2
1210.114, 776076.9
1210.596, 802427.5
1211.078, 829599.0
1211.561, 858533.8
1212.043, 888234.2
1212.525, 919645.8
1213.007, 950393.0
1213.489, 978766.4
1213.971, 1005714.
1214.453, 1032120.
1214.935, 1058057.
1215.417, 1085405.
1215.900, 1114699.
1216.382, 1143352.
1216.864, 1171301.
1217.346, 1197286.
1217.828, 1220956.
1218.310, 1242224.
1218.792, 1261091.
1219.274, 1278770.
1219.757, 1298607.
1220.239, 1319364.
1220.721, 1334816.
1221.203, 1346002.
1221.685, 1357920.
1222.167, 1370781.
1222.649, 1382153.
1223.131, 1391161.
1223.614, 1397464.
1224.096, 1400690.
1224.578, 1401622.
1225.060, 1400652.
1225.542, 1398317.
1226.024, 1395564.
1226.506, 1391593.
1226.988, 1385250.
1227.470, 1376471.
1227.953, 1365558.
1228.435, 1349340.
1228.917, 1330991.
1229.399, 1310279.
1229.881, 1287990.
1230.363, 1263721.
1230.845, 1238463.
1231.327, 1212785.
1231.810, 1186679.
1232.292, 1160010.
1232.774, 1133080.
1233.256, 1105742.
1233.738, 1077454.
1234.220, 1049552.
1234.702, 1022151.
1235.184, 995058.1
1235.667, 968356.2
1236.149, 941564.1
1236.631, 914233.4
1237.113, 888040.8
1237.595, 864798.4
1238.077, 844287.1
1238.559, 826055.2
1239.041, 809955.2
1239.523, 794553.5
1240.005, 780316.8
1240.488, 769622.8
1240.970, 763053.2
1241.452, 760604.0
1241.934, 762348.6
1242.416, 767231.4
1242.898, 774722.0
1243.380, 784374.2
1243.862, 795510.2
1244.344, 808877.0
1244.827, 825252.5
1245.309, 844700.8
1245.791, 867972.5
1246.273, 894424.8
1246.755, 921124.8
1247.237, 947472.8
1247.719, 973678.0
1248.201, 999737.8
1248.684, 1025980.
1249.166, 1052993.
1249.648, 1079478.
1250.130, 1104344.
1250.612, 1128506.
1251.094, 1153863.
1251.576, 1179778.
1252.058, 1201734.
1252.541, 1219690.
1253.023, 1233655.
1253.505, 1243493.
1253.987, 1252765.
1254.469, 1262400.
1254.951, 1269421.
1255.433, 1272114.
1255.915, 1271203.
1256.397, 1267536.
1256.880, 1260901.
1257.362, 1250428.
1257.844, 1237108.
1258.326, 1222676.
1258.808, 1207090.
1259.290, 1190000.
1259.772, 1171177.
1260.254, 1150001.
1260.737, 1126153.
1261.219, 1100770.
1261.701, 1074681.
1262.183, 1046939.
1262.665, 1015623.
1263.147, 983933.5
1263.629, 954308.0
1264.111, 925632.0
1264.594, 896866.5
1265.076, 867579.0
1265.558, 835386.5
1266.040, 798653.0
1266.522, 765042.5
1267.004, 735581.2
1267.486, 705388.5
1267.968, 673379.2
1268.450, 641147.2
1268.932, 609445.0
1269.415, 578270.5
1269.897, 547397.5
1270.379, 516871.8
1270.861, 486291.0
1271.343, 456090.2
1271.825, 427678.2
1272.307, 400751.2
1272.789, 375256.0
1273.271, 350407.0
1273.754, 323361.8
1274.236, 293024.2
1274.718, 263772.2
1275.200, 238767.0
1275.682, 215545.2
1276.164, 192753.8
1276.646, 171175.2
1277.128, 152743.5
1277.611, 134961.0
1278.093, 114453.2
1278.575, 92306.75
1279.057, 72840.50
1279.539, 56575.00
1280.021, 41798.75
1280.503, 27979.00
1280.985, 16418.50
1281.468, 8470.500
1281.950, 2658.750
1282.432, 1302.000
1282.914, 3277.500
1283.396, 3087.500
1283.878, 865.2500
1284.360, 8211.750
1284.842, 7941.000
1285.324, 0.0000000E+00
##END=



