##NAMES=Paulingite-Ca
##RRUFFID=R120023
##IDEAL CHEMISTRY=(Ca,K,Na,Ba,[box])_10_(Si,Al)_42_O_84_&#183;34H_2_O
##LOCALITY=Vinařická hora hill, Kladno, Central Bohemian Region, Czech Republic
##OWNER=RRUFF
##SOURCE=Dr. Jürgen Wachsmuth
##DESCRIPTION=Pale yellow rhombic dodecahedra
##STATUS=The identification of this mineral has been confirmed by single-crystal X-ray diffraction.
##URL=rruff.info/R120023
215.8425, 17992.33
216.3246, 18026.07
216.8067, 18061.18
217.2889, 18094.76
217.7710, 18124.22
218.2531, 18146.51
218.7352, 18172.85
219.2173, 18203.35
219.6994, 18238.51
220.1816, 18281.16
220.6637, 18336.52
221.1458, 18390.51
221.6279, 18431.97
222.1100, 18453.59
222.5921, 18482.91
223.0743, 18525.58
223.5564, 18577.87
224.0385, 18624.23
224.5206, 18662.55
225.0027, 18697.59
225.4848, 18732.14
225.9670, 18766.31
226.4491, 18800.29
226.9312, 18834.88
227.4133, 18869.70
227.8954, 18904.27
228.3775, 18939.16
228.8597, 18972.27
229.3418, 19001.77
229.8239, 19026.61
230.3060, 19049.38
230.7881, 19067.84
231.2702, 19083.65
231.7524, 19104.54
232.2345, 19129.71
232.7166, 19159.61
233.1987, 19196.11
233.6808, 19248.05
234.1629, 19285.20
234.6451, 19300.46
235.1272, 19298.91
235.6093, 19304.01
236.0914, 19320.49
236.5735, 19337.20
237.0556, 19347.81
237.5378, 19349.64
238.0199, 19352.17
238.5020, 19357.56
238.9841, 19364.64
239.4662, 19366.96
239.9483, 19360.68
240.4305, 19356.13
240.9126, 19359.36
241.3947, 19374.69
241.8768, 19389.28
242.3589, 19401.54
242.8410, 19412.91
243.3232, 19428.95
243.8053, 19452.48
244.2874, 19476.44
244.7695, 19496.76
245.2516, 19511.55
245.7337, 19526.08
246.2159, 19540.15
246.6980, 19553.51
247.1801, 19565.45
247.6622, 19574.17
248.1443, 19583.58
248.6264, 19595.13
249.1086, 19608.22
249.5907, 19625.07
250.0728, 19648.21
250.5549, 19674.61
251.0370, 19696.53
251.5191, 19715.32
252.0013, 19728.29
252.4834, 19733.08
252.9655, 19724.33
253.4476, 19722.57
253.9297, 19730.51
254.4118, 19744.55
254.8940, 19756.68
255.3761, 19765.80
255.8582, 19774.83
256.3403, 19784.85
256.8224, 19796.11
257.3046, 19805.95
257.7867, 19812.18
258.2688, 19817.61
258.7509, 19828.42
259.2330, 19846.51
259.7151, 19865.08
260.1973, 19882.44
260.6794, 19899.28
261.1615, 19909.40
261.6436, 19909.27
262.1257, 19905.60
262.6078, 19910.99
263.0900, 19930.63
263.5721, 19947.94
264.0542, 19955.66
264.5363, 19951.71
265.0184, 19956.50
265.5005, 19973.69
265.9827, 19996.20
266.4648, 20012.95
266.9469, 20020.45
267.4290, 20032.65
267.9111, 20056.99
268.3932, 20094.69
268.8754, 20118.26
269.3575, 20122.43
269.8396, 20119.72
270.3217, 20126.17
270.8038, 20143.68
271.2859, 20160.77
271.7681, 20172.22
272.2502, 20178.18
272.7323, 20194.49
273.2144, 20225.19
273.6965, 20257.18
274.1786, 20275.28
274.6608, 20277.31
275.1429, 20278.22
275.6250, 20280.99
276.1071, 20285.64
276.5892, 20292.97
277.0714, 20303.85
277.5535, 20314.68
278.0356, 20320.63
278.5177, 20320.73
278.9998, 20325.30
279.4819, 20338.37
279.9641, 20356.99
280.4462, 20369.43
280.9283, 20376.11
281.4104, 20374.46
281.8925, 20357.80
282.3746, 20325.90
282.8568, 20302.66
283.3389, 20293.80
283.8210, 20295.39
284.3031, 20297.44
284.7852, 20300.64
285.2673, 20302.99
285.7495, 20303.35
286.2316, 20302.11
286.7137, 20298.80
287.1958, 20291.52
287.6779, 20285.45
288.1600, 20292.51
288.6422, 20312.78
289.1243, 20336.41
289.6064, 20357.76
290.0885, 20376.86
290.5706, 20393.22
291.0527, 20405.66
291.5349, 20416.71
292.0170, 20430.66
292.4991, 20446.88
292.9812, 20463.10
293.4633, 20478.63
293.9454, 20492.96
294.4276, 20504.48
294.9097, 20512.84
295.3918, 20519.29
295.8739, 20525.12
296.3560, 20530.35
296.8381, 20535.02
297.3203, 20536.68
297.8024, 20538.31
298.2845, 20547.47
298.7666, 20565.05
299.2487, 20583.93
299.7308, 20595.86
300.2130, 20603.33
300.6951, 20613.22
301.1772, 20629.85
301.6593, 20649.59
302.1414, 20667.31
302.6235, 20682.83
303.1057, 20698.70
303.5878, 20720.58
304.0699, 20743.85
304.5520, 20759.29
305.0341, 20760.20
305.5162, 20755.59
305.9984, 20754.22
306.4805, 20755.78
306.9626, 20757.81
307.4447, 20756.83
307.9268, 20755.87
308.4089, 20759.22
308.8911, 20770.05
309.3732, 20782.33
309.8553, 20791.43
310.3374, 20797.97
310.8195, 20804.10
311.3016, 20812.72
311.7838, 20820.44
312.2659, 20823.22
312.7480, 20817.30
313.2301, 20813.18
313.7122, 20818.13
314.1943, 20829.33
314.6765, 20840.87
315.1586, 20848.77
315.6407, 20857.11
316.1228, 20869.41
316.6049, 20887.32
317.0870, 20904.13
317.5692, 20919.64
318.0513, 20931.67
318.5334, 20937.04
319.0155, 20930.07
319.4976, 20920.32
319.9797, 20909.39
320.4619, 20896.75
320.9440, 20891.55
321.4261, 20903.06
321.9082, 20920.24
322.3903, 20932.55
322.8724, 20930.14
323.3546, 20929.84
323.8367, 20937.45
324.3188, 20952.62
324.8009, 20965.50
325.2830, 20974.17
325.7651, 20980.46
326.2473, 20985.68
326.7294, 20995.74
327.2115, 20998.96
327.6936, 20989.07
328.1757, 20970.18
328.6578, 20960.96
329.1400, 20966.88
329.6221, 20978.86
330.1042, 20993.96
330.5863, 21019.95
331.0684, 21036.06
331.5505, 21032.84
332.0327, 21021.04
332.5148, 21025.25
332.9969, 21055.16
333.4790, 21086.79
333.9611, 21112.27
334.4432, 21129.90
334.9254, 21144.53
335.4075, 21152.87
335.8896, 21159.68
336.3717, 21172.41
336.8538, 21193.87
337.3359, 21213.54
337.8180, 21229.04
338.3001, 21240.43
338.7823, 21247.76
339.2644, 21251.50
339.7465, 21251.22
340.2286, 21245.81
340.7107, 21235.01
341.1928, 21223.09
341.6750, 21209.36
342.1571, 21196.28
342.6392, 21196.84
343.1213, 21214.24
343.6034, 21229.53
344.0855, 21225.85
344.5677, 21204.27
345.0498, 21187.70
345.5319, 21177.82
346.0140, 21176.15
346.4961, 21190.07
346.9782, 21218.84
347.4604, 21245.45
347.9425, 21257.54
348.4246, 21259.15
348.9067, 21263.87
349.3888, 21272.16
349.8709, 21284.74
350.3531, 21306.65
350.8352, 21334.72
351.3173, 21357.18
351.7994, 21364.63
352.2815, 21364.64
352.7636, 21369.41
353.2458, 21378.74
353.7279, 21390.11
354.2100, 21400.04
354.6921, 21410.46
355.1742, 21425.56
355.6563, 21453.93
356.1385, 21479.54
356.6206, 21482.03
357.1027, 21465.82
357.5848, 21453.40
358.0669, 21462.88
358.5490, 21480.17
359.0312, 21492.08
359.5133, 21495.46
359.9954, 21495.31
360.4775, 21493.05
360.9596, 21489.73
361.4417, 21487.40
361.9239, 21484.13
362.4060, 21484.57
362.8881, 21493.69
363.3702, 21514.52
363.8523, 21530.78
364.3344, 21535.67
364.8166, 21533.78
365.2987, 21530.36
365.7808, 21519.86
366.2629, 21514.84
366.7450, 21520.18
367.2271, 21535.83
367.7093, 21552.12
368.1914, 21570.46
368.6735, 21587.18
369.1556, 21599.79
369.6377, 21598.88
370.1198, 21604.91
370.6020, 21624.13
371.0841, 21651.30
371.5662, 21667.65
372.0483, 21667.39
372.5304, 21662.71
373.0125, 21657.91
373.4947, 21652.25
373.9768, 21648.22
374.4589, 21645.41
374.9410, 21644.48
375.4231, 21647.24
375.9052, 21655.61
376.3874, 21663.57
376.8695, 21671.00
377.3516, 21678.14
377.8337, 21676.05
378.3158, 21661.92
378.7979, 21647.78
379.2801, 21647.75
379.7622, 21662.82
380.2443, 21674.03
380.7264, 21675.97
381.2085, 21673.32
381.6906, 21678.86
382.1728, 21692.46
382.6549, 21708.45
383.1370, 21722.40
383.6191, 21734.91
384.1012, 21748.93
384.5833, 21764.66
385.0655, 21780.81
385.5476, 21797.53
386.0297, 21813.62
386.5118, 21824.48
386.9939, 21823.90
387.4760, 21818.61
387.9582, 21817.90
388.4403, 21822.17
388.9224, 21830.06
389.4045, 21846.59
389.8866, 21864.86
390.3687, 21874.56
390.8509, 21865.22
391.3330, 21854.55
391.8151, 21857.70
392.2972, 21871.36
392.7793, 21881.44
393.2614, 21872.26
393.7436, 21862.37
394.2257, 21866.50
394.7078, 21893.71
395.1899, 21918.46
395.6720, 21928.92
396.1541, 21931.32
396.6363, 21935.77
397.1184, 21949.74
397.6005, 21961.18
398.0826, 21963.36
398.5647, 21953.99
399.0468, 21952.03
399.5290, 21968.26
400.0111, 21987.54
400.4932, 21997.50
400.9753, 21984.42
401.4574, 21980.91
401.9395, 21995.31
402.4217, 22022.82
402.9038, 22039.14
403.3859, 22036.47
403.8680, 22034.25
404.3501, 22043.01
404.8322, 22067.35
405.3144, 22086.51
405.7965, 22099.74
406.2786, 22108.40
406.7607, 22113.87
407.2428, 22115.58
407.7249, 22116.50
408.2071, 22115.56
408.6892, 22114.11
409.1713, 22122.65
409.6534, 22142.32
410.1355, 22164.99
410.6176, 22184.48
411.0998, 22200.79
411.5819, 22213.07
412.0640, 22219.62
412.5461, 22224.48
413.0282, 22236.67
413.5103, 22254.43
413.9925, 22268.02
414.4746, 22268.94
414.9567, 22263.01
415.4388, 22259.67
415.9209, 22260.03
416.4030, 22259.54
416.8852, 22252.83
417.3673, 22243.11
417.8494, 22235.57
418.3315, 22234.94
418.8136, 22235.25
419.2957, 22230.96
419.7779, 22223.50
420.2600, 22220.90
420.7421, 22231.32
421.2242, 22245.81
421.7063, 22258.36
422.1884, 22270.53
422.6706, 22276.71
423.1527, 22268.82
423.6348, 22254.93
424.1169, 22250.14
424.5990, 22265.77
425.0811, 22281.62
425.5633, 22289.71
426.0454, 22287.51
426.5275, 22292.60
427.0096, 22307.04
427.4917, 22326.47
427.9738, 22348.43
428.4560, 22377.79
428.9381, 22398.14
429.4202, 22405.15
429.9023, 22401.93
430.3844, 22400.00
430.8665, 22400.77
431.3487, 22398.81
431.8308, 22387.87
432.3129, 22366.96
432.7950, 22361.95
433.2771, 22377.04
433.7592, 22398.21
434.2414, 22408.18
434.7235, 22407.72
435.2056, 22403.55
435.6877, 22395.32
436.1698, 22386.84
436.6519, 22387.11
437.1341, 22395.97
437.6162, 22406.89
438.0983, 22419.75
438.5804, 22430.61
439.0625, 22429.12
439.5446, 22408.81
440.0268, 22392.55
440.5089, 22406.60
440.9910, 22439.57
441.4731, 22467.99
441.9552, 22477.35
442.4373, 22481.77
442.9195, 22490.76
443.4016, 22504.27
443.8837, 22514.89
444.3658, 22517.05
444.8479, 22515.94
445.3300, 22515.27
445.8122, 22509.21
446.2943, 22511.64
446.7764, 22533.07
447.2585, 22564.78
447.7406, 22584.65
448.2227, 22579.31
448.7049, 22573.85
449.1870, 22576.27
449.6691, 22588.63
450.1512, 22597.53
450.6333, 22602.10
451.1154, 22604.68
451.5976, 22607.24
452.0797, 22609.80
452.5618, 22614.25
453.0439, 22623.35
453.5260, 22633.78
454.0081, 22632.44
454.4903, 22617.12
454.9724, 22605.33
455.4545, 22607.77
455.9366, 22622.72
456.4187, 22639.54
456.9008, 22657.81
457.3830, 22676.40
457.8651, 22693.58
458.3472, 22709.40
458.8293, 22724.13
459.3114, 22739.65
459.7935, 22751.68
460.2757, 22750.12
460.7578, 22738.01
461.2399, 22731.71
461.7220, 22748.83
462.2041, 22772.38
462.6862, 22786.20
463.1684, 22787.11
463.6505, 22783.17
464.1326, 22774.96
464.6147, 22765.88
465.0968, 22760.10
465.5789, 22764.86
466.0611, 22767.96
466.5432, 22763.88
467.0253, 22753.78
467.5074, 22748.75
467.9895, 22753.95
468.4716, 22761.80
468.9538, 22768.99
469.4359, 22776.18
469.9180, 22780.46
470.4001, 22778.09
470.8822, 22774.95
471.3643, 22780.67
471.8465, 22798.08
472.3286, 22815.30
472.8107, 22830.01
473.2928, 22841.69
473.7749, 22847.13
474.2570, 22844.68
474.7392, 22843.77
475.2213, 22856.00
475.7034, 22878.20
476.1855, 22885.66
476.6676, 22872.53
477.1497, 22856.25
477.6319, 22864.94
478.1140, 22891.32
478.5961, 22911.16
479.0782, 22907.45
479.5603, 22895.90
480.0424, 22893.38
480.5246, 22899.39
481.0067, 22909.89
481.4888, 22928.63
481.9709, 22947.01
482.4530, 22956.23
482.9352, 22950.43
483.4173, 22945.27
483.8994, 22945.87
484.3815, 22950.89
484.8636, 22958.36
485.3457, 22970.76
485.8279, 22982.30
486.3100, 22992.68
486.7921, 23001.88
487.2742, 23005.88
487.7563, 22999.93
488.2384, 22994.37
488.7206, 22995.78
489.2027, 23008.48
489.6848, 23017.38
490.1669, 23021.39
490.6490, 23023.09
491.1311, 23025.98
491.6133, 23029.84
492.0954, 23036.11
492.5775, 23044.52
493.0596, 23055.63
493.5417, 23074.36
494.0238, 23100.52
494.5060, 23123.99
494.9881, 23133.00
495.4702, 23133.14
495.9523, 23140.44
496.4344, 23158.22
496.9165, 23175.54
497.3987, 23181.34
497.8808, 23178.85
498.3629, 23174.16
498.8450, 23167.78
499.3271, 23161.99
499.8092, 23160.27
500.2914, 23161.62
500.7735, 23159.75
501.2556, 23144.44
501.7377, 23131.43
502.2198, 23133.08
502.7019, 23162.35
503.1841, 23176.95
503.6662, 23159.75
504.1483, 23130.51
504.6304, 23112.26
505.1125, 23111.87
505.5946, 23111.73
506.0768, 23109.16
506.5589, 23104.57
507.0410, 23099.32
507.5231, 23091.39
508.0052, 23087.77
508.4873, 23093.44
508.9695, 23108.26
509.4516, 23122.10
509.9337, 23134.99
510.4158, 23145.54
510.8979, 23150.39
511.3800, 23150.90
511.8622, 23154.36
512.3443, 23166.31
512.8264, 23176.68
513.3085, 23165.55
513.7906, 23139.66
514.2728, 23123.01
514.7549, 23144.79
515.2370, 23171.75
515.7191, 23171.42
516.2012, 23140.09
516.6833, 23112.17
517.1655, 23103.65
517.6476, 23105.75
518.1297, 23111.05
518.6118, 23123.62
519.0939, 23132.67
519.5760, 23132.73
520.0582, 23128.39
520.5403, 23130.50
521.0224, 23142.43
521.5045, 23155.84
521.9866, 23168.01
522.4688, 23178.85
522.9509, 23193.84
523.4330, 23215.09
523.9151, 23235.01
524.3972, 23246.28
524.8793, 23248.43
525.3615, 23252.40
525.8436, 23258.39
526.3257, 23267.90
526.8078, 23288.61
527.2899, 23316.73
527.7720, 23333.90
528.2542, 23328.31
528.7363, 23311.18
529.2184, 23292.49
529.7005, 23273.82
530.1826, 23263.01
530.6647, 23274.57
531.1469, 23290.46
531.6290, 23293.62
532.1111, 23278.85
532.5932, 23266.62
533.0753, 23267.43
533.5574, 23274.22
534.0396, 23279.60
534.5217, 23284.32
535.0038, 23285.77
535.4859, 23280.48
535.9680, 23271.72
536.4501, 23270.26
536.9323, 23281.76
537.4144, 23290.83
537.8965, 23289.04
538.3786, 23275.74
538.8607, 23277.12
539.3428, 23296.94
539.8250, 23318.96
540.3071, 23325.66
540.7892, 23318.74
541.2713, 23317.22
541.7534, 23324.70
542.2355, 23335.82
542.7177, 23343.82
543.1998, 23349.40
543.6819, 23354.57
544.1640, 23361.45
544.6461, 23367.55
545.1282, 23368.38
545.6104, 23365.33
546.0925, 23366.43
546.5746, 23380.52
547.0567, 23397.08
547.5388, 23409.29
548.0209, 23415.47
548.5031, 23419.78
548.9852, 23418.67
549.4673, 23418.14
549.9494, 23424.82
550.4315, 23445.97
550.9136, 23462.79
551.3958, 23473.86
551.8779, 23478.90
552.3600, 23475.47
552.8421, 23460.14
553.3242, 23447.87
553.8063, 23447.48
554.2885, 23456.65
554.7706, 23455.19
555.2527, 23442.23
555.7348, 23428.73
556.2169, 23422.40
556.6990, 23423.20
557.1812, 23433.39
557.6633, 23456.62
558.1454, 23477.34
558.6275, 23476.59
559.1096, 23463.62
559.5917, 23454.58
560.0739, 23462.95
560.5560, 23470.52
561.0381, 23463.64
561.5202, 23446.73
562.0023, 23439.26
562.4844, 23456.43
562.9666, 23474.91
563.4487, 23483.81
563.9308, 23480.94
564.4129, 23477.81
564.8950, 23474.02
565.3771, 23469.98
565.8593, 23465.31
566.3414, 23458.86
566.8235, 23455.95
567.3056, 23457.19
567.7877, 23461.81
568.2698, 23470.46
568.7520, 23482.86
569.2341, 23491.99
569.7162, 23496.11
570.1983, 23495.31
570.6804, 23487.72
571.1625, 23474.53
571.6447, 23462.08
572.1268, 23452.69
572.6089, 23447.49
573.0910, 23448.51
573.5731, 23456.62
574.0552, 23466.75
574.5374, 23475.40
575.0195, 23485.56
575.5016, 23499.88
575.9837, 23525.43
576.4658, 23546.17
576.9479, 23558.47
577.4301, 23564.84
577.9122, 23569.91
578.3943, 23570.69
578.8764, 23574.70
579.3585, 23584.91
579.8406, 23599.79
580.3228, 23610.21
580.8049, 23615.61
581.2870, 23619.61
581.7691, 23624.67
582.2512, 23630.74
582.7333, 23639.28
583.2155, 23651.61
583.6975, 23658.51
584.1796, 23644.60
584.6617, 23621.63
585.1439, 23608.93
585.6260, 23614.25
586.1081, 23627.42
586.5902, 23652.29
587.0723, 23679.79
587.5544, 23691.98
588.0366, 23662.40
588.5187, 23638.22
589.0008, 23636.80
589.4829, 23657.03
589.9650, 23673.40
590.4471, 23683.83
590.9293, 23691.78
591.4114, 23698.05
591.8935, 23701.96
592.3756, 23707.40
592.8577, 23715.11
593.3398, 23721.89
593.8220, 23724.32
594.3041, 23722.88
594.7862, 23720.96
595.2683, 23720.18
595.7504, 23717.39
596.2325, 23705.77
596.7147, 23688.86
597.1968, 23675.61
597.6789, 23669.25
598.1610, 23668.93
598.6431, 23678.21
599.1252, 23694.58
599.6074, 23706.10
600.0895, 23709.82
600.5716, 23706.68
601.0537, 23694.19
601.5358, 23668.43
602.0179, 23652.20
602.5001, 23648.68
602.9822, 23651.78
603.4643, 23658.20
603.9464, 23669.72
604.4285, 23677.75
604.9106, 23681.43
605.3928, 23682.38
605.8749, 23680.05
606.3570, 23675.24
606.8391, 23680.10
607.3212, 23704.33
607.8033, 23732.13
608.2855, 23734.81
608.7676, 23718.71
609.2497, 23707.58
609.7318, 23719.74
610.2139, 23737.93
610.6960, 23748.77
611.1782, 23751.65
611.6603, 23753.97
612.1424, 23760.27
612.6245, 23765.46
613.1066, 23766.14
613.5887, 23759.59
614.0709, 23755.11
614.5530, 23754.16
615.0351, 23754.66
615.5172, 23753.88
615.9993, 23750.99
616.4814, 23752.29
616.9636, 23760.27
617.4457, 23770.52
617.9278, 23774.06
618.4099, 23771.29
618.8920, 23767.60
619.3741, 23762.57
619.8563, 23759.21
620.3384, 23764.25
620.8205, 23775.82
621.3026, 23785.48
621.7847, 23788.39
622.2668, 23787.37
622.7490, 23784.06
623.2311, 23778.61
623.7132, 23772.37
624.1953, 23762.53
624.6774, 23754.89
625.1595, 23754.23
625.6417, 23768.47
626.1238, 23775.69
626.6059, 23775.50
627.0880, 23769.67
627.5701, 23756.84
628.0522, 23735.24
628.5344, 23726.19
629.0165, 23736.14
629.4986, 23757.97
629.9807, 23783.69
630.4628, 23811.00
630.9449, 23827.70
631.4271, 23815.31
631.9092, 23796.94
632.3913, 23800.20
632.8734, 23821.73
633.3555, 23840.85
633.8376, 23841.18
634.3198, 23840.20
634.8019, 23851.13
635.2840, 23879.41
635.7661, 23896.54
636.2482, 23892.76
636.7303, 23882.99
637.2125, 23876.71
637.6946, 23874.00
638.1767, 23876.73
638.6588, 23888.38
639.1409, 23900.24
639.6230, 23897.41
640.1052, 23881.17
640.5873, 23867.83
641.0694, 23861.12
641.5515, 23860.62
642.0336, 23870.05
642.5157, 23885.78
642.9979, 23897.29
643.4800, 23890.95
643.9621, 23885.29
644.4442, 23898.41
644.9263, 23926.17
645.4084, 23943.62
645.8906, 23928.93
646.3727, 23914.09
646.8548, 23916.98
647.3369, 23941.35
647.8190, 23954.93
648.3011, 23953.49
648.7833, 23947.49
649.2654, 23943.07
649.7475, 23939.83
650.2296, 23944.12
650.7117, 23957.77
651.1938, 23973.18
651.6760, 23978.29
652.1581, 23976.98
652.6402, 23981.84
653.1223, 23998.32
653.6044, 24016.90
654.0865, 24031.10
654.5687, 24041.06
655.0508, 24047.33
655.5329, 24046.01
656.0150, 24045.27
656.4971, 24048.79
656.9792, 24055.75
657.4614, 24061.45
657.9435, 24065.32
658.4256, 24068.31
658.9077, 24069.88
659.3898, 24070.17
659.8719, 24075.67
660.3541, 24088.26
660.8362, 24096.97
661.3183, 24090.86
661.8004, 24074.09
662.2825, 24062.33
662.7646, 24056.50
663.2468, 24055.46
663.7289, 24062.73
664.2110, 24072.64
664.6931, 24077.53
665.1752, 24074.56
665.6573, 24070.24
666.1395, 24066.51
666.6216, 24063.70
667.1037, 24062.13
667.5858, 24060.90
668.0679, 24062.57
668.5500, 24068.24
669.0322, 24076.52
669.5143, 24085.12
669.9964, 24094.86
670.4785, 24100.31
670.9606, 24098.44
671.4427, 24091.80
671.9249, 24083.80
672.4070, 24075.54
672.8891, 24077.42
673.3712, 24109.60
673.8533, 24146.84
674.3354, 24155.20
674.8176, 24136.78
675.2997, 24120.96
675.7818, 24123.43
676.2639, 24132.70
676.7460, 24142.95
677.2281, 24154.50
677.7103, 24162.61
678.1924, 24163.39
678.6745, 24164.54
679.1566, 24172.21
679.6387, 24188.01
680.1208, 24201.80
680.6030, 24211.76
681.0851, 24223.11
681.5672, 24249.20
682.0493, 24284.07
682.5314, 24301.70
683.0135, 24290.61
683.4957, 24271.73
683.9778, 24265.73
684.4599, 24267.88
684.9420, 24269.50
685.4241, 24263.56
685.9063, 24260.53
686.3884, 24265.94
686.8705, 24277.81
687.3526, 24289.06
687.8347, 24300.63
688.3168, 24310.38
688.7990, 24317.70
689.2811, 24323.05
689.7632, 24327.24
690.2453, 24330.03
690.7274, 24334.17
691.2095, 24342.88
691.6917, 24353.93
692.1738, 24360.27
692.6559, 24361.74
693.1380, 24361.91
693.6201, 24363.69
694.1022, 24364.69
694.5844, 24360.91
695.0665, 24350.22
695.5486, 24343.85
696.0307, 24345.13
696.5128, 24352.18
696.9949, 24364.51
697.4771, 24390.58
697.9592, 24402.94
698.4413, 24395.76
698.9234, 24382.86
699.4055, 24385.21
699.8876, 24403.71
700.3698, 24405.28
700.8519, 24380.95
701.3340, 24348.36
701.8161, 24330.77
702.2982, 24324.88
702.7803, 24322.08
703.2625, 24320.72
703.7446, 24319.89
704.2267, 24317.28
704.7088, 24314.74
705.1909, 24316.44
705.6730, 24324.93
706.1552, 24335.49
706.6373, 24345.71
707.1194, 24356.17
707.6015, 24372.45
708.0836, 24397.40
708.5657, 24417.19
709.0479, 24423.85
709.5300, 24420.66
710.0121, 24423.16
710.4942, 24430.86
710.9763, 24437.17
711.4584, 24435.79
711.9406, 24431.48
712.4227, 24432.38
712.9048, 24438.68
713.3869, 24439.08
713.8690, 24423.26
714.3511, 24403.84
714.8333, 24389.32
715.3154, 24383.21
715.7975, 24375.59
716.2796, 24364.35
716.7617, 24355.14
717.2438, 24354.07
717.7260, 24362.64
718.2081, 24366.68
718.6902, 24365.12
719.1723, 24360.98
719.6544, 24353.33
720.1365, 24346.04
720.6187, 24349.77
721.1008, 24369.26
721.5829, 24392.29
722.0650, 24412.74
722.5471, 24429.79
723.0292, 24442.86
723.5114, 24445.20
723.9935, 24450.34
724.4756, 24461.17
724.9577, 24475.18
725.4398, 24488.91
725.9219, 24502.42
726.4041, 24514.03
726.8862, 24522.09
727.3683, 24529.12
727.8504, 24543.42
728.3325, 24563.36
728.8146, 24577.77
729.2968, 24578.20
729.7789, 24573.29
730.2610, 24570.79
730.7431, 24570.91
731.2252, 24574.29
731.7073, 24587.60
732.1895, 24598.07
732.6716, 24598.35
733.1537, 24589.15
733.6358, 24584.23
734.1179, 24587.90
734.6000, 24588.82
735.0822, 24581.33
735.5643, 24566.68
736.0464, 24555.14
736.5285, 24546.83
737.0106, 24542.65
737.4927, 24545.23
737.9749, 24551.78
738.4570, 24558.18
738.9391, 24564.15
739.4212, 24568.87
739.9033, 24574.34
740.3854, 24576.40
740.8676, 24570.03
741.3497, 24550.55
741.8318, 24539.03
742.3139, 24542.13
742.7960, 24546.79
743.2781, 24541.77
743.7603, 24523.79
744.2424, 24522.43
744.7245, 24541.95
745.2066, 24564.52
745.6887, 24570.86
746.1708, 24566.11
746.6530, 24562.59
747.1351, 24562.24
747.6172, 24565.09
748.0993, 24573.97
748.5814, 24585.06
749.0635, 24593.67
749.5457, 24594.18
750.0278, 24599.41
750.5099, 24607.78
750.9920, 24622.86
751.4741, 24652.98
751.9562, 24705.12
752.4384, 24737.49
752.9205, 24739.67
753.4026, 24728.09
753.8847, 24726.09
754.3668, 24732.29
754.8489, 24743.22
755.3311, 24762.25
755.8132, 24776.88
756.2953, 24770.60
756.7774, 24753.17
757.2595, 24741.89
757.7416, 24751.09
758.2238, 24756.97
758.7059, 24752.21
759.1880, 24741.74
759.6701, 24736.01
760.1522, 24738.05
760.6343, 24735.84
761.1165, 24723.88
761.5986, 24708.92
762.0807, 24708.43
762.5628, 24720.62
763.0449, 24734.36
763.5270, 24747.91
764.0092, 24757.55
764.4913, 24756.31
764.9734, 24747.69
765.4555, 24742.83
765.9376, 24748.08
766.4197, 24754.88
766.9019, 24758.63
767.3840, 24760.75
767.8661, 24770.88
768.3482, 24793.71
768.8303, 24809.72
769.3124, 24807.73
769.7946, 24793.95
770.2767, 24791.00
770.7588, 24797.86
771.2409, 24805.09
771.7230, 24804.71
772.2051, 24803.66
772.6873, 24812.08
773.1694, 24828.17
773.6515, 24836.90
774.1336, 24823.63
774.6157, 24811.42
775.0978, 24812.97
775.5800, 24827.68
776.0621, 24831.08
776.5442, 24818.62
777.0263, 24808.10
777.5084, 24809.35
777.9905, 24820.56
778.4727, 24834.92
778.9548, 24852.14
779.4369, 24868.96
779.9190, 24885.90
780.4011, 24899.02
780.8832, 24903.01
781.3654, 24897.49
781.8475, 24891.56
782.3296, 24887.47
782.8117, 24884.12
783.2938, 24880.81
783.7759, 24877.54
784.2581, 24876.18
784.7402, 24877.79
785.2223, 24879.28
785.7044, 24879.94
786.1865, 24879.34
786.6686, 24873.00
787.1508, 24861.14
787.6329, 24851.59
788.1150, 24849.28
788.5971, 24852.55
789.0792, 24859.97
789.5613, 24871.36
790.0435, 24885.79
790.5256, 24910.04
791.0077, 24930.13
791.4898, 24935.79
791.9719, 24922.44
792.4540, 24925.60
792.9362, 24948.28
793.4183, 24972.93
793.9004, 24985.08
794.3825, 24987.30
794.8646, 24986.39
795.3467, 24982.88
795.8289, 24976.75
796.3110, 24965.86
796.7931, 24954.37
797.2752, 24945.80
797.7573, 24940.90
798.2394, 24939.50
798.7216, 24946.95
799.2037, 24952.86
799.6858, 24948.31
800.1679, 24930.54
800.6500, 24929.18
801.1321, 24946.97
801.6143, 24964.64
802.0964, 24960.14
802.5785, 24944.27
803.0606, 24938.16
803.5427, 24944.52
804.0248, 24953.16
804.5070, 24956.12
804.9891, 24959.80
805.4712, 24969.35
805.9533, 24987.30
806.4354, 25005.05
806.9175, 25025.16
807.3997, 25040.76
807.8818, 25044.36
808.3639, 25036.20
808.8460, 25033.97
809.3281, 25038.76
809.8102, 25043.05
810.2924, 25035.85
810.7745, 25026.09
811.2566, 25027.70
811.7387, 25043.87
812.2208, 25058.86
812.7029, 25064.12
813.1851, 25067.94
813.6672, 25076.91
814.1493, 25093.51
814.6314, 25104.19
815.1135, 25105.46
815.5956, 25109.27
816.0778, 25130.12
816.5599, 25162.45
817.0420, 25178.17
817.5241, 25175.31
818.0062, 25170.56
818.4883, 25176.74
818.9705, 25187.08
819.4526, 25194.31
819.9347, 25196.47
820.4168, 25201.75
820.8989, 25220.20
821.3810, 25234.15
821.8632, 25232.82
822.3453, 25214.14
822.8274, 25203.89
823.3095, 25204.11
823.7916, 25204.16
824.2737, 25194.39
824.7559, 25179.36
825.2380, 25166.11
825.7201, 25155.59
826.2022, 25151.92
826.6843, 25169.83
827.1664, 25186.19
827.6486, 25180.50
828.1307, 25145.46
828.6128, 25131.60
829.0949, 25148.21
829.5770, 25169.50
830.0591, 25181.08
830.5413, 25183.83
831.0234, 25191.24
831.5055, 25203.06
831.9876, 25214.02
832.4697, 25225.21
832.9518, 25230.44
833.4340, 25214.37
833.9161, 25179.17
834.3982, 25163.21
834.8803, 25206.42
835.3624, 25245.64
835.8445, 25250.21
836.3267, 25222.08
836.8088, 25207.20
837.2909, 25208.46
837.7730, 25210.77
838.2551, 25200.93
838.7372, 25187.80
839.2194, 25199.29
839.7015, 25230.89
840.1836, 25256.19
840.6657, 25253.76
841.1478, 25245.70
841.6299, 25244.95
842.1121, 25251.12
842.5942, 25256.20
843.0763, 25259.36
843.5584, 25261.23
844.0405, 25260.53
844.5226, 25258.84
845.0048, 25264.02
845.4869, 25275.45
845.9690, 25286.44
846.4511, 25293.82
846.9332, 25298.77
847.4153, 25302.10
847.8975, 25304.25
848.3796, 25306.13
848.8617, 25309.99
849.3438, 25312.09
849.8259, 25311.04
850.3080, 25308.14
850.7902, 25305.30
851.2723, 25301.76
851.7544, 25305.00
852.2365, 25320.07
852.7186, 25338.61
853.2007, 25343.64
853.6829, 25339.74
854.1650, 25339.46
854.6471, 25348.16
855.1292, 25360.53
855.6113, 25377.04
856.0934, 25394.32
856.5756, 25406.34
857.0577, 25408.78
857.5398, 25414.09
858.0219, 25424.10
858.5040, 25436.63
858.9861, 25449.56
859.4683, 25462.21
859.9504, 25470.31
860.4325, 25471.74
860.9146, 25471.53
861.3967, 25477.04
861.8788, 25482.29
862.3610, 25478.85
862.8431, 25449.71
863.3252, 25440.34
863.8073, 25468.89
864.2894, 25503.26
864.7715, 25509.80
865.2537, 25487.23
865.7358, 25470.29
866.2179, 25462.15
866.7000, 25457.86
867.1821, 25454.21
867.6642, 25450.93
868.1464, 25443.87
868.6285, 25429.83
869.1106, 25432.74
869.5927, 25486.63
870.0748, 25540.01
870.5569, 25555.72
871.0391, 25525.64
871.5212, 25509.57
872.0033, 25508.00
872.4854, 25515.41
872.9675, 25531.28
873.4496, 25551.16
873.9318, 25563.57
874.4139, 25568.40
874.8960, 25573.73
875.3781, 25590.85
875.8602, 25604.18
876.3423, 25601.82
876.8245, 25583.57
877.3066, 25570.80
877.7887, 25568.83
878.2708, 25562.47
878.7529, 25542.67
879.2350, 25516.79
879.7172, 25509.21
880.1993, 25518.61
880.6814, 25531.83
881.1635, 25546.02
881.6456, 25557.93
882.1277, 25559.59
882.6099, 25556.33
883.0920, 25564.46
883.5741, 25599.61
884.0562, 25626.63
884.5383, 25636.63
885.0204, 25636.92
885.5026, 25644.13
885.9847, 25657.25
886.4668, 25668.13
886.9489, 25672.40
887.4310, 25677.36
887.9131, 25694.84
888.3953, 25717.32
888.8774, 25733.63
889.3595, 25737.69
889.8416, 25740.94
890.3237, 25748.62
890.8058, 25754.06
891.2880, 25749.49
891.7701, 25734.41
892.2522, 25715.74
892.7343, 25692.33
893.2164, 25675.78
893.6985, 25683.49
894.1807, 25703.41
894.6628, 25720.14
895.1449, 25731.83
895.6270, 25734.53
896.1091, 25717.09
896.5912, 25698.66
897.0734, 25690.49
897.5555, 25693.44
898.0376, 25701.75
898.5197, 25717.50
899.0018, 25728.07
899.4839, 25716.44
899.9661, 25697.26
900.4482, 25700.81
900.9303, 25724.38
901.4124, 25746.31
901.8945, 25755.60
902.3766, 25761.04
902.8588, 25764.25
903.3409, 25766.34
903.8230, 25772.08
904.3051, 25780.19
904.7872, 25796.31
905.2693, 25826.30
905.7515, 25859.89
906.2336, 25876.69
906.7157, 25879.69
907.1978, 25877.70
907.6799, 25866.60
908.1620, 25861.05
908.6442, 25872.12
909.1263, 25891.92
909.6084, 25908.07
910.0905, 25923.08
910.5726, 25926.54
911.0547, 25914.37
911.5369, 25899.07
912.0190, 25897.08
912.5011, 25905.38
912.9832, 25916.22
913.4653, 25929.00
913.9474, 25939.52
914.4296, 25943.15
914.9117, 25944.46
915.3938, 25947.44
915.8759, 25952.99
916.3580, 25954.48
916.8401, 25948.14
917.3223, 25945.98
917.8044, 25963.91
918.2865, 25992.72
918.7686, 25993.16
919.2507, 25968.33
919.7328, 25948.30
920.2150, 25962.28
920.6971, 25978.16
921.1792, 25971.47
921.6613, 25946.10
922.1434, 25936.20
922.6255, 25948.38
923.1077, 25963.11
923.5898, 25975.97
924.0719, 25986.65
924.5540, 25992.69
925.0361, 25995.38
925.5182, 26000.89
926.0004, 26014.24
926.4825, 26025.29
926.9646, 26023.46
927.4467, 26016.22
927.9288, 26015.42
928.4109, 26026.30
928.8931, 26033.86
929.3752, 26037.66
929.8573, 26037.37
930.3394, 26031.11
930.8215, 26020.62
931.3036, 26011.69
931.7858, 26005.40
932.2679, 25999.37
932.7500, 25992.12
933.2321, 25985.11
933.7142, 25979.99
934.1964, 25977.83
934.6785, 25972.49
935.1606, 25960.47
935.6427, 25955.21
936.1248, 25967.48
936.6069, 25990.94
937.0891, 26000.54
937.5712, 25999.57
938.0533, 26004.53
938.5354, 26032.71
939.0175, 26060.43
939.4996, 26071.73
939.9818, 26071.29
940.4639, 26073.79
940.9460, 26080.67
941.4281, 26085.22
941.9102, 26083.80
942.3923, 26083.42
942.8745, 26098.34
943.3566, 26123.82
943.8387, 26145.62
944.3208, 26159.21
944.8029, 26172.68
945.2850, 26194.61
945.7672, 26216.62
946.2493, 26231.79
946.7314, 26241.76
947.2135, 26238.06
947.6956, 26217.25
948.1777, 26195.67
948.6599, 26186.20
949.1420, 26185.68
949.6241, 26187.40
950.1062, 26190.96
950.5883, 26195.76
951.0704, 26199.12
951.5526, 26205.49
952.0347, 26219.01
952.5168, 26237.40
952.9989, 26253.99
953.4810, 26270.28
953.9631, 26276.72
954.4453, 26268.99
954.9274, 26252.86
955.4095, 26230.26
955.8916, 26207.87
956.3737, 26201.24
956.8558, 26229.09
957.3380, 26247.70
957.8201, 26234.03
958.3022, 26210.28
958.7843, 26195.57
959.2664, 26190.01
959.7485, 26197.26
960.2307, 26219.36
960.7128, 26239.78
961.1949, 26236.07
961.6770, 26225.41
962.1591, 26236.55
962.6412, 26269.65
963.1234, 26293.76
963.6055, 26282.58
964.0876, 26277.89
964.5697, 26299.20
965.0518, 26337.60
965.5339, 26353.06
966.0161, 26345.32
966.4982, 26336.26
966.9803, 26330.63
967.4624, 26332.78
967.9445, 26356.01
968.4266, 26388.29
968.9088, 26409.33
969.3909, 26410.97
969.8730, 26404.51
970.3551, 26388.97
970.8372, 26369.17
971.3193, 26346.93
971.8015, 26323.79
972.2836, 26311.20
972.7657, 26310.57
973.2478, 26314.68
973.7299, 26323.80
974.2120, 26331.12
974.6942, 26326.96
975.1763, 26310.91
975.6584, 26309.07
976.1405, 26326.44
976.6226, 26349.12
977.1047, 26373.62
977.5869, 26398.22
978.0690, 26415.19
978.5511, 26426.99
979.0332, 26444.77
979.5153, 26482.84
979.9974, 26513.29
980.4796, 26518.65
980.9617, 26507.99
981.4438, 26493.42
981.9259, 26470.23
982.4080, 26460.95
982.8901, 26469.81
983.3723, 26481.21
983.8544, 26474.49
984.3365, 26461.31
984.8186, 26467.06
985.3007, 26493.43
985.7828, 26515.16
986.2650, 26518.67
986.7471, 26517.83
987.2292, 26517.98
987.7113, 26519.00
988.1934, 26517.23
988.6755, 26511.65
989.1577, 26523.37
989.6398, 26570.08
990.1219, 26620.68
990.6040, 26635.26
991.0861, 26627.68
991.5682, 26621.45
992.0504, 26622.23
992.5325, 26626.08
993.0146, 26634.05
993.4967, 26642.98
993.9788, 26651.16
994.4609, 26658.38
994.9431, 26661.21
995.4252, 26659.67
995.9073, 26656.99
996.3894, 26658.47
996.8715, 26657.54
997.3536, 26645.23
997.8358, 26623.34
998.3179, 26614.44
998.8000, 26624.39
999.2821, 26632.81
999.7642, 26632.07
1000.246, 26629.18
1000.728, 26641.56
1001.211, 26663.15
1001.693, 26677.80
1002.175, 26679.20
1002.657, 26676.63
1003.139, 26669.51
1003.621, 26663.56
1004.103, 26663.63
1004.585, 26670.12
1005.068, 26680.25
1005.550, 26693.98
1006.032, 26710.12
1006.514, 26730.46
1006.996, 26750.44
1007.478, 26763.46
1007.960, 26770.25
1008.442, 26777.58
1008.924, 26787.61
1009.407, 26797.63
1009.889, 26807.93
1010.371, 26817.03
1010.853, 26824.53
1011.335, 26829.42
1011.817, 26821.06
1012.299, 26793.54
1012.781, 26770.01
1013.263, 26774.08
1013.746, 26787.50
1014.228, 26792.46
1014.710, 26786.24
1015.192, 26782.43
1015.674, 26780.80
1016.156, 26783.79
1016.638, 26794.95
1017.120, 26810.50
1017.603, 26818.71
1018.085, 26823.09
1018.567, 26836.56
1019.049, 26876.04
1019.531, 26910.22
1020.013, 26926.82
1020.495, 26933.66
1020.977, 26940.48
1021.459, 26946.74
1021.942, 26957.72
1022.424, 26974.76
1022.906, 26989.89
1023.388, 27001.87
1023.870, 27004.84
1024.352, 26985.75
1024.834, 26941.30
1025.316, 26924.50
1025.799, 26954.20
1026.281, 26979.73
1026.763, 26977.35
1027.245, 26961.35
1027.727, 26972.75
1028.209, 27003.19
1028.691, 27023.58
1029.173, 27014.57
1029.656, 27005.89
1030.138, 27010.71
1030.620, 27022.73
1031.102, 27035.86
1031.584, 27050.69
1032.066, 27059.65
1032.548, 27061.55
1033.030, 27063.96
1033.512, 27069.88
1033.995, 27081.59
1034.477, 27105.95
1034.959, 27140.18
1035.441, 27167.62
1035.923, 27188.35
1036.405, 27194.72
1036.887, 27180.46
1037.369, 27156.93
1037.851, 27146.93
1038.334, 27147.32
1038.816, 27143.60
1039.298, 27130.98
1039.780, 27122.33
1040.262, 27128.07
1040.744, 27139.63
1041.226, 27153.18
1041.708, 27169.80
1042.191, 27165.98
1042.673, 27138.36
1043.155, 27119.88
1043.637, 27136.36
1044.119, 27165.12
1044.601, 27172.47
1045.083, 27167.65
1045.565, 27171.44
1046.047, 27205.12
1046.530, 27224.54
1047.012, 27219.55
1047.494, 27208.71
1047.976, 27213.69
1048.458, 27231.21
1048.940, 27244.02
1049.422, 27250.96
1049.904, 27261.71
1050.386, 27291.49
1050.869, 27318.42
1051.351, 27323.15
1051.833, 27312.80
1052.315, 27317.92
1052.797, 27340.56
1053.279, 27362.82
1053.761, 27381.67
1054.243, 27394.03
1054.726, 27387.18
1055.208, 27375.36
1055.690, 27380.51
1056.172, 27415.08
1056.654, 27441.23
1057.136, 27456.88
1057.618, 27462.51
1058.100, 27455.12
1058.583, 27438.58
1059.065, 27424.99
1059.547, 27415.28
1060.029, 27413.50
1060.511, 27427.48
1060.993, 27443.40
1061.475, 27453.94
1061.957, 27464.13
1062.439, 27482.70
1062.922, 27511.68
1063.404, 27532.62
1063.886, 27544.22
1064.368, 27546.41
1064.850, 27530.02
1065.332, 27510.83
1065.814, 27504.38
1066.296, 27511.23
1066.778, 27523.67
1067.261, 27548.37
1067.743, 27559.42
1068.225, 27545.09
1068.707, 27521.82
1069.189, 27520.78
1069.671, 27534.63
1070.153, 27547.59
1070.635, 27556.85
1071.118, 27560.26
1071.600, 27552.21
1072.082, 27542.54
1072.564, 27537.54
1073.046, 27536.95
1073.528, 27530.37
1074.010, 27519.10
1074.492, 27516.18
1074.974, 27538.71
1075.457, 27561.33
1075.939, 27558.74
1076.421, 27545.85
1076.903, 27549.92
1077.385, 27582.51
1077.867, 27596.94
1078.349, 27587.21
1078.831, 27574.75
1079.313, 27579.67
1079.796, 27593.84
1080.278, 27607.30
1080.760, 27618.82
1081.242, 27625.86
1081.724, 27618.21
1082.206, 27619.01
1082.688, 27636.42
1083.170, 27660.29
1083.652, 27672.33
1084.135, 27674.84
1084.617, 27673.98
1085.099, 27670.19
1085.581, 27670.62
1086.063, 27687.15
1086.545, 27702.40
1087.027, 27703.86
1087.509, 27693.47
1087.992, 27691.38
1088.474, 27697.71
1088.956, 27704.57
1089.438, 27708.37
1089.920, 27711.99
1090.402, 27718.53
1090.884, 27726.55
1091.366, 27733.76
1091.849, 27737.48
1092.331, 27748.18
1092.813, 27768.04
1093.295, 27787.43
1093.777, 27797.93
1094.259, 27803.54
1094.741, 27811.24
1095.223, 27820.68
1095.705, 27830.71
1096.188, 27836.38
1096.670, 27848.95
1097.152, 27875.08
1097.634, 27901.17
1098.116, 27905.63
1098.598, 27893.96
1099.080, 27890.61
1099.562, 27897.86
1100.044, 27916.44
1100.527, 27970.89
1101.009, 28012.78
1101.491, 28008.81
1101.973, 27974.00
1102.455, 27951.64
1102.937, 27942.07
1103.419, 27936.73
1103.901, 27933.92
1104.384, 27934.81
1104.866, 27940.49
1105.348, 27950.62
1105.830, 27968.57
1106.312, 27996.89
1106.794, 28004.82
1107.276, 27986.88
1107.758, 27968.74
1108.240, 27957.95
1108.723, 27958.24
1109.205, 27981.49
1109.687, 28018.49
1110.169, 28051.46
1110.651, 28069.86
1111.133, 28096.56
1111.615, 28144.44
1112.097, 28180.54
1112.579, 28167.63
1113.062, 28123.31
1113.544, 28112.69
1114.026, 28129.99
1114.508, 28145.34
1114.990, 28139.88
1115.472, 28135.88
1115.954, 28142.99
1116.436, 28153.38
1116.919, 28155.91
1117.401, 28151.68
1117.883, 28152.08
1118.365, 28158.41
1118.847, 28169.42
1119.329, 28192.13
1119.811, 28212.18
1120.293, 28217.71
1120.776, 28212.48
1121.258, 28207.55
1121.740, 28201.75
1122.222, 28207.65
1122.704, 28230.82
1123.186, 28251.17
1123.668, 28239.69
1124.150, 28219.54
1124.632, 28218.86
1125.115, 28243.28
1125.597, 28246.49
1126.079, 28218.12
1126.561, 28203.43
1127.043, 28227.70
1127.525, 28262.49
1128.007, 28259.56
1128.489, 28234.67
1128.971, 28213.60
1129.454, 28202.10
1129.936, 28199.96
1130.418, 28214.06
1130.900, 28224.47
1131.382, 28213.48
1131.864, 28192.15
1132.346, 28195.24
1132.828, 28217.14
1133.311, 28239.50
1133.793, 28246.22
1134.275, 28262.89
1134.757, 28300.96
1135.239, 28343.38
1135.721, 28375.71
1136.203, 28397.53
1136.685, 28409.66
1137.167, 28412.45
1137.650, 28413.21
1138.132, 28412.27
1138.614, 28414.57
1139.096, 28431.49
1139.578, 28449.25
1140.060, 28439.48
1140.542, 28401.49
1141.024, 28392.00
1141.506, 28418.83
1141.989, 28447.08
1142.471, 28449.76
1142.953, 28443.36
1143.435, 28438.07
1143.917, 28435.16
1144.399, 28434.97
1144.881, 28437.10
1145.363, 28445.48
1145.846, 28461.03
1146.328, 28480.77
1146.810, 28509.48
1147.292, 28534.48
1147.774, 28535.77
1148.256, 28508.11
1148.738, 28510.00
1149.220, 28553.20
1149.703, 28583.97
1150.185, 28579.03
1150.667, 28561.22
1151.149, 28561.32
1151.631, 28573.02
1152.113, 28588.08
1152.595, 28608.73
1153.077, 28617.39
1153.559, 28609.46
1154.042, 28599.43
1154.524, 28592.65
1155.006, 28591.17
1155.488, 28606.28
1155.970, 28629.73
1156.452, 28640.61
1156.934, 28624.86
1157.416, 28609.61
1157.898, 28596.55
1158.381, 28588.43
1158.863, 28589.00
1159.345, 28596.22
1159.827, 28600.59
1160.309, 28603.45
1160.791, 28610.64
1161.273, 28626.96
1161.755, 28644.46
1162.238, 28660.55
1162.720, 28676.70
1163.202, 28696.68
1163.684, 28718.53
1164.166, 28729.47
1164.648, 28729.83
1165.130, 28729.03
1165.612, 28733.27
1166.094, 28736.41
1166.577, 28735.97
1167.059, 28733.26
1167.541, 28730.93
1168.023, 28728.88
1168.505, 28719.18
1168.987, 28701.11
1169.469, 28692.72
1169.951, 28711.91
1170.433, 28739.72
1170.916, 28771.76
1171.398, 28802.16
1171.880, 28813.34
1172.362, 28805.56
1172.844, 28803.70
1173.326, 28812.45
1173.808, 28825.27
1174.290, 28840.58
1174.773, 28853.99
1175.255, 28859.12
1175.737, 28858.36
1176.219, 28866.65
1176.701, 28884.84
1177.183, 28895.03
1177.665, 28890.88
1178.147, 28883.76
1178.630, 28886.08
1179.112, 28890.06
1179.594, 28883.35
1180.076, 28865.87
1180.558, 28878.17
1181.040, 28924.96
1181.522, 28957.07
1182.004, 28950.09
1182.486, 28933.15
1182.969, 28932.79
1183.451, 28943.07
1183.933, 28957.27
1184.415, 28974.03
1184.897, 28997.81
1185.379, 29031.00
1185.861, 29054.31
1186.343, 29051.42
1186.825, 29041.82
1187.308, 29051.30
1187.790, 29068.72
1188.272, 29076.19
1188.754, 29068.41
1189.236, 29057.79
1189.718, 29042.63
1190.200, 29035.05
1190.682, 29049.32
1191.165, 29070.81
1191.647, 29082.81
1192.129, 29087.38
1192.611, 29088.00
1193.093, 29083.21
1193.575, 29079.75
1194.057, 29077.18
1194.539, 29078.66
1195.021, 29086.32
1195.504, 29099.50
1195.986, 29122.04
1196.468, 29149.03
1196.950, 29166.14
1197.432, 29167.72
1197.914, 29164.35
1198.396, 29153.61
1198.878, 29147.82
1199.360, 29165.66
1199.843, 29191.44
1200.325, 29201.63
1200.807, 29199.19
1201.289, 29199.28
1201.771, 29208.69
1202.253, 29211.48
1202.735, 29203.35
1203.217, 29198.66
1203.700, 29217.54
1204.182, 29247.48
1204.664, 29270.26
1205.146, 29285.78
1205.628, 29304.27
1206.110, 29328.71
1206.592, 29351.10
1207.074, 29369.79
1207.557, 29385.03
1208.039, 29392.98
1208.521, 29399.45
1209.003, 29415.54
1209.485, 29440.94
1209.967, 29458.80
1210.449, 29464.69
1210.931, 29469.23
1211.413, 29474.52
1211.896, 29480.64
1212.378, 29489.28
1212.860, 29498.62
1213.342, 29509.18
1213.824, 29521.28
1214.306, 29515.43
1214.788, 29482.58
1215.270, 29455.26
1215.752, 29442.74
1216.235, 29438.45
1216.717, 29436.55
1217.199, 29435.03
1217.681, 29428.93
1218.163, 29417.01
1218.645, 29415.19
1219.127, 29427.25
1219.609, 29440.72
1220.092, 29451.88
1220.574, 29462.37
1221.056, 29476.12
1221.538, 29489.88
1222.020, 29496.74
1222.502, 29493.26
1222.984, 29501.96
1223.466, 29527.33
1223.948, 29549.80
1224.431, 29560.72
1224.913, 29567.38
1225.395, 29581.04
1225.877, 29596.91
1226.359, 29608.43
1226.841, 29613.55
1227.323, 29619.38
1227.805, 29627.74
1228.287, 29629.07
1228.770, 29616.53
1229.252, 29600.37
1229.734, 29590.73
1230.216, 29588.42
1230.698, 29597.63
1231.180, 29623.81
1231.662, 29633.57
1232.144, 29624.66
1232.627, 29613.84
1233.109, 29610.19
1233.591, 29606.51
1234.073, 29589.17
1234.555, 29569.42
1235.037, 29564.55
1235.519, 29580.02
1236.001, 29585.46
1236.484, 29579.34
1236.966, 29581.13
1237.448, 29608.22
1237.930, 29635.70
1238.412, 29628.89
1238.894, 29611.66
1239.376, 29617.65
1239.858, 29649.76
1240.340, 29686.08
1240.823, 29725.86
1241.305, 29760.06
1241.787, 29782.82
1242.269, 29797.30
1242.751, 29795.93
1243.233, 29792.95
1243.715, 29809.69
1244.197, 29850.11
1244.679, 29865.91
1245.162, 29857.70
1245.644, 29844.17
1246.126, 29826.79
1246.608, 29819.88
1247.090, 29849.37
1247.572, 29884.63
1248.054, 29887.86
1248.536, 29858.02
1249.019, 29850.22
1249.501, 29863.09
1249.983, 29876.36
1250.465, 29870.21
1250.947, 29872.82
1251.429, 29914.44
1251.911, 29958.64
1252.393, 29964.91
1252.875, 29936.05
1253.358, 29941.36
1253.840, 29975.43
1254.322, 30005.56
1254.804, 30010.18
1255.286, 30012.36
1255.768, 30018.46
1256.250, 30026.41
1256.732, 30033.91
1257.214, 30041.94
1257.697, 30059.84
1258.179, 30084.84
1258.661, 30102.42
1259.143, 30100.03
1259.625, 30099.87
1260.107, 30107.38
1260.589, 30117.46
1261.071, 30122.15
1261.554, 30126.69
1262.036, 30156.23
1262.518, 30200.89
1263.000, 30228.18
1263.482, 30212.07
1263.964, 30195.36
1264.446, 30177.29
1264.928, 30168.31
1265.411, 30186.58
1265.893, 30214.73
1266.375, 30214.30
1266.857, 30196.13
1267.339, 30190.30
1267.821, 30212.86
1268.303, 30236.75
1268.785, 30264.20
1269.267, 30285.37
1269.750, 30286.38
1270.232, 30281.61
1270.714, 30293.08
1271.196, 30312.90
1271.678, 30319.89
1272.160, 30302.35
1272.642, 30305.60
1273.124, 30332.46
1273.606, 30360.95
1274.089, 30369.43
1274.571, 30377.08
1275.053, 30411.15
1275.535, 30451.40
1276.017, 30460.94
1276.499, 30432.35
1276.981, 30420.74
1277.463, 30427.17
1277.946, 30434.34
1278.428, 30428.11
1278.910, 30423.39
1279.392, 30437.48
1279.874, 30453.58
1280.356, 30447.06
1280.838, 30419.32
1281.320, 30422.41
1281.802, 30453.30
1282.285, 30478.38
1282.767, 30470.15
1283.249, 30464.73
1283.731, 30477.15
1284.213, 30494.68
1284.695, 30506.41
1285.177, 30513.39
1285.659, 30519.12
1286.141, 30525.11
1286.624, 30537.89
1287.106, 30566.63
1287.588, 30593.10
1288.070, 30616.26
1288.552, 30633.73
1289.034, 30638.95
1289.516, 30638.92
1289.998, 30650.28
1290.481, 30669.58
1290.963, 30687.81
1291.445, 30711.45
1291.927, 30712.62
1292.409, 30683.39
1292.891, 30662.92
1293.373, 30693.83
1293.855, 30737.87
1294.338, 30742.14
1294.820, 30724.96
1295.302, 30722.20
1295.784, 30741.81
1296.266, 30750.38
1296.748, 30746.97
1297.230, 30748.28
1297.712, 30768.04
1298.194, 30791.69
1298.677, 30808.67
1299.159, 30820.92
1299.641, 30830.92
1300.123, 30838.46
1300.605, 30831.45
1301.087, 30810.65
1301.569, 30784.30
1302.051, 30750.43
1302.533, 30714.59
1303.016, 30677.84
##END=



