##NAMES=Pearceite
##RRUFFID=R060689
##IDEAL CHEMISTRY=Cu(Ag,Cu)_6_Ag_9_As_2_S_11_
##LOCALITY=Clara mine, Rankach Valley, Oberwolfach, Wolfach, Black Forest, Baden-Württemberg, Germany
##OWNER=RRUFF
##SOURCE=Michael Scott
##DESCRIPTION=Black tabular hexagonal prism in quartz. X-ray diffraction shows that this is pearceite-Tac. 
##STATUS=The identification of this mineral is confirmed by single-crystal X-ray diffraction and chemical analysis.
##URL=rruff.info/R060689
##MEASURED CHEMISTRY=Cu_1.00_(Ag_3.28_Cu_2.72_)_Σ=6.00_Ag_9.61_(As_1.63_Sb_0.37_)_Σ=2.00_S_11_  (Dark material is chalcopyrite)
135.5040, 0.0000000E+00
135.9860, 2.780273
136.4690, 0.7866210
136.9510, 1.127686
137.4330, 3.874268
137.9150, 16.14343
138.3970, 27.99939
138.8790, 39.63098
139.3610, 50.04773
139.8430, 55.75769
140.3260, 54.81531
140.8080, 53.62634
141.2900, 58.06409
141.7720, 72.60876
142.2540, 78.91199
142.7360, 72.20862
143.2180, 53.66223
143.7000, 38.78931
144.1820, 26.68103
144.6650, 19.08069
145.1470, 18.39087
145.6290, 30.21411
146.1110, 39.99561
146.5930, 44.44775
147.0750, 42.53235
147.5570, 41.19397
148.0390, 42.27954
148.5210, 43.08374
149.0040, 39.92859
149.4860, 26.66418
149.9680, 15.55847
150.4500, 9.918213
150.9320, 12.07275
151.4140, 14.80005
151.8960, 19.24817
152.3780, 24.29004
152.8610, 27.59912
153.3430, 26.51746
153.8250, 25.87891
154.3070, 27.95923
154.7890, 39.11621
155.2710, 44.80017
155.7530, 38.40869
156.2350, 23.73657
156.7170, 14.92249
157.2000, 18.58899
157.6820, 26.59961
158.1640, 33.92102
158.6460, 42.19751
159.1280, 46.88696
159.6100, 41.88062
160.0920, 28.60449
160.5740, 23.97815
161.0570, 44.22571
161.5390, 71.61841
162.0210, 89.69080
162.5030, 86.04883
162.9850, 77.14258
163.4670, 69.33350
163.9490, 62.98828
164.4310, 57.37366
164.9130, 50.31421
165.3960, 44.14587
165.8780, 42.06396
166.3600, 47.92566
166.8420, 56.72986
167.3240, 67.62073
167.8060, 82.43433
168.2880, 90.01038
168.7700, 76.55908
169.2530, 50.52222
169.7350, 29.39429
170.2170, 24.59644
170.6990, 28.03906
171.1810, 32.07556
171.6630, 35.10950
172.1450, 39.65088
172.6270, 52.64697
173.1090, 70.38245
173.5920, 80.62708
174.0740, 68.88806
174.5560, 46.72510
175.0380, 30.98950
175.5200, 28.00549
176.0020, 28.93433
176.4840, 24.77734
176.9660, 16.76685
177.4490, 13.24182
177.9310, 27.01074
178.4130, 49.54810
178.8950, 63.10876
179.3770, 58.27136
179.8590, 44.89600
180.3410, 37.43579
180.8230, 35.80640
181.3050, 37.33105
181.7880, 37.50842
182.2700, 38.34558
182.7520, 46.96240
183.2340, 75.08789
183.7160, 110.5850
184.1980, 122.9170
184.6800, 110.4692
185.1620, 88.60645
185.6450, 72.97778
186.1270, 62.57202
186.6090, 50.48230
187.0910, 26.20642
187.5730, 3.630371
188.0550, 9.232544
188.5370, 13.61206
189.0190, 46.65735
189.5010, 67.98926
189.9840, 77.96252
190.4660, 80.01404
190.9480, 70.93433
191.4300, 52.99597
191.9120, 44.43738
192.3940, 48.15723
192.8760, 57.35535
193.3580, 56.12732
193.8400, 44.36548
194.3230, 40.03125
194.8050, 62.88513
195.2870, 111.2291
195.7690, 135.4867
196.2510, 127.0978
196.7330, 97.60486
197.2150, 70.13293
197.6970, 42.86340
198.1800, 28.18994
198.6620, 42.77209
199.1440, 89.19604
199.6260, 117.5109
200.1080, 117.8185
200.5900, 97.62244
201.0720, 80.75806
201.5540, 66.71143
202.0360, 57.35352
202.5190, 55.74768
203.0010, 63.07202
203.4830, 69.03845
203.9650, 71.84680
204.4470, 71.83533
204.9290, 70.67273
205.4110, 67.72192
205.8930, 65.03638
206.3760, 65.04871
206.8580, 68.63574
207.3400, 70.60962
207.8220, 69.38562
208.3040, 65.26880
208.7860, 62.37488
209.2680, 60.78772
209.7500, 60.43005
210.2320, 61.89209
210.7140, 66.27039
211.1970, 68.85010
211.6790, 68.10974
212.1610, 64.02844
212.6430, 61.75696
213.1250, 64.48035
213.6070, 64.91638
214.0890, 50.96167
214.5720, 13.44983
215.0540, 14.10339
215.5360, 20.01465
216.0180, 1.982422
216.5000, 14.33484
216.9820, 27.94946
217.4640, 40.49170
217.9460, 55.96387
218.4280, 78.86487
218.9110, 93.89050
219.3930, 93.11633
219.8750, 71.54956
220.3570, 60.83997
220.8390, 66.71790
221.3210, 79.37292
221.8030, 81.81018
222.2850, 68.92981
222.7670, 55.77136
223.2500, 48.41809
223.7320, 49.59680
224.2140, 45.89282
224.6960, 13.55005
225.1780, 52.66406
225.6600, 74.44031
226.1420, 79.81250
226.6240, 19.62671
227.1070, 44.11194
227.5890, 34.67419
228.0710, 23.85217
228.5530, 60.27393
229.0350, 9.658691
229.5170, 45.34497
229.9990, 46.59021
230.4810, 63.60803
230.9630, 46.49365
231.4450, 39.93066
231.9280, 67.52441
232.4100, 76.21448
232.8920, 55.25867
233.3740, 73.54675
233.8560, 22.12891
234.3380, 31.96436
234.8200, 68.08813
235.3030, 48.81494
235.7850, 67.52808
236.2670, 71.78210
236.7490, 36.03064
237.2310, 46.71301
237.7130, 55.55261
238.1950, 59.01526
238.6770, 53.67664
239.1590, 31.18640
239.6410, 19.48584
240.1240, 20.97205
240.6060, 32.30750
241.0880, 45.22827
241.5700, 64.30676
242.0520, 80.40234
242.5340, 87.36536
243.0160, 78.13184
243.4980, 75.02197
243.9810, 82.97021
244.4630, 97.96851
244.9450, 103.5848
245.4270, 94.39722
245.9090, 82.54663
246.3910, 75.13721
246.8730, 73.82556
247.3550, 73.10669
247.8370, 73.28064
248.3200, 73.83728
248.8020, 71.70471
249.2840, 63.95471
249.7660, 57.49976
250.2480, 57.03894
250.7300, 66.25940
251.2120, 73.47656
251.6940, 77.89417
252.1760, 79.66699
252.6590, 79.21704
253.1410, 75.33496
253.6230, 71.08594
254.1050, 69.39722
254.5870, 74.48816
255.0690, 71.62244
255.5510, 55.34814
256.0330, 29.44312
256.5160, 13.24121
256.9980, 8.303223
257.4800, 10.77734
257.9620, 20.13940
258.4440, 42.47534
258.9260, 55.30310
259.4080, 52.65210
259.8900, 38.53833
260.3720, 33.92688
260.8550, 43.18933
261.3370, 53.18091
261.8190, 53.02393
262.3010, 36.74341
262.7830, 28.13403
263.2650, 32.18970
263.7470, 46.24792
264.2290, 55.50146
264.7110, 58.42737
265.1940, 57.97742
265.6760, 54.47534
266.1580, 45.82178
266.6400, 42.64014
267.1220, 48.97595
267.6040, 61.52844
268.0860, 64.21472
268.5690, 53.61780
269.0510, 40.75244
269.5330, 33.35657
270.0150, 32.74133
270.4970, 31.75317
270.9790, 29.25195
271.4610, 25.91394
271.9430, 25.07788
272.4250, 27.38452
272.9080, 29.31970
273.3900, 28.24463
273.8720, 24.22278
274.3540, 20.34509
274.8360, 16.11121
275.3180, 12.30994
275.8000, 13.81067
276.2820, 22.26123
276.7640, 30.11755
277.2470, 30.88794
277.7290, 23.48035
278.2110, 19.54041
278.6930, 20.03394
279.1750, 24.89685
279.6570, 37.45642
280.1390, 60.12427
280.6210, 76.82202
281.1030, 72.00952
281.5860, 45.28015
282.0680, 28.81201
282.5500, 28.84363
283.0320, 38.01367
283.5140, 37.99707
283.9960, 27.78882
284.4780, 18.11279
284.9600, 17.19006
285.4430, 24.40369
285.9250, 28.73132
286.4070, 28.37720
286.8890, 25.80127
287.3710, 26.89636
287.8530, 31.76648
288.3350, 34.17969
288.8170, 28.54175
289.2990, 16.30396
289.7820, 6.036865
290.2640, 1.483032
290.7460, 6.099609
291.2280, 8.351929
291.7100, 8.009521
292.1920, 4.246826
292.6740, 6.256470
293.1560, 20.89258
293.6380, 31.61023
294.1210, 37.89087
294.6030, 39.44055
295.0850, 35.10596
295.5670, 25.36963
296.0490, 12.95178
296.5310, 6.872437
297.0130, 27.70691
297.4960, 31.93823
297.9780, 15.80505
298.4600, 6.203369
298.9420, 20.05969
299.4240, 26.30164
299.9060, 26.36816
300.3880, 14.17358
300.8700, 1.766968
301.3520, 5.604370
301.8350, 4.792480
302.3170, 18.26721
302.7990, 24.21472
303.2810, 24.81934
303.7630, 25.59326
304.2450, 28.86292
304.7270, 33.71069
305.2090, 40.09277
305.6910, 48.30286
306.1740, 54.33044
306.6560, 54.79858
307.1380, 51.27283
307.6200, 45.52368
308.1020, 33.29578
308.5840, 22.95032
309.0660, 24.64441
309.5480, 38.68188
310.0300, 50.67456
310.5130, 50.81079
310.9950, 43.56909
311.4770, 34.72876
311.9590, 23.27478
312.4410, 13.38623
312.9230, 8.045776
313.4050, 7.131348
313.8870, 8.199219
314.3700, 12.57886
314.8520, 17.23560
315.3340, 19.18018
315.8160, 16.14465
316.2980, 11.48193
316.7800, 3.056030
317.2620, 7.637451
317.7440, 10.68457
318.2260, 8.548462
318.7090, 31.23181
319.1910, 43.00830
319.6730, 32.52686
320.1550, 20.21204
320.6370, 7.292480
321.1190, 4.342407
321.6010, 6.654419
322.0830, 14.97290
322.5650, 37.89636
323.0480, 49.16724
323.5300, 34.74744
324.0120, 25.68188
324.4940, 32.51221
324.9760, 48.82104
325.4580, 57.14099
325.9400, 47.65930
326.4220, 37.02869
326.9050, 32.14990
327.3870, 40.58496
327.8690, 42.42969
328.3510, 28.67004
328.8330, 9.040039
329.3150, 2.838501
329.7970, 28.71948
330.2790, 48.95007
330.7620, 49.93811
331.2440, 22.34229
331.7260, 4.574829
332.2080, 2.122925
332.6900, 7.815430
333.1720, 11.53625
333.6540, 9.237427
334.1360, 8.968750
334.6180, 14.39746
335.1000, 25.90723
335.5830, 30.85852
336.0650, 23.01965
336.5470, 12.24976
337.0290, 8.754150
337.5110, 15.14758
337.9930, 22.23657
338.4750, 28.71606
338.9570, 34.12146
339.4400, 34.09241
339.9220, 26.31714
340.4040, 18.96851
340.8860, 22.27820
341.3680, 38.10730
341.8500, 45.82922
342.3320, 38.25854
342.8140, 20.94446
343.2970, 14.76965
343.7790, 20.97766
344.2610, 29.35974
344.7430, 32.05835
345.2250, 29.60095
345.7070, 27.43811
346.1890, 26.08838
346.6710, 25.88293
347.1530, 24.32202
347.6350, 21.97400
348.1180, 6.131714
348.6000, 25.65698
349.0820, 36.45679
349.5640, 39.10498
350.0460, 9.290527
350.5280, 21.74854
351.0100, 17.32654
351.4920, 12.21082
351.9750, 21.29663
352.4570, 24.73755
352.9390, 30.93335
353.4210, 31.11902
353.9030, 24.19800
354.3850, 16.31982
354.8670, 12.25696
355.3490, 10.81030
355.8320, 10.53625
356.3140, 7.773560
356.7960, 7.037842
357.2780, 15.61816
357.7600, 33.53003
358.2420, 47.88892
358.7240, 46.22607
359.2060, 38.47424
359.6880, 36.10645
360.1710, 53.69043
360.6530, 67.05505
361.1350, 58.99536
361.6170, 33.33020
362.0990, 15.92102
362.5810, 27.48438
363.0630, 44.06128
363.5450, 48.40881
364.0270, 20.63477
364.5100, 2.268555
364.9920, 10.71362
365.4740, 36.93042
365.9560, 54.43933
366.4380, 50.47375
366.9200, 43.07861
367.4020, 40.04871
367.8840, 45.33728
368.3660, 48.20459
368.8490, 46.03430
369.3310, 41.68323
369.8130, 39.77649
370.2950, 41.54126
370.7770, 44.30273
371.2590, 47.90576
371.7410, 52.91125
372.2240, 55.62305
372.7060, 55.70312
373.1880, 53.71436
373.6700, 50.32178
374.1520, 45.69238
374.6340, 38.74231
375.1160, 26.48914
375.5980, 10.40332
376.0800, 6.281616
376.5620, 17.08557
377.0450, 30.83569
377.5270, 38.06494
378.0090, 38.42126
378.4910, 35.58264
378.9730, 28.53528
379.4550, 19.59216
379.9370, 16.89526
380.4190, 20.67529
380.9020, 21.42700
381.3840, 7.009277
381.8660, 18.16907
382.3480, 25.96777
382.8300, 10.61279
383.3120, 12.75757
383.7940, 23.71558
384.2760, 23.59058
384.7590, 19.20447
385.2410, 9.252441
385.7230, 1.574951
386.2050, 2.577393
386.6870, 6.992432
387.1690, 17.39380
387.6510, 16.74670
388.1330, 11.16638
388.6150, 7.452148
389.0980, 14.92725
389.5800, 27.24060
390.0620, 30.03760
390.5440, 4.619751
391.0260, 9.347778
391.5080, 3.857788
391.9900, 2.360718
392.4720, 18.51184
392.9540, 10.67456
393.4370, 9.655151
393.9190, 10.20935
394.4010, 19.80713
394.8830, 9.760254
395.3650, 5.808594
395.8470, 4.867676
396.3290, 11.03528
396.8110, 30.23682
397.2930, 43.19312
397.7760, 39.86621
398.2580, 30.18665
398.7400, 28.78638
399.2220, 50.02039
399.7040, 65.76562
400.1860, 68.29993
400.6680, 55.94092
401.1510, 46.61804
401.6330, 40.39551
402.1150, 37.13391
402.5970, 37.59314
403.0790, 45.93237
403.5610, 48.28113
404.0430, 39.73389
404.5250, 23.64771
405.0070, 17.13440
405.4900, 23.46655
405.9720, 30.82471
406.4540, 30.84741
406.9360, 22.29529
407.4180, 21.44946
407.9000, 31.84314
408.3820, 46.11426
408.8640, 50.55286
409.3460, 45.13062
409.8280, 37.39355
410.3110, 30.39246
410.7930, 23.90015
411.2750, 15.44861
411.7570, 4.295044
412.2390, 3.277710
412.7210, 1.628540
413.2030, 15.41101
413.6850, 27.97546
414.1680, 36.96680
414.6500, 42.16699
415.1320, 39.32349
415.6140, 30.15723
416.0960, 26.35205
416.5780, 43.12036
417.0600, 65.96008
417.5420, 78.29688
418.0250, 73.58765
418.5070, 64.73438
418.9890, 57.01233
419.4710, 50.54333
419.9530, 45.38550
420.4350, 43.48474
420.9170, 41.44385
421.3990, 36.38220
421.8810, 26.86353
422.3640, 21.52588
422.8460, 20.52625
423.3280, 26.05151
423.8100, 40.43127
424.2920, 92.23413
424.7740, 121.6830
425.2560, 108.2312
425.7380, 56.45215
426.2200, 22.92297
426.7030, 15.46851
427.1850, 17.15381
427.6670, 19.12598
428.1490, 21.04980
428.6310, 24.32495
429.1130, 30.32422
429.5950, 36.81580
430.0770, 38.24756
430.5600, 33.24976
431.0420, 28.60315
431.5240, 27.12573
432.0060, 28.70764
432.4880, 30.95312
432.9700, 34.10608
433.4520, 36.90198
433.9340, 38.07471
434.4170, 37.98901
434.8990, 36.37622
435.3810, 30.40613
435.8630, 25.58118
436.3450, 37.47852
436.8270, 63.87805
437.3090, 84.43188
437.7910, 78.15430
438.2730, 58.76721
438.7550, 48.10742
439.2380, 51.18982
439.7200, 54.97595
440.2020, 47.86084
440.6840, 36.48059
441.1660, 31.78674
441.6480, 46.90186
442.1300, 62.11267
442.6120, 63.69495
443.0950, 50.38782
443.5770, 37.83923
444.0590, 32.21521
444.5410, 30.75122
445.0230, 30.46509
445.5050, 31.62073
445.9870, 32.53589
446.4690, 33.28552
446.9520, 34.97351
447.4340, 34.09204
447.9160, 27.36597
448.3980, 19.35522
448.8800, 13.03882
449.3620, 5.588257
449.8440, 7.296387
450.3260, 25.04126
450.8080, 45.53052
451.2900, 53.78650
451.7730, 44.40662
452.2550, 37.17432
452.7370, 37.35474
453.2190, 43.72021
453.7010, 50.49902
454.1830, 58.78198
454.6650, 62.27295
455.1470, 51.68018
455.6300, 29.84717
456.1120, 15.54443
456.5940, 12.78796
457.0760, 15.48657
457.5580, 14.43018
458.0400, 10.88501
458.5220, 10.17566
459.0040, 20.15027
459.4870, 32.13135
459.9690, 32.53552
460.4510, 20.61609
460.9330, 10.61792
461.4150, 17.18494
461.8970, 30.07922
462.3790, 37.26086
462.8610, 30.13977
463.3430, 21.76538
463.8260, 18.07471
464.3080, 17.91150
464.7900, 17.28625
465.2720, 10.09619
465.7540, 6.067261
466.2360, 12.08838
466.7180, 37.20190
467.2000, 50.01587
467.6820, 37.05627
468.1650, 15.90417
468.6470, 6.773560
469.1290, 17.84827
469.6110, 27.85864
470.0930, 33.28528
470.5750, 34.97131
471.0570, 33.61853
471.5390, 26.32043
472.0220, 21.75220
472.5040, 28.81616
472.9860, 48.87366
473.4680, 59.06982
473.9500, 55.97681
474.4320, 46.23438
474.9140, 39.52344
475.3960, 35.67224
475.8780, 32.65991
476.3610, 27.26013
476.8430, 22.84119
477.3250, 30.39697
477.8070, 49.41638
478.2890, 64.32874
478.7710, 55.99170
479.2530, 37.83862
479.7350, 30.07776
480.2170, 42.28076
480.7000, 56.88733
481.1820, 65.01416
481.6640, 66.43079
482.1460, 60.46228
482.6280, 32.42566
483.1100, 8.881958
483.5920, 6.774902
484.0740, 31.05530
484.5560, 47.89331
485.0390, 43.43420
485.5210, 32.51379
486.0030, 27.77698
486.4850, 35.83899
486.9670, 41.37158
487.4490, 42.52625
487.9310, 40.39685
488.4140, 38.56958
488.8960, 37.13843
489.3780, 35.98645
489.8600, 35.11072
490.3420, 34.56897
490.8240, 34.13867
491.3060, 33.79810
491.7880, 33.81323
492.2700, 35.96777
492.7530, 39.82129
493.2350, 39.45825
493.7170, 32.10547
494.1990, 21.16785
494.6810, 12.39233
495.1630, 5.615234
495.6450, 0.6668700
496.1270, 9.830322
496.6090, 18.07727
497.0920, 19.55347
497.5740, 13.19348
498.0560, 4.037964
498.5380, 8.750244
499.0200, 21.06531
499.5020, 27.35596
499.9840, 18.10571
500.4660, 10.20081
500.9480, 12.57080
501.4310, 23.00781
501.9130, 28.97717
502.3950, 25.55176
502.8770, 19.20190
503.3590, 12.51245
503.8410, 4.689087
504.3230, 1.585938
504.8050, 8.847168
505.2880, 12.67371
505.7700, 5.403320
506.2520, 19.31519
506.7340, 36.02881
507.2160, 36.46814
507.6980, 25.11768
508.1800, 22.13745
508.6620, 28.52185
509.1450, 35.01440
509.6270, 35.00916
510.1090, 29.73267
510.5910, 24.36243
511.0730, 19.21594
511.5550, 14.51636
512.0370, 9.359985
512.5190, 4.820190
513.0010, 3.583984
513.4840, 9.590088
513.9660, 16.81750
514.4480, 18.64331
514.9300, 16.52844
515.4120, 17.50903
515.8940, 30.97156
516.3760, 44.67664
516.8580, 49.27588
517.3410, 39.77002
517.8230, 32.26880
518.3050, 32.36328
518.7870, 35.46228
519.2690, 35.81738
519.7510, 30.66992
520.2330, 27.09082
520.7150, 26.50171
521.1970, 27.64636
521.6800, 24.83350
522.1620, 15.00305
522.6440, 9.422852
523.1260, 18.33325
523.6080, 43.62500
524.0900, 53.47266
524.5720, 44.52893
525.0540, 28.16870
525.5360, 15.39844
526.0190, 6.590088
526.5010, 4.511475
526.9830, 12.94226
527.4650, 25.56104
527.9470, 35.02429
528.4290, 40.88489
528.9110, 41.89258
529.3930, 30.01904
529.8750, 17.13232
530.3580, 16.40735
530.8400, 31.38623
531.3220, 43.89807
531.8040, 36.85645
532.2860, 26.37976
532.7680, 11.98572
533.2500, 28.37463
533.7320, 37.29126
534.2140, 39.13672
534.6970, 12.73340
535.1790, 22.81287
535.6610, 18.26807
536.1430, 13.12317
536.6250, 28.33203
537.1070, 6.035645
537.5890, 18.92432
538.0710, 14.61487
538.5540, 8.806152
539.0360, 13.21948
539.5180, 27.55884
540.0000, 35.87500
540.4820, 33.79602
540.9640, 26.56628
541.4460, 21.67981
541.9280, 19.47437
542.4110, 20.48218
542.8930, 25.09119
543.3750, 30.35840
543.8570, 26.14038
544.3390, 12.86438
544.8210, 26.94006
545.3030, 34.37891
545.7850, 35.54126
546.2680, 11.61218
546.7500, 20.10229
547.2320, 15.60242
547.7140, 10.57031
548.1960, 23.62109
548.6780, 3.348999
549.1600, 16.11316
549.6420, 15.68945
550.1240, 21.30164
550.6060, 11.14380
551.0890, 13.41467
551.5710, 11.85352
552.0530, 11.98926
552.5350, 19.69299
553.0170, 35.68872
553.4990, 40.82019
553.9810, 29.87378
554.4630, 18.84839
554.9450, 4.268066
555.4280, 19.54187
555.9100, 28.24329
556.3920, 30.41235
556.8740, 5.565918
557.3560, 15.62146
557.8380, 14.91516
558.3200, 13.98999
558.8020, 24.28772
559.2840, 35.62256
559.7670, 39.84460
560.2490, 35.18848
560.7310, 29.17542
561.2130, 20.29248
561.6950, 13.18506
562.1770, 11.94714
562.6590, 23.41260
563.1410, 32.35913
563.6240, 38.40405
564.1060, 41.85852
564.5880, 43.64185
565.0700, 43.76221
565.5520, 41.88513
566.0340, 37.01721
566.5160, 29.65747
566.9980, 24.84961
567.4810, 22.72278
567.9630, 22.56616
568.4450, 24.01050
568.9270, 26.96008
569.4090, 31.80151
569.8910, 39.23889
570.3730, 45.82532
570.8550, 49.40015
571.3380, 49.33777
571.8200, 44.28857
572.3020, 25.07361
572.7840, 8.529663
573.2660, 4.847046
573.7480, 12.41040
574.2300, 22.83276
574.7120, 44.45154
575.1940, 59.24414
575.6770, 56.07495
576.1590, 27.67261
576.6410, 6.204468
577.1230, 8.416382
577.6050, 16.21838
578.0870, 16.92126
578.5690, 9.755737
579.0510, 3.071289
579.5330, 24.91028
580.0160, 47.87341
580.4980, 52.79053
580.9800, 40.32605
581.4620, 27.85974
581.9440, 24.17957
582.4260, 25.34949
582.9080, 23.36340
583.3900, 18.51428
583.8720, 14.22253
584.3550, 12.32947
584.8370, 12.51672
585.3190, 14.77930
585.8010, 19.69775
586.2830, 24.57129
586.7650, 29.42285
587.2470, 33.12549
587.7290, 34.39624
588.2110, 26.30591
588.6940, 23.95068
589.1760, 33.46851
589.6580, 50.26831
590.1400, 58.32227
590.6220, 56.06726
591.1040, 48.04736
591.5860, 32.57556
592.0680, 10.54431
592.5510, 3.970581
593.0330, 14.97083
593.5150, 28.87512
593.9970, 29.87939
594.4790, 22.72668
594.9610, 25.06067
595.4430, 42.43994
595.9250, 59.06531
596.4070, 55.54675
596.8900, 40.31531
597.3720, 29.01709
597.8540, 36.54761
598.3360, 41.17542
598.8180, 24.91907
599.3000, 5.852051
599.7820, 21.93506
600.2650, 0.1417240
600.7470, 22.50513
601.2290, 28.62646
601.7110, 15.08704
602.1930, 6.858276
602.6750, 5.862793
603.1570, 9.340820
603.6390, 14.48291
604.1210, 20.07690
604.6040, 22.80725
605.0860, 23.59167
605.5680, 23.46680
606.0500, 23.13953
606.5320, 22.99670
607.0140, 25.35583
607.4960, 33.97949
607.9780, 42.96082
608.4600, 42.64795
608.9430, 35.51685
609.4250, 32.13525
609.9070, 46.72034
610.3890, 60.33020
610.8710, 57.37573
611.3530, 33.18652
611.8350, 17.30359
612.3170, 22.89624
612.7990, 33.90601
613.2820, 38.37683
613.7640, 30.52258
614.2460, 28.31335
614.7280, 35.49487
615.2100, 45.43274
615.6920, 45.44324
616.1740, 34.34753
616.6560, 26.56335
617.1380, 27.51709
617.6210, 33.35938
618.1030, 35.36829
618.5850, 33.97571
619.0670, 32.71899
619.5490, 36.26404
620.0310, 39.67688
620.5130, 36.69263
620.9950, 26.37622
621.4770, 16.73914
621.9600, 7.795532
622.4420, 5.855591
622.9240, 17.42090
623.4060, 61.20447
623.8880, 87.09265
624.3700, 77.95532
624.8520, 54.04431
625.3340, 40.63196
625.8170, 41.26501
626.2990, 44.32654
626.7810, 49.50342
627.2630, 54.70996
627.7450, 51.82471
628.2270, 40.54517
628.7090, 30.94116
629.1910, 27.87671
629.6740, 30.34851
630.1560, 39.02783
630.6380, 53.29260
631.1200, 63.08704
631.6020, 56.14893
632.0840, 43.91003
632.5660, 38.07971
633.0480, 42.14075
633.5310, 47.08618
634.0130, 53.06116
634.4950, 56.60852
634.9770, 53.20764
635.4590, 29.70361
635.9410, 18.04309
636.4230, 28.04517
636.9050, 48.81799
637.3870, 51.63428
637.8700, 31.27625
638.3520, 15.11194
638.8340, 13.34570
639.3160, 22.09949
639.7980, 30.06970
640.2800, 37.14343
640.7620, 40.26648
641.2440, 32.22620
641.7260, 21.20337
642.2090, 19.88770
642.6910, 29.71814
643.1730, 41.08447
643.6550, 51.19177
644.1370, 58.66724
644.6190, 62.23108
645.1010, 59.11230
645.5830, 56.12634
646.0650, 51.53076
646.5480, 48.68579
647.0300, 54.37122
647.5120, 78.90820
647.9940, 86.08862
648.4760, 60.85376
648.9580, 18.66528
649.4400, 10.17725
649.9220, 36.48865
650.4040, 62.01965
650.8870, 67.26221
651.3690, 59.91797
651.8510, 54.01819
652.3330, 49.81482
652.8150, 50.71008
653.2970, 65.15588
653.7790, 82.32849
654.2610, 91.85767
654.7440, 91.55566
655.2260, 87.37024
655.7080, 76.64807
656.1900, 65.24426
656.6720, 58.74487
657.1540, 60.27734
657.6360, 60.46790
658.1180, 63.99573
658.6010, 64.71924
659.0830, 51.32422
659.5650, 21.84167
660.0470, 4.047363
660.5290, 23.40125
661.0110, 33.33215
661.4930, 20.85889
661.9750, 9.800171
662.4580, 36.08777
662.9400, 42.59998
663.4220, 40.40857
663.9040, 39.50488
664.3860, 40.15881
664.8680, 39.19910
665.3500, 29.90784
665.8320, 22.66321
666.3140, 25.42212
666.7970, 46.06531
667.2790, 55.67712
667.7610, 47.82739
668.2430, 35.38660
668.7250, 30.64978
669.2070, 35.34058
669.6890, 36.91223
670.1710, 33.55310
670.6530, 27.64941
671.1350, 19.38623
671.6180, 10.77454
672.1000, 12.31946
672.5820, 36.91138
673.0640, 61.32080
673.5460, 55.26453
674.0280, 29.05774
674.5100, 11.27917
674.9920, 22.29016
675.4740, 37.11536
675.9570, 47.58423
676.4390, 53.15625
676.9210, 46.93579
677.4030, 16.09082
677.8850, 10.01904
678.3670, 16.61902
678.8490, 1.866089
679.3310, 13.10938
679.8140, 28.52295
680.2960, 43.04321
680.7780, 56.80652
681.2600, 68.49353
681.7420, 70.54590
682.2240, 60.35559
682.7060, 48.02283
683.1880, 43.16614
683.6700, 42.27991
684.1530, 39.98901
684.6350, 31.42664
685.1170, 25.40344
685.5990, 24.87573
686.0810, 29.05725
686.5630, 36.82532
687.0450, 53.71375
687.5280, 65.46545
688.0100, 68.45068
688.4920, 64.26123
688.9740, 57.50903
689.4560, 47.39246
689.9380, 41.03931
690.4200, 45.44446
690.9020, 55.75684
691.3840, 56.87183
691.8670, 49.33215
692.3490, 40.90393
692.8310, 36.77808
693.3130, 34.43262
693.7950, 31.61353
694.2770, 28.05542
694.7590, 23.75989
695.2410, 12.42065
695.7230, 4.241821
696.2060, 8.910522
696.6880, 40.01904
697.1700, 55.27063
697.6520, 47.52417
698.1340, 32.34473
698.6160, 32.60583
699.0980, 49.00928
699.5800, 53.40881
700.0620, 37.11438
700.5450, 15.08264
701.0270, 12.43164
701.5090, 24.31006
701.9910, 34.31189
702.4730, 28.33484
702.9550, 24.20398
703.4370, 37.34473
703.9190, 62.62048
704.4020, 83.23071
704.8840, 96.88782
705.3660, 102.6428
705.8480, 100.2408
706.3300, 89.93628
706.8120, 71.00891
707.2940, 35.07898
707.7760, 11.58813
708.2580, 27.89758
708.7410, 77.51038
709.2230, 93.91748
709.7050, 76.17273
710.1870, 48.36536
710.6690, 19.94324
711.1510, 1.028564
711.6330, 0.5253910
712.1150, 31.85876
712.5970, 59.38867
713.0800, 61.97876
713.5620, 54.77307
714.0440, 52.23071
714.5260, 63.01477
715.0080, 69.65051
715.4900, 70.53943
715.9720, 68.17969
716.4550, 66.02124
716.9370, 64.21216
717.4190, 61.00635
717.9010, 54.80115
718.3830, 47.15430
718.8650, 43.38306
719.3470, 43.95447
719.8290, 45.90149
720.3110, 45.42139
720.7940, 44.99463
721.2760, 49.81812
721.7580, 57.25732
722.2400, 57.66003
722.7220, 34.14246
723.2040, 16.76855
723.6860, 22.36914
724.1680, 48.20544
724.6510, 57.20410
725.1330, 42.48669
725.6150, 26.95227
726.0970, 24.30017
726.5790, 31.98718
727.0610, 35.75305
727.5430, 36.13843
728.0250, 33.27734
728.5070, 23.61389
728.9900, 12.29089
729.4720, 6.223999
729.9540, 6.248169
730.4360, 11.89441
730.9180, 33.25635
731.4000, 53.79883
731.8820, 59.40381
732.3640, 32.53101
732.8460, 18.02417
733.3280, 20.20483
733.8110, 30.34106
734.2930, 41.29578
734.7750, 53.83203
735.2570, 55.61792
735.7390, 41.92627
736.2210, 22.25098
736.7030, 8.104858
737.1850, 0.6911620
737.6670, 2.676147
738.1500, 6.973877
738.6320, 17.55249
739.1140, 21.26294
739.5960, 20.80994
740.0780, 21.62439
740.5600, 30.41296
741.0420, 34.05225
741.5240, 24.65027
742.0070, 8.282959
742.4890, 10.09851
742.9710, 35.85193
743.4530, 55.94104
743.9350, 57.86816
744.4170, 46.22998
744.8990, 30.58289
745.3810, 12.19055
745.8640, 1.491089
746.3460, 9.947998
746.8280, 25.48584
747.3100, 38.94446
747.7920, 49.59875
748.2740, 54.49097
748.7560, 28.68481
749.2380, 6.393433
749.7210, 31.44800
750.2030, 45.01013
750.6850, 47.69617
751.1670, 6.933838
751.6490, 22.27539
752.1310, 15.13367
752.6130, 7.068604
753.0950, 30.30518
753.5770, 4.172363
754.0600, 15.48022
754.5420, 1.891113
755.0240, 10.00024
755.5060, 19.47900
755.9880, 21.17676
756.4700, 17.80908
756.9520, 0.3586430
757.4340, 17.28040
757.9160, 16.04834
758.3990, 17.00854
758.8810, 41.24365
759.3630, 55.20044
759.8450, 60.32935
760.3270, 56.58508
760.8090, 44.44653
761.2910, 29.50671
761.7730, 10.60254
762.2550, 3.383667
762.7380, 2.032959
763.2200, 19.84497
763.7020, 36.37292
764.1840, 43.35559
764.6660, 52.13599
765.1480, 77.38928
765.6300, 106.1576
766.1120, 109.1724
766.5940, 64.31665
767.0770, 30.38110
767.5590, 18.73987
768.0410, 23.76367
768.5230, 33.21912
769.0050, 46.65161
769.4870, 57.53101
769.9690, 64.19177
770.4510, 65.76843
770.9340, 59.12292
771.4160, 46.17004
771.8980, 33.30518
772.3800, 18.96680
772.8620, 10.00061
773.3440, 13.40576
773.8260, 27.22986
774.3080, 34.01855
774.7910, 28.07300
775.2730, 23.72754
775.7550, 28.62354
776.2370, 40.65979
776.7190, 36.74463
777.2010, 14.50610
777.6830, 4.026123
778.1650, 2.905029
778.6480, 8.858643
779.1300, 18.11670
779.6120, 24.64355
780.0940, 31.10730
780.5760, 43.83386
781.0580, 52.72083
781.5400, 50.44446
782.0220, 34.51489
782.5040, 18.93689
782.9870, 0.1754150
783.4690, 12.51965
783.9510, 8.276245
784.4330, 12.22620
784.9150, 20.91711
785.3970, 16.90271
785.8790, 12.83411
786.3610, 24.49915
786.8430, 40.87585
787.3260, 40.33691
787.8080, 18.36584
788.2900, 8.572388
788.7720, 46.07861
789.2540, 89.47583
789.7360, 105.5564
790.2180, 82.03174
790.7000, 63.04089
791.1820, 49.84558
791.6650, 38.73584
792.1470, 24.32312
792.6290, 7.532349
793.1110, 1.131470
793.5930, 7.241577
794.0750, 16.62561
794.5570, 21.76245
795.0390, 23.64490
795.5210, 23.39221
796.0040, 21.20264
796.4860, 18.25415
796.9680, 11.90979
797.4500, 6.973633
797.9320, 8.657959
798.4140, 22.35986
798.8960, 28.48035
799.3780, 22.12634
799.8600, 16.12964
800.3430, 34.89697
800.8250, 71.25146
801.3070, 81.46753
801.7890, 50.10608
802.2710, 16.11292
802.7530, 22.28455
803.2350, 48.68506
803.7180, 69.40491
804.2000, 80.41711
804.6820, 80.28589
805.1640, 56.77917
805.6460, 28.07703
806.1280, 14.62842
806.6100, 19.10022
807.0920, 31.28662
807.5740, 54.16650
808.0570, 74.72498
808.5390, 67.54895
809.0210, 41.00378
809.5030, 23.77979
809.9850, 27.41833
810.4670, 34.88330
810.9490, 30.80212
811.4310, 22.74158
811.9140, 22.39636
812.3960, 46.34912
812.8780, 58.68298
813.3600, 51.42151
813.8420, 34.24536
814.3240, 21.91162
814.8060, 15.62854
815.2880, 9.747192
815.7700, 4.378418
816.2530, 2.525879
816.7350, 6.965332
817.2170, 15.66638
817.6990, 24.29883
818.1810, 33.95386
818.6630, 39.27454
819.1450, 33.96460
819.6270, 23.56604
820.1090, 18.26868
820.5920, 23.66907
821.0740, 25.42542
821.5560, 19.96521
822.0380, 11.94458
822.5200, 8.746338
823.0020, 10.57141
823.4840, 21.45850
823.9660, 47.68115
824.4480, 72.89417
824.9310, 76.33093
825.4130, 65.71521
825.8950, 55.53406
826.3770, 52.15320
826.8590, 48.41528
827.3410, 41.72107
827.8230, 33.72522
828.3050, 26.68494
828.7870, 20.18103
829.2700, 16.25256
829.7520, 16.02563
830.2340, 17.21350
830.7160, 14.43140
831.1980, 9.411133
831.6800, 8.764404
832.1620, 19.94482
832.6440, 27.87891
833.1270, 15.11865
833.6090, 6.419189
834.0910, 16.48096
834.5730, 2.893555
835.0550, 15.28503
835.5370, 14.04309
836.0190, 6.706055
836.5010, 6.806763
836.9840, 14.25366
837.4660, 20.11597
837.9480, 21.65564
838.4300, 21.92761
838.9120, 26.40918
839.3940, 32.23499
839.8760, 33.70728
840.3580, 22.62976
840.8410, 15.04492
841.3230, 13.45203
841.8050, 19.97485
842.2870, 39.21069
842.7690, 83.07605
843.2510, 101.4960
843.7330, 80.85925
844.2150, 45.02893
844.6970, 32.96814
845.1800, 39.34277
845.6620, 43.08801
846.1440, 36.71167
846.6260, 30.23071
847.1080, 35.17798
847.5900, 43.47986
848.0720, 44.13110
848.5540, 25.15686
849.0360, 11.10217
849.5190, 2.047852
850.0010, 0.6090090
850.4830, 8.437134
850.9650, 29.44580
851.4470, 41.43140
851.9290, 39.27722
852.4110, 33.66626
852.8930, 39.44202
853.3750, 49.27820
853.8580, 51.71863
854.3400, 37.01917
854.8220, 24.44482
855.3040, 21.38928
855.7860, 25.65027
856.2680, 37.08459
856.7500, 63.77258
857.2320, 68.27344
857.7140, 42.83289
858.1970, 10.05090
858.6790, 6.187866
859.1610, 8.031128
859.6430, 1.033203
860.1250, 22.70947
860.6070, 40.84119
861.0890, 40.63550
861.5710, 33.58521
862.0540, 30.50159
862.5360, 34.46814
863.0180, 40.17480
863.5000, 50.59253
863.9820, 58.25146
864.4640, 53.29041
864.9460, 37.25549
865.4280, 32.12085
865.9110, 39.98303
866.3930, 47.33240
866.8750, 40.55103
867.3570, 27.61475
867.8390, 15.50049
868.3210, 3.937500
868.8030, 1.954102
869.2850, 23.06702
869.7670, 44.49561
870.2500, 56.02393
870.7320, 57.62231
871.2140, 44.10291
871.6960, 12.67041
872.1780, 12.47583
872.6600, 5.338623
873.1420, 17.39062
873.6240, 27.18311
874.1060, 23.21448
874.5890, 20.78442
875.0710, 34.91626
875.5530, 46.02002
876.0350, 37.86902
876.5170, 11.25916
876.9990, 2.899170
877.4810, 17.26343
877.9630, 36.03882
878.4450, 54.76965
878.9280, 69.36670
879.4100, 60.02930
879.8920, 31.47949
880.3740, 10.62732
880.8560, 21.32642
881.3380, 37.21204
881.8200, 43.99475
882.3020, 41.63550
882.7840, 33.26746
883.2670, 12.96667
883.7490, 0.8420410
884.2310, 1.372192
884.7130, 7.249634
885.1950, 12.99329
885.6770, 16.09998
886.1590, 18.80164
886.6410, 21.08032
887.1240, 24.45825
887.6060, 31.55090
888.0880, 40.67432
888.5700, 48.05115
889.0520, 54.46338
889.5340, 56.44690
890.0160, 51.29028
890.4980, 43.25171
890.9810, 39.14502
891.4630, 38.52795
891.9450, 43.90381
892.4270, 60.80859
892.9090, 75.64111
893.3910, 68.52722
893.8730, 50.36975
894.3550, 39.08911
894.8380, 43.98511
895.3200, 48.86133
895.8020, 50.97400
896.2840, 50.94678
896.7660, 48.01465
897.2480, 40.99487
897.7300, 42.95898
898.2120, 55.96741
898.6940, 66.49329
899.1770, 53.73486
899.6590, 29.91248
900.1410, 15.66455
900.6230, 15.26208
901.1050, 17.13147
901.5870, 16.60413
902.0690, 16.59814
902.5510, 19.47412
903.0330, 25.99158
903.5160, 30.75195
903.9980, 33.88953
904.4800, 34.79236
904.9620, 31.26733
905.4440, 25.65259
905.9260, 23.06995
906.4080, 23.56750
906.8900, 25.10596
907.3720, 28.29578
907.8550, 30.54517
908.3370, 29.45496
908.8190, 25.39648
909.3010, 25.66016
909.7830, 33.81726
910.2650, 33.78979
910.7470, 12.64758
911.2290, 16.74744
911.7110, 18.64514
912.1940, 0.7795410
912.6760, 16.01575
913.1580, 9.190186
913.6400, 0.4211430
914.1220, 5.133789
914.6040, 4.905884
915.0860, 0.4406740
915.5680, 15.46155
916.0510, 23.88757
916.5330, 20.96094
917.0150, 12.28040
917.4970, 5.125488
917.9790, 5.3222999E-02
918.4610, 0.2567140
918.9430, 5.310303
919.4250, 16.35486
919.9070, 41.99133
920.3900, 68.83325
920.8720, 79.54419
921.3540, 63.22729
921.8360, 48.17603
922.3180, 31.40234
922.8000, 21.69568
923.2820, 33.75977
923.7640, 61.61194
924.2470, 79.98462
924.7290, 86.82849
925.2110, 82.53186
925.6930, 54.60767
926.1750, 24.92163
926.6570, 10.41235
927.1390, 14.72974
927.6210, 26.26599
928.1040, 52.27234
928.5860, 68.96216
929.0680, 56.97253
929.5500, 26.18335
930.0320, 20.54102
930.5140, 38.22852
930.9960, 55.04932
931.4780, 54.36377
931.9600, 48.94971
932.4430, 48.43933
932.9250, 50.88599
933.4070, 46.13440
933.8890, 25.92468
934.3710, 15.65161
934.8530, 24.50830
935.3350, 41.63220
935.8170, 40.12158
936.2990, 24.64209
936.7820, 15.70947
937.2640, 22.67456
937.7460, 32.47754
938.2280, 38.27490
938.7100, 39.88953
939.1920, 36.89172
939.6740, 21.38330
940.1560, 18.17615
940.6380, 32.48865
941.1210, 50.26306
941.6030, 55.06274
942.0850, 50.66187
942.5670, 54.16211
943.0490, 67.56787
943.5310, 73.35315
944.0130, 48.86890
944.4950, 19.50330
944.9770, 5.452026
945.4600, 10.52087
945.9420, 14.26318
946.4240, 17.07214
946.9060, 17.50464
947.3880, 12.36182
947.8700, 5.070313
948.3520, 10.33704
948.8340, 25.08105
949.3170, 33.57654
949.7990, 17.36218
950.2810, 2.442383
950.7630, 8.444702
951.2450, 27.63110
951.7270, 33.99097
952.2090, 20.18372
952.6910, 14.05298
953.1740, 24.34485
953.6560, 38.00916
954.1380, 26.66882
954.6200, 1.112427
955.1020, 8.765991
955.5840, 11.17456
956.0660, 29.55469
956.5480, 21.85742
957.0310, 9.982422
957.5130, 18.00562
957.9950, 58.51038
958.4770, 72.83801
958.9590, 55.54688
959.4410, 34.57825
959.9230, 36.00903
960.4050, 50.16821
960.8870, 59.21606
961.3700, 62.09045
961.8520, 59.86707
962.3340, 50.53113
962.8160, 38.57654
963.2980, 21.95728
963.7800, 3.653687
964.2620, 2.980225
964.7440, 22.67383
965.2260, 41.01355
965.7090, 49.69934
966.1910, 52.64880
966.6730, 54.59424
967.1550, 55.61560
967.6370, 55.90417
968.1190, 59.86292
968.6010, 57.11597
969.0830, 34.90344
969.5650, 11.85352
970.0480, 13.91125
970.5300, 42.09131
971.0120, 52.04333
971.4940, 37.04944
971.9760, 17.90881
972.4580, 15.11316
972.9400, 20.68042
973.4220, 25.07971
973.9040, 26.83948
974.3870, 28.68530
974.8690, 34.75745
975.3510, 36.03796
975.8330, 25.19788
976.3150, 5.399780
976.7970, 2.048340
977.2790, 13.68274
977.7610, 23.22070
978.2440, 13.92822
978.7260, 4.721313
979.2080, 16.34302
979.6900, 39.88623
980.1720, 51.71411
980.6540, 41.75037
981.1360, 31.97156
981.6180, 24.52710
982.1010, 19.32324
982.5830, 17.37512
983.0650, 17.69141
983.5470, 15.61658
984.0290, 9.262329
984.5110, 5.963379
984.9930, 13.17542
985.4750, 23.76709
985.9570, 33.06055
986.4400, 42.26062
986.9220, 39.31213
987.4040, 20.21631
987.8860, 3.312012
988.3680, 2.298218
988.8500, 11.44885
989.3320, 22.23315
989.8140, 32.84497
990.2960, 35.59448
990.7790, 17.48389
991.2610, 1.196167
991.7430, 3.770264
992.2250, 1.476074
992.7070, 0.9689940
993.1890, 3.849487
993.6710, 3.251099
994.1530, 2.633789
994.6350, 8.850586
995.1180, 10.53906
995.6000, 8.281250
996.0820, 1.528809
996.5640, 13.94128
997.0460, 20.39819
997.5280, 7.780273
998.0100, 4.724976
998.4920, 4.429077
998.9740, 7.929932
999.4570, 24.19238
999.9390, 43.85217
1000.421, 56.34204
1000.903, 46.81616
1001.385, 34.72546
1001.867, 39.69690
1002.349, 55.95581
1002.831, 55.72925
1003.314, 27.11462
1003.796, 7.542358
1004.278, 5.878784
1004.760, 14.14758
1005.242, 18.80652
1005.724, 20.16968
1006.206, 19.35620
1006.688, 14.61914
1007.171, 14.40735
1007.653, 32.85901
1008.135, 49.68457
1008.617, 46.74255
1009.099, 19.85596
1009.581, 4.803955
1010.063, 1.753296
1010.545, 8.663818
1011.027, 36.76599
1011.510, 65.97388
1011.992, 61.58691
1012.474, 31.52551
1012.956, 10.68396
1013.438, 20.22595
1013.920, 29.73071
1014.402, 33.26758
1014.884, 34.23352
1015.367, 35.58997
1015.849, 36.15271
1016.331, 37.34387
1016.813, 39.62427
1017.295, 41.46997
1017.777, 41.07483
1018.259, 40.06873
1018.741, 40.03442
1019.223, 41.80127
1019.706, 41.78210
1020.188, 39.98120
1020.670, 36.40259
1021.152, 29.45825
1021.634, 21.17090
1022.116, 15.77234
1022.598, 13.55957
1023.080, 15.72510
1023.563, 33.31079
1024.045, 42.92456
1024.527, 27.63647
1025.009, 5.597290
1025.491, 5.965576
1025.973, 29.59229
1026.455, 45.82800
1026.937, 49.19165
1027.419, 47.13367
1027.901, 47.25232
1028.384, 46.19507
1028.866, 38.16174
1029.348, 20.03198
1029.830, 11.41736
1030.312, 16.87451
1030.794, 25.59766
1031.276, 33.89502
1031.758, 41.01636
1032.241, 42.73633
1032.723, 40.35620
1033.205, 39.26526
1033.687, 43.22009
1034.169, 47.86414
1034.651, 52.08325
1035.133, 55.25671
1035.615, 56.83789
1036.098, 57.35229
1036.580, 51.28296
1037.062, 36.74280
1037.544, 24.23669
1038.026, 27.37280
1038.508, 37.16968
1038.990, 41.63843
1039.472, 39.47778
1039.954, 39.84131
1040.437, 50.23669
1040.919, 54.44592
1041.401, 41.69019
1041.883, 22.41736
1042.365, 38.48474
1042.847, 80.64648
1043.329, 101.3234
1043.811, 69.88879
1044.293, 37.32324
1044.776, 39.40771
1045.258, 54.35388
1045.740, 54.94141
1046.222, 33.34534
1046.704, 25.64209
1047.186, 34.22266
1047.668, 45.44214
1048.150, 49.20020
1048.633, 48.22278
1049.115, 44.43701
1049.597, 38.68127
1050.079, 35.68665
1050.561, 42.36401
1051.043, 44.14795
1051.525, 35.57642
1052.007, 22.65894
1052.490, 15.27698
1052.972, 14.26758
1053.454, 25.37805
1053.936, 53.71228
1054.418, 78.40356
1054.900, 86.54199
1055.382, 83.08130
1055.864, 69.80432
1056.346, 45.86682
1056.828, 36.44751
1057.311, 43.93054
1057.793, 48.14368
1058.275, 29.84875
1058.757, 7.162720
1059.239, 8.753906
1059.721, 26.70374
1060.203, 41.10938
1060.685, 51.38208
1061.168, 47.68835
1061.650, 20.88000
1062.132, 7.798950
1062.614, 4.259521
1063.096, 23.03149
1063.578, 35.02063
1064.060, 27.58130
1064.542, 20.85095
1065.025, 32.30518
1065.507, 44.15161
1065.989, 44.34546
1066.471, 34.88000
1066.953, 25.64819
1067.435, 16.65430
1067.917, 10.03052
1068.399, 6.166626
1068.881, 5.459473
1069.364, 9.362183
1069.846, 16.34644
1070.328, 25.41199
1070.810, 43.82959
1071.292, 43.55945
1071.774, 13.74707
1072.256, 14.42090
1072.738, 15.94873
1073.220, 2.438721
1073.703, 22.96924
1074.185, 43.40002
1074.667, 51.61377
1075.149, 23.42603
1075.631, 3.307983
1076.113, 17.40967
1076.595, 44.56091
1077.077, 47.76294
1077.559, 26.70068
1078.042, 18.35620
1078.524, 28.71484
1079.006, 43.24927
1079.488, 52.90649
1079.970, 57.70654
1080.452, 58.96350
1080.934, 56.35510
1081.416, 39.34644
1081.899, 0.8795170
1082.381, 25.39319
1082.863, 14.94189
1083.345, 12.68347
1083.827, 30.79724
1084.309, 40.87451
1084.791, 46.42041
1085.273, 47.60022
1085.755, 45.31909
1086.238, 37.55005
1086.720, 29.34631
1087.202, 23.64026
1087.684, 20.57532
1088.166, 22.10254
1088.648, 27.99670
1089.130, 36.04834
1089.612, 53.17749
1090.094, 62.92737
1090.577, 47.87732
1091.059, 21.74524
1091.541, 12.85950
1092.023, 22.68616
1092.505, 38.40991
1092.987, 60.12512
1093.469, 75.18604
1093.951, 61.80127
1094.434, 40.92834
1094.916, 37.02710
1095.398, 53.17932
1095.880, 61.81921
1096.362, 60.27527
1096.844, 54.48108
1097.326, 43.01318
1097.808, 31.04309
1098.291, 26.93738
1098.773, 29.40613
1099.255, 36.36145
1099.737, 51.29431
1100.219, 60.57629
1100.701, 55.96484
1101.183, 49.94458
1101.665, 53.21716
1102.147, 63.72498
1102.630, 53.55310
1103.112, 26.13269
1103.594, 7.839966
1104.076, 27.59412
1104.558, 46.08472
1105.040, 34.30786
1105.522, 10.06519
1106.004, 6.141724
1106.486, 26.31506
1106.969, 40.93091
1107.451, 47.40637
1107.933, 47.68408
1108.415, 37.06848
1108.897, 25.76196
1109.379, 26.80286
1109.861, 39.50171
1110.343, 44.89929
1110.826, 41.15076
1111.308, 31.09192
1111.790, 10.99927
1112.272, 5.607544
1112.754, 11.71216
1113.236, 45.26550
1113.718, 60.28052
1114.200, 44.20337
1114.682, 33.20081
1115.165, 37.00220
1115.647, 45.10657
1116.129, 55.15430
1116.611, 64.70508
1117.093, 63.48303
1117.575, 52.83435
1118.057, 38.04102
1118.539, 10.29626
1119.021, 5.552368
1119.504, 12.84119
1119.986, 39.40234
1120.468, 50.58545
1120.950, 45.68066
1121.432, 41.22363
1121.914, 37.67200
1122.396, 31.33801
1122.878, 12.74573
1123.361, 3.169922
1123.843, 2.386230
1124.325, 10.42773
1124.807, 17.23083
1125.289, 15.72278
1125.771, 19.33606
1126.253, 31.50537
1126.735, 41.84009
1127.218, 34.45532
1127.700, 21.34058
1128.182, 15.70447
1128.664, 19.11157
1129.146, 30.82935
1129.628, 57.39832
1130.110, 71.78357
1130.592, 60.57397
1131.074, 45.01697
1131.557, 18.97742
1132.039, 48.24451
1132.521, 64.08508
1133.003, 67.22058
1133.485, 19.51489
1133.967, 37.41125
1134.449, 35.11951
1134.931, 45.97949
1135.413, 69.76453
1135.896, 72.53931
1136.378, 59.50671
1136.860, 51.91089
1137.342, 65.53552
1137.824, 78.58093
1138.306, 84.03430
1138.788, 84.16736
1139.270, 78.89771
1139.752, 68.04907
1140.235, 63.83728
1140.717, 68.16882
1141.199, 68.45435
1141.681, 47.67993
1142.163, 26.03235
1142.645, 15.57544
1143.127, 14.31531
1143.609, 17.98010
1144.092, 27.83154
1144.574, 32.65234
1145.056, 31.03699
1145.538, 25.06750
1146.020, 10.45398
1146.502, 2.766968
1146.984, 1.123901
1147.466, 14.97925
1147.948, 18.15771
1148.431, 2.326172
1148.913, 3.156372
1149.395, 12.57178
1149.877, 33.29883
1150.359, 35.66235
1150.841, 29.29297
1151.323, 28.72742
1151.805, 38.99255
1152.287, 39.12537
1152.770, 23.76416
1153.252, 7.670288
1153.734, 6.092285
1154.216, 12.74609
1154.698, 4.432373
1155.180, 35.32300
1155.662, 57.33813
1156.144, 57.59705
1156.627, 61.62769
1157.109, 78.33948
1157.591, 90.16443
1158.073, 78.88049
1158.555, 53.00574
1159.037, 44.52856
1159.519, 49.34534
1160.001, 53.33838
1160.484, 45.48938
1160.966, 42.42773
1161.448, 51.98706
1161.930, 63.92468
1162.412, 66.04858
1162.894, 60.01343
1163.376, 56.82654
1163.858, 56.95020
1164.340, 57.00208
1164.823, 53.48291
1165.305, 51.16370
1165.787, 56.08508
1166.269, 61.41638
1166.751, 49.46802
1167.233, 22.40625
1167.715, 15.71472
1168.197, 35.83679
1168.679, 56.84753
1169.162, 55.00269
1169.644, 50.15503
1170.126, 59.78503
1170.608, 78.32349
1171.090, 71.77246
1171.572, 39.57251
1172.054, 35.09631
1172.536, 7.658325
1173.019, 43.75256
1173.501, 64.42102
1173.983, 70.49561
1174.465, 18.27197
1174.947, 41.32874
1175.429, 34.21472
1175.911, 25.86316
1176.393, 59.45300
1176.875, 15.13855
1177.358, 43.97754
1177.840, 42.17151
1178.322, 39.05664
1178.804, 37.15515
1179.286, 37.78308
1179.768, 33.86243
1180.250, 24.81128
1180.732, 15.22827
1181.214, 3.951050
1181.697, 2.658813
1182.179, 8.762695
1182.661, 28.57971
1183.143, 38.11121
1183.625, 29.26782
1184.107, 22.45581
1184.589, 17.41138
1185.071, 16.33069
1185.554, 24.52686
1186.036, 35.34973
1186.518, 37.16772
1187.000, 33.39539
1187.482, 36.95312
1187.964, 60.15308
1188.446, 67.00342
1188.928, 50.22253
1189.411, 29.94214
1189.893, 28.15454
1190.375, 36.59900
1190.857, 45.41650
1191.339, 52.94775
1191.821, 52.55029
1192.303, 34.78479
1192.785, 26.35400
1193.267, 34.27576
1193.750, 46.48975
1194.232, 48.21655
1194.714, 42.16357
1195.196, 28.56946
1195.678, 7.891357
1196.160, 2.248657
1196.642, 26.52405
1197.124, 46.61206
1197.606, 52.17114
1198.089, 52.12805
1198.571, 68.17468
1199.053, 88.40649
1199.535, 85.21790
1200.017, 49.08826
1200.499, 26.86511
1200.981, 36.40466
1201.463, 45.76501
1201.945, 41.26562
1202.428, 30.72754
1202.910, 35.50427
1203.392, 46.92896
1203.874, 43.54504
1204.356, 12.38025
1204.838, 6.865234
1205.320, 4.763184
1205.802, 6.420166
1206.285, 23.22046
1206.767, 40.89551
1207.249, 48.39636
1207.731, 47.81860
1208.213, 44.22278
1208.695, 35.96045
1209.177, 31.42590
1209.659, 5.661133
1210.141, 39.12146
1210.624, 58.14758
1211.106, 63.50464
1211.588, 14.14417
1212.070, 34.56641
1212.552, 27.61182
1213.034, 19.50891
1213.516, 50.53235
1213.998, 9.361938
1214.480, 35.85132
1214.963, 1.526733
1215.445, 2.329346
1215.927, 5.073853
1216.409, 7.891968
1216.891, 0.8322750
1217.373, 36.33179
1217.855, 59.38342
1218.337, 57.27649
1218.820, 48.43091
1219.302, 55.99072
1219.784, 71.41870
1220.266, 68.65027
1220.748, 49.66650
1221.230, 31.55933
1221.712, 19.64453
1222.194, 11.66956
1222.677, 7.651489
1223.159, 6.269653
1223.641, 6.023560
1224.123, 6.827393
1224.605, 7.247192
1225.087, 7.760742
1225.569, 13.25745
1226.051, 4.431274
1226.533, 18.26648
1227.016, 30.84351
1227.498, 34.42090
1227.980, 0.9700930
1228.462, 15.39636
1228.944, 15.04895
1229.426, 37.56018
1229.908, 54.99634
1230.390, 43.21973
1230.872, 37.79224
1231.355, 48.29089
1231.837, 65.94165
1232.319, 82.91565
1232.801, 94.09082
1233.283, 85.31909
1233.765, 53.63672
1234.247, 29.46851
1234.729, 17.98096
1235.212, 18.69263
1235.694, 35.99878
1236.176, 57.22339
1236.658, 59.18640
1237.140, 50.33521
1237.622, 44.12048
1238.104, 42.92676
1238.586, 44.15662
1239.068, 50.42297
1239.551, 55.46265
1240.033, 55.64246
1240.515, 53.62781
1240.997, 53.79211
1241.479, 54.88721
1241.961, 54.36829
1242.443, 51.78271
1242.925, 48.19189
1243.407, 42.95178
1243.890, 38.21484
1244.372, 34.31262
1244.854, 34.51514
1245.336, 40.05981
1245.818, 47.34521
1246.300, 50.07166
1246.782, 43.57886
1247.264, 51.55054
1247.747, 78.94861
1248.229, 96.24109
1248.711, 86.43457
1249.193, 63.03247
1249.675, 33.00696
1250.157, 7.177734
1250.639, 8.454468
1251.121, 47.81287
1251.604, 60.37195
1252.086, 42.70728
1252.568, 26.38696
1253.050, 31.33545
1253.532, 40.43469
1254.014, 34.20923
1254.496, 22.69653
1254.978, 20.37756
1255.460, 29.20789
1255.943, 37.36877
1256.425, 44.92456
1256.907, 47.26917
1257.389, 39.66479
1257.871, 28.58752
1258.353, 12.91821
1258.835, 0.7563480
1259.317, 3.410278
1259.799, 23.09973
1260.281, 35.00549
1260.764, 39.47705
1261.246, 40.76282
1261.728, 45.64368
1262.210, 44.71777
1262.692, 20.89319
1263.174, 3.462158
1263.656, 2.782593
1264.138, 22.52405
1264.621, 48.50793
1265.103, 73.49353
1265.585, 82.78882
1266.067, 57.42432
1266.549, 36.46057
1267.031, 37.83765
1267.513, 44.99561
1267.995, 29.40637
1268.478, 18.14368
1268.960, 9.107422
1269.442, 2.783081
1269.924, 1.217896
1270.406, 17.65686
1270.888, 23.56934
1271.370, 12.32666
1271.852, 0.0000000E+00
##END=



