##NAMES=Pectolite
##RRUFFID=R060101
##IDEAL CHEMISTRY=NaCa_2_Si_3_O_8_(OH)
##LOCALITY=West Patterson, New Jersey, USA
##OWNER=RRUFF
##SOURCE=University of Arizona Mineral Museum
##DESCRIPTION=Tufts of white acicular sprays
##STATUS=The identification of this mineral has been confirmed by X-ray diffraction and chemical analysis
##URL=rruff.info/R060101
##MEASURED CHEMISTRY=Na_1.02_Ca_2.00_Si_2.99_O_8_(OH)
150.5283, 0.0000000E+00
151.0105, 178.5000
151.4926, 167.5625
151.9747, 141.3135
152.4568, 142.5498
152.9389, 200.3047
153.4210, 279.3672
153.9032, 328.5566
154.3853, 348.3174
154.8674, 344.7959
155.3495, 311.1514
155.8316, 183.6455
156.3137, 91.02539
156.7959, 91.31055
157.2780, 141.9517
157.7601, 163.6768
158.2422, 112.9292
158.7243, 53.88916
159.2065, 13.60205
159.6886, 8.119629
160.1707, 19.29346
160.6528, 9.027832
161.1349, 13.16895
161.6170, 32.53027
162.0992, 42.91357
162.5813, 48.86328
163.0634, 54.71582
163.5455, 64.02979
164.0276, 73.38916
164.5097, 85.12988
164.9919, 99.55127
165.4740, 111.5913
165.9561, 111.2197
166.4382, 105.7905
166.9203, 104.7397
167.4024, 105.6875
167.8846, 125.3564
168.3667, 178.8813
168.8488, 260.8066
169.3309, 327.0938
169.8130, 333.9536
170.2952, 316.6367
170.7773, 312.0391
171.2594, 342.4902
171.7415, 378.9722
172.2236, 399.2085
172.7057, 404.8848
173.1879, 413.4434
173.6700, 437.5337
174.1521, 472.3374
174.6342, 505.1611
175.1163, 537.2559
175.5984, 573.2266
176.0806, 598.5723
176.5627, 615.8794
177.0448, 631.3721
177.5269, 645.0029
178.0090, 620.8389
178.4911, 603.6489
178.9733, 620.4624
179.4554, 634.5459
179.9375, 606.3926
180.4196, 546.2842
180.9017, 494.9819
181.3838, 479.4961
181.8660, 526.5562
182.3481, 564.0115
182.8302, 570.5664
183.3123, 564.0737
183.7944, 525.2505
184.2766, 445.9443
184.7587, 365.7893
185.2408, 343.7825
185.7229, 371.8704
186.2050, 400.6406
186.6871, 403.0330
187.1693, 387.2351
187.6514, 379.7246
188.1335, 384.1274
188.6156, 387.5181
189.0977, 364.4478
189.5798, 321.9521
190.0620, 291.3540
190.5441, 287.1553
191.0262, 306.5581
191.5083, 330.9773
191.9904, 367.1650
192.4725, 398.8796
192.9547, 389.0173
193.4368, 338.2473
193.9189, 283.0334
194.4010, 239.7393
194.8831, 208.2422
195.3652, 190.3171
195.8474, 190.4316
196.3295, 201.1926
196.8116, 202.3489
197.2937, 194.0989
197.7758, 190.8726
198.2579, 209.7646
198.7401, 248.7036
199.2222, 250.3599
199.7043, 197.7102
200.1864, 121.3171
200.6685, 96.40063
201.1507, 131.0701
201.6328, 169.4175
202.1149, 176.9946
202.5970, 150.2605
203.0791, 121.8350
203.5612, 91.17944
204.0434, 63.02710
204.5255, 56.06274
205.0076, 79.11914
205.4897, 93.18970
205.9718, 67.98071
206.4539, 2.960205
206.9361, 54.78906
207.4182, 76.30042
207.9003, 76.64990
208.3824, 63.20703
208.8645, 54.54871
209.3466, 54.44031
209.8288, 72.01685
210.3109, 117.7852
210.7930, 133.3601
211.2751, 98.93958
211.7572, 33.79932
212.2393, 16.44263
212.7215, 74.13940
213.2036, 125.2571
213.6857, 107.1266
214.1678, 10.08252
214.6499, 99.84570
215.1320, 147.9004
215.6142, 159.1432
216.0963, 155.4176
216.5784, 128.5421
217.0605, 103.3326
217.5426, 96.13831
218.0247, 111.5797
218.5069, 130.7494
218.9890, 154.2251
219.4711, 181.2772
219.9532, 207.2791
220.4353, 234.7626
220.9175, 254.5493
221.3996, 261.8252
221.8817, 254.4740
222.3638, 240.1498
222.8459, 216.4329
223.3280, 186.6850
223.8102, 166.5483
224.2923, 159.7964
224.7744, 159.1248
225.2565, 155.0447
225.7386, 132.5561
226.2207, 140.5630
226.7029, 207.8090
227.1850, 316.1230
227.6671, 349.0994
228.1492, 257.1306
228.6313, 148.7772
229.1134, 94.97876
229.5956, 122.7247
230.0777, 150.9365
230.5598, 173.5227
231.0419, 190.4990
231.5240, 210.3445
232.0062, 246.9153
232.4883, 274.0282
232.9704, 268.6819
233.4525, 199.6974
233.9346, 165.3054
234.4167, 186.4464
234.8989, 250.4076
235.3810, 295.3072
235.8631, 315.8693
236.3452, 325.6139
236.8273, 329.2482
237.3094, 318.5740
237.7916, 310.8597
238.2737, 309.2878
238.7558, 313.3752
239.2379, 319.4850
239.7200, 340.0493
240.2021, 346.4576
240.6843, 316.1302
241.1664, 208.2599
241.6485, 154.8308
242.1306, 184.6413
242.6127, 272.5644
243.0948, 323.6417
243.5770, 331.3440
244.0591, 311.1920
244.5412, 264.8340
245.0233, 163.3793
245.5054, 104.3339
245.9876, 105.9912
246.4697, 151.4559
246.9518, 188.5102
247.4339, 219.1190
247.9160, 236.3953
248.3981, 234.6181
248.8803, 204.2251
249.3624, 177.0178
249.8445, 147.9149
250.3266, 123.9936
250.8087, 127.5605
251.2908, 172.3238
251.7730, 219.1141
252.2551, 248.7655
252.7372, 253.9554
253.2193, 261.3050
253.7014, 272.9456
254.1835, 285.7170
254.6657, 291.6175
255.1478, 289.6440
255.6299, 282.5570
256.1120, 271.3997
256.5941, 254.6866
257.0763, 239.5832
257.5584, 227.7047
258.0405, 215.6301
258.5226, 191.2542
259.0047, 133.8114
259.4868, 165.0573
259.9690, 170.9950
260.4511, 347.5055
260.9332, 427.0525
261.4153, 371.5448
261.8974, 253.3941
262.3795, 199.5825
262.8617, 237.8554
263.3438, 276.4406
263.8259, 277.7002
264.3080, 229.6473
264.7901, 210.1934
265.2722, 237.7766
265.7544, 278.2479
266.2365, 273.1556
266.7186, 202.3698
267.2007, 160.9228
267.6828, 160.2115
268.1649, 178.3895
268.6471, 173.5440
269.1292, 143.2001
269.6113, 217.3836
270.0934, 240.9453
270.5755, 192.9881
271.0576, 151.0961
271.5398, 147.0803
272.0219, 184.5899
272.5040, 192.8368
272.9861, 160.7606
273.4682, 119.6450
273.9503, 103.5650
274.4325, 116.8287
274.9146, 130.3397
275.3967, 135.9258
275.8788, 135.9566
276.3610, 152.6524
276.8431, 191.5952
277.3252, 228.2852
277.8073, 237.2253
278.2894, 216.2955
278.7715, 196.1777
279.2537, 180.0233
279.7358, 168.8989
280.2179, 168.3513
280.7000, 177.7721
281.1821, 196.5445
281.6642, 231.5110
282.1464, 282.8653
282.6285, 313.4536
283.1106, 311.4288
283.5927, 291.4327
284.0748, 305.9314
284.5569, 360.7201
285.0391, 400.6797
285.5212, 372.9295
286.0033, 283.9218
286.4854, 215.3692
286.9675, 183.1311
287.4496, 171.2343
287.9318, 139.3389
288.4139, 122.3205
288.8960, 157.9229
289.3781, 147.9716
289.8602, 102.7483
290.3423, 126.4590
290.8245, 131.6394
291.3066, 126.5422
291.7887, 132.2347
292.2708, 147.8321
292.7529, 164.4486
293.2350, 188.4891
293.7172, 209.8130
294.1993, 193.0227
294.6814, 131.8296
295.1635, 115.7740
295.6456, 187.4023
296.1277, 250.8838
296.6099, 285.7995
297.0920, 263.6176
297.5741, 209.2035
298.0562, 168.2241
298.5383, 141.3094
299.0204, 124.2016
299.5026, 111.4680
299.9847, 105.9930
300.4668, 115.3351
300.9489, 154.1440
301.4311, 202.5965
301.9132, 233.4506
302.3953, 247.4076
302.8774, 247.0655
303.3595, 224.1044
303.8416, 191.5764
304.3238, 172.2370
304.8059, 176.2011
305.2880, 193.3029
305.7701, 219.0712
306.2522, 251.8214
306.7343, 276.5861
307.2165, 270.9857
307.6986, 256.4940
308.1807, 261.8351
308.6628, 304.7599
309.1449, 351.3577
309.6270, 373.1791
310.1092, 377.4018
310.5913, 385.3620
311.0734, 416.2137
311.5555, 451.7702
312.0376, 472.6821
312.5197, 468.4424
313.0019, 467.9883
313.4840, 495.4536
313.9661, 538.9048
314.4482, 574.5563
314.9303, 586.0890
315.4124, 591.6478
315.8946, 605.5176
316.3767, 634.1695
316.8588, 648.6125
317.3409, 634.2484
317.8230, 601.0358
318.3051, 562.1245
318.7873, 521.8196
319.2694, 475.2605
319.7515, 410.5108
320.2336, 324.4866
320.7157, 266.1385
321.1978, 273.1105
321.6800, 302.6545
322.1621, 315.9899
322.6442, 288.2453
323.1263, 261.3680
323.6084, 247.2988
324.0905, 245.2199
324.5727, 238.2045
325.0548, 204.1106
325.5369, 178.1542
326.0190, 182.0021
326.5012, 254.8657
326.9833, 316.4785
327.4654, 369.1236
327.9475, 405.5612
328.4296, 410.2931
328.9117, 349.3960
329.3939, 290.0153
329.8760, 258.9627
330.3581, 274.7276
330.8402, 282.4147
331.3223, 277.8708
331.8044, 266.5733
332.2866, 262.0866
332.7687, 274.7735
333.2508, 277.2539
333.7329, 255.2138
334.2150, 196.8606
334.6971, 162.0537
335.1793, 156.4063
335.6614, 170.6865
336.1435, 196.2239
336.6256, 243.6113
337.1077, 276.0703
337.5898, 285.1089
338.0720, 272.4179
338.5541, 236.2488
339.0362, 159.3802
339.5183, 95.02829
340.0004, 105.5486
340.4825, 206.9257
340.9647, 289.2459
341.4468, 336.5496
341.9289, 350.3344
342.4110, 329.6606
342.8931, 269.3298
343.3752, 213.8616
343.8574, 191.4959
344.3395, 199.9780
344.8216, 236.0072
345.3037, 310.2762
345.7858, 386.4417
346.2679, 384.4793
346.7501, 308.7567
347.2322, 244.4463
347.7143, 245.8167
348.1964, 294.3709
348.6785, 331.7853
349.1607, 357.1846
349.6428, 371.5576
350.1249, 375.2417
350.6070, 369.6520
351.0891, 359.2413
351.5713, 339.8241
352.0534, 321.6819
352.5355, 325.3537
353.0176, 350.5700
353.4997, 374.9661
353.9818, 380.6225
354.4640, 371.7653
354.9461, 356.2013
355.4282, 332.0877
355.9103, 305.2619
356.3924, 284.1579
356.8745, 266.7644
357.3567, 243.1022
357.8388, 194.4506
358.3209, 145.6581
358.8030, 118.9364
359.2851, 120.1116
359.7672, 137.3076
360.2494, 188.3888
360.7315, 249.0778
361.2136, 273.4042
361.6957, 194.8093
362.1778, 116.2171
362.6599, 101.0213
363.1421, 164.7214
363.6242, 207.8289
364.1063, 178.0394
364.5884, 121.4900
365.0705, 85.07222
365.5526, 65.99748
366.0348, 79.88800
366.5169, 155.2867
366.9990, 285.5204
367.4811, 371.1821
367.9632, 371.7166
368.4453, 346.4835
368.9275, 328.3896
369.4096, 314.7335
369.8917, 312.3316
370.3738, 319.6663
370.8559, 338.4473
371.3380, 374.2255
371.8202, 451.7905
372.3023, 514.1658
372.7844, 535.3287
373.2665, 503.7849
373.7487, 484.2044
374.2308, 473.1231
374.7129, 466.0999
375.1950, 465.4531
375.6771, 478.5553
376.1592, 482.8803
376.6414, 475.0476
377.1235, 454.3477
377.6056, 403.4970
378.0877, 307.8282
378.5698, 230.1111
379.0519, 260.6728
379.5341, 398.7922
380.0162, 445.0637
380.4983, 331.4124
380.9804, 141.9221
381.4625, 75.80612
381.9446, 130.7009
382.4268, 191.1191
382.9089, 188.8324
383.3910, 133.8164
383.8731, 56.17574
384.3552, 47.52457
384.8373, 136.0595
385.3195, 147.8333
385.8016, 102.7735
386.2837, 58.34427
386.7658, 51.84584
387.2479, 57.41605
387.7300, 36.03008
388.2122, 12.33455
388.6943, 61.82726
389.1764, 95.15265
389.6585, 111.8805
390.1406, 105.9329
390.6227, 57.96565
391.1049, 14.24550
391.5870, 15.11482
392.0691, 45.21487
392.5512, 62.20838
393.0333, 30.53703
393.5154, 6.472115
393.9976, 18.96682
394.4797, 3.837273
394.9618, 23.98695
395.4439, 10.78103
395.9260, 9.079773
396.4081, 3.090309
396.8903, 62.75819
397.3724, 127.4815
397.8545, 179.1178
398.3366, 218.8459
398.8188, 250.3809
399.3009, 264.3475
399.7830, 274.9254
400.2651, 292.0012
400.7472, 336.2701
401.2293, 354.1188
401.7115, 332.8911
402.1936, 285.0099
402.6757, 244.6436
403.1578, 202.0148
403.6399, 183.1983
404.1220, 205.5614
404.6042, 279.0992
405.0863, 333.6716
405.5684, 361.8413
406.0505, 382.0844
406.5326, 426.9360
407.0147, 504.3059
407.4969, 546.5421
407.9790, 525.6866
408.4611, 459.2341
408.9432, 412.2260
409.4253, 385.2042
409.9074, 378.1180
410.3896, 397.7712
410.8717, 439.4351
411.3538, 476.6027
411.8359, 504.3339
412.3180, 530.7542
412.8001, 582.6400
413.2823, 648.4152
413.7644, 686.6510
414.2465, 654.1288
414.7286, 589.8181
415.2107, 548.7533
415.6928, 534.2321
416.1750, 516.0591
416.6571, 458.8765
417.1392, 386.1277
417.6213, 330.5202
418.1034, 312.0587
418.5855, 300.6902
419.0677, 277.5660
419.5498, 246.5767
420.0319, 220.4328
420.5140, 209.0837
420.9961, 202.8496
421.4782, 195.1796
421.9604, 184.1048
422.4425, 172.7697
422.9246, 165.5490
423.4067, 157.5990
423.8889, 142.8377
424.3710, 113.6749
424.8531, 85.13792
425.3352, 57.79871
425.8173, 31.50774
426.2994, 14.27978
426.7816, 4.047974
427.2637, 5.051727
427.7458, 21.19576
428.2279, 52.55252
428.7100, 103.4149
429.1921, 198.3926
429.6743, 297.1982
430.1564, 275.4642
430.6385, 95.98743
431.1206, 33.32118
431.6027, 2.715286
432.0848, 11.62369
432.5670, 34.09562
433.0491, 43.24755
433.5312, 38.24216
434.0133, 46.39183
434.4954, 64.64420
434.9775, 68.39133
435.4597, 48.09552
435.9418, 15.59112
436.4239, 24.59644
436.9060, 1.417824
437.3881, 7.297554
437.8702, 27.63100
438.3524, 160.2567
438.8345, 199.4261
439.3166, 120.1088
439.7987, 29.04710
440.2808, 1.458553
440.7629, 12.31685
441.2451, 45.43737
441.7272, 128.7584
442.2093, 189.4690
442.6914, 164.8677
443.1735, 73.83727
443.6556, 12.76249
444.1378, 52.76239
444.6199, 103.4790
445.1020, 104.8246
445.5841, 12.86583
446.0662, 22.67638
446.5483, 10.66605
447.0305, 30.80867
447.5126, 26.39541
447.9947, 23.59235
448.4768, 21.16003
448.9590, 15.11703
449.4411, 5.101213
449.9232, 1.858000
450.4053, 9.405621
450.8874, 19.56414
451.3695, 28.17072
451.8517, 0.9071880
452.3338, 18.06558
452.8159, 42.19575
453.2980, 152.7902
453.7801, 210.8648
454.2622, 213.8580
454.7444, 199.6658
455.2265, 175.3961
455.7086, 145.7949
456.1907, 134.7023
456.6728, 144.1726
457.1549, 154.1592
457.6371, 145.3922
458.1192, 124.0281
458.6013, 105.3207
459.0834, 92.26197
459.5655, 84.16846
460.0476, 80.95798
460.5298, 82.37679
461.0119, 85.71761
461.4940, 92.06242
461.9761, 99.10652
462.4582, 100.7601
462.9403, 95.67535
463.4225, 105.0047
463.9046, 174.7876
464.3867, 247.4845
464.8688, 266.2087
465.3509, 159.2372
465.8330, 66.70946
466.3152, 14.77651
466.7973, 3.390564
467.2794, 9.548137
467.7615, 17.31394
468.2436, 37.21304
468.7257, 31.34434
469.2079, 2.805002
469.6900, 7.465860
470.1721, 24.42857
470.6542, 91.09586
471.1363, 129.3874
471.6184, 136.0335
472.1006, 124.5460
472.5827, 91.26453
473.0648, 45.04861
473.5469, 9.191132
474.0291, 4.177873
474.5112, 13.68256
474.9933, 5.283592
475.4754, 35.62679
475.9575, 76.27785
476.4396, 116.9357
476.9218, 143.2214
477.4039, 125.5372
477.8860, 81.10583
478.3681, 50.44680
478.8502, 47.63822
479.3323, 61.51989
479.8145, 93.41999
480.2966, 136.1001
480.7787, 161.0370
481.2608, 137.4257
481.7429, 103.0337
482.2250, 83.58832
482.7072, 83.66026
483.1893, 88.14855
483.6714, 109.8484
484.1535, 125.9484
484.6356, 113.5914
485.1177, 8.515491
485.5999, 51.17196
486.0820, 9.726438
486.5641, 98.17926
487.0462, 139.3812
487.5283, 55.83570
488.0104, 18.99604
488.4926, 29.65276
488.9747, 33.72074
489.4568, 81.34522
489.9389, 117.7659
490.4210, 137.1174
490.9031, 119.7141
491.3853, 61.67680
491.8674, 29.63858
492.3495, 42.35198
492.8316, 81.34166
493.3137, 114.5335
493.7958, 140.7041
494.2780, 146.0019
494.7601, 96.24194
495.2422, 30.15049
495.7243, 32.27874
496.2064, 105.8276
496.6885, 191.1611
497.1707, 255.7778
497.6528, 299.2555
498.1349, 319.7350
498.6170, 308.0135
499.0992, 292.6694
499.5813, 290.8925
500.0634, 297.1820
500.5455, 298.6700
501.0276, 283.1493
501.5097, 268.4615
501.9919, 264.8919
502.4740, 274.6279
502.9561, 281.2019
503.4382, 290.7853
503.9203, 287.7993
504.4024, 263.5280
504.8846, 194.7653
505.3667, 154.3150
505.8488, 158.2402
506.3309, 184.2228
506.8130, 183.3774
507.2951, 150.9395
507.7773, 114.8669
508.2594, 79.22285
508.7415, 47.01585
509.2236, 39.23301
509.7057, 58.57320
510.1878, 88.13428
510.6700, 128.4475
511.1521, 169.1629
511.6342, 187.0796
512.1163, 176.3260
512.5984, 150.4016
513.0806, 105.7712
513.5627, 56.81389
514.0448, 33.52951
514.5269, 81.50020
515.0090, 132.4096
515.4911, 127.6250
515.9733, 76.71271
516.4554, 47.48914
516.9375, 88.92704
517.4196, 143.0303
517.9017, 174.1661
518.3839, 167.0718
518.8660, 165.6005
519.3481, 186.2246
519.8302, 208.1351
520.3123, 206.3517
520.7944, 167.5109
521.2766, 133.8404
521.7587, 115.2954
522.2408, 104.8143
522.7229, 62.10785
523.2050, 19.19081
523.6871, 46.10798
524.1693, 31.55075
524.6514, 4.794617
525.1335, 37.06532
525.6156, 14.45518
526.0977, 18.23645
526.5798, 12.56101
527.0620, 19.08718
527.5441, 42.34511
528.0262, 38.71695
528.5083, 44.85738
528.9904, 131.4061
529.4725, 258.9764
529.9547, 331.2675
530.4368, 243.3302
530.9189, 127.7231
531.4010, 61.55449
531.8831, 47.87352
532.3652, 60.41199
532.8474, 136.3138
533.3295, 205.0550
533.8116, 214.7392
534.2937, 81.74627
534.7758, 24.69331
535.2579, 110.1234
535.7401, 244.6693
536.2222, 284.9953
536.7043, 187.5308
537.1864, 104.3971
537.6685, 73.30126
538.1506, 82.20816
538.6328, 70.63735
539.1149, 36.17945
539.5970, 7.778076
540.0791, 3.612883
540.5612, 0.6792530
541.0433, 30.58212
541.5255, 88.53851
542.0076, 149.1659
542.4897, 197.2077
542.9718, 227.3764
543.4539, 234.2037
543.9360, 210.1686
544.4182, 172.4758
544.9003, 103.5570
545.3824, 28.21547
545.8645, 2.064186
546.3466, 80.87172
546.8287, 178.0489
547.3109, 238.3513
547.7930, 257.1553
548.2751, 279.4460
548.7572, 350.1342
549.2393, 400.1301
549.7214, 387.1579
550.2036, 266.1303
550.6857, 189.1901
551.1678, 169.2453
551.6499, 181.0233
552.1320, 196.9516
552.6141, 222.7855
553.0963, 218.1333
553.5784, 158.4501
554.0605, 81.40394
554.5426, 84.85499
555.0247, 163.6854
555.5068, 232.6102
555.9890, 220.0704
556.4711, 169.8913
556.9532, 162.7803
557.4353, 203.3498
557.9174, 250.1509
558.3995, 298.5230
558.8817, 324.4200
559.3638, 289.6721
559.8459, 130.7023
560.3281, 17.49889
560.8102, 76.86871
561.2923, 213.4565
561.7744, 276.7660
562.2565, 144.0795
562.7386, 40.48009
563.2208, 26.69727
563.7029, 88.58987
564.1850, 123.7080
564.6671, 118.0816
565.1492, 113.0099
565.6313, 133.7212
566.1135, 187.7103
566.5956, 180.7335
567.0777, 95.85946
567.5598, 8.632275
568.0419, 6.301937
568.5240, 74.09126
569.0062, 139.7546
569.4883, 189.3039
569.9704, 228.5889
570.4525, 273.7715
570.9346, 314.8986
571.4167, 322.6902
571.8989, 249.6584
572.3810, 168.5654
572.8631, 135.3583
573.3452, 143.6856
573.8273, 144.4418
574.3094, 111.2832
574.7916, 71.84651
575.2737, 34.68643
575.7558, 12.27124
576.2379, 11.28841
576.7200, 92.59551
577.2021, 199.3108
577.6843, 206.7246
578.1664, 55.69252
578.6485, 14.00824
579.1306, 45.89648
579.6127, 171.9990
580.0948, 242.5297
580.5770, 256.9113
581.0591, 252.4074
581.5412, 233.4288
582.0233, 214.2836
582.5054, 241.4508
582.9875, 304.7314
583.4697, 342.0859
583.9518, 273.9692
584.4339, 177.1124
584.9160, 137.5400
585.3981, 168.5919
585.8802, 209.5506
586.3624, 257.7163
586.8445, 288.0032
587.3266, 276.5398
587.8087, 146.9943
588.2908, 67.88251
588.7729, 96.32915
589.2551, 176.6227
589.7372, 213.9439
590.2193, 182.3339
590.7014, 159.9062
591.1835, 173.8226
591.6656, 211.2935
592.1478, 193.8583
592.6299, 111.3683
593.1120, 42.40960
593.5941, 43.86495
594.0762, 97.34377
594.5583, 148.5648
595.0405, 196.2000
595.5226, 209.8899
596.0047, 121.3299
596.4868, 4.558029
596.9689, 7.523479
597.4510, 24.49123
597.9332, 17.40238
598.4153, 84.59733
598.8974, 142.3022
599.3795, 162.1752
599.8616, 104.9430
600.3438, 45.21883
600.8259, 16.24378
601.3080, 5.971853
601.7901, 1.683096
602.2722, 49.93690
602.7543, 129.9566
603.2365, 102.7577
603.7186, 29.63207
604.2007, 29.79272
604.6828, 20.17516
605.1649, 28.32111
605.6470, 47.37789
606.1292, 147.7569
606.6113, 203.1281
607.0934, 201.0620
607.5755, 172.9851
608.0576, 126.5997
608.5398, 80.79278
609.0219, 72.20470
609.5040, 166.9134
609.9861, 237.0600
610.4683, 169.7770
610.9504, 18.42232
611.4325, 26.04621
611.9146, 6.755705
612.3967, 5.523958
612.8788, 23.79290
613.3610, 37.79330
613.8431, 32.61007
614.3252, 1.651350
614.8073, 25.01316
615.2894, 7.370436
615.7715, 6.388948
616.2537, 3.252178
616.7358, 18.34612
617.2179, 9.612133
617.7000, 18.48611
618.1821, 43.38517
618.6642, 53.77645
619.1464, 39.43731
619.6285, 39.69973
620.1106, 140.9309
620.5927, 275.9590
621.0748, 329.8306
621.5569, 156.6749
622.0391, 3.805254
622.5212, 21.50800
623.0033, 60.86198
623.4854, 110.3295
623.9675, 55.73035
624.4496, 15.90840
624.9318, 33.17215
625.4139, 106.5746
625.8960, 160.1883
626.3781, 195.5801
626.8602, 209.6633
627.3423, 189.4068
627.8245, 135.3410
628.3066, 102.2243
628.7887, 91.18157
629.2708, 107.7082
629.7529, 165.8900
630.2350, 243.9790
630.7172, 304.0364
631.1993, 327.5856
631.6814, 355.8296
632.1635, 433.0380
632.6456, 533.1404
633.1277, 617.5707
633.6099, 690.8767
634.0920, 728.6233
634.5741, 703.0484
635.0562, 629.9848
635.5383, 569.4290
636.0204, 523.8726
636.5026, 494.3308
636.9847, 476.4507
637.4668, 467.9506
637.9489, 490.0147
638.4310, 549.8253
638.9131, 620.2694
639.3953, 685.6514
639.8774, 748.4432
640.3595, 817.3956
640.8416, 894.2616
641.3237, 964.4162
641.8058, 1012.144
642.2880, 1042.797
642.7701, 1052.993
643.2522, 1022.446
643.7343, 1026.598
644.2164, 1141.941
644.6985, 1302.986
645.1807, 1420.984
645.6628, 1419.138
646.1449, 1443.873
646.6270, 1529.127
647.1091, 1651.553
647.5912, 1755.891
648.0734, 1859.547
648.5555, 1895.978
649.0376, 1819.738
649.5197, 1664.332
650.0018, 1586.793
650.4839, 1586.224
650.9661, 1594.445
651.4482, 1565.757
651.9303, 1517.900
652.4124, 1491.242
652.8945, 1486.546
653.3766, 1457.131
653.8588, 1359.750
654.3409, 1231.489
654.8230, 1094.666
655.3051, 939.1007
655.7872, 828.2396
656.2693, 810.3125
656.7515, 820.5489
657.2336, 795.8749
657.7158, 718.1295
658.1979, 639.4773
658.6800, 554.6994
659.1621, 476.4173
659.6442, 423.8247
660.1263, 398.0115
660.6085, 409.1745
661.0906, 475.1887
661.5727, 557.4817
662.0548, 609.3245
662.5369, 630.3076
663.0190, 611.4578
663.5012, 513.5422
663.9833, 402.8101
664.4654, 343.3668
664.9475, 328.6149
665.4296, 290.0152
665.9117, 182.7552
666.3939, 68.18650
666.8760, 29.56590
667.3581, 77.15240
667.8402, 88.39016
668.3223, 20.21994
668.8044, 130.3488
669.2866, 190.1088
669.7687, 161.4296
670.2508, 139.9484
670.7329, 131.8332
671.2150, 114.5421
671.6971, 27.21579
672.1793, 18.52008
672.6614, 43.99478
673.1435, 0.7314220
673.6256, 132.4975
674.1077, 180.7803
674.5898, 176.2472
675.0720, 169.7213
675.5541, 184.4986
676.0362, 188.8074
676.5183, 171.4640
677.0004, 137.5508
677.4825, 97.91888
677.9647, 32.79514
678.4468, 7.796631
678.9289, 62.49371
679.4110, 169.6286
679.8931, 188.1661
680.3752, 112.5157
680.8574, 41.24521
681.3395, 33.00980
681.8216, 62.37867
682.3037, 81.40024
682.7858, 89.88699
683.2679, 84.96030
683.7501, 44.75302
684.2322, 2.359791
684.7143, 7.946140
685.1964, 24.23613
685.6785, 40.67661
686.1606, 4.741909
686.6428, 35.61195
687.1249, 37.09816
687.6070, 36.36510
688.0891, 82.41077
688.5712, 75.93343
689.0533, 51.83167
689.5355, 60.36316
690.0176, 100.0591
690.4997, 101.2634
690.9818, 37.02285
691.4639, 26.18198
691.9460, 41.39263
692.4282, 181.5615
692.9103, 246.4183
693.3924, 100.4163
693.8745, 35.07118
694.3566, 10.58688
694.8387, 10.38956
695.3209, 49.46617
695.8030, 51.74215
696.2851, 90.81647
696.7672, 222.7391
697.2493, 415.2910
697.7314, 463.6790
698.2136, 317.7234
698.6957, 192.8460
699.1778, 200.8553
699.6599, 304.6968
700.1420, 356.3194
700.6241, 357.6687
701.1063, 327.1429
701.5884, 243.3516
702.0705, 153.8806
702.5526, 125.7455
703.0347, 163.6200
703.5168, 203.2897
703.9990, 210.9806
704.4811, 210.1014
704.9632, 217.9644
705.4453, 246.6089
705.9274, 254.5349
706.4095, 239.5313
706.8917, 205.8873
707.3738, 145.2369
707.8560, 49.85400
708.3381, 6.213490
708.8202, 27.56535
709.3023, 78.17523
709.7844, 124.7434
710.2665, 164.1139
710.7487, 192.5053
711.2308, 209.3028
711.7129, 223.6706
712.1950, 249.5088
712.6771, 276.5501
713.1592, 289.3874
713.6414, 264.1700
714.1235, 245.2416
714.6056, 239.0240
715.0877, 246.3869
715.5698, 272.0051
716.0519, 324.5948
716.5341, 360.3505
717.0162, 366.8718
717.4983, 353.8230
717.9804, 348.0477
718.4625, 348.8738
718.9446, 343.7780
719.4268, 314.6671
719.9089, 284.0952
720.3910, 294.5625
720.8731, 334.0141
721.3552, 353.7627
721.8373, 324.3004
722.3195, 273.0959
722.8016, 195.7899
723.2837, 93.71815
723.7658, 51.81841
724.2479, 107.8093
724.7300, 172.2380
725.2122, 202.4164
725.6943, 201.8686
726.1764, 242.5022
726.6585, 330.2202
727.1406, 395.8838
727.6227, 375.1205
728.1049, 296.3208
728.5870, 212.0369
729.0691, 125.0969
729.5512, 71.06340
730.0333, 81.32835
730.5154, 129.7884
730.9976, 206.0471
731.4797, 327.7704
731.9618, 399.6249
732.4439, 368.7542
732.9260, 305.2351
733.4081, 262.0755
733.8903, 240.2987
734.3724, 243.0999
734.8545, 280.9169
735.3366, 317.9447
735.8187, 298.0584
736.3008, 234.0551
736.7830, 183.1142
737.2651, 155.7748
737.7472, 147.2889
738.2293, 156.7625
738.7114, 180.8449
739.1935, 212.8918
739.6757, 264.2558
740.1578, 305.7995
740.6399, 328.0930
741.1220, 333.8629
741.6041, 331.7024
742.0862, 319.3982
742.5684, 293.1009
743.0505, 244.1277
743.5326, 193.1387
744.0147, 198.9698
744.4968, 253.1841
744.9789, 293.2195
745.4611, 296.7178
745.9432, 277.1196
746.4253, 238.4745
746.9074, 194.4545
747.3895, 180.5750
747.8716, 297.3050
748.3538, 364.4646
748.8359, 260.0853
749.3180, 24.60656
749.8001, 39.92500
750.2822, 64.17312
750.7643, 36.07748
751.2465, 30.92442
751.7286, 84.13068
752.2107, 99.73193
752.6928, 17.45662
753.1749, 30.91454
753.6570, 37.02929
754.1392, 1.836143
754.6213, 32.71461
755.1034, 53.55457
755.5855, 59.59780
756.0676, 12.96142
756.5498, 17.60449
757.0319, 26.24149
757.5140, 148.5096
757.9962, 219.3481
758.4783, 195.4212
758.9604, 169.3775
759.4425, 189.7483
759.9246, 253.4317
760.4067, 269.4092
760.8889, 228.8919
761.3710, 199.9310
761.8531, 248.4637
762.3352, 338.2696
762.8173, 401.9193
763.2994, 435.6237
763.7816, 443.0549
764.2637, 425.5565
764.7458, 386.3191
765.2279, 315.4325
765.7100, 206.1061
766.1921, 109.4829
766.6743, 12.75821
767.1564, 24.97437
767.6385, 30.91788
768.1206, 41.15120
768.6027, 97.62661
769.0848, 124.8443
769.5670, 128.1326
770.0491, 95.22546
770.5312, 46.35754
771.0133, 29.95073
771.4954, 54.82536
771.9775, 67.84081
772.4597, 7.018576
772.9418, 7.686398
773.4239, 3.344673
773.9060, 65.30716
774.3881, 166.4103
774.8702, 207.3027
775.3524, 217.2110
775.8345, 219.1110
776.3166, 214.0207
776.7987, 193.5810
777.2808, 153.5712
777.7629, 119.7098
778.2451, 125.4188
778.7272, 156.3857
779.2093, 191.0400
779.6914, 231.3819
780.1735, 242.9191
780.6556, 150.4954
781.1378, 46.75922
781.6199, 23.55421
782.1020, 152.2477
782.5841, 273.3638
783.0662, 415.4877
783.5483, 516.3693
784.0305, 477.4292
784.5126, 291.7623
784.9947, 180.7595
785.4768, 179.6784
785.9589, 213.3083
786.4410, 204.7035
786.9232, 166.4971
787.4053, 119.9547
787.8874, 66.12306
788.3695, 17.48652
788.8516, 31.59481
789.3337, 10.62500
789.8159, 13.95229
790.2980, 107.6089
790.7801, 199.5760
791.2622, 173.7383
791.7443, 109.6971
792.2264, 123.2493
792.7086, 208.4028
793.1907, 242.3840
793.6728, 198.9665
794.1549, 128.1503
794.6370, 72.84161
795.1191, 32.64975
795.6013, 6.340313
796.0834, 8.688278
796.5655, 4.403812
797.0476, 56.42253
797.5297, 127.8032
798.0118, 134.7692
798.4940, 39.95376
798.9761, 15.01062
799.4582, 14.61837
799.9403, 17.40418
800.4224, 51.97536
800.9045, 90.39768
801.3867, 151.0383
801.8688, 247.1720
802.3509, 327.6193
802.8330, 327.4339
803.3151, 286.4802
803.7972, 247.9045
804.2794, 211.9922
804.7615, 211.2744
805.2436, 315.1966
805.7258, 428.0792
806.2079, 431.2811
806.6900, 278.5461
807.1721, 191.3239
807.6542, 204.2805
808.1364, 254.6582
808.6185, 262.5117
809.1006, 239.1317
809.5827, 213.8838
810.0648, 187.6930
810.5469, 168.6217
811.0291, 164.1143
811.5112, 167.6440
811.9933, 172.6221
812.4754, 187.6578
812.9575, 178.0526
813.4396, 124.6891
813.9218, 64.39547
814.4039, 39.82233
814.8860, 56.40891
815.3681, 77.21694
815.8502, 103.3112
816.3323, 115.5606
816.8145, 79.07789
817.2966, 16.62603
817.7787, 33.82923
818.2608, 19.99799
818.7429, 17.59004
819.2250, 3.073143
819.7072, 91.39476
820.1893, 132.1182
820.6714, 110.4932
821.1535, 76.97653
821.6356, 16.21683
822.1177, 29.79894
822.5999, 1.779083
823.0820, 87.23643
823.5641, 151.2510
824.0462, 179.1629
824.5283, 192.2381
825.0104, 189.7473
825.4926, 190.7255
825.9747, 228.1205
826.4568, 331.9210
826.9389, 374.1660
827.4210, 233.1134
827.9031, 93.34965
828.3853, 92.66655
828.8674, 274.2520
829.3495, 381.1729
829.8316, 402.8583
830.3137, 383.9391
830.7958, 356.0605
831.2780, 322.1314
831.7601, 286.7513
832.2422, 248.4796
832.7243, 203.9884
833.2064, 105.5262
833.6885, 37.03670
834.1707, 89.03940
834.6528, 334.8802
835.1349, 429.4149
835.6170, 296.4957
836.0991, 142.0596
836.5812, 109.7004
837.0634, 189.5432
837.5455, 227.8692
838.0276, 223.9049
838.5097, 223.6582
838.9918, 265.7072
839.4739, 327.7862
839.9561, 406.3561
840.4382, 498.7296
840.9203, 522.3439
841.4024, 352.2536
841.8845, 201.9122
842.3666, 177.6476
842.8488, 276.4442
843.3309, 333.8799
843.8130, 347.7597
844.2951, 336.5600
844.7772, 309.8120
845.2593, 267.5783
845.7415, 195.1870
846.2236, 101.4740
846.7057, 28.93723
847.1878, 10.79185
847.6699, 19.86069
848.1520, 54.84563
848.6342, 108.4387
849.1163, 143.7884
849.5984, 153.5900
850.0805, 153.4449
850.5626, 137.0644
851.0447, 118.5654
851.5269, 155.8308
852.0090, 241.5948
852.4911, 321.8342
852.9732, 407.0958
853.4553, 436.5749
853.9374, 283.3814
854.4196, 32.19882
854.9017, 17.11951
855.3839, 23.99216
855.8660, 144.5980
856.3481, 196.2105
856.8302, 199.0802
857.3123, 201.8578
857.7944, 207.4903
858.2766, 201.2936
858.7587, 181.5802
859.2408, 147.4906
859.7229, 74.40791
860.2050, 10.24631
860.6871, 46.43208
861.1693, 39.42534
861.6514, 93.43002
862.1335, 18.98820
862.6156, 2.388985
863.0977, 61.50701
863.5798, 51.95203
864.0620, 7.002541
864.5441, 33.11460
865.0262, 162.6915
865.5083, 219.2282
865.9904, 215.2402
866.4725, 185.1027
866.9547, 128.3402
867.4368, 79.67036
867.9189, 50.49170
868.4010, 47.98391
868.8831, 84.78065
869.3652, 193.3522
869.8474, 264.0254
870.3295, 296.5178
870.8116, 291.6266
871.2937, 229.5782
871.7758, 124.0856
872.2579, 75.43866
872.7401, 86.25897
873.2222, 110.5820
873.7043, 131.9290
874.1864, 134.3201
874.6685, 88.47917
875.1506, 3.418007
875.6328, 17.27751
876.1149, 1.866100
876.5970, 7.299892
877.0791, 42.34729
877.5612, 15.18739
878.0433, 128.5827
878.5255, 297.8543
879.0076, 405.0853
879.4897, 304.7707
879.9718, 139.7926
880.4539, 132.0011
880.9360, 240.9135
881.4182, 330.5429
881.9003, 342.5853
882.3824, 330.9257
882.8645, 293.0240
883.3466, 243.8030
883.8287, 233.8088
884.3109, 275.4847
884.7930, 292.0260
885.2751, 251.1365
885.7572, 199.9971
886.2393, 204.9370
886.7214, 249.6656
887.2036, 301.6653
887.6857, 369.0690
888.1678, 406.4815
888.6499, 393.2746
889.1320, 337.8783
889.6141, 245.9487
890.0963, 83.15740
890.5784, 13.33905
891.0605, 22.05547
891.5426, 7.230206
892.0247, 23.07226
892.5068, 31.13088
892.9890, 46.21867
893.4711, 70.32002
893.9532, 104.3647
894.4353, 166.1026
894.9174, 225.3619
895.3995, 254.9785
895.8817, 242.4917
896.3638, 236.9169
896.8459, 224.0512
897.3280, 245.5116
897.8101, 355.6577
898.2922, 527.7238
898.7744, 594.1940
899.2565, 563.0687
899.7386, 530.5822
900.2207, 565.9845
900.7028, 615.5101
901.1849, 634.1899
901.6671, 626.0790
902.1492, 644.6775
902.6313, 736.4225
903.1134, 777.1814
903.5955, 708.7353
904.0776, 587.8112
904.5598, 592.1447
905.0419, 705.5862
905.5240, 793.9293
906.0062, 796.3802
906.4883, 775.2361
906.9704, 792.4572
907.4525, 823.1227
907.9346, 827.3254
908.4167, 769.9176
908.8989, 719.8911
909.3810, 685.9178
909.8631, 655.2167
910.3452, 595.9208
910.8273, 513.1545
911.3094, 501.4341
911.7916, 577.6534
912.2737, 674.5768
912.7558, 760.1945
913.2379, 817.5297
913.7200, 784.3638
914.2021, 616.4780
914.6843, 569.5574
915.1664, 807.3671
915.6485, 1015.169
916.1306, 1001.054
916.6127, 783.0255
917.0948, 672.1129
917.5770, 668.1371
918.0591, 680.4197
918.5412, 658.9148
919.0233, 622.7805
919.5054, 580.0987
919.9875, 529.4401
920.4697, 461.4137
920.9518, 340.2071
921.4339, 248.8829
921.9160, 207.6585
922.3981, 208.5835
922.8802, 232.5706
923.3624, 277.6277
923.8445, 319.1612
924.3266, 352.9248
924.8087, 373.7596
925.2908, 382.0768
925.7729, 373.1764
926.2551, 339.2836
926.7372, 257.0549
927.2193, 191.7555
927.7014, 172.5417
928.1835, 151.8669
928.6656, 70.88714
929.1478, 45.96939
929.6299, 17.92146
930.1120, 4.725746
930.5941, 43.31678
931.0762, 50.14531
931.5583, 33.28515
932.0405, 21.31945
932.5226, 113.2287
933.0047, 135.0783
933.4868, 12.79828
933.9689, 9.643307
934.4510, 35.62843
934.9332, 18.14695
935.4153, 40.69752
935.8974, 58.33863
936.3795, 75.40666
936.8616, 36.64193
937.3438, 167.9299
937.8259, 244.0039
938.3080, 224.0257
938.7901, 170.6579
939.2722, 44.82993
939.7543, 36.33291
940.2365, 52.91370
940.7186, 29.91328
941.2007, 16.34456
941.6828, 80.80647
942.1649, 81.93353
942.6470, 0.8897170
943.1292, 70.66970
943.6113, 42.62543
944.0934, 32.89676
944.5755, 108.5373
945.0576, 176.3977
945.5397, 258.8844
946.0219, 407.8878
946.5040, 489.2677
946.9861, 400.1878
947.4682, 180.9842
947.9503, 77.89919
948.4324, 77.80121
948.9146, 103.4968
949.3967, 127.9663
949.8788, 147.9970
950.3609, 145.4199
950.8430, 137.0634
951.3251, 178.1931
951.8073, 344.0122
952.2894, 414.5986
952.7715, 325.8589
953.2536, 179.0352
953.7357, 150.9165
954.2179, 212.4327
954.7000, 246.6227
955.1821, 226.1351
955.6642, 189.5636
956.1464, 150.0255
956.6285, 115.7316
957.1106, 93.15878
957.5927, 81.03337
958.0748, 84.16797
958.5569, 98.25011
959.0391, 137.3970
959.5212, 240.8431
960.0033, 370.0571
960.4854, 381.8360
960.9675, 299.2032
961.4496, 255.2211
961.9318, 375.9837
962.4139, 496.5196
962.8960, 526.5165
963.3781, 492.6094
963.8602, 473.4641
964.3423, 475.4462
964.8245, 471.5324
965.3066, 461.6132
965.7887, 435.5483
966.2708, 340.0172
966.7529, 228.4929
967.2350, 220.7530
967.7172, 385.9610
968.1993, 506.2497
968.6814, 440.9240
969.1635, 351.4604
969.6456, 361.5542
970.1277, 483.6432
970.6099, 506.0944
971.0920, 418.2905
971.5741, 350.4425
972.0562, 427.0437
972.5383, 549.5657
973.0204, 582.5060
973.5026, 546.1067
973.9847, 537.3666
974.4668, 626.3948
974.9489, 695.0430
975.4310, 709.7724
975.9131, 698.9691
976.3953, 732.1269
976.8774, 805.1470
977.3595, 828.6390
977.8416, 774.1729
978.3237, 706.7957
978.8058, 705.9685
979.2880, 714.4880
979.7701, 654.3101
980.2522, 462.7757
980.7343, 390.3459
981.2164, 492.4193
981.6985, 625.4806
982.1807, 703.7565
982.6628, 735.3463
983.1449, 785.9536
983.6270, 838.9511
984.1091, 820.0450
984.5912, 573.3521
985.0734, 353.9973
985.5555, 333.8639
986.0376, 446.5298
986.5197, 497.9606
987.0018, 451.6090
987.4839, 449.2209
987.9661, 528.2333
988.4482, 625.8772
988.9303, 672.3267
989.4124, 673.1166
989.8945, 621.1632
990.3766, 500.4945
990.8588, 409.4724
991.3409, 449.0845
991.8230, 487.1548
992.3051, 422.0328
992.7872, 261.0835
993.2693, 252.5997
993.7515, 403.0770
994.2336, 510.3789
994.7157, 409.2483
995.1978, 254.8345
995.6799, 214.2991
996.1620, 259.8163
996.6442, 328.0948
997.1263, 450.2204
997.6084, 512.1199
998.0905, 471.8416
998.5726, 412.5736
999.0547, 453.2914
999.5369, 573.9662
1000.019, 669.8950
1000.501, 731.0373
1000.983, 727.3691
1001.465, 579.8501
1001.947, 422.3880
1002.430, 371.4614
1002.912, 435.7968
1003.394, 441.9724
1003.876, 371.0036
1004.358, 308.5936
1004.840, 292.9378
1005.322, 300.1142
1005.804, 293.2556
1006.287, 270.7602
1006.769, 227.1457
1007.251, 110.3811
1007.733, 48.48001
1008.215, 152.6377
1008.697, 277.4480
1009.179, 268.0045
1009.661, 100.8151
1010.143, 90.98125
1010.626, 259.5891
1011.108, 426.3651
1011.590, 431.7860
1012.072, 374.3672
1012.554, 330.2962
1013.036, 309.6826
1013.518, 349.2137
1014.000, 510.0067
1014.483, 633.0540
1014.965, 677.8475
1015.447, 668.6918
1015.929, 642.3060
1016.411, 605.5650
1016.893, 581.5779
1017.375, 576.1495
1017.857, 586.4753
1018.339, 545.2840
1018.822, 639.9097
1019.304, 694.2743
1019.786, 711.5867
1020.268, 576.8137
1020.750, 637.4281
1021.232, 621.2921
1021.714, 599.9227
1022.196, 688.2094
1022.679, 574.4473
1023.161, 661.0026
1023.643, 667.5977
1024.125, 711.6362
1024.607, 677.3896
1025.089, 665.8213
1025.571, 733.5306
1026.053, 685.1320
1026.535, 729.1478
1027.018, 733.2518
1027.500, 701.5196
1027.982, 517.4421
1028.464, 527.8235
1028.946, 460.2720
1029.428, 389.6965
1029.910, 430.0754
1030.392, 269.9770
1030.875, 306.1127
1031.357, 263.0342
1031.839, 256.1787
1032.321, 170.9086
1032.803, 109.8702
1033.285, 127.2533
1033.767, 8.839775
1034.249, 113.4504
1034.731, 197.1102
1035.214, 218.5225
1035.696, 203.7889
1036.178, 155.2061
1036.660, 74.17250
1037.142, 75.48508
1037.624, 154.8469
1038.106, 198.6641
1038.588, 84.22586
1039.071, 51.85073
1039.553, 69.92542
1040.035, 59.85144
1040.517, 71.05804
1040.999, 125.8307
1041.481, 237.7708
1041.963, 226.1484
1042.445, 154.0999
1042.927, 78.61562
1043.410, 11.68038
1043.892, 28.59702
1044.374, 41.93978
1044.856, 6.622162
1045.338, 166.4684
1045.820, 297.2202
1046.302, 276.8464
1046.784, 148.9580
1047.266, 170.0353
1047.749, 324.5751
1048.231, 431.0151
1048.713, 387.8631
1049.195, 320.9754
1049.677, 373.8160
1050.159, 446.0536
1050.641, 388.1100
1051.123, 85.18088
1051.606, 28.21550
1052.088, 90.80347
1052.570, 247.0925
1053.052, 281.8979
1053.534, 243.8952
1054.016, 231.3969
1054.498, 244.2428
1054.980, 256.3313
1055.463, 276.8914
1055.945, 265.7086
1056.427, 193.0816
1056.909, 104.5096
1057.391, 84.67220
1057.873, 123.2882
1058.355, 141.0611
1058.837, 124.8925
1059.319, 95.87617
1059.802, 48.32102
1060.284, 12.10189
1060.766, 23.14071
1061.248, 77.82800
1061.730, 88.75760
1062.212, 42.73400
1062.694, 27.55424
1063.176, 87.64001
1063.658, 173.8586
1064.141, 213.6397
1064.623, 230.1704
1065.105, 266.2401
1065.587, 360.4500
1066.069, 403.2144
1066.551, 362.1270
1067.033, 300.7891
1067.515, 237.5995
1067.998, 187.2657
1068.480, 257.9942
1068.962, 429.6667
1069.444, 594.1045
1069.926, 728.8701
1070.408, 799.0959
1070.890, 756.5641
1071.372, 649.7111
1071.854, 536.5849
1072.337, 413.2239
1072.819, 356.9093
1073.301, 384.6331
1073.783, 410.5049
1074.265, 348.0244
1074.747, 249.6034
1075.229, 156.8379
1075.711, 75.60309
1076.193, 23.42216
1076.676, 17.29522
1077.158, 9.496586
1077.640, 11.09619
1078.122, 67.46416
1078.604, 24.46068
1079.086, 102.8375
1079.568, 211.8380
1080.051, 199.9000
1080.533, 152.7969
1081.015, 76.05228
1081.497, 5.068378
1081.979, 20.22197
1082.461, 47.84908
1082.943, 112.1299
1083.425, 167.0348
1083.907, 173.5089
1084.390, 85.22400
1084.872, 18.94481
1085.354, 22.16595
1085.836, 91.18963
1086.318, 95.86832
1086.800, 8.788048
1087.282, 32.14721
1087.764, 22.75556
1088.246, 8.053787
1088.729, 55.40611
1089.211, 96.71034
1089.693, 83.76317
1090.175, 37.86943
1090.657, 49.50558
1091.139, 186.6952
1091.621, 278.5238
1092.103, 288.8123
1092.586, 276.7476
1093.068, 346.3143
1093.550, 449.1298
1094.032, 469.7016
1094.514, 394.8187
1094.996, 292.9656
1095.478, 139.2752
1095.960, 32.81761
1096.443, 28.82730
1096.925, 84.32701
1097.407, 68.21532
1097.889, 3.349144
1098.371, 27.05034
1098.853, 34.66307
1099.335, 126.0740
1099.817, 244.8488
1100.299, 347.9537
1100.781, 393.2934
1101.264, 380.0583
1101.746, 375.7375
1102.228, 385.4247
1102.710, 365.8391
1103.192, 268.0659
1103.674, 159.1351
1104.156, 101.5625
1104.638, 91.22285
1105.121, 127.8427
1105.603, 301.5002
1106.085, 321.3047
1106.567, 138.5531
1107.049, 34.78596
1107.531, 0.1622510
1108.013, 34.50578
1108.495, 18.06617
1108.978, 37.58845
1109.460, 21.46984
1109.942, 83.20535
1110.424, 92.99616
1110.906, 29.48801
1111.388, 168.4041
1111.870, 239.1307
1112.352, 211.6212
1112.834, 215.6417
1113.317, 261.0200
1113.799, 296.3341
1114.281, 254.4045
1114.763, 236.4029
1115.245, 327.4622
1115.727, 464.0670
1116.209, 460.1151
1116.691, 322.6071
1117.173, 256.9409
1117.656, 323.9214
1118.138, 382.6582
1118.620, 254.3307
1119.102, 110.2514
1119.584, 137.5220
1120.066, 333.0331
1120.548, 369.5893
1121.030, 217.5192
1121.513, 129.9627
1121.995, 238.2637
1122.477, 381.7036
1122.959, 343.6964
1123.441, 223.4219
1123.923, 165.1065
1124.405, 228.8364
1124.887, 253.1103
1125.370, 226.8580
1125.852, 192.0822
1126.334, 167.2789
1126.816, 158.3905
1127.298, 185.8547
1127.780, 241.4887
1128.262, 305.6874
1128.744, 378.8909
1129.226, 448.6727
1129.709, 545.3876
1130.191, 598.6630
1130.673, 512.7800
1131.155, 333.1293
1131.637, 227.0312
1132.119, 198.2682
1132.601, 224.3611
1133.083, 369.3971
1133.566, 484.3764
1134.048, 515.7126
1134.530, 495.9922
1135.012, 458.7684
1135.494, 403.7763
1135.976, 320.6513
1136.458, 215.4855
1136.940, 179.5911
1137.422, 393.5387
1137.905, 571.9296
1138.387, 478.7722
1138.869, 234.0659
1139.351, 134.6563
1139.833, 183.7856
1140.315, 262.3324
1140.797, 355.5146
1141.279, 418.1798
1141.761, 398.7497
1142.244, 349.2948
1142.726, 289.9764
1143.208, 229.3156
1143.690, 243.3096
1144.172, 347.5445
1144.654, 422.6769
1145.136, 416.7937
1145.618, 399.6021
1146.101, 485.5485
1146.583, 586.6387
1147.065, 575.7828
1147.547, 391.9731
1148.029, 340.4125
1148.511, 470.3979
1148.993, 579.6326
1149.475, 569.0306
1149.958, 503.9669
1150.440, 489.7619
1150.922, 502.7047
1151.404, 501.2015
1151.886, 481.9476
1152.368, 428.3416
1152.850, 321.5866
1153.332, 229.3935
1153.814, 207.0280
1154.297, 224.7244
1154.779, 211.7918
1155.261, 173.9221
1155.743, 123.8831
1156.225, 38.34296
1156.707, 15.33277
1157.189, 28.37230
1157.671, 21.59504
1158.153, 23.26315
1158.636, 21.00242
1159.118, 70.28206
1159.600, 225.4318
1160.082, 322.0439
1160.564, 249.0086
1161.046, 175.2151
1161.528, 138.2728
1162.010, 132.3849
1162.493, 162.9498
1162.975, 222.9598
1163.457, 271.5243
1163.939, 305.2292
1164.421, 309.4964
1164.903, 246.1458
1165.385, 179.5793
1165.867, 109.3105
1166.349, 69.05588
1166.832, 149.5899
1167.314, 335.6398
1167.796, 372.2360
1168.278, 233.1062
1168.760, 115.1843
1169.242, 178.3685
1169.724, 270.8035
1170.206, 307.2085
1170.688, 302.4814
1171.171, 297.4117
1171.653, 292.1942
1172.135, 234.3295
1172.617, 99.01252
1173.099, 40.55600
1173.581, 353.3584
1174.063, 651.8102
1174.545, 542.7007
1175.028, 139.4597
1175.510, 6.774513
1175.992, 156.6296
1176.474, 275.4393
1176.956, 284.3126
1177.438, 235.7265
1177.920, 85.49356
1178.402, 29.98799
1178.885, 83.18016
1179.367, 410.7949
1179.849, 488.1769
1180.331, 290.9977
1180.813, 120.2733
1181.295, 92.60515
1181.777, 100.6887
1182.259, 19.52570
1182.741, 47.59045
1183.224, 29.23009
1183.706, 25.41311
1184.188, 40.27449
1184.670, 117.1848
1185.152, 126.3531
1185.634, 26.14000
1186.116, 52.03210
1186.598, 2.151306
1187.081, 280.8105
1187.563, 421.6117
1188.045, 369.9536
1188.527, 259.8381
1189.009, 68.06781
1189.491, 46.85717
1189.973, 31.54992
1190.455, 196.7007
1190.938, 382.2205
1191.420, 540.4603
1191.902, 582.7569
1192.384, 435.6019
1192.866, 360.6881
1193.348, 374.9534
1193.830, 386.4861
1194.312, 299.2952
1194.794, 206.7466
1195.276, 267.8484
1195.759, 407.4911
1196.241, 464.1903
1196.723, 341.2274
1197.205, 321.4189
1197.687, 434.5816
1198.169, 530.7899
1198.651, 445.1744
1199.133, 299.5930
1199.616, 282.9123
1200.098, 340.4131
1200.580, 323.0804
1201.062, 121.7967
1201.544, 64.57011
1202.026, 192.5883
1202.508, 350.3823
1202.990, 401.4031
1203.473, 400.9048
1203.955, 398.4417
1204.437, 406.6299
1204.919, 469.6570
1205.401, 666.4370
1205.883, 729.0717
1206.365, 618.7562
1206.847, 453.1939
1207.329, 295.6737
1207.812, 185.1019
1208.294, 212.4864
1208.776, 339.7177
1209.258, 394.7961
1209.740, 342.9322
1210.222, 256.6107
1210.704, 124.5347
1211.186, 40.32148
1211.668, 164.3460
1212.151, 346.5303
1212.633, 386.1556
1213.115, 299.8391
1213.597, 238.9621
1214.079, 232.6602
1214.561, 190.8333
1215.043, 81.18658
1215.525, 19.48717
1216.008, 215.4378
1216.490, 468.4810
1216.972, 510.1781
1217.454, 358.0274
1217.936, 277.6302
1218.418, 304.9867
1218.900, 334.3862
1219.382, 350.9300
1219.865, 353.2276
1220.347, 323.6698
1220.829, 290.8582
1221.311, 279.5117
1221.793, 295.6465
1222.275, 366.5502
1222.757, 524.0087
1223.239, 595.8171
1223.721, 531.6138
1224.203, 461.8434
1224.686, 612.5500
1225.168, 771.9247
1225.650, 655.2716
1226.132, 285.5984
1226.614, 157.4858
1227.096, 331.5330
1227.578, 423.9189
1228.061, 334.3163
1228.543, 219.0530
1229.025, 249.4802
1229.507, 332.4735
1229.989, 379.3072
1230.471, 386.8026
1230.953, 403.0538
1231.435, 430.6623
1231.917, 424.9252
1232.400, 361.4362
1232.882, 330.6174
1233.364, 514.5476
1233.846, 694.3451
1234.328, 629.7134
1234.810, 364.4264
1235.292, 191.6095
1235.774, 113.1696
1236.256, 156.2005
1236.739, 364.6224
1237.221, 527.5837
1237.703, 424.3038
1238.185, 241.1734
1238.667, 126.9116
1239.149, 68.47939
1239.631, 25.39653
1240.113, 52.92522
1240.596, 79.79891
1241.078, 36.64924
1241.560, 35.91688
1242.042, 43.22848
1242.524, 17.73234
1243.006, 43.81084
1243.488, 95.95485
1243.970, 171.6644
1244.453, 179.6898
1244.935, 182.5350
1245.417, 199.7450
1245.899, 195.6638
1246.381, 114.5855
1246.863, 57.88777
1247.345, 96.85204
1247.827, 194.0877
1248.309, 221.5946
1248.792, 194.9899
1249.274, 177.8438
1249.756, 185.2583
1250.238, 206.1342
1250.720, 282.7512
1251.202, 310.4278
1251.684, 221.5706
1252.166, 77.48385
1252.648, 38.14907
1253.131, 76.37353
1253.613, 124.0791
1254.095, 174.5313
1254.577, 170.3551
1255.059, 24.63657
1255.541, 18.68691
1256.023, 31.74817
1256.505, 23.84340
1256.988, 142.2674
1257.470, 256.4694
1257.952, 279.4098
1258.434, 185.4407
1258.916, 97.86378
1259.398, 20.89025
1259.880, 5.002922
1260.362, 48.86982
1260.844, 134.1022
1261.327, 175.7178
1261.809, 192.6856
1262.291, 217.5294
1262.773, 257.3354
1263.255, 260.3922
1263.737, 204.9340
1264.219, 178.7263
1264.701, 210.4875
1265.183, 272.9427
1265.666, 335.5931
1266.148, 405.2041
1266.630, 487.5727
1267.112, 583.4958
1267.594, 718.3560
1268.076, 909.4890
1268.558, 990.6678
1269.040, 889.9011
1269.523, 754.8022
1270.005, 711.7589
1270.487, 715.3800
1270.969, 746.5629
1271.451, 777.3674
1271.933, 732.5951
1272.415, 597.5052
1272.897, 504.2589
1273.380, 486.2888
1273.862, 502.1064
1274.344, 588.7447
1274.826, 634.6814
1275.308, 549.1898
1275.790, 380.2777
1276.272, 261.2579
1276.754, 196.8342
1277.236, 237.2726
1277.719, 407.4015
1278.201, 539.1119
1278.683, 546.3881
1279.165, 468.0818
1279.647, 305.4941
1280.129, 131.0839
1280.611, 163.9206
1281.093, 320.1883
1281.576, 363.6430
1282.058, 251.5405
1282.540, 154.5984
1283.022, 137.0030
1283.504, 118.9557
1283.986, 80.35474
1284.468, 31.58939
1284.950, 35.01389
1285.432, 20.68366
1285.915, 4.835770
1286.397, 20.25110
1286.879, 100.3511
1287.361, 144.6305
1287.843, 228.1948
1288.325, 378.7170
1288.807, 524.6951
1289.289, 599.1290
1289.771, 613.6049
1290.254, 564.8495
1290.736, 460.8071
1291.218, 343.7436
1291.700, 202.2349
1292.182, 161.9590
1292.664, 252.3859
1293.146, 358.3985
1293.628, 382.2029
1294.111, 338.1896
1294.593, 309.3017
1295.075, 262.0631
1295.557, 204.6399
1296.039, 140.6497
1296.521, 125.7417
1297.003, 173.0367
1297.485, 198.0337
1297.968, 77.33502
1298.450, 4.153986
1298.932, 0.5225120
1299.414, 60.35437
1299.896, 113.5780
1300.378, 132.0917
1300.860, 105.6669
1301.342, 34.37201
1301.824, 0.0000000E+00
##END=



