##NAMES=Pectolite
##RRUFFID=R120024
##IDEAL CHEMISTRY=NaCa_2_Si_3_O_8_(OH)
##LOCALITY=Eveslogchorr Mt., Khibiny Massif, Kola Peninsula, Murmanskaja Oblast', Russia
##OWNER=RRUFF
##SOURCE=Dr. JÃ¼rgen Wachsmuth 
##DESCRIPTION=Colorless elongated platy crystals
##STATUS=The identification of this mineral has been confirmed by single-crystal X-ray diffraction.
##URL=rruff.info/R120024
201.3791, 318171.8
201.8612, 319668.5
202.3433, 321030.4
202.8254, 322244.5
203.3075, 323497.8
203.7896, 324768.7
204.2718, 326098.0
204.7539, 327586.1
205.2360, 329245.4
205.7181, 330991.4
206.2002, 332756.9
206.6823, 334520.0
207.1645, 336418.4
207.6466, 338513.3
208.1287, 340709.5
208.6108, 342789.2
209.0929, 344723.9
209.5750, 346617.9
210.0572, 348522.7
210.5393, 350467.4
211.0214, 352335.8
211.5035, 354123.8
211.9856, 355829.4
212.4677, 357508.3
212.9499, 359193.4
213.4320, 360810.2
213.9141, 362337.8
214.3962, 363785.1
214.8783, 365145.4
215.3604, 366403.9
215.8426, 367579.6
216.3247, 368695.1
216.8068, 369778.3
217.2889, 370762.8
217.7710, 371575.2
218.2531, 372101.6
218.7353, 372795.1
219.2174, 373763.3
219.6995, 374930.1
220.1816, 375884.2
220.6637, 376534.9
221.1458, 377138.1
221.6280, 377867.9
222.1101, 378836.6
222.5922, 379631.4
223.0743, 380159.6
223.5564, 380489.0
224.0385, 380976.4
224.5207, 381707.8
225.0028, 382459.9
225.4849, 383048.1
225.9670, 383260.4
226.4491, 383852.1
226.9312, 385007.7
227.4134, 386602.9
227.8955, 388113.9
228.3776, 389579.3
228.8597, 390871.0
229.3418, 391847.6
229.8239, 392289.4
230.3061, 392916.3
230.7882, 393818.8
231.2703, 394942.2
231.7524, 396012.1
232.2345, 396971.7
232.7166, 397919.3
233.1988, 398914.0
233.6809, 400030.7
234.1630, 400993.2
234.6451, 401728.9
235.1272, 402289.5
235.6093, 402932.9
236.0915, 403721.5
236.5736, 404506.8
237.0557, 405221.6
237.5378, 405911.6
238.0199, 406444.2
238.5020, 406784.3
238.9842, 406975.5
239.4663, 407143.6
239.9484, 407203.0
240.4305, 407380.7
240.9126, 407833.3
241.3947, 408759.0
241.8769, 409543.4
242.3590, 410129.9
242.8411, 410562.2
243.3232, 410977.2
243.8053, 411256.3
244.2874, 411674.9
244.7696, 412406.2
245.2517, 413691.9
245.7338, 414720.6
246.2159, 415358.6
246.6980, 415726.4
247.1802, 416209.1
247.6623, 416842.2
248.1444, 417526.1
248.6265, 418217.8
249.1086, 418958.2
249.5907, 419597.2
250.0729, 420033.2
250.5550, 420398.7
251.0371, 421087.4
251.5192, 422360.7
252.0013, 423561.3
252.4834, 424381.2
252.9656, 424612.1
253.4477, 425012.9
253.9298, 425642.0
254.4119, 426421.0
254.8940, 427197.5
255.3761, 427991.7
255.8583, 428748.0
256.3404, 429418.0
256.8225, 429943.1
257.3046, 430547.8
257.7867, 431244.3
258.2688, 431992.2
258.7509, 432733.2
259.2331, 433498.9
259.7152, 434158.1
260.1973, 434613.3
260.6794, 434766.4
261.1615, 435117.9
261.6436, 435716.8
262.1258, 436471.6
262.6079, 437255.7
263.0900, 438116.0
263.5721, 438900.1
264.0542, 439513.0
264.5363, 439920.7
265.0185, 440533.1
265.5006, 441486.5
265.9827, 442516.3
266.4648, 443180.4
266.9469, 443276.1
267.4290, 443601.6
267.9112, 444523.0
268.3933, 446094.1
268.8754, 447201.0
269.3575, 447678.3
269.8396, 447928.5
270.3217, 448438.9
270.8039, 449238.6
271.2860, 450139.6
271.7681, 451106.8
272.2502, 452127.7
272.7323, 453121.2
273.2144, 454102.6
273.6966, 454982.9
274.1787, 455595.7
274.6608, 455874.3
275.1429, 456295.0
275.6251, 457026.8
276.1072, 458014.5
276.5893, 458861.7
277.0714, 459538.4
277.5535, 460126.4
278.0356, 460682.2
278.5178, 461200.4
278.9999, 461715.6
279.4820, 462234.1
279.9641, 462752.8
280.4462, 463277.3
280.9283, 463835.9
281.4105, 464275.3
281.8926, 464430.3
282.3747, 464298.9
282.8568, 464180.3
283.3389, 464112.8
283.8210, 464115.9
284.3032, 464244.4
284.7853, 464516.2
285.2674, 464876.9
285.7495, 465300.2
286.2316, 465793.8
286.7137, 466373.2
287.1959, 467060.3
287.6780, 467817.8
288.1601, 468563.4
288.6422, 469295.1
289.1243, 470055.9
289.6064, 470840.8
290.0886, 471653.8
290.5707, 472516.1
291.0528, 473430.4
291.5349, 474358.2
292.0170, 475276.8
292.4991, 476164.3
292.9813, 476951.6
293.4634, 477517.4
293.9455, 477937.0
294.4276, 478450.2
294.9097, 479072.2
295.3918, 479761.7
295.8740, 480476.8
296.3561, 481214.0
296.8382, 481984.7
297.3203, 482832.5
297.8024, 483704.5
298.2845, 484500.1
298.7667, 485220.2
299.2488, 485882.5
299.7309, 486475.1
300.2130, 487029.3
300.6951, 487623.6
301.1772, 488264.0
301.6594, 488970.4
302.1415, 489803.6
302.6236, 490752.6
303.1057, 491740.7
303.5878, 492765.8
304.0699, 493773.5
304.5521, 494639.9
305.0342, 495264.5
305.5163, 495789.3
305.9984, 496325.9
306.4805, 496879.5
306.9626, 497512.8
307.4448, 498345.5
307.9269, 499255.5
308.4090, 500047.8
308.8911, 500548.9
309.3732, 501114.2
309.8553, 502141.9
310.3375, 503499.2
310.8196, 504760.8
311.3017, 505584.8
311.7838, 506238.4
312.2659, 506960.4
312.7480, 507795.3
313.2302, 508689.4
313.7123, 509676.3
314.1944, 510708.0
314.6765, 511664.9
315.1586, 512556.7
315.6407, 513312.8
316.1229, 513853.0
316.6050, 514108.3
317.0871, 514398.2
317.5692, 514989.4
318.0513, 515673.0
318.5334, 516151.7
319.0156, 516126.1
319.4977, 516052.9
319.9798, 516083.9
320.4619, 516223.9
320.9440, 516542.6
321.4261, 517207.0
321.9083, 517986.3
322.3904, 518657.5
322.8725, 519150.8
323.3546, 519542.5
323.8367, 519797.5
324.3188, 519922.3
324.8010, 520108.2
325.2831, 520334.4
325.7652, 520666.9
326.2473, 521151.4
326.7294, 522137.3
327.2115, 522900.0
327.6937, 523246.3
328.1758, 523281.4
328.6579, 523513.5
329.1400, 524134.5
329.6221, 524818.4
330.1042, 525436.8
330.5864, 525945.3
331.0685, 526462.7
331.5506, 526876.7
332.0327, 527307.9
332.5148, 528050.4
332.9969, 529370.3
333.4791, 530606.0
333.9612, 531480.4
334.4433, 531809.8
334.9254, 532457.2
335.4075, 533550.3
335.8896, 534817.4
336.3718, 535907.0
336.8539, 536803.6
337.3360, 537504.3
337.8181, 537904.4
338.3002, 538014.3
338.7823, 538546.3
339.2645, 539716.9
339.7466, 540897.6
340.2287, 541381.3
340.7108, 541030.2
341.1929, 540859.6
341.6750, 541097.8
342.1572, 541663.2
342.6393, 542266.8
343.1214, 542947.8
343.6035, 543517.6
344.0856, 543719.9
344.5677, 543581.3
345.0499, 543779.9
345.5320, 544452.3
346.0141, 545404.5
346.4962, 546332.9
346.9783, 547230.6
347.4604, 548031.2
347.9426, 548527.3
348.4247, 548867.5
348.9068, 549655.3
349.3889, 550992.1
349.8710, 552431.0
350.3531, 553391.1
350.8353, 553979.1
351.3174, 554588.5
351.7995, 555369.9
352.2816, 556284.4
352.7637, 557342.4
353.2458, 558537.3
353.7280, 559641.8
354.2101, 560327.9
354.6922, 560803.9
355.1743, 561450.5
355.6564, 562585.5
356.1385, 563724.1
356.6207, 564308.5
357.1028, 564443.3
357.5849, 564646.3
358.0670, 565270.6
358.5491, 566093.2
359.0313, 566933.9
359.5134, 567840.5
359.9955, 568605.3
360.4776, 569082.9
360.9597, 569344.2
361.4418, 569525.3
361.9240, 569463.3
362.4061, 569519.0
362.8882, 569967.3
363.3703, 570927.1
363.8524, 571799.5
364.3345, 572286.2
364.8167, 572620.8
365.2988, 573074.4
365.7809, 573671.3
366.2630, 574421.1
366.7451, 575469.6
367.2272, 576807.9
367.7094, 577819.9
368.1915, 578144.8
368.6736, 578295.4
369.1557, 578603.4
369.6378, 579094.8
370.1199, 579709.6
370.6021, 580491.9
371.0842, 581394.9
371.5663, 582267.3
372.0484, 583102.4
372.5305, 583890.3
373.0126, 584632.1
373.4948, 585341.4
373.9769, 585927.4
374.4590, 586331.6
374.9411, 586665.7
375.4232, 587115.4
375.9053, 587732.3
376.3875, 588361.4
376.8696, 588987.9
377.3517, 589625.8
377.8338, 590098.9
378.3159, 590349.2
378.7980, 590653.8
379.2802, 591384.0
379.7623, 592581.8
380.2444, 593522.9
380.7265, 594001.2
381.2086, 594202.2
381.6907, 594605.9
382.1729, 595205.7
382.6550, 595912.4
383.1371, 596645.0
383.6192, 597415.5
384.1013, 598293.4
384.5834, 599307.6
385.0656, 600332.9
385.5477, 601222.3
386.0298, 601983.9
386.5119, 602622.4
386.9940, 602998.7
387.4761, 603319.5
387.9583, 603940.5
388.4404, 604881.4
388.9225, 605843.2
389.4046, 606643.3
389.8867, 607301.9
390.3688, 607833.7
390.8510, 608070.0
391.3331, 608381.2
391.8152, 609217.4
392.2973, 610422.9
392.7794, 611362.4
393.2615, 611398.8
393.7437, 611255.2
394.2258, 611442.4
394.7079, 612100.0
395.1900, 612955.6
395.6721, 614070.5
396.1542, 615285.7
396.6364, 616350.6
397.1185, 617037.9
397.6006, 617712.8
398.0827, 618514.2
398.5648, 619467.6
399.0470, 620366.6
399.5291, 621256.0
400.0112, 622044.9
400.4933, 622657.7
400.9754, 622824.9
401.4576, 623188.1
401.9397, 623885.9
402.4218, 624842.8
402.9039, 625660.9
403.3860, 626176.6
403.8681, 626798.9
404.3503, 627795.2
404.8324, 629355.1
405.3145, 630581.8
405.7966, 631391.5
406.2787, 631951.8
406.7608, 632454.4
407.2430, 632853.3
407.7251, 633455.8
408.2072, 634467.3
408.6893, 635787.2
409.1714, 636689.4
409.6535, 637111.4
410.1357, 637476.1
410.6178, 638171.7
411.0999, 639153.5
411.5820, 640173.9
412.0641, 641198.1
412.5462, 642211.4
413.0284, 643242.7
413.5105, 644271.4
413.9926, 645210.2
414.4747, 646017.8
414.9568, 646708.3
415.4389, 647281.8
415.9211, 647737.8
416.4032, 648126.0
416.8853, 648522.9
417.3674, 648881.9
417.8495, 649130.4
418.3316, 649056.3
418.8138, 649029.1
419.2959, 649338.1
419.7780, 649945.0
420.2601, 650572.8
420.7422, 651121.0
421.2243, 651640.3
421.7065, 652138.3
422.1886, 652550.8
422.6707, 653100.3
423.1528, 653994.4
423.6349, 655050.6
424.1170, 655930.8
424.5992, 656483.5
425.0813, 656952.3
425.5634, 657261.9
426.0455, 657300.0
426.5276, 657943.2
427.0097, 659654.2
427.4919, 661587.9
427.9740, 663039.1
428.4561, 663739.3
428.9382, 664495.5
429.4203, 665451.4
429.9024, 666492.6
430.3846, 667271.6
430.8667, 667736.4
431.3488, 668072.1
431.8309, 668297.6
432.3130, 668397.9
432.7951, 668785.6
433.2773, 669539.4
433.7594, 670398.3
434.2415, 671050.4
434.7236, 671511.4
435.2057, 671889.9
435.6878, 672128.1
436.1700, 672380.0
436.6521, 673044.2
437.1342, 674105.9
437.6163, 675210.7
438.0984, 676161.4
438.5805, 676976.8
439.0627, 677650.5
439.5448, 678135.4
440.0269, 678643.3
440.5090, 679334.8
440.9911, 680191.6
441.4732, 681163.2
441.9554, 682370.7
442.4375, 683571.6
442.9196, 684626.7
443.4017, 685526.4
443.8838, 686323.0
444.3659, 686853.0
444.8481, 687377.5
445.3302, 688093.8
445.8123, 689174.6
446.2944, 690262.5
446.7765, 691393.9
447.2586, 692492.4
447.7408, 693362.4
448.2229, 693764.1
448.7050, 694166.8
449.1871, 694755.3
449.6692, 695599.8
450.1513, 696198.4
450.6335, 696385.8
451.1156, 696518.6
451.5977, 696971.6
452.0798, 697873.0
452.5619, 698698.7
453.0440, 699384.5
453.5262, 699951.0
454.0083, 700428.0
454.4904, 700787.9
454.9725, 701283.0
455.4546, 702072.9
455.9367, 703125.3
456.4189, 704350.1
456.9010, 705766.9
457.3831, 707141.1
457.8652, 708031.6
458.3473, 708599.3
458.8294, 709361.4
459.3116, 710671.4
459.7937, 712053.5
460.2758, 712796.3
460.7579, 713019.3
461.2400, 713375.4
461.7221, 714593.9
462.2043, 715956.1
462.6864, 716646.6
463.1685, 716366.7
463.6506, 716270.3
464.1327, 717240.3
464.6148, 718664.6
465.0970, 719766.4
465.5791, 720146.5
466.0612, 720339.2
466.5433, 720361.4
467.0254, 720265.9
467.5075, 720485.4
467.9897, 721377.7
468.4718, 722360.7
468.9539, 723135.4
469.4360, 723484.1
469.9181, 724086.9
470.4002, 725048.5
470.8824, 726183.0
471.3645, 727234.1
471.8466, 728205.5
472.3287, 729035.0
472.8108, 729625.6
473.2929, 730039.6
473.7751, 730788.0
474.2572, 731932.4
474.7393, 733035.5
475.2214, 733692.9
475.7035, 733980.9
476.1856, 734425.6
476.6678, 735097.1
477.1499, 735904.3
477.6320, 736760.0
478.1141, 737657.2
478.5962, 738551.3
479.0783, 739448.6
479.5605, 740322.6
480.0426, 741120.3
480.5247, 741854.3
481.0068, 742604.1
481.4889, 743403.1
481.9710, 744241.9
482.4532, 745126.3
482.9353, 746100.8
483.4174, 746994.0
483.8995, 747661.8
484.3816, 748214.9
484.8637, 748818.4
485.3459, 749487.7
485.8280, 750222.5
486.3101, 751129.9
486.7922, 752210.6
487.2743, 752945.8
487.7564, 752907.8
488.2386, 752989.8
488.7207, 753757.1
489.2028, 755608.2
489.6849, 757099.9
490.1670, 758184.1
490.6491, 758954.6
491.1313, 759460.1
491.6134, 759622.6
492.0955, 760054.0
492.5776, 761035.4
493.0597, 762398.4
493.5418, 763520.1
494.0240, 764383.9
494.5061, 765223.6
494.9882, 766183.8
495.4703, 767231.8
495.9524, 768381.6
496.4345, 769662.1
496.9167, 770825.9
497.3988, 771513.7
497.8809, 771920.9
498.3630, 772405.5
498.8451, 773239.3
499.3272, 774104.9
499.8094, 774821.0
500.2915, 775408.6
500.7736, 775902.2
501.2557, 776139.4
501.7378, 776453.2
502.2199, 777121.6
502.7021, 778487.8
503.1842, 779445.5
503.6663, 779462.7
504.1484, 779181.6
504.6305, 779340.3
505.1126, 780089.4
505.5948, 781039.2
506.0769, 782250.1
506.5590, 783624.8
507.0411, 784675.7
507.5232, 785307.0
508.0053, 785855.6
508.4875, 786467.8
508.9696, 787131.1
509.4517, 787901.1
509.9338, 788784.4
510.4159, 789716.9
510.8980, 790648.3
511.3802, 791574.4
511.8623, 792465.9
512.3444, 793372.3
512.8265, 794155.5
513.3087, 794451.8
513.7908, 794429.2
514.2729, 794686.0
514.7550, 796100.6
515.2371, 797598.1
515.7192, 798018.8
516.2014, 797218.2
516.6835, 796805.7
517.1656, 797870.1
517.6477, 799477.6
518.1298, 800829.9
518.6119, 801692.9
519.0941, 802392.1
519.5762, 802796.8
520.0583, 803078.4
520.5404, 803652.6
521.0225, 804626.6
521.5046, 805726.1
521.9868, 806898.7
522.4689, 808143.1
522.9510, 809359.9
523.4331, 810543.0
523.9152, 811702.2
524.3973, 812832.1
524.8795, 813920.6
525.3616, 815029.3
525.8437, 816163.5
526.3258, 817318.8
526.8079, 818585.7
527.2900, 819897.1
527.7722, 820909.2
528.2543, 821310.0
528.7364, 821459.8
529.2185, 821866.7
529.7006, 822476.6
530.1827, 823022.4
530.6649, 823221.9
531.1470, 823364.8
531.6291, 823710.9
532.1112, 824324.3
532.5933, 825044.9
533.0754, 825993.4
533.5576, 826957.1
534.0397, 827697.9
534.5218, 827928.3
535.0039, 828255.8
535.4860, 828795.1
535.9681, 829506.2
536.4503, 830253.4
536.9324, 831020.8
537.4145, 831860.3
537.8966, 832828.2
538.3787, 833923.3
538.8608, 834792.3
539.3430, 835357.2
539.8251, 835882.8
540.3072, 836518.2
540.7893, 837268.9
541.2714, 838427.8
541.7535, 840145.9
542.2357, 841949.9
542.7178, 843173.8
543.1999, 843935.4
543.6820, 844574.7
544.1641, 845237.9
544.6462, 845852.8
545.1284, 846261.2
545.6105, 846518.4
546.0926, 846961.3
546.5747, 847731.9
547.0568, 848772.9
547.5389, 850174.4
548.0211, 852172.9
548.5032, 853746.9
548.9853, 854409.9
549.4674, 854687.9
549.9495, 855133.7
550.4316, 855833.5
550.9138, 856568.9
551.3959, 857315.8
551.8780, 858076.1
552.3601, 858830.6
552.8422, 859556.2
553.3243, 860360.9
553.8065, 861384.2
554.2886, 862560.5
554.7707, 863323.4
555.2528, 863649.9
555.7349, 863837.1
556.2170, 864032.9
556.6992, 864299.9
557.1813, 864832.1
557.6634, 865708.8
558.1455, 866694.4
558.6276, 867696.9
559.1097, 868634.1
559.5919, 869376.0
560.0740, 869752.1
560.5561, 870027.4
561.0382, 870180.6
561.5203, 870294.7
562.0024, 870726.6
562.4846, 872010.9
562.9667, 873239.5
563.4488, 873868.8
563.9309, 873652.9
564.4130, 874015.6
564.8951, 875228.2
565.3773, 876707.0
565.8594, 878030.3
566.3415, 879217.9
566.8236, 880124.1
567.3057, 880678.4
567.7878, 881042.0
568.2700, 881471.3
568.7521, 881974.8
569.2342, 882589.6
569.7163, 883430.9
570.1984, 884349.0
570.6805, 885107.5
571.1627, 885718.1
571.6448, 886221.1
572.1269, 886441.9
572.6090, 886701.4
573.0911, 887374.3
573.5732, 888567.9
574.0554, 889736.0
574.5375, 890537.1
575.0196, 891251.0
575.5017, 892137.2
575.9838, 893311.1
576.4659, 894546.5
576.9481, 895909.4
577.4302, 897274.6
577.9123, 898385.0
578.3944, 899045.3
578.8765, 899795.6
579.3586, 900774.8
579.8408, 901948.9
580.3229, 903247.2
580.8050, 904729.2
581.2871, 905930.3
581.7692, 906381.8
582.2513, 906284.6
582.7335, 906465.1
583.2156, 907005.4
583.6977, 907644.3
584.1798, 908092.5
584.6619, 908512.1
585.1440, 909156.0
585.6262, 910100.3
586.1083, 911308.5
586.5904, 913203.6
587.0725, 915311.8
587.5546, 916680.6
588.0367, 916087.6
588.5189, 915697.4
589.0010, 916275.1
589.4831, 917780.9
589.9652, 919211.1
590.4473, 920642.4
590.9294, 921843.4
591.4116, 922590.2
591.8937, 922756.3
592.3758, 923349.4
592.8579, 924478.2
593.3400, 925728.7
593.8221, 926713.8
594.3043, 927455.9
594.7864, 928112.6
595.2685, 928747.6
595.7506, 929252.4
596.2327, 929339.6
596.7148, 929191.9
597.1970, 929264.0
597.6791, 929773.6
598.1612, 930581.3
598.6433, 931847.9
599.1254, 933417.4
599.6075, 934585.9
600.0897, 934785.2
600.5718, 934804.8
601.0539, 934969.4
601.5360, 935280.3
602.0181, 935863.4
602.5002, 936935.4
602.9824, 938065.5
603.4645, 938921.5
603.9466, 939441.6
604.4287, 939964.0
604.9108, 940506.6
605.3929, 941072.3
605.8751, 941580.8
606.3572, 942061.0
606.8393, 942906.7
607.3214, 944390.9
607.8035, 946091.4
608.2856, 947367.1
608.7678, 948294.6
609.2499, 949220.1
609.7320, 950426.6
610.2141, 951610.3
610.6962, 952468.6
611.1783, 952995.9
611.6605, 953542.1
612.1426, 954210.9
612.6247, 954958.4
613.1068, 955771.6
613.5889, 956723.3
614.0710, 957626.1
614.5532, 958585.1
615.0353, 959439.1
615.5174, 959951.8
615.9995, 959994.9
616.4816, 960370.5
616.9637, 961262.2
617.4459, 962434.6
617.9280, 963468.3
618.4101, 964370.7
618.8922, 965259.6
619.3743, 966196.2
619.8564, 967127.6
620.3386, 967982.9
620.8207, 968749.2
621.3028, 969404.5
621.7849, 969786.4
622.2670, 970155.1
622.7491, 970753.4
623.2313, 971639.2
623.7134, 972379.7
624.1955, 972593.0
624.6776, 972833.1
625.1597, 973535.2
625.6418, 975283.8
626.1240, 976378.4
626.6061, 976558.5
627.0882, 976399.3
627.5703, 976601.6
628.0524, 977178.2
628.5345, 978088.5
629.0167, 979406.6
629.4988, 980931.8
629.9809, 982283.3
630.4630, 983488.6
630.9451, 984680.3
631.4272, 985880.4
631.9094, 987118.0
632.3915, 988455.4
632.8736, 989863.4
633.3557, 991197.4
633.8378, 992272.6
634.3199, 993327.4
634.8021, 994559.9
635.2842, 996055.2
635.7663, 997348.3
636.2484, 998228.6
636.7305, 999045.3
637.2126, 1000056.
637.6948, 1001394.
638.1769, 1002596.
638.6590, 1003654.
639.1411, 1004589.
639.6232, 1005325.
640.1053, 1005893.
640.5875, 1006660.
641.0696, 1007752.
641.5517, 1009030.
642.0338, 1010273.
642.5159, 1011510.
642.9980, 1012837.
643.4802, 1014372.
643.9623, 1015940.
644.4444, 1017309.
644.9265, 1018545.
645.4086, 1020024.
645.8907, 1022083.
646.3729, 1024215.
646.8550, 1026198.
647.3371, 1028013.
647.8192, 1029771.
648.3013, 1031446.
648.7834, 1033089.
649.2656, 1034713.
649.7477, 1036336.
650.2298, 1037902.
650.7119, 1039383.
651.1940, 1040914.
651.6761, 1042783.
652.1583, 1044841.
652.6404, 1046561.
653.1225, 1047744.
653.6046, 1048662.
654.0867, 1049669.
654.5688, 1050585.
655.0510, 1051081.
655.5331, 1050813.
656.0152, 1050335.
656.4973, 1049643.
656.9794, 1048849.
657.4615, 1048506.
657.9437, 1048920.
658.4258, 1049373.
658.9079, 1049627.
659.3900, 1049689.
659.8721, 1049777.
660.3542, 1049880.
660.8364, 1050050.
661.3185, 1050312.
661.8006, 1050671.
662.2827, 1051229.
662.7648, 1052007.
663.2469, 1052732.
663.7291, 1053108.
664.2112, 1053322.
664.6933, 1053632.
665.1754, 1054142.
665.6575, 1054654.
666.1396, 1054955.
666.6218, 1055279.
667.1039, 1055915.
667.5860, 1057264.
668.0681, 1058469.
668.5502, 1059319.
669.0323, 1060048.
669.5145, 1061240.
669.9966, 1063059.
670.4787, 1064517.
670.9608, 1065208.
671.4429, 1065403.
671.9250, 1065637.
672.4072, 1065959.
672.8893, 1066813.
673.3714, 1069152.
673.8535, 1071745.
674.3356, 1072853.
674.8177, 1072607.
675.2999, 1072683.
675.7820, 1074516.
676.2641, 1076488.
676.7462, 1077453.
677.2283, 1076846.
677.7104, 1076967.
678.1926, 1078207.
678.6747, 1079875.
679.1568, 1081490.
679.6389, 1083007.
680.1210, 1084742.
680.6031, 1086801.
681.0853, 1088875.
681.5674, 1090687.
682.0495, 1092222.
682.5316, 1093479.
683.0137, 1094360.
683.4958, 1095139.
683.9780, 1096065.
684.4601, 1097090.
684.9422, 1098095.
685.4243, 1099239.
685.9064, 1100159.
686.3885, 1100418.
686.8707, 1100315.
687.3528, 1100914.
687.8349, 1102801.
688.3170, 1104652.
688.7991, 1106123.
689.2813, 1107281.
689.7634, 1108321.
690.2455, 1109230.
690.7276, 1110146.
691.2097, 1111098.
691.6918, 1112108.
692.1740, 1113425.
692.6561, 1115000.
693.1382, 1116232.
693.6203, 1116209.
694.1024, 1115883.
694.5845, 1116178.
695.0667, 1117249.
695.5488, 1118588.
696.0309, 1120347.
696.5130, 1122065.
696.9951, 1123390.
697.4772, 1124188.
697.9594, 1124847.
698.4415, 1125271.
698.9236, 1125702.
699.4057, 1126581.
699.8878, 1127937.
700.3699, 1128831.
700.8521, 1129019.
701.3342, 1128967.
701.8163, 1129304.
702.2984, 1129925.
702.7805, 1130533.
703.2626, 1130888.
703.7448, 1131375.
704.2269, 1132304.
704.7090, 1133544.
705.1911, 1134803.
705.6732, 1135998.
706.1553, 1137159.
706.6375, 1138142.
707.1196, 1139047.
707.6017, 1140496.
708.0839, 1142708.
708.5660, 1144672.
709.0481, 1145822.
709.5302, 1146395.
710.0123, 1147513.
710.4944, 1149147.
710.9766, 1150747.
711.4587, 1152046.
711.9408, 1153056.
712.4229, 1153710.
712.9050, 1154029.
713.3871, 1154382.
713.8693, 1155197.
714.3514, 1155953.
714.8335, 1156202.
715.3156, 1155542.
715.7977, 1155745.
716.2798, 1157475.
716.7620, 1159316.
717.2441, 1160039.
717.7262, 1159512.
718.2083, 1159436.
718.6904, 1159928.
719.1725, 1160855.
719.6547, 1162284.
720.1368, 1164004.
720.6189, 1165403.
721.1010, 1166212.
721.5831, 1167101.
722.0652, 1168712.
722.5474, 1170649.
723.0295, 1172418.
723.5116, 1173666.
723.9937, 1174902.
724.4758, 1176148.
724.9579, 1177428.
725.4401, 1178829.
725.9222, 1180357.
726.4043, 1181909.
726.8864, 1183429.
727.3685, 1184985.
727.8506, 1186853.
728.3328, 1188944.
728.8149, 1190650.
729.2970, 1191517.
729.7791, 1191992.
730.2612, 1192468.
730.7433, 1192957.
731.2255, 1193505.
731.7076, 1194095.
732.1897, 1194788.
732.6718, 1195643.
733.1539, 1196657.
733.6360, 1197680.
734.1182, 1198793.
734.6003, 1199827.
735.0824, 1200712.
735.5645, 1201469.
736.0466, 1202148.
736.5287, 1202751.
737.0109, 1203364.
737.4930, 1203931.
737.9751, 1204601.
738.4572, 1205764.
738.9393, 1207408.
739.4214, 1208914.
739.9036, 1210048.
740.3857, 1210801.
740.8678, 1210946.
741.3499, 1210045.
741.8320, 1210253.
742.3141, 1212526.
742.7963, 1214951.
743.2784, 1216078.
743.7605, 1215617.
744.2426, 1216083.
744.7247, 1217702.
745.2068, 1219636.
745.6890, 1221164.
746.1711, 1222344.
746.6532, 1223186.
747.1353, 1223608.
747.6174, 1224184.
748.0995, 1225598.
748.5817, 1227290.
749.0638, 1228578.
749.5459, 1228694.
750.0280, 1229423.
750.5101, 1231190.
750.9922, 1233489.
751.4744, 1235844.
751.9565, 1238319.
752.4386, 1240332.
752.9207, 1241675.
753.4028, 1242689.
753.8849, 1243790.
754.3671, 1244990.
754.8492, 1246452.
755.3313, 1248446.
755.8134, 1250279.
756.2955, 1251149.
756.7776, 1251456.
757.2598, 1251874.
757.7419, 1252695.
758.2240, 1253594.
758.7061, 1254702.
759.1882, 1255843.
759.6703, 1256599.
760.1525, 1256868.
760.6346, 1257188.
761.1167, 1257674.
761.5988, 1258351.
762.0809, 1259335.
762.5630, 1260588.
763.0452, 1261869.
763.5273, 1263114.
764.0094, 1264286.
764.4915, 1265306.
764.9736, 1266220.
765.4557, 1267209.
765.9379, 1268278.
766.4200, 1269458.
766.9021, 1270820.
767.3842, 1272291.
767.8663, 1273590.
768.3484, 1274707.
768.8306, 1275615.
769.3127, 1276169.
769.7948, 1276536.
770.2769, 1277389.
770.7590, 1278681.
771.2411, 1280023.
771.7233, 1281053.
772.2054, 1282116.
772.6875, 1283785.
773.1696, 1285940.
773.6517, 1287576.
774.1339, 1288066.
774.6160, 1288246.
775.0981, 1288276.
775.5802, 1288190.
776.0623, 1288912.
776.5444, 1290677.
777.0266, 1292597.
777.5087, 1294172.
777.9908, 1295482.
778.4729, 1296940.
778.9550, 1298522.
779.4371, 1299947.
779.9193, 1300810.
780.4014, 1301525.
780.8835, 1302528.
781.3656, 1303828.
781.8477, 1305124.
782.3298, 1306529.
782.8120, 1307692.
783.2941, 1308370.
783.7762, 1308495.
784.2583, 1309003.
784.7404, 1309954.
785.2225, 1311162.
785.7047, 1312867.
786.1868, 1314782.
786.6689, 1315619.
787.1510, 1315370.
787.6331, 1314989.
788.1152, 1314802.
788.5974, 1315079.
789.0795, 1316228.
789.5616, 1318388.
790.0437, 1320436.
790.5258, 1322046.
791.0079, 1323487.
791.4901, 1324841.
791.9722, 1326024.
792.4543, 1327557.
792.9364, 1329501.
793.4185, 1331350.
793.9006, 1332475.
794.3828, 1333164.
794.8649, 1334375.
795.3470, 1336198.
795.8291, 1337656.
796.3112, 1337567.
796.7933, 1337139.
797.2755, 1337477.
797.7576, 1338997.
798.2397, 1340136.
798.7218, 1340563.
799.2039, 1340797.
799.6860, 1340997.
800.1682, 1341058.
800.6503, 1342302.
801.1324, 1344949.
801.6145, 1347531.
802.0966, 1348484.
802.5787, 1348494.
803.0609, 1348827.
803.5430, 1349624.
804.0251, 1350676.
804.5072, 1351899.
804.9893, 1353288.
805.4714, 1354845.
805.9536, 1356631.
806.4357, 1358417.
806.9178, 1360243.
807.3999, 1361979.
807.8820, 1363552.
808.3641, 1364942.
808.8463, 1366147.
809.3284, 1367176.
809.8105, 1367851.
810.2926, 1367407.
810.7747, 1366796.
811.2568, 1367552.
811.7390, 1370025.
812.2211, 1372307.
812.7032, 1373321.
813.1853, 1374113.
813.6674, 1375480.
814.1495, 1377673.
814.6317, 1379406.
815.1138, 1380561.
815.5959, 1381511.
816.0780, 1382375.
816.5601, 1383241.
817.0422, 1384628.
817.5244, 1386569.
818.0065, 1388400.
818.4886, 1389329.
818.9707, 1390058.
819.4528, 1391297.
819.9349, 1393181.
820.4171, 1395036.
820.8992, 1397023.
821.3813, 1398647.
821.8634, 1399588.
822.3455, 1399780.
822.8276, 1400144.
823.3098, 1400753.
823.7919, 1401201.
824.2740, 1400876.
824.7561, 1400272.
825.2382, 1400416.
825.7203, 1401369.
826.2025, 1402571.
826.6846, 1403969.
827.1667, 1405285.
827.6488, 1406210.
828.1309, 1406621.
828.6130, 1407538.
829.0952, 1409235.
829.5773, 1410946.
830.0594, 1412122.
830.5415, 1412844.
831.0236, 1414385.
831.5057, 1416720.
831.9879, 1418780.
832.4700, 1419680.
832.9521, 1419993.
833.4342, 1420103.
833.9163, 1420096.
834.3984, 1420655.
834.8806, 1422749.
835.3627, 1424746.
835.8448, 1425859.
836.3269, 1426139.
836.8090, 1426772.
837.2911, 1427854.
837.7733, 1428848.
838.2554, 1429170.
838.7375, 1429290.
839.2196, 1430661.
839.7017, 1433063.
840.1838, 1435199.
840.6660, 1435947.
841.1481, 1436535.
841.6302, 1437835.
842.1123, 1439756.
842.5944, 1441172.
843.0765, 1441677.
843.5587, 1442280.
844.0408, 1443305.
844.5229, 1444645.
845.0050, 1445999.
845.4871, 1447342.
845.9692, 1448431.
846.4514, 1448830.
846.9335, 1449167.
847.4156, 1450367.
847.8977, 1452093.
848.3798, 1453367.
848.8619, 1453193.
849.3441, 1453334.
849.8262, 1454451.
850.3083, 1456201.
850.7904, 1457647.
851.2725, 1458708.
851.7546, 1460024.
852.2368, 1461894.
852.7189, 1463942.
853.2010, 1465454.
853.6831, 1466580.
854.1652, 1467744.
854.6473, 1469039.
855.1295, 1470480.
855.6116, 1472275.
856.0937, 1474140.
856.5758, 1475554.
857.0579, 1476180.
857.5400, 1477017.
858.0222, 1478205.
858.5043, 1479599.
858.9864, 1481002.
859.4685, 1482401.
859.9506, 1483719.
860.4327, 1484914.
860.9149, 1486043.
861.3970, 1487237.
861.8791, 1488335.
862.3612, 1489121.
862.8433, 1489102.
863.3254, 1489604.
863.8076, 1491234.
864.2897, 1492915.
864.7718, 1493348.
865.2539, 1492450.
865.7360, 1492669.
866.2181, 1494361.
866.7003, 1496178.
867.1824, 1496493.
867.6645, 1496211.
868.1466, 1496623.
868.6287, 1498001.
869.1108, 1499697.
869.5930, 1502000.
870.0751, 1504094.
870.5572, 1505253.
871.0393, 1505168.
871.5214, 1506130.
872.0035, 1508276.
872.4857, 1510700.
872.9678, 1512720.
873.4499, 1514436.
873.9320, 1516095.
874.4141, 1517663.
874.8962, 1518957.
875.3784, 1519641.
875.8605, 1520208.
876.3426, 1520977.
876.8247, 1521976.
877.3068, 1522967.
877.7889, 1524183.
878.2711, 1525001.
878.7532, 1525079.
879.2353, 1524708.
879.7174, 1524577.
880.1995, 1524774.
880.6816, 1525598.
881.1638, 1527820.
881.6459, 1530203.
882.1280, 1531677.
882.6101, 1532537.
883.0922, 1533701.
883.5743, 1535577.
884.0565, 1537327.
884.5386, 1538712.
885.0207, 1539918.
885.5028, 1541419.
885.9849, 1543163.
886.4670, 1544774.
886.9492, 1546027.
887.4313, 1547326.
887.9134, 1549396.
888.3955, 1551715.
888.8776, 1553522.
889.3597, 1554413.
889.8419, 1555102.
890.3240, 1555509.
890.8061, 1555960.
891.2882, 1556949.
891.7703, 1558570.
892.2524, 1559447.
892.7346, 1559362.
893.2167, 1559233.
893.6988, 1559980.
894.1809, 1561300.
894.6630, 1562946.
895.1451, 1564969.
895.6273, 1566497.
896.1094, 1566870.
896.5915, 1566951.
897.0736, 1567186.
897.5557, 1567552.
898.0378, 1568597.
898.5200, 1570473.
899.0021, 1572209.
899.4842, 1572787.
899.9663, 1572915.
900.4484, 1574044.
900.9305, 1576051.
901.4127, 1577888.
901.8948, 1578777.
902.3769, 1579637.
902.8590, 1580908.
903.3411, 1582505.
903.8232, 1584128.
904.3054, 1585756.
904.7875, 1587449.
905.2696, 1589332.
905.7517, 1591135.
906.2338, 1592109.
906.7159, 1592544.
907.1981, 1593315.
907.6802, 1594971.
908.1623, 1596786.
908.6444, 1598577.
909.1265, 1600305.
909.6086, 1601985.
910.0908, 1603903.
910.5729, 1604953.
911.0550, 1604788.
911.5371, 1604445.
912.0192, 1605534.
912.5013, 1607549.
912.9835, 1608978.
913.4656, 1609486.
913.9477, 1609939.
914.4298, 1610721.
914.9119, 1611784.
915.3940, 1613102.
915.8762, 1614667.
916.3583, 1616405.
916.8404, 1618387.
917.3225, 1620288.
917.8046, 1622070.
918.2867, 1623583.
918.7689, 1624056.
919.2510, 1623623.
919.7331, 1623464.
920.2152, 1624884.
920.6973, 1626320.
921.1794, 1626437.
921.6616, 1625524.
922.1437, 1625920.
922.6258, 1628398.
923.1079, 1630473.
923.5900, 1631219.
924.0721, 1631361.
924.5543, 1632804.
925.0364, 1635199.
925.5185, 1637074.
926.0006, 1637547.
926.4827, 1637863.
926.9648, 1638597.
927.4470, 1639712.
927.9291, 1641235.
928.4112, 1643730.
928.8933, 1645313.
929.3754, 1645641.
929.8575, 1645542.
930.3397, 1646120.
930.8218, 1647088.
931.3039, 1647222.
931.7860, 1646334.
932.2681, 1645720.
932.7502, 1646584.
933.2324, 1647911.
933.7145, 1649058.
934.1966, 1650000.
934.6787, 1650431.
935.1608, 1650066.
935.6429, 1649933.
936.1251, 1650658.
936.6072, 1652002.
937.0893, 1653016.
937.5714, 1653823.
938.0535, 1654998.
938.5356, 1657409.
939.0178, 1659675.
939.4999, 1660707.
939.9820, 1660941.
940.4641, 1661692.
940.9462, 1663083.
941.4283, 1664625.
941.9105, 1666265.
942.3926, 1667872.
942.8747, 1669220.
943.3568, 1670369.
943.8389, 1671455.
944.3210, 1672477.
944.8032, 1673542.
945.2853, 1674757.
945.7674, 1676058.
946.2495, 1677525.
946.7316, 1679478.
947.2137, 1680219.
947.6959, 1679409.
948.1780, 1678615.
948.6601, 1679140.
949.1422, 1680566.
949.6243, 1681926.
950.1064, 1683207.
950.5886, 1684622.
951.0707, 1686322.
951.5528, 1688124.
952.0349, 1689940.
952.5170, 1691762.
952.9991, 1693670.
953.4813, 1695805.
953.9634, 1697293.
954.4456, 1697742.
954.9277, 1697676.
955.4098, 1697683.
955.8919, 1697888.
956.3740, 1698634.
956.8561, 1700641.
957.3383, 1702068.
957.8204, 1701561.
958.3025, 1700724.
958.7846, 1701068.
959.2667, 1702817.
959.7488, 1704685.
960.2310, 1706664.
960.7131, 1708495.
961.1952, 1709617.
961.6773, 1710611.
962.1594, 1712502.
962.6415, 1715284.
963.1237, 1717561.
963.6058, 1717924.
964.0879, 1718756.
964.5700, 1721186.
965.0521, 1724678.
965.5342, 1727010.
966.0164, 1728174.
966.4985, 1728857.
966.9806, 1728815.
967.4627, 1729226.
967.9448, 1732258.
968.4269, 1736428.
968.9091, 1739229.
969.3912, 1739082.
969.8733, 1738785.
970.3554, 1738290.
970.8375, 1738083.
971.3196, 1738852.
971.8018, 1740492.
972.2839, 1741900.
972.7660, 1743001.
973.2481, 1743995.
973.7302, 1745036.
974.2123, 1746073.
974.6945, 1747087.
975.1766, 1748078.
975.6587, 1748904.
976.1408, 1749259.
976.6229, 1750129.
977.1050, 1752055.
977.5872, 1754565.
978.0693, 1756203.
978.5514, 1757205.
979.0335, 1758601.
979.5156, 1761419.
979.9977, 1763798.
980.4799, 1764577.
980.9620, 1764357.
981.4441, 1763935.
981.9262, 1763034.
982.4083, 1763039.
982.8904, 1764227.
983.3726, 1765581.
983.8547, 1765737.
984.3368, 1765485.
984.8189, 1766528.
985.3010, 1768980.
985.7831, 1771159.
986.2653, 1771901.
986.7474, 1772701.
987.2295, 1774444.
987.7116, 1776800.
988.1937, 1777764.
988.6758, 1777230.
989.1580, 1777470.
989.6401, 1779671.
990.1222, 1782432.
990.6043, 1784195.
991.0864, 1785276.
991.5685, 1786224.
992.0507, 1787181.
992.5328, 1787954.
993.0149, 1788259.
993.4970, 1788748.
993.9791, 1790397.
994.4612, 1792987.
994.9434, 1794292.
995.4255, 1794224.
995.9076, 1794085.
996.3897, 1794906.
996.8718, 1795979.
997.3539, 1796920.
997.8361, 1797658.
998.3182, 1797887.
998.8003, 1797099.
999.2824, 1797221.
999.7645, 1799079.
1000.247, 1801803.
1000.729, 1803825.
1001.211, 1805236.
1001.693, 1806147.
1002.175, 1806441.
1002.657, 1806617.
1003.139, 1806322.
1003.621, 1806437.
1004.104, 1807842.
1004.586, 1810821.
1005.068, 1813443.
1005.550, 1815733.
1006.032, 1817553.
1006.514, 1818391.
1006.996, 1818952.
1007.478, 1820327.
1007.961, 1822325.
1008.443, 1823768.
1008.925, 1823100.
1009.407, 1823563.
1009.889, 1826435.
1010.371, 1830197.
1010.853, 1831484.
1011.335, 1830674.
1011.817, 1829986.
1012.300, 1829849.
1012.782, 1830411.
1013.264, 1832658.
1013.746, 1835164.
1014.228, 1836429.
1014.710, 1836080.
1015.192, 1836268.
1015.674, 1837064.
1016.156, 1838281.
1016.639, 1839795.
1017.121, 1841653.
1017.603, 1844179.
1018.085, 1847166.
1018.567, 1849813.
1019.049, 1851338.
1019.531, 1852880.
1020.013, 1854667.
1020.496, 1856644.
1020.978, 1858855.
1021.460, 1861276.
1021.942, 1863356.
1022.424, 1865017.
1022.906, 1866414.
1023.388, 1867964.
1023.870, 1869208.
1024.352, 1869412.
1024.835, 1868429.
1025.317, 1868545.
1025.799, 1870588.
1026.281, 1872378.
1026.763, 1872898.
1027.245, 1872766.
1027.727, 1873810.
1028.209, 1875639.
1028.692, 1876872.
1029.174, 1876489.
1029.656, 1876174.
1030.138, 1876979.
1030.620, 1878018.
1031.102, 1878166.
1031.584, 1877004.
1032.066, 1877328.
1032.548, 1879283.
1033.031, 1881603.
1033.513, 1883080.
1033.995, 1884411.
1034.477, 1886666.
1034.959, 1889649.
1035.441, 1891967.
1035.923, 1893468.
1036.405, 1893885.
1036.887, 1892666.
1037.370, 1890960.
1037.852, 1891452.
1038.334, 1893461.
1038.816, 1894210.
1039.298, 1892762.
1039.780, 1891500.
1040.262, 1892124.
1040.744, 1893387.
1041.227, 1894333.
1041.709, 1894941.
1042.191, 1895580.
1042.673, 1896262.
1043.155, 1897027.
1043.637, 1898009.
1044.119, 1899004.
1044.601, 1899460.
1045.083, 1899736.
1045.566, 1900634.
1046.048, 1903441.
1046.530, 1905226.
1047.012, 1905152.
1047.494, 1904870.
1047.976, 1906535.
1048.458, 1909675.
1048.940, 1911747.
1049.422, 1912596.
1049.905, 1913693.
1050.387, 1917096.
1050.869, 1919959.
1051.351, 1919434.
1051.833, 1916764.
1052.315, 1917541.
1052.797, 1922345.
1053.279, 1926065.
1053.762, 1927195.
1054.244, 1927219.
1054.726, 1927470.
1055.208, 1928074.
1055.690, 1929278.
1056.172, 1931348.
1056.654, 1933381.
1057.136, 1935576.
1057.619, 1937248.
1058.101, 1937869.
1058.583, 1937667.
1059.065, 1937236.
1059.547, 1936713.
1060.029, 1936717.
1060.511, 1938319.
1060.993, 1939656.
1061.475, 1939066.
1061.958, 1938235.
1062.440, 1939798.
1062.922, 1944146.
1063.404, 1947234.
1063.886, 1948688.
1064.368, 1949235.
1064.850, 1949351.
1065.332, 1949028.
1065.814, 1947642.
1066.297, 1945398.
1066.779, 1945280.
1067.261, 1948666.
1067.743, 1951301.
1068.225, 1951754.
1068.707, 1951406.
1069.189, 1952989.
1069.671, 1955728.
1070.154, 1957848.
1070.636, 1958851.
1071.118, 1959367.
1071.600, 1959185.
1072.082, 1959025.
1072.564, 1959428.
1073.046, 1960325.
1073.528, 1960294.
1074.010, 1959480.
1074.493, 1959608.
1074.975, 1962755.
1075.457, 1965884.
1075.939, 1966183.
1076.421, 1965153.
1076.903, 1965494.
1077.385, 1968051.
1077.867, 1969561.
1078.350, 1969655.
1078.832, 1969550.
1079.314, 1970325.
1079.796, 1971592.
1080.278, 1972955.
1080.760, 1974315.
1081.242, 1975276.
1081.724, 1974656.
1082.207, 1975159.
1082.689, 1977818.
1083.171, 1981259.
1083.653, 1982890.
1084.135, 1983147.
1084.617, 1983534.
1085.099, 1984367.
1085.581, 1985240.
1086.063, 1986333.
1086.546, 1986990.
1087.028, 1986485.
1087.510, 1985066.
1087.992, 1985286.
1088.474, 1987169.
1088.956, 1989140.
1089.438, 1990689.
1089.920, 1991835.
1090.402, 1991910.
1090.885, 1991919.
1091.367, 1993413.
1091.849, 1997554.
1092.331, 2000450.
1092.813, 2001888.
1093.295, 2002765.
1093.777, 2003487.
1094.259, 2004207.
1094.742, 2005269.
1095.224, 2006586.
1095.706, 2007875.
1096.188, 2008257.
1096.670, 2009756.
1097.152, 2013412.
1097.634, 2017247.
1098.116, 2018264.
1098.599, 2017164.
1099.081, 2017322.
1099.563, 2019031.
1100.045, 2021003.
1100.527, 2023407.
1101.009, 2024894.
1101.491, 2024137.
1101.973, 2022056.
1102.455, 2021474.
1102.938, 2022425.
1103.420, 2023506.
1103.902, 2024431.
1104.384, 2025220.
1104.866, 2025452.
1105.348, 2025847.
1105.830, 2027439.
1106.312, 2030562.
1106.794, 2032279.
1107.277, 2032296.
1107.759, 2031986.
1108.241, 2031659.
1108.723, 2031739.
1109.205, 2033105.
1109.687, 2035323.
1110.169, 2037554.
1110.651, 2039311.
1111.134, 2041717.
1111.616, 2045655.
1112.098, 2048783.
1112.580, 2048396.
1113.062, 2045836.
1113.544, 2046116.
1114.026, 2048725.
1114.508, 2050970.
1114.990, 2051289.
1115.473, 2051352.
1115.955, 2051501.
1116.437, 2051853.
1116.919, 2052694.
1117.401, 2054000.
1117.883, 2054856.
1118.365, 2055201.
1118.847, 2055999.
1119.329, 2058797.
1119.812, 2061490.
1120.294, 2062286.
1120.776, 2061816.
1121.258, 2062243.
1121.740, 2063597.
1122.222, 2065636.
1122.704, 2068615.
1123.186, 2070765.
1123.669, 2069277.
1124.151, 2066654.
1124.633, 2065602.
1125.115, 2066582.
1125.597, 2067222.
1126.079, 2067231.
1126.561, 2067854.
1127.043, 2070022.
1127.526, 2072375.
1128.008, 2072384.
1128.490, 2071132.
1128.972, 2070498.
1129.454, 2071385.
1129.936, 2071762.
1130.418, 2071201.
1130.900, 2070663.
1131.382, 2070593.
1131.865, 2071054.
1132.347, 2072409.
1132.829, 2074444.
1133.311, 2076470.
1133.793, 2077972.
1134.275, 2079668.
1134.757, 2081735.
1135.239, 2083947.
1135.721, 2086141.
1136.204, 2088249.
1136.686, 2090159.
1137.168, 2091842.
1137.650, 2093225.
1138.132, 2093891.
1138.614, 2094654.
1139.096, 2096476.
1139.578, 2098402.
1140.061, 2098505.
1140.543, 2096758.
1141.025, 2096548.
1141.507, 2098325.
1141.989, 2100488.
1142.471, 2102397.
1142.953, 2103741.
1143.435, 2104089.
1143.917, 2103654.
1144.400, 2103242.
1144.882, 2102683.
1145.364, 2103566.
1145.846, 2106452.
1146.328, 2109725.
1146.810, 2112167.
1147.292, 2113574.
1147.774, 2113049.
1148.256, 2110261.
1148.739, 2110469.
1149.221, 2114880.
1149.703, 2117851.
1150.185, 2116823.
1150.667, 2114594.
1151.149, 2115286.
1151.631, 2117660.
1152.113, 2119872.
1152.596, 2121680.
1153.078, 2122740.
1153.560, 2122920.
1154.042, 2122753.
1154.524, 2122209.
1155.006, 2121792.
1155.488, 2123129.
1155.970, 2125465.
1156.453, 2126889.
1156.935, 2126131.
1157.417, 2125689.
1157.899, 2125920.
1158.381, 2126489.
1158.863, 2127231.
1159.345, 2128110.
1159.827, 2128884.
1160.309, 2129612.
1160.792, 2130523.
1161.274, 2131555.
1161.756, 2132980.
1162.238, 2134974.
1162.720, 2137170.
1163.202, 2139408.
1163.684, 2141535.
1164.166, 2142464.
1164.648, 2142279.
1165.131, 2142269.
1165.613, 2143591.
1166.095, 2144724.
1166.577, 2144809.
1167.059, 2144499.
1167.541, 2144940.
1168.023, 2146061.
1168.505, 2146414.
1168.988, 2145865.
1169.470, 2145800.
1169.952, 2147704.
1170.434, 2149880.
1170.916, 2151379.
1171.398, 2152375.
1171.880, 2153238.
1172.362, 2153969.
1172.844, 2154700.
1173.327, 2155416.
1173.809, 2156264.
1174.291, 2157373.
1174.773, 2158597.
1175.255, 2159818.
1175.737, 2161032.
1176.219, 2162330.
1176.701, 2163745.
1177.183, 2164711.
1177.666, 2164991.
1178.148, 2165197.
1178.630, 2166141.
1179.112, 2167163.
1179.594, 2167282.
1180.076, 2166492.
1180.558, 2167541.
1181.040, 2170672.
1181.523, 2173517.
1182.005, 2175261.
1182.487, 2176159.
1182.969, 2175712.
1183.451, 2174987.
1183.933, 2175298.
1184.415, 2176837.
1184.897, 2179054.
1185.380, 2182210.
1185.862, 2184194.
1186.344, 2182943.
1186.826, 2181293.
1187.308, 2183406.
1187.790, 2187067.
1188.272, 2188602.
1188.754, 2186513.
1189.236, 2185408.
1189.719, 2185426.
1190.201, 2185833.
1190.683, 2186132.
1191.165, 2186627.
1191.647, 2188077.
1192.129, 2189961.
1192.611, 2191173.
1193.093, 2191090.
1193.575, 2191481.
1194.058, 2192562.
1194.540, 2193354.
1195.022, 2192312.
1195.504, 2191067.
1195.986, 2192230.
1196.468, 2195036.
1196.950, 2197173.
1197.432, 2197968.
1197.915, 2198576.
1198.397, 2198943.
1198.879, 2199511.
1199.361, 2201098.
1199.843, 2202891.
1200.325, 2203434.
1200.807, 2203086.
1201.289, 2203549.
1201.771, 2205933.
1202.254, 2207217.
1202.736, 2206788.
1203.218, 2206280.
1203.700, 2207667.
1204.182, 2210010.
1204.664, 2211819.
1205.146, 2213148.
1205.628, 2215302.
1206.110, 2219355.
1206.593, 2221933.
1207.075, 2222140.
1207.557, 2221665.
1208.039, 2222599.
1208.521, 2224171.
1209.003, 2225311.
1209.485, 2225923.
1209.967, 2226474.
1210.450, 2227178.
1210.932, 2227387.
1211.414, 2226748.
1211.896, 2226242.
1212.378, 2227453.
1212.860, 2229538.
1213.342, 2231648.
1213.824, 2233705.
1214.307, 2233850.
1214.789, 2231132.
1215.271, 2229025.
1215.753, 2228549.
1216.235, 2228846.
1216.717, 2228914.
1217.199, 2228863.
1217.681, 2228724.
1218.163, 2228483.
1218.646, 2229006.
1219.128, 2230689.
1219.610, 2232008.
1220.092, 2232330.
1220.574, 2232446.
1221.056, 2233595.
1221.538, 2235249.
1222.020, 2236609.
1222.502, 2237436.
1222.985, 2238637.
1223.467, 2240336.
1223.949, 2241911.
1224.431, 2243083.
1224.913, 2244071.
1225.395, 2245195.
1225.877, 2246334.
1226.359, 2247399.
1226.842, 2248428.
1227.324, 2248918.
1227.806, 2248794.
1228.288, 2248395.
1228.770, 2247673.
1229.252, 2247098.
1229.734, 2247370.
1230.216, 2248186.
1230.698, 2249236.
1231.181, 2250625.
1231.663, 2251380.
1232.145, 2251423.
1232.627, 2251385.
1233.109, 2251576.
1233.591, 2251852.
1234.073, 2252568.
1234.555, 2253031.
1235.037, 2251975.
1235.520, 2248897.
1236.002, 2247258.
1236.484, 2247129.
1236.966, 2248247.
1237.448, 2251309.
1237.930, 2254287.
1238.412, 2254359.
1238.894, 2253486.
1239.377, 2254512.
1239.859, 2257806.
1240.341, 2260307.
1240.823, 2261891.
1241.305, 2263581.
1241.787, 2266142.
1242.269, 2268538.
1242.751, 2269357.
1243.234, 2269737.
1243.716, 2271368.
1244.198, 2274549.
1244.680, 2275492.
1245.162, 2274267.
1245.644, 2273090.
1246.126, 2273261.
1246.608, 2273829.
1247.090, 2274543.
1247.573, 2275129.
1248.055, 2275220.
1248.537, 2274834.
1249.019, 2275133.
1249.501, 2276078.
1249.983, 2276857.
1250.465, 2276039.
1250.947, 2276201.
1251.429, 2280216.
1251.912, 2284567.
1252.394, 2285543.
1252.876, 2283380.
1253.358, 2283228.
1253.840, 2284801.
1254.322, 2286444.
1254.804, 2287202.
1255.286, 2287904.
1255.769, 2288981.
1256.251, 2289921.
1256.733, 2290027.
1257.215, 2289583.
1257.697, 2290429.
1258.179, 2292352.
1258.661, 2294161.
1259.143, 2295782.
1259.625, 2296648.
1260.108, 2296481.
1260.590, 2296016.
1261.072, 2295348.
1261.554, 2294993.
1262.036, 2297379.
1262.518, 2301569.
1263.000, 2304412.
1263.482, 2303557.
1263.964, 2302917.
1264.447, 2302787.
1264.929, 2302919.
1265.411, 2303328.
1265.893, 2303715.
1266.375, 2303150.
1266.857, 2302110.
1267.339, 2301896.
1267.821, 2303158.
1268.304, 2305019.
1268.786, 2307744.
1269.268, 2310188.
1269.750, 2311320.
1270.232, 2311748.
1270.714, 2312039.
1271.196, 2312285.
1271.678, 2312636.
1272.161, 2313036.
1272.643, 2313614.
1273.125, 2314320.
1273.607, 2315367.
1274.089, 2317062.
1274.571, 2318925.
1275.053, 2320816.
1275.535, 2322379.
1276.017, 2322957.
1276.500, 2322248.
1276.982, 2322914.
1277.464, 2324982.
1277.946, 2326417.
1278.428, 2325279.
1278.910, 2323843.
1279.392, 2323588.
1279.874, 2323855.
1280.356, 2323549.
1280.839, 2322756.
1281.321, 2324698.
1281.803, 2328975.
1282.285, 2331873.
1282.767, 2329614.
1283.249, 2327958.
1283.731, 2329594.
1284.213, 2331928.
1284.696, 2332441.
1285.178, 2331680.
1285.660, 2332563.
1286.142, 2334687.
1286.624, 2336359.
1287.106, 2336070.
1287.588, 2336539.
1288.070, 2338468.
1288.552, 2340415.
1289.035, 2340924.
1289.517, 2340712.
1289.999, 2341247.
1290.481, 2342424.
1290.963, 2343981.
1291.445, 2346640.
1291.927, 2348010.
1292.409, 2347666.
1292.891, 2347704.
1293.374, 2350805.
1293.856, 2354181.
1294.338, 2353431.
1294.820, 2350626.
1295.302, 2349857.
1295.784, 2351898.
1296.266, 2353635.
1296.748, 2355041.
1297.231, 2356531.
1297.713, 2358656.
1298.195, 2360569.
1298.677, 2361456.
1299.159, 2361703.
1299.641, 2361726.
1300.123, 2361492.
1300.605, 2360609.
1301.088, 2359146.
1301.570, 2357892.
1302.052, 2357847.
1302.534, 2356560.
1303.016, 2353085.
##END=



