##NAMES=Pentlandite
##RRUFFID=R060144
##IDEAL CHEMISTRY=(Ni,Fe)_9_S_8_
##LOCALITY=Worthington, Ontario, Canada
##OWNER=RRUFF
##SOURCE=University of Arizona Mineral Museum
##DESCRIPTION=Bronze-white metallic massive
##STATUS=The identification of this mineral has been confirmed by X-ray diffraction and chemical analysis
##URL=rruff.info/R060144
##MEASURED CHEMISTRY=(Fe_4.80_Ni_4.12_Co_0.08_)_Î£=9_S_8_
119.9881, 0.0000000E+00
120.4703, 1.5057000E-02
120.9524, 0.1505450
121.4345, 0.4033910
121.9166, 0.7275520
122.3987, 1.167733
122.8808, 1.711527
123.3630, 2.049345
123.8451, 1.975454
124.3272, 1.772758
124.8093, 1.745520
125.2914, 1.959224
125.7735, 2.214022
126.2557, 2.159508
126.7378, 1.856991
127.2199, 1.753743
127.7020, 2.224443
128.1841, 3.078157
128.6662, 3.713255
129.1483, 3.980753
129.6305, 4.066508
130.1126, 4.194685
130.5947, 4.387096
131.0768, 4.475523
131.5589, 4.271349
132.0410, 3.709161
132.5232, 3.240137
133.0053, 2.891907
133.4874, 2.725005
133.9695, 2.803455
134.4516, 3.168316
134.9337, 3.895373
135.4159, 4.637177
135.8980, 5.352027
136.3801, 5.714660
136.8622, 5.935193
137.3443, 6.242168
137.8264, 6.485010
138.3086, 6.515842
138.7907, 6.397143
139.2728, 6.075340
139.7549, 5.297498
140.2370, 4.573841
140.7191, 3.955032
141.2013, 3.299293
141.6834, 2.716043
142.1655, 2.217417
142.6476, 1.783191
143.1297, 1.417654
143.6118, 1.050282
144.0939, 0.8485920
144.5761, 0.9993730
145.0582, 1.404925
145.5403, 1.745344
146.0224, 1.825341
146.5045, 1.712970
146.9866, 1.600596
147.4688, 1.587869
147.9509, 1.524271
148.4330, 1.222773
148.9151, 0.5588480
149.3972, 5.2430999E-02
149.8793, 0.1368980
150.3615, 5.1442999E-02
150.8436, 5.7160001E-02
151.3257, 0.1663560
151.8078, 0.1864790
152.2899, 6.6684999E-02
152.7720, 7.7271998E-02
153.2542, 7.3351003E-02
153.7363, 0.2581160
154.2184, 0.1679900
154.7005, 0.5212840
155.1826, 0.5731750
155.6647, 0.3524420
156.1469, 0.1886470
156.6290, 0.1197610
157.1111, 7.3339000E-02
157.5932, 6.4994998E-02
158.0753, 6.4833999E-02
158.5574, 2.9593000E-02
159.0396, 7.8459002E-02
159.5217, 0.2695640
160.0038, 0.2376680
160.4859, 0.3106180
160.9680, 0.3057170
161.4501, 0.1394000
161.9323, 0.2460730
162.4144, 0.6019300
162.8965, 0.6976880
163.3786, 0.4505290
163.8607, 0.3051060
164.3428, 0.2461760
164.8250, 0.2913310
165.3071, 0.5115050
165.7892, 0.8966590
166.2713, 1.284808
166.7534, 1.478301
167.2355, 1.455963
167.7177, 1.354327
168.1998, 1.071554
168.6819, 0.7513510
169.1640, 0.6219660
169.6461, 0.7722000
170.1282, 0.9683620
170.6104, 0.8914250
171.0925, 0.5791930
171.5746, 0.2784590
172.0567, 6.7717001E-02
172.5388, 5.7197999E-02
173.0209, 0.1061070
173.5031, 5.3165998E-02
173.9852, 4.1023999E-02
174.4673, 0.1412160
174.9494, 0.2409480
175.4315, 0.2893430
175.9136, 0.1860400
176.3958, 5.9772000E-02
176.8779, 0.1535710
177.3600, 0.1166600
177.8421, 0.5273770
178.3242, 0.7563680
178.8063, 0.8031660
179.2885, 0.8068940
179.7706, 0.9190790
180.2527, 1.171140
180.7348, 1.393037
181.2169, 1.639765
181.6990, 1.805941
182.1812, 1.756705
182.6633, 1.505193
183.1454, 1.242763
183.6275, 1.271074
184.1096, 1.830424
184.5917, 2.169906
185.0738, 2.194917
185.5560, 2.104324
186.0381, 2.038720
186.5202, 2.032578
187.0023, 2.018684
187.4844, 1.874666
187.9665, 1.392698
188.4487, 1.120361
188.9308, 1.192753
189.4129, 1.399530
189.8950, 1.555813
190.3771, 1.600353
190.8592, 1.582701
191.3414, 1.599876
191.8235, 1.703521
192.3056, 1.744137
192.7877, 1.563997
193.2698, 1.350194
193.7519, 1.400281
194.2341, 1.854391
194.7162, 2.486449
195.1983, 2.828921
195.6804, 2.867574
196.1625, 2.808668
196.6446, 2.632675
197.1268, 2.402997
197.6089, 2.281131
198.0910, 2.359822
198.5731, 2.501807
199.0552, 2.453285
199.5373, 2.165902
200.0195, 1.956650
200.5016, 2.083314
200.9837, 2.472550
201.4658, 2.735537
201.9479, 2.728491
202.4300, 2.570986
202.9122, 2.377264
203.3943, 2.138488
203.8764, 1.969309
204.3585, 2.012976
204.8406, 2.267463
205.3227, 2.434509
205.8048, 2.347226
206.2870, 2.211717
206.7691, 2.186346
207.2512, 2.276571
207.7333, 2.365278
208.2154, 2.330427
208.6975, 2.141362
209.1797, 2.008440
209.6618, 1.902749
210.1439, 1.929892
210.6260, 2.018789
211.1081, 2.268587
211.5902, 2.373237
212.0724, 2.373623
212.5545, 1.887555
213.0366, 2.028864
213.5187, 1.918801
214.0008, 1.798455
214.4829, 2.040558
214.9651, 1.625286
215.4472, 1.849492
215.9293, 1.822108
216.4114, 1.672655
216.8935, 1.615852
217.3756, 1.660555
217.8578, 1.722465
218.3399, 1.697782
218.8220, 1.584604
219.3041, 1.483300
219.7862, 1.283437
220.2683, 1.580442
220.7505, 1.748955
221.2326, 1.795893
221.7147, 1.357023
222.1968, 1.545528
222.6789, 1.482643
223.1610, 1.409472
223.6432, 1.686344
224.1253, 1.318257
224.6074, 1.589625
225.0895, 1.605766
225.5716, 1.738752
226.0537, 1.618791
226.5358, 1.576987
227.0180, 1.788252
227.5001, 1.859427
227.9822, 1.484744
228.4643, 1.509784
228.9464, 1.762203
229.4285, 2.092720
229.9107, 2.348953
230.3928, 2.494230
230.8749, 2.570542
231.3570, 2.635751
231.8391, 2.697645
232.3212, 2.706041
232.8034, 2.571249
233.2855, 2.400735
233.7676, 2.346769
234.2497, 2.441605
234.7318, 2.590945
235.2139, 2.738086
235.6961, 2.874571
236.1782, 2.949944
236.6603, 2.877394
237.1424, 2.757378
237.6245, 2.774436
238.1066, 2.966590
238.5888, 3.172051
239.0709, 3.223642
239.5530, 3.178382
240.0351, 3.109308
240.5172, 2.966615
240.9993, 2.834336
241.4815, 2.889927
241.9636, 3.228979
242.4457, 3.552942
242.9278, 3.635447
243.4099, 3.561492
243.8920, 3.485620
244.3742, 3.451334
244.8563, 3.457161
245.3384, 3.541386
245.8205, 3.759675
246.3026, 3.929363
246.7847, 3.986359
247.2668, 3.920121
247.7490, 3.706076
248.2311, 3.238366
248.7132, 2.659661
249.1953, 2.348794
249.6774, 2.463948
250.1595, 2.530725
250.6417, 2.265255
251.1238, 1.860901
251.6059, 1.570571
252.0880, 1.527845
252.5701, 1.647239
253.0522, 1.723605
253.5344, 1.771895
254.0165, 1.733949
254.4986, 1.559668
254.9807, 1.319140
255.4628, 1.068067
255.9449, 0.8157660
256.4271, 0.6040020
256.9092, 0.5521380
257.3913, 0.7967700
257.8734, 0.9469930
258.3555, 0.8446530
258.8376, 0.6698370
259.3198, 0.6149460
259.8019, 0.7562250
260.2840, 0.9664300
260.7661, 0.9630780
261.2482, 0.5883390
261.7303, 0.2963570
262.2125, 0.1194540
262.6946, 4.6861000E-02
263.1767, 9.6709996E-02
263.6588, 0.2623380
264.1409, 0.4640850
264.6230, 0.5496090
265.1052, 0.4370670
265.5873, 0.3708620
266.0694, 0.4037200
266.5515, 0.4462090
267.0336, 0.4209110
267.5157, 0.3141410
267.9979, 0.1760750
268.4800, 6.8654999E-02
268.9621, 4.4709999E-02
269.4442, 2.6409000E-02
269.9263, 0.3323010
270.4084, 0.6538440
270.8906, 0.6191580
271.3727, 0.2294600
271.8548, 0.2160680
272.3369, 4.2272002E-02
272.8190, 2.7852001E-02
273.3011, 7.4042000E-02
273.7833, 0.1220670
274.2654, 0.1363400
274.7475, 0.3235100
275.2296, 0.4429600
275.7117, 0.5540380
276.1938, 0.7298810
276.6760, 1.008125
277.1581, 1.151823
277.6402, 1.052783
278.1223, 0.9556950
278.6044, 0.9531030
279.0865, 1.051679
279.5686, 1.242931
280.0508, 1.550648
280.5329, 1.986345
281.0150, 2.171742
281.4971, 1.880792
281.9792, 1.622552
282.4613, 1.666946
282.9435, 1.901048
283.4256, 2.026832
283.9077, 1.839097
284.3898, 1.379552
284.8719, 1.037924
285.3540, 0.8951200
285.8362, 0.7574050
286.3183, 0.5553310
286.8004, 0.3269010
287.2825, 0.1431880
287.7646, 4.1862998E-02
288.2467, 4.5440001E-03
288.7289, 3.3172999E-02
289.2110, 0.1137110
289.6931, 0.1361400
290.1752, 7.3050998E-02
290.6573, 4.8907999E-02
291.1394, 0.1570380
291.6216, 0.2348700
292.1037, 0.2726020
292.5858, 0.3184970
293.0679, 0.4186660
293.5500, 0.4405910
294.0321, 0.2501300
294.5143, 2.7140999E-02
294.9964, 0.1207410
295.4785, 1.8807000E-02
295.9606, 7.7451997E-02
296.4427, 5.9551999E-02
296.9248, 0.2641530
297.4070, 0.1931570
297.8891, 3.5000001E-05
298.3712, 0.1173830
298.8533, 0.1581830
299.3354, 0.1068200
299.8175, 2.2968000E-02
300.2997, 5.4959999E-03
300.7818, 4.0477999E-02
301.2639, 6.9472998E-02
301.7460, 3.7996002E-02
302.2281, 6.3312002E-02
302.7102, 0.1181700
303.1924, 3.7218001E-02
303.6745, 2.3267999E-02
304.1566, 8.3470002E-02
304.6387, 0.1354880
305.1208, 0.2735470
305.6029, 0.3350580
306.0851, 9.0774000E-02
306.5672, 0.2413410
307.0493, 0.2336540
307.5314, 0.2194710
308.0135, 0.4255880
308.4956, 0.2257310
308.9778, 0.1663650
309.4599, 0.4022810
309.9420, 0.5573010
310.4241, 0.6357710
310.9062, 0.4084370
311.3883, 0.5759640
311.8705, 0.5852450
312.3526, 0.1179690
312.8347, 3.6107000E-02
313.3168, 1.0986000E-02
313.7989, 5.9960000E-03
314.2810, 0.2438500
314.7632, 0.5204170
315.2453, 0.6582150
315.7274, 0.6072230
316.2095, 0.4727540
316.6916, 0.3895640
317.1737, 0.3649920
317.6559, 0.3682570
318.1380, 0.4763190
318.6201, 0.5638150
319.1022, 0.4542630
319.5843, 0.1408450
320.0664, 6.0745999E-02
320.5485, 3.9827999E-02
321.0306, 0.2413770
321.5128, 0.4196340
321.9949, 0.3099900
322.4770, 0.1296070
322.9591, 2.3218000E-02
323.4412, 7.4001998E-02
323.9233, 0.1155690
324.4055, 5.6453001E-02
324.8876, 3.3927999E-02
325.3697, 0.1412880
325.8518, 0.2673920
326.3339, 0.3042420
326.8160, 8.0574997E-02
327.2982, 0.2105290
327.7803, 0.3170200
328.2624, 1.5652001E-02
328.7445, 0.5283830
329.2266, 0.7112130
329.7087, 0.2800870
330.1909, 1.2378000E-02
330.6730, 7.6417997E-02
331.1551, 3.2560001E-03
331.6372, 9.5610999E-02
332.1193, 0.3582220
332.6014, 0.5714300
333.0836, 0.4881630
333.5657, 1.5995000E-02
334.0478, 0.3368260
334.5299, 0.1920190
335.0120, 2.1700000E-02
335.4941, 9.5059998E-02
335.9763, 2.4699999E-04
336.4584, 0.1312110
336.9405, 2.8225999E-02
337.4226, 0.3002360
337.9047, 0.4853720
338.3868, 0.3325810
338.8690, 0.1667350
339.3511, 0.1786810
339.8332, 0.3186790
340.3153, 0.4273100
340.7974, 0.4135570
341.2795, 0.3088380
341.7617, 0.3186450
342.2438, 0.5761080
342.7259, 0.7743920
343.2080, 0.7997460
343.6901, 0.7330410
344.1722, 0.7065260
344.6544, 0.6021137
345.1365, 0.8240775
345.6186, 0.9512770
346.1007, 0.9888052
346.5828, 0.6680846
347.0649, 0.8099678
347.5471, 0.7664612
348.0292, 0.7153520
348.5113, 0.9223443
348.9934, 0.6537305
349.4755, 0.8566297
349.9576, 0.8713098
350.4398, 0.9721339
350.9219, 0.8864219
351.4040, 0.8583245
351.8861, 1.016823
352.3682, 1.072001
352.8503, 0.9648159
353.3325, 1.071116
353.8146, 0.7959858
354.2967, 0.6820841
354.7788, 0.9046980
355.2609, 1.032548
355.7430, 1.070726
356.2252, 0.7506567
356.7073, 0.8931901
357.1894, 0.8503327
357.6715, 0.7998737
358.1536, 1.007516
358.6357, 0.7395527
359.1179, 0.9431033
359.5999, 0.9584324
360.0821, 1.059907
360.5642, 0.9748452
361.0463, 0.9473980
361.5284, 1.106546
362.0105, 1.162375
362.4926, 1.114370
362.9748, 0.9284698
363.4569, 1.147365
363.9390, 1.271496
364.4211, 1.305956
364.9032, 0.9821664
365.3853, 1.120981
365.8675, 1.074405
366.3496, 1.020228
366.8317, 1.224151
367.3138, 0.9524691
367.7959, 0.9788972
368.2780, 1.198446
368.7602, 1.323232
369.2423, 1.358345
369.7244, 1.035210
370.2065, 1.174678
370.6886, 1.128756
371.1707, 1.075232
371.6529, 1.279811
372.1350, 0.9134272
372.6171, 1.114115
373.0992, 1.220038
373.5813, 1.236290
374.0634, 0.8942934
374.5456, 1.014897
375.0277, 0.9501123
375.5098, 0.8777271
375.9919, 1.063443
376.4740, 0.7735531
376.9561, 0.9551767
377.4383, 0.9485769
377.9204, 1.028123
378.4025, 0.9211356
378.8846, 0.8717616
379.3667, 1.008984
379.8488, 0.8691266
380.3310, 1.069196
380.8131, 1.174504
381.2952, 1.190141
381.7773, 0.8475295
382.2594, 0.9675220
382.7415, 0.9021240
383.2237, 0.8291200
383.7058, 1.014221
384.1879, 0.7237163
384.6700, 0.9047241
385.1521, 0.8975133
385.6342, 0.9764460
386.1164, 0.8688390
386.5985, 0.9766480
387.0806, 0.6286213
387.5627, 0.8318287
388.0448, 0.9402731
388.5269, 0.9590457
389.0091, 0.6195666
389.4912, 0.7426934
389.9733, 0.6804305
390.4554, 0.6105648
390.9375, 0.7988018
391.4196, 0.5114324
391.9018, 0.6955730
392.3839, 0.6914964
392.8660, 0.7735642
393.3481, 0.6690956
393.8302, 0.6222427
394.3123, 0.7619851
394.7945, 0.7984048
395.2766, 0.7493290
395.7587, 0.4708450
396.2408, 3.2410000E-03
396.7229, 1.4577000E-02
397.2050, 6.3234001E-02
397.6872, 5.3406999E-02
398.1693, 0.2886970
398.6514, 0.5333560
399.1335, 0.6391100
399.6156, 0.4715490
400.0977, 0.2694690
400.5798, 0.2019670
401.0620, 0.2568590
401.5441, 0.3371870
402.0262, 0.3868540
402.5083, 0.4116870
402.9904, 0.4416420
403.4725, 0.5519260
403.9547, 0.5759540
404.4368, 0.4096080
404.9189, 0.1671820
405.4010, 3.1129999E-02
405.8831, 0.1142370
406.3652, 0.1073790
406.8474, 1.5679000E-02
407.3295, 0.4127570
407.8116, 0.6433530
408.2937, 0.5674290
408.7758, 0.4135990
409.2579, 0.2681150
409.7401, 0.1557170
410.2222, 9.4903998E-02
410.7043, 0.1035070
411.1864, 0.1731690
411.6685, 0.2297370
412.1506, 0.2770800
412.6328, 0.3042110
413.1149, 0.3163750
413.5970, 0.3050090
414.0791, 0.2365550
414.5612, 0.1045700
415.0433, 1.7304000E-02
415.5255, 1.0271000E-02
416.0076, 0.2552980
416.4897, 0.4166310
416.9718, 0.4232300
417.4539, 0.3850220
417.9360, 0.3273650
418.4182, 0.2645900
418.9003, 0.2226660
419.3824, 0.2234200
419.8645, 0.2593940
420.3466, 0.2964630
420.8287, 0.3293290
421.3109, 0.3745400
421.7930, 0.5301960
422.2751, 0.6631780
422.7572, 0.5678740
423.2393, 0.1401080
423.7214, 2.9500001E-04
424.2036, 3.6469001E-02
424.6857, 1.2332000E-02
425.1678, 0.2957160
425.6499, 0.4186850
426.1320, 0.4548460
426.6141, 0.4544030
427.0963, 0.4247200
427.5784, 0.4265170
428.0605, 0.5144670
428.5426, 0.6377060
429.0247, 0.7236720
429.5068, 0.7692550
429.9890, 0.7732140
430.4711, 0.6998920
430.9532, 0.5933120
431.4353, 0.6001320
431.9174, 0.8138120
432.3995, 0.9765290
432.8817, 0.9543190
433.3638, 0.8035270
433.8459, 0.6173020
434.3280, 0.4140090
434.8101, 0.2537110
435.2922, 0.2381660
435.7744, 0.4043810
436.2565, 0.5442250
436.7386, 0.6858530
437.2207, 0.7785950
437.7028, 0.7656840
438.1849, 0.6638320
438.6671, 0.5422830
439.1492, 0.4467410
439.6313, 0.3702630
440.1134, 0.2773590
440.5955, 8.6626999E-02
441.0776, 1.8193999E-02
441.5598, 4.6181999E-02
442.0418, 0.1739680
442.5240, 0.2751430
443.0061, 0.3191900
443.4882, 0.3035020
443.9703, 0.2156140
444.4524, 3.6428001E-02
444.9345, 0.1265620
445.4167, 0.1045920
445.8988, 0.2352020
446.3809, 0.1516690
446.8630, 9.0296999E-02
447.3451, 0.1493310
447.8272, 0.5293060
448.3094, 0.8748700
448.7915, 0.8973780
449.2736, 0.4360170
449.7557, 0.1125800
450.2378, 0.2069820
450.7199, 0.4174830
451.2021, 0.5536750
451.6842, 0.5844730
452.1663, 0.5400420
452.6484, 0.3683570
453.1305, 0.1221050
453.6126, 8.4106997E-02
454.0948, 0.3685390
454.5769, 0.6086660
455.0590, 0.4638900
455.5411, 0.1452830
456.0232, 1.3940000E-03
456.5053, 0.2069110
456.9875, 0.4752250
457.4696, 0.5761730
457.9517, 0.5334230
458.4338, 0.4510450
458.9159, 0.3247480
459.3980, 0.2122150
459.8802, 0.2118020
460.3623, 0.3295220
460.8444, 0.4455670
461.3265, 0.5472680
461.8086, 0.6323140
462.2907, 0.7104850
462.7729, 0.7745660
463.2550, 0.7819260
463.7371, 0.6916480
464.2192, 0.5331560
464.7013, 0.4362590
465.1834, 0.4329020
465.6656, 0.4223260
466.1477, 0.3772910
466.6298, 0.3253810
467.1119, 0.2882090
467.5940, 0.2743680
468.0761, 0.2935430
468.5583, 0.3587570
469.0404, 0.4751410
469.5225, 0.6107540
470.0046, 0.8418610
470.4867, 1.027576
470.9688, 1.116428
471.4510, 1.110354
471.9331, 0.9974730
472.4152, 0.7628410
472.8973, 0.4900020
473.3794, 0.3387090
473.8615, 0.3191090
474.3437, 0.3826250
474.8258, 0.6566720
475.3079, 0.8992230
475.7900, 0.9168960
476.2721, 0.7412350
476.7542, 0.5864250
477.2364, 0.5995170
477.7185, 0.7223500
478.2006, 0.8327530
478.6827, 0.9321720
479.1648, 1.004448
479.6469, 1.030702
480.1291, 1.027478
480.6112, 1.025958
481.0933, 1.025823
481.5754, 1.012732
482.0575, 0.9991030
482.5396, 1.005205
483.0217, 1.041394
483.5038, 1.115440
483.9860, 1.131067
484.4681, 0.9703500
484.9502, 0.6251860
485.4323, 0.3878830
485.9144, 0.2779290
486.3965, 0.2472460
486.8787, 0.3679070
487.3608, 0.5364930
487.8429, 0.5270060
488.3250, 0.2496240
488.8071, 9.5188998E-02
489.2892, 0.1080680
489.7714, 0.3188280
490.2535, 0.6293030
490.7356, 0.8355460
491.2177, 0.8914760
491.6998, 0.6520300
492.1819, 0.2406280
492.6641, 5.7780001E-02
493.1462, 4.7708001E-02
493.6283, 0.1672720
494.1104, 0.2819630
494.5925, 0.2624000
495.0746, 0.2332360
495.5568, 0.1958040
496.0389, 0.1783440
496.5210, 0.2260140
497.0031, 0.3319590
497.4852, 0.4063080
497.9673, 0.3388810
498.4495, 0.2036540
498.9316, 0.1800850
499.4137, 0.3143750
499.8958, 0.4495780
500.3779, 0.4885650
500.8600, 0.4704670
501.3422, 0.4868940
501.8243, 0.5807320
502.3064, 0.6238670
502.7885, 0.4907150
503.2706, 0.2709990
503.7527, 0.1144060
504.2349, 6.7762002E-02
504.7170, 8.1145003E-02
505.1991, 0.1093070
505.6812, 0.1395980
506.1633, 0.1856600
506.6454, 0.3088020
507.1276, 0.3736960
507.6097, 0.2478810
508.0918, 5.5319000E-02
508.5739, 1.5215000E-02
509.0560, 0.1030470
509.5381, 0.3129810
510.0203, 0.4608670
510.5024, 0.5262660
510.9845, 0.5991050
511.4666, 0.7366530
511.9487, 0.8348890
512.4308, 0.8279800
512.9130, 0.7455260
513.3951, 0.6390570
513.8772, 0.5477440
514.3593, 0.4535260
514.8414, 0.2890920
515.3235, 2.9379999E-02
515.8057, 8.6498998E-02
516.2878, 5.7480000E-03
516.7699, 0.1606190
517.2520, 0.2275570
517.7341, 0.2070760
518.2162, 0.1957300
518.6984, 0.2748470
519.1805, 0.3611040
519.6626, 0.3268700
520.1447, 0.1795910
520.6268, 4.1347001E-02
521.1089, 3.4208000E-02
521.5911, 5.2101001E-02
522.0732, 3.5333999E-02
522.5553, 7.6500000E-04
523.0374, 6.6572003E-02
523.5195, 0.2061100
524.0016, 0.3487280
524.4838, 0.4283140
524.9659, 0.4492300
525.4480, 0.4572480
525.9301, 0.5035670
526.4122, 0.5587520
526.8943, 0.4573500
527.3765, 5.5792000E-02
527.8586, 0.1748620
528.3407, 7.8022003E-02
528.8228, 2.3665000E-02
529.3049, 0.1386260
529.7870, 0.2082420
530.2692, 0.3001590
530.7513, 0.5401190
531.2334, 0.8662370
531.7155, 1.023945
532.1976, 0.9718240
532.6797, 0.8783560
533.1619, 0.8005790
533.6440, 0.7236270
534.1261, 0.6128210
534.6082, 0.4522930
535.0903, 0.3476240
535.5724, 0.4440630
536.0546, 0.6385060
536.5367, 0.6297380
537.0188, 0.3614330
537.5009, 0.1798720
537.9830, 0.4172330
538.4651, 0.9765980
538.9473, 1.294110
539.4294, 1.176338
539.9115, 1.085287
540.3936, 1.197674
540.8757, 1.384537
541.3578, 1.494495
541.8400, 1.495341
542.3221, 1.430292
542.8042, 1.330364
543.2863, 1.193683
543.7684, 1.139096
544.2505, 1.249990
544.7326, 1.346454
545.2147, 1.434380
545.6968, 1.480589
546.1790, 1.401957
546.6611, 1.177694
547.1432, 0.9332000
547.6253, 0.8159880
548.1074, 0.8135710
548.5895, 0.9248020
549.0717, 1.233929
549.5538, 1.474362
550.0359, 1.414838
550.5180, 1.196992
551.0001, 1.042954
551.4822, 1.022505
551.9644, 0.9911080
552.4465, 0.7859870
552.9286, 0.5208340
553.4107, 0.4973580
553.8928, 0.7809460
554.3749, 0.9990490
554.8571, 0.7604210
555.3392, 8.5279003E-02
555.8213, 7.1263999E-02
556.3034, 3.6150001E-02
556.7855, 0.3387970
557.2676, 0.6330640
557.7498, 0.8469840
558.2319, 0.8639640
558.7140, 0.6764250
559.1961, 0.4250540
559.6782, 0.2512730
560.1603, 0.1559030
560.6425, 0.1321820
561.1246, 0.2494130
561.6067, 0.3372660
562.0888, 0.3571500
562.5709, 0.3175870
563.0530, 0.1913360
563.5352, 3.3367001E-02
564.0173, 3.1590998E-02
564.4994, 6.0059998E-02
564.9815, 0.1566560
565.4636, 0.3044370
565.9457, 0.2900980
566.4279, 0.2694140
566.9100, 0.3903180
567.3921, 0.5789520
567.8742, 0.5839790
568.3563, 0.2754220
568.8384, 1.6180000E-03
569.3206, 4.4121999E-02
569.8027, 1.6757000E-02
570.2848, 8.8560000E-02
570.7669, 5.9989002E-02
571.2490, 0.1953680
571.7311, 0.2330840
572.2133, 0.1824980
572.6954, 0.1468970
573.1775, 0.1202450
573.6596, 9.8264001E-02
574.1417, 9.8301001E-02
574.6238, 0.1152920
575.1060, 0.1392360
575.5881, 0.1731580
576.0702, 0.2408370
576.5523, 0.4204710
577.0344, 0.6451800
577.5165, 0.6269310
577.9987, 0.3034210
578.4808, 2.9440001E-03
578.9629, 6.4110002E-03
579.4450, 5.3527001E-02
579.9271, 8.9819999E-03
580.4092, 0.6347510
580.8914, 1.029612
581.3735, 0.6830700
581.8556, 0.1222600
582.3377, 3.2109998E-02
582.8198, 0.2007880
583.3019, 0.4197440
583.7841, 0.3852660
584.2662, 0.2033350
584.7483, 0.1710310
585.2304, 0.4621220
585.7125, 0.5977520
586.1946, 0.5594760
586.6768, 0.4235550
587.1589, 0.1221650
587.6410, 6.8100002E-03
588.1231, 0.1712360
588.6052, 6.9960002E-03
589.0873, 0.1194170
589.5695, 0.3132300
590.0516, 0.3114280
590.5337, 0.3253630
591.0158, 0.4476710
591.4979, 0.5327130
591.9800, 0.4328630
592.4622, 0.1910850
592.9443, 1.7905001E-02
593.4264, 7.6590002E-02
593.9085, 2.5200001E-03
594.3906, 0.1258330
594.8727, 0.1138790
595.3549, 0.3366920
595.8370, 0.4780140
596.3191, 0.5384140
596.8012, 0.5029170
597.2833, 0.3468720
597.7654, 0.2713350
598.2476, 0.3257580
598.7297, 0.3905760
599.2118, 0.4529480
599.6939, 0.4941920
600.1760, 0.4889070
600.6581, 0.4318620
601.1403, 0.3507360
601.6224, 0.2802790
602.1045, 0.2185200
602.5866, 0.1063600
603.0687, 0.1195200
603.5508, 4.0410999E-02
604.0330, 0.1358630
604.5151, 0.1081770
604.9972, 0.3390390
605.4793, 0.5537810
605.9614, 0.7012940
606.4435, 0.7081190
606.9257, 0.6568180
607.4078, 0.6837940
607.8899, 0.7877230
608.3720, 0.8449450
608.8541, 0.7729890
609.3362, 0.6057860
609.8184, 0.4480620
610.3005, 0.2593940
610.7826, 0.1468080
611.2647, 0.1112890
611.7468, 0.1474940
612.2289, 0.3123920
612.7111, 0.5465910
613.1932, 0.7091710
613.6753, 0.7081160
614.1574, 0.6134870
614.6395, 0.4935850
615.1216, 0.3421240
615.6038, 0.2354950
616.0859, 0.2025000
616.5680, 0.1961430
617.0501, 0.1771310
617.5322, 0.1511780
618.0143, 0.1387530
618.4965, 0.1317210
618.9786, 0.1529510
619.4607, 0.2233630
619.9428, 0.3296440
620.4249, 0.4595250
620.9070, 0.6071170
621.3892, 0.7413340
621.8713, 0.8491670
622.3534, 0.9332390
622.8355, 0.8648160
623.3176, 0.3589270
623.7997, 5.4678001E-02
624.2819, 0.2031670
624.7640, 0.4868050
625.2461, 0.6297770
625.7282, 0.5962630
626.2103, 0.5122200
626.6924, 0.4558270
627.1745, 0.4175660
627.6566, 0.4069230
628.1387, 0.4293940
628.6208, 0.3969520
629.1030, 0.2313190
629.5851, 2.8906999E-02
630.0672, 7.8672998E-02
630.5493, 9.8586999E-02
631.0314, 2.7759001E-02
631.5135, 0.2480650
631.9957, 0.5069140
632.4778, 0.5936810
632.9599, 0.5594190
633.4420, 0.5273850
633.9241, 0.5430540
634.4063, 0.5477970
634.8884, 0.4317100
635.3705, 0.1581180
635.8526, 7.8984998E-02
636.3347, 0.3643300
636.8168, 0.6223080
637.2990, 0.6650680
637.7811, 0.5887800
638.2632, 0.5370700
638.7453, 0.5329090
639.2274, 0.5558640
639.7095, 0.6437300
640.1917, 0.7528220
640.6738, 0.7412790
641.1559, 0.5590370
641.6380, 0.3522530
642.1201, 0.2328040
642.6022, 0.1958810
643.0844, 0.2376250
643.5665, 0.4447090
644.0486, 0.6041650
644.5307, 0.6959340
645.0128, 0.7372310
645.4949, 0.7334210
645.9771, 0.6869300
646.4592, 0.5947100
646.9413, 0.4612340
647.4234, 0.3351580
647.9055, 0.3136440
648.3876, 0.3942470
648.8698, 0.4362680
649.3519, 0.3745590
649.8340, 0.2544720
650.3161, 0.5082270
650.7982, 0.6796380
651.2803, 0.7708320
651.7625, 0.5609270
652.2446, 0.7381520
652.7267, 0.7653590
653.2088, 0.7860930
653.6909, 1.027144
654.1730, 0.6666610
654.6552, 0.4415290
655.1373, 0.3863120
655.6194, 0.4570860
656.1015, 0.5506250
656.5836, 0.6907880
657.0657, 0.7912100
657.5479, 0.8661650
658.0300, 0.8792810
658.5121, 0.7338920
658.9942, 0.5272010
659.4763, 0.4668130
659.9584, 0.6594280
660.4406, 0.8852720
660.9227, 0.9336680
661.4048, 0.8606170
661.8869, 0.7759850
662.3690, 0.7035720
662.8511, 0.7016970
663.3333, 0.8522540
663.8154, 1.092107
664.2975, 1.154818
664.7796, 0.7661190
665.2617, 0.5878720
665.7438, 0.8745950
666.2260, 1.167596
666.7081, 1.053306
667.1902, 0.6809380
667.6723, 0.5278820
668.1544, 0.7260740
668.6365, 0.9280710
669.1187, 1.049191
669.6008, 1.093773
670.0829, 0.8325660
670.5650, 0.9662370
671.0471, 0.9416690
671.5292, 0.9106160
672.0114, 1.099887
672.4935, 0.8831930
672.9756, 0.7205960
673.4577, 0.4857090
673.9398, 0.4849680
674.4219, 0.5751380
674.9041, 0.6241280
675.3862, 0.6267850
675.8683, 0.6401960
676.3504, 0.7005270
676.8325, 0.7896720
677.3146, 0.8881130
677.7968, 1.026701
678.2789, 1.013384
678.7610, 0.7027910
679.2431, 0.3965090
679.7252, 0.2673160
680.2073, 0.2807510
680.6895, 0.3584620
681.1716, 0.5298600
681.6537, 0.6326050
682.1358, 0.4749130
682.6179, 0.2329250
683.1000, 0.2015750
683.5822, 0.3784240
684.0643, 0.4965160
684.5464, 0.3681330
685.0285, 0.1098160
685.5106, 6.4756997E-02
685.9927, 0.3435490
686.4749, 0.5756270
686.9570, 0.8067100
687.4391, 0.9268000
687.9212, 0.7872150
688.4033, 0.5215790
688.8854, 0.3952320
689.3676, 0.5212160
689.8497, 0.6389920
690.3318, 0.4220710
690.8139, 6.5664001E-02
691.2960, 5.1123999E-02
691.7781, 0.4147150
692.2603, 0.7558560
692.7424, 0.8481670
693.2245, 0.7287240
693.7066, 0.4683790
694.1887, 0.2179620
694.6708, 1.1398000E-02
695.1530, 0.2700980
695.6351, 0.9210270
696.1172, 1.005162
696.5993, 0.6789680
697.0814, 0.1705640
697.5635, 3.2260001E-02
698.0457, 0.4625910
698.5278, 0.1779400
699.0099, 0.1494420
699.4920, 0.5132840
699.9741, 0.4232010
700.4562, 0.1607950
700.9384, 0.1941390
701.4205, 0.1374720
701.9026, 0.2795760
702.3847, 0.1322320
702.8668, 3.0925000E-02
703.3489, 0.1461510
703.8311, 4.9534000E-02
704.3132, 0.1255390
704.7953, 0.1342110
705.2774, 0.1565420
705.7595, 0.2207250
706.2416, 0.3290800
706.7238, 0.5399320
707.2059, 0.8038100
707.6880, 0.8711010
708.1701, 0.7106200
708.6522, 0.5640060
709.1343, 0.5286760
709.6164, 0.5625410
710.0985, 0.6273150
710.5806, 0.7245210
711.0627, 0.7502440
711.5449, 0.6324370
712.0270, 0.5127440
712.5091, 0.4334910
712.9912, 0.3928990
713.4733, 0.4002780
713.9554, 0.4406420
714.4376, 0.4399660
714.9197, 0.2824190
715.4018, 4.5403000E-02
715.8839, 7.1546003E-02
716.3660, 0.4034110
716.8481, 0.6859700
717.3303, 0.8190750
717.8124, 0.8462120
718.2945, 0.7716360
718.7766, 0.6065230
719.2587, 0.5181840
719.7408, 0.5774040
720.2230, 0.6490360
720.7051, 0.7209830
721.1872, 0.7535820
721.6693, 0.6445820
722.1514, 0.4246670
722.6335, 0.3079470
723.1157, 0.5030630
723.5978, 0.8433580
724.0799, 0.8212810
724.5620, 0.3785830
725.0441, 0.1580950
725.5262, 0.3788220
726.0084, 0.6716840
726.4905, 0.7164090
726.9726, 0.5802100
727.4547, 0.5280760
727.9368, 0.6789040
728.4189, 0.7491930
728.9011, 0.5105970
729.3832, 0.2593550
729.8653, 0.3571800
730.3474, 0.7184520
730.8295, 0.9605970
731.3116, 0.8638490
731.7938, 0.6181670
732.2759, 0.5298270
732.7580, 0.6042850
733.2401, 0.7108010
733.7222, 0.8762520
734.2043, 0.9693620
734.6865, 0.8452090
735.1686, 0.6248130
735.6507, 0.6125240
736.1328, 0.9372110
736.6149, 1.024716
737.0970, 0.4388410
737.5792, 7.9691000E-02
738.0613, 0.1000530
738.5434, 0.2933960
739.0255, 0.6050820
739.5076, 0.6734570
739.9897, 0.5932750
740.4719, 0.4316250
740.9540, 0.2093920
741.4361, 7.8812003E-02
741.9182, 5.0324999E-02
742.4003, 6.8630002E-02
742.8824, 0.1427100
743.3646, 0.2204150
743.8467, 0.2179450
744.3288, 0.1331150
744.8109, 9.6509002E-02
745.2930, 0.1562750
745.7751, 0.2222060
746.2573, 0.2343590
746.7394, 0.2458990
747.2215, 0.3706560
747.7036, 0.5854780
748.1857, 0.6913410
748.6678, 0.4905040
749.1500, 0.1631190
749.6321, 0.1571980
750.1142, 0.4672400
750.5963, 0.6130380
751.0784, 0.4596340
751.5605, 0.2389010
752.0427, 8.4380001E-02
752.5248, 1.6907999E-02
753.0069, 5.7783999E-02
753.4890, 0.3252400
753.9711, 0.4457900
754.4532, 0.1751080
754.9354, 8.3191000E-02
755.4175, 1.8100999E-02
755.8996, 0.3307070
756.3817, 0.5061060
756.8638, 0.3887270
757.3459, 0.1795070
757.8281, 0.1544180
758.3102, 0.2715780
758.7923, 0.3773350
759.2744, 0.4772780
759.7565, 0.4699760
760.2386, 0.2936800
760.7208, 5.4455999E-02
761.2029, 7.0743002E-02
761.6850, 5.7835001E-02
762.1671, 2.1299999E-03
762.6492, 0.1776650
763.1313, 0.2992090
763.6135, 0.2077220
764.0956, 8.6966999E-02
764.5777, 0.1994370
765.0598, 0.5406150
765.5419, 0.7889880
766.0240, 0.6995790
766.5062, 0.4325630
766.9883, 0.1582360
767.4704, 0.1039720
767.9525, 4.3522000E-02
768.4346, 7.0703000E-02
768.9167, 1.7295999E-02
769.3989, 9.1761000E-02
769.8810, 1.9193999E-02
770.3631, 5.3550001E-02
770.8452, 1.5689000E-02
771.3273, 1.8123999E-02
771.8094, 0.2757170
772.2916, 0.7241120
772.7737, 0.6959650
773.2558, 0.3782030
773.7379, 0.1889880
774.2200, 0.2661230
774.7021, 0.3847450
775.1843, 0.4141560
775.6664, 0.3883300
776.1485, 0.3462710
776.6306, 0.2924330
777.1127, 0.2166620
777.5948, 0.1129080
778.0770, 2.3854000E-02
778.5591, 2.7977001E-02
779.0412, 0.1333630
779.5233, 0.1508720
780.0054, 2.6024999E-02
780.4875, 7.3120996E-02
780.9697, 0.1058420
781.4518, 7.6618999E-02
781.9339, 5.0009999E-02
782.4160, 0.2594400
782.8981, 0.3796020
783.3802, 0.2729980
783.8624, 0.1780190
784.3445, 0.2290460
784.8266, 0.3550950
785.3087, 0.4896130
785.7908, 0.6066340
786.2729, 0.6748670
786.7551, 0.6737760
787.2372, 0.6110920
787.7193, 0.4871690
788.2014, 0.3032610
788.6835, 0.1190570
789.1656, 8.0900997E-02
789.6478, 3.4100998E-02
790.1299, 5.8672000E-02
790.6120, 4.2589001E-02
791.0941, 0.1427850
791.5762, 0.4216140
792.0583, 0.6168760
792.5404, 0.7391340
793.0225, 0.7539770
793.5046, 0.5161390
793.9868, 0.2244830
794.4689, 0.1609850
794.9510, 0.3698350
795.4331, 0.6244820
795.9152, 0.8305220
796.3973, 0.9611670
796.8795, 0.9016580
797.3616, 0.6881950
797.8437, 0.4918760
798.3258, 0.3532030
798.8079, 0.2569530
799.2900, 0.1843320
799.7722, 0.1459070
800.2543, 0.2127760
800.7364, 0.4858360
801.2185, 0.6580440
801.7006, 0.6261900
802.1827, 0.5673550
802.6649, 0.5603580
803.1470, 0.5836430
803.6291, 0.6023050
804.1112, 0.6181700
804.5933, 0.5825600
805.0754, 0.4337380
805.5576, 0.2517520
806.0397, 7.1640998E-02
806.5218, 6.8492003E-02
807.0039, 7.4854001E-02
807.4860, 7.7651002E-02
807.9681, 0.2817730
808.4503, 0.4286220
808.9324, 0.5215840
809.4145, 0.5796180
809.8966, 0.6067610
810.3787, 0.5626460
810.8608, 0.3923430
811.3430, 0.2315380
811.8251, 0.1927820
812.3072, 0.2723410
812.7893, 0.4171940
813.2714, 0.8093460
813.7535, 1.021955
814.2357, 0.8352210
814.7178, 0.5962690
815.1999, 0.5735470
815.6820, 0.6790090
816.1641, 0.6831680
816.6462, 0.5047710
817.1284, 0.3045330
817.6105, 0.2347450
818.0926, 0.2425250
818.5747, 0.2318020
819.0568, 0.1959690
819.5389, 0.1499730
820.0211, 9.7064003E-02
820.5032, 7.5585999E-02
820.9853, 0.1380810
821.4674, 0.2778400
821.9495, 0.3862480
822.4316, 0.4393980
822.9138, 0.5183200
823.3959, 0.7619970
823.8780, 0.9073270
824.3601, 0.6257220
824.8422, 0.1249460
825.3243, 2.0962000E-02
825.8065, 0.4814860
826.2886, 0.8950630
826.7707, 0.8757070
827.2528, 0.7028250
827.7349, 0.6254060
828.2170, 0.6086770
828.6992, 0.4899570
829.1813, 0.2320490
829.6634, 6.9438003E-02
830.1455, 0.3675660
830.6276, 0.9340650
831.1097, 1.052411
831.5919, 0.7312690
832.0740, 0.5227350
832.5561, 0.6067400
833.0382, 0.7417430
833.5203, 0.6831870
834.0024, 0.4682060
834.4846, 0.3802370
834.9667, 0.5039150
835.4488, 0.6189030
835.9309, 0.7910790
836.4130, 0.8738940
836.8951, 0.6901280
837.3773, 0.3939660
837.8594, 0.2983530
838.3415, 0.4883510
838.8236, 0.6716250
839.3057, 0.7215630
839.7878, 0.6843630
840.2700, 0.5229970
840.7521, 0.3183920
841.2342, 0.2366210
841.7163, 0.3177650
842.1984, 0.4861470
842.6805, 0.6921770
843.1627, 0.9128110
843.6448, 1.095152
844.1269, 1.234201
844.6090, 1.241321
845.0911, 1.062401
845.5732, 0.8826530
846.0554, 0.8386190
846.5375, 0.8863750
847.0196, 0.9118970
847.5017, 0.9421360
847.9838, 0.8911450
848.4659, 0.5882720
848.9481, 0.4117640
849.4302, 0.6444380
849.9123, 0.9974140
850.3944, 1.091370
850.8765, 0.9021140
851.3586, 0.7612820
851.8408, 0.9331600
852.3229, 1.122940
852.8050, 1.008230
853.2871, 0.7712990
853.7692, 0.7539890
854.2513, 0.9606240
854.7335, 1.113436
855.2156, 1.028650
855.6977, 0.8417750
856.1798, 0.8268840
856.6619, 0.9756210
857.1440, 1.011663
857.6262, 0.8988240
858.1083, 0.7921310
858.5904, 0.7504230
859.0725, 0.7641830
859.5546, 0.8474580
860.0367, 1.018570
860.5189, 1.039267
861.0010, 0.7527430
861.4831, 0.5348910
861.9652, 0.4606830
862.4473, 0.4690790
862.9294, 0.5156820
863.4116, 0.5866890
863.8937, 0.7157930
864.3758, 0.9628160
864.8579, 1.097675
865.3400, 0.8459180
865.8221, 0.4979370
866.3043, 0.3793160
866.7864, 0.4613530
867.2685, 0.6155870
867.7506, 0.7845760
868.2327, 0.9353190
868.7148, 1.038987
869.1970, 1.085330
869.6791, 1.014848
870.1612, 0.8275060
870.6433, 0.6624490
871.1254, 0.5374260
871.6075, 0.5013060
872.0897, 0.6400030
872.5718, 0.8677670
873.0539, 0.8484630
873.5360, 0.3999230
874.0181, 0.1641680
874.5002, 0.2794060
874.9823, 0.4544180
875.4644, 0.6497160
875.9465, 0.8240390
876.4286, 0.9371740
876.9108, 0.9860780
877.3929, 0.9949140
877.8750, 0.9605210
878.3571, 0.8828820
878.8392, 0.7153310
879.3214, 0.5326500
879.8035, 0.4295630
880.2856, 0.4030340
880.7677, 0.3591680
881.2498, 0.2442110
881.7319, 0.1776430
882.2141, 0.4200700
882.6962, 0.8195350
883.1783, 0.8516930
883.6604, 0.5487250
884.1425, 0.3224010
884.6246, 0.3243470
885.1068, 0.3908410
885.5889, 0.3326100
886.0710, 0.1777680
886.5531, 0.1704290
887.0352, 0.3761940
887.5173, 0.5376950
887.9995, 0.6408830
888.4816, 0.6574440
888.9637, 0.5015000
889.4458, 0.2764980
889.9279, 0.2041360
890.4100, 0.3352440
890.8922, 0.4254690
891.3743, 0.4066990
891.8564, 0.3793310
892.3385, 0.4316920
892.8206, 0.4723310
893.3027, 0.3384370
893.7849, 6.9996998E-02
894.2670, 7.6899998E-02
894.7491, 8.2153000E-02
895.2312, 0.2916130
895.7133, 0.2948830
896.1954, 0.2036790
896.6776, 0.1972280
897.1597, 0.2766370
897.6418, 0.3844340
898.1239, 0.4921440
898.6060, 0.5369370
899.0881, 0.4191630
899.5703, 0.1724570
900.0524, 6.7376003E-02
900.5345, 1.9599000E-02
901.0166, 2.3696000E-02
901.4987, 6.9426000E-02
901.9808, 0.4114150
902.4630, 0.3948010
902.9451, 0.1168240
903.4272, 9.2059001E-02
903.9093, 1.6391000E-02
904.3914, 1.9605000E-02
904.8735, 0.1519270
905.3557, 0.4626910
905.8378, 0.3435900
906.3199, 7.6559000E-02
906.8020, 5.4180000E-02
907.2841, 3.5448998E-02
907.7662, 7.2520003E-02
908.2484, 0.4521440
908.7305, 0.6920110
909.2126, 0.5124280
909.6947, 0.2094410
910.1768, 1.5388000E-02
910.6589, 5.5135000E-02
911.1411, 4.3632999E-02
911.6232, 3.6157999E-02
912.1053, 0.1448970
912.5874, 0.3025650
913.0695, 0.4346800
913.5516, 0.3723980
914.0338, 0.1848320
914.5159, 0.1245350
914.9980, 0.2374810
915.4801, 0.3323190
915.9622, 0.2499760
916.4443, 7.9790004E-02
916.9265, 3.8752001E-02
917.4086, 0.1323100
917.8907, 0.2611820
918.3728, 0.4347390
918.8549, 0.4453290
919.3370, 0.1477180
919.8192, 3.5672002E-02
920.3013, 0.1957160
920.7834, 0.1334940
921.2655, 4.9075998E-02
921.7476, 0.3467990
922.2297, 0.6366510
922.7119, 0.5364740
923.1940, 0.3367990
923.6761, 0.1213780
924.1582, 5.4988001E-02
924.6403, 6.2114999E-02
925.1224, 0.1611780
925.6046, 0.3282530
926.0867, 0.3500660
926.5688, 0.3192080
927.0509, 0.2405840
927.5330, 0.1644290
928.0151, 0.1823740
928.4973, 0.2668950
928.9794, 0.2448550
929.4615, 3.9347999E-02
929.9436, 8.5515000E-02
930.4257, 1.8976999E-02
930.9078, 0.4762060
931.3900, 0.6424880
931.8721, 0.5668850
932.3542, 0.4992810
932.8363, 0.5104890
933.3184, 0.4870710
933.8005, 0.2893120
934.2827, 5.2430001E-03
934.7648, 8.5180001E-03
935.2469, 2.3340000E-02
935.7290, 3.3395998E-02
936.2111, 1.2487000E-02
936.6932, 4.9798001E-02
937.1754, 0.1925120
937.6575, 0.4764100
938.1396, 0.5448620
938.6217, 0.3819760
939.1038, 0.2004830
939.5859, 1.5030000E-02
940.0681, 8.9371003E-02
940.5502, 9.7416997E-02
941.0323, 0.4561940
941.5144, 0.5646110
941.9965, 0.4736770
942.4786, 0.4007910
942.9608, 0.3974200
943.4429, 0.3049440
943.9250, 4.9711000E-02
944.4071, 0.1851990
944.8892, 0.1333420
945.3713, 4.0488999E-02
945.8535, 0.2050800
946.3356, 0.4525990
946.8177, 0.5691350
947.2998, 0.3823690
947.7819, 0.2556890
948.2640, 0.4675160
948.7462, 0.7311310
949.2283, 0.7952870
949.7104, 0.6896620
950.1925, 0.4836480
950.6746, 0.2137780
951.1567, 3.9673999E-02
951.6389, 0.1706490
952.1210, 0.3843740
952.6031, 0.4006330
953.0852, 0.2890980
953.5673, 0.1950990
954.0494, 0.1444950
954.5316, 0.1118540
955.0137, 8.1324004E-02
955.4958, 0.1080190
955.9779, 0.3845070
956.4600, 0.7998520
956.9421, 0.6733960
957.4242, 3.2800999E-02
957.9063, 0.1384660
958.3884, 6.8337001E-02
958.8705, 0.4471350
959.3527, 0.4301810
959.8348, 0.1673020
960.3169, 0.1338390
960.7990, 0.3951390
961.2811, 0.5227320
961.7632, 0.4822280
962.2454, 0.4000870
962.7275, 0.3176550
963.2096, 0.2267030
963.6917, 0.1052150
964.1738, 3.6026001E-02
964.6559, 4.7672998E-02
965.1381, 5.5686999E-02
965.6202, 0.1727410
966.1023, 0.2725870
966.5844, 0.3437290
967.0665, 0.3492340
967.5486, 0.3410280
968.0308, 0.4112470
968.5129, 0.5724630
968.9950, 0.6550320
969.4771, 0.5751630
969.9592, 0.4540990
970.4413, 0.2168930
970.9235, 5.2882999E-02
971.4056, 0.2160250
971.8877, 0.5418290
972.3698, 0.6770860
972.8519, 0.5269550
973.3340, 0.3348480
973.8162, 0.2259900
974.2983, 0.1429930
974.7804, 2.3736000E-02
975.2625, 1.6780000E-02
975.7446, 1.8492000E-02
976.2267, 0.1764550
976.7089, 0.3513550
977.1910, 0.4425900
977.6731, 0.4572490
978.1552, 0.1661100
978.6373, 0.2698350
979.1194, 0.2163700
979.6016, 0.1591720
980.0837, 0.3184630
980.5658, 7.1781002E-02
981.0479, 0.2275690
981.5300, 0.2226910
982.0121, 0.2902530
982.4943, 0.1954260
982.9764, 0.1540240
983.4585, 0.2718900
983.9406, 0.3015610
984.4227, 0.1926380
984.9048, 0.2659570
985.3870, 1.3687000E-02
985.8691, 4.7116999E-02
986.3512, 0.2038080
986.8333, 0.1028880
987.3154, 0.1761340
987.7975, 0.1848790
988.2797, 0.1129680
988.7618, 0.1223000
989.2439, 0.1269800
989.7260, 5.8977999E-02
990.2081, 3.1610001E-03
990.6902, 0.1368880
991.1724, 0.2576700
991.6545, 0.3863730
992.1366, 0.4258760
992.6187, 0.2869570
993.1008, 0.1757440
993.5829, 0.1976870
994.0651, 0.2875290
994.5472, 0.3988470
995.0293, 0.5424000
995.5114, 0.5108140
995.9935, 2.2617999E-02
996.4756, 5.1438000E-02
996.9578, 4.2877998E-02
997.4399, 0.3574850
997.9220, 0.4944080
998.4041, 0.5092910
998.8862, 0.4293000
999.3683, 0.2576750
999.8505, 0.1505320
1000.333, 0.2110000
1000.815, 0.2577850
1001.297, 0.2018320
1001.779, 0.1172150
1002.261, 6.2043000E-02
1002.743, 4.7166999E-02
1003.225, 5.7670999E-02
1003.707, 8.7351002E-02
1004.190, 0.1372590
1004.672, 0.2239980
1005.154, 0.3184400
1005.636, 0.4636270
1006.118, 0.5625420
1006.600, 0.4389370
1007.082, 0.1715450
1007.564, 9.2610000E-03
1008.046, 4.3285001E-02
1008.529, 0.1219590
1009.011, 0.1273050
1009.493, 0.1158750
1009.975, 0.1668010
1010.457, 0.2324440
1010.939, 0.1825150
1011.421, 5.0174002E-02
1011.903, 5.6274001E-02
1012.385, 0.3138000
1012.868, 0.5613200
1013.350, 0.4210730
1013.832, 0.1297220
1014.314, 0.1672750
1014.796, 0.4309630
1015.278, 0.6197110
1015.760, 0.6660640
1016.242, 0.6189230
1016.725, 0.4552380
1017.207, 0.2969760
1017.689, 0.3899340
1018.171, 0.6362380
1018.653, 0.6203990
1019.135, 0.3965370
1019.617, 0.4358460
1020.099, 0.8260860
1020.581, 1.037981
1021.064, 0.6794250
1021.546, 0.1021850
1022.028, 2.2910000E-03
1022.510, 0.3311160
1022.992, 0.4393750
1023.474, 0.3106370
1023.956, 0.2838380
1024.438, 0.4651360
1024.921, 0.5298340
1025.403, 0.1894820
1025.885, 8.8505000E-02
1026.367, 0.1261160
1026.849, 0.1124880
1027.331, 0.4574640
1027.813, 0.6931430
1028.295, 0.7644340
1028.777, 0.6077150
1029.260, 0.4479930
1029.742, 0.4683780
1030.224, 0.6087830
1030.706, 0.7040670
1031.188, 0.7523360
1031.670, 0.7743080
1032.152, 0.7958700
1032.634, 0.6939860
1033.116, 0.3649960
1033.599, 5.1470999E-02
1034.081, 5.0710000E-02
1034.563, 1.9999999E-04
1035.045, 4.2635001E-02
1035.527, 8.6383000E-02
1036.009, 8.1710003E-02
1036.491, 7.5686000E-02
1036.973, 6.6977002E-02
1037.456, 0.3845890
1037.938, 0.7884930
1038.420, 0.6399930
1038.902, 0.1352540
1039.384, 4.9213000E-02
1039.866, 0.2404290
1040.348, 0.4211180
1040.830, 0.4312750
1041.313, 0.4195650
1041.795, 0.4001210
1042.277, 0.3989170
1042.759, 0.4644030
1043.241, 0.5554500
1043.723, 0.5111240
1044.205, 0.2288710
1044.687, 9.3359001E-02
1045.169, 0.2076010
1045.651, 0.3533330
1046.134, 0.5234820
1046.616, 0.6554490
1047.098, 0.6369250
1047.580, 0.5208670
1048.062, 0.4940560
1048.544, 0.6234540
1049.026, 0.6390460
1049.508, 0.3182850
1049.991, 0.1221720
1050.473, 0.3779140
1050.955, 0.6756210
1051.437, 0.5599770
1051.919, 0.2000760
1052.401, 3.4297001E-02
1052.883, 0.2212560
1053.365, 0.3959040
1053.848, 0.4941720
1054.330, 0.2864860
1054.812, 0.4767620
1055.294, 0.5076030
1055.776, 0.5300810
1056.258, 0.7728700
1056.740, 0.4137290
1057.222, 0.4622310
1057.704, 0.5140240
1058.187, 0.5066400
1058.669, 0.4555230
1059.151, 0.2668720
1059.633, 0.1317620
1060.115, 0.3182430
1060.597, 0.6607010
1061.079, 0.7355090
1061.561, 0.4276130
1062.043, 0.2279520
1062.526, 0.4599010
1063.008, 0.6364770
1063.490, 0.4374070
1063.972, 0.1788450
1064.454, 0.1443110
1064.936, 0.2716520
1065.418, 0.3981870
1065.900, 0.4918040
1066.383, 0.5490030
1066.865, 0.5921920
1067.347, 0.5679570
1067.829, 0.3768870
1068.311, 0.1755760
1068.793, 8.3389997E-02
1069.275, 9.0233997E-02
1069.757, 0.1756960
1070.240, 0.3299490
1070.722, 0.4589730
1071.204, 0.5766520
1071.686, 0.5910360
1072.168, 0.3847070
1072.650, 0.1285930
1073.132, 7.5878002E-02
1073.614, 7.9802997E-02
1074.096, 3.0310000E-03
1074.578, 0.1096790
1075.061, 0.1766130
1075.543, 0.3840860
1076.025, 0.5106760
1076.507, 0.5607180
1076.989, 0.3049730
1077.471, 0.4440900
1077.953, 0.4249670
1078.435, 0.3993540
1078.918, 0.5940920
1079.400, 0.6501280
1079.882, 0.7366950
1080.364, 0.7334020
1080.846, 0.5149720
1081.328, 0.1632580
1081.810, 0.3544040
1082.292, 0.4646610
1082.774, 0.4983760
1083.257, 0.2263100
1083.739, 0.3491000
1084.221, 0.3136430
1084.703, 0.2716980
1085.185, 0.4500630
1085.667, 0.2224590
1086.149, 0.3973300
1086.631, 0.4115390
1087.114, 0.5013870
1087.596, 0.4299020
1088.078, 0.4075980
1088.560, 0.5445670
1089.042, 0.5933430
1089.524, 0.5035300
1090.006, 0.5959400
1090.488, 0.3627820
1090.970, 0.4153230
1091.453, 0.5911540
1091.935, 0.5065560
1092.417, 0.6423720
1092.899, 0.6432840
1093.381, 0.5537320
1093.863, 0.3154810
1094.345, 0.1132690
1094.827, 9.8989997E-03
1095.309, 1.7258000E-02
1095.792, 0.2372870
1096.274, 0.5295430
1096.756, 0.6080170
1097.238, 0.4220150
1097.720, 0.3020840
1098.202, 0.4730940
1098.684, 0.5464130
1099.166, 0.2329150
1099.649, 6.0385998E-02
1100.131, 3.0658999E-02
1100.613, 0.2820220
1101.095, 0.3155130
1101.577, 0.1149290
1102.059, 3.6299999E-03
1102.541, 0.1479420
1103.023, 0.2415080
1103.505, 0.1772970
1103.988, 8.5514002E-02
1104.470, 2.0186000E-02
1104.952, 2.5327999E-02
1105.434, 5.6852002E-02
1105.916, 7.0508003E-02
1106.398, 7.0582002E-02
1106.880, 4.6627000E-02
1107.362, 8.7328002E-02
1107.844, 0.1508570
1108.327, 0.2773650
1108.809, 5.4364000E-02
1109.291, 8.4210001E-02
1109.773, 0.3974190
1110.255, 0.6346270
1110.737, 0.6482060
1111.219, 0.3454660
1111.701, 0.1299080
1112.184, 4.0902000E-02
1112.666, 2.2113999E-02
1113.148, 0.4935220
1113.630, 0.9290580
1114.112, 0.8134600
1114.594, 0.3970670
1115.076, 0.1057680
1115.558, 6.7449003E-02
1116.041, 2.9622000E-02
1116.523, 0.4932860
1117.005, 0.7510370
1117.487, 0.4635930
1117.969, 0.1908070
1118.451, 0.2188410
1118.933, 0.3836710
1119.415, 0.4952350
1119.897, 0.5535160
1120.380, 0.5623030
1120.862, 0.5184520
1121.344, 0.4186130
1121.826, 0.1727450
1122.308, 7.7816002E-02
1122.790, 0.3253430
1123.272, 0.6058340
1123.754, 0.6073740
1124.236, 0.4213010
1124.719, 0.3591330
1125.201, 0.4426710
1125.683, 0.5354950
1126.165, 0.4946570
1126.647, 0.7010070
1127.129, 0.8287030
1127.611, 0.8834730
1128.093, 0.6333380
1128.576, 0.7763700
1129.058, 0.6061710
1129.540, 0.7897040
1130.022, 0.8923470
1130.504, 0.9184470
1130.986, 0.6335070
1131.468, 0.7486820
1131.950, 0.7053110
1132.432, 0.6557520
1132.915, 0.8265010
1133.397, 0.5912860
1133.879, 0.7585430
1134.361, 0.7651420
1134.843, 0.8452700
1135.325, 0.5311010
1135.807, 0.4055880
1136.289, 0.3407220
1136.771, 0.3281730
1137.254, 0.2969560
1137.736, 0.1743560
1138.218, 6.9371998E-02
1138.700, 0.2274170
1139.182, 0.5587060
1139.664, 0.7913880
1140.146, 0.9174990
1140.628, 0.9260320
1141.111, 0.8273070
1141.593, 0.6721850
1142.075, 0.4847570
1142.557, 0.3241360
1143.039, 0.2950820
1143.521, 0.3043400
1144.003, 0.1782150
1144.485, 2.1643000E-02
1144.968, 5.4634001E-02
1145.450, 0.2331250
1145.932, 7.0615999E-02
1146.414, 0.2781780
1146.896, 0.7640000
1147.378, 0.8660500
1147.860, 0.7855440
1148.342, 0.5939700
1148.824, 0.4296380
1149.307, 0.5400290
1149.789, 0.7605410
1150.271, 0.7539410
1150.753, 0.5256390
1151.235, 0.3752500
1151.717, 0.4482430
1152.199, 0.4971800
1152.681, 0.2778820
1153.163, 0.1076890
1153.646, 0.2286320
1154.128, 0.4811030
1154.610, 0.7865810
1155.092, 1.050890
1155.574, 1.097760
1156.056, 0.8874540
1156.538, 0.6424530
1157.020, 0.3010520
1157.503, 0.1288000
1157.985, 0.3342470
1158.467, 0.6007990
1158.949, 0.8352160
1159.431, 0.9613360
1159.913, 0.8363840
1160.395, 0.4950750
1160.877, 0.2402980
1161.359, 9.0356000E-02
1161.842, 2.6559001E-02
1162.324, 0.1694850
1162.806, 0.2033870
1163.288, 7.9122998E-02
1163.770, 0.1067720
1164.252, 3.1129001E-02
1164.734, 1.3026000E-02
1165.216, 0.1253260
1165.698, 0.1254570
1166.181, 0.2495990
1166.663, 0.6131250
1167.145, 0.7362510
1167.627, 0.4510040
1168.109, 0.2875280
1168.591, 0.5474270
1169.073, 0.8569800
1169.555, 0.7576790
1170.037, 0.3843290
1170.520, 0.2652260
1171.002, 0.3958880
1171.484, 0.5532960
1171.966, 0.7245580
1172.448, 0.8056160
1172.930, 0.7709960
1173.412, 0.7534110
1173.894, 0.8879370
1174.377, 0.9734770
1174.859, 0.6389650
1175.341, 0.1283660
1175.823, 0.2053080
1176.305, 0.6309100
1176.787, 0.7571480
1177.269, 0.5730840
1177.751, 0.3375220
1178.234, 0.1606950
1178.716, 0.1240930
1179.198, 0.3464220
1179.680, 0.6149590
1180.162, 0.6985470
1180.644, 0.6909190
1181.126, 0.7286140
1181.608, 0.7557140
1182.090, 0.6224540
1182.573, 0.3579920
1183.055, 0.1527350
1183.537, 8.2870997E-02
1184.019, 4.0144999E-02
1184.501, 3.8534999E-02
1184.983, 9.6603997E-02
1185.465, 0.1107420
1185.947, 8.3025001E-02
1186.429, 1.9416001E-02
1186.912, 0.1461790
1187.394, 0.2030040
1187.876, 0.1839570
1188.358, 0.1809600
1188.840, 9.8041996E-02
1189.322, 0.2087930
1189.804, 0.8752400
1190.286, 1.296002
1190.769, 1.023314
1191.251, 0.5862570
1191.733, 0.4240380
1192.215, 0.4365180
1192.697, 0.3514600
1193.179, 0.1430900
1193.661, 7.3032998E-02
1194.143, 0.1856720
1194.625, 0.2540750
1195.108, 0.2091960
1195.590, 0.2956930
1196.072, 0.6725400
1196.554, 1.054439
1197.036, 1.114415
1197.518, 0.9177840
1198.000, 0.5623810
1198.482, 0.1025070
1198.964, 0.1127900
1199.447, 0.5366440
1199.929, 0.7489720
1200.411, 0.6221280
1200.893, 0.4238020
1201.375, 0.3052550
1201.857, 0.2834330
1202.339, 0.3907690
1202.821, 0.5193780
1203.304, 0.5049180
1203.786, 0.4385180
1204.268, 0.4658680
1204.750, 0.5371430
1205.232, 0.4917040
1205.714, 0.3231980
1206.196, 0.2555090
1206.678, 0.4439660
1207.161, 0.6232070
1207.643, 0.6353200
1208.125, 0.5727020
1208.607, 0.4013470
1209.089, 0.2707710
1209.571, 0.4401420
1210.053, 0.7445580
1210.535, 0.7444010
1211.017, 0.3568790
1211.500, 8.7479003E-02
1211.982, 9.3608998E-02
1212.464, 9.0012997E-02
1212.946, 5.0850999E-02
1213.428, 8.1178002E-02
1213.910, 0.1675230
1214.392, 0.4674550
1214.874, 0.5917550
1215.356, 0.6024270
1215.839, 0.7013370
1216.321, 0.9105490
1216.803, 0.9788680
1217.285, 0.8768580
1217.767, 0.8397610
1218.249, 0.9151880
1218.731, 0.9888080
1219.213, 1.012227
1219.696, 0.9256860
1220.178, 0.6153480
1220.660, 0.2673150
1221.142, 0.3982130
1221.624, 0.8296590
1222.106, 1.030834
1222.588, 0.9978800
1223.070, 0.6898950
1223.552, 0.2005860
1224.035, 1.7898001E-02
1224.517, 0.2464000
1224.999, 0.5883530
1225.481, 0.7287810
1225.963, 0.7258410
1226.445, 0.4623750
1226.927, 0.2199090
1227.409, 0.4428170
1227.891, 0.8222230
1228.374, 0.7262760
1228.856, 0.2084740
1229.338, 4.0284000E-02
1229.820, 0.6190040
1230.302, 0.8622150
1230.784, 9.3820997E-02
1231.266, 0.2070400
1231.748, 0.1216350
1232.231, 0.2429630
1232.713, 2.6270000E-03
1233.195, 0.1732900
1233.677, 6.0624000E-02
1234.159, 0.2538510
1234.641, 0.4459170
1235.123, 0.1545080
1235.605, 0.1012310
1236.088, 0.3453080
1236.570, 0.5696550
1237.052, 0.6946500
1237.534, 0.6603870
1238.016, 0.4149220
1238.498, 0.1295420
1238.980, 4.6261001E-02
1239.462, 0.1030790
1239.944, 0.1410010
1240.427, 0.1742080
1240.909, 0.2524480
1241.391, 0.3664480
1241.873, 0.5142040
1242.355, 0.6644960
1242.837, 0.6530020
1243.319, 0.3684740
1243.801, 0.1012040
1244.283, 7.2117001E-02
1244.766, 0.1415590
1245.248, 0.2169170
1245.730, 0.3259770
1246.212, 0.5657900
1246.694, 0.8279470
1247.176, 0.8892900
1247.658, 0.7540170
1248.140, 0.7219860
1248.622, 0.9952490
1249.105, 1.029399
1249.587, 0.4933870
1250.069, 0.2090860
1250.551, 0.5786790
1251.033, 0.9382310
1251.515, 0.8741280
1251.997, 0.5875870
1252.479, 0.3519800
1252.962, 0.1797900
1253.444, 0.1625310
1253.926, 0.2970450
1254.408, 0.4565470
1254.890, 0.6198930
1255.372, 0.5415990
1255.854, 0.1987320
1256.336, 4.1531000E-02
1256.818, 3.6162000E-02
1257.301, 0.2302870
1257.783, 0.4028310
1258.265, 0.4687210
1258.747, 0.1469870
1259.229, 4.0401999E-02
1259.711, 9.9290997E-02
1260.193, 0.1745840
1260.675, 0.2627730
1261.157, 3.9485000E-02
1261.640, 2.9136000E-02
1262.122, 0.4654480
1262.604, 0.7384430
1263.086, 0.5034340
1263.568, 0.2936010
1264.050, 0.2386550
1264.532, 0.3033470
1265.014, 0.5515570
1265.497, 0.8259180
1265.979, 0.9725400
1266.461, 0.9871040
1266.943, 0.8145450
1267.425, 0.3955220
1267.907, 0.2672700
1268.389, 0.4578460
1268.871, 0.6814900
1269.354, 0.8914910
1269.836, 0.8285420
1270.318, 0.3684050
1270.800, 1.8091001E-02
1271.282, 0.1590070
1271.764, 0.5581500
1272.246, 0.7343340
1272.728, 0.7569410
1273.210, 0.6524270
1273.693, 0.6334140
1274.175, 0.5638780
1274.657, 0.4643690
1275.139, 0.3739380
1275.621, 0.3063710
1276.103, 0.3003480
1276.585, 0.4027080
1277.067, 0.5175440
1277.549, 0.6689750
1278.032, 0.7562210
1278.514, 0.6963100
1278.996, 0.5714030
1279.478, 0.4588340
1279.960, 0.3731480
1280.442, 0.3674490
1280.924, 0.4347370
1281.406, 0.4788430
1281.889, 0.5120630
1282.371, 0.3851650
1282.853, 7.4010000E-02
1283.335, 1.3248000E-02
1283.817, 0.1005670
1284.299, 0.2786880
1284.781, 0.3155880
1285.263, 0.1438360
1285.745, 5.0884001E-02
1286.228, 0.0000000E+00
##END=



