##NAMES=Perryite
##RRUFFID=R070052
##IDEAL CHEMISTRY=(Ni,Fe)_8_(Si,P)_3_
##LOCALITY=Mount Egerton meteorite, Gaskoyne River, Western Australia, Australia
##OWNER=RRUFF
##SOURCE=Michael Scott
##DESCRIPTION=Gray metallic polished fragment embedded in epoxy
##STATUS=The identification of this mineral is not yet confirmed.
##URL=rruff.info/R070052
157.4688, 0.0000000E+00
157.9509, 20.78644
158.4330, 0.1547850
158.9152, 3.977966
159.3973, 21.48022
159.8794, 29.87732
160.3615, 28.30933
160.8436, 23.03455
161.3257, 19.80719
161.8079, 23.96417
162.2900, 23.71832
162.7721, 16.42694
163.2542, 10.19672
163.7363, 8.315674
164.2184, 13.12866
164.7006, 19.96265
165.1827, 21.86810
165.6648, 16.39917
166.1469, 16.27808
166.6290, 30.42712
167.1111, 45.71387
167.5933, 52.71851
168.0754, 49.82855
168.5575, 44.94409
169.0396, 48.91400
169.5217, 64.02954
170.0038, 83.21033
170.4860, 100.9444
170.9681, 110.0321
171.4502, 114.9159
171.9323, 117.7469
172.4144, 117.7892
172.8965, 113.1383
173.3787, 101.6082
173.8608, 92.30701
174.3429, 86.03540
174.8250, 81.85751
175.3071, 80.09088
175.7892, 80.43011
176.2714, 80.98483
176.7535, 79.00739
177.2356, 74.74927
177.7177, 67.29959
178.1998, 53.84723
178.6819, 40.01309
179.1641, 27.78656
179.6462, 19.23117
180.1283, 13.06006
180.6104, 8.160248
181.0925, 6.991425
181.5746, 4.076416
182.0567, 3.259247
182.5389, 9.216919
183.0210, 10.82501
183.5031, 7.059937
183.9852, 0.3536070
184.4673, 9.115265
184.9494, 19.22034
185.4316, 27.81625
185.9137, 31.08838
186.3958, 33.02396
186.8779, 37.43985
187.3600, 45.28659
187.8421, 53.86926
188.3243, 59.58246
188.8064, 62.68542
189.2885, 62.35965
189.7706, 56.31891
190.2527, 49.35574
190.7348, 43.74750
191.2170, 40.15228
191.6991, 38.68633
192.1812, 39.76199
192.6633, 44.12396
193.1454, 48.85461
193.6275, 56.93814
194.1097, 63.61858
194.5918, 65.62917
195.0739, 62.99544
195.5560, 57.83922
196.0381, 52.30231
196.5202, 46.47025
197.0024, 39.80194
197.4845, 31.23917
197.9666, 22.77359
198.4487, 14.22296
198.9308, 6.326324
199.4129, 1.637344
199.8951, 3.059799
200.3772, 12.38133
200.8593, 17.36005
201.3414, 14.12018
201.8235, 11.06970
202.3056, 14.16193
202.7878, 21.97496
203.2699, 27.54364
203.7520, 24.05997
204.2341, 9.691116
204.7162, 2.821899
205.1983, 10.55016
205.6805, 17.76353
206.1626, 17.08603
206.6447, 10.21385
207.1268, 3.550995
207.6089, 2.489120
208.0910, 7.026306
208.5732, 9.159180
209.0553, 7.988525
209.5374, 5.957794
210.0195, 2.749191
210.5016, 0.8796390
210.9837, 3.133301
211.4659, 2.466446
211.9480, 0.7136230
212.4301, 1.701019
212.9122, 2.887695
213.3943, 5.744232
213.8764, 3.766815
214.3586, 1.200516
214.8407, 6.140732
215.3228, 12.47174
215.8049, 16.48572
216.2870, 16.41866
216.7691, 6.975525
217.2513, 0.3589170
217.7334, 0.8690800
218.2155, 1.738113
218.6976, 6.492416
219.1797, 12.75056
219.6618, 19.68248
220.1440, 24.54926
220.6261, 26.06810
221.1082, 26.90256
221.5903, 27.04880
222.0724, 26.76221
222.5546, 26.16623
223.0367, 25.26363
223.5188, 24.23488
224.0009, 23.62238
224.4830, 24.17075
224.9651, 24.39781
225.4473, 24.82565
225.9294, 24.58818
226.4115, 21.72028
226.8936, 16.05659
227.3757, 10.91429
227.8578, 12.09950
228.3400, 26.60182
228.8221, 33.76855
229.3042, 28.01846
229.7863, 19.47109
230.2684, 15.39230
230.7505, 17.06444
231.2327, 20.98068
231.7148, 22.78062
232.1969, 21.70631
232.6790, 20.83115
233.1611, 18.53040
233.6432, 17.66904
234.1254, 21.49890
234.6075, 29.08245
235.0896, 35.82569
235.5717, 36.99995
236.0538, 31.56879
236.5359, 27.31010
237.0181, 23.28558
237.5002, 21.05652
237.9823, 21.61996
238.4644, 24.59656
238.9465, 29.49846
239.4286, 36.42557
239.9108, 44.89606
240.3929, 47.33852
240.8750, 37.57806
241.3571, 29.19299
241.8392, 25.98402
242.3213, 26.47381
242.8035, 28.24501
243.2856, 30.03748
243.7677, 31.52198
244.2498, 31.12382
244.7319, 25.34026
245.2140, 21.87639
245.6962, 23.25437
246.1783, 26.90110
246.6604, 29.71094
247.1425, 30.25662
247.6246, 29.48685
248.1067, 30.00284
248.5889, 33.53918
249.0710, 35.48887
249.5531, 32.73273
250.0352, 29.94962
250.5173, 32.01927
250.9994, 40.12743
251.4816, 50.36879
251.9637, 56.74748
252.4458, 58.39738
252.9279, 57.85847
253.4100, 53.77708
253.8921, 48.91618
254.3743, 44.43947
254.8564, 40.71718
255.3385, 38.08030
255.8206, 37.73333
256.3027, 40.78600
256.7849, 40.13376
257.2670, 29.37633
257.7491, 20.47192
258.2312, 19.15311
258.7133, 24.16400
259.1954, 30.85221
259.6776, 36.38770
260.1597, 40.72269
260.6418, 41.56540
261.1239, 35.40358
261.6060, 29.70456
262.0881, 26.42464
262.5703, 25.38015
263.0524, 26.45992
263.5345, 30.16973
264.0166, 35.19411
264.4987, 37.12862
264.9808, 33.87374
265.4630, 31.80086
265.9451, 34.16806
266.4272, 37.91141
266.9093, 40.24705
267.3914, 39.91187
267.8735, 38.47528
268.3557, 38.79065
268.8378, 41.59266
269.3199, 42.93297
269.8020, 39.93348
270.2841, 35.89609
270.7662, 32.98481
271.2484, 31.66199
271.7305, 31.22335
272.2126, 30.73694
272.6947, 30.04237
273.1768, 30.13103
273.6589, 31.87120
274.1411, 33.76064
274.6232, 35.47607
275.1053, 36.83798
275.5874, 35.85139
276.0695, 27.49516
276.5516, 15.33793
277.0338, 13.36208
277.5159, 27.08817
277.9980, 42.39912
278.4801, 48.29965
278.9622, 47.14282
279.4443, 44.69001
279.9265, 42.42352
280.4086, 40.25922
280.8907, 37.77205
281.3728, 34.79541
281.8549, 32.82780
282.3370, 33.85852
282.8192, 36.43345
283.3013, 37.09976
283.7834, 34.44926
284.2655, 30.90166
284.7476, 28.53714
285.2297, 27.08847
285.7119, 24.56689
286.1940, 19.01255
286.6761, 13.00831
287.1582, 12.42604
287.6403, 19.66499
288.1224, 25.98306
288.6046, 27.41954
289.0867, 25.55238
289.5688, 22.91536
290.0509, 19.91368
290.5330, 17.67914
291.0151, 18.56980
291.4973, 23.70033
291.9794, 26.37737
292.4615, 24.11670
292.9436, 19.99018
293.4257, 16.51428
293.9078, 14.13087
294.3900, 12.87957
294.8721, 13.05578
295.3542, 14.87040
295.8363, 15.67133
296.3184, 13.68666
296.8005, 12.47430
297.2827, 15.66889
297.7648, 21.43810
298.2469, 23.79560
298.7290, 18.33563
299.2111, 6.963760
299.6932, 1.197495
300.1754, 4.900040
300.6575, 9.457237
301.1396, 14.38376
301.6217, 19.13120
302.1038, 23.68044
302.5859, 27.95201
303.0681, 30.66754
303.5501, 28.87729
304.0323, 17.47462
304.5144, 10.38629
304.9965, 9.529160
305.4786, 11.11535
305.9607, 13.32758
306.4428, 15.52789
306.9250, 17.23002
307.4071, 17.97338
307.8892, 17.98048
308.3713, 16.83440
308.8534, 12.22137
309.3355, 8.804634
309.8177, 8.551933
310.2998, 10.64564
310.7819, 13.19509
311.2640, 14.53545
311.7461, 15.29507
312.2282, 18.92892
312.7104, 28.64568
313.1925, 35.12302
313.6746, 33.34683
314.1567, 28.52366
314.6388, 26.67140
315.1209, 30.18300
315.6031, 34.47649
316.0852, 32.18960
316.5673, 22.19594
317.0494, 15.11530
317.5315, 15.71572
318.0136, 18.36514
318.4958, 18.47651
318.9779, 15.83346
319.4600, 13.55522
319.9421, 14.64752
320.4242, 17.96700
320.9063, 19.50771
321.3885, 18.97803
321.8706, 16.31988
322.3527, 7.765106
322.8348, 3.666229
323.3169, 8.196007
323.7990, 3.709518
324.2812, 19.88440
324.7633, 26.33997
325.2454, 23.06358
325.7275, 17.52022
326.2096, 12.79446
326.6917, 9.182327
327.1739, 7.025833
327.6560, 5.840286
328.1381, 6.737480
328.6202, 13.69122
329.1023, 22.78255
329.5844, 24.70532
330.0666, 15.59362
330.5487, 2.158577
331.0308, 4.946335
331.5129, 3.991142
331.9950, 1.263573
332.4771, 5.033936
332.9593, 11.54081
333.4414, 15.19214
333.9235, 16.07641
334.4056, 15.90398
334.8877, 16.83475
335.3698, 19.12336
335.8520, 19.26249
336.3341, 13.97236
336.8162, 10.31889
337.2983, 12.30023
337.7804, 17.13807
338.2625, 19.69635
338.7447, 17.25032
339.2268, 12.37513
339.7089, 12.62149
340.1910, 24.19106
340.6731, 30.92497
341.1552, 28.42363
341.6374, 22.97124
342.1195, 18.60793
342.6016, 16.29331
343.0837, 15.23421
343.5658, 14.78098
344.0479, 14.99055
344.5301, 15.15343
345.0122, 15.47870
345.4943, 15.64722
345.9764, 15.22768
346.4585, 14.36959
346.9406, 13.75801
347.4228, 14.29100
347.9049, 15.17403
348.3870, 14.44250
348.8691, 11.66927
349.3512, 8.997986
349.8333, 6.430626
350.3155, 4.904343
350.7976, 6.264275
351.2797, 11.82523
351.7618, 16.42217
352.2439, 15.06603
352.7260, 9.207436
353.2082, 4.158386
353.6903, 0.4900820
354.1724, 0.6533740
354.6545, 4.278877
355.1366, 14.81071
355.6187, 22.37729
356.1009, 23.12501
356.5830, 21.32542
357.0651, 21.67824
357.5472, 24.19638
358.0293, 25.08569
358.5114, 21.05279
358.9936, 13.08171
359.4757, 8.993187
359.9578, 10.40612
360.4399, 13.03493
360.9220, 17.05597
361.4041, 21.16752
361.8863, 23.38390
362.3684, 23.03870
362.8505, 20.87549
363.3326, 18.47086
363.8147, 16.38795
364.2968, 12.66374
364.7790, 2.820953
365.2611, 4.714279
365.7432, 2.236214
366.2253, 7.904915
366.7074, 16.11713
367.1895, 14.20434
367.6717, 3.486351
368.1538, 3.366997
368.6359, 4.204765
369.1180, 4.000320
369.6001, 4.480682
370.0822, 4.575546
370.5644, 2.536469
371.0465, 2.428719
371.5286, 7.809586
372.0107, 9.649323
372.4928, 7.603058
372.9749, 7.303261
373.4571, 11.31927
373.9392, 15.82272
374.4213, 17.94600
374.9034, 17.83271
375.3855, 16.80804
375.8676, 13.90149
376.3498, 11.03715
376.8319, 12.56683
377.3140, 19.16673
377.7961, 25.00140
378.2782, 25.72513
378.7603, 22.84681
379.2425, 22.15057
379.7246, 26.76499
380.2067, 29.36163
380.6888, 24.15948
381.1709, 14.51542
381.6530, 7.529022
382.1352, 5.067635
382.6173, 5.910530
383.0994, 8.747215
383.5815, 15.02648
384.0636, 19.01993
384.5457, 20.05988
385.0279, 19.43436
385.5100, 16.60102
385.9921, 12.61798
386.4742, 10.31960
386.9563, 11.88423
387.4384, 16.62517
387.9206, 20.32440
388.4027, 24.05645
388.8848, 24.87500
389.3669, 21.35456
389.8490, 15.79720
390.3311, 8.959236
390.8133, 1.419777
391.2954, 3.678368
391.7775, 0.3516310
392.2596, 12.46380
392.7417, 19.10460
393.2238, 14.97365
393.7060, 8.678215
394.1881, 3.047249
394.6702, 0.6140820
395.1523, 0.3330990
395.6344, 10.32944
396.1165, 21.45044
396.5987, 19.49970
397.0808, 3.994164
397.5629, 7.698586
398.0450, 7.352180
398.5271, 0.1467820
399.0092, 6.627136
399.4914, 12.64053
399.9735, 15.71493
400.4556, 13.11755
400.9377, 7.754005
401.4198, 3.464958
401.9019, 0.8875890
402.3841, 0.6187590
402.8662, 1.788109
403.3483, 2.624069
403.8304, 1.153320
404.3125, 6.234085
404.7946, 11.65926
405.2768, 10.46516
405.7589, 5.904640
406.2410, 3.498672
406.7231, 5.575653
407.2052, 9.824440
407.6873, 11.78822
408.1695, 10.00919
408.6516, 9.289848
409.1337, 10.40177
409.6158, 11.88491
410.0979, 13.28709
410.5800, 14.41409
411.0622, 14.99389
411.5443, 14.77455
412.0264, 13.88370
412.5085, 12.70664
412.9906, 10.99152
413.4727, 9.572868
413.9549, 7.824547
414.4370, 7.045013
414.9191, 9.584953
415.4012, 16.58427
415.8833, 22.16411
416.3654, 20.31287
416.8476, 14.03912
417.3297, 12.36925
417.8118, 17.82483
418.2939, 22.83057
418.7760, 19.03106
419.2581, 7.009308
419.7403, 0.3273620
420.2224, 2.806923
420.7045, 7.452766
421.1866, 11.49393
421.6687, 14.80367
422.1508, 17.58755
422.6330, 19.98810
423.1151, 21.23485
423.5972, 20.43186
424.0793, 15.90057
424.5614, 12.57204
425.0435, 10.71941
425.5257, 9.687370
426.0078, 9.341080
426.4899, 9.512665
426.9720, 9.519592
427.4541, 8.731621
427.9362, 7.426689
428.4184, 6.609055
428.9005, 5.837128
429.3826, 6.564171
429.8647, 11.35676
430.3468, 16.55269
430.8289, 18.43927
431.3111, 16.36633
431.7932, 14.23468
432.2753, 16.37720
432.7574, 20.81280
433.2395, 20.54236
433.7216, 13.60531
434.2038, 7.086609
434.6859, 7.545883
435.1680, 13.03502
435.6501, 14.69502
436.1322, 7.248276
436.6143, 0.9089200
437.0965, 1.969757
437.5786, 7.486389
438.0607, 11.65379
438.5428, 12.57768
439.0249, 12.73789
439.5070, 16.04816
439.9892, 24.56226
440.4713, 28.90652
440.9534, 26.62361
441.4355, 23.24455
441.9176, 21.18042
442.3997, 20.02943
442.8819, 18.30042
443.3640, 15.07660
443.8461, 11.35545
444.3282, 9.242325
444.8103, 8.485840
445.2924, 10.22467
445.7746, 19.76683
446.2567, 27.91573
446.7388, 27.31076
447.2209, 18.73872
447.7030, 10.45511
448.1852, 6.526291
448.6673, 6.156052
449.1494, 9.076599
449.6315, 16.20150
450.1136, 21.11579
450.5957, 19.80293
451.0779, 13.86127
451.5600, 6.728935
452.0421, 4.512474
452.5242, 10.64753
453.0063, 4.233742
453.4884, 6.381035
453.9706, 11.30932
454.4527, 9.368591
454.9348, 5.463028
455.4169, 3.285713
455.8990, 3.284424
456.3811, 3.995659
456.8633, 6.292412
457.3454, 7.440910
457.8275, 5.462349
458.3096, 2.894302
458.7917, 2.666077
459.2738, 5.503220
459.7560, 9.505913
460.2381, 12.71355
460.7202, 15.14655
461.2023, 16.84496
461.6844, 17.24389
462.1665, 18.25483
462.6487, 23.30356
463.1308, 29.17856
463.6129, 29.17632
464.0950, 18.10938
464.5771, 6.527573
465.0592, 3.933350
465.5414, 7.906494
466.0235, 10.98089
466.5056, 11.11821
466.9877, 9.956093
467.4698, 9.293747
467.9519, 9.201111
468.4341, 9.341835
468.9162, 9.797150
469.3983, 10.39621
469.8804, 11.39815
470.3625, 12.42244
470.8446, 12.68733
471.3268, 11.80306
471.8089, 10.39314
472.2910, 9.932953
472.7731, 10.93784
473.2552, 11.60868
473.7373, 11.34443
474.2195, 10.46674
474.7016, 9.162666
475.1837, 7.853676
475.6658, 6.832382
476.1479, 5.767265
476.6300, 5.667534
477.1122, 9.244141
477.5943, 16.29176
478.0764, 20.64682
478.5585, 19.23167
479.0406, 15.58575
479.5227, 15.21515
480.0049, 18.40395
480.4870, 18.90317
480.9691, 12.92690
481.4512, 5.913063
481.9333, 1.698708
482.4154, 0.2365190
482.8976, 0.4676360
483.3797, 1.898125
483.8618, 4.334999
484.3439, 7.383621
484.8260, 11.65411
485.3081, 15.38142
485.7903, 20.04965
486.2724, 22.91892
486.7545, 20.61713
487.2366, 14.82203
487.7187, 11.01203
488.2008, 13.65626
488.6830, 19.26714
489.1651, 19.13754
489.6472, 12.21871
490.1293, 7.430916
490.6114, 8.215492
491.0935, 11.95708
491.5757, 16.10871
492.0578, 20.74034
492.5399, 23.51794
493.0220, 22.74872
493.5041, 20.36909
493.9862, 17.67704
494.4684, 15.01076
494.9505, 13.57918
495.4326, 14.22829
495.9147, 15.87817
496.3968, 15.54052
496.8789, 10.58835
497.3611, 7.810394
497.8432, 8.806786
498.3253, 10.49566
498.8074, 9.404663
499.2895, 6.990410
499.7716, 8.851326
500.2538, 20.38889
500.7359, 35.98327
501.2180, 39.44881
501.7001, 27.88374
502.1822, 18.81110
502.6643, 17.49403
503.1465, 20.32272
503.6286, 24.50719
504.1107, 29.92061
504.5928, 33.64268
505.0749, 36.37981
505.5570, 35.72619
506.0392, 25.94782
506.5213, 9.345886
507.0034, 3.021759
507.4855, 5.487495
507.9676, 1.303909
508.4497, 2.757149
508.9319, 7.449760
509.4140, 10.35351
509.8961, 10.55238
510.3782, 9.233719
510.8603, 6.591537
511.3424, 3.741951
511.8246, 3.142082
512.3067, 6.780846
512.7888, 12.29912
513.2709, 14.61282
513.7531, 13.23818
514.2352, 12.33487
514.7173, 13.65186
515.1994, 14.65958
515.6815, 12.52762
516.1636, 7.864067
516.6458, 4.340294
517.1279, 3.112404
517.6100, 3.421196
518.0921, 5.676590
518.5742, 9.017296
519.0563, 10.54296
519.5385, 8.949577
520.0206, 7.190567
520.5027, 9.126060
520.9848, 17.81667
521.4669, 20.89287
521.9490, 12.63386
522.4312, 5.542076
522.9133, 5.116302
523.3954, 9.207924
523.8775, 14.49377
524.3596, 19.74303
524.8417, 23.70129
525.3239, 24.32538
525.8060, 22.16276
526.2881, 18.90244
526.7702, 14.20264
527.2523, 9.465492
527.7344, 4.747780
528.2166, 0.9987410
528.6987, 0.3122100
529.1808, 7.491745
529.6629, 12.48875
530.1450, 6.635590
530.6271, 3.709099
531.1093, 7.463089
531.5914, 2.428406
532.0735, 5.069267
532.5556, 8.375595
533.0377, 7.463181
533.5198, 8.781448
534.0020, 15.96352
534.4841, 20.73481
534.9662, 20.05000
535.4483, 17.15227
535.9304, 14.84105
536.4125, 13.79790
536.8947, 14.02335
537.3768, 16.51479
537.8589, 20.21442
538.3410, 21.92822
538.8231, 21.41582
539.3052, 19.78297
539.7874, 16.52417
540.2695, 13.16649
540.7516, 14.17279
541.2337, 22.73177
541.7158, 26.86594
542.1979, 19.77438
542.6801, 10.63807
543.1622, 8.036461
543.6443, 10.96578
544.1264, 12.54357
544.6085, 8.244293
545.0906, 1.085335
545.5728, 1.1147000E-02
546.0549, 7.575806
546.5370, 13.30070
547.0191, 15.48979
547.5012, 15.66794
547.9833, 13.17783
548.4655, 9.197800
548.9476, 7.588005
549.4297, 12.16518
549.9117, 17.24340
550.3939, 15.57457
550.8760, 9.279213
551.3581, 5.895874
551.8402, 7.664474
552.3223, 12.85052
552.8044, 20.68443
553.2866, 32.38287
553.7687, 35.65968
554.2508, 22.05042
554.7329, 11.18427
555.2150, 11.69758
555.6971, 16.97098
556.1793, 17.77773
556.6614, 12.07663
557.1435, 6.518066
557.6256, 10.04077
558.1077, 20.75312
558.5898, 24.32233
559.0720, 18.31877
559.5541, 13.19467
560.0362, 15.80431
560.5183, 21.62259
561.0004, 21.43623
561.4825, 12.52862
561.9647, 6.788071
562.4468, 11.03989
562.9289, 17.87847
563.4110, 19.85955
563.8931, 17.46237
564.3752, 15.34096
564.8574, 16.04665
565.3395, 18.21088
565.8216, 18.52731
566.3037, 16.28495
566.7858, 13.52988
567.2679, 8.349487
567.7501, 4.684677
568.2322, 5.978348
568.7143, 10.27457
569.1964, 12.47728
569.6785, 9.453041
570.1606, 6.012276
570.6428, 6.940041
571.1249, 11.21762
571.6070, 16.76977
572.0891, 23.37077
572.5712, 27.37446
573.0533, 24.31703
573.5355, 14.59547
574.0176, 10.38568
574.4997, 17.26125
574.9818, 22.21046
575.4639, 23.76182
575.9460, 22.10226
576.4282, 14.42995
576.9103, 2.484192
577.3924, 4.565521
577.8745, 3.982742
578.3566, 21.07105
578.8387, 26.11160
579.3209, 18.02010
579.8030, 9.433502
580.2851, 4.108574
580.7672, 0.7955400
581.2493, 2.837563
581.7314, 7.140984
582.2136, 7.203712
582.6957, 2.187012
583.1778, 11.46836
583.6599, 15.79646
584.1420, 15.83799
584.6241, 11.73429
585.1063, 3.986488
585.5884, 2.476608
586.0705, 0.1983410
586.5526, 12.53964
587.0347, 21.07581
587.5168, 25.55953
587.9990, 26.42963
588.4811, 19.41085
588.9632, 10.53815
589.4453, 8.877136
589.9274, 16.45916
590.4095, 22.06598
590.8917, 17.73450
591.3738, 10.20246
591.8559, 7.605469
592.3380, 9.715012
592.8201, 12.59495
593.3022, 14.12791
593.7844, 14.47124
594.2665, 13.47481
594.7486, 9.489647
595.2307, 8.319191
595.7128, 13.33674
596.1949, 17.82923
596.6771, 18.45208
597.1592, 16.86918
597.6413, 16.65561
598.1234, 19.13165
598.6055, 21.18265
599.0876, 20.40820
599.5698, 17.40862
600.0519, 12.17568
600.5340, 4.799789
601.0161, 1.271286
601.4982, 7.002304
601.9803, 18.86964
602.4625, 24.25022
602.9446, 15.21588
603.4267, 10.99110
603.9088, 15.71088
604.3909, 21.96592
604.8730, 26.24892
605.3552, 27.97128
605.8373, 26.46952
606.3194, 20.26575
606.8015, 13.84483
607.2836, 15.12158
607.7657, 22.59032
608.2479, 25.80973
608.7300, 22.14801
609.2121, 17.15578
609.6942, 14.83234
610.1763, 15.11300
610.6584, 17.23923
611.1406, 24.87996
611.6227, 29.28229
612.1048, 26.55032
612.5869, 21.68224
613.0690, 18.99875
613.5511, 18.57057
614.0333, 17.86668
614.5154, 14.75410
614.9975, 11.16553
615.4796, 12.13416
615.9617, 17.82040
616.4438, 21.08445
616.9260, 19.73971
617.4081, 16.80908
617.8902, 14.56238
618.3723, 13.04989
618.8544, 12.61512
619.3365, 14.80996
619.8187, 16.20853
620.3008, 14.43102
620.7829, 12.00084
621.2650, 12.23329
621.7471, 15.12386
622.2292, 17.72095
622.7114, 17.50866
623.1935, 15.55170
623.6756, 15.44010
624.1577, 17.65525
624.6398, 18.45443
625.1219, 15.99535
625.6041, 13.11620
626.0862, 13.41277
626.5683, 16.11687
627.0504, 16.60519
627.5325, 11.70515
628.0146, 7.400696
628.4968, 6.368835
628.9789, 7.462555
629.4610, 9.956779
629.9431, 13.20723
630.4252, 15.28662
630.9073, 14.26443
631.3895, 10.86552
631.8716, 7.326202
632.3537, 2.873756
632.8358, 1.747009
633.3179, 6.723557
633.8000, 13.43166
634.2822, 18.70947
634.7643, 22.43063
635.2464, 23.16254
635.7285, 18.23388
636.2106, 14.09361
636.6927, 16.07316
637.1749, 20.19511
637.6570, 19.87357
638.1391, 14.56704
638.6212, 9.988358
639.1033, 11.47585
639.5854, 16.97085
640.0676, 17.17046
640.5497, 10.38142
641.0318, 6.846825
641.5139, 11.09562
641.9960, 17.08142
642.4781, 19.66947
642.9603, 19.67793
643.4424, 18.40067
643.9245, 16.95630
644.4066, 15.03741
644.8887, 12.52503
645.3708, 9.418556
645.8530, 5.105690
646.3351, 0.1091690
646.8172, 4.501526
647.2993, 6.806519
647.7814, 6.805061
648.2635, 2.859192
648.7457, 7.061630
649.2278, 12.18324
649.7099, 5.357170
650.1920, 0.9101030
650.6741, 7.308006
651.1563, 25.61012
651.6384, 36.63368
652.1205, 32.83504
652.6026, 26.76616
653.0847, 24.18159
653.5668, 22.19167
654.0490, 15.65656
654.5311, 5.231911
655.0132, 2.474869
655.4953, 2.329247
655.9774, 3.071815
656.4595, 6.824562
656.9417, 8.754128
657.4238, 10.29347
657.9059, 11.55595
658.3880, 12.56586
658.8701, 13.43919
659.3522, 14.09714
659.8344, 14.01942
660.3165, 13.31197
660.7986, 11.77962
661.2807, 6.751686
661.7628, 2.442032
662.2449, 4.971176
662.7271, 12.62037
663.2092, 17.46213
663.6913, 14.34695
664.1734, 7.657951
664.6555, 6.650932
665.1376, 11.53188
665.6198, 12.74072
666.1019, 7.580124
666.5840, 2.652466
667.0661, 2.841423
667.5482, 6.599274
668.0303, 8.733589
668.5125, 8.139793
668.9946, 8.173302
669.4767, 10.56929
669.9588, 12.85529
670.4409, 12.62469
670.9230, 10.79317
671.4052, 9.822670
671.8873, 10.86486
672.3694, 12.69838
672.8515, 14.03904
673.3336, 14.81441
673.8157, 14.51879
674.2979, 13.06399
674.7800, 10.55350
675.2621, 5.975334
675.7442, 1.395210
676.2263, 1.535545
676.7084, 8.342400
677.1906, 14.80954
677.6727, 22.84631
678.1548, 28.34402
678.6369, 28.43737
679.1190, 25.04836
679.6011, 20.33498
680.0833, 15.08165
680.5654, 11.32945
681.0475, 11.96018
681.5296, 15.11496
682.0117, 16.69507
682.4938, 16.63490
682.9760, 15.69478
683.4581, 13.98310
683.9402, 12.23996
684.4223, 11.61157
684.9044, 12.34800
685.3865, 12.38643
685.8687, 12.19141
686.3508, 10.68284
686.8329, 5.356514
687.3150, 9.8334998E-02
687.7971, 0.9615330
688.2792, 2.262016
688.7614, 6.187813
689.2435, 8.928871
689.7256, 11.37499
690.2077, 15.93247
690.6898, 20.94543
691.1719, 20.85984
691.6541, 14.50520
692.1362, 7.229034
692.6183, 3.991173
693.1004, 4.307587
693.5825, 4.821304
694.0646, 5.203545
694.5468, 6.559082
695.0289, 10.18658
695.5110, 13.77515
695.9931, 16.24189
696.4752, 17.48667
696.9573, 17.17979
697.4395, 13.83517
697.9216, 11.38435
698.4037, 14.65585
698.8858, 18.27732
699.3679, 12.68468
699.8500, 0.1377260
700.3322, 6.360588
700.8143, 1.260170
701.2964, 15.31518
701.7785, 21.08581
702.2606, 18.22022
702.7427, 15.30421
703.2249, 13.08179
703.7070, 10.30985
704.1891, 4.961014
704.6712, 1.051575
705.1533, 2.521599
705.6354, 2.239632
706.1176, 6.345642
706.5997, 8.883804
707.0818, 10.20621
707.5639, 9.016151
708.0460, 7.343445
708.5281, 9.527885
709.0103, 16.34985
709.4924, 22.31940
709.9745, 21.27238
710.4566, 15.83961
710.9387, 12.36018
711.4208, 10.78851
711.9030, 9.888290
712.3851, 9.395622
712.8672, 8.567863
713.3493, 6.728127
713.8314, 3.980438
714.3135, 2.145714
714.7957, 0.9745330
715.2778, 7.0862003E-02
715.7599, 13.01308
716.2420, 24.69616
716.7241, 22.39125
717.2062, 8.825005
717.6884, 1.731926
718.1705, 3.091370
718.6526, 0.5258410
719.1347, 4.082832
719.6168, 8.999275
720.0989, 11.03439
720.5811, 10.02631
721.0632, 7.834335
721.5453, 5.522949
722.0274, 3.465248
722.5095, 2.555145
722.9916, 2.875954
723.4738, 3.928749
723.9559, 6.488899
724.4380, 8.388641
724.9201, 7.238968
725.4022, 4.919296
725.8843, 5.450790
726.3665, 9.770454
726.8486, 13.37179
727.3307, 16.77709
727.8128, 17.86526
728.2949, 13.15431
728.7770, 6.176018
729.2592, 1.975090
729.7413, 1.993935
730.2234, 4.991837
730.7055, 12.68521
731.1876, 21.29747
731.6697, 20.21450
732.1519, 10.69858
732.6340, 5.405724
733.1161, 8.362732
733.5982, 13.31692
734.0803, 13.64415
734.5624, 9.950546
735.0446, 10.33300
735.5267, 19.15112
736.0088, 24.58500
736.4909, 24.17995
736.9730, 21.18697
737.4551, 15.86304
737.9373, 9.623268
738.4194, 5.763870
738.9015, 5.519623
739.3836, 6.943832
739.8657, 10.34937
740.3478, 13.92819
740.8300, 15.01416
741.3121, 14.24928
741.7942, 14.70338
742.2763, 17.85119
742.7584, 21.49018
743.2405, 24.29248
743.7227, 26.40926
744.2048, 23.34242
744.6869, 13.76785
745.1690, 5.950722
745.6511, 2.910606
746.1332, 3.562454
746.6154, 7.196182
747.0975, 14.49509
747.5796, 18.65767
748.0617, 18.66083
748.5438, 17.00369
749.0259, 11.75851
749.5081, 6.941002
749.9902, 7.331764
750.4723, 11.90981
750.9544, 14.72811
751.4365, 11.46532
751.9186, 7.792809
752.4008, 11.47582
752.8829, 18.27716
753.3650, 18.73145
753.8471, 12.90685
754.3292, 9.748268
754.8113, 15.06712
755.2935, 23.48738
755.7756, 23.17963
756.2577, 12.86788
756.7398, 7.005325
757.2219, 7.339172
757.7040, 8.703247
758.1862, 8.460526
758.6683, 8.256981
759.1504, 9.314163
759.6325, 11.41163
760.1146, 13.99889
760.5967, 19.93624
761.0789, 22.87450
761.5610, 17.19857
762.0431, 9.350037
762.5252, 6.955063
763.0073, 10.02435
763.4894, 12.61995
763.9716, 10.13161
764.4537, 7.028992
764.9358, 9.944054
765.4179, 16.07671
765.9000, 18.14392
766.3821, 15.35432
766.8643, 11.46120
767.3464, 8.595688
767.8285, 7.364746
768.3106, 10.07922
768.7927, 18.00818
769.2748, 21.64111
769.7570, 19.09344
770.2391, 15.53046
770.7212, 12.59557
771.2033, 10.46506
771.6854, 9.388725
772.1675, 9.369461
772.6497, 10.18678
773.1318, 12.37998
773.6139, 14.75905
774.0960, 18.34138
774.5781, 21.17346
775.0602, 19.55002
775.5424, 14.42266
776.0245, 12.51746
776.5066, 19.89427
776.9887, 28.44218
777.4708, 28.38352
777.9529, 22.64146
778.4351, 17.55181
778.9172, 14.03333
779.3993, 10.95910
779.8814, 7.702141
780.3635, 4.445122
780.8456, 1.303062
781.3278, 1.913254
781.8099, 3.050797
782.2920, 1.527061
782.7741, 0.7124480
783.2562, 3.284180
783.7383, 5.787460
784.2205, 7.347084
784.7026, 7.783745
785.1847, 9.637337
785.6668, 17.35138
786.1489, 20.94505
786.6310, 13.49989
787.1132, 3.759117
787.5953, 0.3048860
788.0774, 1.213760
788.5595, 4.502060
789.0416, 8.485413
789.5237, 12.14433
790.0059, 14.28987
790.4880, 15.65997
790.9701, 18.51641
791.4522, 22.02600
791.9343, 21.37366
792.4164, 13.80431
792.8986, 4.989594
793.3807, 3.460503
793.8628, 8.602722
794.3449, 11.97958
794.8270, 13.37466
795.3091, 14.32246
795.7913, 15.50657
796.2734, 16.00479
796.7555, 14.60323
797.2376, 11.40496
797.7197, 8.660919
798.2018, 8.072067
798.6840, 5.537041
799.1661, 4.167519
799.6482, 11.22002
800.1303, 6.588799
800.6124, 4.736115
801.0945, 11.46014
801.5767, 10.06267
802.0588, 7.228897
802.5409, 4.521431
803.0230, 3.436089
803.5051, 7.161461
803.9872, 13.14653
804.4694, 15.43880
804.9515, 12.74976
805.4336, 10.17992
805.9157, 13.51259
806.3978, 19.20515
806.8799, 18.25243
807.3621, 11.48360
807.8442, 4.456963
808.3263, 1.907265
808.8084, 4.629303
809.2905, 0.7096860
809.7726, 7.267189
810.2548, 11.33292
810.7369, 10.31267
811.2190, 9.166100
811.7011, 7.374123
812.1832, 6.445137
812.6653, 7.771248
813.1475, 9.926537
813.6296, 11.01532
814.1117, 10.94509
814.5938, 10.69604
815.0759, 11.43148
815.5580, 10.74714
816.0402, 4.142563
816.5223, 1.727654
817.0044, 2.389290
817.4865, 13.94727
817.9686, 20.90726
818.4507, 16.52622
818.9329, 9.805672
819.4150, 9.452301
819.8971, 11.62950
820.3792, 8.690681
820.8613, 2.233719
821.3434, 1.334877
821.8256, 9.659943
822.3077, 19.46574
822.7898, 20.69038
823.2719, 15.01626
823.7540, 10.49949
824.2361, 7.065765
824.7183, 7.438789
825.2004, 13.36675
825.6825, 19.17666
826.1646, 19.97849
826.6467, 16.57239
827.1288, 12.51762
827.6110, 5.370689
828.0931, 2.843292
828.5752, 11.29194
829.0573, 17.21313
829.5394, 10.58134
830.0215, 2.5345000E-02
830.5037, 1.183411
830.9858, 9.054565
831.4679, 16.28196
831.9500, 14.21497
832.4321, 11.71042
832.9142, 14.68359
833.3964, 18.31473
833.8785, 15.60129
834.3606, 8.021378
834.8427, 3.543549
835.3248, 6.372475
835.8069, 10.95451
836.2891, 14.81904
836.7712, 17.05141
837.2533, 14.58850
837.7354, 8.718147
838.2175, 5.066216
838.6996, 5.890923
839.1818, 8.559799
839.6639, 9.909523
840.1460, 10.76868
840.6281, 15.40547
841.1102, 23.94022
841.5923, 28.71541
842.0745, 27.87987
842.5566, 23.07407
843.0387, 14.14643
843.5208, 3.466766
844.0029, 8.4976003E-02
844.4850, 6.778740
844.9672, 12.16178
845.4493, 16.99563
845.9314, 18.83328
846.4135, 13.50759
846.8956, 6.377960
847.3777, 4.886482
847.8599, 9.436150
848.3420, 11.01426
848.8241, 2.474541
849.3062, 1.544037
849.7883, 9.913391
850.2704, 22.75431
850.7526, 22.79026
851.2347, 13.32232
851.7168, 6.516052
852.1989, 6.943665
852.6810, 9.271301
853.1631, 11.59647
853.6453, 12.55589
854.1274, 7.808624
854.6095, 1.066818
855.0916, 1.898033
855.5737, 12.03962
856.0558, 22.87354
856.5380, 27.71318
857.0201, 27.34586
857.5022, 20.77092
857.9843, 10.90287
858.4664, 10.28580
858.9485, 19.88532
859.4307, 27.80438
859.9128, 27.21123
860.3949, 21.15248
860.8770, 13.89337
861.3591, 5.100960
861.8412, 3.312881
862.3234, 10.81693
862.8055, 16.62486
863.2876, 17.29931
863.7697, 15.43608
864.2518, 12.46146
864.7339, 8.965973
865.2161, 9.297195
865.6982, 19.32754
866.1803, 23.33498
866.6624, 14.11198
867.1445, 6.942802
867.6266, 11.00597
868.1088, 19.47276
868.5909, 21.99410
869.0730, 17.25848
869.5551, 13.94970
870.0372, 16.26096
870.5193, 17.94144
871.0015, 15.25867
871.4836, 11.33305
871.9657, 8.619553
872.4478, 7.650696
872.9299, 9.002762
873.4120, 13.42767
873.8942, 17.59490
874.3763, 17.93094
874.8584, 17.42933
875.3405, 20.43375
875.8226, 25.01970
876.3047, 25.51859
876.7869, 20.97409
877.2690, 16.67013
877.7511, 17.44709
878.2332, 20.20867
878.7153, 17.63458
879.1974, 11.90673
879.6796, 12.79691
880.1617, 20.96760
880.6438, 28.95382
881.1259, 33.21547
881.6080, 32.92163
882.0901, 25.32871
882.5723, 11.13794
883.0544, 2.936676
883.5365, 1.200989
884.0186, 2.524902
884.5007, 7.079788
884.9828, 11.60190
885.4650, 13.40083
885.9471, 13.13747
886.4292, 13.19643
886.9113, 14.35632
887.3934, 13.72922
887.8755, 9.661194
888.3577, 6.225395
888.8398, 5.362358
889.3219, 5.807838
889.8040, 7.049156
890.2861, 8.924500
890.7682, 7.993248
891.2504, 0.9410860
891.7325, 4.527817
892.2146, 9.467308
892.6967, 10.09933
893.1788, 0.1592860
893.6609, 15.02257
894.1431, 22.83456
894.6252, 20.95835
895.1073, 18.34377
895.5894, 19.65750
896.0715, 20.11375
896.5536, 14.17892
897.0358, 7.445023
897.5179, 8.208466
898.0000, 14.96005
898.4821, 19.16375
898.9642, 16.66397
899.4464, 12.28471
899.9285, 10.03808
900.4106, 8.479065
900.8927, 4.194656
901.3748, 0.1546020
901.8569, 1.953537
902.3391, 10.82231
902.8212, 19.63272
903.3033, 22.45901
903.7854, 21.96536
904.2675, 23.58703
904.7496, 25.70823
905.2318, 21.03877
905.7139, 10.02084
906.1960, 2.674744
906.6781, 3.476456
907.1602, 6.903381
907.6423, 6.375282
908.1245, 2.742531
908.6066, 0.8071590
909.0887, 0.5527110
909.5708, 3.053307
910.0529, 8.936623
910.5350, 14.45047
911.0172, 16.89716
911.4993, 18.05270
911.9814, 22.42498
912.4635, 31.13655
912.9456, 32.95714
913.4277, 25.31857
913.9099, 18.78274
914.3920, 16.19756
914.8741, 15.74933
915.3562, 16.10009
915.8383, 17.07056
916.3204, 17.95064
916.8026, 20.11505
917.2847, 19.26859
917.7668, 10.92141
918.2489, 5.429352
918.7310, 9.957634
919.2131, 16.96849
919.6953, 18.05785
920.1774, 13.71677
920.6595, 9.849777
921.1416, 7.466469
921.6237, 6.126053
922.1058, 5.482742
922.5880, 6.149017
923.0701, 9.046791
923.5522, 13.26315
924.0343, 17.43573
924.5164, 21.37486
924.9985, 25.25819
925.4807, 30.51881
925.9628, 34.07403
926.4449, 34.07083
926.9270, 32.08372
927.4091, 29.05780
927.8912, 25.46536
928.3734, 21.43281
928.8555, 16.73956
929.3376, 14.46529
929.8197, 19.73799
930.3018, 24.90739
930.7839, 22.22638
931.2661, 15.89284
931.7482, 11.00789
932.2303, 9.008713
932.7124, 11.62022
933.1945, 20.78760
933.6766, 28.69836
934.1588, 24.56821
934.6409, 17.01013
935.1230, 20.13495
935.6051, 29.65063
936.0872, 33.32475
936.5693, 28.85725
937.0515, 22.39781
937.5336, 17.53745
938.0157, 15.20188
938.4978, 19.28649
938.9799, 26.17837
939.4620, 26.24232
939.9442, 20.05186
940.4263, 13.17407
940.9084, 7.701462
941.3905, 4.615242
941.8726, 5.218628
942.3547, 8.238785
942.8369, 11.24963
943.3190, 14.02534
943.8011, 15.12453
944.2832, 14.46048
944.7653, 13.08971
945.2474, 11.39032
945.7296, 10.72433
946.2117, 13.44202
946.6938, 18.38023
947.1759, 18.50584
947.6580, 13.74161
948.1401, 14.35094
948.6223, 22.70816
949.1044, 27.61921
949.5865, 21.64516
950.0686, 11.32484
950.5507, 8.183067
951.0328, 12.67368
951.5150, 15.23350
951.9971, 15.57926
952.4792, 15.46200
952.9613, 15.02538
953.4434, 14.80553
953.9255, 14.96874
954.4077, 15.91341
954.8898, 18.87363
955.3719, 24.40542
955.8540, 28.01894
956.3361, 30.50452
956.8182, 28.46935
957.3004, 19.39529
957.7825, 8.346916
958.2646, 2.452705
958.7467, 11.14700
959.2288, 11.10892
959.7109, 1.352615
960.1931, 8.585320
960.6752, 7.333359
961.1573, 6.837746
961.6394, 10.94366
962.1215, 15.41963
962.6036, 16.23565
963.0858, 14.15231
963.5679, 12.58072
964.0500, 10.22978
964.5321, 11.12239
965.0142, 19.09892
965.4963, 25.23769
965.9785, 24.98964
966.4606, 22.88236
966.9427, 24.42391
967.4248, 28.60249
967.9069, 28.17501
968.3890, 18.89000
968.8712, 11.86815
969.3533, 9.256416
969.8354, 7.013969
970.3175, 1.948357
970.7996, 2.561378
971.2817, 1.954597
971.7639, 3.341492
972.2460, 7.690353
972.7281, 10.81786
973.2102, 12.42612
973.6923, 8.227600
974.1744, 7.255630
974.6566, 20.21819
975.1387, 35.52371
975.6208, 37.10098
976.1029, 24.33662
976.5850, 12.20325
977.0671, 0.7683790
977.5493, 6.073311
978.0314, 5.788277
978.5135, 17.77224
978.9956, 18.84058
979.4777, 13.89513
979.9598, 9.235352
980.4420, 5.947975
980.9241, 6.482101
981.4062, 15.88113
981.8883, 23.09277
982.3704, 23.14139
982.8525, 21.47451
983.3347, 22.80650
983.8168, 24.56260
984.2989, 21.18010
984.7810, 12.23229
985.2631, 5.836983
985.7452, 4.804871
986.2274, 6.525154
986.7095, 13.63715
987.1916, 19.64813
987.6737, 17.17584
988.1558, 11.08834
988.6379, 10.95724
989.1201, 18.19627
989.6022, 23.94900
990.0843, 25.17616
990.5664, 23.92162
991.0485, 18.30112
991.5306, 13.10383
992.0128, 12.86617
992.4949, 15.75343
992.9770, 17.87424
993.4591, 18.55211
993.9412, 20.24332
994.4233, 26.15968
994.9055, 29.69306
995.3876, 26.25016
995.8697, 20.17864
996.3518, 12.85615
996.8339, 6.706268
997.3160, 6.409508
997.7982, 12.70819
998.2803, 18.09968
998.7624, 19.96330
999.2445, 19.43852
999.7266, 14.98663
1000.209, 10.26776
1000.691, 8.091415
1001.173, 8.291611
1001.655, 11.23115
1002.137, 16.70423
1002.619, 18.68624
1003.101, 9.987099
1003.584, 2.984436
1004.066, 5.894379
1004.548, 11.41788
1005.030, 14.02422
1005.512, 13.93913
1005.994, 10.78136
1006.476, 4.979248
1006.958, 5.542816
1007.440, 25.10011
1007.923, 40.59391
1008.405, 38.46510
1008.887, 29.78793
1009.369, 21.31941
1009.851, 14.44165
1010.333, 9.790840
1010.815, 7.491112
1011.297, 7.351036
1011.780, 9.577827
1012.262, 13.57849
1012.744, 22.28513
1013.226, 29.58872
1013.708, 29.15128
1014.190, 24.59917
1014.672, 23.00179
1015.154, 24.87944
1015.636, 22.92210
1016.119, 7.171143
1016.601, 3.828857
1017.083, 3.584824
1017.565, 14.07781
1018.047, 14.38026
1018.529, 9.358284
1019.011, 6.878670
1019.493, 8.241325
1019.976, 12.62705
1020.458, 25.67296
1020.940, 32.94062
1021.422, 24.06007
1021.904, 13.89211
1022.386, 12.15842
1022.868, 15.37001
1023.350, 19.03138
1023.832, 22.27293
1024.315, 23.41914
1024.797, 21.63787
1025.279, 18.43556
1025.761, 11.23045
1026.243, 6.012909
1026.725, 9.100937
1027.207, 14.28297
1027.689, 12.73706
1028.172, 5.422318
1028.654, 2.479393
1029.136, 8.860031
1029.618, 14.65534
1030.100, 18.80676
1030.582, 20.70578
1031.064, 20.21611
1031.546, 17.23641
1032.028, 9.559242
1032.511, 1.194328
1032.993, 6.742859
1033.475, 4.609657
1033.957, 0.8452070
1034.439, 5.444580
1034.921, 11.30682
1035.403, 17.89253
1035.885, 22.35043
1036.368, 17.90376
1036.850, 7.835838
1037.332, 5.537384
1037.814, 16.64850
1038.296, 21.76615
1038.778, 15.26658
1039.260, 10.62476
1039.742, 12.51531
1040.224, 15.82304
1040.707, 16.73743
1041.189, 16.09460
1041.671, 16.47355
1042.153, 19.03818
1042.635, 17.20208
1043.117, 6.114677
1043.599, 0.3357700
1044.081, 5.470245
1044.563, 12.30912
1045.046, 15.09949
1045.528, 15.25277
1046.010, 15.28216
1046.492, 15.03579
1046.974, 17.08955
1047.456, 23.76300
1047.938, 25.08726
1048.420, 17.01962
1048.902, 10.29881
1049.385, 12.06810
1049.867, 15.98492
1050.349, 11.28925
1050.831, 0.9616090
1051.313, 3.887817
1051.795, 4.409088
1052.277, 9.941833
1052.759, 10.92619
1053.242, 9.350746
1053.724, 5.209061
1054.206, 3.020226
1054.688, 9.479317
1055.170, 21.00974
1055.652, 19.63222
1056.134, 5.440804
1056.616, 3.7253998E-02
1057.099, 5.023232
1057.581, 11.11967
1058.063, 14.95539
1058.545, 17.10566
1059.027, 17.91939
1059.509, 17.86406
1059.991, 18.25871
1060.473, 18.81498
1060.955, 17.61318
1061.438, 14.66592
1061.920, 12.96416
1062.402, 13.18367
1062.884, 12.33902
1063.366, 8.076988
1063.848, 3.544525
1064.330, 4.336510
1064.812, 8.154144
1065.294, 8.809021
1065.777, 7.557869
1066.259, 8.786736
1066.741, 12.94633
1067.223, 18.39409
1067.705, 24.39494
1068.187, 27.96896
1068.669, 24.11830
1069.151, 17.66507
1069.634, 16.09422
1070.116, 16.24516
1070.598, 11.34797
1071.080, 2.912415
1071.562, 2.908211
1072.044, 3.922775
1072.526, 0.5196300
1073.008, 12.42677
1073.490, 23.02015
1073.973, 17.00897
1074.455, 6.789101
1074.937, 8.060242
1075.419, 15.41296
1075.901, 16.63251
1076.383, 10.13609
1076.865, 4.649033
1077.347, 3.777443
1077.829, 4.658821
1078.312, 6.169159
1078.794, 8.833855
1079.276, 15.53922
1079.758, 21.85768
1080.240, 20.20808
1080.722, 12.68085
1081.204, 11.60989
1081.686, 23.27602
1082.169, 30.31270
1082.651, 28.94167
1083.133, 23.35055
1083.615, 8.502701
1084.097, 3.988747
1084.579, 2.727669
1085.061, 7.662811
1085.543, 15.23257
1086.026, 19.94608
1086.508, 21.68559
1086.990, 18.89850
1087.472, 15.98209
1087.954, 12.46708
1088.436, 11.21695
1088.918, 15.84668
1089.400, 20.70311
1089.882, 16.09790
1090.365, 3.326439
1090.847, 0.9559710
1091.329, 12.71086
1091.811, 17.57307
1092.293, 12.24840
1092.775, 7.307747
1093.257, 6.875130
1093.739, 7.538055
1094.221, 5.970314
1094.704, 3.122498
1095.186, 1.532021
1095.668, 1.124893
1096.150, 0.5951080
1096.632, 0.1092530
1097.114, 2.861916
1097.596, 9.360527
1098.078, 15.08543
1098.561, 17.16545
1099.043, 17.40242
1099.525, 19.10153
1100.007, 20.37252
1100.489, 14.69358
1100.971, 5.719536
1101.453, 3.429764
1101.935, 7.540550
1102.417, 11.32278
1102.900, 12.25204
1103.382, 13.28169
1103.864, 18.18296
1104.346, 22.36122
1104.828, 17.72912
1105.310, 11.70755
1105.792, 16.64198
1106.274, 26.46690
1106.756, 27.39983
1107.239, 18.88216
1107.721, 14.21889
1108.203, 21.57384
1108.685, 25.70921
1109.167, 16.21210
1109.649, 5.998573
1110.131, 1.127762
1110.613, 0.2800290
1111.096, 0.6995850
1111.578, 3.039818
1112.060, 4.484077
1112.542, 4.646156
1113.024, 4.528862
1113.506, 2.830276
1113.988, 2.943123
1114.470, 5.713135
1114.953, 10.09360
1115.435, 17.35550
1115.917, 24.20912
1116.399, 26.37111
1116.881, 23.92947
1117.363, 17.18710
1117.845, 3.569275
1118.327, 3.260674
1118.809, 1.493820
1119.292, 3.070816
1119.774, 9.338417
1120.256, 13.10648
1120.738, 10.01335
1121.220, 4.139320
1121.702, 6.198334
1122.184, 14.43030
1122.666, 13.46816
1123.148, 5.112579
1123.631, 5.397293
1124.113, 15.87228
1124.595, 23.05036
1125.077, 20.31032
1125.559, 15.91666
1126.041, 20.59666
1126.523, 26.35523
1127.005, 16.13136
1127.488, 1.163864
1127.970, 4.525169
1128.452, 19.30118
1128.934, 23.97823
1129.416, 14.77071
1129.898, 4.465332
1130.380, 1.841988
1130.862, 2.871437
1131.344, 8.339607
1131.827, 18.30884
1132.309, 13.57861
1132.791, 5.677521
1133.273, 9.117294
1133.755, 19.62800
1134.237, 24.48287
1134.719, 20.70701
1135.201, 17.75610
1135.683, 17.78990
1136.166, 17.61828
1136.648, 15.28513
1137.130, 14.48064
1137.612, 19.29365
1138.094, 23.95391
1138.576, 19.82957
1139.058, 9.261185
1139.540, 8.473885
1140.023, 21.58778
1140.505, 22.27551
1140.987, 6.632370
1141.469, 1.184288
1141.951, 5.814575
1142.433, 17.86872
1142.915, 28.89146
1143.397, 36.25480
1143.880, 34.39894
1144.362, 25.99855
1144.844, 20.55342
1145.326, 17.48338
1145.808, 14.41766
1146.290, 11.28716
1146.772, 9.488091
1147.254, 9.407425
1147.736, 9.906784
1148.219, 10.54552
1148.701, 10.40736
1149.183, 6.558281
1149.665, 3.248886
1150.147, 6.194420
1150.629, 12.31880
1151.111, 17.50410
1151.593, 20.96191
1152.075, 22.53163
1152.558, 21.81786
1153.040, 21.83772
1153.522, 25.83890
1154.004, 27.57480
1154.486, 22.81865
1154.968, 17.47079
1155.450, 14.20332
1155.932, 13.51985
1156.415, 16.37801
1156.897, 22.23620
1157.379, 26.14437
1157.861, 28.26266
1158.343, 28.48518
1158.825, 25.98660
1159.307, 23.14438
1159.789, 20.71482
1160.271, 16.66198
1160.754, 9.124069
1161.236, 1.016609
1161.718, 3.815727
1162.200, 4.742928
1162.682, 5.215752
1163.164, 21.66949
1163.646, 21.37977
1164.128, 6.508400
1164.610, 0.2112730
1165.093, 8.987381
1165.575, 19.76909
1166.057, 24.50662
1166.539, 24.87924
1167.021, 19.18073
1167.503, 13.24450
1167.985, 13.64050
1168.467, 17.23025
1168.950, 21.16403
1169.432, 23.92021
1169.914, 22.33536
1170.396, 15.44360
1170.878, 11.12968
1171.360, 15.30536
1171.842, 16.58984
1172.324, 6.166679
1172.807, 0.1911770
1173.289, 10.98638
1173.771, 24.64735
1174.253, 26.45045
1174.735, 20.32512
1175.217, 19.18014
1175.699, 24.05759
1176.181, 24.92159
1176.663, 21.79620
1177.146, 15.63380
1177.628, 6.162880
1178.110, 1.716049
1178.592, 6.637184
1179.074, 12.36588
1179.556, 8.593590
1180.038, 1.435570
1180.520, 4.593735
1181.002, 12.75665
1181.485, 13.80533
1181.967, 9.821320
1182.449, 6.796509
1182.931, 6.224251
1183.413, 8.486351
1183.895, 13.98049
1184.377, 19.32181
1184.859, 23.93916
1185.342, 26.02020
1185.824, 22.71144
1186.306, 18.28824
1186.788, 15.01371
1187.270, 13.63879
1187.752, 15.67939
1188.234, 20.68156
1188.716, 21.04922
1189.198, 15.37544
1189.681, 8.278694
1190.163, 3.436073
1190.645, 6.889717
1191.127, 3.128914
1191.609, 12.69076
1192.091, 13.21490
1192.573, 12.24940
1193.055, 21.49773
1193.537, 35.30054
1194.020, 32.39381
1194.502, 17.82874
1194.984, 11.70842
1195.466, 14.06621
1195.948, 22.07513
1196.430, 32.68300
1196.912, 34.08293
1197.394, 19.57944
1197.877, 5.977127
1198.359, 9.019691
1198.841, 14.87244
1199.323, 12.25157
1199.805, 8.446442
1200.287, 9.980721
1200.769, 15.34585
1201.251, 23.06484
1201.734, 32.02433
1202.216, 36.23433
1202.698, 32.40047
1203.180, 29.90208
1203.662, 30.85608
1204.144, 29.92590
1204.626, 24.76968
1205.108, 18.45811
1205.590, 11.74098
1206.073, 7.802666
1206.555, 11.55336
1207.037, 20.54807
1207.519, 28.47392
1208.001, 34.29949
1208.483, 29.05605
1208.965, 16.59636
1209.447, 17.95592
1209.929, 33.56140
1210.412, 40.57356
1210.894, 28.06438
1211.376, 13.73663
1211.858, 12.57862
1212.340, 13.42739
1212.822, 6.281456
1213.304, 0.3582230
1213.786, 3.983925
1214.269, 11.58658
1214.751, 8.941002
1215.233, 1.628471
1215.715, 3.209259
1216.197, 9.157318
1216.679, 16.12846
1217.161, 14.82903
1217.643, 13.99146
1218.125, 19.27341
1218.608, 23.81866
1219.090, 25.04620
1219.572, 24.88734
1220.054, 25.30823
1220.536, 25.87583
1221.018, 25.43313
1221.500, 24.33604
1221.982, 24.67476
1222.464, 25.24945
1222.947, 21.34377
1223.429, 14.05664
1223.911, 9.672325
1224.393, 10.17609
1224.875, 11.86142
1225.357, 13.08244
1225.839, 14.10258
1226.321, 12.53494
1226.804, 13.79421
1227.286, 26.57352
1227.768, 39.10228
1228.250, 37.44495
1228.732, 27.19768
1229.214, 21.46355
1229.696, 21.48707
1230.178, 13.73743
1230.661, 0.7448810
1231.143, 1.771561
1231.625, 13.69692
1232.107, 28.26056
1232.589, 36.61191
1233.071, 38.79520
1233.553, 34.39594
1234.035, 28.15788
1234.517, 26.79794
1235.000, 27.30052
1235.482, 25.11337
1235.964, 21.29418
1236.446, 15.98888
1236.928, 11.06935
1237.410, 10.16645
1237.892, 10.59576
1238.374, 14.78497
1238.856, 21.12353
1239.339, 22.78084
1239.821, 12.71906
1240.303, 6.368698
1240.785, 9.962769
1241.267, 13.00697
1241.749, 9.939026
1242.231, 4.683609
1242.713, 0.9182890
1243.196, 8.3267003E-02
1243.678, 4.594070
1244.160, 0.0000000E+00
##END=



