##NAMES=Perryite
##RRUFFID=R070052
##IDEAL CHEMISTRY=(Ni,Fe)_8_(Si,P)_3_
##LOCALITY=Mount Egerton meteorite, Gaskoyne River, Western Australia, Australia
##OWNER=RRUFF
##SOURCE=Michael Scott
##DESCRIPTION=Gray metallic polished fragment embedded in epoxy
##STATUS=The identification of this mineral is not yet confirmed.
##URL=rruff.info/R070052
137.1651, 0.0000000E+00
137.6472, 4.240112
138.1293, 8.136696
138.6114, 11.49963
139.0935, 14.79940
139.5757, 17.52887
140.0578, 19.40310
140.5399, 22.40914
141.0220, 22.97615
141.5041, 20.61170
141.9862, 13.79593
142.4684, 6.044426
142.9505, 1.061127
143.4326, 0.5464940
143.9147, 0.7280730
144.3968, 0.1837160
144.8789, 2.275154
145.3610, 5.058739
145.8432, 8.951988
146.3253, 13.37455
146.8074, 17.38738
147.2895, 22.85044
147.7716, 27.22179
148.2537, 26.40540
148.7359, 17.30083
149.2180, 11.42806
149.7001, 10.59402
150.1822, 13.43103
150.6643, 14.85870
151.1464, 13.03498
151.6286, 11.09666
152.1107, 10.54311
152.5928, 13.65776
153.0749, 15.69888
153.5570, 15.60936
154.0391, 13.58274
154.5213, 12.23247
155.0034, 13.52843
155.4855, 14.87207
155.9676, 14.24404
156.4497, 8.682220
156.9318, 3.499664
157.4140, 9.9109998E-03
157.8961, 1.677994
158.3782, 1.993408
158.8603, 0.4133760
159.3424, 3.718323
159.8245, 5.755157
160.3067, 3.131302
160.7888, 1.119240
161.2709, 2.873718
161.7530, 10.11576
162.2351, 16.60884
162.7172, 20.12006
163.1993, 21.05692
163.6815, 20.24093
164.1636, 16.52440
164.6457, 12.00824
165.1278, 8.240570
165.6099, 5.557381
166.0920, 3.562523
166.5742, 1.697426
167.0563, 0.2139280
167.5384, 5.7884000E-02
168.0205, 2.944832
168.5026, 7.056015
168.9847, 10.24969
169.4669, 10.82244
169.9490, 11.37157
170.4311, 14.93372
170.9132, 21.15282
171.3953, 26.03063
171.8774, 26.12405
172.3596, 23.05125
172.8417, 19.31016
173.3238, 14.67231
173.8059, 10.46755
174.2880, 8.318977
174.7701, 8.270248
175.2523, 9.448921
175.7344, 11.79361
176.2165, 14.84700
176.6986, 17.51027
177.1807, 19.15820
177.6628, 20.08545
178.1449, 20.46316
178.6271, 20.07904
179.1092, 20.28876
179.5913, 23.94455
180.0734, 29.04523
180.5555, 32.24750
181.0376, 30.74896
181.5198, 25.91135
182.0019, 20.34698
182.4840, 13.68544
182.9661, 8.638153
183.4482, 7.959618
183.9303, 11.16394
184.4125, 15.32578
184.8946, 17.92580
185.3767, 19.42495
185.8588, 22.11077
186.3409, 27.55289
186.8230, 33.38727
187.3052, 32.72172
187.7873, 25.30950
188.2694, 18.51971
188.7515, 20.74323
189.2336, 30.84184
189.7157, 38.46851
190.1979, 40.86037
190.6800, 38.96215
191.1621, 35.50740
191.6442, 30.37520
192.1263, 24.47569
192.6084, 17.70214
193.0906, 10.10986
193.5727, 5.664932
194.0548, 6.708138
194.5369, 12.47454
195.0190, 17.34314
195.5011, 21.28785
195.9832, 24.33873
196.4654, 26.68816
196.9475, 28.49876
197.4296, 28.67982
197.9117, 26.19531
198.3938, 21.04932
198.8759, 17.12371
199.3581, 14.35431
199.8402, 12.98545
200.3223, 13.94612
200.8044, 17.66512
201.2865, 21.50928
201.7686, 24.41018
202.2508, 26.39428
202.7329, 27.56940
203.2150, 27.87972
203.6971, 27.43111
204.1792, 26.41853
204.6613, 24.78741
205.1435, 22.77390
205.6256, 20.11645
206.1077, 16.48547
206.5898, 14.40027
207.0719, 14.46150
207.5540, 16.10723
208.0362, 17.64216
208.5183, 19.60264
209.0004, 20.20151
209.4825, 17.18121
209.9646, 9.188141
210.4467, 4.578110
210.9288, 5.312080
211.4110, 10.36101
211.8931, 12.87365
212.3752, 11.87515
212.8573, 10.35043
213.3394, 11.14942
213.8215, 15.67516
214.3037, 18.31291
214.7858, 17.44743
215.2679, 13.30194
215.7500, 10.67702
216.2321, 10.27484
216.7142, 10.81111
217.1964, 10.56357
217.6785, 8.802429
218.1606, 8.173477
218.6427, 10.14131
219.1248, 14.98464
219.6069, 15.81378
220.0891, 10.69960
220.5712, 3.535873
221.0533, 1.219467
221.5354, 3.320850
222.0175, 3.366844
222.4996, 0.9492030
222.9818, 4.523209
223.4639, 8.683472
223.9460, 11.64095
224.4281, 13.22016
224.9102, 12.65654
225.3923, 7.684212
225.8745, 4.844315
226.3566, 7.662346
226.8387, 19.48568
227.3208, 23.18486
227.8029, 14.44443
228.2850, 4.1244999E-02
228.7672, 7.237637
229.2493, 4.423046
229.7314, 0.6197810
230.2135, 5.427715
230.6956, 10.48454
231.1777, 13.92706
231.6599, 15.62834
232.1420, 15.77103
232.6241, 14.32135
233.1062, 9.240791
233.5883, 5.661667
234.0704, 6.196632
234.5526, 13.91436
235.0347, 18.78626
235.5168, 20.41338
235.9989, 19.28616
236.4810, 16.34900
236.9631, 9.746323
237.4453, 3.947529
237.9274, 1.313686
238.4095, 3.635582
238.8916, 5.154484
239.3737, 5.087143
239.8558, 4.136089
240.3380, 5.133450
240.8201, 10.02382
241.3022, 14.24422
241.7843, 15.00901
242.2664, 9.633408
242.7485, 6.451881
243.2307, 6.382069
243.7128, 8.865341
244.1949, 11.62001
244.6770, 15.36313
245.1591, 18.43749
245.6412, 19.82153
246.1233, 19.05340
246.6055, 17.50561
247.0876, 15.01109
247.5697, 11.73263
248.0518, 8.624702
248.5339, 5.148415
249.0160, 2.519642
249.4982, 1.805882
249.9803, 4.368061
250.4624, 5.807777
250.9445, 5.011230
251.4266, 2.494526
251.9087, 2.079250
252.3909, 5.410469
252.8730, 8.675163
253.3551, 8.526009
253.8372, 2.278130
254.3193, 0.9415250
254.8014, 1.510101
255.2836, 8.643566
255.7657, 11.30119
256.2478, 6.558014
256.7299, 1.368534
257.2120, 1.818275
257.6941, 11.44839
258.1762, 17.92101
258.6584, 18.64802
259.1405, 14.20188
259.6226, 11.05405
260.1047, 9.437782
260.5868, 8.723389
261.0689, 8.616043
261.5511, 9.626514
262.0332, 9.646950
262.5153, 7.437584
262.9974, 3.512150
263.4795, 3.396091
263.9616, 8.751877
264.4438, 15.16594
264.9259, 19.31556
265.4080, 21.41373
265.8901, 20.14511
266.3722, 13.85146
266.8543, 3.292679
267.3365, 3.308239
267.8186, 5.262878
268.3007, 4.612476
268.7828, 3.052311
269.2649, 0.5983430
269.7470, 3.308891
270.2292, 8.906979
270.7113, 15.88815
271.1934, 21.02348
271.6755, 24.46463
272.1576, 25.81501
272.6397, 23.69095
273.1219, 17.07856
273.6040, 12.69048
274.0861, 12.54334
274.5682, 15.97567
275.0503, 18.23597
275.5324, 19.41642
276.0146, 19.22141
276.4967, 16.24893
276.9788, 9.830364
277.4609, 6.641369
277.9430, 9.757591
278.4251, 17.41345
278.9073, 19.04296
279.3894, 13.54665
279.8715, 6.346107
280.3536, 2.187939
280.8357, 1.098988
281.3178, 1.597980
281.8000, 3.897392
282.2821, 7.454712
282.7642, 10.33167
283.2463, 12.58014
283.7284, 13.72361
284.2105, 12.23058
284.6927, 8.297760
285.1747, 6.654591
285.6569, 9.373375
286.1390, 14.73357
286.6211, 17.16532
287.1032, 17.18035
287.5853, 16.09054
288.0674, 13.19050
288.5496, 9.007069
289.0317, 8.647499
289.5138, 15.88199
289.9959, 26.00321
290.4780, 25.59452
290.9601, 14.22382
291.4423, 2.758366
291.9244, 2.421116
292.4065, 10.45105
292.8886, 15.33729
293.3707, 13.25016
293.8528, 7.451691
294.3350, 3.412872
294.8171, 1.122200
295.2992, 0.6157260
295.7813, 3.226322
296.2634, 7.760429
296.7455, 10.59949
297.2277, 10.28238
297.7098, 8.650726
298.1919, 8.609642
298.6740, 9.995678
299.1561, 11.35094
299.6382, 10.69801
300.1204, 9.345367
300.6025, 10.19610
301.0846, 15.20212
301.5667, 20.70847
302.0488, 22.72902
302.5309, 21.48824
303.0131, 18.40449
303.4952, 12.11235
303.9773, 5.086979
304.4594, 1.330357
304.9415, 2.774605
305.4236, 5.803185
305.9058, 7.343533
306.3879, 7.672241
306.8700, 7.744995
307.3521, 7.621746
307.8342, 7.789188
308.3163, 8.870670
308.7985, 11.40137
309.2806, 13.98665
309.7627, 16.54890
310.2448, 18.55749
310.7269, 18.45274
311.2090, 12.21516
311.6912, 5.352509
312.1733, 2.558502
312.6554, 6.050018
313.1375, 10.75340
313.6196, 15.42573
314.1017, 19.43057
314.5839, 21.42215
315.0660, 18.69318
315.5481, 15.29502
316.0302, 13.89733
316.5123, 15.79847
316.9944, 17.41853
317.4766, 16.09040
317.9586, 13.52893
318.4408, 12.18744
318.9229, 15.11827
319.4050, 17.56994
319.8871, 16.96274
320.3692, 11.94164
320.8513, 8.024033
321.3335, 6.415688
321.8156, 6.637333
322.2977, 8.027348
322.7798, 11.86488
323.2619, 15.57015
323.7440, 18.58909
324.2262, 21.01970
324.7083, 22.11761
325.1904, 22.10484
325.6725, 20.41154
326.1546, 16.43864
326.6367, 2.899609
327.1189, 5.373230
327.6010, 3.225201
328.0831, 11.03254
328.5652, 20.37654
329.0473, 22.40801
329.5294, 20.99527
330.0116, 19.58337
330.4937, 18.26711
330.9758, 16.79653
331.4579, 14.76662
331.9400, 12.20093
332.4221, 11.27933
332.9043, 12.77231
333.3864, 15.06278
333.8685, 17.15005
334.3506, 19.76901
334.8327, 20.29940
335.3148, 17.65624
335.7970, 12.51198
336.2791, 8.182953
336.7612, 3.945423
337.2433, 1.966576
337.7254, 5.297855
338.2076, 15.94924
338.6897, 21.16624
339.1718, 17.73111
339.6539, 8.946049
340.1360, 4.677502
340.6181, 5.679699
341.1003, 7.870731
341.5824, 8.704960
342.0645, 8.188560
342.5466, 8.202045
343.0287, 8.969444
343.5108, 10.14762
343.9930, 11.21469
344.4751, 12.17759
344.9572, 12.91343
345.4393, 13.60052
345.9214, 14.07432
346.4035, 13.43513
346.8857, 11.69075
347.3678, 9.445435
347.8499, 7.415939
348.3320, 5.702423
348.8141, 4.411694
349.2962, 3.476387
349.7784, 2.969967
350.2605, 2.784943
350.7426, 2.836433
351.2247, 4.032249
351.7068, 9.005856
352.1889, 15.87994
352.6710, 20.33173
353.1531, 18.87772
353.6353, 15.04129
354.1174, 12.61934
354.5995, 11.61684
355.0816, 10.89323
355.5637, 9.109070
356.0458, 7.248981
356.5280, 6.675709
357.0101, 9.103283
357.4922, 11.83508
357.9743, 13.69515
358.4564, 14.56901
358.9385, 13.71483
359.4207, 8.659893
359.9028, 2.814953
360.3849, 1.015377
360.8670, 1.649830
361.3491, 0.8344000
361.8312, 1.363182
362.3134, 4.654560
362.7955, 8.371323
363.2776, 12.51385
363.7597, 16.14750
364.2418, 18.81841
364.7239, 20.10609
365.2061, 21.26347
365.6882, 23.44760
366.1703, 25.57179
366.6524, 25.42643
367.1345, 20.63965
367.6166, 15.50282
368.0988, 10.95785
368.5809, 6.341270
369.0630, 4.310383
369.5451, 5.709625
370.0272, 9.267582
370.5093, 13.65774
370.9915, 20.93455
371.4736, 25.83611
371.9557, 27.07288
372.4378, 24.55740
372.9199, 19.24901
373.4020, 8.414814
373.8842, 1.710659
374.3663, 4.190739
374.8484, 3.374615
375.3305, 10.28362
375.8126, 14.77352
376.2947, 16.99720
376.7769, 16.93218
377.2590, 14.06523
377.7411, 10.81075
378.2232, 8.300011
378.7053, 6.518646
379.1874, 8.032944
379.6696, 14.77455
380.1517, 22.77430
380.6338, 22.55790
381.1159, 14.25505
381.5980, 6.081802
382.0801, 3.541885
382.5623, 5.271587
383.0444, 7.194252
383.5265, 9.200027
384.0086, 10.45751
384.4907, 8.680782
384.9728, 4.685589
385.4549, 2.659302
385.9370, 6.485954
386.4192, 12.33858
386.9013, 14.92300
387.3834, 13.93569
387.8655, 12.22570
388.3476, 12.24532
388.8297, 12.94044
389.3119, 12.73378
389.7940, 9.176163
390.2761, 5.990059
390.7582, 6.055161
391.2403, 9.036964
391.7224, 12.26624
392.2046, 15.38286
392.6867, 17.68813
393.1688, 18.57304
393.6509, 16.82236
394.1330, 15.06347
394.6151, 14.38882
395.0973, 14.36938
395.5794, 13.66886
396.0615, 10.31694
396.5436, 7.539108
397.0257, 7.170742
397.5078, 11.69984
397.9900, 13.67717
398.4721, 10.56723
398.9542, 5.143204
399.4363, 1.579750
399.9184, 0.2437170
400.4005, 0.3876040
400.8827, 2.389950
401.3648, 6.662457
401.8469, 9.380192
402.3290, 10.59305
402.8111, 10.19699
403.2932, 7.361446
403.7754, 0.5145420
404.2575, 3.767372
404.7396, 4.070503
405.2217, 0.8441160
405.7038, 4.371811
406.1859, 12.20807
406.6681, 19.62928
407.1502, 24.69398
407.6323, 27.33824
408.1144, 27.92854
408.5965, 26.21078
409.0786, 22.95322
409.5608, 18.95634
410.0429, 14.32668
410.5250, 10.61303
411.0071, 8.302059
411.4892, 7.587276
411.9713, 9.666069
412.4535, 15.02020
412.9356, 20.22685
413.4177, 21.07750
413.8998, 19.16679
414.3819, 18.12003
414.8640, 22.36011
415.3462, 26.22979
415.8283, 22.42691
416.3104, 11.65586
416.7925, 3.367550
417.2746, 6.403099
417.7567, 13.27680
418.2388, 16.56276
418.7209, 12.48891
419.2031, 6.876358
419.6852, 0.5374450
420.1673, 5.715500
420.6494, 9.113552
421.1315, 7.373730
421.6136, 3.769550
422.0958, 0.5448340
422.5779, 6.643902
423.0600, 10.57856
423.5421, 9.657288
424.0242, 6.927071
424.5063, 6.857704
424.9885, 11.69089
425.4706, 16.55125
425.9527, 20.98657
426.4348, 25.17173
426.9169, 26.06742
427.3990, 21.62718
427.8812, 16.45703
428.3633, 14.60303
428.8454, 17.25111
429.3275, 19.04188
429.8096, 19.04277
430.2917, 17.80087
430.7739, 17.26951
431.2560, 17.80538
431.7381, 17.78593
432.2202, 15.63231
432.7023, 12.26937
433.1844, 9.657909
433.6666, 7.721703
434.1487, 7.170792
434.6308, 10.68598
435.1129, 17.16785
435.5950, 21.02584
436.0771, 17.59088
436.5593, 10.91665
437.0414, 7.532719
437.5235, 7.380310
438.0056, 8.082451
438.4877, 7.612267
438.9698, 6.916813
439.4520, 7.423012
439.9341, 10.42419
440.4162, 13.47421
440.8983, 15.46559
441.3804, 16.31931
441.8625, 15.78913
442.3447, 11.13425
442.8268, 6.960922
443.3089, 6.749176
443.7910, 13.05818
444.2731, 16.77989
444.7552, 13.35752
445.2374, 6.937962
445.7195, 3.117554
446.2016, 3.677383
446.6837, 5.639721
447.1658, 9.959412
447.6479, 16.96885
448.1301, 18.95065
448.6122, 11.89133
449.0943, 4.193157
449.5764, 1.993496
450.0585, 7.639633
450.5406, 11.94901
451.0227, 14.18035
451.5049, 14.56442
451.9870, 12.98131
452.4691, 8.895721
452.9512, 5.833038
453.4333, 6.579483
453.9154, 10.61054
454.3976, 11.45467
454.8797, 8.368710
455.3618, 5.215214
455.8439, 8.247597
456.3260, 15.68384
456.8081, 20.07257
457.2903, 17.25760
457.7724, 11.50573
458.2545, 8.507355
458.7366, 8.116642
459.2187, 9.042694
459.7008, 11.54749
460.1830, 14.63930
460.6651, 16.57528
461.1472, 17.30557
461.6293, 17.25441
462.1114, 15.88277
462.5935, 13.95667
463.0757, 12.63204
463.5578, 11.90358
464.0399, 11.84367
464.5220, 13.29006
465.0041, 16.57362
465.4862, 17.59345
465.9684, 12.22320
466.4505, 6.378761
466.9326, 4.861931
467.4147, 12.65359
467.8968, 17.50218
468.3789, 17.13205
468.8611, 13.27217
469.3432, 12.04008
469.8253, 14.92073
470.3074, 17.46298
470.7895, 17.35138
471.2716, 14.15688
471.7538, 12.06083
472.2359, 11.17282
472.7180, 11.12686
473.2001, 11.52179
473.6822, 12.35772
474.1643, 13.76313
474.6465, 16.41319
475.1286, 19.21641
475.6107, 19.27889
476.0928, 16.78217
476.5749, 13.88370
477.0570, 11.96555
477.5392, 10.74942
478.0213, 9.813812
478.5034, 9.853977
478.9855, 10.07179
479.4676, 8.851189
479.9497, 7.406345
480.4319, 7.653423
480.9140, 13.24324
481.3961, 18.39021
481.8782, 19.78252
482.3603, 17.33177
482.8424, 14.28479
483.3245, 8.711994
483.8066, 4.680656
484.2888, 5.058353
484.7709, 19.40593
485.2530, 26.51957
485.7351, 21.27328
486.2172, 8.897888
486.6993, 1.693356
487.1815, 2.647480
487.6636, 3.975945
488.1457, 2.543751
488.6278, 2.075893
489.1099, 3.047703
489.5920, 0.6619380
490.0742, 5.730122
490.5563, 8.472565
491.0384, 8.869301
491.5205, 10.42755
492.0026, 14.50294
492.4847, 19.24961
492.9669, 19.81925
493.4490, 16.74299
493.9311, 14.82238
494.4132, 20.11819
494.8953, 27.46942
495.3774, 26.65504
495.8596, 16.16038
496.3417, 6.053055
496.8238, 4.920757
497.3059, 9.140938
497.7880, 13.68723
498.2701, 18.51073
498.7523, 21.62516
499.2344, 21.76991
499.7165, 19.34702
500.1986, 16.05933
500.6807, 8.910919
501.1628, 3.725357
501.6450, 4.180180
502.1271, 14.82849
502.6092, 21.01584
503.0913, 21.25459
503.5734, 17.51981
504.0555, 11.18913
504.5377, 1.550587
505.0198, 8.581020
505.5019, 5.637989
505.9840, 5.138943
506.4661, 11.08556
506.9482, 11.48272
507.4304, 9.933205
507.9125, 7.997944
508.3946, 5.804699
508.8767, 5.371857
509.3588, 7.173447
509.8409, 9.528233
510.3231, 9.984154
510.8052, 9.091644
511.2873, 8.732582
511.7694, 9.821747
512.2515, 11.69724
512.7336, 14.09232
513.2158, 16.83296
513.6979, 18.79932
514.1800, 19.26357
514.6621, 18.70482
515.1442, 17.61045
515.6263, 16.32717
516.1085, 13.78562
516.5906, 6.910614
517.0727, 0.7089810
517.5548, 3.984581
518.0369, 2.269035
518.5190, 8.249634
519.0012, 12.36613
519.4833, 14.61140
519.9654, 15.12842
520.4475, 12.61615
520.9296, 10.23920
521.4117, 10.33606
521.8939, 13.92480
522.3760, 14.78246
522.8581, 11.88210
523.3402, 7.738552
523.8223, 6.227547
524.3044, 7.283524
524.7866, 8.824333
525.2687, 10.73073
525.7508, 12.29405
526.2329, 11.58725
526.7150, 8.781414
527.1971, 5.930553
527.6793, 3.153458
528.1614, 1.584038
528.6435, 3.310474
529.1256, 9.595562
529.6077, 15.53265
530.0898, 18.06541
530.5720, 18.22768
531.0541, 17.51534
531.5362, 15.80099
532.0182, 13.88762
532.5004, 12.32551
532.9825, 11.00274
533.4646, 8.483578
533.9467, 1.263046
534.4288, 4.054344
534.9109, 4.018929
535.3931, 4.332489
535.8752, 9.489777
536.3573, 10.28411
536.8394, 9.278557
537.3215, 10.26988
537.8036, 13.73567
538.2858, 15.68953
538.7679, 14.68778
539.2500, 11.78797
539.7321, 9.508896
540.2142, 7.875397
540.6964, 7.359341
541.1785, 9.868195
541.6606, 13.34116
542.1427, 13.01816
542.6248, 8.015526
543.1069, 3.758091
543.5891, 5.905075
544.0712, 11.08749
544.5533, 14.74549
545.0354, 13.49109
545.5175, 12.34090
545.9996, 14.82769
546.4818, 19.25564
546.9639, 20.30995
547.4460, 12.49900
547.9281, 5.375725
548.4102, 3.080227
548.8923, 6.991817
549.3745, 9.519054
549.8566, 10.54971
550.3387, 10.31245
550.8208, 8.386948
551.3029, 3.869194
551.7850, 1.926205
552.2672, 3.656773
552.7493, 7.888283
553.2314, 13.09853
553.7135, 19.23071
554.1956, 23.11388
554.6777, 20.50605
555.1599, 15.08990
555.6420, 15.32922
556.1241, 21.15205
556.6062, 26.84288
557.0883, 27.73207
557.5704, 26.04874
558.0526, 24.73048
558.5347, 25.59274
559.0168, 24.82090
559.4989, 18.40161
559.9810, 9.496368
560.4631, 3.077236
560.9453, 2.281643
561.4274, 2.259998
561.9095, 1.649715
562.3916, 0.3948020
562.8737, 0.5830650
563.3558, 0.9831850
563.8380, 0.1394080
564.3201, 3.504475
564.8022, 10.23642
565.2843, 13.50013
565.7664, 12.30294
566.2485, 9.425900
566.7307, 8.593662
567.2128, 9.628716
567.6949, 10.69599
568.1770, 11.60835
568.6591, 11.86326
569.1412, 9.750084
569.6234, 5.850864
570.1055, 2.990166
570.5876, 3.830673
571.0697, 5.864071
571.5518, 6.790627
572.0339, 6.335300
572.5161, 5.565071
572.9982, 3.168079
573.4803, 1.634243
573.9624, 3.094452
574.4445, 14.01030
574.9266, 20.42972
575.4088, 18.13125
575.8909, 11.36187
576.3730, 7.379295
576.8551, 6.572868
577.3372, 8.648895
577.8193, 14.51673
578.3015, 23.72113
578.7836, 26.30603
579.2657, 21.38922
579.7478, 14.99322
580.2299, 11.59326
580.7120, 10.67810
581.1942, 9.557888
581.6763, 7.772587
582.1584, 6.626877
582.6405, 9.710045
583.1226, 14.60616
583.6047, 15.86349
584.0869, 7.439007
584.5690, 0.2711640
585.0511, 0.9122580
585.5332, 8.547401
586.0153, 13.95000
586.4974, 11.29650
586.9796, 8.417629
587.4617, 9.252392
587.9438, 15.34002
588.4259, 19.07568
588.9080, 20.13012
589.3901, 19.15425
589.8723, 15.91680
590.3544, 9.090885
590.8365, 5.659523
591.3186, 7.125221
591.8007, 10.95140
592.2828, 12.16658
592.7650, 11.15762
593.2471, 10.79213
593.7292, 12.59578
594.2113, 14.97078
594.6934, 14.76897
595.1755, 12.31032
595.6577, 9.816448
596.1398, 8.094955
596.6219, 7.399498
597.1040, 8.191296
597.5861, 10.77368
598.0682, 13.57877
598.5503, 17.06903
599.0324, 19.69234
599.5145, 19.95464
599.9966, 15.27628
600.4788, 11.12567
600.9609, 7.818768
601.4430, 5.268417
601.9251, 3.163040
602.4072, 1.042767
602.8893, 0.7901190
603.3715, 4.147449
603.8536, 10.11546
604.3357, 11.57716
604.8178, 8.254429
605.2999, 4.609821
605.7820, 4.099934
606.2642, 5.826385
606.7463, 8.234257
607.2284, 11.42955
607.7105, 13.63171
608.1926, 12.05598
608.6747, 8.983089
609.1569, 7.499363
609.6390, 11.70236
610.1211, 14.32137
610.6032, 9.891785
611.0853, 1.720062
611.5674, 0.7647400
612.0496, 11.19597
612.5317, 20.65079
613.0138, 22.14470
613.4959, 15.79619
613.9780, 11.71618
614.4601, 10.85278
614.9423, 10.04954
615.4244, 5.289074
615.9065, 2.965427
616.3886, 3.440289
616.8707, 5.915524
617.3528, 17.03768
617.8350, 19.90984
618.3171, 16.97445
618.7992, 14.20508
619.2813, 13.66917
619.7634, 13.69579
620.2455, 13.14003
620.7277, 12.08945
621.2098, 10.81173
621.6919, 9.217987
622.1740, 7.646618
622.6561, 5.995399
623.1382, 4.235378
623.6204, 3.610821
624.1025, 4.821617
624.5846, 6.427513
625.0667, 7.408138
625.5488, 7.157310
626.0309, 9.483772
626.5131, 15.63734
626.9952, 21.51662
627.4773, 20.88889
627.9594, 14.62978
628.4415, 10.01629
628.9236, 8.772449
629.4058, 9.855232
629.8879, 14.22762
630.3700, 20.07828
630.8521, 22.43355
631.3342, 13.52686
631.8163, 4.730522
632.2985, 6.107483
632.7806, 16.52145
633.2627, 21.50628
633.7448, 9.788971
634.2269, 2.307934
634.7090, 5.559978
635.1912, 3.912327
635.6733, 8.233131
636.1554, 4.818695
636.6375, 0.3092380
637.1196, 0.6986810
637.6017, 4.100685
638.0839, 7.838394
638.5660, 9.983265
639.0481, 9.944935
639.5302, 3.899235
640.0123, 5.908451
640.4944, 10.95113
640.9766, 3.497707
641.4587, 6.964966
641.9408, 11.28667
642.4229, 10.47730
642.9050, 9.116055
643.3871, 8.207764
643.8693, 8.087925
644.3514, 9.122635
644.8335, 11.54288
645.3156, 13.92573
645.7977, 17.68005
646.2798, 19.97755
646.7620, 18.40586
647.2441, 11.42513
647.7262, 6.331379
648.2083, 3.565495
648.6904, 2.636166
649.1725, 3.020233
649.6547, 4.694286
650.1368, 7.860771
650.6189, 13.70940
651.1010, 19.24601
651.5831, 19.25123
652.0652, 15.49180
652.5474, 13.04347
653.0295, 17.75760
653.5116, 21.66602
653.9937, 18.53052
654.4758, 8.621834
654.9579, 1.421574
655.4401, 1.347744
655.9222, 0.3070560
656.4043, 5.452492
656.8864, 18.31177
657.3685, 24.48986
657.8506, 21.75669
658.3328, 16.40036
658.8149, 14.46034
659.2970, 15.87301
659.7791, 17.57893
660.2612, 19.59314
660.7433, 20.52197
661.2255, 16.78424
661.7076, 10.43311
662.1897, 6.725441
662.6718, 10.20899
663.1539, 14.32499
663.6360, 13.97604
664.1181, 10.56815
664.6002, 8.184467
665.0823, 7.863899
665.5645, 9.008846
666.0466, 12.68132
666.5287, 18.80432
667.0108, 20.97447
667.4929, 17.29171
667.9750, 12.91885
668.4572, 11.26577
668.9393, 12.46253
669.4214, 11.13115
669.9035, 6.832981
670.3856, 2.971935
670.8677, 3.659676
671.3499, 7.467415
671.8320, 11.10071
672.3141, 14.16192
672.7962, 16.10617
673.2783, 15.82580
673.7604, 14.07829
674.2426, 12.50208
674.7247, 10.90899
675.2068, 10.62295
675.6889, 13.48399
676.1710, 18.06460
676.6531, 19.80271
677.1353, 16.95657
677.6174, 14.42508
678.0995, 13.96048
678.5816, 15.18203
679.0637, 15.15540
679.5458, 13.84184
680.0280, 11.77483
680.5101, 7.833408
680.9922, 3.676418
681.4743, 3.912933
681.9564, 8.891750
682.4385, 13.66911
682.9207, 14.62990
683.4028, 13.39711
683.8849, 11.17235
684.3670, 6.932850
684.8491, 4.628002
685.3312, 7.610794
685.8134, 11.98964
686.2955, 12.93188
686.7776, 8.217770
687.2597, 4.687321
687.7418, 2.988026
688.2239, 3.043682
688.7061, 5.466644
689.1882, 10.29273
689.6703, 14.10732
690.1524, 15.72199
690.6345, 15.53830
691.1166, 13.14010
691.5988, 9.236347
692.0809, 6.748226
692.5630, 9.167583
693.0451, 12.90043
693.5272, 14.87033
694.0093, 14.89632
694.4915, 13.64476
694.9736, 9.514015
695.4557, 5.766155
695.9378, 3.930252
696.4199, 4.288040
696.9020, 5.706806
697.3842, 8.808624
697.8663, 11.32742
698.3484, 10.66113
698.8305, 8.036835
699.3126, 8.294159
699.7947, 12.52256
700.2769, 16.97852
700.7590, 17.23428
701.2411, 14.56212
701.7232, 11.29647
702.2053, 7.537308
702.6874, 4.354809
703.1696, 1.646858
703.6517, 5.0941002E-02
704.1338, 0.4160190
704.6159, 6.533718
705.0980, 11.06630
705.5801, 11.47283
706.0623, 9.185192
706.5444, 11.11561
707.0265, 18.66518
707.5086, 24.26519
707.9907, 22.98545
708.4728, 16.98680
708.9550, 14.70619
709.4371, 15.92218
709.9192, 16.00682
710.4013, 9.211960
710.8834, 0.9552000
711.3655, 3.039433
711.8477, 1.911697
712.3298, 1.267582
712.8119, 7.839840
713.2940, 14.27998
713.7761, 18.14354
714.2582, 19.32222
714.7404, 17.65744
715.2225, 11.27101
715.7046, 4.371208
716.1867, 2.547157
716.6688, 5.999020
717.1509, 7.090580
717.6331, 3.738098
718.1152, 0.2686230
718.5973, 3.441330
719.0794, 10.51614
719.5615, 14.89641
720.0436, 11.79209
720.5258, 7.726288
721.0079, 7.247326
721.4900, 8.947315
721.9721, 9.156509
722.4542, 4.648582
722.9363, 1.249607
723.4185, 0.6155850
723.9006, 2.319885
724.3827, 3.831795
724.8648, 5.138458
725.3469, 6.526615
725.8290, 8.674595
726.3112, 10.69178
726.7933, 8.627983
727.2754, 2.732399
727.7575, 1.072170
728.2396, 4.253418
728.7217, 12.46012
729.2039, 16.57677
729.6859, 15.89975
730.1680, 13.74474
730.6501, 10.13685
731.1323, 6.680931
731.6144, 4.520622
732.0965, 3.417892
732.5786, 4.492630
733.0607, 9.028641
733.5428, 13.66418
734.0250, 16.50239
734.5071, 17.55793
734.9892, 17.42187
735.4713, 16.02227
735.9534, 14.00586
736.4355, 11.16330
736.9177, 8.436367
737.3998, 7.751377
737.8819, 10.76694
738.3640, 14.43624
738.8461, 18.39547
739.3282, 21.73352
739.8104, 22.72951
740.2925, 17.49367
740.7746, 14.55110
741.2567, 16.38349
741.7388, 20.94365
742.2209, 22.16721
742.7031, 19.80422
743.1852, 15.81926
743.6673, 9.816799
744.1494, 3.417938
744.6315, 0.6291470
745.1136, 1.055836
745.5958, 2.973785
746.0779, 6.405117
746.5600, 10.13076
747.0421, 13.83514
747.5242, 17.38794
748.0063, 19.02281
748.4885, 16.35102
748.9706, 13.50414
749.4527, 12.33298
749.9348, 13.00514
750.4169, 12.79113
750.8990, 11.09565
751.3812, 10.46407
751.8633, 14.98396
752.3454, 22.49194
752.8275, 23.41663
753.3096, 16.81980
753.7917, 8.988647
754.2739, 3.391224
754.7560, 0.4166830
755.2381, 1.472797
755.7202, 8.983757
756.2023, 13.75833
756.6844, 9.429626
757.1666, 3.606731
757.6487, 3.750877
758.1308, 13.53564
758.6129, 19.74114
759.0950, 21.32360
759.5771, 19.82214
760.0593, 16.81872
760.5414, 12.48153
761.0235, 7.781822
761.5056, 2.290970
761.9877, 1.829357
762.4698, 1.217754
762.9520, 2.291519
763.4341, 5.484089
763.9162, 7.463402
764.3983, 8.676399
764.8804, 8.363087
765.3625, 7.497299
765.8447, 8.381901
766.3268, 12.21135
766.8089, 15.14674
767.2910, 16.29728
767.7731, 16.03256
768.2552, 15.18568
768.7374, 13.78237
769.2195, 11.96676
769.7016, 9.420532
770.1837, 7.207977
770.6658, 7.092808
771.1479, 8.499756
771.6301, 9.283981
772.1122, 5.094383
772.5943, 3.379272
773.0764, 11.36385
773.5585, 27.46727
774.0406, 30.74729
774.5228, 14.48154
775.0049, 0.9857830
775.4870, 6.549870
775.9691, 3.503265
776.4512, 1.154949
776.9333, 7.386482
777.4155, 12.13868
777.8976, 12.22278
778.3797, 10.16800
778.8618, 9.270138
779.3439, 9.668373
779.8260, 9.271629
780.3082, 6.030933
780.7903, 2.632008
781.2724, 0.8560100
781.7545, 1.058109
782.2366, 0.6318860
782.7188, 1.380962
783.2009, 2.127495
783.6830, 1.052250
784.1651, 7.724110
784.6472, 15.26084
785.1293, 23.82608
785.6115, 28.26517
786.0936, 19.18020
786.5757, 5.556419
787.0578, 1.386925
787.5399, 1.298420
788.0220, 5.894829
788.5042, 14.49267
788.9863, 20.90773
789.4684, 18.65645
789.9505, 0.8160670
790.4326, 7.389816
790.9147, 3.353378
791.3969, 18.26717
791.8790, 21.45499
792.3611, 15.03759
792.8432, 11.09744
793.3253, 11.65571
793.8074, 14.17512
794.2896, 18.22955
794.7717, 22.31251
795.2537, 23.26659
795.7358, 18.56692
796.2180, 13.71585
796.7001, 7.960312
797.1822, 3.766396
797.6643, 4.569427
798.1464, 12.24360
798.6285, 18.77126
799.1107, 23.90485
799.5928, 26.36690
800.0749, 21.75689
800.5570, 12.42334
801.0391, 7.482239
801.5212, 11.72401
802.0034, 16.89170
802.4855, 15.48337
802.9676, 10.81285
803.4497, 7.449020
803.9318, 5.895912
804.4139, 6.907341
804.8961, 12.18574
805.3782, 19.08702
805.8603, 23.01389
806.3424, 23.79094
806.8245, 22.71143
807.3066, 19.49096
807.7888, 15.60645
808.2709, 13.92683
808.7530, 13.67136
809.2351, 12.55131
809.7172, 8.153351
810.1993, 4.455475
810.6815, 4.803345
811.1636, 7.352325
811.6457, 8.316677
812.1278, 4.237843
812.6099, 3.226295
813.0920, 8.205845
813.5742, 15.91070
814.0563, 18.05639
814.5384, 14.60641
815.0205, 10.73225
815.5026, 7.600090
815.9847, 5.740868
816.4669, 6.319405
816.9490, 8.804535
817.4311, 11.80442
817.9132, 15.68837
818.3953, 18.99377
818.8774, 22.23399
819.3596, 24.37614
819.8417, 21.87009
820.3238, 11.34138
820.8059, 4.620193
821.2880, 5.487705
821.7701, 10.98615
822.2523, 13.17211
822.7344, 12.59960
823.2165, 13.02864
823.6986, 18.30949
824.1807, 23.26973
824.6628, 21.63984
825.1450, 15.60554
825.6271, 10.95263
826.1092, 10.15143
826.5913, 10.16766
827.0734, 10.35867
827.5555, 10.72015
828.0377, 11.41121
828.5198, 12.59147
829.0019, 13.07127
829.4840, 11.90594
829.9661, 10.36323
830.4482, 11.48370
830.9304, 14.50401
831.4125, 16.81273
831.8946, 16.33868
832.3767, 15.50868
832.8588, 16.13280
833.3409, 17.23306
833.8231, 16.47454
834.3052, 11.32777
834.7873, 8.349281
835.2694, 9.974373
835.7515, 14.33516
836.2336, 15.38584
836.7158, 13.29836
837.1979, 11.89301
837.6800, 13.76742
838.1621, 16.07013
838.6442, 14.95592
839.1263, 11.54118
839.6085, 8.823376
840.0906, 9.135452
840.5727, 8.890728
841.0548, 5.887844
841.5369, 1.960636
842.0190, 1.910332
842.5012, 7.050167
842.9833, 10.69049
843.4654, 10.33054
843.9475, 7.956924
844.4296, 8.595612
844.9117, 10.94953
845.3939, 11.18265
845.8760, 3.617313
846.3581, 3.184715
846.8402, 3.635803
847.3223, 0.5748790
847.8044, 5.287140
848.2866, 11.67697
848.7687, 15.84729
849.2508, 15.64726
849.7329, 12.85046
850.2150, 12.34570
850.6971, 13.89023
851.1793, 12.29859
851.6614, 3.316658
852.1435, 5.489861
852.6256, 4.050369
853.1077, 3.982101
853.5898, 11.09939
854.0720, 16.11866
854.5541, 18.24519
855.0362, 15.18297
855.5183, 9.931057
856.0004, 7.653534
856.4825, 9.119583
856.9647, 9.864918
857.4468, 9.067173
857.9289, 7.023411
858.4110, 1.940697
858.8931, 3.983757
859.3752, 4.597359
859.8574, 6.242306
860.3395, 15.85819
860.8216, 16.71025
861.3036, 12.50206
861.7858, 8.813885
862.2679, 4.907433
862.7500, 4.103657
863.2321, 8.122627
863.7142, 13.16550
864.1964, 12.29845
864.6785, 6.757275
865.1606, 5.118523
865.6427, 10.54650
866.1248, 15.73774
866.6069, 12.64488
867.0891, 5.761349
867.5712, 0.7614020
868.0533, 1.278770
868.5354, 0.9890520
869.0175, 3.054783
869.4996, 7.925350
869.9818, 10.54334
870.4639, 10.78064
870.9460, 10.30891
871.4281, 8.951828
871.9102, 8.653656
872.3923, 14.14584
872.8745, 21.09238
873.3566, 22.01044
873.8387, 13.63165
874.3208, 7.012424
874.8029, 8.232605
875.2850, 11.43968
875.7672, 11.79008
876.2493, 7.829601
876.7314, 7.269524
877.2135, 11.14148
877.6956, 14.72178
878.1777, 12.37658
878.6599, 6.716515
879.1420, 4.379230
879.6241, 5.957245
880.1062, 7.762875
880.5883, 6.171978
881.0704, 4.986835
881.5526, 8.064880
882.0347, 16.93684
882.5168, 20.36978
882.9989, 16.58119
883.4810, 11.11248
883.9631, 5.864147
884.4453, 1.469479
884.9274, 3.424438
885.4095, 11.10193
885.8916, 16.88679
886.3737, 13.00705
886.8558, 7.292671
887.3380, 5.849072
887.8201, 8.866997
888.3022, 12.63231
888.7843, 19.92834
889.2664, 23.18692
889.7485, 17.89106
890.2307, 6.741634
890.7128, 3.486996
891.1949, 7.815960
891.6770, 11.97955
892.1591, 11.00105
892.6412, 8.638149
893.1234, 9.899326
893.6055, 13.24795
894.0876, 14.21039
894.5697, 7.522346
895.0518, 3.102600
895.5339, 4.291531
896.0161, 8.700550
896.4982, 10.11894
896.9803, 8.328617
897.4624, 7.348534
897.9445, 8.771118
898.4266, 10.55509
898.9088, 9.640312
899.3909, 7.109047
899.8730, 4.993073
900.3551, 3.134735
900.8372, 2.975170
901.3193, 6.511326
901.8015, 11.09774
902.2836, 13.89763
902.7657, 14.85763
903.2478, 13.58222
903.7299, 9.239746
904.2120, 5.155136
904.6942, 8.284985
905.1763, 14.77527
905.6584, 15.48495
906.1405, 6.918076
906.6226, 0.3142660
907.1047, 2.655495
907.5869, 7.948456
908.0690, 11.60081
908.5511, 13.76337
909.0332, 12.48666
909.5153, 6.465828
909.9974, 1.373840
910.4796, 5.834465
910.9617, 15.02574
911.4438, 15.38822
911.9259, 6.862095
912.4080, 1.7200001E-02
912.8901, 2.437042
913.3723, 6.625484
913.8544, 7.786743
914.3365, 6.102509
914.8186, 5.236923
915.3007, 5.011776
915.7828, 6.157902
916.2650, 9.170593
916.7471, 13.45043
917.2292, 20.84400
917.7113, 30.08165
918.1934, 33.30303
918.6755, 19.31532
919.1577, 5.176712
919.6398, 1.078140
920.1219, 4.723991
920.6040, 7.491768
921.0861, 9.427303
921.5682, 9.637428
922.0504, 7.300484
922.5325, 4.053070
923.0146, 3.621639
923.4967, 5.128368
923.9788, 5.270340
924.4609, 2.011337
924.9431, 0.8281710
925.4252, 1.344357
925.9073, 0.1345750
926.3894, 3.851418
926.8715, 12.96964
927.3536, 17.06161
927.8357, 14.15499
928.3178, 9.785393
928.7999, 10.77180
929.2820, 15.50986
929.7642, 18.11111
930.2463, 17.89428
930.7284, 15.91322
931.2105, 10.56834
931.6926, 5.453026
932.1747, 3.877525
932.6569, 6.930687
933.1390, 9.041927
933.6211, 10.12185
934.1032, 10.47727
934.5853, 9.533520
935.0674, 8.055351
935.5496, 9.942974
936.0317, 14.63203
936.5138, 17.99286
936.9959, 16.68523
937.4780, 14.14906
937.9601, 11.44137
938.4423, 9.181946
938.9244, 10.04865
939.4065, 16.92254
939.8886, 19.66038
940.3707, 13.63963
940.8528, 4.658501
941.3350, 7.392872
941.8171, 18.59990
942.2992, 26.26111
942.7813, 25.90515
943.2634, 21.86696
943.7455, 13.77766
944.2277, 4.776493
944.7098, 0.7722020
945.1919, 2.706913
945.6740, 0.8935510
946.1561, 5.970974
946.6382, 13.33154
947.1204, 15.71724
947.6025, 14.57017
948.0846, 14.10517
948.5667, 14.88881
949.0488, 14.98293
949.5309, 11.76835
950.0131, 8.533417
950.4952, 8.200489
950.9773, 11.12496
951.4594, 12.20909
951.9415, 11.05920
952.4236, 9.349461
952.9058, 7.708279
953.3879, 6.281067
953.8700, 4.915955
954.3521, 3.956436
954.8342, 4.897694
955.3163, 11.82550
955.7985, 17.33059
956.2806, 16.93821
956.7627, 12.62891
957.2448, 9.885818
957.7269, 9.107498
958.2090, 7.581230
958.6912, 3.978203
959.1733, 1.153126
959.6554, 5.744431
960.1375, 13.91809
960.6196, 17.38731
961.1017, 11.14538
961.5839, 6.871033
962.0660, 12.75571
962.5481, 19.56082
963.0302, 18.45460
963.5123, 6.730072
963.9944, 2.710087
964.4766, 7.498386
964.9587, 13.93254
965.4408, 14.95536
965.9229, 13.07171
966.4050, 14.07339
966.8871, 17.88670
967.3693, 19.04293
967.8514, 13.77664
968.3335, 7.171108
968.8156, 0.1908150
969.2977, 6.502453
969.7798, 9.308174
970.2620, 8.246483
970.7441, 4.952896
971.2262, 1.175327
971.7083, 7.403690
972.1904, 10.07184
972.6725, 10.60297
973.1547, 11.46397
973.6368, 12.96230
974.1189, 15.71067
974.6010, 21.70698
975.0831, 26.57662
975.5652, 22.92771
976.0474, 11.99146
976.5295, 7.808998
977.0116, 12.27747
977.4937, 17.87462
977.9758, 18.88860
978.4579, 17.99856
978.9401, 16.52283
979.4222, 13.74484
979.9043, 14.58432
980.3864, 22.16290
980.8685, 26.76780
981.3506, 22.23688
981.8328, 11.76226
982.3149, 4.914577
982.7970, 1.521450
983.2791, 1.352634
983.7612, 8.381512
984.2433, 14.36413
984.7255, 13.83001
985.2076, 9.354893
985.6897, 6.827785
986.1718, 6.109921
986.6539, 8.288094
987.1360, 14.17296
987.6182, 21.20187
988.1003, 28.01086
988.5824, 33.02352
989.0645, 31.77280
989.5466, 21.98471
990.0287, 14.55912
990.5109, 16.69085
990.9930, 20.23784
991.4751, 19.56470
991.9572, 14.49185
992.4393, 14.81205
992.9214, 20.94614
993.4035, 25.49387
993.8856, 21.54008
994.3677, 14.96659
994.8499, 13.09762
995.3320, 14.88884
995.8141, 16.89886
996.2962, 19.90675
996.7783, 20.29086
997.2604, 15.43914
997.7426, 9.652946
998.2247, 13.15554
998.7068, 24.18935
999.1889, 29.23714
999.6710, 24.32775
1000.153, 18.17390
1000.635, 17.69075
1001.117, 19.74710
1001.599, 21.65522
1002.082, 23.43230
1002.564, 23.46626
1003.046, 21.64173
1003.528, 18.33547
1004.010, 10.83547
1004.492, 2.311100
1004.974, 5.469051
1005.456, 17.82489
1005.939, 26.09167
1006.421, 18.57808
1006.903, 10.94102
1007.385, 11.11847
1007.867, 15.67361
1008.349, 17.52869
1008.831, 16.28940
1009.313, 15.45374
1009.795, 15.87228
1010.278, 16.28796
1010.760, 12.72146
1011.242, 9.254597
1011.724, 13.70967
1012.206, 31.88945
1012.688, 40.01494
1013.170, 27.06925
1013.652, 11.85295
1014.135, 3.787296
1014.617, 2.511177
1015.099, 7.533314
1015.581, 18.06406
1016.063, 25.11675
1016.545, 18.07419
1017.027, 10.50146
1017.509, 13.44387
1017.991, 23.33520
1018.474, 29.00482
1018.956, 28.39153
1019.438, 28.29298
1019.920, 30.62194
1020.402, 31.70617
1020.884, 24.43239
1021.366, 12.32975
1021.848, 2.073944
1022.331, 5.526733
1022.813, 7.985302
1023.295, 0.8402980
1023.777, 10.59312
1024.259, 14.99114
1024.741, 14.20896
1025.223, 14.80674
1025.705, 16.82215
1026.187, 18.17831
1026.670, 16.80359
1027.152, 14.51027
1027.634, 13.36079
1028.116, 13.60049
1028.598, 15.46429
1029.080, 21.47377
1029.562, 24.79532
1030.044, 24.10895
1030.526, 21.82988
1031.009, 21.60471
1031.491, 22.53848
1031.973, 21.06306
1032.455, 16.57390
1032.937, 12.61584
1033.419, 12.31081
1033.901, 12.36470
1034.383, 10.64480
1034.865, 7.235592
1035.348, 2.426197
1035.830, 4.418961
1036.312, 6.630798
1036.794, 1.190266
1037.276, 11.74369
1037.758, 14.44842
1038.240, 12.81449
1038.722, 13.57741
1039.205, 25.01848
1039.687, 29.28636
1040.169, 22.22186
1040.651, 12.26353
1041.133, 7.881859
1041.615, 8.475719
1042.097, 10.48877
1042.579, 13.43707
1043.062, 15.28407
1043.544, 14.75822
1044.026, 13.06336
1044.508, 9.197090
1044.990, 4.399223
1045.472, 5.883579
1045.954, 15.44165
1046.436, 21.68143
1046.918, 20.27640
1047.401, 16.19998
1047.883, 16.14131
1048.365, 18.30898
1048.847, 19.99249
1049.329, 21.48360
1049.811, 19.60646
1050.293, 10.26110
1050.775, 2.808125
1051.257, 6.140053
1051.740, 18.22721
1052.222, 20.72735
1052.704, 14.92781
1053.186, 10.51644
1053.668, 16.58427
1054.150, 23.22738
1054.632, 24.39478
1055.114, 21.62508
1055.597, 19.35555
1056.079, 17.78619
1056.561, 15.30174
1057.043, 11.06872
1057.525, 8.126179
1058.007, 11.83540
1058.489, 18.29359
1058.971, 22.29903
1059.453, 22.95103
1059.936, 21.96581
1060.418, 19.40317
1060.900, 15.56766
1061.382, 9.228096
1061.864, 2.218037
1062.346, 2.396835
1062.828, 8.355164
1063.310, 13.45389
1063.792, 14.91693
1064.275, 14.39032
1064.757, 11.72687
1065.239, 8.405956
1065.721, 6.269371
1066.203, 5.342796
1066.685, 5.852489
1067.167, 8.060425
1067.649, 9.522427
1068.132, 5.744030
1068.614, 1.637703
1069.096, 4.715988
1069.578, 13.93643
1070.060, 18.41413
1070.542, 13.39702
1071.024, 8.957386
1071.506, 6.668003
1071.989, 7.180405
1072.471, 14.79640
1072.953, 26.11430
1073.435, 31.03312
1073.917, 25.79810
1074.399, 19.56659
1074.881, 16.45587
1075.363, 14.66313
1075.845, 12.72199
1076.328, 10.68810
1076.810, 11.17774
1077.292, 14.13658
1077.774, 16.96440
1078.256, 19.41574
1078.738, 19.97181
1079.220, 14.80433
1079.702, 7.344761
1080.184, 4.721092
1080.667, 11.59517
1081.149, 13.24185
1081.631, 6.192223
1082.113, 4.3106001E-02
1082.595, 9.111397
1083.077, 23.92432
1083.559, 24.40237
1084.041, 10.37733
1084.524, 0.6201930
1085.006, 4.316704
1085.488, 10.91486
1085.970, 19.28652
1086.452, 27.10812
1086.934, 27.43987
1087.416, 21.57179
1087.898, 16.17693
1088.380, 12.44036
1088.863, 11.10225
1089.345, 14.50871
1089.827, 19.16166
1090.309, 22.33199
1090.791, 24.07680
1091.273, 23.93781
1091.755, 20.77724
1092.237, 18.14107
1092.719, 18.41391
1093.202, 19.42929
1093.684, 18.64622
1094.166, 16.63048
1094.648, 14.79704
1095.130, 11.66253
1095.612, 11.02285
1096.094, 13.68337
1096.576, 17.29668
1097.058, 21.45214
1097.541, 24.19086
1098.023, 19.08828
1098.505, 6.643795
1098.987, 2.984402
1099.469, 5.259514
1099.951, 4.450100
1100.433, 1.284779
1100.915, 3.342258
1101.398, 8.148476
1101.880, 12.77573
1102.362, 14.13596
1102.844, 10.52403
1103.326, 8.680149
1103.808, 17.28859
1104.290, 26.38398
1104.772, 26.57632
1105.255, 17.99600
1105.737, 15.67878
1106.219, 20.56066
1106.701, 23.21332
1107.183, 16.60748
1107.665, 8.298359
1108.147, 7.955025
1108.629, 11.31364
1109.111, 11.08623
1109.594, 0.9312630
1110.076, 2.788425
1110.558, 1.413235
1111.040, 7.631950
1111.522, 10.82473
1112.004, 12.50753
1112.486, 16.60395
1112.968, 22.31714
1113.450, 25.12464
1113.933, 20.10240
1114.415, 16.19729
1114.897, 15.28798
1115.379, 16.20576
1115.861, 18.35085
1116.343, 20.83564
1116.825, 18.15009
1117.307, 8.998379
1117.790, 3.788872
1118.272, 15.22239
1118.754, 25.84751
1119.236, 25.19023
1119.718, 15.59521
1120.200, 6.859402
1120.682, 0.9404530
1121.164, 2.210197
1121.646, 7.615524
1122.129, 17.06548
1122.611, 13.27882
1123.093, 5.334743
1123.575, 4.438530
1124.057, 13.25859
1124.539, 15.90034
1125.021, 11.39210
1125.503, 6.546890
1125.985, 4.380394
1126.468, 5.027630
1126.950, 11.92581
1127.432, 21.33506
1127.914, 24.81462
1128.396, 13.65460
1128.878, 8.482941
1129.360, 12.39194
1129.842, 17.01670
1130.325, 10.32285
1130.807, 1.547405
1131.289, 3.606174
1131.771, 3.518044
1132.253, 10.12883
1132.735, 12.24149
1133.217, 13.67514
1133.699, 15.39922
1134.182, 16.90794
1134.664, 17.42924
1135.146, 17.06618
1135.628, 14.87850
1136.110, 10.55295
1136.592, 8.313324
1137.074, 14.30016
1137.556, 19.02217
1138.038, 16.61551
1138.521, 8.941299
1139.003, 4.253506
1139.485, 2.558865
1139.967, 4.476444
1140.449, 11.95644
1140.931, 18.32150
1141.413, 17.18802
1141.895, 13.43822
1142.377, 12.00057
1142.860, 13.27980
1143.342, 13.47298
1143.824, 12.49319
1144.306, 11.89494
1144.788, 13.01643
1145.270, 14.44174
1145.752, 14.92980
1146.234, 14.65895
1146.717, 14.07525
1147.199, 14.32184
1147.681, 10.11818
1148.163, 0.4396630
1148.645, 7.337036
1149.127, 2.982723
1149.609, 19.04973
1150.091, 24.78825
1150.573, 21.49049
1151.056, 16.55541
1151.538, 8.337730
1152.020, 4.893353
1152.502, 8.292656
1152.984, 14.29278
1153.466, 18.91007
1153.948, 21.71729
1154.430, 20.85894
1154.912, 16.41737
1155.395, 11.37063
1155.877, 3.550682
1156.359, 0.2284850
1156.841, 2.903893
1157.323, 9.400799
1157.805, 12.75838
1158.287, 13.51452
1158.769, 12.37544
1159.251, 9.020138
1159.734, 6.136528
1160.216, 4.108929
1160.698, 3.923878
1161.180, 7.215622
1161.662, 12.41149
1162.144, 12.14854
1162.626, 7.290359
1163.108, 1.972752
1163.591, 3.819901
1164.073, 6.325356
1164.555, 1.001724
1165.037, 6.512054
1165.519, 11.99390
1166.001, 15.40976
1166.483, 16.61874
1166.965, 15.74298
1167.448, 14.43408
1167.930, 13.83711
1168.412, 12.86700
1168.894, 8.647724
1169.376, 4.342438
1169.858, 4.770447
1170.340, 10.92938
1170.822, 14.07395
1171.304, 13.91179
1171.786, 12.48189
1172.269, 10.02039
1172.751, 8.130909
1173.233, 8.289898
1173.715, 10.08674
1174.197, 12.50989
1174.679, 16.30540
1175.161, 16.18314
1175.643, 10.92853
1176.126, 6.572140
1176.608, 11.75713
1177.090, 18.13905
1177.572, 16.25160
1178.054, 6.978752
1178.536, 2.574562
1179.018, 4.751255
1179.500, 5.960072
1179.983, 4.049286
1180.465, 1.872097
1180.947, 3.598988
1181.429, 6.544662
1181.911, 6.663219
1182.393, 3.253880
1182.875, 4.009022
1183.357, 10.43573
1183.839, 17.28421
1184.322, 23.70640
1184.804, 27.98880
1185.286, 27.64906
1185.768, 23.50472
1186.250, 15.60472
1186.732, 1.699253
1187.214, 5.133091
1187.696, 2.761608
1188.178, 1.795738
1188.661, 5.725780
1189.143, 8.825645
1189.625, 10.84233
1190.107, 11.92780
1190.589, 13.07150
1191.071, 16.18610
1191.553, 14.63896
1192.035, 5.093956
1192.518, 1.687351
1193.000, 4.364452
1193.482, 16.61543
1193.964, 19.77282
1194.446, 16.69473
1194.928, 15.09502
1195.410, 22.63118
1195.892, 22.92963
1196.375, 11.26137
1196.857, 0.1628610
1197.339, 3.811398
1197.821, 15.24481
1198.303, 17.72764
1198.785, 12.57702
1199.267, 7.218826
1199.749, 2.276505
1200.231, 0.6597520
1200.714, 3.573212
1201.196, 8.243740
1201.678, 12.48412
1202.160, 15.79993
1202.642, 15.84304
1203.124, 13.16504
1203.606, 12.79001
1204.088, 20.67767
1204.570, 25.65473
1205.053, 24.72846
1205.535, 20.97382
1206.017, 16.94024
1206.499, 13.28074
1206.981, 14.70638
1207.463, 20.89841
1207.945, 24.33880
1208.427, 18.51739
1208.910, 14.50440
1209.392, 16.47638
1209.874, 19.81653
1210.356, 13.57956
1210.838, 2.238182
1211.320, 2.355385
1211.802, 2.106373
1212.284, 8.421524
1212.766, 16.54988
1213.249, 21.86478
1213.731, 22.21723
1214.213, 19.31189
1214.695, 16.74430
1215.177, 14.37740
1215.659, 11.60613
1216.141, 7.722153
1216.623, 6.672020
1217.105, 12.88135
1217.588, 17.18203
1218.070, 14.70613
1218.552, 8.564037
1219.034, 6.508400
1219.516, 7.672379
1219.998, 9.986603
1220.480, 13.26560
1220.962, 16.57565
1221.445, 20.54987
1221.927, 22.55099
1222.409, 20.82264
1222.891, 16.77369
1223.373, 14.81139
1223.855, 14.46999
1224.337, 14.60660
1224.819, 15.05633
1225.301, 15.49125
1225.784, 15.53077
1226.266, 16.13131
1226.748, 18.44829
1227.230, 21.58745
1227.712, 23.41983
1228.194, 23.96655
1228.676, 23.09974
1229.158, 20.29932
1229.641, 17.66504
1230.123, 15.80318
1230.605, 13.35307
1231.087, 7.936432
1231.569, 1.639072
1232.051, 0.8850400
1232.533, 0.1171460
1233.015, 3.798965
1233.497, 15.87392
1233.979, 20.43252
1234.462, 13.55571
1234.944, 5.517120
1235.426, 6.360283
1235.908, 12.17659
1236.390, 16.54694
1236.872, 19.05742
1237.354, 19.13720
1237.836, 12.83865
1238.319, 10.41377
1238.801, 13.31129
1239.283, 17.98626
1239.765, 22.32874
1240.247, 25.23428
1240.729, 23.20176
1241.211, 17.61224
1241.693, 15.46743
1242.176, 21.43177
1242.658, 22.30606
1243.140, 15.12012
1243.622, 8.172314
1244.104, 13.17299
1244.586, 21.72245
1245.068, 20.65721
1245.550, 11.96698
1246.032, 9.082024
1246.515, 15.12929
1246.997, 19.78026
1247.479, 21.74342
1247.961, 21.57943
1248.443, 18.29470
1248.925, 14.41289
1249.407, 13.31358
1249.889, 14.48954
1250.371, 12.54555
1250.854, 5.930859
1251.336, 4.432190
1251.818, 10.61222
1252.300, 17.09869
1252.782, 15.56306
1253.264, 11.37438
1253.746, 8.933681
1254.228, 8.548958
1254.711, 9.355152
1255.193, 11.32015
1255.675, 15.85262
1256.157, 23.98630
1256.639, 29.65022
1257.121, 24.89806
1257.603, 17.78157
1258.085, 15.00707
1258.568, 15.67012
1259.050, 15.97452
1259.532, 15.88776
1260.014, 13.39286
1260.496, 7.779743
1260.978, 2.525974
1261.460, 1.877033
1261.942, 2.733913
1262.424, 3.440372
1262.906, 13.90607
1263.389, 19.48813
1263.871, 20.65320
1264.353, 21.48842
1264.835, 22.84253
1265.317, 23.46789
1265.799, 22.59631
1266.281, 19.92176
1266.763, 13.64817
1267.246, 6.741611
1267.728, 10.94024
1268.210, 22.21933
1268.692, 23.53378
1269.174, 8.897778
1269.656, 2.396362
1270.138, 0.7018890
1270.620, 5.654854
1271.103, 8.114422
1271.585, 9.057281
1272.067, 10.60757
1272.549, 12.55285
1273.031, 14.36684
1273.513, 15.96495
1273.995, 17.31381
1274.477, 18.07919
1274.959, 19.35748
1275.442, 22.61629
1275.924, 25.33455
1276.406, 21.39478
1276.888, 14.14732
1277.370, 9.450615
1277.852, 8.893925
1278.334, 8.230240
1278.816, 6.936199
1279.298, 6.300114
1279.781, 6.785931
1280.263, 8.253212
1280.745, 11.14206
1281.227, 14.58447
1281.709, 17.74361
1282.191, 20.67258
1282.673, 21.15107
1283.155, 19.10210
1283.638, 15.05556
1284.120, 8.406147
1284.602, 1.914051
1285.084, 3.660931
1285.566, 6.156075
1286.048, 1.453487
1286.530, 9.567005
1287.012, 12.88807
1287.495, 8.920624
1287.977, 9.410633
1288.459, 21.36985
1288.941, 30.53775
1289.423, 21.96931
1289.905, 11.08002
1290.387, 11.65099
1290.869, 20.50927
1291.351, 23.74137
1291.833, 22.21684
1292.316, 19.99554
1292.798, 17.80919
1293.280, 16.80486
1293.762, 18.16242
1294.244, 20.08186
1294.726, 21.54633
1295.208, 21.99037
1295.690, 18.50427
1296.172, 12.92388
1296.655, 9.747013
1297.137, 10.58953
1297.619, 12.46373
1298.101, 15.99205
1298.583, 17.61002
1299.065, 14.37799
1299.547, 10.30868
1300.029, 14.24781
1300.512, 21.52685
1300.994, 24.27300
1301.476, 18.58348
1301.958, 14.04291
1302.440, 14.55823
1302.922, 14.02768
1303.404, 9.406109
1303.886, 6.262058
1304.369, 13.90763
1304.851, 24.52313
1305.333, 28.80576
1305.815, 26.88070
1306.297, 22.33774
1306.779, 15.26252
1307.261, 11.94062
1307.743, 15.80709
1308.225, 20.08968
1308.708, 19.59488
1309.190, 18.08377
1309.672, 18.82451
1310.154, 20.98893
1310.636, 18.51738
1311.118, 12.75949
1311.600, 10.28341
1312.082, 14.48113
1312.564, 15.89803
1313.047, 6.050007
1313.529, 0.5704500
1314.011, 4.110714
1314.493, 13.73665
1314.975, 13.29247
1315.457, 6.938648
1315.939, 0.8703770
1316.421, 4.8324998E-02
1316.904, 0.9782370
1317.386, 0.0000000E+00
##END=



