##NAMES=Petersenite-(Ce)
##RRUFFID=R120035
##IDEAL CHEMISTRY=Na_4_Ce^3+^_2_(CO_3_)_5_
##LOCALITY=Mont Saint-Hilaire, Rouville RCM, Montérégie, Québec, Canada
##OWNER=RRUFF
##SOURCE=Donald Doell
##DESCRIPTION=Pale yellow or pink (depending on light source) hexagonal prismatic crystals, associated with albite and aegirine.
##STATUS=The identification of this mineral is confirmed by single-crystal X-ray diffraction and chemical analysis.
##URL=rruff.info/R120035
##MEASURED CHEMISTRY=(Na_2.92_K_0.03_Ca_0.58_Ba_0.24_Sr_0.22_)(Ce_1.07_La_0.51_Nd_0.31_Pr_0.12_)(CO_3_)_5_
94.01410, 14172.84
94.49622, 14283.50
94.97833, 14315.37
95.46045, 14350.88
95.94257, 14389.77
96.42468, 14393.95
96.90680, 14364.64
97.38892, 14327.27
97.87103, 14280.64
98.35315, 14214.73
98.83527, 14139.08
99.31738, 14106.76
99.79950, 14140.02
100.2816, 14158.59
100.7637, 14141.58
101.2458, 14117.52
101.7280, 14111.88
102.2101, 14130.83
102.6922, 14164.17
103.1743, 14200.38
103.6564, 14240.02
104.1385, 14271.29
104.6207, 14272.66
105.1028, 14257.24
105.5849, 14273.94
106.0670, 14351.27
106.5491, 14450.54
107.0313, 14531.30
107.5134, 14591.42
107.9955, 14634.91
108.4776, 14658.33
108.9597, 14653.67
109.4418, 14662.41
109.9240, 14703.62
110.4061, 14757.37
110.8882, 14806.80
111.3703, 14844.46
111.8524, 14880.88
112.3345, 14948.08
112.8167, 15097.44
113.2988, 15208.10
113.7809, 15247.49
114.2630, 15243.54
114.7451, 15229.54
115.2272, 15225.08
115.7094, 15230.30
116.1915, 15250.94
116.6736, 15305.44
117.1557, 15354.59
117.6378, 15377.34
118.1199, 15380.14
118.6021, 15387.45
119.0842, 15420.15
119.5663, 15481.05
120.0484, 15540.94
120.5305, 15616.90
121.0126, 15682.04
121.4948, 15701.87
121.9769, 15667.65
122.4590, 15628.42
122.9411, 15638.20
123.4232, 15685.18
123.9053, 15740.05
124.3875, 15798.43
124.8696, 15857.84
125.3517, 15909.14
125.8338, 15943.35
126.3159, 15981.12
126.7980, 16042.45
127.2802, 16122.39
127.7623, 16197.05
128.2444, 16242.92
128.7265, 16256.20
129.2086, 16279.26
129.6907, 16327.93
130.1729, 16378.46
130.6550, 16422.77
131.1371, 16458.68
131.6192, 16486.13
132.1013, 16503.25
132.5834, 16500.65
133.0656, 16506.78
133.5477, 16515.79
134.0298, 16535.35
134.5119, 16572.85
134.9940, 16630.31
135.4761, 16702.90
135.9583, 16779.68
136.4404, 16883.61
136.9225, 16962.22
137.4046, 16988.53
137.8867, 16992.83
138.3688, 17022.06
138.8510, 17102.43
139.3331, 17212.22
139.8152, 17276.84
140.2973, 17256.44
140.7794, 17257.34
141.2615, 17337.02
141.7437, 17481.20
142.2258, 17628.18
142.7079, 17747.33
143.1900, 17846.60
143.6721, 17948.25
144.1542, 18059.01
144.6364, 18165.33
145.1185, 18256.20
145.6006, 18331.90
146.0827, 18390.01
146.5648, 18400.94
147.0469, 18402.42
147.5291, 18435.08
148.0112, 18516.67
148.4933, 18634.04
148.9754, 18764.40
149.4575, 18934.76
149.9396, 19069.26
150.4218, 19122.18
150.9039, 19136.90
151.3860, 19169.53
151.8681, 19254.00
152.3502, 19385.75
152.8323, 19519.60
153.3145, 19661.72
153.7966, 19800.06
154.2787, 19930.19
154.7608, 20055.04
155.2429, 20183.29
155.7250, 20324.86
156.2072, 20482.30
156.6893, 20605.57
157.1714, 20655.75
157.6535, 20714.59
158.1356, 20819.86
158.6177, 20968.63
159.0999, 21135.57
159.5820, 21301.18
160.0641, 21467.10
160.5462, 21608.25
161.0283, 21699.83
161.5104, 21784.16
161.9926, 21887.88
162.4747, 22014.69
162.9568, 22166.05
163.4389, 22359.58
163.9210, 22592.28
164.4031, 22785.67
164.8853, 22897.02
165.3674, 22969.94
165.8495, 23064.14
166.3316, 23189.87
166.8137, 23334.56
167.2958, 23489.83
167.7780, 23654.12
168.2601, 23823.72
168.7422, 24002.79
169.2243, 24187.43
169.7064, 24357.21
170.1885, 24500.53
170.6707, 24639.75
171.1528, 24781.55
171.6349, 24929.30
172.1170, 25095.97
172.5991, 25297.74
173.0812, 25536.34
173.5634, 25772.55
174.0455, 25998.43
174.5276, 26228.41
175.0097, 26474.10
175.4918, 26732.24
175.9739, 26985.95
176.4561, 27209.98
176.9382, 27390.26
177.4203, 27594.71
177.9024, 27841.61
178.3845, 28094.86
178.8666, 28324.06
179.3488, 28530.33
179.8309, 28748.06
180.3130, 29025.71
180.7951, 29409.61
181.2772, 29747.75
181.7593, 29999.92
182.2415, 30237.72
182.7236, 30510.88
183.2057, 30831.62
183.6878, 31181.21
184.1699, 31533.27
184.6520, 31896.66
185.1342, 32242.94
185.6163, 32531.47
186.0984, 32818.87
186.5805, 33177.75
187.0626, 33632.82
187.5447, 34125.45
188.0269, 34545.29
188.5090, 34862.91
188.9911, 35238.57
189.4732, 35753.49
189.9553, 36342.28
190.4374, 36882.71
190.9196, 37337.34
191.4017, 37749.52
191.8838, 38182.95
192.3659, 38633.74
192.8480, 39099.99
193.3301, 39585.41
193.8123, 40085.99
194.2944, 40590.58
194.7765, 41093.59
195.2586, 41602.20
195.7407, 42123.97
196.2228, 42657.74
196.7050, 43194.62
197.1871, 43729.86
197.6692, 44263.42
198.1513, 44790.67
198.6334, 45271.67
199.1155, 45783.67
199.5977, 46398.60
200.0798, 47115.98
200.5619, 47841.60
201.0440, 48472.06
201.5261, 48990.71
202.0082, 49552.24
202.4904, 50208.18
202.9725, 50893.73
203.4546, 51590.28
203.9367, 52291.70
204.4188, 52994.01
204.9009, 53680.44
205.3831, 54327.62
205.8652, 55030.57
206.3473, 55857.10
206.8294, 56685.52
207.3115, 57438.25
207.7936, 58104.20
208.2758, 58730.55
208.7579, 59373.30
209.2400, 60024.12
209.7221, 60712.76
210.2042, 61455.27
210.6863, 62213.87
211.1685, 62972.33
211.6506, 63724.58
212.1327, 64466.97
212.6148, 65199.95
213.0969, 65911.55
213.5790, 66625.13
214.0612, 67356.23
214.5433, 68077.45
215.0254, 68772.69
215.5075, 69433.70
215.9896, 70078.89
216.4717, 70726.80
216.9539, 71381.87
217.4360, 72037.38
217.9181, 72690.77
218.4002, 73346.97
218.8823, 74024.92
219.3644, 74727.51
219.8466, 75424.52
220.3287, 76064.24
220.8108, 76635.36
221.2929, 77234.83
221.7750, 77904.89
222.2571, 78599.36
222.7393, 79264.01
223.2214, 79886.70
223.7035, 80480.01
224.1856, 81048.45
224.6677, 81593.11
225.1498, 82125.08
225.6320, 82622.15
226.1141, 83114.29
226.5962, 83667.97
227.0783, 84319.03
227.5604, 84959.42
228.0425, 85464.67
228.5247, 85861.74
229.0068, 86262.95
229.4889, 86727.64
229.9710, 87221.18
230.4531, 87661.92
230.9352, 88017.34
231.4174, 88366.87
231.8995, 88780.54
232.3816, 89237.07
232.8637, 89678.63
233.3458, 90077.57
233.8279, 90440.09
234.3101, 90788.21
234.7922, 91102.22
235.2743, 91432.08
235.7564, 91816.98
236.2385, 92235.09
236.7206, 92646.55
237.2028, 93032.86
237.6849, 93392.69
238.1670, 93730.61
238.6491, 94063.60
239.1312, 94341.73
239.6133, 94520.04
240.0955, 94642.91
240.5776, 94782.48
241.0597, 94970.42
241.5418, 95211.08
242.0239, 95532.34
242.5060, 96039.95
242.9882, 96482.90
243.4703, 96743.87
243.9524, 96910.17
244.4345, 97105.52
244.9166, 97398.02
245.3987, 97776.86
245.8809, 98190.02
246.3630, 98687.37
246.8451, 99153.60
247.3272, 99551.16
247.8093, 99910.04
248.2914, 100263.2
248.7736, 100627.9
249.2557, 101004.9
249.7378, 101392.9
250.2199, 101793.2
250.7020, 102207.7
251.1841, 102616.4
251.6663, 103043.6
252.1484, 103528.3
252.6305, 104093.8
253.1126, 104699.3
253.5947, 105228.2
254.0768, 105545.8
254.5590, 105943.2
255.0411, 106484.3
255.5232, 107095.8
256.0053, 107690.9
256.4874, 108231.4
256.9695, 108762.4
257.4517, 109391.1
257.9338, 110200.6
258.4159, 111023.5
258.8980, 111854.3
259.3801, 112700.8
259.8622, 113581.7
260.3444, 114502.3
260.8265, 115447.7
261.3086, 116388.2
261.7907, 117330.4
262.2728, 118265.1
262.7549, 119147.3
263.2371, 120047.5
263.7192, 121035.0
264.2013, 122130.2
264.6834, 123292.2
265.1655, 124467.6
265.6476, 125664.5
266.1298, 126846.3
266.6119, 128034.1
267.0940, 129201.1
267.5761, 130301.9
268.0582, 131335.8
268.5403, 132351.8
269.0225, 133405.7
269.5046, 134504.1
269.9867, 135629.2
270.4688, 136851.5
270.9509, 138053.8
271.4330, 139124.4
271.9152, 140051.5
272.3973, 140921.3
272.8794, 141807.0
273.3615, 142711.3
273.8436, 143573.4
274.3257, 144384.3
274.8079, 145162.8
275.2900, 145917.0
275.7721, 146649.4
276.2542, 147349.1
276.7363, 148027.0
277.2184, 148659.6
277.7006, 149191.2
278.1827, 149535.1
278.6648, 149841.6
279.1469, 150239.6
279.6290, 150712.4
280.1111, 151118.0
280.5933, 151350.9
281.0754, 151452.5
281.5575, 151601.1
282.0396, 151862.1
282.5217, 152091.8
283.0038, 152208.2
283.4860, 152218.9
283.9681, 152153.5
284.4502, 151993.6
284.9323, 151790.4
285.4144, 151649.3
285.8965, 151580.4
286.3787, 151543.8
286.8608, 151536.6
287.3429, 151548.4
287.8250, 151541.1
288.3071, 151502.5
288.7892, 151437.3
289.2714, 151352.9
289.7535, 151248.8
290.2356, 151135.3
290.7177, 151059.8
291.1998, 150979.9
291.6819, 150765.7
292.1641, 150350.5
292.6462, 149865.6
293.1283, 149426.0
293.6104, 149029.9
294.0925, 148710.5
294.5746, 148530.6
295.0568, 148429.7
295.5389, 148296.6
296.0210, 148125.8
296.5031, 147901.5
296.9852, 147598.1
297.4673, 147230.2
297.9495, 146817.0
298.4316, 146355.7
298.9137, 145857.6
299.3958, 145336.9
299.8779, 144791.9
300.3600, 144233.1
300.8422, 143662.2
301.3243, 143083.3
301.8064, 142506.4
302.2885, 141890.3
302.7706, 141311.8
303.2527, 140898.7
303.7349, 140664.6
304.2170, 140376.9
304.6991, 139874.7
305.1812, 139278.1
305.6633, 138752.0
306.1454, 138332.5
306.6276, 137948.6
307.1097, 137527.0
307.5918, 137073.3
308.0739, 136670.7
308.5560, 136364.4
309.0381, 136115.2
309.5203, 135876.6
310.0024, 135646.4
310.4845, 135423.8
310.9666, 135188.6
311.4487, 134953.2
311.9308, 134780.6
312.4130, 134681.0
312.8951, 134657.1
313.3772, 134710.6
313.8593, 134834.5
314.3414, 134995.4
314.8235, 135179.8
315.3057, 135388.3
315.7878, 135632.8
316.2699, 135928.2
316.7520, 136223.4
317.2341, 136436.8
317.7162, 136617.9
318.1984, 136887.7
318.6805, 137336.5
319.1626, 137877.0
319.6447, 138366.5
320.1268, 138791.6
320.6089, 139233.8
321.0911, 139722.0
321.5732, 140266.7
322.0553, 140894.8
322.5374, 141642.1
323.0195, 142429.8
323.5016, 143169.4
323.9838, 143864.7
324.4659, 144570.9
324.9480, 145307.3
325.4301, 146065.8
325.9122, 146818.8
326.3943, 147564.9
326.8765, 148341.4
327.3586, 149202.2
327.8407, 150131.2
328.3228, 151016.3
328.8049, 151812.0
329.2870, 152581.7
329.7692, 153404.3
330.2513, 154270.8
330.7334, 155094.5
331.2155, 155793.4
331.6976, 156419.9
332.1797, 157094.4
332.6619, 157833.7
333.1440, 158607.9
333.6261, 159421.0
334.1082, 160251.5
334.5903, 161053.2
335.0724, 161772.3
335.5546, 162468.4
336.0367, 163242.8
336.5188, 164104.9
337.0009, 164916.3
337.4830, 165580.2
337.9651, 166142.6
338.4473, 166688.3
338.9294, 167226.9
339.4115, 167749.6
339.8936, 168253.7
340.3757, 168738.5
340.8578, 169178.0
341.3400, 169548.3
341.8221, 169884.9
342.3042, 170251.0
342.7863, 170657.0
343.2684, 171041.6
343.7505, 171366.4
344.2327, 171647.8
344.7148, 171932.4
345.1969, 172240.4
345.6790, 172524.5
346.1611, 172714.1
346.6432, 172824.0
347.1254, 172922.4
347.6075, 173070.7
348.0896, 173195.3
348.5717, 173203.9
349.0538, 173087.8
349.5359, 172884.9
350.0181, 172599.4
350.5002, 172241.7
350.9823, 171877.6
351.4644, 171548.5
351.9465, 171183.2
352.4286, 170724.3
352.9108, 170183.6
353.3929, 169604.7
353.8750, 169004.2
354.3571, 168384.7
354.8392, 167750.5
355.3214, 167097.5
355.8035, 166444.1
356.2856, 165853.9
356.7677, 165259.9
357.2498, 164528.8
357.7319, 163612.1
358.2141, 162603.3
358.6962, 161597.5
359.1783, 160585.7
359.6604, 159635.5
360.1425, 158817.2
360.6246, 158020.8
361.1068, 157153.2
361.5889, 156198.5
362.0710, 155202.8
362.5531, 154204.0
363.0352, 153196.1
363.5173, 152144.4
363.9995, 151007.3
364.4816, 149867.1
364.9637, 148744.8
365.4458, 147651.8
365.9279, 146619.5
366.4100, 145672.3
366.8922, 144778.8
367.3743, 143851.5
367.8564, 142830.7
368.3385, 141859.6
368.8206, 141002.2
369.3027, 140182.8
369.7849, 139328.6
370.2670, 138420.3
370.7491, 137457.4
371.2312, 136427.9
371.7133, 135287.6
372.1954, 134241.7
372.6776, 133345.6
373.1597, 132493.5
373.6418, 131628.1
374.1239, 130743.9
374.6060, 129844.6
375.0881, 128913.2
375.5703, 127957.8
376.0524, 127122.0
376.5345, 126542.5
377.0166, 125919.9
377.4987, 125142.2
377.9808, 124289.0
378.4630, 123474.9
378.9451, 122752.4
379.4272, 122096.8
379.9093, 121453.9
380.3914, 120838.8
380.8735, 120204.8
381.3557, 119530.9
381.8378, 118853.3
382.3199, 118177.3
382.8020, 117511.9
383.2841, 116892.5
383.7662, 116368.6
384.2484, 115951.5
384.7305, 115534.1
385.2126, 115141.2
385.6947, 114719.9
386.1768, 114216.3
386.6589, 113672.4
387.1411, 113174.3
387.6232, 112780.5
388.1053, 112454.8
388.5874, 112064.3
389.0695, 111554.9
389.5516, 111084.4
390.0338, 110705.9
390.5159, 110365.1
390.9980, 110007.9
391.4801, 109619.0
391.9622, 109243.2
392.4443, 108956.6
392.9265, 108776.2
393.4086, 108523.6
393.8907, 108095.1
394.3728, 107667.5
394.8549, 107346.0
395.3370, 107117.6
395.8192, 106916.1
396.3013, 106719.9
396.7834, 106517.9
397.2655, 106265.5
397.7476, 105939.7
398.2297, 105624.8
398.7119, 105378.4
399.1940, 105164.4
399.6761, 104935.0
400.1582, 104664.7
400.6403, 104404.7
401.1224, 104212.4
401.6046, 104083.1
402.0867, 103973.0
402.5688, 103890.7
403.0509, 103796.1
403.5330, 103640.1
404.0151, 103422.5
404.4973, 103193.1
404.9794, 102972.1
405.4615, 102754.0
405.9436, 102528.2
406.4257, 102294.1
406.9078, 102058.3
407.3900, 101834.6
407.8721, 101616.9
408.3542, 101372.2
408.8363, 101034.8
409.3184, 100728.1
409.8005, 100579.9
410.2827, 100541.4
410.7648, 100440.6
411.2469, 100194.6
411.7290, 99859.01
412.2111, 99553.11
412.6932, 99276.41
413.1754, 99023.84
413.6575, 98834.72
414.1396, 98647.93
414.6217, 98386.99
415.1038, 98043.62
415.5859, 97678.02
416.0681, 97349.55
416.5502, 97062.64
417.0323, 96764.73
417.5144, 96480.19
417.9965, 96161.85
418.4786, 95739.15
418.9608, 95274.91
419.4429, 94896.21
419.9250, 94672.98
420.4071, 94541.96
420.8892, 94327.43
421.3713, 93982.39
421.8535, 93620.01
422.3356, 93242.70
422.8177, 92850.98
423.2998, 92439.30
423.7819, 92010.08
424.2640, 91584.00
424.7462, 91185.07
425.2283, 90814.39
425.7104, 90429.67
426.1925, 90026.62
426.6746, 89612.27
427.1567, 89164.59
427.6389, 88711.96
428.1210, 88308.01
428.6031, 87984.50
429.0852, 87694.56
429.5673, 87348.80
430.0494, 86941.01
430.5316, 86499.60
431.0137, 85962.46
431.4958, 85444.11
431.9779, 85049.48
432.4600, 84773.47
432.9421, 84488.66
433.4243, 84079.25
433.9064, 83576.77
434.3885, 83120.02
434.8706, 82730.18
435.3527, 82347.88
435.8348, 81933.16
436.3170, 81498.94
436.7991, 81058.46
437.2812, 80607.04
437.7633, 80163.55
438.2454, 79742.74
438.7275, 79343.09
439.2097, 78969.53
439.6918, 78632.43
440.1739, 78312.05
440.6560, 77984.62
441.1381, 77650.91
441.6202, 77300.00
442.1024, 76928.85
442.5845, 76539.70
443.0666, 76127.45
443.5487, 75694.01
444.0308, 75274.04
444.5129, 74897.82
444.9951, 74560.66
445.4772, 74198.89
445.9593, 73771.70
446.4414, 73373.46
446.9235, 73067.81
447.4056, 72799.09
447.8878, 72472.61
448.3699, 72057.40
448.8520, 71613.80
449.3341, 71231.65
449.8162, 70933.20
450.2983, 70640.96
450.7805, 70359.54
451.2626, 70079.89
451.7447, 69791.14
452.2268, 69499.05
452.7089, 69220.84
453.1910, 68973.15
453.6732, 68741.52
454.1553, 68465.04
454.6374, 68118.05
455.1195, 67767.02
455.6016, 67417.15
456.0837, 67072.70
456.5659, 66737.88
457.0480, 66411.38
457.5301, 66098.98
458.0122, 65790.60
458.4943, 65486.39
458.9764, 65271.95
459.4586, 65231.34
459.9407, 65157.58
460.4228, 64924.19
460.9049, 64591.98
461.3870, 64265.51
461.8691, 63978.36
462.3513, 63716.63
462.8334, 63480.75
463.3155, 63268.66
463.7976, 63020.32
464.2797, 62693.20
464.7618, 62350.85
465.2440, 62078.69
465.7261, 61876.64
466.2082, 61673.29
466.6903, 61445.42
467.1724, 61202.20
467.6545, 60940.49
468.1367, 60664.52
468.6188, 60421.69
469.1009, 60260.73
469.5830, 60156.29
470.0651, 59974.15
470.5472, 59622.47
471.0294, 59321.52
471.5115, 59164.92
471.9936, 59074.05
472.4757, 58953.68
472.9578, 58778.66
473.4399, 58574.94
473.9221, 58376.44
474.4042, 58192.86
474.8863, 57955.09
475.3684, 57601.00
475.8505, 57262.78
476.3326, 57006.47
476.8148, 56796.75
477.2969, 56568.60
477.7790, 56291.60
478.2611, 55989.15
478.7432, 55710.19
479.2253, 55452.91
479.7075, 55228.66
480.1896, 55078.50
480.6717, 54930.25
481.1538, 54740.13
481.6359, 54513.70
482.1180, 54287.49
482.6002, 54095.94
483.0823, 53920.48
483.5644, 53704.18
484.0465, 53443.92
484.5286, 53156.12
485.0107, 52806.52
485.4929, 52455.27
485.9750, 52178.95
486.4571, 51998.26
486.9392, 51834.69
487.4213, 51652.48
487.9034, 51451.29
488.3856, 51219.55
488.8677, 50947.51
489.3498, 50696.75
489.8319, 50541.75
490.3140, 50468.98
490.7961, 50314.13
491.2783, 49986.91
491.7604, 49672.58
492.2425, 49482.24
492.7246, 49358.16
493.2067, 49182.62
493.6888, 48915.00
494.1710, 48614.90
494.6531, 48378.96
495.1352, 48232.33
495.6173, 48073.45
496.0994, 47907.25
496.5815, 47726.21
497.0637, 47524.82
497.5458, 47306.37
498.0279, 47072.90
498.5100, 46822.63
498.9921, 46571.64
499.4742, 46361.97
499.9564, 46218.58
500.4385, 46053.32
500.9206, 45824.63
501.4027, 45591.83
501.8848, 45385.46
502.3669, 45208.92
502.8491, 45061.84
503.3312, 44969.77
503.8133, 44901.09
504.2954, 44759.74
504.7775, 44530.50
505.2596, 44302.76
505.7418, 44106.23
506.2239, 43944.23
506.7060, 43828.10
507.1881, 43773.89
507.6702, 43702.05
508.1523, 43557.80
508.6345, 43375.07
509.1166, 43207.91
509.5987, 43063.70
510.0808, 42932.53
510.5629, 42808.31
511.0450, 42690.71
511.5272, 42569.67
512.0093, 42461.41
512.4914, 42330.29
512.9735, 42134.75
513.4556, 41922.58
513.9377, 41753.88
514.4199, 41645.88
514.9020, 41576.42
515.3841, 41526.47
515.8662, 41504.95
516.3483, 41442.75
516.8304, 41321.24
517.3126, 41177.32
517.7947, 40984.74
518.2768, 40787.30
518.7589, 40650.56
519.2410, 40602.09
519.7231, 40596.44
520.2053, 40580.88
520.6874, 40557.36
521.1695, 40491.44
521.6516, 40360.73
522.1337, 40207.35
522.6158, 40038.47
523.0980, 39869.64
523.5801, 39748.40
524.0622, 39726.23
524.5443, 39725.08
525.0264, 39640.09
525.5085, 39491.60
525.9907, 39415.35
526.4728, 39478.81
526.9549, 39589.07
527.4370, 39602.69
527.9191, 39502.91
528.4012, 39423.63
528.8834, 39394.73
529.3655, 39376.13
529.8476, 39344.16
530.3297, 39298.65
530.8118, 39240.20
531.2939, 39166.66
531.7761, 39095.09
532.2582, 39071.77
532.7403, 39131.75
533.2224, 39175.60
533.7045, 39205.47
534.1866, 39216.94
534.6688, 39199.93
535.1509, 39161.25
535.6330, 39118.18
536.1151, 39078.61
536.5972, 39046.74
537.0793, 39033.73
537.5615, 39040.90
538.0436, 39063.51
538.5257, 39125.64
539.0078, 39183.08
539.4899, 39190.19
539.9720, 39148.70
540.4542, 39110.80
540.9363, 39113.61
541.4184, 39129.51
541.9005, 39108.63
542.3826, 39052.41
542.8647, 39016.10
543.3469, 39027.03
543.8290, 39077.59
544.3111, 39154.81
544.7932, 39276.12
545.2753, 39377.89
545.7574, 39434.03
546.2396, 39479.57
546.7217, 39547.12
547.2038, 39634.78
547.6859, 39719.48
548.1680, 39786.01
548.6501, 39835.52
549.1323, 39868.54
549.6144, 39841.45
550.0965, 39876.41
550.5786, 40037.65
551.0607, 40218.16
551.5428, 40326.21
552.0250, 40368.29
552.5071, 40430.02
552.9892, 40593.05
553.4713, 40815.65
553.9534, 40974.04
554.4355, 41057.02
554.9177, 41129.51
555.3998, 41206.58
555.8819, 41294.50
556.3640, 41404.32
556.8461, 41539.39
557.3282, 41669.28
557.8104, 41767.79
558.2925, 41864.07
558.7746, 42002.13
559.2567, 42178.98
559.7388, 42338.61
560.2209, 42440.83
560.7031, 42514.31
561.1852, 42650.99
561.6673, 42933.00
562.1494, 43165.71
562.6315, 43308.89
563.1136, 43431.66
563.5958, 43579.94
564.0779, 43756.25
564.5600, 43941.36
565.0421, 44123.97
565.5242, 44302.32
566.0063, 44466.80
566.4885, 44605.07
566.9706, 44762.36
567.4527, 44957.59
567.9348, 45169.26
568.4169, 45387.36
568.8990, 45608.92
569.3812, 45831.38
569.8633, 46048.16
570.3454, 46265.51
570.8275, 46503.53
571.3096, 46758.54
571.7917, 46975.96
572.2739, 47119.52
572.7560, 47238.79
573.2381, 47425.79
573.7202, 47695.15
574.2023, 47972.80
574.6844, 48275.27
575.1666, 48565.52
575.6487, 48811.84
576.1308, 49024.83
576.6129, 49235.87
577.0950, 49462.55
577.5771, 49693.38
578.0593, 49898.92
578.5414, 50057.80
579.0235, 50249.33
579.5056, 50518.98
579.9877, 50783.07
580.4698, 50993.58
580.9520, 51168.86
581.4341, 51359.23
581.9162, 51592.27
582.3983, 51838.80
582.8804, 52050.57
583.3625, 52233.34
583.8447, 52442.93
584.3268, 52696.88
584.8089, 52970.44
585.2910, 53258.77
585.7731, 53554.42
586.2552, 53770.94
586.7374, 53831.48
587.2195, 53884.21
587.7016, 54010.99
588.1837, 54180.57
588.6658, 54337.60
589.1479, 54465.12
589.6301, 54579.36
590.1122, 54703.24
590.5943, 54840.59
591.0764, 54948.12
591.5585, 54977.36
592.0406, 55033.61
592.5228, 55171.84
593.0049, 55335.70
593.4870, 55457.38
593.9691, 55520.19
594.4512, 55558.11
594.9333, 55598.07
595.4155, 55639.78
595.8976, 55675.90
596.3797, 55699.19
596.8618, 55751.57
597.3439, 55894.99
597.8260, 56068.82
598.3082, 56127.26
598.7903, 56032.14
599.2724, 55919.75
599.7545, 55803.90
600.2366, 55711.07
600.7188, 55687.02
601.2009, 55722.70
601.6830, 55757.16
602.1651, 55750.24
602.6472, 55708.22
603.1293, 55651.84
603.6115, 55561.68
604.0936, 55493.06
604.5757, 55496.83
605.0578, 55480.03
605.5399, 55356.28
606.0220, 55157.95
606.5042, 54997.65
606.9863, 54954.41
607.4684, 54958.91
607.9505, 54901.40
608.4326, 54782.84
608.9147, 54640.08
609.3969, 54466.99
609.8790, 54302.07
610.3611, 54194.62
610.8432, 54139.45
611.3253, 54082.57
611.8074, 54031.77
612.2896, 53964.09
612.7717, 53857.82
613.2538, 53729.09
613.7359, 53605.43
614.2180, 53494.51
614.7001, 53384.36
615.1823, 53256.24
615.6644, 53107.56
616.1465, 52993.60
616.6286, 52953.53
617.1107, 52894.45
617.5928, 52779.80
618.0750, 52643.73
618.5571, 52512.93
619.0392, 52394.52
619.5213, 52303.64
620.0034, 52270.21
620.4855, 52268.32
620.9677, 52235.82
621.4498, 52169.46
621.9319, 52104.52
622.4140, 52055.59
622.8961, 52022.17
623.3782, 52007.87
623.8604, 52024.33
624.3425, 52021.66
624.8246, 51966.68
625.3067, 51915.32
625.7888, 51917.63
626.2709, 51954.05
626.7531, 51965.42
627.2352, 51921.66
627.7173, 51863.89
628.1994, 51872.41
628.6815, 51960.71
629.1636, 52041.66
629.6458, 52132.37
630.1279, 52184.10
630.6100, 52119.45
631.0921, 52016.34
631.5742, 52026.86
632.0563, 52224.14
632.5385, 52431.52
633.0206, 52496.38
633.5027, 52487.63
633.9848, 52558.07
634.4669, 52727.79
634.9490, 52883.43
635.4312, 52937.98
635.9133, 52915.28
636.3954, 52928.24
636.8775, 52989.32
637.3596, 53072.27
637.8417, 53207.30
638.3239, 53338.51
638.8060, 53400.43
639.2881, 53419.53
639.7702, 53491.21
640.2523, 53684.68
640.7344, 53930.34
641.2166, 54087.04
641.6987, 54151.09
642.1808, 54220.00
642.6629, 54314.84
643.1450, 54416.05
643.6271, 54499.80
644.1093, 54574.07
644.5914, 54669.27
645.0735, 54792.90
645.5556, 54933.97
646.0377, 55110.02
646.5198, 55291.34
647.0020, 55437.14
647.4841, 55538.33
647.9662, 55602.06
648.4483, 55628.98
648.9304, 55626.42
649.4125, 55649.53
649.8947, 55716.24
650.3768, 55774.69
650.8589, 55813.96
651.3410, 55843.66
651.8231, 55867.40
652.3052, 55886.73
652.7874, 55907.00
653.2695, 55947.34
653.7516, 55973.94
654.2337, 55934.54
654.7158, 55841.29
655.1979, 55748.59
655.6801, 55670.98
656.1622, 55604.04
656.6443, 55547.19
657.1264, 55502.48
657.6085, 55429.68
658.0906, 55286.32
658.5728, 55172.40
659.0549, 55150.69
659.5370, 55145.97
660.0191, 55083.58
660.5012, 54951.17
660.9833, 54776.58
661.4655, 54571.32
661.9476, 54347.23
662.4297, 54139.34
662.9118, 53944.55
663.3939, 53801.68
663.8760, 53769.38
664.3582, 53738.97
664.8403, 53554.57
665.3224, 53230.84
665.8045, 52953.52
666.2866, 52797.23
666.7687, 52647.05
667.2509, 52432.38
667.7330, 52184.20
668.2151, 51967.34
668.6972, 51793.00
669.1793, 51599.32
669.6614, 51307.15
670.1436, 50927.80
670.6257, 50633.01
671.1078, 50479.27
671.5899, 50291.46
672.0720, 49972.07
672.5541, 49631.66
673.0363, 49354.62
673.5184, 49142.62
674.0005, 48945.80
674.4826, 48769.72
674.9647, 48574.88
675.4468, 48309.49
675.9290, 47991.38
676.4111, 47662.80
676.8932, 47336.40
677.3753, 47045.52
677.8574, 46840.84
678.3395, 46727.75
678.8217, 46563.81
679.3038, 46314.55
679.7859, 46056.34
680.2680, 45815.06
680.7501, 45564.06
681.2322, 45266.84
681.7144, 44929.80
682.1965, 44602.28
682.6786, 44316.93
683.1607, 44064.04
683.6428, 43837.93
684.1249, 43635.00
684.6071, 43434.07
685.0892, 43229.18
685.5713, 43018.57
686.0534, 42800.76
686.5355, 42577.07
687.0176, 42328.83
687.4998, 42019.69
687.9819, 41734.50
688.4640, 41515.00
688.9461, 41317.03
689.4282, 41092.75
689.9103, 40838.83
690.3925, 40583.41
690.8746, 40347.52
691.3567, 40127.23
691.8388, 39917.96
692.3209, 39720.57
692.8030, 39515.86
693.2852, 39292.88
693.7673, 39072.89
694.2494, 38886.02
694.7315, 38727.85
695.2136, 38537.04
695.6957, 38277.46
696.1779, 38024.93
696.6600, 37805.74
697.1421, 37606.91
697.6242, 37418.89
698.1063, 37237.18
698.5884, 37051.13
699.0706, 36847.69
699.5527, 36642.76
700.0348, 36494.32
700.5169, 36418.15
700.9990, 36293.36
701.4811, 36075.73
701.9633, 35831.95
702.4454, 35600.60
702.9275, 35386.75
703.4096, 35210.04
703.8917, 35125.89
704.3738, 35006.68
704.8560, 34732.96
705.3381, 34431.69
705.8202, 34280.82
706.3023, 34272.84
706.7844, 34249.62
707.2665, 34101.79
707.7487, 33868.94
708.2308, 33656.36
708.7129, 33463.69
709.1950, 33294.80
709.6771, 33166.66
710.1592, 33041.03
710.6414, 32900.56
711.1235, 32744.64
711.6056, 32566.92
712.0877, 32352.16
712.5698, 32149.88
713.0519, 31992.08
713.5341, 31857.02
714.0162, 31721.20
714.4983, 31583.38
714.9804, 31455.32
715.4625, 31345.19
715.9446, 31232.07
716.4268, 31059.22
716.9089, 30799.86
717.3910, 30599.99
717.8731, 30490.12
718.3552, 30402.57
718.8373, 30328.08
719.3195, 30245.73
719.8016, 30123.63
720.2837, 29953.79
720.7658, 29761.56
721.2479, 29519.94
721.7300, 29289.77
722.2122, 29153.52
722.6943, 29090.59
723.1764, 29020.49
723.6585, 28908.43
724.1406, 28765.84
724.6227, 28610.01
725.1049, 28439.85
725.5870, 28255.71
726.0691, 28040.57
726.5512, 27840.42
727.0333, 27668.22
727.5154, 27519.80
727.9976, 27404.44
728.4797, 27321.31
728.9618, 27223.67
729.4439, 27075.50
729.9260, 26919.00
730.4081, 26802.00
730.8903, 26706.51
731.3724, 26585.28
731.8545, 26425.48
732.3366, 26254.09
732.8187, 26100.03
733.3008, 25960.81
733.7830, 25799.47
734.2651, 25596.12
734.7472, 25414.03
735.2293, 25290.54
735.7114, 25174.11
736.1935, 25024.29
736.6757, 24848.45
737.1578, 24681.61
737.6399, 24526.02
738.1220, 24393.38
738.6041, 24330.94
739.0862, 24281.00
739.5684, 24131.54
740.0505, 23881.17
740.5326, 23636.38
741.0147, 23474.79
741.4968, 23372.84
741.9789, 23260.14
742.4611, 23135.66
742.9432, 23004.41
743.4253, 22864.41
743.9074, 22721.09
744.3895, 22572.32
744.8716, 22423.71
745.3538, 22289.50
745.8359, 22181.13
746.3180, 22056.47
746.8001, 21864.71
747.2822, 21671.63
747.7643, 21563.63
748.2465, 21517.87
748.7286, 21443.27
749.2107, 21298.70
749.6928, 21121.61
750.1749, 20965.22
750.6570, 20830.14
751.1392, 20698.96
751.6213, 20573.01
752.1034, 20446.86
752.5855, 20325.56
753.0676, 20197.39
753.5497, 20044.02
754.0319, 19864.29
754.5140, 19696.32
754.9961, 19548.37
755.4782, 19415.35
755.9603, 19298.79
756.4424, 19194.07
756.9246, 19099.80
757.4067, 19011.80
757.8888, 18913.04
758.3709, 18785.62
758.8530, 18637.70
759.3351, 18497.04
759.8173, 18365.02
760.2994, 18232.49
760.7815, 18098.30
761.2636, 17963.67
761.7457, 17823.88
762.2278, 17684.63
762.7100, 17569.97
763.1921, 17495.22
763.6742, 17423.08
764.1563, 17351.94
764.6384, 17275.22
765.1205, 17181.46
765.6027, 17077.41
766.0848, 16982.51
766.5669, 16905.93
767.0490, 16834.02
767.5311, 16754.65
768.0132, 16665.51
768.4954, 16542.77
768.9775, 16377.98
769.4596, 16241.92
769.9417, 16177.32
770.4238, 16147.10
770.9059, 16089.51
771.3881, 16002.22
771.8702, 15893.43
772.3523, 15709.14
772.8344, 15567.36
773.3165, 15544.64
773.7986, 15565.01
774.2808, 15549.44
774.7629, 15484.09
775.2450, 15390.99
775.7271, 15270.34
776.2092, 15144.42
776.6913, 15047.37
777.1735, 14974.69
777.6556, 14909.39
778.1377, 14847.36
778.6198, 14792.36
779.1019, 14750.22
779.5840, 14716.14
780.0662, 14664.60
780.5483, 14579.40
781.0304, 14507.45
781.5125, 14473.19
781.9946, 14430.89
782.4767, 14347.83
782.9589, 14243.07
783.4410, 14155.01
783.9231, 14094.88
784.4052, 14040.08
784.8873, 13978.99
785.3694, 13914.38
785.8516, 13846.36
786.3337, 13778.08
786.8158, 13720.02
787.2979, 13676.29
787.7800, 13637.82
788.2621, 13592.33
788.7443, 13540.37
789.2264, 13487.09
789.7085, 13423.33
790.1906, 13386.32
790.6727, 13418.45
791.1548, 13450.73
791.6370, 13392.50
792.1191, 13261.46
792.6012, 13186.16
793.0833, 13255.74
793.5654, 13295.92
794.0475, 13216.25
794.5297, 13092.62
795.0118, 12990.89
795.4939, 12920.61
795.9760, 12876.03
796.4581, 12856.64
796.9402, 12842.85
797.4224, 12798.74
797.9045, 12730.84
798.3866, 12691.35
798.8687, 12689.40
799.3508, 12670.46
799.8329, 12601.35
800.3151, 12507.10
800.7972, 12432.56
801.2793, 12377.10
801.7614, 12344.15
802.2435, 12349.44
802.7256, 12355.66
803.2078, 12364.08
803.6899, 12360.45
804.1720, 12321.48
804.6541, 12251.67
805.1362, 12190.95
805.6183, 12169.04
806.1005, 12156.40
806.5826, 12127.29
807.0647, 12083.17
807.5468, 12016.15
808.0289, 11929.74
808.5110, 11867.06
808.9932, 11861.22
809.4753, 11890.85
809.9574, 11901.64
810.4395, 11893.48
810.9216, 11864.16
811.4037, 11795.29
811.8859, 11735.75
812.3680, 11717.27
812.8501, 11719.63
813.3322, 11718.46
813.8143, 11714.90
814.2964, 11691.98
814.7786, 11618.84
815.2607, 11553.84
815.7428, 11539.53
816.2249, 11550.71
816.7070, 11549.80
817.1891, 11531.00
817.6713, 11514.80
818.1534, 11520.23
818.6355, 11532.72
819.1176, 11524.86
819.5997, 11497.88
820.0818, 11455.54
820.5640, 11395.12
821.0461, 11350.82
821.5282, 11351.16
822.0103, 11380.35
822.4924, 11391.35
822.9745, 11383.40
823.4567, 11358.65
823.9388, 11290.57
824.4209, 11236.11
824.9030, 11225.02
825.3851, 11233.99
825.8672, 11234.86
826.3494, 11223.40
826.8315, 11206.83
827.3136, 11193.13
827.7957, 11171.57
828.2778, 11120.04
828.7599, 11058.70
829.2421, 11029.77
829.7242, 11037.01
830.2063, 11045.56
830.6884, 11029.00
831.1705, 10995.14
831.6526, 10954.40
832.1348, 10905.44
832.6169, 10903.88
833.0990, 10976.50
833.5811, 11028.24
834.0632, 10989.89
834.5453, 10903.69
835.0275, 10864.69
835.5096, 10897.34
835.9917, 10904.64
836.4738, 10859.78
836.9559, 10820.37
837.4380, 10805.14
837.9202, 10807.89
838.4023, 10832.74
838.8844, 10872.32
839.3665, 10886.70
839.8486, 10833.47
840.3307, 10772.16
840.8129, 10771.21
841.2950, 10804.18
841.7771, 10816.37
842.2592, 10802.50
842.7413, 10791.76
843.2234, 10803.22
843.7056, 10824.12
844.1877, 10831.59
844.6698, 10826.30
845.1519, 10793.48
845.6340, 10716.53
846.1161, 10658.96
846.5983, 10655.67
847.0804, 10677.31
847.5625, 10685.90
848.0446, 10681.23
848.5267, 10667.15
849.0089, 10630.85
849.4910, 10601.78
849.9731, 10586.06
850.4552, 10582.54
850.9373, 10595.56
851.4194, 10619.73
851.9016, 10641.61
852.3837, 10657.26
852.8658, 10662.50
853.3479, 10645.88
853.8300, 10619.85
854.3121, 10604.47
854.7943, 10601.04
855.2764, 10610.81
855.7585, 10634.56
856.2406, 10653.07
856.7227, 10637.49
857.2048, 10591.47
857.6870, 10561.80
858.1691, 10549.93
858.6512, 10551.34
859.1333, 10575.23
859.6154, 10595.58
860.0975, 10586.14
860.5797, 10552.38
861.0618, 10526.49
861.5439, 10513.82
862.0260, 10499.97
862.5081, 10480.33
862.9902, 10462.27
863.4724, 10442.39
863.9545, 10430.16
864.4366, 10447.77
864.9187, 10499.35
865.4008, 10539.02
865.8829, 10532.09
866.3651, 10501.21
866.8472, 10455.90
867.3293, 10410.62
867.8114, 10404.81
868.2935, 10442.63
868.7756, 10486.33
869.2578, 10509.17
869.7399, 10511.41
870.2220, 10484.13
870.7041, 10424.60
871.1862, 10395.86
871.6683, 10407.32
872.1505, 10436.79
872.6326, 10485.22
873.1147, 10530.91
873.5968, 10532.20
874.0789, 10475.68
874.5610, 10447.25
875.0432, 10467.81
875.5253, 10487.69
876.0074, 10500.93
876.4895, 10504.94
876.9716, 10487.23
877.4537, 10457.81
877.9359, 10453.70
878.4180, 10501.93
878.9001, 10541.29
879.3822, 10514.69
879.8643, 10473.60
880.3464, 10482.04
880.8286, 10527.74
881.3107, 10565.09
881.7928, 10577.42
882.2749, 10579.94
882.7570, 10589.72
883.2391, 10602.05
883.7213, 10599.13
884.2034, 10582.09
884.6855, 10570.29
885.1676, 10568.61
885.6497, 10568.79
886.1318, 10562.16
886.6140, 10554.88
887.0961, 10573.27
887.5782, 10649.41
888.0603, 10665.08
888.5424, 10553.76
889.0245, 10473.02
889.5067, 10523.69
889.9888, 10615.01
890.4709, 10633.39
890.9530, 10575.30
891.4351, 10548.00
891.9172, 10603.24
892.3994, 10656.13
892.8815, 10666.09
893.3636, 10662.19
893.8457, 10676.75
894.3278, 10704.13
894.8099, 10714.04
895.2921, 10690.75
895.7742, 10672.30
896.2563, 10705.92
896.7384, 10762.50
897.2205, 10785.90
897.7026, 10784.36
898.1848, 10804.36
898.6669, 10859.22
899.1490, 10910.80
899.6311, 10920.21
900.1132, 10899.39
900.5953, 10894.01
901.0775, 10905.62
901.5596, 10914.08
902.0417, 10915.27
902.5238, 10916.26
903.0059, 10915.99
903.4880, 10923.67
903.9702, 10962.81
904.4523, 11048.08
904.9344, 11104.74
905.4165, 11111.33
905.8986, 11116.93
906.3807, 11140.18
906.8629, 11160.73
907.3450, 11148.86
907.8271, 11116.38
908.3092, 11114.73
908.7913, 11170.23
909.2734, 11230.82
909.7556, 11285.29
910.2377, 11324.74
910.7198, 11335.36
911.2019, 11326.61
911.6840, 11308.36
912.1661, 11287.39
912.6483, 11292.04
913.1304, 11363.89
913.6125, 11459.78
914.0946, 11504.32
914.5767, 11512.92
915.0588, 11536.97
915.5410, 11583.60
916.0231, 11624.09
916.5052, 11639.33
916.9873, 11644.48
917.4694, 11674.94
917.9515, 11732.67
918.4337, 11751.68
918.9158, 11716.50
919.3979, 11717.46
919.8800, 11801.98
920.3621, 11899.74
920.8442, 11929.39
921.3264, 11900.36
921.8085, 11911.78
922.2906, 12003.42
922.7727, 12070.67
923.2548, 12086.55
923.7369, 12102.77
924.2191, 12154.58
924.7012, 12216.96
925.1833, 12245.79
925.6654, 12234.42
926.1475, 12236.33
926.6296, 12274.98
927.1118, 12321.76
927.5939, 12363.28
928.0760, 12404.70
928.5581, 12454.65
929.0402, 12510.50
929.5223, 12560.30
930.0045, 12598.05
930.4866, 12635.24
930.9687, 12681.36
931.4508, 12734.50
931.9329, 12795.33
932.4150, 12860.22
932.8972, 12916.54
933.3793, 12961.90
933.8614, 13011.52
934.3435, 13080.91
934.8256, 13157.76
935.3077, 13209.92
935.7899, 13238.94
936.2720, 13270.10
936.7541, 13306.82
937.2362, 13329.09
937.7183, 13319.12
938.2004, 13316.11
938.6826, 13387.57
939.1647, 13536.40
939.6468, 13625.63
940.1289, 13626.70
940.6110, 13637.21
941.0931, 13676.35
941.5753, 13727.91
942.0574, 13793.30
942.5395, 13860.33
943.0216, 13892.90
943.5037, 13870.69
943.9858, 13876.06
944.4680, 13918.56
944.9501, 13985.95
945.4322, 14108.59
945.9143, 14229.21
946.3964, 14269.66
946.8785, 14247.99
947.3607, 14273.06
947.8428, 14410.08
948.3249, 14537.06
948.8070, 14577.44
949.2891, 14586.69
949.7712, 14601.59
950.2534, 14630.99
950.7355, 14688.11
951.2176, 14772.51
951.6997, 14854.67
952.1818, 14901.83
952.6639, 14947.59
953.1461, 15057.43
953.6282, 15196.05
954.1103, 15269.86
954.5924, 15278.82
955.0745, 15290.81
955.5566, 15339.47
956.0388, 15414.11
956.5209, 15507.78
957.0030, 15614.75
957.4851, 15703.50
957.9672, 15774.68
958.4493, 15849.06
958.9315, 15933.74
959.4136, 16002.15
959.8957, 16027.95
960.3778, 16037.87
960.8599, 16102.77
961.3420, 16231.82
961.8242, 16371.90
962.3063, 16537.85
962.7884, 16675.82
963.2705, 16758.03
963.7526, 16817.88
964.2347, 16886.83
964.7169, 16962.95
965.1990, 17033.01
965.6811, 17073.75
966.1632, 17144.41
966.6453, 17275.32
967.1274, 17401.34
967.6096, 17488.54
968.0917, 17560.10
968.5738, 17645.51
969.0559, 17746.75
969.5380, 17846.46
970.0201, 17946.65
970.5023, 18037.60
970.9844, 18098.51
971.4665, 18164.90
971.9486, 18279.23
972.4307, 18418.16
972.9128, 18529.35
973.3950, 18599.75
973.8771, 18671.99
974.3592, 18770.79
974.8413, 18884.12
975.3234, 19011.54
975.8055, 19141.40
976.2877, 19248.26
976.7698, 19339.70
977.2519, 19454.07
977.7340, 19609.99
978.2161, 19773.25
978.6982, 19902.08
979.1804, 20014.76
979.6625, 20148.18
980.1446, 20294.67
980.6267, 20421.39
981.1088, 20524.66
981.5909, 20646.69
982.0731, 20820.17
982.5552, 21006.73
983.0373, 21127.54
983.5194, 21194.71
984.0015, 21298.27
984.4836, 21441.37
984.9658, 21603.70
985.4479, 21781.93
985.9300, 21949.87
986.4121, 22080.97
986.8942, 22186.27
987.3763, 22300.15
987.8585, 22420.49
988.3406, 22570.48
988.8227, 22764.76
989.3048, 22942.46
989.7869, 23074.16
990.2690, 23183.58
990.7512, 23294.99
991.2333, 23408.72
991.7154, 23525.58
992.1975, 23627.45
992.6796, 23773.34
993.1617, 24004.07
993.6439, 24227.46
994.1260, 24393.17
994.6081, 24532.26
995.0902, 24698.32
995.5723, 24893.79
996.0544, 25044.43
996.5366, 25070.40
997.0187, 25163.16
997.5008, 25413.14
997.9829, 25677.64
998.4650, 25871.68
998.9471, 26021.28
999.4293, 26173.49
999.9114, 26335.40
1000.393, 26488.96
1000.876, 26613.19
1001.358, 26747.59
1001.840, 26913.04
1002.322, 27090.29
1002.804, 27258.06
1003.286, 27424.52
1003.768, 27617.22
1004.250, 27844.37
1004.733, 28069.96
1005.215, 28280.67
1005.697, 28475.15
1006.179, 28641.16
1006.661, 28796.30
1007.143, 28963.65
1007.625, 29141.53
1008.107, 29318.69
1008.589, 29490.14
1009.072, 29654.78
1009.554, 29799.46
1010.036, 29945.33
1010.518, 30114.66
1011.000, 30306.08
1011.482, 30524.32
1011.964, 30763.78
1012.446, 31005.11
1012.929, 31241.11
1013.411, 31462.42
1013.893, 31647.74
1014.375, 31816.21
1014.857, 32007.50
1015.339, 32217.90
1015.821, 32433.10
1016.303, 32649.54
1016.785, 32876.86
1017.268, 33125.50
1017.750, 33365.82
1018.232, 33533.96
1018.714, 33654.26
1019.196, 33837.30
1019.678, 34078.18
1020.160, 34303.34
1020.642, 34493.84
1021.125, 34693.78
1021.607, 34944.62
1022.089, 35213.13
1022.571, 35409.47
1023.053, 35541.24
1023.535, 35730.13
1024.017, 35981.40
1024.499, 36275.00
1024.981, 36612.91
1025.464, 36936.68
1025.946, 37190.70
1026.428, 37392.05
1026.910, 37590.03
1027.392, 37783.35
1027.874, 37979.36
1028.356, 38168.38
1028.838, 38415.25
1029.321, 38759.07
1029.803, 39118.02
1030.285, 39408.88
1030.767, 39654.49
1031.249, 39968.54
1031.731, 40395.20
1032.213, 40715.41
1032.695, 40880.31
1033.177, 41047.06
1033.660, 41256.21
1034.142, 41516.46
1034.624, 41844.82
1035.106, 42233.41
1035.588, 42621.48
1036.070, 43031.34
1036.552, 43384.46
1037.034, 43644.91
1037.516, 43909.80
1037.999, 44235.67
1038.481, 44556.30
1038.963, 44772.72
1039.445, 44909.16
1039.927, 45155.16
1040.409, 45610.02
1040.891, 45999.70
1041.373, 46279.63
1041.855, 46548.13
1042.338, 46823.28
1042.820, 47114.28
1043.302, 47440.04
1043.784, 47794.48
1044.266, 48140.11
1044.748, 48499.38
1045.230, 48808.51
1045.712, 49018.33
1046.195, 49231.21
1046.677, 49457.50
1047.159, 49729.73
1047.641, 50103.41
1048.123, 50562.32
1048.605, 51002.09
1049.087, 51442.10
1049.569, 51810.39
1050.052, 51993.62
1050.534, 52221.81
1051.016, 52648.82
1051.498, 53140.45
1051.980, 53537.38
1052.462, 53849.16
1052.944, 54203.24
1053.426, 54653.64
1053.908, 55085.33
1054.391, 55478.63
1054.873, 55837.68
1055.355, 56131.78
1055.837, 56416.95
1056.319, 56744.14
1056.801, 57122.07
1057.283, 57572.14
1057.765, 58163.30
1058.248, 58669.40
1058.730, 58947.03
1059.212, 59213.67
1059.694, 59589.67
1060.176, 60021.77
1060.658, 60459.41
1061.140, 60890.90
1061.622, 61303.36
1062.104, 61687.39
1062.587, 62065.02
1063.069, 62420.63
1063.551, 62795.86
1064.033, 63230.80
1064.515, 63687.51
1064.997, 64127.25
1065.479, 64546.51
1065.961, 64953.27
1066.443, 65338.43
1066.926, 65746.98
1067.408, 66226.52
1067.890, 66700.05
1068.372, 67111.88
1068.854, 67501.80
1069.336, 67915.04
1069.818, 68350.45
1070.300, 68788.48
1070.782, 69224.59
1071.265, 69668.43
1071.747, 70135.22
1072.229, 70602.22
1072.711, 71048.25
1073.193, 71494.11
1073.675, 71963.68
1074.157, 72447.87
1074.639, 72917.32
1075.122, 73362.42
1075.604, 73809.93
1076.086, 74294.13
1076.568, 74759.06
1077.050, 75182.73
1077.532, 75562.48
1078.014, 75844.53
1078.496, 76090.12
1078.979, 76455.98
1079.461, 76989.44
1079.943, 77502.79
1080.425, 77859.62
1080.907, 78230.82
1081.389, 78742.15
1081.871, 79282.02
1082.353, 79727.11
1082.835, 80118.71
1083.318, 80558.87
1083.800, 81070.02
1084.282, 81609.21
1084.764, 82202.48
1085.246, 82763.36
1085.728, 83229.17
1086.210, 83662.99
1086.692, 84089.23
1087.175, 84537.63
1087.657, 85066.22
1088.139, 85676.82
1088.621, 86250.10
1089.103, 86691.20
1089.585, 87151.65
1090.067, 87713.12
1090.549, 88302.56
1091.031, 88866.58
1091.514, 89415.98
1091.996, 89958.90
1092.478, 90504.78
1092.960, 91099.97
1093.442, 91819.66
1093.924, 92476.99
1094.406, 92973.98
1094.888, 93424.70
1095.370, 93871.70
1095.853, 94339.73
1096.335, 94868.38
1096.817, 95447.14
1097.299, 95998.23
1097.781, 96484.88
1098.263, 96988.68
1098.745, 97506.17
1099.227, 98083.89
1099.709, 98833.80
1100.192, 99591.69
1100.674, 100141.3
1101.156, 100542.4
1101.638, 101031.5
1102.120, 101664.2
1102.602, 102343.3
1103.084, 103106.4
1103.566, 103833.8
1104.049, 104461.8
1104.531, 105050.4
1105.013, 105620.6
1105.495, 106202.3
1105.977, 106864.9
1106.459, 107630.5
1106.941, 108390.7
1107.423, 109127.1
1107.906, 109857.9
1108.388, 110616.0
1108.870, 111338.6
1109.352, 111958.4
1109.834, 112524.1
1110.316, 113117.5
1110.798, 113750.5
1111.280, 114364.9
1111.762, 114930.4
1112.245, 115522.7
1112.727, 116153.3
1113.209, 116815.2
1113.691, 117526.0
1114.173, 118250.0
1114.655, 118936.6
1115.137, 119588.1
1115.619, 120280.2
1116.102, 121043.3
1116.584, 121786.0
1117.066, 122449.1
1117.548, 123177.7
1118.030, 124104.9
1118.512, 125030.1
1118.994, 125734.8
1119.476, 126287.2
1119.958, 126971.1
1120.441, 127856.4
1120.923, 128643.4
1121.405, 129253.6
1121.887, 129938.7
1122.369, 130795.9
1122.851, 131678.3
1123.333, 132484.4
1123.815, 133234.1
1124.297, 133967.2
1124.780, 134677.7
1125.262, 135426.9
1125.744, 136219.6
1126.226, 137025.1
1126.708, 137841.4
1127.190, 138657.0
1127.672, 139458.9
1128.154, 140273.0
1128.636, 141143.4
1129.119, 142061.3
1129.601, 142941.2
1130.083, 143786.6
1130.565, 144596.9
1131.047, 145363.7
1131.529, 146132.5
1132.011, 146911.4
1132.493, 147744.5
1132.976, 148687.1
1133.458, 149695.3
1133.940, 150653.4
1134.422, 151563.7
1134.904, 152421.2
1135.386, 153228.5
1135.868, 154058.0
1136.350, 154930.3
1136.833, 155869.8
1137.315, 156909.9
1137.797, 157951.8
1138.279, 158796.1
1138.761, 159509.0
1139.243, 160301.6
1139.725, 161167.3
1140.207, 162079.5
1140.689, 163028.6
1141.172, 163990.9
1141.654, 164957.6
1142.136, 165882.8
1142.618, 166664.0
1143.100, 167424.5
1143.582, 168403.0
1144.064, 169504.2
1144.546, 170518.1
1145.029, 171468.8
1145.511, 172518.9
1145.993, 173704.3
1146.475, 174870.5
1146.957, 175918.2
1147.439, 176893.2
1147.921, 177800.6
1148.403, 178695.4
1148.885, 179594.3
1149.368, 180542.7
1149.850, 181662.8
1150.332, 182906.7
1150.814, 184044.0
1151.296, 184947.8
1151.778, 185888.2
1152.260, 187125.7
1152.742, 188332.3
1153.224, 189177.0
1153.707, 189977.3
1154.189, 191147.8
1154.671, 192543.0
1155.153, 193732.6
1155.635, 194632.1
1156.117, 195646.8
1156.599, 197080.3
1157.081, 198398.6
1157.563, 199264.8
1158.046, 200152.7
1158.528, 201416.9
1159.010, 202833.5
1159.492, 204093.7
1159.974, 205198.6
1160.456, 206373.4
1160.938, 207676.2
1161.420, 208966.1
1161.903, 210155.3
1162.385, 211446.5
1162.867, 213036.9
1163.349, 214578.6
1163.831, 215733.1
1164.313, 216683.2
1164.795, 217875.9
1165.277, 219356.6
1165.760, 220718.2
1166.242, 221892.7
1166.724, 223179.8
1167.206, 224656.4
1167.688, 226126.4
1168.170, 227476.7
1168.652, 228791.0
1169.134, 230164.5
1169.616, 231594.4
1170.099, 233077.1
1170.581, 234617.2
1171.063, 236017.3
1171.545, 237268.7
1172.027, 238625.1
1172.509, 240175.6
1172.991, 241815.0
1173.473, 243475.8
1173.956, 245128.0
1174.438, 246733.4
1174.920, 248286.6
1175.402, 249719.5
1175.884, 251069.4
1176.366, 252450.5
1176.848, 253893.8
1177.330, 255406.2
1177.813, 256995.5
1178.295, 258670.3
1178.777, 260495.8
1179.259, 262362.7
1179.741, 264129.6
1180.223, 265851.3
1180.705, 267618.0
1181.187, 269388.7
1181.669, 270990.2
1182.151, 272436.8
1182.634, 273969.0
1183.116, 275669.8
1183.598, 277539.3
1184.080, 279768.0
1184.562, 281933.1
1185.044, 283662.5
1185.526, 285253.3
1186.008, 286986.2
1186.490, 288860.6
1186.973, 290825.6
1187.455, 292870.6
1187.937, 294900.8
1188.419, 296792.7
1188.901, 298838.9
1189.383, 301258.7
1189.865, 303668.4
1190.347, 305838.6
1190.830, 307916.0
1191.312, 310037.6
1191.794, 312202.1
1192.276, 314420.5
1192.758, 316714.3
1193.240, 318999.7
1193.722, 321230.0
1194.204, 323592.2
1194.687, 326168.9
1195.169, 328752.5
1195.651, 331212.5
1196.133, 333645.0
1196.615, 336233.9
1197.097, 338928.2
1197.579, 341436.7
1198.061, 343785.2
1198.543, 346198.8
1199.026, 348706.9
1199.508, 351325.8
1199.990, 354044.8
1200.472, 356843.5
1200.954, 359676.6
1201.436, 362588.5
1201.918, 365677.8
1202.400, 368898.3
1202.883, 372212.4
1203.365, 375542.0
1203.847, 378658.7
1204.329, 381612.5
1204.811, 384696.4
1205.293, 388011.5
1205.775, 391471.6
1206.257, 395082.6
1206.740, 398729.4
1207.222, 402272.3
1207.704, 405870.3
1208.186, 409657.5
1208.668, 413603.4
1209.150, 417730.3
1209.632, 421988.9
1210.114, 426176.3
1210.596, 430180.7
1211.078, 434291.0
1211.561, 438618.4
1212.043, 443038.3
1212.525, 447568.8
1213.007, 452121.5
1213.489, 456609.6
1213.971, 461103.3
1214.453, 465623.5
1214.935, 470187.7
1215.417, 475221.3
1215.900, 480886.1
1216.382, 486362.2
1216.864, 491530.0
1217.346, 496676.1
1217.828, 501870.3
1218.310, 507177.2
1218.792, 512695.8
1219.274, 518414.0
1219.757, 524413.8
1220.239, 530633.4
1220.721, 536830.1
1221.203, 543068.0
1221.685, 549616.4
1222.167, 556474.0
1222.649, 563450.0
1223.131, 570486.0
1223.614, 577424.9
1224.096, 584066.1
1224.578, 590841.0
1225.060, 598194.4
1225.542, 605972.3
1226.024, 614024.9
1226.506, 622305.5
1226.988, 630776.2
1227.470, 639369.9
1227.953, 647926.4
1228.435, 656333.3
1228.917, 665053.9
1229.399, 674430.6
1229.881, 683822.8
1230.363, 692844.8
1230.845, 702133.9
1231.327, 712079.7
1231.810, 722490.5
1232.292, 733254.9
1232.774, 744316.4
1233.256, 755378.8
1233.738, 766368.3
1234.220, 777674.6
1234.702, 789235.5
1235.184, 801176.9
1235.667, 813604.1
1236.149, 825931.4
1236.631, 837736.9
1237.113, 849590.6
1237.595, 862253.8
1238.077, 875471.1
1238.559, 888703.6
1239.041, 901982.4
1239.523, 915493.6
1240.005, 929346.0
1240.488, 943411.3
1240.970, 957747.3
1241.452, 972723.4
1241.934, 988649.4
1242.416, 1005068.
1242.898, 1021808.
1243.380, 1038596.
1243.862, 1055024.
1244.344, 1071567.
1244.827, 1088772.
1245.309, 1106634.
1245.791, 1125338.
1246.273, 1144640.
1246.755, 1163407.
1247.237, 1181110.
1247.719, 1199179.
1248.201, 1218071.
1248.684, 1237302.
1249.166, 1256886.
1249.648, 1276494.
1250.130, 1295546.
1250.612, 1314818.
1251.094, 1335641.
1251.576, 1357726.
1252.058, 1378877.
1252.541, 1398952.
1253.023, 1418981.
1253.505, 1439024.
1253.987, 1460050.
1254.469, 1482362.
1254.951, 1504654.
1255.433, 1526168.
1255.915, 1547392.
1256.397, 1568974.
1256.880, 1590619.
1257.362, 1611526.
1257.844, 1632028.
1258.326, 1652656.
1258.808, 1673394.
1259.290, 1694554.
1259.772, 1715862.
1260.254, 1736360.
1260.737, 1755500.
1261.219, 1774605.
1261.701, 1795222.
1262.183, 1814811.
1262.665, 1831222.
1263.147, 1847249.
1263.629, 1865436.
1264.111, 1884199.
1264.594, 1901461.
1265.076, 1917145.
1265.558, 1931290.
1266.040, 1943276.
1266.522, 1956109.
1267.004, 1970330.
1267.486, 1983608.
1267.968, 1995568.
1268.450, 2006253.
1268.932, 2015649.
1269.415, 2024076.
1269.897, 2031933.
1270.379, 2039243.
1270.861, 2046161.
1271.343, 2052626.
1271.825, 2058423.
1272.307, 2063607.
1272.789, 2068575.
1273.271, 2073085.
1273.754, 2075818.
1274.236, 2076330.
1274.718, 2076206.
1275.200, 2076131.
1275.682, 2076322.
1276.164, 2077212.
1276.646, 2078057.
1277.128, 2078683.
1277.611, 2078702.
1278.093, 2077654.
1278.575, 2075665.
1279.057, 2073037.
1279.539, 2069747.
1280.021, 2067109.
1280.503, 2064694.
1280.985, 2063075.
1281.468, 2063190.
1281.950, 2063258.
1282.432, 2062593.
1282.914, 2061334.
1283.396, 2059435.
1283.878, 2057903.
1284.360, 2058789.
1284.842, 2060466.
1285.324, 2058699.
##END=



