##NAMES=Petzite
##RRUFFID=R070254
##IDEAL CHEMISTRY=Ag_3_AuTe_2_
##LOCALITY=Red Jacket mine, Baker County, Oregon, USA
##OWNER=RRUFF
##SOURCE=Michael Scott
##DESCRIPTION=Steel grey metallic fragments with subconchoidal fracture, sample used as the standard for the ICDD powder diffraction file
##STATUS=The identification of this mineral has been confirmed by X-ray diffraction and chemical analysis
##URL=rruff.info/R070254
##MEASURED CHEMISTRY=Ag_3.00_Au_1.00_Te_2.00_ ; = lighter phase. The darker phase is: Ag_3.00_(Au_0.99_Cu_0.01_)_Î£=1_Te_2.00_
155.2497, 0.0000000E+00
155.7318, 5.122437
156.2139, 7.426331
156.6960, 2.110168
157.1782, 1.276001
157.6603, 3.754089
158.1424, 4.146790
158.6245, 1.878052
159.1066, 0.5770260
159.5887, 0.3358150
160.0709, 7.296143
160.5530, 17.32642
161.0351, 24.92957
161.5172, 28.33661
161.9993, 35.99152
162.4814, 63.15112
162.9636, 98.71857
163.4457, 120.2543
163.9278, 110.6922
164.4099, 84.95941
164.8920, 70.79028
165.3741, 72.13086
165.8563, 74.66425
166.3384, 68.75183
166.8205, 58.15546
167.3026, 49.70203
167.7847, 48.00812
168.2668, 51.72180
168.7490, 52.29663
169.2311, 49.22302
169.7132, 46.69806
170.1953, 51.96112
170.6774, 54.61377
171.1595, 54.91260
171.6417, 52.59155
172.1238, 49.57709
172.6059, 51.29083
173.0880, 61.51392
173.5701, 68.17035
174.0522, 64.00983
174.5344, 53.64252
175.0165, 44.87415
175.4986, 42.57245
175.9807, 44.01190
176.4628, 41.69879
176.9449, 33.75348
177.4271, 27.03314
177.9092, 24.96243
178.3913, 24.74954
178.8734, 22.96149
179.3555, 18.76492
179.8376, 10.19360
180.3197, 3.818390
180.8019, 8.8988997E-02
181.2840, 1.565186
181.7661, 0.6668400
182.2482, 5.314026
182.7303, 9.070770
183.2124, 11.30374
183.6946, 12.82047
184.1767, 10.31448
184.6588, 2.922150
185.1409, 9.503418
185.6230, 0.5154420
186.1051, 14.83478
186.5873, 27.37677
187.0694, 32.99448
187.5515, 32.95227
188.0336, 31.48154
188.5157, 28.23126
188.9978, 24.70798
189.4800, 20.12985
189.9621, 16.02216
190.4442, 13.83389
190.9263, 14.37631
191.4084, 16.34766
191.8905, 15.84818
192.3727, 9.774139
192.8548, 6.767639
193.3369, 11.22440
193.8190, 17.67792
194.3011, 20.25153
194.7832, 16.52609
195.2654, 9.504883
195.7475, 5.502228
196.2296, 4.878479
196.7117, 7.510040
197.1938, 17.09366
197.6759, 27.20859
198.1581, 31.50879
198.6402, 27.98181
199.1223, 20.99887
199.6044, 18.95544
200.0865, 25.08093
200.5686, 29.97894
201.0508, 35.87039
201.5329, 38.66306
202.0150, 32.44113
202.4971, 16.46854
202.9792, 1.054382
203.4613, 5.832672
203.9435, 10.45816
204.4256, 21.01569
204.9077, 21.93051
205.3898, 19.64053
205.8719, 18.35876
206.3540, 18.96353
206.8362, 19.64969
207.3183, 17.69638
207.8004, 11.75412
208.2825, 6.654846
208.7646, 0.4295350
209.2467, 3.542236
209.7289, 1.188751
210.2110, 6.737762
210.6931, 14.38446
211.1752, 14.10614
211.6573, 2.487732
212.1395, 3.955994
212.6216, 3.831238
213.1037, 0.4714050
213.5858, 8.848297
214.0679, 19.46173
214.5500, 26.92126
215.0322, 24.28568
215.5143, 8.867493
215.9964, 2.178131
216.4785, 14.89664
216.9606, 26.21338
217.4427, 26.33133
217.9249, 17.87405
218.4070, 10.04581
218.8891, 10.90305
219.3712, 20.73770
219.8533, 28.56921
220.3354, 35.34131
220.8176, 38.94974
221.2997, 36.90497
221.7818, 31.17218
222.2639, 25.63312
222.7460, 23.25699
223.2281, 23.52454
223.7103, 21.16537
224.1924, 10.80826
224.6745, 3.704681
225.1566, 4.167511
225.6387, 8.931976
226.1208, 13.10556
226.6030, 13.84393
227.0851, 11.97101
227.5672, 10.91589
228.0493, 10.78723
228.5314, 11.35034
229.0135, 13.34662
229.4957, 15.69565
229.9778, 17.25964
230.4599, 17.54736
230.9420, 16.67377
231.4241, 14.60168
231.9062, 9.511078
232.3884, 6.506836
232.8705, 6.507446
233.3526, 8.345367
233.8347, 11.13614
234.3168, 14.54251
234.7989, 18.58795
235.2811, 24.01559
235.7632, 33.26270
236.2453, 38.05069
236.7274, 34.83139
237.2095, 29.51282
237.6916, 25.59317
238.1738, 23.86365
238.6559, 23.30521
239.1380, 23.38446
239.6201, 25.20612
240.1022, 24.59418
240.5843, 18.82208
241.0665, 12.51321
241.5486, 7.034576
242.0307, 2.870514
242.5128, 0.2315670
242.9949, 0.2277830
243.4770, 4.136841
243.9592, 7.833221
244.4413, 11.60269
244.9234, 14.26401
245.4055, 14.50259
245.8876, 13.14389
246.3697, 12.26239
246.8519, 13.54507
247.3340, 16.70425
247.8161, 19.21707
248.2982, 21.42987
248.7803, 22.40762
249.2624, 20.88812
249.7446, 18.19641
250.2267, 16.52557
250.7088, 17.33420
251.1909, 19.74185
251.6730, 20.61478
252.1551, 18.07916
252.6373, 17.83212
253.1194, 23.79437
253.6015, 31.82684
254.0836, 37.61771
254.5657, 39.60687
255.0478, 39.00528
255.5300, 37.36148
256.0121, 34.44733
256.4942, 31.21396
256.9763, 26.00922
257.4584, 21.73044
257.9406, 21.46902
258.4227, 26.00204
258.9048, 31.02960
259.3869, 31.51013
259.8690, 27.16290
260.3511, 23.83954
260.8333, 23.50272
261.3154, 23.38318
261.7975, 22.27258
262.2796, 19.70706
262.7617, 16.87103
263.2438, 14.21713
263.7260, 11.87085
264.2081, 10.50778
264.6902, 9.965027
265.1723, 10.89780
265.6544, 15.07779
266.1365, 21.29614
266.6187, 25.35861
267.1008, 24.85208
267.5829, 21.13333
268.0650, 14.80048
268.5471, 3.946259
269.0292, 3.653473
269.5114, 1.487091
269.9935, 13.05432
270.4756, 21.07144
270.9577, 21.56290
271.4398, 18.76144
271.9219, 16.97784
272.4041, 16.20203
272.8862, 16.41031
273.3683, 18.60956
273.8504, 21.24521
274.3325, 21.29526
274.8146, 16.92743
275.2968, 12.91052
275.7789, 13.71768
276.2610, 17.95197
276.7431, 19.38034
277.2252, 14.55957
277.7073, 7.712677
278.1895, 6.511688
278.6716, 12.13995
279.1537, 16.45013
279.6358, 15.15881
280.1179, 10.92047
280.6000, 8.354248
281.0822, 8.574432
281.5643, 9.931030
282.0464, 10.83221
282.5285, 11.34827
283.0106, 10.57584
283.4927, 7.246185
283.9749, 3.340820
284.4570, 0.2290650
284.9391, 1.876434
285.4212, 2.640564
285.9033, 1.671417
286.3854, 1.088196
286.8676, 4.437469
287.3497, 10.28763
287.8318, 14.84381
288.3139, 15.73563
288.7960, 13.78061
289.2781, 11.10910
289.7603, 8.760284
290.2424, 6.815033
290.7245, 5.611664
291.2066, 3.695435
291.6887, 4.208679
292.1708, 10.26459
292.6530, 18.08386
293.1351, 23.02087
293.6172, 23.49655
294.0993, 20.89560
294.5814, 17.48859
295.0635, 11.39484
295.5457, 8.168365
296.0278, 10.23795
296.5099, 13.26089
296.9920, 13.48151
297.4741, 10.96469
297.9562, 9.110077
298.4384, 11.92343
298.9205, 20.58987
299.4026, 25.57248
299.8847, 25.02136
300.3668, 22.74890
300.8489, 18.51816
301.3311, 13.66617
301.8131, 10.55420
302.2953, 10.93558
302.7774, 14.08920
303.2595, 16.81299
303.7416, 19.36105
304.2237, 21.23782
304.7058, 22.53500
305.1880, 23.94531
305.6701, 24.71442
306.1522, 23.68390
306.6343, 22.83289
307.1164, 26.26062
307.5985, 36.24301
308.0807, 42.95212
308.5628, 40.09189
309.0449, 36.08313
309.5270, 36.51868
310.0091, 41.70764
310.4912, 47.80634
310.9734, 52.50381
311.4555, 55.66409
311.9376, 55.22827
312.4197, 47.74893
312.9018, 41.27444
313.3839, 42.12686
313.8661, 47.86795
314.3482, 52.09457
314.8303, 49.91306
315.3124, 45.34311
315.7945, 46.25160
316.2766, 53.62579
316.7588, 60.71909
317.2409, 64.02310
317.7230, 64.61130
318.2051, 64.14894
318.6872, 62.45108
319.1693, 60.38307
319.6515, 58.02641
320.1336, 55.66882
320.6157, 54.71254
321.0978, 55.95825
321.5799, 58.32397
322.0620, 60.48157
322.5442, 62.73270
323.0263, 63.46777
323.5084, 60.68399
323.9905, 56.82080
324.4726, 55.60048
324.9547, 57.62732
325.4369, 59.36047
325.9190, 56.85580
326.4011, 49.51044
326.8832, 45.20824
327.3653, 46.57867
327.8474, 48.79062
328.3296, 48.74242
328.8117, 47.13625
329.2938, 46.70964
329.7759, 49.19415
330.2580, 53.81599
330.7401, 56.96945
331.2223, 59.59497
331.7044, 59.56966
332.1865, 55.18948
332.6686, 48.70634
333.1507, 41.85397
333.6328, 35.40353
334.1150, 30.23032
334.5971, 27.82152
335.0792, 29.48656
335.5613, 30.33800
336.0434, 30.20743
336.5255, 29.60884
337.0077, 28.20889
337.4898, 26.42989
337.9719, 25.43166
338.4540, 26.39534
338.9361, 29.05238
339.4182, 30.74026
339.9004, 31.34723
340.3825, 30.97290
340.8646, 29.01433
341.3467, 26.41859
341.8288, 24.13753
342.3109, 22.39352
342.7931, 21.77855
343.2752, 23.88850
343.7573, 29.32581
344.2394, 33.55014
344.7215, 35.03406
345.2036, 35.18646
345.6858, 35.66754
346.1679, 36.43492
346.6500, 35.13972
347.1321, 26.45378
347.6142, 14.67647
348.0963, 14.01204
348.5785, 29.64391
349.0606, 44.63167
349.5427, 43.37642
350.0248, 30.50462
350.5069, 19.05562
350.9890, 8.968475
351.4712, 2.864532
351.9533, 5.284912
352.4354, 14.58101
352.9175, 22.24292
353.3996, 24.31985
353.8817, 22.30170
354.3639, 19.60970
354.8460, 15.91014
355.3281, 12.27190
355.8102, 7.610748
356.2923, 3.814148
356.7744, 4.502609
357.2566, 10.05522
357.7387, 15.38774
358.2208, 14.43300
358.7029, 5.535141
359.1850, 0.5520320
359.6671, 3.482651
360.1493, 4.423630
360.6314, 1.555756
361.1135, 2.811600
361.5956, 3.324570
362.0777, 3.714905
362.5598, 15.05856
363.0420, 18.34200
363.5241, 5.823257
364.0062, 2.415619
364.4883, 0.9614110
364.9704, 3.343460
365.4525, 5.194214
365.9347, 3.318069
366.4168, 0.7621150
366.8989, 6.914337
367.3810, 15.62360
367.8631, 18.49039
368.3452, 9.749908
368.8274, 1.553970
369.3095, 0.3117680
369.7916, 4.290924
370.2737, 9.320480
370.7558, 14.61597
371.2379, 18.89537
371.7201, 18.92484
372.2022, 14.12653
372.6843, 10.75894
373.1664, 12.63892
373.6485, 16.77330
374.1306, 18.35471
374.6128, 16.51367
375.0949, 14.76308
375.5770, 15.60541
376.0591, 17.65855
376.5412, 18.15103
377.0233, 16.35818
377.5055, 14.43262
377.9876, 15.03957
378.4697, 18.54826
378.9518, 19.34985
379.4339, 13.35608
379.9160, 8.265884
380.3982, 10.41974
380.8803, 17.46536
381.3624, 22.46889
381.8445, 21.60954
382.3266, 16.52368
382.8087, 12.09262
383.2909, 5.073593
383.7730, 3.448410
384.2551, 12.76439
384.7372, 23.46820
385.2193, 27.34468
385.7014, 23.57857
386.1836, 17.79436
386.6657, 15.67079
387.1478, 17.36147
387.6299, 20.03204
388.1120, 26.08345
388.5941, 30.26254
389.0763, 30.33559
389.5584, 27.60562
390.0405, 23.81943
390.5226, 19.31537
391.0047, 15.18610
391.4868, 13.17833
391.9690, 13.42491
392.4511, 14.65904
392.9332, 17.05246
393.4153, 19.92125
393.8974, 23.40250
394.3795, 27.43535
394.8617, 29.05154
395.3438, 25.39635
395.8259, 18.83736
396.3080, 12.76974
396.7901, 7.435028
397.2722, 4.275009
397.7544, 4.753082
398.2365, 8.408539
398.7186, 11.98555
399.2007, 16.78059
399.6828, 19.90738
400.1649, 19.05496
400.6471, 16.21748
401.1292, 15.06079
401.6113, 16.79358
402.0934, 18.98285
402.5755, 17.60634
403.0576, 9.907074
403.5398, 7.325394
404.0219, 15.41093
404.5040, 22.71239
404.9861, 22.15326
405.4682, 15.78847
405.9503, 9.757904
406.4325, 7.961090
406.9146, 9.356140
407.3967, 10.38327
407.8788, 10.70172
408.3609, 11.35881
408.8430, 12.95738
409.3252, 14.63474
409.8073, 16.16156
410.2894, 17.39589
410.7715, 17.28664
411.2536, 12.83849
411.7357, 5.621979
412.2179, 4.833344
412.7000, 13.47775
413.1821, 22.70619
413.6642, 25.45976
414.1463, 24.49208
414.6284, 25.14684
415.1106, 30.31572
415.5927, 35.08757
416.0748, 35.01500
416.5569, 31.45590
417.0390, 28.43260
417.5211, 27.08194
418.0033, 27.42702
418.4854, 30.07100
418.9675, 36.35860
419.4496, 39.83794
419.9317, 38.73759
420.4138, 35.05353
420.8960, 29.41832
421.3781, 23.95590
421.8602, 21.29356
422.3423, 23.25861
422.8244, 28.23906
423.3065, 29.84715
423.7887, 26.17088
424.2708, 22.96724
424.7529, 20.53383
425.2350, 18.92743
425.7171, 17.47578
426.1992, 15.76468
426.6814, 14.91692
427.1635, 16.43140
427.6456, 20.12805
428.1277, 22.41161
428.6098, 22.94962
429.0919, 22.67387
429.5741, 20.77687
430.0562, 18.70032
430.5383, 19.45432
431.0204, 26.05992
431.5025, 30.68837
431.9846, 23.54170
432.4668, 8.434525
432.9489, 0.3724210
433.4310, 1.600769
433.9131, 7.996643
434.3952, 11.72279
434.8773, 12.44781
435.3595, 13.51154
435.8416, 17.27864
436.3237, 19.46852
436.8058, 15.63838
437.2879, 8.007095
437.7701, 2.628784
438.2522, 2.798828
438.7343, 6.169922
439.2164, 6.573257
439.6985, 1.574356
440.1806, 2.051788
440.6628, 5.261276
441.1449, 6.439682
441.6270, 3.505936
442.1091, 2.764984
442.5912, 9.363739
443.0733, 14.47035
443.5555, 17.92372
444.0376, 18.74506
444.5197, 16.05333
445.0018, 13.14125
445.4839, 9.252075
445.9660, 6.844681
446.4482, 9.888626
446.9303, 19.78368
447.4124, 27.73407
447.8945, 26.40227
448.3766, 19.68633
448.8587, 15.53253
449.3409, 15.03365
449.8230, 16.48817
450.3051, 19.78925
450.7872, 24.22179
451.2693, 23.58353
451.7514, 12.35225
452.2336, 2.895676
452.7157, 0.8383180
453.1978, 0.3117520
453.6799, 4.048782
454.1620, 11.58820
454.6441, 17.97375
455.1263, 16.86386
455.6084, 6.263580
456.0905, 0.3854980
456.5726, 1.631516
457.0547, 7.1258999E-02
457.5368, 6.323090
458.0190, 14.37233
458.5011, 18.76660
458.9832, 16.79381
459.4653, 12.75838
459.9474, 13.49895
460.4295, 19.11427
460.9117, 22.14793
461.3938, 19.63974
461.8759, 16.35596
462.3580, 17.11026
462.8401, 21.04556
463.3222, 23.67694
463.8044, 23.02325
464.2865, 21.10063
464.7686, 19.36501
465.2507, 18.03551
465.7328, 18.08501
466.2149, 20.21928
466.6971, 22.93755
467.1792, 23.14517
467.6613, 18.42625
468.1434, 16.34335
468.6255, 19.87497
469.1076, 23.39236
469.5898, 22.59932
470.0719, 18.63347
470.5540, 15.43346
471.0361, 15.43394
471.5182, 17.78339
472.0003, 20.42860
472.4825, 24.16032
472.9646, 25.96817
473.4467, 23.43622
473.9288, 19.99086
474.4109, 17.85269
474.8930, 17.04338
475.3752, 16.09123
475.8573, 12.26346
476.3394, 8.500626
476.8215, 11.86203
477.3036, 22.56284
477.7857, 29.86679
478.2679, 27.76993
478.7500, 19.41608
479.2321, 11.57356
479.7142, 2.296707
480.1963, 1.363693
480.6784, 7.701706
481.1606, 17.72365
481.6427, 16.76884
482.1248, 6.115631
482.6069, 3.926025
483.0890, 5.613098
483.5711, 0.3262180
484.0533, 4.415741
484.5354, 9.318314
485.0175, 12.38994
485.4996, 11.84520
485.9817, 10.66187
486.4638, 11.34010
486.9460, 14.04756
487.4281, 17.04108
487.9102, 19.86429
488.3923, 21.89137
488.8744, 20.28201
489.3565, 14.15773
489.8387, 9.454498
490.3208, 9.684464
490.8029, 12.96526
491.2850, 15.39095
491.7671, 16.62505
492.2492, 17.89734
492.7314, 20.54408
493.2135, 22.90457
493.6956, 23.09615
494.1777, 20.96503
494.6598, 16.95622
495.1419, 10.84468
495.6241, 3.500092
496.1062, 0.6004490
496.5883, 5.190582
497.0704, 10.25320
497.5525, 17.36125
498.0346, 22.94646
498.5168, 23.35638
498.9989, 18.83485
499.4810, 13.40942
499.9631, 9.905945
500.4452, 7.831940
500.9273, 5.913086
501.4095, 3.742996
501.8916, 3.616455
502.3737, 8.457077
502.8558, 14.79961
503.3379, 17.06322
503.8200, 14.32848
504.3022, 10.94183
504.7843, 7.100601
505.2664, 4.251587
505.7485, 5.399704
506.2306, 9.982025
506.7127, 12.88042
507.1949, 10.19475
507.6770, 3.792877
508.1591, 1.941849
508.6412, 9.104324
509.1233, 14.39278
509.6054, 16.39336
510.0876, 17.03180
510.5697, 17.68768
511.0518, 18.47055
511.5339, 18.51361
512.0161, 17.05695
512.4982, 14.42265
512.9803, 10.97615
513.4624, 6.297409
513.9445, 3.360748
514.4266, 3.121307
514.9088, 5.494034
515.3909, 11.20424
515.8730, 20.78641
516.3551, 26.57808
516.8372, 23.63593
517.3193, 17.86200
517.8015, 14.34613
518.2836, 13.03841
518.7657, 12.15387
519.2478, 10.83313
519.7299, 9.017792
520.2120, 6.341232
520.6942, 0.6290130
521.1763, 1.679001
521.6584, 2.625900
522.1405, 6.917419
522.6226, 6.387039
523.1047, 2.892944
523.5869, 2.078537
524.0690, 7.921432
524.5511, 15.64429
525.0332, 16.73557
525.5153, 11.24232
525.9974, 6.373810
526.4796, 2.885651
526.9617, 2.092651
527.4438, 8.210693
527.9259, 20.06572
528.4080, 25.84761
528.8901, 18.18130
529.3723, 9.663422
529.8544, 8.612717
530.3365, 11.92546
530.8186, 12.87170
531.3007, 9.213745
531.7828, 4.489243
532.2650, 3.746048
532.7471, 7.752655
533.2292, 10.97731
533.7113, 13.96091
534.1934, 15.46645
534.6755, 13.87132
535.1577, 11.04109
535.6398, 10.19667
536.1219, 12.63394
536.6040, 13.44888
537.0861, 4.623962
537.5682, 9.631241
538.0504, 14.54047
538.5325, 7.284653
539.0146, 2.862701
539.4967, 10.72429
539.9788, 16.02710
540.4609, 17.24910
540.9431, 10.07779
541.4252, 6.066696
541.9073, 10.59947
542.3894, 16.77235
542.8715, 17.33014
543.3536, 12.22374
543.8358, 6.574768
544.3179, 4.173889
544.8000, 4.798416
545.2821, 7.990967
545.7642, 15.14664
546.2463, 21.05789
546.7285, 25.00569
547.2106, 26.64131
547.6927, 24.58446
548.1748, 19.24326
548.6569, 14.83533
549.1390, 13.71756
549.6211, 14.10550
550.1032, 14.53748
550.5853, 14.88454
551.0674, 15.03893
551.5496, 15.55397
552.0317, 16.39946
552.5138, 17.78413
552.9959, 20.75554
553.4780, 20.58427
553.9601, 13.98679
554.4423, 8.250610
554.9244, 6.571747
555.4065, 7.557755
555.8886, 8.727905
556.3707, 9.162567
556.8528, 10.02292
557.3350, 12.90942
557.8171, 17.60768
558.2992, 23.00005
558.7813, 29.99933
559.2634, 34.33740
559.7455, 31.42354
560.2277, 23.84602
560.7098, 20.33955
561.1919, 24.57066
561.6740, 26.73407
562.1561, 21.14180
562.6382, 14.30432
563.1204, 15.31686
563.6025, 23.24878
564.0846, 27.73683
564.5667, 20.26985
565.0488, 5.194885
565.5309, 0.5051420
566.0131, 11.59148
566.4952, 19.42834
566.9773, 17.95686
567.4594, 14.43555
567.9415, 13.35468
568.4236, 14.33093
568.9058, 14.49985
569.3879, 11.94972
569.8700, 8.697449
570.3521, 6.271957
570.8342, 4.799103
571.3163, 4.973953
571.7985, 7.108475
572.2806, 9.980057
572.7627, 12.22963
573.2448, 13.88187
573.7269, 14.71642
574.2090, 13.56035
574.6912, 12.92805
575.1733, 14.33844
575.6554, 16.14383
576.1375, 15.96800
576.6196, 13.50996
577.1017, 11.50851
577.5839, 13.89005
578.0660, 18.70129
578.5481, 18.06241
579.0302, 10.90399
579.5123, 6.595154
579.9944, 10.77806
580.4766, 18.78835
580.9587, 21.31071
581.4408, 17.26936
581.9229, 13.61523
582.4050, 9.864670
582.8871, 8.072617
583.3693, 11.04445
583.8514, 16.88817
584.3335, 21.75679
584.8156, 23.86658
585.2977, 23.95097
585.7798, 22.40112
586.2620, 18.88089
586.7441, 18.09439
587.2262, 22.32094
587.7083, 25.89832
588.1904, 24.55258
588.6725, 20.72122
589.1547, 18.70955
589.6368, 20.54395
590.1189, 20.31041
590.6010, 10.98784
591.0831, 0.2514650
591.5652, 0.2670290
592.0474, 8.816422
592.5295, 17.20918
593.0116, 17.90588
593.4937, 13.60736
593.9758, 13.19609
594.4579, 19.19589
594.9401, 22.16637
595.4222, 17.00018
595.9043, 11.73534
596.3864, 12.14099
596.8685, 16.27150
597.3506, 18.72362
597.8328, 17.83801
598.3149, 15.03368
598.7970, 9.603516
599.2791, 3.321152
599.7612, 1.459061
600.2433, 5.039719
600.7255, 9.689087
601.2076, 11.93484
601.6897, 11.93114
602.1718, 10.90274
602.6539, 6.620117
603.1360, 4.415024
603.6182, 6.155441
604.1003, 8.918259
604.5824, 11.01157
605.0645, 12.11569
605.5466, 12.26723
606.0287, 11.68475
606.5109, 9.901978
606.9930, 4.064682
607.4751, 4.731689
607.9572, 6.476151
608.4393, 2.834641
608.9214, 13.67337
609.4036, 15.70615
609.8857, 8.891830
610.3678, 7.503006
610.8499, 18.57637
611.3320, 25.64279
611.8141, 22.27312
612.2963, 14.73624
612.7784, 8.389648
613.2605, 4.433578
613.7426, 2.422150
614.2247, 2.072128
614.7068, 3.384949
615.1890, 7.346405
615.6711, 14.17865
616.1532, 18.72556
616.6353, 19.63869
617.1174, 17.97028
617.5995, 11.84624
618.0817, 0.6946260
618.5638, 4.508499
619.0459, 1.742920
619.5280, 8.792191
620.0101, 12.92773
620.4922, 15.35873
620.9744, 18.53064
621.4565, 22.45027
621.9386, 23.73936
622.4207, 17.72528
622.9028, 7.344040
623.3849, 5.599777
623.8671, 14.47815
624.3492, 20.15442
624.8313, 16.45442
625.3134, 10.09799
625.7955, 9.595139
626.2776, 14.55214
626.7598, 18.34456
627.2419, 18.40695
627.7240, 18.54581
628.2061, 22.57480
628.6882, 27.11964
629.1703, 26.49225
629.6525, 19.83260
630.1346, 11.48155
630.6167, 4.832260
631.0988, 0.2922970
631.5809, 0.9908290
632.0630, 8.706909
632.5452, 14.61507
633.0273, 14.79074
633.5094, 13.26468
633.9915, 14.88937
634.4736, 19.45383
634.9557, 22.85292
635.4379, 24.38446
635.9200, 24.41539
636.4021, 22.47241
636.8842, 19.40994
637.3663, 16.17555
637.8484, 13.15692
638.3306, 10.90244
638.8127, 10.05859
639.2948, 10.44391
639.7769, 11.01889
640.2590, 11.82800
640.7411, 12.68340
641.2233, 13.61394
641.7054, 14.48393
642.1875, 15.63576
642.6696, 16.93787
643.1517, 16.45930
643.6339, 11.66151
644.1160, 7.272278
644.5981, 6.596649
645.0802, 7.842255
645.5623, 8.269836
646.0444, 7.521317
646.5266, 6.226151
647.0087, 4.605118
647.4908, 3.136597
647.9729, 4.394211
648.4550, 8.977036
648.9371, 14.21117
649.4193, 22.25589
649.9014, 27.58740
650.3835, 21.90259
650.8656, 7.277390
651.3477, 1.410080
651.8298, 4.015076
652.3120, 9.388443
652.7941, 6.714355
653.2762, 0.6872560
653.7583, 3.456421
654.2404, 4.247971
654.7225, 0.6889040
655.2047, 9.337143
655.6868, 22.56160
656.1689, 27.14790
656.6510, 21.58022
657.1331, 16.60555
657.6152, 14.25784
658.0974, 13.40332
658.5795, 14.01920
659.0616, 15.54703
659.5437, 15.33885
660.0258, 10.54410
660.5079, 7.231064
660.9901, 8.415253
661.4722, 11.48877
661.9543, 14.13220
662.4364, 15.89555
662.9185, 17.01044
663.4006, 17.61288
663.8828, 17.70026
664.3649, 16.76163
664.8470, 14.71124
665.3291, 14.51796
665.8112, 17.78824
666.2933, 21.41679
666.7755, 21.91309
667.2576, 20.13777
667.7397, 20.03740
668.2218, 23.69873
668.7039, 25.63850
669.1860, 23.20935
669.6682, 19.98245
670.1503, 19.68170
670.6324, 21.03555
671.1145, 19.33188
671.5966, 11.74077
672.0787, 3.739136
672.5609, 5.525757
673.0430, 14.98346
673.5251, 15.21663
674.0072, 2.822800
674.4893, 8.201828
674.9714, 9.726990
675.4536, 4.145889
675.9357, 2.789642
676.4178, 13.08611
676.8999, 20.01598
677.3820, 21.08783
677.8641, 20.45494
678.3463, 19.80838
678.8284, 19.10078
679.3105, 17.52510
679.7926, 14.88248
680.2747, 13.13530
680.7568, 15.46690
681.2390, 19.81729
681.7211, 21.34564
682.2032, 19.89914
682.6853, 15.98462
683.1674, 9.148041
683.6495, 2.092056
684.1317, 1.028183
684.6138, 0.2493130
685.0959, 3.094254
685.5780, 11.17168
686.0601, 16.43291
686.5422, 14.48248
687.0244, 10.26666
687.5065, 9.105179
687.9886, 11.49702
688.4707, 14.05954
688.9528, 15.58502
689.4349, 15.76263
689.9171, 11.97585
690.3992, 6.434082
690.8813, 7.119324
691.3634, 16.01486
691.8455, 25.15512
692.3276, 26.10927
692.8098, 20.11064
693.2919, 17.55139
693.7740, 20.20085
694.2561, 22.45752
694.7382, 24.35371
695.2203, 24.53708
695.7025, 19.61356
696.1846, 11.82588
696.6667, 9.824188
697.1488, 21.61063
697.6309, 30.79106
698.1130, 24.26692
698.5952, 12.67780
699.0773, 10.81230
699.5594, 18.16142
700.0415, 23.75584
700.5236, 20.74373
701.0057, 12.58311
701.4879, 5.009735
701.9700, 2.235001
702.4521, 3.060104
702.9342, 5.493317
703.4163, 14.37477
703.8984, 18.98499
704.3806, 19.95824
704.8627, 18.70241
705.3448, 14.41625
705.8269, 10.38071
706.3090, 5.141418
706.7911, 2.146439
707.2733, 5.080246
707.7554, 11.13400
708.2375, 15.55090
708.7196, 16.92200
709.2017, 17.31206
709.6838, 19.51595
710.1660, 22.43797
710.6481, 23.29573
711.1302, 22.16643
711.6123, 21.22993
712.0944, 21.82401
712.5765, 22.14757
713.0587, 19.24226
713.5408, 12.77835
714.0229, 7.517258
714.5050, 2.424713
714.9871, 0.1129150
715.4692, 3.187714
715.9514, 7.409241
716.4335, 8.812256
716.9156, 7.970490
717.3977, 8.921448
717.8798, 15.30540
718.3619, 21.10948
718.8441, 20.91872
719.3262, 17.14610
719.8083, 13.04840
720.2904, 9.510651
720.7725, 7.792709
721.2546, 8.922348
721.7368, 11.64981
722.2189, 12.96863
722.7010, 12.70732
723.1831, 12.16159
723.6652, 11.21272
724.1473, 10.37810
724.6295, 9.576324
725.1116, 9.253021
725.5937, 10.89207
726.0758, 16.15408
726.5579, 17.47935
727.0400, 7.736069
727.5222, 0.4616240
728.0043, 2.265427
728.4864, 10.93451
728.9685, 17.39540
729.4506, 19.34874
729.9327, 19.32756
730.4149, 19.31136
730.8970, 19.04430
731.3791, 17.45425
731.8612, 14.80481
732.3433, 13.71925
732.8254, 16.05611
733.3076, 17.83235
733.7897, 13.61978
734.2718, 3.957062
734.7539, 0.2355350
735.2360, 8.387070
735.7181, 12.51477
736.2003, 7.311813
736.6824, 0.9936070
737.1645, 1.688416
737.6466, 1.370041
738.1287, 0.6086580
738.6108, 0.6767430
739.0930, 1.061279
739.5751, 8.776077
740.0572, 17.30035
740.5393, 20.05122
741.0214, 17.85632
741.5035, 15.29561
741.9857, 14.42108
742.4678, 13.98415
742.9499, 11.65317
743.4320, 7.583679
743.9141, 3.977844
744.3962, 0.5952910
744.8784, 0.5857700
745.3605, 2.292435
745.8426, 6.018723
746.3247, 5.399780
746.8068, 0.5612950
747.2889, 0.9770200
747.7711, 11.39124
748.2532, 19.13412
748.7353, 15.65857
749.2174, 8.385254
749.6995, 2.057571
750.1816, 1.866425
750.6638, 1.019974
751.1459, 8.086380
751.6280, 17.83826
752.1101, 21.06490
752.5922, 20.00328
753.0743, 18.35851
753.5565, 16.73343
754.0386, 14.81175
754.5207, 12.33047
755.0028, 10.06575
755.4849, 9.842453
755.9670, 11.97592
756.4492, 13.15833
756.9313, 13.07059
757.4134, 12.66330
757.8955, 12.11816
758.3776, 11.64758
758.8597, 11.98004
759.3419, 13.37743
759.8240, 12.75960
760.3061, 7.453339
760.7882, 3.530518
761.2703, 3.069763
761.7524, 4.788071
762.2346, 8.757141
762.7167, 13.81219
763.1988, 15.80350
763.6809, 11.07947
764.1630, 4.607300
764.6451, 1.815414
765.1273, 1.793884
765.6094, 2.929520
766.0915, 4.730103
766.5736, 5.097549
767.0557, 2.426971
767.5378, 1.028854
768.0200, 0.3468780
768.5021, 7.864441
768.9842, 11.92754
769.4663, 10.50975
769.9484, 9.710342
770.4305, 13.09583
770.9127, 17.89748
771.3948, 20.33046
771.8769, 20.36589
772.3590, 18.88437
772.8411, 13.30917
773.3232, 9.430878
773.8054, 11.59062
774.2875, 15.16519
774.7696, 14.39494
775.2517, 9.735855
775.7338, 6.794861
776.2159, 9.788055
776.6981, 13.29781
777.1802, 9.586548
777.6623, 2.155930
778.1444, 0.3142400
778.6265, 2.654984
779.1086, 5.174362
779.5908, 3.708694
780.0729, 1.637787
780.5550, 6.613312
781.0371, 20.00519
781.5192, 25.80901
782.0013, 21.01114
782.4835, 16.69189
782.9656, 17.45889
783.4477, 20.30891
783.9298, 20.57314
784.4119, 18.07950
784.8940, 20.18808
785.3762, 37.36961
785.8583, 45.99944
786.3404, 32.25969
786.8225, 13.24864
787.3046, 2.048996
787.7867, 0.7174680
788.2689, 1.708176
788.7510, 8.571060
789.2331, 14.61098
789.7152, 15.74420
790.1973, 13.97615
790.6794, 10.88382
791.1616, 7.449188
791.6437, 7.040527
792.1258, 11.11208
792.6079, 15.74619
793.0900, 14.88350
793.5721, 9.400375
794.0543, 8.653992
794.5364, 13.42943
795.0185, 17.28680
795.5006, 18.85425
795.9827, 18.14436
796.4648, 13.76929
796.9470, 6.680481
797.4291, 4.614380
797.9112, 13.77379
798.3933, 19.07736
798.8754, 17.97955
799.3575, 14.74138
799.8397, 9.184235
800.3218, 4.006836
800.8039, 4.397141
801.2860, 12.25281
801.7681, 20.53918
802.2502, 28.98123
802.7324, 33.42166
803.2145, 27.48276
803.6966, 15.55762
804.1787, 4.794830
804.6608, 2.452591
805.1429, 4.887772
805.6251, 1.9347999E-02
806.1072, 8.791733
806.5893, 14.53806
807.0714, 17.40086
807.5535, 17.88411
808.0356, 15.89401
808.5178, 13.30112
808.9999, 10.99327
809.4820, 9.406464
809.9641, 9.650253
810.4462, 11.61357
810.9283, 16.39212
811.4105, 29.34294
811.8926, 36.32405
812.3747, 25.63235
812.8568, 10.29913
813.3389, 6.019135
813.8210, 12.89207
814.3032, 18.28177
814.7853, 20.73268
815.2674, 20.95151
815.7495, 15.86929
816.2316, 11.23831
816.7137, 14.26915
817.1959, 22.48531
817.6780, 27.02060
818.1601, 23.66910
818.6422, 18.22070
819.1243, 14.78761
819.6064, 12.85176
820.0886, 11.88669
820.5707, 11.68434
821.0528, 11.85658
821.5349, 12.25005
822.0170, 12.76477
822.4991, 13.36522
822.9813, 13.95847
823.4634, 14.20750
823.9455, 14.12233
824.4276, 12.99956
824.9097, 9.978058
825.3918, 9.064789
825.8740, 14.55772
826.3561, 23.59508
826.8382, 26.33673
827.3203, 19.67604
827.8024, 14.01917
828.2845, 7.302567
828.7667, 4.362000
829.2488, 11.22119
829.7309, 20.16191
830.2130, 21.03946
830.6951, 13.33366
831.1772, 7.289627
831.6594, 5.054565
832.1415, 5.320236
832.6236, 11.19887
833.1057, 17.15225
833.5878, 13.68933
834.0699, 4.688995
834.5521, 3.059631
835.0342, 16.05200
835.5163, 29.16713
835.9984, 26.81645
836.4805, 17.03346
836.9626, 11.88016
837.4448, 11.54916
837.9269, 14.23604
838.4090, 19.10432
838.8911, 23.76196
839.3732, 25.94716
839.8553, 25.65306
840.3375, 20.98650
840.8196, 11.73749
841.3017, 10.58846
841.7838, 21.64038
842.2659, 31.70341
842.7480, 31.59535
843.2302, 24.72163
843.7123, 19.81374
844.1944, 18.37154
844.6765, 13.51535
845.1586, 0.1420140
845.6407, 9.196121
846.1229, 9.114761
846.6050, 2.293549
847.0871, 14.03473
847.5692, 38.05081
848.0513, 49.07489
848.5334, 33.90395
849.0156, 19.56845
849.4977, 14.09294
849.9798, 11.51991
850.4619, 7.291046
850.9440, 2.144119
851.4261, 1.314789
851.9083, 2.269043
852.3904, 2.150452
852.8725, 2.890533
853.3546, 2.204865
853.8367, 4.580505
854.3188, 13.99640
854.8010, 17.93390
855.2831, 15.66805
855.7652, 14.61595
856.2473, 21.12000
856.7294, 29.21422
857.2115, 26.46121
857.6937, 15.79895
858.1758, 10.57394
858.6579, 11.95909
859.1400, 15.36719
859.6221, 19.16708
860.1042, 20.86110
860.5864, 16.25262
861.0685, 5.750793
861.5506, 0.2301180
862.0327, 0.4428410
862.5148, 2.974594
862.9969, 8.907272
863.4791, 13.96484
863.9612, 12.90700
864.4433, 8.056458
864.9254, 8.181519
865.4075, 18.58134
865.8896, 22.84763
866.3718, 14.77176
866.8539, 8.258850
867.3360, 10.74193
867.8181, 15.65100
868.3002, 14.00174
868.7823, 6.021729
869.2645, 2.828339
869.7466, 11.73418
870.2287, 20.09909
870.7108, 24.20070
871.1929, 24.78027
871.6750, 20.01894
872.1572, 12.81458
872.6393, 9.576874
873.1214, 12.57718
873.6035, 16.09836
874.0856, 16.10361
874.5677, 14.39873
875.0499, 11.15215
875.5320, 8.341751
876.0141, 11.42101
876.4962, 20.15015
876.9783, 26.89087
877.4604, 26.03520
877.9426, 22.33817
878.4247, 24.92532
878.9068, 31.20100
879.3889, 30.01660
879.8710, 21.37260
880.3531, 14.34598
880.8353, 12.57521
881.3174, 14.73068
881.7995, 20.23610
882.2816, 27.90649
882.7637, 30.01894
883.2458, 26.11092
883.7280, 19.05588
884.2101, 7.383377
884.6922, 0.7792820
885.1743, 0.7008670
885.6564, 8.227737
886.1385, 14.36134
886.6207, 19.42357
887.1028, 21.39192
887.5849, 17.90540
888.0670, 15.17661
888.5491, 17.62186
889.0313, 19.28865
889.5134, 11.36099
889.9955, 3.390137
890.4776, 8.594849
890.9597, 3.376099
891.4418, 13.62288
891.9240, 20.16443
892.4061, 23.79335
892.8882, 22.33604
893.3703, 19.66621
893.8524, 22.83670
894.3345, 31.85518
894.8167, 35.08644
895.2988, 20.20309
895.7809, 7.707321
896.2630, 11.66805
896.7451, 21.07785
897.2272, 25.78606
897.7094, 25.54037
898.1915, 22.52637
898.6736, 17.49275
899.1557, 13.54243
899.6378, 14.27065
900.1199, 16.58595
900.6021, 16.56604
901.0842, 15.22527
901.5663, 14.86349
902.0484, 15.80470
902.5305, 17.15443
903.0126, 18.33974
903.4948, 18.56725
903.9769, 17.62546
904.4590, 16.37576
904.9411, 14.75398
905.4232, 13.23502
905.9053, 18.48466
906.3875, 32.54593
906.8696, 43.89873
907.3517, 40.42346
907.8338, 27.42741
908.3159, 22.71278
908.7980, 26.34361
909.2802, 27.28484
909.7623, 24.27165
910.2444, 20.16293
910.7265, 15.50250
911.2086, 13.02696
911.6907, 18.07249
912.1729, 30.19864
912.6550, 32.42752
913.1371, 20.47549
913.6192, 12.40820
914.1013, 12.70793
914.5834, 14.88420
915.0656, 15.58739
915.5477, 14.60939
916.0298, 10.77402
916.5119, 1.720001
916.9940, 1.213379
917.4761, 7.765167
917.9583, 14.66269
918.4404, 14.84615
918.9225, 12.98984
919.4046, 10.74008
919.8867, 9.402649
920.3688, 13.78706
920.8510, 29.05141
921.3331, 39.21304
921.8152, 41.48010
922.2973, 39.08321
922.7794, 29.62198
923.2615, 18.72116
923.7437, 12.41772
924.2258, 11.00255
924.7079, 11.87299
925.1900, 16.39154
925.6721, 19.51372
926.1542, 16.85323
926.6364, 14.17429
927.1185, 17.18073
927.6006, 23.06064
928.0827, 26.80428
928.5648, 27.26149
929.0469, 25.90152
929.5291, 20.65063
930.0112, 17.22809
930.4933, 23.74779
930.9754, 31.95445
931.4575, 29.86456
931.9396, 20.10355
932.4218, 12.76248
932.9039, 11.48909
933.3860, 12.97708
933.8681, 15.80313
934.3502, 18.64827
934.8323, 19.66083
935.3145, 19.42178
935.7966, 18.86552
936.2787, 18.28607
936.7608, 17.82788
937.2429, 17.52498
937.7250, 18.10545
938.2072, 22.30203
938.6893, 27.30478
939.1714, 25.93886
939.6535, 19.40739
940.1356, 11.12686
940.6177, 2.635605
941.0999, 0.3138430
941.5820, 9.439468
942.0641, 23.06386
942.5462, 29.22095
943.0283, 28.85509
943.5104, 23.76265
943.9926, 14.65442
944.4747, 11.35121
944.9568, 17.07924
945.4389, 20.76300
945.9210, 11.33168
946.4031, 4.861298
946.8853, 9.702667
947.3674, 3.237930
947.8495, 5.385864
948.3316, 16.19429
948.8137, 22.44429
949.2958, 19.79056
949.7780, 14.43462
950.2601, 13.06438
950.7422, 15.16457
951.2243, 18.96999
951.7064, 25.58719
952.1885, 25.64381
952.6707, 15.96846
953.1528, 8.404007
953.6349, 8.727615
954.1170, 13.52173
954.5991, 19.35036
955.0812, 25.83113
955.5634, 24.27843
956.0455, 10.60486
956.5276, 1.525314
957.0097, 0.3336640
957.4918, 1.373230
957.9739, 5.685455
958.4561, 11.32764
958.9382, 16.28377
959.4203, 20.53683
959.9024, 24.80757
960.3845, 31.35704
960.8666, 33.19556
961.3488, 26.29846
961.8309, 18.57024
962.3130, 14.52821
962.7951, 13.04390
963.2772, 12.05264
963.7593, 11.68506
964.2415, 11.09286
964.7236, 8.714447
965.2057, 8.385727
965.6878, 12.62299
966.1699, 17.28362
966.6520, 20.66661
967.1342, 22.33537
967.6163, 20.83727
968.0984, 14.99387
968.5805, 10.62802
969.0626, 8.134613
969.5447, 6.970306
970.0269, 8.125580
970.5090, 9.539444
970.9911, 9.464935
971.4732, 8.433807
971.9553, 7.658005
972.4374, 6.537766
972.9196, 8.238037
973.4017, 17.87073
973.8838, 24.43582
974.3659, 20.99420
974.8480, 15.34137
975.3301, 16.00639
975.8123, 20.45001
976.2944, 19.32806
976.7765, 8.580139
977.2586, 0.9702000
977.7407, 2.741302
978.2228, 4.100571
978.7050, 1.481369
979.1871, 7.762466
979.6692, 7.726120
980.1513, 2.684769
980.6334, 0.9597780
981.1155, 1.118469
981.5977, 2.103470
982.0798, 6.617310
982.5619, 10.59766
983.0440, 10.76456
983.5261, 10.21408
984.0082, 13.47227
984.4904, 19.35286
984.9725, 21.98497
985.4546, 18.80785
985.9367, 15.35495
986.4188, 12.13390
986.9009, 10.86002
987.3831, 14.52858
987.8652, 19.32878
988.3473, 20.32768
988.8294, 18.04080
989.3115, 16.97429
989.7936, 19.23114
990.2758, 20.57887
990.7579, 19.25735
991.2400, 16.66824
991.7221, 11.01737
992.2042, 6.406250
992.6863, 8.817474
993.1685, 16.81642
993.6506, 23.10411
994.1327, 25.73746
994.6148, 25.60306
995.0969, 19.98239
995.5790, 15.05606
996.0612, 15.74300
996.5433, 19.17268
997.0254, 21.80252
997.5075, 23.33359
997.9896, 25.50922
998.4717, 30.54887
998.9539, 31.34706
999.4360, 18.30916
999.9181, 6.713943
1000.400, 10.30121
1000.882, 19.49519
1001.364, 19.96674
1001.847, 12.99609
1002.329, 12.51463
1002.811, 27.17493
1003.293, 36.59178
1003.775, 25.82309
1004.257, 12.07812
1004.739, 6.006119
1005.221, 5.748825
1005.703, 7.867157
1006.186, 11.45724
1006.668, 16.97058
1007.150, 26.11145
1007.632, 31.77153
1008.114, 27.84894
1008.596, 22.54845
1009.078, 22.26265
1009.560, 22.93449
1010.043, 17.52017
1010.525, 7.931061
1011.007, 3.923965
1011.489, 10.18178
1011.971, 15.78752
1012.453, 15.40759
1012.935, 13.71407
1013.417, 14.05696
1013.899, 14.26567
1014.382, 9.597076
1014.864, 2.428711
1015.346, 2.337082
1015.828, 14.57088
1016.310, 22.38698
1016.792, 14.46370
1017.274, 6.241440
1017.756, 7.565216
1018.239, 11.67070
1018.721, 10.99991
1019.203, 6.685196
1019.685, 4.108078
1020.167, 4.609344
1020.649, 6.347702
1021.131, 10.32715
1021.613, 13.42809
1022.095, 12.84822
1022.578, 11.90932
1023.060, 14.70161
1023.542, 19.50769
1024.024, 21.21915
1024.506, 18.33839
1024.988, 16.08353
1025.470, 16.66043
1025.952, 16.97084
1026.435, 15.28981
1026.917, 13.43065
1027.399, 13.15565
1027.881, 13.76102
1028.363, 13.72456
1028.845, 12.89458
1029.327, 11.02534
1029.809, 5.855103
1030.292, 2.717880
1030.774, 4.272476
1031.256, 7.067596
1031.738, 10.10239
1032.220, 12.18495
1032.702, 10.32623
1033.184, 3.774185
1033.666, 1.376694
1034.148, 6.794769
1034.630, 12.36818
1035.113, 17.65027
1035.595, 21.94127
1036.077, 25.52646
1036.559, 27.47189
1037.041, 25.08450
1037.523, 18.55038
1038.005, 15.55350
1038.487, 19.85913
1038.970, 21.06134
1039.452, 16.85814
1039.934, 11.62347
1040.416, 5.645432
1040.898, 1.111847
1041.380, 1.250320
1041.862, 5.633163
1042.344, 8.384125
1042.826, 7.897812
1043.309, 9.473907
1043.791, 15.39807
1044.273, 19.31551
1044.755, 17.66351
1045.237, 14.93936
1045.719, 16.51701
1046.201, 20.72145
1046.683, 19.38911
1047.166, 10.16058
1047.648, 3.483307
1048.130, 0.2122190
1048.612, 3.108551
1049.094, 8.389755
1049.576, 11.74419
1050.058, 9.671890
1050.540, 3.488159
1051.022, 3.893631
1051.505, 12.94505
1051.987, 18.61502
1052.469, 20.93515
1052.951, 18.41205
1053.433, 9.505768
1053.915, 2.307968
1054.397, 2.424088
1054.879, 6.888702
1055.361, 11.24863
1055.844, 15.09619
1056.326, 11.72981
1056.808, 1.184784
1057.290, 1.600876
1057.772, 6.002487
1058.254, 13.27138
1058.736, 14.55061
1059.218, 13.28200
1059.701, 14.02716
1060.183, 15.76227
1060.665, 15.63454
1061.147, 13.92061
1061.629, 11.37793
1062.111, 8.511398
1062.593, 9.262741
1063.075, 14.90362
1063.557, 18.34282
1064.040, 10.93159
1064.522, 0.7911070
1065.004, 4.661423
1065.486, 16.84750
1065.968, 24.12131
1066.450, 26.39909
1066.932, 27.56387
1067.414, 28.68068
1067.896, 28.68538
1068.379, 26.94135
1068.861, 23.44881
1069.343, 15.10356
1069.825, 7.363190
1070.307, 9.637634
1070.789, 17.76712
1071.271, 23.46980
1071.753, 25.52325
1072.236, 27.07040
1072.718, 29.87830
1073.200, 29.80072
1073.682, 21.04298
1074.164, 11.13860
1074.646, 5.128601
1075.128, 2.541977
1075.610, 4.471619
1076.093, 9.121323
1076.575, 10.43788
1077.057, 6.973007
1077.539, 3.672165
1078.021, 1.375870
1078.503, 1.325928
1078.985, 6.160324
1079.467, 11.40533
1079.949, 13.98578
1080.432, 14.41171
1080.914, 13.13815
1081.396, 10.44540
1081.878, 9.783066
1082.360, 14.51115
1082.842, 17.09416
1083.324, 13.11868
1083.806, 10.69966
1084.288, 16.32545
1084.771, 23.21265
1085.253, 23.57935
1085.735, 18.60719
1086.217, 13.96594
1086.699, 8.962372
1087.181, 6.208511
1087.663, 6.165619
1088.145, 7.592010
1088.628, 10.92197
1089.110, 14.35234
1089.592, 17.02327
1090.074, 18.32370
1090.556, 16.47379
1091.038, 11.27798
1091.520, 8.692657
1092.002, 8.974411
1092.484, 10.71863
1092.967, 14.06761
1093.449, 16.16365
1093.931, 15.29370
1094.413, 14.19890
1094.895, 16.94847
1095.377, 21.65613
1095.859, 20.96223
1096.341, 15.50935
1096.823, 9.511749
1097.306, 3.613525
1097.788, 6.6528000E-02
1098.270, 0.8551940
1098.752, 1.848984
1099.234, 9.208206
1099.716, 17.00061
1100.198, 17.11610
1100.680, 13.82956
1101.163, 17.58507
1101.645, 24.98505
1102.127, 25.56538
1102.609, 19.37221
1103.091, 14.32629
1103.573, 14.48962
1104.055, 17.17735
1104.537, 21.98325
1105.020, 26.36729
1105.502, 27.99193
1105.984, 27.82396
1106.466, 25.64146
1106.948, 22.77640
1107.430, 22.63582
1107.912, 26.03781
1108.394, 28.98050
1108.876, 30.21469
1109.359, 29.27470
1109.841, 24.30618
1110.323, 19.10562
1110.805, 13.91420
1111.287, 11.27228
1111.769, 16.49672
1112.251, 27.48357
1112.733, 32.65720
1113.215, 28.08687
1113.698, 24.90854
1114.180, 24.61697
1114.662, 24.00269
1115.144, 23.42680
1115.626, 20.47108
1116.108, 11.07715
1116.590, 0.4011690
1117.072, 1.291245
1117.555, 6.056671
1118.037, 10.22513
1118.519, 10.43355
1119.001, 11.86911
1119.483, 15.22296
1119.965, 19.86707
1120.447, 26.07230
1120.929, 29.48741
1121.411, 24.85590
1121.894, 16.00113
1122.376, 13.03157
1122.858, 14.90767
1123.340, 16.31174
1123.822, 17.19661
1124.304, 19.01323
1124.786, 21.92395
1125.268, 25.18872
1125.750, 28.58826
1126.233, 28.80807
1126.715, 17.64236
1127.197, 4.906067
1127.679, 6.719620
1128.161, 14.85358
1128.643, 16.02438
1129.125, 11.40112
1129.607, 8.135864
1130.090, 8.052307
1130.572, 8.472183
1131.054, 6.900909
1131.536, 6.331650
1132.018, 11.57808
1132.500, 14.70190
1132.982, 5.034027
1133.464, 6.056061
1133.947, 2.182831
1134.429, 13.07520
1134.911, 20.76021
1135.393, 14.99985
1135.875, 14.06941
1136.357, 25.57063
1136.839, 32.62598
1137.321, 29.78812
1137.803, 25.60878
1138.286, 24.20506
1138.768, 25.30139
1139.250, 29.89821
1139.732, 36.80812
1140.214, 34.32159
1140.696, 20.89253
1141.178, 11.94716
1141.660, 8.442551
1142.142, 10.92590
1142.625, 20.04436
1143.107, 26.69527
1143.589, 23.03410
1144.071, 16.06119
1144.553, 19.78018
1145.035, 29.40942
1145.517, 29.26677
1145.999, 22.53508
1146.482, 19.67497
1146.964, 21.11066
1147.446, 21.39642
1147.928, 18.56587
1148.410, 15.44513
1148.892, 13.38052
1149.374, 13.11441
1149.856, 17.38295
1150.339, 21.83154
1150.821, 21.05026
1151.303, 18.13156
1151.785, 19.36771
1152.267, 23.57484
1152.749, 22.39626
1153.231, 12.10388
1153.713, 3.275696
1154.195, 2.847839
1154.677, 5.636948
1155.160, 3.853027
1155.642, 0.2139890
1156.124, 6.799316
1156.606, 13.66386
1157.088, 17.28020
1157.570, 17.77081
1158.052, 16.59689
1158.534, 13.66455
1159.017, 8.714783
1159.499, 0.6461490
1159.981, 2.256973
1160.463, 2.971832
1160.945, 9.923569
1161.427, 14.09932
1161.909, 16.61926
1162.391, 19.59186
1162.874, 22.42543
1163.356, 22.58412
1163.838, 21.03026
1164.320, 21.48692
1164.802, 23.39937
1165.284, 21.79391
1165.766, 15.77548
1166.248, 12.91560
1166.730, 20.64424
1167.213, 26.98447
1167.695, 17.65855
1168.177, 7.107300
1168.659, 10.80861
1169.141, 19.14940
1169.623, 17.04788
1170.105, 8.528152
1170.587, 11.02631
1171.069, 30.15233
1171.552, 38.44281
1172.034, 20.04532
1172.516, 7.906113
1172.998, 10.09711
1173.480, 15.06972
1173.962, 19.63766
1174.444, 22.54297
1174.926, 21.76926
1175.409, 18.81619
1175.891, 18.26236
1176.373, 20.40814
1176.855, 22.92786
1177.337, 25.91678
1177.819, 24.22824
1178.301, 17.05890
1178.783, 11.37161
1179.266, 10.55402
1179.748, 11.21645
1180.230, 9.194092
1180.712, 7.649704
1181.194, 13.98770
1181.676, 22.89745
1182.158, 24.94458
1182.640, 22.21381
1183.122, 19.04518
1183.604, 16.51646
1184.087, 17.83438
1184.569, 24.67046
1185.051, 28.43564
1185.533, 22.14246
1186.015, 16.28682
1186.497, 17.71230
1186.979, 18.49870
1187.461, 8.722717
1187.944, 2.160202
1188.426, 1.880814
1188.908, 17.56088
1189.390, 23.78683
1189.872, 16.29694
1190.354, 15.34444
1190.836, 23.38371
1191.318, 26.66754
1191.801, 21.66301
1192.283, 14.72821
1192.765, 9.057907
1193.247, 6.740005
1193.729, 11.73601
1194.211, 18.89864
1194.693, 19.59689
1195.175, 15.64456
1195.657, 9.205841
1196.140, 2.069183
1196.622, 2.954163
1197.104, 4.837128
1197.586, 0.3009490
1198.068, 14.48416
1198.550, 25.29688
1199.032, 23.67807
1199.514, 18.12601
1199.996, 6.971268
1200.479, 0.5150600
1200.961, 13.22134
1201.443, 31.80046
1201.925, 35.52953
1202.407, 25.43422
1202.889, 18.48972
1203.371, 15.38651
1203.853, 13.69470
1204.336, 14.28400
1204.818, 13.07458
1205.300, 8.504745
1205.782, 5.316544
1206.264, 5.943863
1206.746, 9.936188
1207.228, 17.62071
1207.710, 26.63290
1208.193, 32.50032
1208.675, 34.35301
1209.157, 25.44818
1209.639, 11.10913
1210.121, 8.114563
1210.603, 16.75980
1211.085, 24.52939
1211.567, 28.10747
1212.049, 28.22797
1212.531, 21.74435
1213.014, 17.49582
1213.496, 24.20610
1213.978, 30.31419
1214.460, 25.54150
1214.942, 17.04352
1215.424, 12.97842
1215.906, 15.14787
1216.388, 13.52574
1216.871, 6.951950
1217.353, 2.457001
1217.835, 0.5672150
1218.317, 0.2385860
1218.799, 1.616959
1219.281, 2.355148
1219.763, 1.311737
1220.245, 1.684509
1220.728, 6.944901
1221.210, 12.96819
1221.692, 11.25209
1222.174, 5.760376
1222.656, 4.988892
1223.138, 6.767853
1223.620, 6.013306
1224.102, 3.288132
1224.584, 2.196243
1225.067, 3.614792
1225.549, 5.545761
1226.031, 7.170151
1226.513, 8.960922
1226.995, 12.24817
1227.477, 13.71793
1227.959, 9.600388
1228.441, 4.954254
1228.923, 3.758575
1229.406, 4.095413
1229.888, 2.622787
1230.370, 0.2983860
1230.852, 0.1387020
1231.334, 4.065643
1231.816, 8.578445
1232.298, 9.632370
1232.780, 7.435760
1233.263, 0.0000000E+00
##END=



