##NAMES=Petzite
##RRUFFID=R070254
##IDEAL CHEMISTRY=Ag_3_AuTe_2_
##LOCALITY=Red Jacket mine, Baker County, Oregon, USA
##OWNER=RRUFF
##SOURCE=Michael Scott
##DESCRIPTION=Steel grey metallic fragments with subconchoidal fracture, sample used as the standard for the ICDD powder diffraction file
##STATUS=The identification of this mineral has been confirmed by X-ray diffraction and chemical analysis
##URL=rruff.info/R070254
##MEASURED CHEMISTRY=Ag_3.00_Au_1.00_Te_2.00_ ; = lighter phase. The darker phase is: Ag_3.00_(Au_0.99_Cu_0.01_)_Î£=1_Te_2.00_
143.3943, 0.0000000E+00
143.8764, 5.066772
144.3585, 14.89331
144.8407, 19.98376
145.3228, 17.19498
145.8049, 11.30231
146.2870, 6.638123
146.7691, 2.772156
147.2512, 0.5537110
147.7334, 6.8389997E-02
148.2155, 1.270691
148.6976, 4.462952
149.1797, 12.40219
149.6618, 21.50931
150.1439, 27.01642
150.6261, 25.60983
151.1082, 23.48676
151.5903, 21.77063
152.0724, 19.61652
152.5545, 20.26813
153.0366, 26.41174
153.5188, 35.45657
154.0009, 42.09830
154.4830, 44.44037
154.9651, 45.18768
155.4472, 45.57678
155.9293, 45.89658
156.4115, 45.69611
156.8936, 44.43109
157.3757, 42.45007
157.8578, 40.96542
158.3399, 42.30081
158.8221, 43.13904
159.3042, 41.28278
159.7863, 31.16592
160.2684, 25.28085
160.7505, 25.45322
161.2326, 29.41248
161.7148, 34.20398
162.1969, 39.58694
162.6790, 44.13312
163.1611, 47.48932
163.6432, 47.78568
164.1253, 45.06937
164.6075, 37.07623
165.0896, 25.16864
165.5717, 15.18201
166.0538, 15.11166
166.5359, 21.45486
167.0180, 29.13123
167.5002, 42.38638
167.9823, 52.29730
168.4644, 48.42801
168.9465, 27.65018
169.4286, 9.976288
169.9107, 13.88120
170.3929, 31.26877
170.8750, 44.29575
171.3571, 38.72919
171.8392, 26.26398
172.3213, 20.03113
172.8034, 23.18594
173.2856, 27.77051
173.7677, 25.57120
174.2498, 19.61307
174.7319, 13.37891
175.2140, 15.06979
175.6961, 19.59320
176.1783, 17.75473
176.6604, 4.490753
177.1425, 9.438385
177.6246, 8.589050
178.1067, 5.115997
178.5888, 19.27951
179.0710, 23.88004
179.5531, 22.19989
180.0352, 21.71228
180.5173, 25.89551
180.9994, 30.33826
181.4815, 25.74173
181.9637, 12.36362
182.4458, 0.4513550
182.9279, 4.393951
183.4100, 1.057434
183.8921, 3.748077
184.3742, 10.29623
184.8564, 16.40891
185.3385, 14.64423
185.8206, 4.284332
186.3027, 5.417755
186.7848, 3.773987
187.2669, 7.909424
187.7491, 19.77670
188.2312, 30.23605
188.7133, 38.27246
189.1954, 38.59869
189.6775, 29.93814
190.1596, 19.20355
190.6418, 15.31793
191.1239, 18.13394
191.6060, 20.61713
192.0881, 18.67676
192.5702, 13.15283
193.0524, 12.63565
193.5345, 18.69412
194.0166, 25.68509
194.4987, 22.23502
194.9808, 7.373047
195.4629, 3.261047
195.9451, 0.9578550
196.4272, 19.67542
196.9093, 30.79514
197.3914, 32.00818
197.8735, 28.16464
198.3556, 29.05350
198.8378, 35.63855
199.3199, 40.83017
199.8020, 39.29019
200.2841, 30.33160
200.7662, 25.70123
201.2483, 27.55917
201.7305, 32.73077
202.2126, 33.22891
202.6947, 28.42151
203.1768, 21.27802
203.6589, 11.89871
204.1410, 0.7297970
204.6232, 7.524384
205.1053, 6.594421
205.5874, 0.2076720
206.0695, 6.974823
206.5516, 13.64343
207.0337, 20.44226
207.5159, 28.57639
207.9980, 39.14795
208.4801, 45.08243
208.9622, 45.07721
209.4443, 39.77631
209.9264, 30.68771
210.4086, 14.37259
210.8907, 1.156525
211.3728, 1.229645
211.8549, 19.93732
212.3370, 33.56702
212.8191, 38.00958
213.3013, 34.16827
213.7834, 29.06143
214.2655, 20.79385
214.7476, 14.30273
215.2297, 15.20551
215.7118, 27.58752
216.1940, 35.80692
216.6761, 35.65121
217.1582, 27.60141
217.6403, 23.82742
218.1224, 26.31082
218.6045, 30.53571
219.0867, 31.71362
219.5688, 27.53876
220.0509, 25.94635
220.5330, 29.90826
221.0151, 39.68390
221.4972, 44.48517
221.9794, 42.49194
222.4615, 37.61630
222.9436, 33.79657
223.4257, 31.05829
223.9078, 29.38959
224.3899, 29.56653
224.8721, 31.37976
225.3542, 31.18665
225.8363, 27.36200
226.3184, 23.39517
226.8005, 24.13025
227.2827, 33.52878
227.7648, 39.99948
228.2469, 40.02084
228.7290, 32.68344
229.2111, 25.72699
229.6932, 17.89505
230.1754, 11.53699
230.6575, 10.60202
231.1396, 19.82919
231.6217, 25.96500
232.1038, 23.77591
232.5859, 10.46350
233.0681, 4.226807
233.5502, 7.789795
234.0323, 16.45154
234.5144, 24.17087
234.9965, 30.52466
235.4786, 34.32828
235.9608, 34.63165
236.4429, 29.31259
236.9250, 27.57483
237.4071, 32.59012
237.8892, 39.22302
238.3713, 38.27631
238.8535, 22.82422
239.3356, 11.50967
239.8177, 12.32925
240.2998, 30.87085
240.7819, 38.81195
241.2640, 30.96997
241.7462, 16.22485
242.2283, 10.36230
242.7104, 18.82416
243.1925, 27.22983
243.6746, 30.75616
244.1567, 27.66705
244.6389, 24.17847
245.1210, 18.86377
245.6031, 13.98242
246.0852, 14.79617
246.5673, 25.66446
247.0494, 34.77005
247.5316, 37.22327
248.0137, 30.17532
248.4958, 26.25052
248.9779, 26.84448
249.4600, 29.80432
249.9421, 31.45923
250.4243, 32.53690
250.9064, 30.96985
251.3885, 24.26099
251.8706, 7.871979
252.3527, 2.548462
252.8348, 13.94998
253.3170, 32.68909
253.7991, 40.86722
254.2812, 32.75098
254.7633, 24.35959
255.2454, 22.06442
255.7275, 28.04080
256.2097, 32.08493
256.6918, 33.58743
257.1739, 33.53577
257.6560, 34.08301
258.1381, 36.46048
258.6202, 36.82840
259.1024, 32.34818
259.5845, 20.30310
260.0666, 15.54398
260.5487, 21.41949
261.0308, 32.05191
261.5129, 35.84958
261.9951, 28.92770
262.4772, 23.98489
262.9593, 29.29074
263.4414, 50.20026
263.9235, 55.38031
264.4056, 37.36523
264.8878, 10.59229
265.3699, 2.222565
265.8520, 19.28140
266.3341, 34.43674
266.8162, 35.00620
267.2983, 17.39526
267.7805, 8.857635
268.2626, 12.04681
268.7447, 21.48111
269.2268, 28.52069
269.7089, 33.31921
270.1910, 35.13589
270.6732, 32.65689
271.1553, 25.22946
271.6374, 20.39862
272.1195, 19.19971
272.6016, 19.07010
273.0837, 14.84036
273.5659, 5.135010
274.0480, 1.747192
274.5301, 1.502441
275.0122, 6.196198
275.4943, 11.70682
275.9764, 14.64661
276.4586, 16.11804
276.9407, 17.76215
277.4228, 19.64828
277.9049, 20.96811
278.3870, 21.13712
278.8691, 20.22464
279.3513, 20.48575
279.8334, 22.94220
280.3155, 24.56308
280.7976, 17.97733
281.2798, 2.932373
281.7619, 7.002594
282.2440, 4.459412
282.7261, 8.647675
283.2082, 18.14728
283.6903, 23.96616
284.1725, 26.44458
284.6546, 25.09027
285.1367, 20.03665
285.6188, 14.30688
286.1009, 7.735229
286.5830, 1.234741
287.0652, 0.7416380
287.5473, 2.223938
288.0294, 7.339600
288.5115, 12.61414
288.9936, 17.84201
289.4757, 21.09216
289.9579, 21.89612
290.4400, 20.24982
290.9221, 14.02847
291.4042, 2.668884
291.8863, 6.224884
292.3684, 1.683868
292.8506, 13.03860
293.3327, 23.58777
293.8148, 22.63034
294.2969, 17.26086
294.7790, 20.03732
295.2611, 30.41629
295.7433, 40.66147
296.2254, 44.88861
296.7075, 44.08090
297.1896, 40.46182
297.6717, 32.38910
298.1538, 23.80484
298.6360, 22.08685
299.1181, 26.67126
299.6002, 31.13016
300.0823, 27.50128
300.5644, 20.15118
301.0465, 17.87894
301.5287, 25.82242
302.0108, 36.91785
302.4929, 44.53137
302.9750, 48.70776
303.4571, 49.30283
303.9392, 43.57007
304.4214, 35.03503
304.9035, 28.25998
305.3856, 24.60062
305.8677, 22.77338
306.3498, 21.51599
306.8319, 21.14920
307.3141, 22.81894
307.7962, 29.23920
308.2783, 37.06720
308.7604, 43.55371
309.2425, 48.88513
309.7246, 50.77191
310.2068, 45.66351
310.6889, 35.71454
311.1710, 26.45721
311.6531, 17.40918
312.1352, 11.97711
312.6173, 14.15341
313.0995, 27.47235
313.5816, 39.78510
314.0637, 45.55072
314.5458, 46.38580
315.0279, 45.42349
315.5100, 41.21292
315.9922, 37.51700
316.4743, 37.69171
316.9564, 44.10690
317.4385, 46.12888
317.9206, 35.06290
318.4027, 18.68704
318.8849, 7.847168
319.3670, 9.480682
319.8491, 13.60831
320.3312, 16.30798
320.8133, 16.70599
321.2954, 19.31354
321.7776, 28.90436
322.2597, 39.71744
322.7418, 45.53870
323.2239, 43.06006
323.7060, 37.78281
324.1881, 28.43015
324.6703, 14.13248
325.1524, 6.830170
325.6345, 15.72433
326.1166, 27.60275
326.5987, 31.84406
327.0808, 18.47934
327.5630, 9.210358
328.0451, 8.766113
328.5272, 16.58716
329.0093, 19.85941
329.4914, 15.11517
329.9735, 8.919403
330.4557, 5.306061
330.9378, 3.925232
331.4199, 6.026398
331.9020, 13.82855
332.3841, 25.56195
332.8662, 32.29721
333.3484, 32.70685
333.8305, 29.94604
334.3126, 24.98959
334.7947, 16.39066
335.2768, 10.40845
335.7589, 8.263000
336.2411, 8.413147
336.7232, 5.978607
337.2053, 0.9997250
337.6874, 4.762115
338.1695, 0.2734680
338.6516, 15.66885
339.1338, 25.71408
339.6159, 29.04739
340.0980, 28.23099
340.5801, 25.68646
341.0622, 20.84238
341.5443, 17.58984
342.0265, 18.33823
342.5086, 22.55383
342.9907, 25.50745
343.4728, 27.42606
343.9549, 27.17438
344.4370, 20.67685
344.9192, 8.962616
345.4013, 2.181641
345.8834, 6.780762
346.3655, 18.16663
346.8476, 23.96841
347.3297, 24.04706
347.8119, 22.30093
348.2940, 21.53302
348.7761, 21.78519
349.2582, 23.61743
349.7403, 29.98969
350.2225, 35.18546
350.7046, 26.46347
351.1867, 5.647522
351.6688, 12.20728
352.1509, 13.71555
352.6331, 6.074188
353.1152, 0.1081540
353.5973, 1.909821
354.0794, 2.914429
354.5615, 8.036011
355.0436, 15.53293
355.5258, 19.87729
356.0079, 13.98086
356.4900, 4.616302
356.9721, 1.762451
357.4542, 3.964722
357.9363, 2.997772
358.4185, 2.951477
358.9006, 11.48505
359.3827, 18.47562
359.8648, 23.90936
360.3469, 26.44849
360.8290, 24.04742
361.3112, 15.62796
361.7933, 9.011078
362.2754, 7.682953
362.7575, 9.007080
363.2396, 10.12256
363.7217, 10.86404
364.2039, 10.86829
364.6860, 9.486725
365.1681, 6.546906
365.6502, 4.838470
366.1323, 3.667847
366.6144, 4.415710
367.0966, 8.111816
367.5787, 20.93228
368.0608, 29.05859
368.5429, 29.79294
369.0250, 24.54944
369.5071, 20.56998
369.9893, 17.75790
370.4714, 16.31848
370.9535, 16.42676
371.4356, 18.41809
371.9177, 21.40213
372.3998, 26.44370
372.8820, 31.93628
373.3641, 34.25952
373.8462, 32.98154
374.3283, 29.60822
374.8104, 23.56531
375.2925, 14.19901
375.7747, 9.600372
376.2568, 10.50113
376.7389, 14.67029
377.2210, 21.28458
377.7031, 30.16034
378.1852, 33.48108
378.6674, 26.28058
379.1495, 11.74664
379.6316, 3.421448
380.1137, 1.696472
380.5958, 2.935150
381.0779, 3.641083
381.5601, 4.352173
382.0422, 8.407257
382.5243, 19.17230
383.0064, 30.34784
383.4885, 28.63913
383.9706, 15.81406
384.4528, 5.033264
384.9349, 7.478821
385.4170, 17.20154
385.8991, 24.47556
386.3812, 27.69180
386.8633, 29.09634
387.3455, 30.76346
387.8276, 32.21753
388.3097, 32.50183
388.7918, 29.75711
389.2739, 26.50922
389.7560, 25.17017
390.2382, 26.13333
390.7203, 26.55051
391.2024, 23.16577
391.6845, 18.95694
392.1666, 17.35016
392.6487, 21.98795
393.1309, 27.11911
393.6130, 30.78058
394.0951, 32.98584
394.5772, 34.25800
395.0593, 34.07547
395.5414, 33.08752
396.0236, 32.30057
396.5057, 29.28979
396.9878, 28.89413
397.4699, 35.79315
397.9520, 46.14191
398.4341, 47.62946
398.9163, 30.09726
399.3984, 14.28195
399.8805, 8.546997
400.3626, 17.95697
400.8447, 21.88083
401.3268, 16.71820
401.8090, 8.736694
402.2911, 7.253845
402.7732, 14.95441
403.2553, 22.30521
403.7374, 27.65732
404.2195, 30.86111
404.7017, 28.24710
405.1838, 17.77603
405.6659, 6.949707
406.1480, 2.815979
406.6301, 5.420197
407.1122, 9.943787
407.5944, 17.06232
408.0765, 24.02191
408.5586, 21.98334
409.0407, 11.13651
409.5228, 1.151917
410.0049, 2.770996
410.4871, 12.08597
410.9692, 16.08453
411.4513, 12.49622
411.9334, 5.783508
412.4155, 1.531372
412.8976, 8.252655
413.3798, 10.73288
413.8619, 2.315521
414.3440, 8.171936
414.8261, 10.09659
415.3082, 3.386749
415.7903, 2.907867
416.2725, 3.963165
416.7546, 1.001984
417.2367, 5.122894
417.7188, 20.33578
418.2009, 31.70724
418.6830, 29.95996
419.1652, 18.51743
419.6473, 9.994263
420.1294, 12.06860
420.6115, 15.57935
421.0937, 14.78464
421.5758, 4.513428
422.0579, 0.4470210
422.5400, 6.837494
423.0221, 19.50238
423.5042, 26.42502
423.9864, 23.07840
424.4685, 18.57211
424.9506, 14.01331
425.4327, 9.214661
425.9148, 7.588867
426.3969, 10.33499
426.8791, 14.88065
427.3612, 19.16556
427.8433, 23.24484
428.3254, 27.00574
428.8075, 30.94418
429.2896, 34.32794
429.7718, 33.75143
430.2539, 28.34662
430.7360, 23.57950
431.2181, 23.99112
431.7002, 29.03290
432.1823, 30.54428
432.6645, 27.89893
433.1466, 22.37787
433.6287, 13.00870
434.1108, 1.246918
434.5929, 5.441589
435.0750, 0.1490170
435.5572, 11.02005
436.0393, 13.73807
436.5214, 8.706909
437.0035, 4.178650
437.4856, 7.926697
437.9677, 15.76355
438.4499, 21.92755
438.9320, 24.48248
439.4141, 25.73462
439.8962, 28.16028
440.3783, 30.63687
440.8604, 30.35846
441.3426, 20.84488
441.8247, 12.20148
442.3068, 12.01013
442.7889, 23.92395
443.2710, 30.97641
443.7531, 22.87924
444.2353, 9.863556
444.7174, 3.104462
445.1995, 12.50903
445.6816, 19.23004
446.1637, 18.78983
446.6458, 12.31171
447.1280, 7.450562
447.6101, 4.449158
448.0922, 3.485168
448.5743, 4.814209
449.0564, 9.119202
449.5385, 14.43311
450.0207, 22.27869
450.5028, 29.66833
450.9849, 29.57739
451.4670, 20.28662
451.9491, 12.32364
452.4312, 10.85089
452.9134, 14.69961
453.3955, 13.42044
453.8776, 6.192505
454.3597, 0.3514400
454.8418, 3.010895
455.3239, 13.39441
455.8061, 17.93408
456.2882, 11.21405
456.7703, 1.385254
457.2524, 0.3156740
457.7345, 6.433899
458.2166, 13.47375
458.6988, 19.87344
459.1809, 24.07434
459.6630, 22.73599
460.1451, 14.55435
460.6272, 8.192139
461.1093, 11.45605
461.5915, 18.98294
462.0736, 24.05139
462.5557, 20.52786
463.0378, 18.02008
463.5199, 22.44983
464.0020, 32.41141
464.4842, 37.37759
464.9663, 28.14322
465.4484, 18.45673
465.9305, 15.89746
466.4126, 27.16278
466.8947, 34.10452
467.3769, 33.93250
467.8590, 30.67462
468.3411, 31.04288
468.8232, 37.58060
469.3053, 42.49191
469.7874, 43.29004
470.2696, 40.07318
470.7517, 37.50748
471.2338, 36.33612
471.7159, 35.32022
472.1980, 32.07605
472.6801, 26.43680
473.1623, 21.27615
473.6444, 16.34354
474.1265, 12.84961
474.6086, 14.79224
475.0907, 21.26300
475.5728, 25.32986
476.0550, 23.24683
476.5371, 18.21771
477.0192, 14.66266
477.5013, 12.68585
477.9834, 13.64020
478.4655, 20.97958
478.9477, 30.99640
479.4298, 38.94687
479.9119, 44.37622
480.3940, 47.56750
480.8761, 47.49313
481.3582, 44.92453
481.8404, 42.08801
482.3225, 40.62228
482.8046, 38.29779
483.2867, 33.46747
483.7688, 24.58096
484.2509, 18.10104
484.7331, 14.83884
485.2152, 14.11679
485.6973, 15.62354
486.1794, 22.05087
486.6615, 26.10837
487.1436, 26.64468
487.6258, 24.05258
488.1079, 19.58267
488.5900, 12.23773
489.0721, 5.853210
489.5542, 2.812988
490.0363, 3.084351
490.5185, 3.985016
491.0006, 5.684937
491.4827, 7.231018
491.9648, 6.315186
492.4470, 3.333405
492.9291, 3.058014
493.4112, 7.981628
493.8933, 14.88516
494.3754, 19.30334
494.8575, 21.46204
495.3397, 22.31818
495.8218, 21.38687
496.3039, 19.99594
496.7860, 19.82294
497.2681, 21.51407
497.7502, 22.82745
498.2324, 23.18066
498.7145, 22.27921
499.1966, 19.72720
499.6787, 8.396057
500.1608, 2.485870
500.6429, 11.16946
501.1251, 33.03293
501.6072, 44.81827
502.0893, 39.16113
502.5714, 28.32993
503.0535, 16.97754
503.5356, 1.326843
504.0178, 5.284332
504.4999, 0.5930180
504.9820, 12.45517
505.4641, 21.08133
505.9462, 26.30106
506.4283, 29.11298
506.9105, 29.52109
507.3926, 27.75327
507.8747, 24.25363
508.3568, 18.91251
508.8389, 13.61057
509.3210, 8.890991
509.8032, 5.222229
510.2853, 3.533203
510.7674, 3.701263
511.2495, 6.880737
511.7316, 17.58929
512.2137, 32.00760
512.6959, 42.38553
513.1780, 44.30255
513.6601, 42.13748
514.1422, 36.54556
514.6243, 28.33728
515.1064, 22.85461
515.5886, 23.32968
516.0707, 27.04950
516.5528, 32.31113
517.0349, 39.86511
517.5170, 43.57663
517.9991, 41.91824
518.4813, 36.34937
518.9634, 27.80609
519.4455, 10.72180
519.9276, 0.5584720
520.4097, 2.970978
520.8918, 15.50098
521.3740, 21.39203
521.8561, 18.62799
522.3382, 15.90244
522.8203, 20.94092
523.3024, 32.91074
523.7845, 37.24728
524.2667, 32.04776
524.7488, 23.40195
525.2309, 17.49445
525.7130, 14.10806
526.1951, 12.59055
526.6772, 12.94376
527.1594, 14.79904
527.6415, 18.36929
528.1236, 23.27487
528.6057, 27.94342
529.0878, 33.06171
529.5699, 36.50436
530.0521, 36.72998
530.5342, 33.53934
531.0163, 27.21475
531.4984, 11.25809
531.9805, 5.026581
532.4626, 11.84521
532.9448, 3.590424
533.4269, 14.88089
533.9090, 18.73557
534.3911, 16.26038
534.8732, 10.71359
535.3553, 1.385437
535.8375, 10.11755
536.3196, 10.44797
536.8017, 1.995636
537.2838, 7.468811
537.7659, 18.99857
538.2480, 28.35571
538.7302, 29.31796
539.2123, 23.17142
539.6944, 18.61139
540.1765, 17.40613
540.6586, 18.80872
541.1407, 24.42648
541.6229, 32.42499
542.1050, 36.34314
542.5871, 28.09479
543.0692, 17.23871
543.5513, 12.94794
544.0334, 15.69516
544.5156, 18.56903
544.9977, 19.49689
545.4798, 18.55420
545.9619, 15.52170
546.4440, 6.482819
546.9261, 1.125183
547.4083, 2.865448
547.8904, 8.743469
548.3725, 13.65973
548.8546, 19.31616
549.3367, 21.07812
549.8188, 16.10522
550.3010, 5.311371
550.7831, 0.2973330
551.2652, 5.5542000E-02
551.7473, 3.066772
552.2294, 6.975250
552.7115, 11.70242
553.1937, 16.72522
553.6758, 22.36215
554.1579, 26.79681
554.6400, 27.17609
555.1221, 24.45746
555.6042, 21.38196
556.0864, 18.92075
556.5685, 16.49747
557.0506, 12.28162
557.5327, 7.279053
558.0148, 5.324646
558.4969, 11.50525
558.9791, 18.94614
559.4612, 23.32202
559.9433, 23.61017
560.4254, 23.76071
560.9075, 24.38321
561.3896, 25.20404
561.8718, 25.72238
562.3539, 27.15396
562.8360, 27.83115
563.3181, 28.00427
563.8002, 27.15567
564.2823, 23.18655
564.7645, 15.06592
565.2466, 8.606873
565.7287, 6.361237
566.2108, 7.700226
566.6929, 10.33469
567.1750, 14.32675
567.6572, 17.69424
568.1393, 17.93106
568.6214, 16.44220
569.1035, 16.54108
569.5856, 19.43649
570.0677, 21.05698
570.5499, 15.40051
571.0320, 6.787903
571.5141, 2.014832
571.9962, 10.35382
572.4783, 16.25284
572.9604, 8.307831
573.4426, 9.448212
573.9247, 16.12991
574.4068, 5.748474
574.8889, 26.43109
575.3710, 33.07715
575.8531, 21.64236
576.3353, 17.78122
576.8174, 25.44681
577.2995, 34.87564
577.7816, 36.27042
578.2637, 28.95007
578.7458, 20.98444
579.2280, 12.27765
579.7101, 5.690674
580.1922, 8.807617
580.6743, 19.82791
581.1564, 28.58328
581.6385, 28.67517
582.1207, 24.75778
582.6028, 22.95770
583.0849, 22.92416
583.5670, 21.79453
584.0491, 16.12772
584.5313, 9.812805
585.0134, 5.920807
585.4955, 5.394287
585.9776, 5.735809
586.4597, 5.090271
586.9418, 5.547638
587.4240, 9.873627
587.9061, 25.74313
588.3882, 33.89102
588.8703, 29.89743
589.3524, 17.98203
589.8345, 8.814911
590.3167, 2.336578
590.7988, 4.2633001E-02
591.2809, 2.359314
591.7630, 8.298981
592.2451, 12.91751
592.7272, 16.18918
593.2094, 18.57532
593.6915, 21.03796
594.1736, 22.98059
594.6557, 22.10239
595.1378, 16.78333
595.6199, 11.77017
596.1021, 11.94513
596.5842, 14.47275
597.0663, 15.31204
597.5485, 9.443329
598.0306, 5.540649
598.5127, 7.516785
598.9948, 14.06830
599.4769, 19.51813
599.9590, 25.00214
600.4412, 27.56332
600.9233, 24.76196
601.4054, 15.88943
601.8875, 13.49225
602.3696, 19.77194
602.8517, 27.17352
603.3339, 28.35684
603.8160, 23.93948
604.2981, 22.16885
604.7802, 24.46490
605.2623, 27.75940
605.7444, 28.19980
606.2266, 26.40430
606.7087, 23.93805
607.1908, 19.47000
607.6729, 16.50421
608.1550, 19.30716
608.6371, 26.07330
609.1193, 31.44379
609.6014, 33.04950
610.0835, 32.86667
610.5656, 31.65610
611.0477, 29.44714
611.5298, 26.23828
612.0120, 19.23502
612.4941, 14.04178
612.9762, 15.47766
613.4583, 26.74310
613.9404, 32.66360
614.4225, 31.41351
614.9047, 26.77661
615.3868, 24.24609
615.8689, 23.18588
616.3510, 22.14398
616.8331, 21.65628
617.3152, 20.48624
617.7974, 14.15482
618.2795, 4.758209
618.7616, 5.7372998E-02
619.2437, 8.661011
619.7258, 20.36169
620.2079, 28.20248
620.6901, 31.72363
621.1722, 32.99951
621.6543, 31.88962
622.1364, 29.36212
622.6185, 25.98611
623.1006, 21.63220
623.5828, 16.49414
624.0649, 8.365845
624.5470, 1.478088
625.0291, 2.630615
625.5112, 14.31500
625.9933, 19.95468
626.4755, 14.53351
626.9576, 4.172882
627.4397, 1.676971
627.9218, 6.262695
628.4039, 11.95215
628.8860, 16.55664
629.3682, 20.18958
629.8503, 23.55496
630.3324, 26.40662
630.8145, 26.74463
631.2966, 20.44305
631.7787, 12.41641
632.2609, 7.281738
632.7430, 4.499451
633.2251, 3.160126
633.7072, 4.194031
634.1893, 5.966827
634.6714, 7.093811
635.1536, 7.026611
635.6357, 7.468597
636.1178, 8.368134
636.5999, 9.999390
637.0820, 13.92337
637.5641, 20.32397
638.0463, 23.57034
638.5284, 20.25961
639.0105, 14.08499
639.4926, 11.86273
639.9747, 13.34882
640.4568, 17.08905
640.9390, 27.28677
641.4211, 36.04697
641.9032, 33.26611
642.3853, 18.29657
642.8674, 7.424194
643.3495, 13.73340
643.8317, 22.02063
644.3138, 20.91577
644.7959, 1.318634
645.2780, 12.22504
645.7601, 6.397430
646.2422, 5.992889
646.7244, 13.33905
647.2065, 14.79803
647.6886, 14.90924
648.1707, 13.71286
648.6528, 12.56995
649.1349, 15.12891
649.6171, 20.88275
650.0992, 25.91043
650.5813, 29.46222
651.0634, 30.88269
651.5455, 28.29840
652.0276, 22.29333
652.5098, 16.11301
652.9919, 10.50742
653.4740, 6.017151
653.9561, 2.954712
654.4382, 1.361664
654.9203, 1.176636
655.4025, 3.639618
655.8846, 6.483368
656.3667, 7.863464
656.8488, 6.390533
657.3309, 8.130463
657.8130, 14.47385
658.2952, 21.93588
658.7773, 25.91373
659.2594, 26.55692
659.7415, 25.00925
660.2236, 20.84595
660.7057, 15.83420
661.1879, 10.87732
661.6700, 6.983612
662.1521, 7.073181
662.6342, 19.03491
663.1163, 29.83630
663.5984, 28.11478
664.0806, 15.81726
664.5627, 9.992310
665.0448, 23.59857
665.5269, 36.58383
666.0090, 40.14789
666.4911, 33.01611
666.9733, 25.27972
667.4554, 15.91061
667.9375, 7.974548
668.4196, 3.175293
668.9017, 1.598633
669.3839, 7.807281
669.8660, 24.06412
670.3481, 39.20099
670.8302, 38.73419
671.3123, 27.41327
671.7944, 14.83969
672.2766, 1.121826
672.7587, 8.222443
673.2408, 6.458893
673.7229, 1.849396
674.2050, 7.789459
674.6871, 4.653534
675.1693, 3.513641
675.6514, 10.46036
676.1335, 22.82513
676.6156, 25.12256
677.0977, 11.63855
677.5798, 1.274078
678.0620, 5.182495
678.5441, 21.06546
679.0262, 24.18396
679.5083, 13.80542
679.9904, 3.099579
680.4725, 3.902496
680.9547, 11.15973
681.4368, 15.73215
681.9189, 16.20981
682.4010, 17.16019
682.8831, 24.22766
683.3652, 32.04428
683.8474, 34.92578
684.3295, 27.80966
684.8116, 21.74890
685.2937, 19.38745
685.7758, 18.45764
686.2579, 15.66669
686.7401, 9.168793
687.2222, 6.341278
687.7043, 10.12106
688.1864, 16.81552
688.6685, 15.64581
689.1506, 7.578461
689.6328, 3.871490
690.1149, 15.48462
690.5970, 31.30414
691.0791, 32.43146
691.5612, 21.36240
692.0433, 10.88046
692.5255, 5.570831
693.0076, 4.701752
693.4897, 10.18875
693.9718, 23.04916
694.4539, 29.99142
694.9360, 24.81897
695.4182, 17.37482
695.9003, 12.27594
696.3824, 9.479980
696.8645, 10.35675
697.3466, 16.30557
697.8287, 22.25381
698.3109, 21.11667
698.7930, 14.58508
699.2751, 12.35941
699.7572, 17.34216
700.2393, 23.21732
700.7214, 22.59393
701.2036, 18.05505
701.6857, 14.42981
702.1678, 15.03711
702.6499, 14.86316
703.1320, 8.771851
703.6141, 0.9798580
704.0963, 8.8744998E-02
704.5784, 14.19009
705.0605, 22.62274
705.5426, 18.59726
706.0247, 5.568878
706.5068, 2.204895
706.9890, 4.693237
707.4711, 2.601990
707.9532, 8.007935
708.4353, 22.00171
708.9174, 23.19724
709.3995, 12.95673
709.8817, 4.518738
710.3638, 11.29849
710.8459, 21.15369
711.3280, 21.27060
711.8101, 8.625092
712.2922, 2.043915
712.7744, 15.81482
713.2565, 30.72986
713.7386, 33.00803
714.2207, 14.53052
714.7028, 5.779358
715.1849, 10.17758
715.6671, 19.48392
716.1492, 25.26160
716.6313, 27.65082
717.1134, 29.17120
717.5955, 30.60986
718.0776, 30.05356
718.5598, 21.95499
719.0419, 10.56543
719.5240, 4.272156
720.0061, 10.31537
720.4882, 16.84570
720.9703, 17.72025
721.4525, 15.18445
721.9346, 14.36356
722.4167, 17.34244
722.8988, 20.26526
723.3809, 22.42789
723.8630, 24.00568
724.3452, 26.31842
724.8273, 29.82330
725.3094, 30.68274
725.7915, 25.13043
726.2736, 16.32501
726.7557, 11.70273
727.2379, 11.20532
727.7200, 14.37006
728.2021, 28.35071
728.6842, 40.56296
729.1663, 37.41415
729.6484, 17.26395
730.1306, 2.636169
730.6127, 2.554688
731.0948, 7.562408
731.5769, 12.59271
732.0590, 17.55621
732.5411, 21.51773
733.0233, 24.26767
733.5054, 26.72934
733.9875, 30.50558
734.4696, 34.20142
734.9517, 32.98666
735.4338, 25.33496
735.9160, 18.97986
736.3981, 26.49521
736.8802, 38.89777
737.3623, 42.20886
737.8444, 26.90643
738.3266, 12.88123
738.8087, 8.896729
739.2908, 10.65576
739.7729, 11.92499
740.2551, 11.03101
740.7372, 12.29190
741.2193, 17.56412
741.7014, 24.10721
742.1835, 25.15311
742.6656, 20.62140
743.1478, 18.09219
743.6299, 21.59387
744.1120, 26.32874
744.5941, 24.43826
745.0762, 17.32230
745.5583, 9.262024
746.0405, 3.070068
746.5226, 10.62076
747.0047, 5.010193
747.4868, 11.22696
747.9689, 23.16870
748.4510, 27.51474
748.9332, 29.17059
749.4153, 28.98923
749.8974, 27.15137
750.3795, 25.01303
750.8616, 22.14178
751.3438, 22.25180
751.8259, 32.09058
752.3080, 45.73004
752.7901, 47.66263
753.2722, 38.04645
753.7543, 27.36734
754.2365, 21.86423
754.7186, 18.70294
755.2007, 16.19632
755.6828, 14.40381
756.1649, 11.42868
756.6470, 4.573792
757.1292, 1.484619
757.6113, 4.058014
758.0934, 2.887665
758.5755, 1.208405
759.0576, 9.054749
759.5397, 17.20581
760.0219, 23.69962
760.5040, 27.66599
760.9861, 24.45349
761.4682, 11.86630
761.9503, 0.4800720
762.4324, 1.156830
762.9146, 3.039764
763.3967, 8.817352
763.8788, 19.30286
764.3609, 24.36597
764.8430, 16.20322
765.3251, 5.487946
765.8073, 5.283264
766.2894, 19.57043
766.7715, 27.37357
767.2536, 24.10175
767.7357, 16.31470
768.2178, 14.68320
768.7000, 18.31287
769.1821, 23.17160
769.6642, 30.45416
770.1463, 33.81076
770.6284, 21.80573
771.1105, 2.972687
771.5927, 6.195984
772.0748, 11.33035
772.5569, 25.21136
773.0390, 26.84271
773.5211, 20.23285
774.0032, 14.53259
774.4854, 9.248627
774.9675, 7.055298
775.4496, 10.09634
775.9317, 15.56381
776.4138, 15.64755
776.8959, 11.32205
777.3781, 7.885559
777.8602, 7.523743
778.3423, 9.937836
778.8244, 17.19110
779.3065, 27.48120
779.7886, 32.43359
780.2708, 22.71948
780.7529, 14.39972
781.2350, 13.43008
781.7171, 18.89160
782.1992, 22.41122
782.6813, 23.94772
783.1635, 23.53705
783.6456, 19.70441
784.1277, 14.15601
784.6098, 13.41391
785.0919, 16.95374
785.5740, 19.53516
786.0562, 15.43054
786.5383, 10.64578
787.0204, 11.42743
787.5025, 18.07050
787.9846, 21.85876
788.4667, 18.27414
788.9489, 13.70410
789.4310, 11.00946
789.9131, 10.42569
790.3952, 6.342651
790.8773, 2.688507
791.3594, 8.309113
791.8416, 1.7761000E-02
792.3237, 16.06470
792.8058, 22.79977
793.2879, 19.53546
793.7700, 13.30411
794.2521, 5.487457
794.7343, 0.8557740
795.2164, 2.525421
795.6985, 1.988251
796.1806, 5.803711
796.6627, 7.550446
797.1448, 9.103394
797.6270, 12.26297
798.1091, 17.69284
798.5912, 18.79523
799.0733, 14.98819
799.5554, 9.797424
800.0375, 4.775330
800.5197, 1.319458
801.0018, 3.380463
801.4839, 12.23459
801.9660, 20.13702
802.4481, 22.18710
802.9302, 21.35855
803.4124, 20.09741
803.8945, 18.59833
804.3766, 15.48923
804.8587, 9.475677
805.3408, 5.503784
805.8229, 9.854492
806.3051, 22.43500
806.7872, 27.27795
807.2693, 21.93036
807.7514, 15.59814
808.2335, 19.41077
808.7156, 27.86572
809.1978, 32.58459
809.6799, 31.21033
810.1620, 28.12640
810.6441, 23.53375
811.1262, 18.99072
811.6083, 15.94513
812.0905, 13.92535
812.5726, 15.13123
813.0547, 21.52039
813.5368, 27.41919
814.0189, 23.00537
814.5010, 10.95001
814.9832, 8.355103
815.4653, 19.76190
815.9474, 32.42981
816.4295, 35.52515
816.9116, 32.41040
817.3937, 27.06812
817.8759, 18.14697
818.3580, 11.69336
818.8401, 10.23126
819.3222, 11.00836
819.8043, 11.46216
820.2864, 11.18884
820.7686, 13.03351
821.2507, 18.06262
821.7328, 22.11078
822.2149, 15.65582
822.6970, 4.180237
823.1791, 3.937805
823.6613, 22.83307
824.1434, 37.98193
824.6255, 31.16620
825.1076, 14.66754
825.5897, 2.233704
826.0718, 2.763489
826.5540, 4.721985
827.0361, 2.847229
827.5182, 1.032227
828.0003, 5.291016
828.4824, 9.878296
828.9645, 13.53021
829.4467, 15.69995
829.9288, 16.82770
830.4109, 13.65979
830.8930, 9.350586
831.3751, 9.430237
831.8572, 18.46710
832.3394, 24.75146
832.8215, 22.57513
833.3036, 16.43225
833.7857, 11.37201
834.2678, 7.737122
834.7499, 3.962830
835.2321, 0.8540040
835.7142, 3.865234
836.1963, 0.1202390
836.6784, 9.164612
837.1605, 16.08148
837.6426, 19.33154
838.1248, 20.85645
838.6069, 20.93079
839.0890, 20.67865
839.5711, 21.60028
840.0532, 27.07385
840.5353, 27.60199
841.0175, 18.91937
841.4996, 9.102478
841.9817, 6.985413
842.4638, 12.87433
842.9459, 19.08704
843.4280, 25.94519
843.9102, 29.14471
844.3923, 20.91772
844.8744, 8.101379
845.3565, 2.346985
845.8386, 7.572266
846.3207, 13.63757
846.8029, 18.05206
847.2850, 20.44910
847.7671, 20.35852
848.2492, 16.37433
848.7313, 13.64246
849.2134, 12.47504
849.6956, 12.31677
850.1777, 10.94043
850.6598, 8.829224
851.1419, 7.566223
851.6240, 7.215210
852.1061, 9.077393
852.5883, 17.52118
853.0704, 26.38983
853.5525, 29.72253
854.0346, 23.24457
854.5167, 21.75537
854.9988, 29.73315
855.4810, 36.99335
855.9631, 35.45844
856.4452, 24.90631
856.9273, 21.40875
857.4094, 25.83441
857.8915, 30.64386
858.3737, 28.21857
858.8558, 22.75751
859.3379, 18.98553
859.8200, 17.45099
860.3021, 18.32391
860.7842, 26.09137
861.2664, 32.36127
861.7485, 31.81696
862.2306, 23.55188
862.7127, 17.41833
863.1948, 13.37170
863.6769, 11.43616
864.1591, 11.92377
864.6412, 14.44373
865.1233, 19.21619
865.6054, 25.94128
866.0875, 30.50006
866.5696, 29.25800
867.0518, 26.10699
867.5339, 23.27081
868.0160, 20.89807
868.4981, 17.94281
868.9802, 12.25903
869.4623, 10.68243
869.9445, 19.21375
870.4266, 34.33789
870.9087, 38.70392
871.3908, 33.16528
871.8729, 26.34277
872.3550, 23.73505
872.8372, 22.02588
873.3193, 16.38367
873.8014, 7.645325
874.2835, 4.642944
874.7656, 16.45477
875.2477, 25.61700
875.7299, 26.87329
876.2120, 22.37592
876.6941, 21.18134
877.1762, 23.28534
877.6583, 23.06244
878.1404, 16.23706
878.6226, 7.713440
879.1047, 4.420227
879.5869, 4.697693
880.0690, 4.190552
880.5511, 3.731628
881.0332, 6.795166
881.5153, 2.493225
881.9974, 17.66278
882.4796, 25.36432
882.9617, 24.09827
883.4438, 23.95258
883.9259, 27.44263
884.4080, 32.28662
884.8901, 36.86377
885.3723, 40.05322
885.8544, 38.45117
886.3365, 27.06439
886.8186, 17.06152
887.3007, 14.45892
887.7828, 15.80951
888.2650, 16.66504
888.7471, 16.94580
889.2292, 14.75671
889.7113, 8.839783
890.1934, 2.862976
890.6755, 1.140869
891.1577, 3.245789
891.6398, 9.013306
892.1219, 19.53418
892.6040, 27.54181
893.0861, 24.83813
893.5682, 18.77539
894.0504, 17.57080
894.5325, 25.15314
895.0146, 27.11127
895.4967, 21.12885
895.9788, 13.81128
896.4609, 9.754700
896.9431, 9.019531
897.4252, 13.58777
897.9073, 23.64490
898.3894, 33.05981
898.8715, 41.33911
899.3536, 44.19489
899.8358, 33.42908
900.3179, 6.478333
900.8000, 5.398376
901.2821, 10.93268
901.7642, 27.48206
902.2463, 31.40259
902.7285, 24.33698
903.2106, 18.56775
903.6927, 14.09662
904.1748, 10.28180
904.6569, 5.368408
905.1390, 1.892456
905.6212, 2.012573
906.1033, 5.721558
906.5854, 12.78326
907.0675, 31.69080
907.5496, 43.23218
908.0317, 40.62903
908.5139, 28.53857
908.9960, 21.14288
909.4781, 18.49811
909.9602, 14.70508
910.4423, 6.658142
910.9244, 1.731384
911.4066, 7.757874
911.8887, 10.29437
912.3708, 7.279724
912.8529, 11.96027
913.3350, 23.85498
913.8171, 20.11017
914.2993, 10.13843
914.7814, 5.604248
915.2635, 6.661133
915.7456, 12.58868
916.2277, 24.77063
916.7098, 35.34326
917.1920, 32.74823
917.6741, 23.51691
918.1562, 17.32239
918.6383, 17.09271
919.1204, 16.66589
919.6025, 13.46198
920.0847, 10.05530
920.5668, 8.252502
921.0489, 8.544983
921.5310, 7.856995
922.0131, 6.137878
922.4952, 5.535583
922.9774, 8.712585
923.4595, 13.65436
923.9416, 18.03912
924.4237, 21.57184
924.9058, 22.97125
925.3879, 20.61780
925.8701, 17.01337
926.3522, 11.84210
926.8343, 5.914185
927.3164, 7.406677
927.7985, 17.41693
928.2806, 24.79755
928.7628, 23.73462
929.2449, 17.69214
929.7270, 8.149780
930.2091, 2.004822
930.6912, 5.208496
931.1733, 9.776550
931.6555, 22.70490
932.1376, 23.90472
932.6197, 20.84338
933.1018, 28.79559
933.5839, 51.04846
934.0660, 57.80273
934.5482, 40.00464
935.0303, 16.78174
935.5124, 13.94952
935.9945, 22.64014
936.4766, 26.85425
936.9587, 20.41608
937.4409, 16.48163
937.9230, 22.97797
938.4051, 30.58142
938.8872, 31.93427
939.3693, 26.88507
939.8514, 22.16022
940.3336, 17.49719
940.8157, 15.63495
941.2978, 19.53723
941.7799, 27.36206
942.2620, 39.35181
942.7441, 54.69281
943.2263, 62.71198
943.7084, 56.06195
944.1905, 43.67175
944.6726, 25.76819
945.1547, 4.857849
945.6368, 2.080688
946.1190, 5.514099
946.6011, 17.31543
947.0832, 33.30322
947.5653, 45.96484
948.0474, 39.11108
948.5295, 21.54779
949.0117, 13.78802
949.4938, 41.72961
949.9759, 55.24927
950.4580, 35.41516
950.9401, 4.268066
951.4222, 2.432495
951.9044, 14.87708
952.3865, 25.72906
952.8686, 25.32074
953.3507, 21.23474
953.8328, 20.47430
954.3149, 21.35956
954.7971, 21.90302
955.2792, 21.79926
955.7613, 21.03497
956.2434, 19.70081
956.7255, 17.60547
957.2076, 13.47913
957.6898, 7.504456
958.1719, 8.138123
958.6540, 14.93567
959.1361, 22.44916
959.6182, 26.42407
960.1003, 28.60083
960.5825, 30.16046
961.0646, 31.28503
961.5467, 32.68341
962.0288, 35.82745
962.5109, 37.00842
962.9930, 34.46179
963.4752, 30.15289
963.9573, 29.82782
964.4394, 32.64270
964.9215, 33.20850
965.4036, 28.77100
965.8857, 23.49524
966.3679, 19.82690
966.8500, 17.71667
967.3321, 17.10535
967.8142, 17.68365
968.2963, 20.72937
968.7784, 27.36401
969.2606, 33.50146
969.7427, 34.66364
970.2248, 32.55780
970.7069, 32.91010
971.1890, 35.60144
971.6711, 36.91803
972.1533, 30.23718
972.6354, 24.83630
973.1175, 29.17853
973.5996, 43.08264
974.0817, 50.70160
974.5638, 51.10181
975.0460, 48.21490
975.5281, 41.87054
976.0102, 34.92035
976.4923, 36.80371
976.9744, 43.42523
977.4565, 42.75696
977.9387, 17.00952
978.4208, 2.237000
978.9029, 1.681946
979.3850, 15.83710
979.8671, 22.63898
980.3492, 20.24432
980.8314, 21.78644
981.3135, 29.57678
981.7956, 37.47430
982.2777, 38.14105
982.7598, 34.95697
983.2419, 33.39429
983.7241, 34.85376
984.2062, 32.76837
984.6883, 17.32458
985.1704, 6.172302
985.6525, 8.946045
986.1346, 23.96503
986.6168, 34.93481
987.0989, 41.77777
987.5810, 42.08734
988.0631, 27.72540
988.5452, 11.48663
989.0273, 6.091797
989.5095, 8.697021
989.9916, 13.18579
990.4737, 21.85352
990.9558, 26.57129
991.4379, 25.16858
991.9200, 21.11877
992.4022, 20.35962
992.8843, 21.79834
993.3664, 20.66217
993.8485, 15.99689
994.3306, 9.267456
994.8127, 3.337341
995.2949, 14.29297
995.7770, 15.49927
996.2591, 5.080750
996.7412, 1.851624
997.2233, 4.055115
997.7054, 7.101379
998.1876, 16.59290
998.6697, 28.37744
999.1518, 32.29834
999.6339, 30.08209
1000.116, 28.73596
1000.598, 33.84576
1001.080, 37.54407
1001.562, 37.68854
1002.044, 34.51251
1002.527, 25.99548
1003.009, 11.29437
1003.491, 4.991760
1003.973, 11.54999
1004.455, 22.04987
1004.937, 31.22766
1005.419, 36.47229
1005.901, 32.66595
1006.384, 15.60834
1006.866, 4.142944
1007.348, 3.553833
1007.830, 3.936584
1008.312, 2.352905
1008.794, 12.76501
1009.276, 9.488464
1009.758, 6.252502
1010.240, 19.47070
1010.723, 20.71851
1011.205, 17.58160
1011.687, 11.85419
1012.169, 5.695618
1012.651, 5.160583
1013.133, 13.70880
1013.615, 16.42841
1014.097, 9.350708
1014.580, 1.078613
1015.062, 3.904175
1015.544, 14.06665
1016.026, 25.55347
1016.508, 37.95636
1016.990, 47.01416
1017.472, 51.96021
1017.954, 51.75745
1018.436, 44.43774
1018.919, 30.54596
1019.401, 20.03644
1019.883, 12.90546
1020.365, 10.82159
1020.847, 18.70972
1021.329, 28.81165
1021.811, 33.93628
1022.293, 35.14471
1022.776, 35.12579
1023.258, 33.40118
1023.740, 32.26849
1024.222, 32.48730
1024.704, 32.45874
1025.186, 28.70007
1025.668, 22.79602
1026.150, 19.30420
1026.632, 18.54529
1027.115, 24.25366
1027.597, 53.25598
1028.079, 76.92914
1028.561, 69.93890
1029.043, 34.36182
1029.525, 19.68848
1030.007, 28.46417
1030.489, 39.16632
1030.972, 43.41907
1031.454, 42.50238
1031.936, 33.82837
1032.418, 21.96967
1032.900, 16.81512
1033.382, 30.44910
1033.864, 38.15436
1034.346, 36.23981
1034.828, 29.43719
1035.311, 21.03107
1035.793, 11.84546
1036.275, 6.772095
1036.757, 6.580566
1037.239, 13.22021
1037.721, 42.42926
1038.203, 66.76587
1038.685, 60.48047
1039.167, 27.15369
1039.650, 8.454956
1040.132, 6.864014
1040.614, 10.41504
1041.096, 17.16803
1041.578, 23.42603
1042.060, 20.72729
1042.542, 13.66107
1043.024, 11.23096
1043.507, 20.40167
1043.989, 25.62445
1044.471, 21.59332
1044.953, 15.79102
1045.435, 13.80768
1045.917, 15.40686
1046.399, 18.60974
1046.881, 23.17932
1047.364, 25.18677
1047.846, 18.13336
1048.328, 11.21600
1048.810, 11.86871
1049.292, 18.37671
1049.774, 21.89160
1050.256, 21.42346
1050.738, 21.55414
1051.220, 23.82623
1051.703, 25.33057
1052.185, 18.59906
1052.667, 9.044922
1053.149, 7.595703
1053.631, 20.14740
1054.113, 27.32776
1054.595, 17.92737
1055.077, 7.499084
1055.559, 3.285828
1056.042, 5.643127
1056.524, 16.68018
1057.006, 34.43750
1057.488, 46.54187
1057.970, 44.10120
1058.452, 38.43640
1058.934, 36.67303
1059.416, 36.48175
1059.899, 32.87653
1060.381, 23.42603
1060.863, 18.81708
1061.345, 20.08875
1061.827, 25.55127
1062.309, 40.76813
1062.791, 55.47192
1063.273, 48.92542
1063.755, 20.24628
1064.238, 2.935364
1064.720, 18.70984
1065.202, 30.27557
1065.684, 23.54791
1066.166, 7.430786
1066.648, 8.366394
1067.130, 23.87665
1067.612, 40.31012
1068.094, 56.64807
1068.577, 62.41180
1069.059, 41.04486
1069.541, 12.94305
1070.023, 2.333374
1070.505, 2.937683
1070.987, 1.274963
1071.469, 11.04187
1071.951, 18.96490
1072.434, 17.42688
1072.916, 13.13678
1073.398, 15.82635
1073.880, 22.81042
1074.362, 24.13220
1074.844, 9.324524
1075.326, 3.753052
1075.808, 14.03699
1076.291, 28.34637
1076.773, 28.67554
1077.255, 19.64813
1077.737, 13.79315
1078.219, 12.91827
1078.701, 15.41718
1079.183, 23.08545
1079.665, 31.60437
1080.147, 41.39667
1080.630, 50.42004
1081.112, 43.27594
1081.594, 20.64453
1082.076, 3.526001
1082.558, 0.9399410
1083.040, 4.682373
1083.522, 10.83411
1084.004, 17.68115
1084.486, 22.04175
1084.969, 22.68646
1085.451, 21.83923
1085.933, 18.77515
1086.415, 17.06683
1086.897, 19.66870
1087.379, 25.34534
1087.861, 34.69678
1088.343, 45.78192
1088.826, 50.87061
1089.308, 38.78845
1089.790, 32.18713
1090.272, 38.65674
1090.754, 48.00403
1091.236, 40.98505
1091.718, 22.10339
1092.200, 12.94977
1092.682, 17.28931
1093.165, 23.82446
1093.647, 29.21344
1094.129, 31.01184
1094.611, 26.06537
1095.093, 15.82391
1095.575, 9.790894
1096.057, 8.035583
1096.539, 9.145630
1097.022, 13.59766
1097.504, 18.67621
1097.986, 23.13989
1098.468, 26.51617
1098.950, 27.29352
1099.432, 22.50336
1099.914, 23.44489
1100.396, 31.88324
1100.879, 40.24725
1101.361, 43.64526
1101.843, 42.91730
1102.325, 39.18335
1102.807, 32.73468
1103.289, 24.70544
1103.771, 9.362244
1104.253, 1.340454
1104.735, 5.300354
1105.218, 14.11902
1105.700, 18.49561
1106.182, 19.04395
1106.664, 17.31702
1107.146, 13.41302
1107.628, 12.30499
1108.110, 20.44977
1108.592, 28.86670
1109.074, 32.98938
1109.557, 33.19159
1110.039, 29.14777
1110.521, 20.72748
1111.003, 17.49982
1111.485, 25.03522
1111.967, 30.21918
1112.449, 15.45300
1112.931, 5.485840
1113.414, 18.10339
1113.896, 20.39545
1114.378, 14.45575
1114.860, 2.352478
1115.342, 15.79181
1115.824, 15.21594
1116.306, 8.640930
1116.788, 8.079468
1117.271, 11.63416
1117.753, 15.08533
1118.235, 17.48767
1118.717, 18.94958
1119.199, 18.70599
1119.681, 19.04303
1120.163, 23.88977
1120.645, 30.89124
1121.127, 32.53455
1121.609, 29.01514
1122.092, 24.80481
1122.574, 22.04199
1123.056, 19.28302
1123.538, 15.56201
1124.020, 11.90027
1124.502, 8.822876
1124.984, 7.003601
1125.466, 14.97571
1125.949, 35.81873
1126.431, 51.64948
1126.913, 45.89038
1127.395, 33.76392
1127.877, 24.01019
1128.359, 17.65826
1128.841, 20.42700
1129.323, 33.30231
1129.806, 39.76361
1130.288, 30.14777
1130.770, 19.61542
1131.252, 26.35492
1131.734, 40.14941
1132.216, 47.51440
1132.698, 45.57318
1133.180, 42.03815
1133.662, 36.66699
1134.145, 30.84271
1134.627, 24.89972
1135.109, 19.34271
1135.591, 13.35590
1136.073, 8.508423
1136.555, 8.923279
1137.037, 23.44031
1137.519, 31.58398
1138.001, 31.04413
1138.484, 26.29742
1138.966, 20.86389
1139.448, 15.09375
1139.930, 9.833557
1140.412, 5.097473
1140.894, 1.152771
1141.376, 4.925354
1141.858, 5.925781
1142.341, 1.764954
1142.823, 13.30328
1143.305, 21.39294
1143.787, 25.74506
1144.269, 22.96637
1144.751, 11.40936
1145.233, 5.259949
1145.715, 21.09186
1146.198, 35.87518
1146.680, 35.55951
1147.162, 23.99817
1147.644, 19.92456
1148.126, 22.69165
1148.608, 23.53235
1149.090, 18.86963
1149.572, 13.64435
1150.054, 11.14331
1150.536, 10.17688
1151.019, 9.146484
1151.501, 7.706299
1151.983, 12.33063
1152.465, 23.53082
1152.947, 28.70563
1153.429, 15.45221
1153.911, 0.5447390
1154.393, 5.722778
1154.876, 2.750366
1155.358, 4.940369
1155.840, 20.12909
1156.322, 29.04163
1156.804, 30.81927
1157.286, 29.66144
1157.768, 26.53204
1158.250, 24.10510
1158.733, 26.79816
1159.215, 33.29517
1159.697, 38.75177
1160.179, 45.52612
1160.661, 43.07056
1161.143, 26.90552
1161.625, 10.59821
1162.107, 11.74951
1162.589, 22.43604
1163.072, 30.83093
1163.554, 35.92603
1164.036, 37.18298
1164.518, 34.37891
1165.000, 28.56329
1165.482, 18.14844
1165.964, 7.933472
1166.446, 7.759521
1166.928, 13.38501
1167.411, 16.16425
1167.893, 13.58160
1168.375, 14.89471
1168.857, 28.17126
1169.339, 39.78821
1169.821, 45.24951
1170.303, 44.85297
1170.785, 34.67291
1171.268, 18.38019
1171.750, 10.79596
1172.232, 21.59717
1172.714, 30.91693
1173.196, 22.83984
1173.678, 15.44171
1174.160, 23.44165
1174.642, 42.66290
1175.125, 41.74536
1175.607, 24.28320
1176.089, 10.10211
1176.571, 11.37390
1177.053, 14.10687
1177.535, 12.43896
1178.017, 9.180298
1178.499, 4.787659
1178.981, 0.6229860
1179.464, 9.054810
1179.946, 32.78516
1180.428, 51.40100
1180.910, 49.95532
1181.392, 43.23474
1181.874, 37.61755
1182.356, 32.68170
1182.838, 27.09015
1183.320, 18.53345
1183.803, 15.74744
1184.285, 19.52869
1184.767, 21.29962
1185.249, 7.252136
1185.731, 4.035645
1186.213, 5.992188
1186.695, 28.31506
1187.177, 36.21155
1187.660, 28.55383
1188.142, 24.57513
1188.624, 28.05615
1189.106, 30.26978
1189.588, 17.20410
1190.070, 4.893982
1190.552, 10.25488
1191.034, 30.28430
1191.516, 39.51117
1191.999, 36.83606
1192.481, 34.14569
1192.963, 34.72791
1193.445, 35.23346
1193.927, 32.20154
1194.409, 27.47833
1194.891, 20.99957
1195.373, 12.73590
1195.855, 16.86292
1196.338, 35.66986
1196.820, 46.16620
1197.302, 34.76251
1197.784, 20.93927
1198.266, 31.25537
1198.748, 49.02246
1199.230, 50.38605
1199.712, 29.08221
1200.195, 23.24066
1200.677, 35.29663
1201.159, 41.94800
1201.641, 24.16895
1202.123, 2.994019
1202.605, 4.685974
1203.087, 18.82703
1203.569, 28.29114
1204.052, 29.41840
1204.534, 31.64801
1205.016, 35.45483
1205.498, 37.62781
1205.980, 34.07391
1206.462, 29.23590
1206.944, 26.53802
1207.426, 26.80646
1207.908, 33.13788
1208.391, 51.12408
1208.873, 58.55994
1209.355, 53.42957
1209.837, 43.97638
1210.319, 32.74982
1210.801, 24.50323
1211.283, 28.65826
1211.765, 40.78345
1212.247, 44.38702
1212.730, 35.09009
1213.212, 30.74414
1213.694, 33.89099
1214.176, 37.29248
1214.658, 32.97107
1215.140, 25.73523
1215.622, 21.33386
1216.104, 19.32452
1216.587, 14.62134
1217.069, 4.094849
1217.551, 1.708801
1218.033, 11.41815
1218.515, 22.60980
1218.997, 24.61963
1219.479, 20.71973
1219.961, 11.49524
1220.443, 1.771606
1220.926, 5.585999
1221.408, 3.637451
1221.890, 9.417908
1222.372, 7.403259
1222.854, 2.573303
1223.336, 3.236816
1223.818, 5.900269
1224.300, 1.702820
1224.782, 20.81818
1225.265, 33.17712
1225.747, 38.63177
1226.229, 36.82965
1226.711, 25.21960
1227.193, 13.05664
1227.675, 13.81665
1228.157, 19.09454
1228.639, 18.51324
1229.122, 10.27289
1229.604, 2.582947
1230.086, 5.727051
1230.568, 5.096130
1231.050, 11.94690
1231.532, 31.50348
1232.014, 34.13287
1232.496, 31.81158
1232.979, 43.44818
1233.461, 74.02032
1233.943, 79.62439
1234.425, 57.61523
1234.907, 34.86475
1235.389, 23.38831
1235.871, 17.55121
1236.353, 13.57861
1236.835, 10.47021
1237.318, 6.422485
1237.800, 0.4061280
1238.282, 2.151978
1238.764, 12.26593
1239.246, 16.81311
1239.728, 3.345581
1240.210, 17.87305
1240.692, 13.04559
1241.175, 57.57312
1241.657, 69.36121
1242.139, 39.99731
1242.621, 32.03760
1243.103, 45.61243
1243.585, 58.01611
1244.067, 54.25519
1244.549, 47.39423
1245.031, 46.04999
1245.514, 47.09430
1245.996, 45.24591
1246.478, 40.03125
1246.960, 39.00616
1247.442, 41.94202
1247.924, 41.56763
1248.406, 28.20361
1248.888, 15.86432
1249.370, 12.47491
1249.853, 14.81213
1250.335, 18.84143
1250.817, 24.61377
1251.299, 34.77161
1251.781, 48.77478
1252.263, 57.86896
1252.745, 54.22699
1253.227, 47.16638
1253.710, 37.82910
1254.192, 29.75830
1254.674, 28.54651
1255.156, 33.09082
1255.638, 35.22876
1256.120, 34.76135
1256.602, 35.49225
1257.084, 45.69141
1257.567, 48.73785
1258.049, 35.33887
1258.531, 17.98511
1259.013, 14.69391
1259.495, 22.21021
1259.977, 30.12268
1260.459, 37.30908
1260.941, 41.80920
1261.423, 44.40759
1261.906, 40.50568
1262.388, 25.49725
1262.870, 9.830200
1263.352, 11.69244
1263.834, 23.77710
1264.316, 28.43243
1264.798, 24.61969
1265.280, 24.08069
1265.762, 34.96942
1266.245, 38.31641
1266.727, 29.31628
1267.209, 17.05450
1267.691, 15.15863
1268.173, 18.85034
1268.655, 21.00311
1269.137, 20.29926
1269.619, 16.98761
1270.102, 8.502197
1270.584, 6.269958
1271.066, 13.84332
1271.548, 24.78046
1272.030, 31.89270
1272.512, 36.91962
1272.994, 44.00385
1273.476, 52.20654
1273.958, 47.21729
1274.441, 24.06006
1274.923, 7.314392
1275.405, 0.6240840
1275.887, 1.347961
1276.369, 9.155518
1276.851, 21.63867
1277.333, 25.71570
1277.815, 22.87897
1278.297, 25.36908
1278.780, 33.35919
1279.262, 44.43048
1279.744, 59.63647
1280.226, 67.15485
1280.708, 49.14960
1281.190, 27.34540
1281.672, 16.22076
1282.154, 14.46857
1282.637, 20.66656
1283.119, 33.53967
1283.601, 39.77423
1284.083, 35.66736
1284.565, 32.03687
1285.047, 38.72546
1285.529, 43.52686
1286.011, 38.73468
1286.494, 29.30768
1286.976, 30.83240
1287.458, 39.81964
1287.940, 44.47687
1288.422, 42.11157
1288.904, 37.83813
1289.386, 33.77142
1289.868, 27.06726
1290.350, 14.92346
1290.833, 2.307129
1291.315, 1.291016
1291.797, 2.216309
1292.279, 12.42712
1292.761, 31.80316
1293.243, 36.07428
1293.725, 14.44147
1294.207, 2.316162
1294.689, 14.85382
1295.172, 33.66937
1295.654, 28.79816
1296.136, 15.42889
1296.618, 15.30011
1297.100, 33.04730
1297.582, 41.82880
1298.064, 40.40240
1298.546, 38.34949
1299.029, 38.98602
1299.511, 38.81927
1299.993, 34.46313
1300.475, 27.94171
1300.957, 15.33893
1301.439, 1.038147
1301.921, 2.416626
1302.403, 10.41412
1302.885, 18.09802
1303.368, 13.36847
1303.850, 11.13281
1304.332, 28.37781
1304.814, 41.34601
1305.296, 37.07416
1305.778, 27.39703
1306.260, 19.55884
1306.742, 14.28595
1307.224, 8.201111
1307.707, 0.0000000E+00
##END=



