##NAMES=Phurcalite
##RRUFFID=R050534
##IDEAL CHEMISTRY=Ca_2_(U^6+^O_2_)_3_O_2_(PO_4_)_2_&#183;7H_2_O
##LOCALITY=Posey mine, Red Canyon, San Juan County, Utah, USA
##OWNER=RRUFF
##SOURCE=University of Arizona Mineral Museum
##DESCRIPTION=Tufts of yellow acicular crystals
##STATUS=The identification of this mineral is not yet confirmed.
##URL=rruff.info/R050534
156.090, 0.000
156.572, 2.265
157.054, 0.696
157.536, 0.413
158.018, 2.089
158.501, 6.237
158.983, 11.600
159.465, 20.174
159.947, 25.996
160.429, 23.257
160.911, 20.191
161.393, 27.143
161.875, 47.484
162.358, 72.995
162.840, 86.502
163.322, 74.858
163.804, 68.107
164.286, 73.521
164.768, 81.861
165.250, 81.173
165.732, 66.731
166.214, 45.619
166.697, 34.198
167.179, 39.580
167.661, 44.511
168.143, 48.874
168.625, 51.583
169.107, 49.787
169.589, 41.929
170.071, 32.005
170.553, 30.387
171.036, 46.579
171.518, 56.365
172.000, 53.074
172.482, 41.784
172.964, 28.431
173.446, 14.665
173.928, 2.783
174.411, 0.319
174.893, 12.619
175.375, 21.830
175.857, 18.128
176.339, 8.972
176.821, 7.678
177.303, 20.797
177.785, 41.638
178.267, 52.406
178.749, 45.155
179.232, 42.842
179.714, 56.189
180.196, 77.655
180.678, 93.305
181.160, 97.021
181.642, 93.090
182.124, 92.304
182.607, 96.934
183.089, 99.939
183.571, 94.770
184.053, 86.960
184.535, 88.514
185.017, 105.776
185.499, 131.588
185.981, 147.144
186.463, 147.352
186.945, 150.127
187.428, 163.018
187.910, 182.083
188.392, 199.630
188.874, 212.675
189.356, 222.769
189.838, 233.709
190.320, 246.583
190.802, 257.812
191.285, 264.718
191.767, 269.188
192.249, 276.287
192.731, 289.462
193.213, 302.958
193.695, 302.425
194.177, 282.140
194.659, 265.647
195.141, 264.648
195.624, 272.207
196.106, 274.656
196.588, 266.855
197.070, 252.759
197.552, 240.001
198.034, 229.334
198.516, 217.517
198.998, 200.671
199.480, 182.340
199.963, 168.872
200.445, 162.268
200.927, 161.552
201.409, 166.963
201.891, 180.253
202.373, 191.683
202.855, 200.106
203.337, 204.639
203.820, 201.734
204.302, 188.790
204.784, 173.378
205.266, 169.589
205.748, 179.443
206.230, 187.987
206.712, 192.543
207.194, 193.310
207.676, 188.660
208.159, 177.010
208.641, 165.033
209.123, 163.708
209.605, 174.166
210.087, 185.892
210.569, 196.641
211.051, 207.457
211.533, 221.327
212.016, 239.542
212.498, 256.357
212.980, 262.349
213.462, 255.414
213.944, 250.931
214.426, 255.844
214.908, 264.619
215.390, 271.963
215.872, 276.962
216.355, 277.677
216.837, 269.493
217.319, 250.266
217.801, 238.463
218.283, 239.196
218.765, 246.443
219.247, 256.331
219.730, 268.118
220.212, 278.026
220.694, 282.554
221.176, 281.044
221.658, 274.605
222.140, 254.462
222.622, 235.145
223.104, 231.285
223.586, 243.430
224.068, 257.181
224.551, 257.907
225.033, 243.808
225.515, 243.780
225.997, 273.062
226.479, 304.232
226.961, 318.878
227.443, 316.920
227.925, 307.884
228.408, 296.986
228.890, 284.543
229.372, 282.437
229.854, 299.183
230.336, 317.436
230.818, 329.091
231.300, 334.352
231.782, 335.891
232.264, 334.882
232.747, 331.607
233.229, 329.974
233.711, 329.915
234.193, 331.192
234.675, 332.541
235.157, 335.063
235.639, 342.107
236.121, 356.355
236.604, 375.927
237.086, 389.581
237.568, 395.366
238.050, 398.505
238.532, 399.225
239.014, 398.268
239.496, 397.241
239.978, 397.131
240.460, 396.582
240.943, 391.026
241.425, 371.495
241.907, 357.807
242.389, 353.235
242.871, 355.074
243.353, 362.244
243.835, 374.326
244.317, 386.609
244.799, 388.884
245.282, 370.353
245.764, 355.106
246.246, 343.992
246.728, 335.549
247.210, 326.728
247.692, 317.279
248.174, 311.990
248.656, 319.806
249.139, 353.518
249.621, 374.463
250.103, 382.204
250.585, 379.639
251.067, 364.241
251.549, 338.030
252.031, 310.350
252.513, 291.261
252.995, 280.818
253.478, 280.181
253.960, 300.540
254.442, 319.300
254.924, 324.923
255.406, 318.150
255.888, 305.875
256.370, 292.633
256.852, 277.728
257.335, 273.903
257.817, 300.234
258.299, 320.038
258.781, 317.371
259.263, 299.295
259.745, 282.131
260.227, 277.034
260.709, 281.228
261.191, 281.587
261.674, 278.298
262.156, 273.186
262.638, 266.478
263.120, 258.808
263.602, 249.970
264.084, 238.577
264.566, 226.709
265.048, 223.721
265.530, 236.351
266.013, 244.370
266.495, 241.802
266.977, 232.890
267.459, 220.377
267.941, 204.568
268.423, 189.069
268.905, 178.239
269.388, 171.110
269.870, 172.610
270.352, 199.949
270.834, 227.511
271.316, 234.844
271.798, 217.735
272.280, 192.674
272.762, 173.096
273.244, 159.075
273.727, 153.704
274.209, 165.522
274.691, 178.728
275.173, 178.649
275.655, 165.482
276.137, 153.293
276.619, 153.409
277.101, 162.145
277.583, 165.263
278.066, 158.023
278.548, 149.042
279.030, 148.272
279.512, 154.190
279.994, 157.663
280.476, 153.662
280.958, 144.503
281.440, 134.753
281.922, 125.051
282.405, 114.843
282.887, 102.367
283.369, 88.920
283.851, 79.377
284.333, 74.792
284.815, 73.802
285.297, 77.044
285.779, 83.538
286.262, 88.670
286.744, 90.244
287.226, 88.030
287.708, 82.033
288.190, 68.292
288.672, 56.080
289.154, 48.328
289.636, 44.845
290.118, 46.365
290.601, 54.063
291.083, 64.092
291.565, 67.847
292.047, 63.588
292.529, 57.037
293.011, 45.663
293.493, 33.781
293.975, 27.283
294.458, 27.360
294.940, 29.113
295.422, 25.293
295.904, 10.932
296.386, 6.662
296.868, 21.495
297.350, 38.435
297.832, 46.310
298.315, 45.316
298.797, 42.880
299.279, 46.467
299.761, 57.045
300.243, 56.691
300.725, 31.160
301.207, 9.965
301.689, 1.723
302.171, 4.110
302.654, 12.682
303.136, 25.726
303.618, 40.858
304.100, 48.275
304.582, 44.623
305.064, 37.370
305.546, 23.610
306.028, 9.311
306.510, 1.009
306.993, 1.151
307.475, 5.377
307.957, 7.024
308.439, 5.662
308.921, 3.284
309.403, 0.601
309.885, 4.892
310.367, 9.896
310.849, 15.324
311.332, 18.679
311.814, 16.850
312.296, 10.280
312.778, 4.300
313.260, 1.658
313.742, -0.172
314.224, -0.556
314.707, 1.412
315.189, 2.958
315.671, 6.717
316.153, 10.575
316.635, 17.930
317.117, 30.542
317.599, 37.079
318.081, 24.203
318.563, 0.900
319.046, 12.557
319.528, 8.444
320.010, 0.405
320.492, 7.438
320.974, 11.909
321.456, 8.914
321.938, 6.448
322.420, 27.172
322.902, 36.744
323.385, 31.667
323.867, 26.090
324.349, 24.353
324.831, 24.384
325.313, 23.328
325.795, 20.448
326.277, 16.638
326.759, 12.967
327.241, 9.448
327.724, 6.076
328.206, 0.642
328.688, 2.928
329.170, 0.471
329.652, 6.876
330.134, 14.030
330.616, 17.217
331.098, 16.465
331.581, 12.467
332.063, 14.244
332.545, 9.647
333.027, 14.207
333.509, 15.530
333.991, 17.368
334.473, 21.638
334.955, 26.022
335.438, 23.975
335.920, 9.872
336.402, 1.361
336.884, 7.244
337.366, 14.454
337.848, 12.027
338.330, 19.439
338.812, 16.748
339.294, 25.578
339.777, 27.790
340.259, 25.357
340.741, 14.011
341.223, 3.181
341.705, 3.297
342.187, 5.196
342.669, 2.136
343.151, 9.429
343.634, 25.115
344.116, 35.237
344.598, 38.659
345.080, 42.919
345.562, 54.538
346.044, 69.159
346.526, 78.326
347.008, 78.486
347.490, 77.052
347.973, 80.497
348.455, 86.846
348.937, 88.280
349.419, 80.706
349.901, 69.882
350.383, 66.141
350.865, 70.612
351.347, 76.274
351.829, 82.571
352.312, 89.185
352.794, 96.758
353.276, 104.987
353.758, 111.245
354.240, 112.794
354.722, 109.174
355.204, 105.553
355.686, 97.406
356.168, 93.859
356.651, 103.773
357.133, 120.311
357.615, 129.304
358.097, 122.430
358.579, 106.013
359.061, 100.677
359.543, 117.897
360.026, 126.813
360.508, 115.626
360.990, 101.152
361.472, 97.433
361.954, 107.159
362.436, 122.622
362.918, 138.177
363.400, 154.288
363.882, 160.581
364.365, 146.455
364.847, 134.036
365.329, 135.799
365.811, 148.824
366.293, 164.633
366.775, 184.731
367.257, 202.052
367.739, 201.797
368.221, 181.874
368.704, 159.101
369.186, 135.257
369.668, 117.747
370.150, 121.007
370.632, 158.887
371.114, 190.584
371.596, 187.378
372.078, 161.495
372.560, 139.848
373.043, 129.329
373.525, 127.902
374.007, 136.351
374.489, 161.010
374.971, 166.412
375.453, 129.302
375.935, 91.337
376.417, 87.673
376.900, 112.344
377.382, 133.869
377.864, 128.372
378.346, 99.777
378.828, 82.456
379.310, 81.996
379.792, 89.106
380.274, 109.852
380.757, 133.347
381.239, 147.903
381.721, 149.620
382.203, 143.409
382.685, 135.366
383.167, 124.398
383.649, 116.135
384.131, 105.041
384.613, 102.507
385.095, 121.530
385.578, 156.118
386.060, 184.136
386.542, 189.205
387.024, 178.942
387.506, 170.895
387.988, 163.985
388.470, 162.979
388.953, 176.506
389.435, 195.619
389.917, 203.659
390.399, 192.748
390.881, 182.629
391.363, 188.895
391.845, 205.573
392.327, 217.664
392.809, 221.047
393.292, 218.433
393.774, 212.657
394.256, 202.148
394.738, 192.567
395.220, 178.608
395.702, 170.598
396.184, 182.005
396.666, 207.281
397.148, 226.390
397.631, 224.907
398.113, 207.186
398.595, 198.854
399.077, 208.187
399.559, 216.335
400.041, 224.388
400.523, 229.244
401.005, 226.532
401.487, 215.138
401.970, 200.967
402.452, 190.518
402.934, 183.969
403.416, 180.128
403.898, 180.491
404.380, 181.939
404.862, 182.231
405.344, 182.182
405.827, 184.208
406.309, 192.246
406.791, 200.676
407.273, 199.048
407.755, 187.105
408.237, 178.681
408.719, 181.752
409.201, 190.081
409.684, 189.711
410.166, 174.485
410.648, 170.070
411.130, 198.730
411.612, 237.620
412.094, 254.197
412.576, 243.779
413.058, 224.570
413.540, 212.118
414.022, 206.118
414.505, 212.353
414.987, 243.744
415.469, 271.019
415.951, 282.510
416.433, 283.799
416.915, 283.921
417.397, 286.832
417.879, 290.913
418.362, 291.480
418.844, 283.676
419.326, 286.441
419.808, 316.086
420.290, 344.943
420.772, 356.344
421.254, 352.338
421.736, 347.632
422.219, 352.322
422.701, 363.078
423.183, 371.401
423.665, 377.062
424.147, 383.415
424.629, 392.364
425.111, 403.101
425.593, 413.797
426.075, 423.958
426.558, 435.187
427.040, 451.566
427.522, 468.841
428.004, 479.098
428.486, 480.429
428.968, 476.658
429.450, 470.905
429.932, 462.449
430.414, 459.068
430.897, 462.614
431.379, 468.486
431.861, 478.710
432.343, 489.274
432.825, 491.408
433.307, 480.276
433.789, 463.999
434.271, 462.283
434.754, 484.158
435.236, 496.696
435.718, 490.071
436.200, 478.853
436.682, 470.565
437.164, 465.343
437.646, 459.653
438.128, 451.337
438.611, 440.775
439.093, 427.075
439.575, 408.503
440.057, 396.119
440.539, 399.666
441.021, 411.244
441.503, 415.347
441.985, 410.346
442.467, 400.728
442.949, 386.001
443.432, 368.727
443.914, 351.884
444.396, 336.129
444.878, 323.553
445.360, 316.714
445.842, 316.173
446.324, 314.430
446.806, 316.060
447.289, 311.652
447.771, 292.759
448.253, 267.541
448.735, 247.799
449.217, 238.425
449.699, 235.135
450.181, 232.671
450.663, 232.538
451.146, 225.594
451.628, 203.361
452.110, 181.681
452.592, 170.070
453.074, 166.529
453.556, 163.369
454.038, 155.364
454.520, 146.891
455.002, 144.735
455.485, 148.710
455.967, 154.738
456.449, 163.307
456.931, 170.636
457.413, 167.519
457.895, 150.195
458.377, 137.710
458.859, 137.096
459.341, 140.700
459.824, 142.557
460.306, 141.815
460.788, 139.274
461.270, 135.467
461.752, 130.432
462.234, 124.625
462.716, 118.279
463.198, 110.594
463.681, 100.926
464.163, 90.314
464.645, 78.316
465.127, 65.342
465.609, 55.194
466.091, 55.035
466.573, 62.502
467.055, 58.749
467.538, 37.876
468.020, 19.276
468.502, 20.448
468.984, 31.891
469.466, 35.021
469.948, 22.828
470.430, 9.282
470.912, 0.927
471.394, 2.649
471.876, 0.821
472.359, 6.691
472.841, 15.022
473.323, 18.895
473.805, 17.967
474.287, 14.465
474.769, 13.731
475.251, 3.076
475.733, 6.584
476.216, 5.533
476.698, 0.818
477.180, 12.571
477.662, 23.041
478.144, 21.201
478.626, 24.058
479.108, 6.341
479.590, 14.146
480.073, 14.094
480.555, 1.401
481.037, 26.728
481.519, 44.364
482.001, 43.497
482.483, 36.448
482.965, 36.280
483.447, 40.704
483.929, 40.250
484.412, 30.723
484.894, 18.203
485.376, 13.000
485.858, 8.516
486.340, 20.288
486.822, 5.654
487.304, 7.967
487.786, 8.275
488.268, 0.620
488.751, 6.841
489.233, 3.414
489.715, 5.753
490.197, 11.153
490.679, 12.148
491.161, 11.313
491.643, 9.276
492.125, 5.151
492.608, 4.614
493.090, 18.156
493.572, 26.351
494.054, 20.353
494.536, 8.327
495.018, 1.677
495.500, 0.208
495.982, 0.877
496.465, 3.021
496.947, 5.558
497.429, 5.324
497.911, 2.072
498.393, 0.506
498.875, 23.206
499.357, 47.157
499.839, 52.143
500.321, 41.762
500.803, 32.495
501.286, 35.070
501.768, 46.361
502.250, 57.136
502.732, 69.918
503.214, 75.919
503.696, 68.448
504.178, 57.349
504.660, 42.972
505.143, 28.175
505.625, 28.352
506.107, 71.353
506.589, 125.619
507.071, 135.797
507.553, 103.100
508.035, 68.785
508.517, 49.979
509.000, 43.718
509.482, 44.843
509.964, 56.905
510.446, 67.546
510.928, 81.069
511.410, 88.543
511.892, 75.904
512.374, 50.121
512.856, 35.684
513.339, 50.853
513.821, 82.084
514.303, 85.153
514.785, 46.943
515.267, 18.639
515.749, 14.817
516.231, 21.021
516.713, 32.488
517.195, 47.147
517.678, 54.665
518.160, 45.403
518.642, 29.157
519.124, 15.976
519.606, 6.441
520.088, 3.748
520.570, 10.180
521.052, 22.363
521.534, 34.706
522.017, 51.210
522.499, 58.042
522.981, 50.327
523.463, 37.310
523.945, 19.146
524.427, 0.525
524.909, 9.397
525.391, 4.775
525.874, 8.866
526.356, 22.448
526.838, 37.430
527.320, 42.433
527.802, 27.520
528.284, 10.816
528.766, 7.298
529.248, 14.866
529.731, 22.645
530.213, 28.149
530.695, 31.754
531.177, 35.536
531.659, 37.776
532.141, 32.080
532.623, 15.673
533.105, 4.412
533.588, 18.399
534.070, 26.026
534.552, 26.010
535.034, 11.561
535.516, 1.744
535.998, 7.094
536.480, 7.519
536.962, 8.399
537.444, 11.846
537.927, 14.774
538.409, 12.546
538.891, 5.499
539.373, 0.724
539.855, 6.071
540.337, 7.241
540.819, 0.131
541.301, 13.514
541.783, 23.032
542.266, 28.331
542.748, 29.398
543.230, 20.474
543.712, 10.202
544.194, 10.229
544.676, 22.076
545.158, 38.433
545.640, 53.893
546.122, 68.114
546.605, 69.759
547.087, 44.289
547.569, 31.121
548.051, 53.922
548.533, 85.358
549.015, 97.118
549.497, 84.715
549.979, 71.140
550.461, 71.614
550.944, 79.813
551.426, 85.001
551.908, 86.775
552.390, 90.577
552.872, 101.523
553.354, 113.368
553.836, 108.395
554.318, 60.352
554.801, 37.539
555.283, 57.664
555.765, 87.799
556.247, 109.842
556.729, 123.055
557.211, 132.965
557.693, 142.864
558.175, 151.043
558.657, 154.502
559.140, 153.187
559.622, 146.688
560.104, 130.616
560.586, 115.561
561.068, 113.273
561.550, 121.716
562.032, 130.081
562.515, 138.732
562.997, 144.814
563.479, 143.224
563.961, 138.905
564.443, 141.348
564.925, 153.051
565.407, 167.904
565.889, 178.523
566.371, 184.701
566.854, 191.300
567.336, 200.172
567.818, 206.605
568.300, 206.267
568.782, 204.325
569.264, 208.594
569.746, 221.400
570.228, 229.752
570.710, 217.430
571.193, 198.393
571.675, 198.498
572.157, 218.496
572.639, 240.702
573.121, 256.327
573.603, 264.717
574.085, 263.678
574.567, 242.752
575.049, 228.956
575.532, 227.948
576.014, 228.591
576.496, 225.328
576.978, 217.906
577.460, 207.343
577.942, 193.368
578.424, 178.769
578.906, 167.794
579.388, 160.422
579.871, 155.517
580.353, 154.527
580.835, 150.156
581.317, 132.115
581.799, 101.283
582.281, 84.182
582.763, 92.828
583.245, 100.876
583.728, 99.730
584.210, 92.415
584.692, 82.094
585.174, 70.056
585.656, 58.020
586.138, 46.655
586.620, 36.684
587.102, 33.553
587.585, 39.335
588.067, 44.253
588.549, 42.524
589.031, 40.444
589.513, 49.030
589.995, 69.812
590.477, 78.176
590.959, 55.954
591.442, 26.088
591.924, 4.120
592.406, 7.962
592.888, 6.203
593.370, 10.734
593.852, 33.373
594.334, 50.179
594.816, 61.698
595.299, 66.059
595.781, 61.715
596.263, 51.870
596.745, 28.870
597.227, 4.208
597.709, 1.590
598.191, 21.136
598.673, 43.301
599.155, 45.822
599.638, 35.635
600.120, 20.522
600.602, 2.892
601.084, 7.386
601.566, 2.952
602.048, 12.166
602.530, 22.954
603.012, 23.912
603.494, 29.559
603.977, 46.864
604.459, 62.141
604.941, 67.899
605.423, 65.828
605.905, 60.609
606.387, 52.057
606.869, 45.667
607.351, 50.814
607.833, 63.228
608.316, 66.297
608.798, 56.079
609.280, 44.693
609.762, 42.320
610.244, 48.247
610.726, 57.591
611.208, 79.199
611.690, 93.971
612.172, 92.667
612.655, 87.594
613.137, 89.694
613.619, 98.533
614.101, 106.291
614.583, 107.176
615.065, 104.877
615.547, 107.047
616.029, 112.939
616.512, 112.957
616.994, 102.409
617.476, 91.679
617.958, 93.665
618.440, 110.116
618.922, 120.494
619.404, 124.471
619.886, 122.437
620.369, 109.820
620.851, 93.666
621.333, 80.805
621.815, 72.779
622.297, 68.391
622.779, 66.833
623.261, 68.075
623.743, 73.749
624.226, 84.166
624.708, 90.260
625.190, 88.355
625.672, 83.782
626.154, 82.907
626.636, 86.040
627.118, 86.621
627.600, 85.428
628.082, 82.390
628.565, 72.851
629.047, 62.331
629.529, 60.256
630.011, 68.547
630.493, 77.412
630.975, 76.563
631.457, 67.937
631.939, 58.307
632.421, 47.126
632.904, 40.300
633.386, 40.255
633.868, 45.467
634.350, 56.015
634.832, 76.008
635.314, 82.917
635.796, 64.671
636.278, 43.743
636.760, 28.372
637.243, 19.468
637.725, 18.528
638.207, 25.738
638.689, 35.872
639.171, 44.021
639.653, 50.200
640.135, 54.367
640.617, 56.194
641.099, 57.847
641.582, 60.493
642.064, 63.414
642.546, 65.981
643.028, 69.887
643.510, 67.535
643.992, 49.527
644.474, 33.821
644.956, 34.386
645.439, 43.245
645.921, 44.339
646.403, 32.105
646.885, 17.798
647.367, 13.500
647.849, 18.238
648.331, 30.890
648.813, 54.210
649.295, 64.671
649.778, 45.090
650.260, 10.605
650.742, 6.578
651.224, 0.356
651.706, 5.937
652.188, 7.528
652.670, 8.012
653.153, 7.390
653.635, 7.256
654.117, 10.523
654.599, 17.873
655.081, 25.369
655.563, 31.131
656.045, 35.656
656.527, 34.487
657.009, 26.664
657.492, 18.668
657.974, 13.640
658.456, 9.559
658.938, 2.822
659.420, 7.892
659.902, 13.648
660.384, 13.679
660.866, 10.823
661.348, 3.839
661.831, 4.685
662.313, 10.969
662.795, 13.833
663.277, 14.555
663.759, 11.317
664.241, 7.411
664.723, 14.951
665.205, 33.944
665.688, 43.603
666.170, 32.413
666.652, 12.164
667.134, 3.865
667.616, 13.245
668.098, 14.316
668.580, 2.216
669.062, 15.809
669.544, 19.549
670.027, 16.678
670.509, 9.955
670.991, 11.345
671.473, 7.573
671.955, 8.646
672.437, 6.486
672.919, 6.601
673.401, 8.770
673.883, 11.023
674.366, 12.801
674.848, 12.560
675.330, 6.902
675.812, 5.982
676.294, 9.157
676.776, 7.699
677.258, 9.859
677.740, 8.848
678.222, 12.389
678.705, 8.100
679.187, 7.078
679.669, 10.082
680.151, 24.558
680.633, 37.386
681.115, 34.677
681.597, 20.122
682.080, 0.169
682.562, 22.484
683.044, 37.983
683.526, 32.703
684.008, 9.024
684.490, 0.703
684.972, 15.253
685.454, 26.509
685.936, 26.398
686.419, 21.004
686.901, 15.376
687.383, 9.579
687.865, 3.766
688.347, 5.504
688.829, 10.779
689.311, 3.517
689.793, 7.952
690.276, 11.971
690.758, 7.031
691.240, 0.270
691.722, 4.247
692.204, 7.313
692.686, 18.894
693.168, 40.250
693.650, 50.398
694.132, 41.296
694.615, 27.022
695.097, 18.743
695.579, 16.302
696.061, 15.766
696.543, 19.295
697.025, 21.644
697.507, 19.301
697.989, 17.368
698.471, 20.534
698.954, 27.923
699.436, 35.604
699.918, 41.496
700.400, 47.119
700.882, 57.601
701.364, 69.642
701.846, 67.248
702.328, 47.742
702.810, 33.623
703.293, 40.454
703.775, 61.026
704.257, 74.488
704.739, 79.242
705.221, 79.763
705.703, 67.294
706.185, 60.726
706.667, 73.401
707.149, 95.012
707.632, 109.118
708.114, 110.770
708.596, 107.126
709.078, 100.069
709.560, 93.873
710.042, 94.157
710.524, 100.009
711.006, 106.824
711.489, 112.706
711.971, 120.531
712.453, 136.246
712.935, 160.149
713.417, 171.854
713.899, 164.927
714.381, 162.405
714.863, 173.447
715.346, 192.335
715.828, 215.039
716.310, 242.066
716.792, 258.100
717.274, 248.280
717.756, 240.700
718.238, 256.205
718.720, 277.767
719.203, 279.655
719.685, 260.948
720.167, 245.771
720.649, 255.799
721.131, 277.094
721.613, 282.196
722.095, 272.628
722.577, 259.508
723.059, 243.416
723.542, 236.539
724.024, 254.118
724.506, 289.607
724.988, 298.638
725.470, 257.690
725.952, 228.983
726.434, 224.363
726.916, 223.156
727.398, 213.503
727.881, 199.115
728.363, 189.665
728.845, 188.712
729.327, 190.829
729.809, 197.510
730.291, 202.325
730.773, 193.682
731.255, 174.467
731.737, 157.818
732.220, 150.101
732.702, 148.733
733.184, 150.146
733.666, 154.022
734.148, 161.061
734.630, 174.604
735.112, 182.563
735.594, 178.879
736.076, 168.041
736.559, 155.750
737.041, 141.221
737.523, 130.369
738.005, 123.044
738.487, 119.846
738.969, 126.340
739.451, 133.914
739.933, 129.338
740.416, 112.457
740.898, 100.953
741.380, 113.114
741.862, 133.021
742.344, 135.996
742.826, 125.636
743.308, 114.146
743.790, 104.970
744.273, 102.594
744.755, 112.340
745.237, 128.743
745.719, 129.410
746.201, 109.115
746.683, 87.836
747.165, 59.224
747.647, 40.430
748.130, 47.251
748.612, 70.074
749.094, 90.095
749.576, 106.953
750.058, 116.969
750.540, 112.402
751.022, 106.827
751.504, 113.239
751.986, 125.647
752.469, 130.780
752.951, 124.313
753.433, 114.607
753.915, 109.923
754.397, 108.379
754.879, 103.636
755.361, 96.282
755.843, 95.234
756.325, 104.235
756.808, 115.434
757.290, 119.487
757.772, 116.701
758.254, 117.975
758.736, 129.333
759.218, 133.872
759.700, 118.335
760.182, 103.931
760.664, 111.504
761.147, 132.783
761.629, 137.080
762.111, 106.892
762.593, 77.720
763.075, 63.341
763.557, 58.592
764.039, 62.710
764.521, 71.606
765.003, 76.594
765.486, 73.573
765.968, 66.578
766.450, 59.486
766.932, 52.686
767.414, 47.169
767.896, 42.962
768.378, 41.990
768.860, 45.544
769.343, 50.891
769.825, 53.930
770.307, 54.235
770.789, 57.418
771.271, 65.468
771.753, 73.261
772.235, 81.986
772.717, 88.217
773.200, 86.899
773.682, 79.693
774.164, 76.214
774.646, 79.787
775.128, 86.408
775.610, 94.000
776.092, 103.878
776.574, 122.789
777.057, 145.610
777.539, 154.891
778.021, 140.305
778.503, 119.852
778.985, 116.917
779.467, 127.707
779.949, 137.252
780.431, 144.854
780.913, 163.103
781.396, 199.512
781.878, 241.455
782.360, 270.085
782.842, 284.394
783.324, 296.415
783.806, 304.457
784.288, 313.276
784.770, 325.471
785.252, 337.878
785.735, 341.082
786.217, 338.991
786.699, 358.913
787.181, 427.884
787.663, 491.160
788.145, 528.602
788.627, 552.706
789.109, 571.042
789.591, 586.860
790.074, 603.516
790.556, 622.104
791.038, 644.377
791.520, 675.802
792.002, 711.188
792.484, 736.064
792.966, 752.079
793.448, 777.889
793.930, 821.850
794.413, 870.468
794.895, 907.232
795.377, 932.054
795.859, 943.248
796.341, 935.855
796.823, 930.898
797.305, 935.387
797.787, 941.752
798.270, 941.894
798.752, 936.845
799.234, 936.144
799.716, 947.875
800.198, 952.554
800.680, 946.087
801.162, 933.105
801.644, 908.948
802.127, 882.393
802.609, 872.133
803.091, 885.625
803.573, 900.810
804.055, 903.984
804.537, 900.472
805.019, 889.410
805.501, 875.793
805.984, 876.651
806.466, 895.670
806.948, 914.718
807.430, 914.609
807.912, 902.260
808.394, 895.845
808.876, 894.743
809.358, 913.390
809.840, 959.748
810.323, 1004.326
810.805, 1022.868
811.287, 1022.412
811.769, 1028.320
812.251, 1044.464
812.733, 1060.133
813.215, 1076.797
813.697, 1090.588
814.179, 1100.477
814.662, 1105.562
815.144, 1104.897
815.626, 1098.568
816.108, 1087.027
816.590, 1077.231
817.072, 1055.258
817.554, 1001.705
818.036, 937.624
818.518, 890.143
819.001, 860.914
819.483, 831.953
819.965, 792.337
820.447, 750.065
820.929, 710.681
821.411, 676.977
821.893, 656.972
822.375, 649.912
822.857, 645.399
823.340, 638.410
823.822, 633.590
824.304, 638.664
824.786, 653.196
825.268, 670.451
825.750, 692.198
826.232, 709.562
826.714, 718.729
827.197, 724.803
827.679, 730.165
828.161, 734.930
828.643, 753.207
829.125, 799.737
829.607, 840.492
830.089, 876.794
830.571, 903.661
831.054, 911.952
831.536, 908.826
832.018, 908.932
832.500, 916.160
832.982, 921.430
833.464, 920.641
833.946, 916.352
834.428, 908.579
834.911, 900.131
835.393, 898.226
835.875, 901.751
836.357, 894.921
836.839, 865.617
837.321, 821.433
837.803, 769.484
838.285, 711.346
838.767, 645.507
839.250, 574.731
839.732, 522.356
840.214, 504.485
840.696, 496.691
841.178, 447.287
841.660, 356.961
842.142, 298.521
842.624, 278.417
843.106, 256.850
843.589, 215.829
844.071, 174.683
844.553, 159.177
845.035, 168.702
845.517, 166.315
845.999, 145.784
846.481, 124.709
846.963, 100.901
847.445, 80.733
847.928, 68.275
848.410, 62.994
848.892, 64.747
849.374, 78.615
849.856, 83.150
850.338, 62.118
850.820, 42.214
851.302, 43.544
851.784, 53.248
852.267, 51.636
852.749, 36.010
853.231, 19.157
853.713, 3.403
854.195, 3.359
854.677, 17.782
855.159, 47.231
855.641, 48.555
856.124, 23.914
856.606, 1.136
857.088, 5.364
857.570, 2.277
858.052, 4.062
858.534, 12.172
859.016, 16.426
859.498, 16.794
859.981, 15.707
860.463, 14.169
860.945, 9.541
861.427, 1.869
861.909, 16.864
862.391, 15.193
862.873, 9.146
863.355, 23.463
863.838, 21.829
864.320, 13.942
864.802, 1.974
865.284, 10.211
865.766, 13.848
866.248, 5.543
866.730, 1.054
867.212, 3.898
867.694, 5.756
868.177, 1.663
868.659, 1.911
869.141, 1.876
869.623, 11.757
870.105, 20.271
870.587, 27.260
871.069, 29.823
871.551, 23.810
872.033, 15.711
872.516, 8.600
872.998, 4.022
873.480, 5.615
873.962, 14.240
874.444, 20.331
874.926, 16.109
875.408, 7.033
875.890, 4.219
876.372, 14.884
876.855, 17.876
877.337, 13.757
877.819, 12.476
878.301, 20.985
878.783, 30.975
879.265, 28.719
879.747, 17.101
880.229, 5.307
880.711, 5.643
881.194, 0.238
881.676, 10.231
882.158, 4.352
882.640, 5.371
883.122, 17.049
883.604, 18.125
884.086, 7.002
884.568, 4.309
885.051, 16.984
885.533, 18.462
886.015, 5.109
886.497, 38.207
886.979, 44.752
887.461, 15.553
887.943, 0.098
888.425, 8.724
888.907, 13.437
889.390, 0.261
889.872, 15.699
890.354, 17.812
890.836, 8.232
891.318, 3.566
891.800, 22.554
892.282, 34.969
892.765, 36.488
893.247, 33.694
893.729, 27.094
894.211, 20.218
894.693, 19.140
895.175, 24.569
895.657, 26.652
896.139, 17.270
896.621, 8.503
897.104, 7.753
897.586, 10.575
898.068, 13.176
898.550, 14.587
899.032, 13.552
899.514, 8.996
899.996, 6.356
900.478, 10.616
900.960, 19.130
901.443, 33.042
901.925, 47.382
902.407, 49.409
902.889, 37.553
903.371, 22.560
903.853, 10.658
904.335, 5.222
904.817, 17.462
905.299, 40.802
905.782, 51.861
906.264, 49.535
906.746, 44.805
907.228, 42.479
907.710, 39.030
908.192, 28.890
908.674, 14.088
909.156, 4.620
909.638, 0.447
910.121, 4.703
910.603, 19.315
911.085, 33.746
911.567, 40.874
912.049, 43.108
912.531, 45.716
913.013, 48.565
913.495, 53.022
913.978, 61.508
914.460, 63.806
914.942, 52.027
915.424, 40.980
915.906, 48.446
916.388, 69.429
916.870, 72.056
917.352, 34.765
917.835, 20.199
918.317, 52.229
918.799, 79.082
919.281, 69.706
919.763, 48.156
920.245, 46.948
920.727, 67.733
921.209, 86.325
921.692, 109.103
922.174, 118.014
922.656, 99.015
923.138, 74.350
923.620, 58.715
924.102, 49.978
924.584, 39.820
925.066, 25.462
925.549, 17.250
926.031, 21.006
926.513, 29.399
926.995, 39.925
927.477, 51.303
927.959, 66.796
928.441, 82.533
928.923, 86.089
929.405, 70.976
929.888, 52.155
930.370, 31.164
930.852, 17.323
931.334, 25.232
931.816, 43.375
932.298, 53.906
932.780, 53.525
933.262, 46.159
933.744, 30.211
934.227, 15.971
934.709, 18.942
935.191, 28.531
935.673, 26.053
936.155, 14.904
936.637, 11.311
937.119, 20.101
937.601, 28.904
938.083, 24.894
938.566, 14.820
939.048, 11.781
939.530, 13.759
940.012, 14.207
940.494, 12.618
940.976, 10.871
941.458, 9.871
941.940, 9.274
942.422, 7.765
942.905, 5.938
943.387, 8.553
943.869, 16.239
944.351, 20.478
944.833, 19.531
945.315, 18.595
945.797, 20.624
946.279, 24.820
946.762, 27.650
947.244, 28.374
947.726, 25.040
948.208, 18.160
948.690, 19.191
949.172, 32.843
949.654, 43.984
950.136, 38.278
950.619, 21.094
951.101, 7.928
951.583, 1.588
952.065, 1.187
952.547, 12.741
953.029, 19.680
953.511, 8.913
953.993, 3.922
954.476, 0.451
954.958, 16.685
955.440, 27.722
955.922, 31.360
956.404, 33.255
956.886, 33.177
957.368, 32.631
957.850, 32.263
958.332, 32.485
958.815, 34.433
959.297, 29.870
959.779, 34.612
960.261, 19.111
960.743, 7.353
961.225, 2.500
961.707, 2.424
962.189, 20.014
962.671, 51.019
963.154, 62.399
963.636, 49.857
964.118, 45.181
964.600, 56.578
965.082, 62.967
965.564, 56.839
966.046, 48.891
966.528, 45.886
967.010, 45.818
967.493, 43.766
967.975, 38.015
968.457, 39.123
968.939, 53.052
969.421, 65.386
969.903, 76.963
970.385, 81.997
970.867, 71.829
971.349, 51.767
971.832, 36.498
972.314, 24.157
972.796, 25.253
973.278, 61.121
973.760, 85.438
974.242, 68.232
974.724, 42.800
975.206, 41.302
975.689, 59.798
976.171, 76.925
976.653, 90.646
977.135, 99.005
977.617, 98.479
978.099, 96.114
978.581, 94.273
979.063, 92.988
979.545, 92.438
980.028, 92.382
980.510, 91.439
980.992, 87.226
981.474, 86.346
981.956, 96.958
982.438, 104.382
982.920, 96.559
983.403, 82.615
983.885, 73.830
984.367, 71.317
984.849, 71.980
985.331, 74.284
985.813, 80.669
986.295, 99.608
986.777, 115.014
987.259, 111.498
987.742, 99.758
988.224, 97.540
988.706, 105.522
989.188, 106.822
989.670, 88.606
990.152, 72.989
990.634, 71.083
991.116, 72.919
991.598, 68.509
992.081, 63.784
992.563, 73.196
993.045, 97.005
993.527, 110.500
994.009, 97.120
994.491, 80.881
994.973, 69.551
995.455, 62.775
995.938, 63.878
996.420, 67.781
996.902, 63.290
997.384, 49.626
997.866, 45.693
998.348, 74.189
998.830, 95.206
999.312, 77.468
999.794, 55.171
1000.277, 62.619
1000.759, 85.730
1001.241, 94.506
1001.723, 83.206
1002.205, 70.877
1002.687, 65.306
1003.169, 61.351
1003.651, 57.354
1004.133, 53.611
1004.616, 50.675
1005.098, 48.007
1005.580, 45.313
1006.062, 42.375
1006.544, 36.166
1007.026, 18.480
1007.508, 5.944
1007.990, 13.008
1008.473, 23.205
1008.955, 19.512
1009.437, 8.483
1009.919, 6.168
1010.401, 15.730
1010.883, 23.121
1011.365, 20.788
1011.847, 16.892
1012.329, 12.904
1012.812, 11.734
1013.294, 20.473
1013.776, 32.061
1014.258, 30.155
1014.740, 12.125
1015.222, 3.474
1015.704, 30.697
1016.186, 50.886
1016.669, 32.523
1017.151, 11.425
1017.633, 20.990
1018.115, 47.980
1018.597, 65.645
1019.079, 69.196
1019.561, 66.931
1020.043, 54.427
1020.525, 45.961
1021.008, 53.140
1021.490, 61.597
1021.972, 58.021
1022.454, 49.045
1022.936, 46.486
1023.418, 52.424
1023.900, 62.533
1024.382, 84.663
1024.865, 98.128
1025.347, 87.617
1025.829, 75.201
1026.311, 77.376
1026.793, 87.124
1027.275, 94.074
1027.757, 97.196
1028.239, 96.191
1028.721, 82.684
1029.203, 74.292
1029.686, 85.451
1030.168, 95.287
1030.650, 86.288
1031.132, 70.901
1031.614, 68.385
1032.096, 79.782
1032.578, 89.874
1033.060, 98.169
1033.543, 103.607
1034.025, 107.440
1034.507, 106.754
1034.989, 95.887
1035.471, 82.172
1035.953, 76.573
1036.435, 78.732
1036.917, 75.553
1037.400, 54.176
1037.882, 47.924
1038.364, 74.580
1038.846, 95.008
1039.328, 88.657
1039.810, 73.180
1040.292, 70.570
1040.774, 78.278
1041.256, 72.273
1041.739, 33.460
1042.221, 19.287
1042.703, 48.963
1043.185, 73.244
1043.667, 73.725
1044.149, 62.367
1044.631, 46.313
1045.113, 29.128
1045.595, 29.514
1046.078, 57.220
1046.560, 74.972
1047.042, 81.240
1047.524, 79.669
1048.006, 67.158
1048.488, 55.729
1048.970, 57.428
1049.452, 67.458
1049.935, 70.796
1050.417, 67.174
1050.899, 56.757
1051.381, 36.304
1051.863, 23.426
1052.345, 23.689
1052.827, 29.930
1053.309, 38.621
1053.792, 45.528
1054.274, 38.557
1054.756, 17.445
1055.238, 8.866
1055.720, 13.143
1056.202, 29.398
1056.684, 59.365
1057.166, 76.095
1057.648, 60.941
1058.130, 31.811
1058.613, 18.126
1059.095, 17.062
1059.577, 8.791
1060.059, 4.684
1060.541, 2.010
1061.023, 31.443
1061.505, 57.097
1061.987, 65.693
1062.470, 63.221
1062.952, 53.047
1063.434, 40.881
1063.916, 45.764
1064.398, 61.042
1064.880, 61.396
1065.362, 47.181
1065.844, 36.192
1066.327, 35.165
1066.809, 37.569
1067.291, 37.933
1067.773, 37.561
1068.255, 40.388
1068.737, 42.869
1069.219, 36.341
1069.701, 23.660
1070.183, 14.899
1070.666, 12.132
1071.148, 7.590
1071.630, 7.333
1072.112, 16.646
1072.594, 1.067
1073.076, 27.370
1073.558, 45.961
1074.040, 55.039
1074.522, 51.659
1075.005, 38.014
1075.487, 24.301
1075.969, 14.484
1076.451, 6.695
1076.933, 2.079
1077.415, 7.014
1077.897, 0.222
1078.380, 8.948
1078.862, 7.165
1079.344, 1.965
1079.826, 3.330
1080.308, 8.388
1080.790, 17.585
1081.272, 19.687
1081.754, 18.508
1082.236, 11.075
1082.719, 5.087
1083.201, 11.480
1083.683, 1.859
1084.165, 16.620
1084.647, 8.091
1085.129, 23.527
1085.611, 29.216
1086.093, 23.375
1086.575, 34.072
1087.058, 31.994
1087.540, 36.027
1088.022, 27.809
1088.504, 15.620
1088.986, 0.622
1089.468, 2.395
1089.950, 12.344
1090.432, 19.898
1090.915, 16.198
1091.397, 13.935
1091.879, 17.786
1092.361, 24.936
1092.843, 34.495
1093.325, 42.566
1093.807, 34.266
1094.289, 8.986
1094.771, 7.168
1095.254, 13.786
1095.736, 4.245
1096.218, 23.619
1096.700, 45.091
1097.182, 43.092
1097.664, 32.623
1098.146, 38.119
1098.628, 54.586
1099.110, 67.993
1099.593, 76.631
1100.075, 70.865
1100.557, 52.163
1101.039, 34.938
1101.521, 25.382
1102.003, 19.149
1102.485, 10.656
1102.967, 5.162
1103.450, 15.032
1103.932, 9.199
1104.414, 26.965
1104.896, 14.976
1105.378, 13.065
1105.860, 24.640
1106.342, 36.645
1106.824, 41.321
1107.307, 47.004
1107.789, 66.731
1108.271, 81.480
1108.753, 70.048
1109.235, 48.833
1109.717, 38.293
1110.199, 38.476
1110.681, 38.266
1111.163, 32.175
1111.646, 38.158
1112.128, 83.121
1112.610, 110.245
1113.092, 81.361
1113.574, 46.900
1114.056, 48.069
1114.538, 67.679
1115.020, 71.156
1115.502, 57.048
1115.985, 51.969
1116.467, 64.006
1116.949, 65.382
1117.431, 44.864
1117.913, 33.001
1118.395, 46.073
1118.877, 67.486
1119.359, 80.905
1119.842, 86.286
1120.324, 80.270
1120.806, 88.031
1121.288, 89.473
1121.770, 83.086
1122.252, 88.719
1122.734, 71.396
1123.216, 56.608
1123.698, 61.921
1124.181, 76.172
1124.663, 83.762
1125.145, 85.884
1125.627, 85.572
1126.109, 84.959
1126.591, 93.289
1127.073, 106.980
1127.555, 110.874
1128.037, 99.964
1128.520, 91.417
1129.002, 101.677
1129.484, 114.605
1129.966, 115.458
1130.448, 112.169
1130.930, 110.609
1131.412, 109.215
1131.894, 101.928
1132.377, 90.363
1132.859, 87.326
1133.341, 102.164
1133.823, 110.488
1134.305, 95.846
1134.787, 83.097
1135.269, 86.818
1135.751, 94.428
1136.234, 93.543
1136.716, 87.183
1137.198, 82.995
1137.680, 81.066
1138.162, 85.297
1138.644, 98.712
1139.126, 105.213
1139.608, 100.770
1140.090, 93.841
1140.573, 86.518
1141.055, 82.841
1141.537, 88.630
1142.019, 99.979
1142.501, 101.835
1142.983, 93.926
1143.465, 80.643
1143.947, 63.497
1144.429, 60.943
1144.912, 74.718
1145.394, 86.291
1145.876, 83.964
1146.358, 78.652
1146.840, 89.908
1147.322, 103.844
1147.804, 87.526
1148.286, 58.423
1148.769, 54.872
1149.251, 70.744
1149.733, 75.688
1150.215, 62.386
1150.697, 50.330
1151.179, 48.884
1151.661, 54.433
1152.143, 71.441
1152.625, 86.755
1153.108, 93.330
1153.590, 92.619
1154.072, 82.214
1154.554, 65.057
1155.036, 51.576
1155.518, 43.344
1156.000, 37.998
1156.482, 37.781
1156.964, 36.585
1157.447, 32.540
1157.929, 28.589
1158.411, 24.264
1158.893, 24.366
1159.375, 38.283
1159.857, 34.438
1160.339, 32.836
1160.821, 38.648
1161.304, 26.305
1161.786, 26.719
1162.268, 33.694
1162.750, 45.313
1163.232, 50.512
1163.714, 41.388
1164.196, 26.836
1164.678, 15.834
1165.161, 10.447
1165.643, 17.955
1166.125, 32.768
1166.607, 46.048
1167.089, 55.160
1167.571, 56.076
1168.053, 48.503
1168.535, 40.452
1169.017, 36.798
1169.500, 32.641
1169.982, 23.907
1170.464, 15.198
1170.946, 3.066
1171.428, 2.188
1171.910, 22.206
1172.392, 15.302
1172.874, 14.386
1173.356, 22.826
1173.839, 2.943
1174.321, 4.464
1174.803, 3.031
1175.285, 24.451
1175.767, 39.120
1176.249, 36.682
1176.731, 25.230
1177.213, 12.307
1177.696, 0.441
1178.178, 9.127
1178.660, 13.227
1179.142, 2.488
1179.624, 20.655
1180.106, 35.997
1180.588, 39.216
1181.070, 30.843
1181.552, 11.011
1182.035, 5.822
1182.517, 1.180
1182.999, 9.036
1183.481, 0.742
1183.963, 8.790
1184.445, 11.488
1184.927, 10.446
1185.409, 8.721
1185.891, 18.142
1186.374, 2.943
1186.856, 16.423
1187.338, 26.109
1187.820, 15.859
1188.302, 11.400
1188.784, 32.254
1189.266, 49.019
1189.748, 39.401
1190.231, 18.331
1190.713, 7.357
1191.195, 6.018
1191.677, 11.453
1192.159, 25.440
1192.641, 29.088
1193.123, 20.727
1193.605, 15.530
1194.088, 17.750
1194.570, 14.926
1195.052, 12.728
1195.534, 16.206
1196.016, 9.827
1196.498, 13.244
1196.980, 15.262
1197.462, 23.072
1197.944, 18.521
1198.427, 29.289
1198.909, 38.736
1199.391, 42.747
1199.873, 43.130
1200.355, 38.445
1200.837, 36.975
1201.319, 50.498
1201.801, 57.105
1202.283, 36.435
1202.766, 14.381
1203.248, 14.957
1203.730, 27.866
1204.212, 36.559
1204.694, 41.058
1205.176, 41.571
1205.658, 37.122
1206.140, 33.920
1206.623, 32.655
1207.105, 29.648
1207.587, 23.673
1208.069, 15.971
1208.551, 6.037
1209.033, 6.466
1209.515, 52.153
1209.997, 110.768
1210.479, 111.797
1210.962, 80.166
1211.444, 54.603
1211.926, 41.158
1212.408, 43.899
1212.890, 60.452
1213.372, 73.188
1213.854, 74.194
1214.336, 72.394
1214.818, 64.048
1215.301, 63.209
1215.783, 85.503
1216.265, 107.544
1216.747, 82.055
1217.229, 67.101
1217.711, 52.232
1218.193, 69.540
1218.675, 79.561
1219.158, 82.686
1219.640, 58.258
1220.122, 69.410
1220.604, 66.042
1221.086, 62.352
1221.568, 67.927
1222.050, 78.056
1222.532, 95.612
1223.015, 111.366
1223.497, 121.008
1223.979, 112.723
1224.461, 113.609
1224.943, 92.202
1225.425, 90.968
1225.907, 72.901
1226.389, 42.062
1226.871, 26.684
1227.354, 39.660
1227.836, 56.949
1228.318, 78.378
1228.800, 95.448
1229.282, 106.681
1229.764, 111.903
1230.246, 108.823
1230.728, 102.924
1231.210, 100.823
1231.693, 100.919
1232.175, 95.220
1232.657, 82.776
1233.139, 90.827
1233.621, 113.945
1234.103, 117.557
1234.585, 99.481
1235.067, 86.678
1235.550, 90.039
1236.032, 95.060
1236.514, 91.954
1236.996, 83.048
1237.478, 62.713
1237.960, 45.620
1238.442, 46.723
1238.924, 56.665
1239.406, 66.047
1239.889, 73.627
1240.371, 80.164
1240.853, 86.196
1241.335, 84.772
1241.817, 72.796
1242.299, 60.487
1242.781, 46.438
1243.263, 40.804
1243.745, 47.852
1244.228, 57.696
1244.710, 63.443
1245.192, 65.695
1245.674, 64.733
1246.156, 61.501
1246.638, 55.891
1247.120, 50.831
1247.602, 54.511
1248.085, 63.122
1248.567, 68.074
1249.049, 66.896
1249.531, 57.326
1250.013, 34.959
1250.495, 20.291
1250.977, 24.754
1251.459, 31.914
1251.942, 38.361
1252.424, 44.073
1252.906, 51.379
1253.388, 54.408
1253.870, 44.256
1254.352, 27.358
1254.834, 27.978
1255.316, 16.013
1255.798, 7.850
1256.281, 7.625
1256.763, 3.842
1257.245, 4.068
1257.727, 9.196
1258.209, 4.602
1258.691, 7.034
1259.173, 33.297
1259.655, 52.400
1260.137, 29.508
1260.620, 4.742
1261.102, 9.322
1261.584, 23.032
1262.066, 30.311
1262.548, 29.879
1263.030, 17.967
1263.512, 18.644
1263.994, 14.928
1264.477, 7.255
1264.959, 11.823
1265.441, 1.973
1265.923, 1.264
1266.405, 6.495
1266.887, 15.326
1267.369, 19.913
1267.851, 14.875
1268.333, 7.911
1268.816, 0.115
1269.298, 0.000
##END=



