##NAMES=Plattnerite
##RRUFFID=R070605
##IDEAL CHEMISTRY=Pb^4+^O_2_
##LOCALITY=Ojuela mine, Mapimi, Durango, Mexico
##OWNER=RRUFF
##SOURCE=James Shigley
##DESCRIPTION=Black tarnished metallic prismatic crystals.
##STATUS=The identification of this mineral is confirmed by single-crystal X-ray diffraction and chemical analysis.
##URL=rruff.info/R070605
##MEASURED CHEMISTRY=Pb_1.00_O_2_
151.7121, 0.0000000E+00
152.1942, 28.14062
152.6763, 63.23047
153.1584, 110.3867
153.6405, 156.2285
154.1226, 177.9707
154.6048, 159.3359
155.0869, 126.0605
155.5690, 89.65039
156.0511, 71.52539
156.5332, 63.54102
157.0153, 69.50977
157.4975, 83.90234
157.9796, 95.38477
158.4617, 116.8047
158.9438, 131.9355
159.4259, 113.8750
159.9080, 88.34180
160.3902, 86.57422
160.8723, 115.5664
161.3544, 159.2871
161.8365, 198.2578
162.3186, 223.5820
162.8007, 235.7754
163.2829, 249.3613
163.7650, 267.7090
164.2471, 266.8398
164.7292, 235.0117
165.2113, 192.3594
165.6934, 186.8164
166.1756, 228.6729
166.6577, 258.5010
167.1398, 282.1416
167.6219, 303.2021
168.1040, 331.8750
168.5861, 358.3242
169.0683, 332.2412
169.5504, 316.7910
170.0325, 332.4238
170.5146, 334.0723
170.9967, 307.8311
171.4788, 275.4922
171.9610, 271.9180
172.4431, 294.4111
172.9252, 328.0391
173.4073, 340.9004
173.8894, 337.3418
174.3715, 318.4727
174.8537, 279.7871
175.3358, 218.3730
175.8179, 163.4053
176.3000, 164.4131
176.7821, 221.8018
177.2642, 254.5127
177.7464, 235.6357
178.2285, 183.2764
178.7106, 126.9160
179.1927, 68.40625
179.6748, 19.33008
180.1569, 0.3847660
180.6391, 7.500977
181.1212, 18.08398
181.6033, 22.05664
182.0854, 19.76074
182.5675, 13.97168
183.0496, 6.239258
183.5318, 6.139648
184.0139, 31.13086
184.4960, 70.65137
184.9781, 99.50781
185.4602, 89.22852
185.9423, 39.61035
186.4245, 3.007813
186.9066, 7.609375
187.3887, 23.60742
187.8708, 27.62598
188.3529, 13.79785
188.8350, 6.354492
189.3172, 23.22852
189.7993, 40.49121
190.2814, 39.42676
190.7635, 65.54449
191.2456, 58.74316
191.7277, 97.79785
192.2099, 114.4062
192.6920, 111.0986
193.1741, 88.19336
193.6562, 28.53613
194.1383, 16.20898
194.6204, 28.28711
195.1026, 25.83301
195.5847, 27.04590
196.0668, 40.69922
196.5489, 61.88965
197.0310, 74.34277
197.5131, 67.57520
197.9953, 65.38965
198.4774, 81.52148
198.9595, 101.4473
199.4416, 104.7168
199.9237, 77.39844
200.4058, 26.25488
200.8880, 0.9580080
201.3701, 21.75391
201.8522, 44.30664
202.3343, 54.99902
202.8164, 59.48535
203.2985, 69.78711
203.7807, 95.12402
204.2628, 134.7695
204.7449, 160.9775
205.2270, 161.6221
205.7091, 163.0176
206.1912, 177.8398
206.6734, 201.3018
207.1555, 218.5674
207.6376, 216.4844
208.1197, 193.3242
208.6018, 187.2686
209.0839, 209.8135
209.5661, 294.8945
210.0482, 368.2617
210.5303, 430.2891
211.0124, 487.5664
211.4945, 546.1895
211.9766, 606.8105
212.4588, 658.5996
212.9409, 699.4043
213.4230, 733.9717
213.9051, 761.5684
214.3872, 783.6367
214.8693, 809.6758
215.3515, 851.3535
215.8336, 911.7598
216.3157, 957.8096
216.7978, 976.7598
217.2799, 988.1289
217.7620, 1008.320
218.2442, 1039.680
218.7263, 1078.159
219.2084, 1126.133
219.6905, 1183.204
220.1726, 1220.046
220.6547, 1218.866
221.1369, 1201.677
221.6190, 1190.853
222.1011, 1188.466
222.5832, 1197.247
223.0653, 1230.722
223.5474, 1284.737
224.0296, 1323.775
224.5117, 1326.917
224.9938, 1312.703
225.4759, 1316.033
225.9580, 1348.731
226.4401, 1377.837
226.9223, 1356.812
227.4044, 1296.395
227.8865, 1255.147
228.3686, 1276.627
228.8507, 1331.632
229.3328, 1348.561
229.8150, 1301.232
230.2971, 1247.978
230.7792, 1249.828
231.2613, 1296.195
231.7434, 1333.473
232.2255, 1332.958
232.7077, 1301.927
233.1898, 1261.141
233.6719, 1200.752
234.1540, 1151.438
234.6361, 1141.698
235.1182, 1164.894
235.6004, 1188.153
236.0825, 1189.951
236.5646, 1173.837
237.0467, 1160.691
237.5288, 1156.854
238.0109, 1150.630
238.4931, 1135.149
238.9752, 1111.490
239.4573, 1084.968
239.9394, 1057.363
240.4215, 1028.900
240.9036, 1004.241
241.3858, 986.8164
241.8679, 968.9150
242.3500, 948.6328
242.8321, 925.3320
243.3142, 896.0723
243.7963, 849.7539
244.2785, 786.6094
244.7606, 750.6172
245.2427, 771.5254
245.7248, 794.3252
246.2069, 790.0000
246.6890, 761.3223
247.1712, 726.9121
247.6533, 700.7393
248.1354, 682.5293
248.6175, 668.6299
249.0996, 665.8838
249.5817, 657.6465
250.0639, 632.2549
250.5460, 594.4375
251.0281, 561.5293
251.5102, 551.1934
251.9923, 562.7910
252.4744, 575.1406
252.9566, 594.1992
253.4387, 607.7900
253.9208, 610.7510
254.4029, 603.6240
254.8850, 589.7363
255.3671, 567.5332
255.8493, 534.7227
256.3314, 517.0000
256.8135, 538.5137
257.2956, 555.3525
257.7777, 542.2080
258.2599, 505.9092
258.7420, 474.7832
259.2241, 480.7354
259.7062, 528.8340
260.1883, 556.8340
260.6704, 537.3486
261.1526, 519.6572
261.6347, 528.5557
262.1168, 556.9443
262.5989, 577.6309
263.0810, 559.9902
263.5631, 498.4443
264.0453, 467.5732
264.5274, 501.3057
265.0095, 537.8457
265.4916, 558.9727
265.9737, 565.3486
266.4558, 565.4062
266.9380, 564.2842
267.4201, 561.4541
267.9022, 567.7979
268.3843, 608.7432
268.8664, 635.5625
269.3485, 626.2031
269.8307, 589.0645
270.3128, 545.4746
270.7949, 509.2588
271.2770, 480.0547
271.7591, 471.5107
272.2412, 502.3672
272.7234, 538.0693
273.2055, 576.6924
273.6876, 613.5527
274.1697, 640.1768
274.6518, 648.7119
275.1339, 639.8350
275.6161, 636.0215
276.0982, 645.2969
276.5803, 652.1758
277.0624, 648.8369
277.5445, 640.5508
278.0266, 638.2393
278.5088, 650.7588
278.9909, 675.9482
279.4730, 688.9170
279.9551, 668.6807
280.4372, 658.0703
280.9193, 672.9961
281.4015, 702.8643
281.8836, 730.5332
282.3657, 745.8320
282.8478, 749.8564
283.3299, 749.0576
283.8120, 734.4736
284.2942, 725.6025
284.7763, 730.5225
285.2584, 742.3066
285.7405, 748.4463
286.2226, 740.2148
286.7047, 726.2627
287.1869, 743.7051
287.6690, 834.9482
288.1511, 902.5605
288.6332, 921.8545
289.1153, 913.3721
289.5974, 899.3711
290.0796, 890.2539
290.5617, 885.2754
291.0438, 882.2773
291.5259, 879.3252
292.0080, 882.0000
292.4901, 891.5459
292.9723, 906.1240
293.4544, 924.4766
293.9365, 946.0840
294.4186, 970.0527
294.9007, 995.8379
295.3828, 1032.396
295.8650, 1053.562
296.3471, 1044.544
296.8292, 1028.458
297.3113, 1022.275
297.7934, 1031.674
298.2755, 1055.486
298.7577, 1097.644
299.2398, 1182.827
299.7219, 1228.995
300.2040, 1193.850
300.6861, 1148.772
301.1682, 1149.192
301.6504, 1204.186
302.1325, 1274.792
302.6146, 1303.585
303.0967, 1269.496
303.5788, 1257.997
304.0609, 1284.727
304.5431, 1323.858
305.0252, 1370.162
305.5073, 1419.074
305.9894, 1458.826
306.4715, 1466.137
306.9536, 1425.208
307.4358, 1419.343
307.9179, 1489.629
308.4000, 1559.582
308.8821, 1596.532
309.3642, 1603.717
309.8463, 1605.041
310.3285, 1623.603
310.8106, 1659.506
311.2927, 1689.002
311.7748, 1709.875
312.2569, 1725.900
312.7390, 1734.702
313.2212, 1739.906
313.7033, 1749.135
314.1854, 1770.826
314.6675, 1804.990
315.1496, 1841.997
315.6317, 1894.623
316.1139, 1931.032
316.5960, 1930.886
317.0781, 1909.311
317.5602, 1891.570
318.0423, 1892.923
318.5244, 1907.230
319.0066, 1913.317
319.4887, 1908.409
319.9708, 1900.298
320.4529, 1887.793
320.9350, 1875.392
321.4171, 1872.744
321.8993, 1889.159
322.3814, 1904.639
322.8635, 1871.961
323.3456, 1767.656
323.8277, 1686.773
324.3098, 1676.364
324.7920, 1694.310
325.2741, 1708.665
325.7562, 1711.662
326.2383, 1704.740
326.7204, 1687.632
327.2025, 1659.384
327.6847, 1629.107
328.1668, 1596.413
328.6489, 1564.628
329.1310, 1536.826
329.6131, 1513.514
330.0952, 1492.263
330.5774, 1471.773
331.0595, 1451.937
331.5416, 1433.649
332.0237, 1428.993
332.5058, 1411.268
332.9879, 1353.530
333.4701, 1257.886
333.9522, 1163.262
334.4343, 1083.776
334.9164, 1022.140
335.3985, 993.5928
335.8806, 1013.264
336.3628, 1040.901
336.8449, 1044.618
337.3270, 1028.625
337.8091, 1005.918
338.2912, 983.9121
338.7733, 957.5645
339.2555, 912.7734
339.7376, 843.4307
340.2197, 779.7354
340.7018, 748.6875
341.1839, 740.7773
341.6660, 732.7959
342.1482, 724.7803
342.6303, 712.0254
343.1124, 688.7070
343.5945, 655.0957
344.0766, 617.0830
344.5587, 574.8779
345.0409, 531.9902
345.5230, 497.2695
346.0051, 474.4678
346.4872, 455.4043
346.9693, 440.5264
347.4514, 426.7539
347.9336, 401.8828
348.4157, 357.9561
348.8978, 303.2168
349.3799, 255.0830
349.8620, 210.9443
350.3441, 176.4434
350.8263, 156.2246
351.3084, 145.9912
351.7905, 140.1123
352.2726, 137.1777
352.7547, 135.7666
353.2368, 135.3564
353.7190, 140.5576
354.2011, 131.3281
354.6832, 88.68359
355.1653, 40.63184
355.6474, 16.30859
356.1295, 19.05273
356.6117, 28.76562
357.0938, 24.82520
357.5759, 29.10785
358.0580, 36.58593
358.5401, 34.62305
359.0222, 51.19434
359.5044, 63.37891
359.9865, 70.61035
360.4686, 71.86426
360.9507, 65.53125
361.4328, 52.06738
361.9149, 41.00586
362.3971, 19.88770
362.8792, 14.55859
363.3613, 51.76465
363.8434, 105.3594
364.3255, 132.6943
364.8076, 111.2861
365.2898, 56.22656
365.7719, 13.64160
366.2540, 21.06543
366.7361, 33.92480
367.2182, 4.859375
367.7003, 34.58105
368.1825, 52.56836
368.6646, 40.79785
369.1467, 19.37305
369.6288, 23.14648
370.1109, 70.10059
370.5930, 91.07520
371.0752, 55.58984
371.5573, 17.24316
372.0394, 8.714844
372.5215, 28.61816
373.0036, 51.62891
373.4857, 53.94336
373.9679, 35.09473
374.4500, 16.95703
374.9321, 3.571289
375.4142, 14.11035
375.8963, 46.55664
376.3784, 85.65918
376.8606, 114.2305
377.3427, 119.9258
377.8248, 109.9434
378.3069, 104.2861
378.7890, 105.7686
379.2711, 103.9248
379.7533, 74.33984
380.2354, 46.01660
380.7175, 60.15723
381.1996, 141.9395
381.6817, 234.8359
382.1638, 268.6338
382.6460, 242.9395
383.1281, 224.7637
383.6102, 236.3564
384.0923, 265.3545
384.5744, 298.0312
385.0565, 335.8975
385.5387, 366.5029
386.0208, 377.9600
386.5029, 377.0596
386.9850, 380.1455
387.4671, 389.7754
387.9492, 405.7432
388.4314, 431.3760
388.9135, 465.6475
389.3956, 496.4043
389.8777, 525.1729
390.3598, 546.8428
390.8419, 548.4912
391.3241, 531.4316
391.8062, 523.4072
392.2883, 546.4756
392.7704, 598.4268
393.2525, 645.5938
393.7346, 684.8506
394.2168, 722.7275
394.6989, 769.4639
395.1810, 816.7715
395.6631, 844.0215
396.1452, 839.4492
396.6273, 816.1582
397.1095, 809.5527
397.5916, 830.9551
398.0737, 855.0322
398.5558, 889.9482
399.0379, 922.2451
399.5201, 933.2178
400.0022, 921.0732
400.4843, 906.7754
400.9664, 919.7471
401.4485, 971.7695
401.9306, 1010.348
402.4128, 1029.175
402.8949, 1042.495
403.3770, 1058.879
403.8591, 1075.923
404.3412, 1083.797
404.8233, 1071.913
405.3055, 1044.265
405.7876, 1036.339
406.2697, 1053.129
406.7518, 1084.687
407.2339, 1145.940
407.7160, 1212.461
408.1982, 1254.658
408.6803, 1260.037
409.1624, 1239.790
409.6445, 1200.121
410.1266, 1130.048
410.6087, 1098.059
411.0909, 1160.881
411.5730, 1241.659
412.0551, 1282.083
412.5372, 1277.281
413.0193, 1266.441
413.5014, 1283.770
413.9836, 1319.920
414.4657, 1334.767
414.9478, 1317.246
415.4299, 1292.088
415.9120, 1273.864
416.3941, 1262.654
416.8763, 1263.762
417.3584, 1300.737
417.8405, 1337.386
418.3226, 1326.666
418.8047, 1270.995
419.2868, 1218.129
419.7690, 1191.477
420.2511, 1189.604
420.7332, 1203.322
421.2153, 1251.784
421.6974, 1278.337
422.1795, 1251.104
422.6617, 1198.480
423.1438, 1163.924
423.6259, 1160.851
424.1080, 1176.141
424.5901, 1189.449
425.0722, 1199.688
425.5544, 1200.689
426.0365, 1185.649
426.5186, 1168.343
427.0007, 1158.293
427.4828, 1153.804
427.9649, 1145.959
428.4471, 1131.959
428.9292, 1116.100
429.4113, 1103.015
429.8934, 1084.885
430.3755, 1074.062
430.8576, 1080.966
431.3398, 1093.943
431.8219, 1095.375
432.3040, 1076.696
432.7861, 1050.378
433.2682, 1043.189
433.7503, 1065.256
434.2325, 1071.907
434.7146, 1048.042
435.1967, 1011.878
435.6788, 963.3779
436.1609, 906.9775
436.6430, 867.9243
437.1252, 881.3018
437.6073, 933.3706
438.0894, 951.3691
438.5715, 917.4282
439.0536, 879.4053
439.5357, 871.5757
440.0179, 882.6636
440.5000, 891.4067
440.9821, 895.9053
441.4642, 892.4746
441.9463, 872.7412
442.4284, 839.1172
442.9106, 809.1460
443.3927, 791.0684
443.8748, 780.9531
444.3569, 771.3838
444.8390, 764.9497
445.3211, 752.5796
445.8033, 721.1523
446.2854, 687.0933
446.7675, 673.1284
447.2496, 682.9492
447.7317, 701.5430
448.2138, 714.6694
448.6960, 722.6997
449.1781, 720.2471
449.6602, 703.1147
450.1423, 681.4604
450.6244, 653.6323
451.1065, 625.0332
451.5887, 607.0469
452.0708, 607.0654
452.5529, 617.0947
453.0350, 611.4360
453.5171, 574.8862
453.9992, 549.7651
454.4814, 554.9531
454.9635, 562.2041
455.4456, 544.7246
455.9277, 500.5713
456.4098, 455.9561
456.8919, 442.0356
457.3741, 457.8418
457.8562, 458.8413
458.3383, 432.6177
458.8204, 407.4932
459.3026, 404.2573
459.7847, 413.0923
460.2668, 412.1553
460.7489, 383.6982
461.2310, 351.2817
461.7131, 355.3994
462.1953, 394.4302
462.6774, 406.6660
463.1595, 355.0200
463.6416, 273.7358
464.1237, 225.2754
464.6058, 217.1768
465.0880, 210.0122
465.5701, 183.9351
466.0522, 153.8115
466.5343, 145.8345
467.0164, 163.2246
467.4985, 177.4365
467.9807, 158.5850
468.4628, 103.2681
468.9449, 69.03418
469.4270, 67.20166
469.9091, 71.32080
470.3912, 72.23145
470.8734, 71.98340
471.3555, 77.15332
471.8376, 91.12988
472.3197, 106.9927
472.8018, 108.5513
473.2839, 90.17773
473.7661, 68.93164
474.2482, 36.54004
474.7303, 8.925293
475.2124, 0.1147460
475.6945, 7.379883
476.1766, 15.39600
476.6588, 9.471680
477.1409, 7.513184
477.6230, 20.36865
478.1051, 32.51904
478.5872, 32.68213
479.0693, 2.595215
479.5515, 47.92285
480.0336, 67.56592
480.5157, 48.74316
480.9978, 13.26611
481.4799, 31.60205
481.9620, 80.39697
482.4442, 108.4097
482.9263, 105.6528
483.4084, 87.36279
483.8905, 72.03760
484.3726, 60.34570
484.8547, 44.29443
485.3369, 10.10840
485.8190, 18.93408
486.3011, 18.79248
486.7832, 5.055664
487.2653, 27.25391
487.7474, 31.39404
488.2296, 20.76709
488.7117, 10.23535
489.1938, 0.4267580
489.6759, 10.02686
490.1580, 18.70166
490.6401, 29.50342
491.1223, 49.13477
491.6044, 77.32812
492.0865, 103.6416
492.5686, 115.9082
493.0507, 113.2803
493.5328, 109.7529
494.0150, 102.3462
494.4971, 98.27979
494.9792, 104.6162
495.4613, 115.3179
495.9434, 118.7573
496.4255, 107.1860
496.9077, 92.86035
497.3898, 92.12012
497.8719, 104.2432
498.3540, 116.1470
498.8361, 124.2139
499.3182, 130.0044
499.8004, 135.6689
500.2825, 141.3120
500.7646, 145.6484
501.2467, 144.8438
501.7288, 144.8252
502.2109, 150.6348
502.6931, 162.7788
503.1752, 182.2905
503.6573, 212.2979
504.1394, 248.9023
504.6215, 269.0356
505.1036, 254.2295
505.5858, 246.4023
506.0679, 258.1592
506.5500, 274.8096
507.0321, 278.1587
507.5142, 266.0532
507.9963, 255.2080
508.4785, 268.6382
508.9606, 309.6606
509.4427, 332.2944
509.9248, 326.6895
510.4069, 313.9380
510.8890, 292.7437
511.3712, 272.6289
511.8533, 269.3354
512.3354, 291.3071
512.8175, 326.3496
513.2996, 365.7461
513.7817, 408.5664
514.2639, 438.9067
514.7460, 453.3735
515.2281, 452.5781
515.7102, 427.1543
516.1923, 377.2466
516.6744, 347.5366
517.1566, 359.8589
517.6387, 387.1338
518.1208, 411.3091
518.6029, 429.9922
519.0850, 440.2900
519.5671, 438.9775
520.0493, 430.8921
520.5314, 432.8804
521.0135, 460.1680
521.4956, 477.4731
521.9777, 480.7617
522.4598, 475.9966
522.9420, 464.6382
523.4241, 448.9565
523.9062, 435.3916
524.3883, 430.1621
524.8704, 432.6509
525.3525, 436.9116
525.8347, 445.3501
526.3168, 451.1396
526.7989, 448.3257
527.2810, 442.9302
527.7631, 442.4800
528.2452, 449.3809
528.7274, 457.8662
529.2095, 464.3169
529.6916, 468.6719
530.1737, 470.9438
530.6558, 471.2764
531.1379, 468.4248
531.6201, 457.9307
532.1022, 439.8408
532.5843, 434.0459
533.0664, 460.6992
533.5485, 481.0376
534.0306, 469.4731
534.5128, 438.4463
534.9949, 411.1548
535.4770, 397.4185
535.9591, 392.8301
536.4412, 392.3701
536.9233, 403.6133
537.4055, 405.2559
537.8876, 381.6729
538.3697, 361.5005
538.8518, 359.4531
539.3339, 368.9209
539.8160, 376.5439
540.2982, 377.3408
540.7803, 374.4443
541.2624, 370.2925
541.7445, 364.4214
542.2266, 360.4585
542.7087, 363.6567
543.1909, 366.6577
543.6730, 357.7881
544.1551, 335.5728
544.6372, 312.7251
545.1193, 293.5806
545.6014, 276.8545
546.0836, 257.2197
546.5657, 236.5249
547.0478, 229.7837
547.5299, 249.0342
548.0120, 283.1406
548.4941, 294.2085
548.9763, 256.2549
549.4584, 227.8232
549.9405, 206.8008
550.4226, 197.6387
550.9047, 209.9688
551.3868, 239.9756
551.8690, 269.3154
552.3511, 281.1924
552.8332, 279.4932
553.3153, 289.0498
553.7974, 319.8701
554.2795, 338.9448
554.7617, 319.3613
555.2438, 289.1504
555.7259, 277.8071
556.2080, 292.0640
556.6901, 309.8174
557.1722, 316.3901
557.6544, 317.5620
558.1365, 325.8999
558.6186, 343.1191
559.1007, 358.3062
559.5828, 362.3921
560.0649, 357.1904
560.5471, 356.8921
561.0292, 359.7485
561.5113, 368.9653
561.9934, 390.9438
562.4755, 416.7144
562.9576, 437.6182
563.4398, 451.3970
563.9219, 459.2397
564.4040, 459.8496
564.8861, 453.2358
565.3682, 459.2534
565.8503, 484.8340
566.3325, 512.8062
566.8146, 537.9595
567.2967, 561.3799
567.7788, 583.3330
568.2609, 603.0386
568.7430, 625.9678
569.2252, 660.5796
569.7073, 701.6685
570.1894, 732.2974
570.6715, 748.6133
571.1536, 764.2178
571.6357, 792.1284
572.1179, 830.7505
572.6000, 858.6562
573.0821, 875.1333
573.5642, 882.8169
574.0463, 870.7031
574.5284, 855.4072
575.0106, 861.9106
575.4927, 894.8281
575.9748, 933.6431
576.4569, 952.3779
576.9390, 949.1670
577.4211, 958.9634
577.9033, 998.2632
578.3854, 1027.775
578.8675, 1026.134
579.3496, 1010.360
579.8317, 1003.361
580.3138, 1012.316
580.7960, 1025.440
581.2781, 1035.508
581.7602, 1041.688
582.2423, 1041.541
582.7244, 1034.735
583.2065, 1020.063
583.6887, 992.6074
584.1708, 954.4561
584.6529, 930.5942
585.1350, 933.4448
585.6171, 934.5513
586.0992, 925.0088
586.5814, 908.9492
587.0635, 894.6011
587.5456, 882.6167
588.0277, 861.6265
588.5098, 813.4380
588.9919, 737.0542
589.4741, 690.1187
589.9562, 695.4287
590.4383, 695.4702
590.9204, 669.5669
591.4025, 627.6147
591.8846, 577.1460
592.3668, 517.2383
592.8489, 465.6235
593.3310, 442.5156
593.8131, 436.3975
594.2952, 421.9966
594.7773, 396.0088
595.2595, 364.2681
595.7416, 325.6016
596.2237, 281.7837
596.7058, 254.0615
597.1879, 256.5273
597.6700, 254.6792
598.1522, 240.6377
598.6343, 220.7827
599.1164, 197.3389
599.5985, 172.8604
600.0806, 154.9424
600.5627, 153.7402
601.0449, 165.5347
601.5270, 162.8511
602.0091, 139.8691
602.4912, 115.8770
602.9733, 94.74707
603.4554, 77.86230
603.9376, 65.31592
604.4197, 56.73926
604.9018, 57.70557
605.3839, 87.83789
605.8660, 122.2607
606.3481, 116.7993
606.8303, 72.86719
607.3124, 37.81738
607.7945, 42.57471
608.2766, 74.90625
608.7587, 94.25977
609.2408, 92.66797
609.7230, 87.90967
610.2051, 87.15869
610.6872, 77.67822
611.1693, 73.82156
611.6514, 16.44971
612.1335, 51.30615
612.6157, 37.41113
613.0978, 3.600098
613.5799, 23.49561
614.0620, 20.20508
614.5441, 19.83057
615.0262, 33.22217
615.5084, 49.77490
615.9905, 57.76318
616.4726, 58.38281
616.9547, 51.88672
617.4368, 24.36182
617.9189, 2.873047
618.4011, 11.21826
618.8832, 39.75928
619.3653, 66.11182
619.8474, 81.09863
620.3295, 86.80322
620.8116, 86.25977
621.2938, 78.53418
621.7759, 67.65967
622.2580, 43.65527
622.7401, 27.56299
623.2222, 34.60254
623.7043, 53.27295
624.1865, 64.10889
624.6686, 59.55615
625.1507, 48.16064
625.6328, 29.83936
626.1149, 10.06445
626.5970, 14.06738
627.0792, 49.47412
627.5613, 82.45264
628.0434, 82.04785
628.5255, 52.28467
629.0076, 37.36230
629.4897, 46.85352
629.9719, 56.23486
630.4540, 59.81885
630.9361, 61.75977
631.4182, 67.23291
631.9003, 76.30518
632.3824, 83.98096
632.8646, 85.16699
633.3467, 81.45703
633.8288, 81.64893
634.3109, 88.59473
634.7930, 88.57471
635.2751, 71.18799
635.7573, 48.56836
636.2394, 35.72656
636.7215, 33.93018
637.2036, 34.59473
637.6857, 38.29639
638.1678, 41.03174
638.6500, 35.66504
639.1321, 25.77051
639.6142, 25.28223
640.0963, 41.63086
640.5784, 63.33740
641.0605, 65.94531
641.5427, 39.90576
642.0248, 21.92676
642.5069, 13.82812
642.9890, 12.66992
643.4711, 20.16309
643.9532, 33.39648
644.4354, 47.66016
644.9175, 62.44141
645.3996, 74.88184
645.8817, 84.47900
646.3638, 89.65234
646.8459, 83.76807
647.3281, 65.01025
647.8102, 42.63818
648.2923, 22.40625
648.7744, 5.236816
649.2565, 0.1601560
649.7386, 17.87402
650.2208, 32.99609
650.7029, 48.24170
651.1850, 55.51953
651.6671, 39.92529
652.1492, 5.588867
652.6313, 21.48608
653.1135, 17.90869
653.5956, 5.758789
654.0777, 22.05298
654.5598, 30.97656
655.0419, 31.23853
655.5240, 16.17212
656.0062, 0.6774900
656.4883, 3.587158
656.9704, 30.30713
657.4525, 46.64258
657.9346, 40.67578
658.4167, 30.62476
658.8989, 26.65723
659.3810, 26.57812
659.8631, 25.25732
660.3452, 20.90381
660.8273, 15.80811
661.3094, 14.66968
661.7916, 18.27002
662.2737, 11.43677
662.7558, 15.71289
663.2379, 11.86456
663.7200, 9.591425
664.2021, 6.773193
664.6843, 4.781250
665.1664, 3.556152
665.6485, 1.251953
666.1306, 10.01343
666.6127, 17.41138
667.0948, 11.38159
667.5770, 4.850586
668.0591, 9.501221
668.5412, 12.50732
669.0233, 48.49707
669.5054, 62.35815
669.9875, 43.58447
670.4697, 29.14746
670.9518, 27.82153
671.4339, 25.30981
671.9160, 8.135498
672.3981, 15.40088
672.8802, 22.93555
673.3624, 3.432861
673.8445, 28.65625
674.3266, 13.97729
674.8087, 25.95996
675.2908, 54.45874
675.7729, 64.34399
676.2551, 65.24976
676.7372, 64.88184
677.2193, 63.16553
677.7014, 58.37085
678.1835, 40.33228
678.6656, 33.18115
679.1478, 54.65112
679.6299, 76.17725
680.1120, 72.53662
680.5941, 45.71191
681.0762, 16.82617
681.5583, 4.092041
682.0405, 16.66675
682.5226, 19.66431
683.0047, 13.36987
683.4868, 4.155762
683.9689, 37.74438
684.4510, 66.46021
684.9332, 61.86963
685.4153, 18.89795
685.8974, 4.392578
686.3795, 1.952637
686.8616, 14.08423
687.3438, 30.69165
687.8259, 46.46484
688.3080, 56.17700
688.7901, 58.86938
689.2722, 57.18140
689.7543, 51.52515
690.2365, 43.64282
690.7186, 40.03345
691.2007, 41.15674
691.6828, 36.72021
692.1649, 18.82910
692.6470, 0.8085940
693.1292, 4.131836
693.6113, 11.84033
694.0934, 30.46899
694.5755, 58.58130
695.0576, 81.66968
695.5397, 90.85010
696.0219, 91.24756
696.5040, 90.51953
696.9861, 91.26416
697.4682, 91.70386
697.9503, 90.65894
698.4324, 87.77563
698.9146, 78.95142
699.3967, 61.92261
699.8788, 49.63794
700.3609, 48.89917
700.8430, 56.09473
701.3251, 65.21265
701.8073, 77.18213
702.2894, 87.10742
702.7715, 97.07349
703.2536, 102.2180
703.7357, 92.42773
704.2178, 76.90356
704.7000, 75.86548
705.1821, 97.37036
705.6642, 123.4023
706.1463, 127.0039
706.6284, 110.2983
707.1105, 107.8276
707.5927, 127.9597
708.0748, 138.4248
708.5569, 111.3159
709.0390, 68.49707
709.5211, 61.74609
710.0032, 106.5098
710.4854, 138.4092
710.9675, 141.9370
711.4496, 135.3350
711.9317, 122.8843
712.4138, 110.4231
712.8959, 110.0217
713.3781, 127.6499
713.8602, 148.3953
714.3423, 149.1587
714.8244, 130.7156
715.3065, 113.9341
715.7886, 97.89209
716.2708, 90.74683
716.7529, 104.4978
717.2350, 128.0312
717.7171, 132.2952
718.1992, 108.3816
718.6813, 87.87769
719.1635, 76.88623
719.6456, 71.40576
720.1277, 68.32959
720.6098, 66.74463
721.0919, 69.44092
721.5740, 79.85938
722.0562, 92.94458
722.5383, 96.76343
723.0204, 91.41431
723.5025, 97.37085
723.9846, 121.5693
724.4667, 138.7361
724.9489, 130.2986
725.4310, 106.7080
725.9131, 94.87256
726.3952, 98.10889
726.8773, 98.79297
727.3594, 97.63086
727.8416, 94.55518
728.3237, 84.29468
728.8058, 70.12476
729.2879, 61.97046
729.7700, 65.55542
730.2521, 74.21484
730.7343, 78.29663
731.2164, 77.18945
731.6985, 72.02295
732.1806, 64.17896
732.6627, 61.83691
733.1448, 70.95435
733.6270, 85.65479
734.1091, 88.88794
734.5912, 72.32129
735.0733, 63.83496
735.5554, 71.65771
736.0375, 82.72974
736.5197, 89.13525
737.0018, 92.75928
737.4839, 99.60840
737.9660, 112.4065
738.4481, 123.3486
738.9302, 120.9248
739.4124, 107.7957
739.8945, 99.92383
740.3766, 100.0386
740.8587, 94.97485
741.3408, 75.21802
741.8229, 48.98047
742.3051, 36.51953
742.7872, 48.58716
743.2693, 50.17285
743.7514, 26.17603
744.2335, 7.720459
744.7156, 13.86914
745.1978, 33.57007
745.6799, 49.04150
746.1620, 54.52148
746.6441, 54.22046
747.1262, 48.39819
747.6083, 40.40161
748.0905, 38.28540
748.5726, 42.24023
749.0547, 47.88721
749.5368, 53.23950
750.0189, 58.33496
750.5010, 63.13599
750.9832, 68.82886
751.4653, 73.96680
751.9474, 80.69116
752.4295, 83.17822
752.9116, 79.33423
753.3937, 70.17578
753.8759, 53.58667
754.3580, 29.03101
754.8401, 12.44214
755.3222, 17.30859
755.8043, 33.30957
756.2864, 53.14575
756.7686, 73.03687
757.2507, 78.28906
757.7328, 62.74585
758.2149, 43.30566
758.6970, 44.79565
759.1791, 69.27637
759.6613, 80.79126
760.1434, 71.00586
760.6255, 62.51489
761.1076, 65.39478
761.5897, 70.81592
762.0718, 67.96313
762.5540, 56.67847
763.0361, 54.18555
763.5182, 80.10669
764.0003, 104.5723
764.4824, 97.42896
764.9645, 72.01245
765.4467, 60.70361
765.9288, 70.35034
766.4109, 79.19141
766.8930, 62.50342
767.3751, 28.58203
767.8572, 22.57520
768.3394, 50.14331
768.8215, 75.40991
769.3036, 90.10205
769.7857, 97.84912
770.2678, 100.7153
770.7499, 99.14038
771.2321, 97.59668
771.7142, 96.43457
772.1963, 95.14160
772.6784, 93.18286
773.1605, 91.19043
773.6426, 90.84009
774.1248, 91.41626
774.6069, 89.57495
775.0890, 82.67090
775.5711, 73.15039
776.0532, 61.67969
776.5353, 50.00293
777.0175, 53.43066
777.4996, 76.93506
777.9817, 99.08960
778.4638, 104.0398
778.9459, 94.25342
779.4280, 80.58594
779.9102, 51.22778
780.3923, 36.82349
780.8744, 53.39795
781.3565, 70.09448
781.8386, 66.37646
782.3207, 49.66870
782.8029, 36.48633
783.2850, 32.76587
783.7671, 30.56494
784.2492, 18.25488
784.7313, 6.401123
785.2134, 17.87231
785.6956, 49.00342
786.1777, 71.25098
786.6598, 69.64282
787.1419, 55.34741
787.6240, 48.42944
788.1061, 50.26343
788.5883, 50.40161
789.0704, 45.31274
789.5525, 45.09497
790.0346, 62.89404
790.5167, 83.33472
790.9988, 82.71973
791.4810, 56.49072
791.9631, 40.48071
792.4452, 53.49365
792.9273, 69.18823
793.4094, 68.20410
793.8915, 59.99072
794.3737, 62.35669
794.8558, 78.76562
795.3379, 95.59985
795.8200, 101.1970
796.3021, 97.26904
796.7842, 86.68311
797.2664, 69.46118
797.7485, 53.12573
798.2306, 38.61768
798.7127, 30.26489
799.1948, 34.98267
799.6769, 51.91528
800.1591, 58.50781
800.6412, 44.25122
801.1233, 33.71997
801.6054, 28.42334
802.0875, 28.04712
802.5696, 33.39551
803.0518, 43.58057
803.5339, 56.53223
804.0160, 74.04468
804.4981, 88.63550
804.9802, 93.60156
805.4623, 91.86646
805.9445, 86.54932
806.4266, 79.08057
806.9087, 73.37183
807.3908, 71.94214
807.8729, 72.77954
808.3550, 73.01001
808.8372, 73.49414
809.3193, 64.59131
809.8014, 39.69897
810.2835, 19.06763
810.7656, 14.74121
811.2477, 20.56006
811.7299, 23.12378
812.2120, 19.83569
812.6941, 23.69580
813.1762, 46.64478
813.6583, 66.51050
814.1404, 67.03931
814.6226, 59.29370
815.1047, 61.62622
815.5868, 77.17798
816.0689, 90.42139
816.5510, 87.56860
817.0331, 75.24316
817.5153, 64.09570
817.9974, 53.98730
818.4795, 17.41848
818.9616, 50.76902
819.4437, 69.51424
819.9258, 74.43894
820.4080, 24.14917
820.8901, 45.15743
821.3722, 37.59268
821.8543, 28.85628
822.3364, 59.89944
822.8185, 17.64049
823.3007, 48.05281
823.7828, 49.45608
824.2649, 64.13607
824.7470, 50.06658
825.2291, 44.87689
825.7112, 68.44590
826.1934, 76.09098
826.6755, 58.71197
827.1576, 74.23591
827.6397, 30.97268
828.1218, 39.29601
828.6040, 69.87660
829.0861, 53.94311
829.5682, 69.99269
830.0504, 73.86134
830.5325, 22.37282
831.0146, 67.15599
831.4967, 70.30479
831.9788, 30.70422
832.4609, 72.18871
832.9431, 38.48162
833.4252, 31.61332
833.9073, 44.94295
834.3894, 37.21696
834.8715, 62.68760
835.3536, 56.17752
835.8358, 46.81014
836.3179, 49.91226
836.8000, 17.67962
837.2821, 51.00009
837.7642, 39.54223
838.2463, 50.34270
838.7285, 66.18829
839.2106, 43.40338
839.6927, 61.51581
840.1748, 16.20610
840.6569, 23.96402
841.1390, 26.00751
841.6212, 61.97070
842.1033, 16.97014
842.5854, 23.25364
843.0675, 51.37313
843.5496, 48.93901
844.0317, 59.27950
844.5139, 31.80181
844.9960, 39.85143
845.4781, 38.10839
845.9602, 70.20454
846.4423, 75.58614
846.9244, 48.75018
847.4066, 22.05067
847.8887, 56.58218
848.3708, 33.07831
848.8529, 40.88386
849.3350, 16.35332
849.8171, 19.74259
850.2993, 22.68913
850.7814, 39.94804
851.2635, 13.80791
851.7456, 43.96317
852.2277, 41.58118
852.7098, 48.78373
853.1920, 54.91998
853.6741, 17.39443
854.1562, 15.66113
854.6383, 65.14289
855.1204, 36.51906
855.6025, 23.65960
856.0847, 22.00664
856.5668, 73.24239
857.0489, 75.31876
857.5310, 18.63451
858.0131, 67.53967
858.4952, 51.48412
858.9774, 54.73271
859.4595, 50.93849
859.9416, 49.22900
860.4237, 21.00042
860.9058, 27.71906
861.3879, 62.85308
861.8701, 49.54300
862.3522, 69.15057
862.8343, 28.76740
863.3164, 23.99357
863.7985, 28.67187
864.2806, 36.79741
864.7628, 17.37903
865.2449, 53.04467
865.7270, 52.03375
866.2091, 19.23965
866.6912, 20.92361
867.1733, 16.88296
867.6555, 72.43861
868.1376, 46.05627
868.6197, 13.87180
869.1018, 46.64400
869.5839, 58.59621
870.0660, 42.40136
870.5482, 41.16298
871.0303, 11.54926
871.5124, 25.45055
871.9945, 24.38592
872.4766, 47.97960
872.9587, 18.48001
873.4409, 50.10167
873.9230, 22.02623
874.4051, 56.12263
874.8872, 26.78491
875.3693, 53.95466
875.8514, 13.67482
876.3336, 22.21460
876.8157, 34.62407
877.2978, 59.53221
877.7799, 36.38746
878.2620, 64.26038
878.7441, 47.36179
879.2263, 59.60469
879.7084, 55.68821
880.1905, 31.54642
880.6726, 64.44915
881.1547, 45.32482
881.6368, 61.33064
882.1190, 4.461426
882.6011, 9.033936
883.0832, 49.10083
883.5653, 64.60669
884.0474, 52.09302
884.5295, 52.12671
885.0117, 82.01978
885.4938, 112.8137
885.9759, 113.6189
886.4580, 87.23267
886.9401, 67.01611
887.4222, 56.28516
887.9044, 45.96387
888.3865, 26.47095
888.8686, 15.90259
889.3507, 32.90552
889.8328, 63.95142
890.3149, 80.39478
890.7971, 75.45166
891.2792, 64.75220
891.7613, 49.11035
892.2434, 33.93164
892.7255, 23.00122
893.2076, 15.44165
893.6898, 8.583496
894.1719, 2.365234
894.6540, 1.948242
895.1361, 16.03979
895.6182, 33.77686
896.1003, 38.35742
896.5825, 32.50146
897.0646, 22.93506
897.5467, 10.84229
898.0288, 4.348145
898.5109, 9.987793
898.9930, 21.77100
899.4752, 25.24341
899.9573, 19.94336
900.4394, 11.89917
900.9215, 0.8723140
901.4036, 8.600342
901.8857, 6.539551
902.3679, 2.998535
902.8500, 19.44482
903.3321, 13.66991
903.8142, 16.64371
904.2963, 13.46118
904.7784, 14.25366
905.2606, 10.07812
905.7427, 4.687500
906.2248, 17.51538
906.7069, 25.77661
907.1890, 22.89624
907.6711, 7.339111
908.1533, 21.83691
908.6354, 16.92114
909.1175, 24.06180
909.5996, 72.55835
910.0817, 57.13550
910.5638, 65.56958
911.0460, 114.1453
911.5281, 163.7725
912.0102, 181.1809
912.4923, 174.9016
912.9744, 154.0254
913.4565, 122.0388
913.9387, 87.08130
914.4208, 52.28784
914.9029, 26.82324
915.3850, 18.32666
915.8671, 25.23340
916.3492, 47.76562
916.8314, 87.74829
917.3135, 113.1106
917.7956, 121.4587
918.2777, 108.1003
918.7598, 59.74438
919.2419, 2.347656
919.7241, 9.536133
920.2062, 38.58398
920.6883, 66.85864
921.1704, 68.37354
921.6525, 59.19507
922.1346, 29.32007
922.6168, 1.698730
923.0989, 0.1899410
923.5810, 20.51758
924.0631, 39.51636
924.5452, 57.78394
925.0273, 68.68042
925.5095, 66.10229
925.9916, 58.63867
926.4737, 50.52393
926.9558, 44.30029
927.4379, 43.66577
927.9200, 49.71411
928.4022, 54.41650
928.8843, 47.27026
929.3664, 39.57593
929.8485, 49.92188
930.3306, 68.95605
930.8127, 73.32544
931.2949, 59.39062
931.7770, 43.08862
932.2591, 36.99390
932.7412, 35.34692
933.2233, 21.50781
933.7054, 0.1943360
934.1876, 5.738037
934.6697, 41.85547
935.1518, 68.44727
935.6339, 63.10156
936.1160, 44.33447
936.5981, 44.82202
937.0803, 35.20859
937.5624, 21.71009
938.0445, 29.41748
938.5266, 6.604248
939.0087, 14.72705
939.4908, 30.48706
939.9730, 32.90601
940.4551, 23.97705
940.9372, 17.76245
941.4193, 16.48828
941.9014, 15.00439
942.3835, 12.07764
942.8657, 8.923340
943.3478, 9.370850
943.8299, 11.98682
944.3120, 15.13794
944.7941, 18.73193
945.2762, 19.99658
945.7584, 13.95093
946.2405, 10.29688
946.7226, 16.48584
947.2047, 25.70020
947.6868, 30.63696
948.1689, 31.67603
948.6511, 33.70947
949.1332, 38.82642
949.6153, 46.02979
950.0974, 61.10449
950.5795, 73.50195
951.0616, 59.66431
951.5438, 30.73950
952.0259, 24.13940
952.5080, 50.48608
952.9901, 78.94946
953.4722, 77.27197
953.9543, 59.07251
954.4365, 57.20508
954.9186, 68.16919
955.4007, 70.44360
955.8828, 60.66235
956.3649, 55.21582
956.8470, 66.10864
957.3292, 81.27148
957.8113, 68.34082
958.2934, 23.72656
958.7755, 14.87939
959.2576, 52.49146
959.7397, 76.18726
960.2219, 60.39380
960.7040, 33.12573
961.1861, 25.27881
961.6682, 35.78589
962.1503, 39.75610
962.6324, 31.00464
963.1146, 27.24927
963.5967, 36.26001
964.0788, 42.63354
964.5609, 35.37476
965.0430, 21.51440
965.5251, 10.87354
966.0073, 2.457031
966.4894, 3.692871
966.9715, 21.97803
967.4536, 38.28003
967.9357, 49.99072
968.4178, 54.17749
968.9000, 42.73926
969.3821, 21.05664
969.8642, 8.683105
970.3463, 14.39038
970.8284, 22.24951
971.3105, 23.45728
971.7927, 25.26025
972.2748, 38.63062
972.7569, 55.08569
973.2390, 56.91992
973.7211, 41.77124
974.2032, 28.32227
974.6854, 31.10278
975.1675, 39.00122
975.6496, 43.18750
976.1317, 43.13599
976.6138, 35.14355
977.0959, 21.47070
977.5781, 10.70337
978.0602, 8.603027
978.5423, 11.34033
979.0244, 19.89014
979.5065, 28.90234
979.9886, 18.14136
980.4708, 6.969238
980.9529, 14.64941
981.4350, 2.749756
981.9171, 26.59961
982.3992, 43.44458
982.8813, 51.57446
983.3635, 39.93311
983.8456, 9.807861
984.3277, 8.728516
984.8098, 43.63428
985.2919, 67.61011
985.7740, 59.11035
986.2562, 36.47144
986.7383, 21.87354
987.2204, 15.40234
987.7025, 18.99243
988.1846, 36.77954
988.6667, 49.89062
989.1489, 54.74878
989.6310, 56.16113
990.1131, 57.71631
990.5952, 57.39185
991.0773, 48.86035
991.5594, 26.26147
992.0416, 18.98779
992.5237, 45.65186
993.0058, 59.70532
993.4879, 35.22827
993.9700, 5.132324
994.4521, 3.660400
994.9343, 5.731934
995.4164, 19.17944
995.8985, 46.23877
996.3806, 58.40894
996.8627, 36.63770
997.3448, 17.08813
997.8270, 25.36768
998.3091, 41.25537
998.7912, 32.01001
999.2733, 3.071289
999.7554, 21.19971
1000.238, 6.685547
1000.720, 31.81934
1001.202, 30.50317
1001.684, 22.63989
1002.166, 28.11353
1002.648, 40.16284
1003.130, 37.85449
1003.612, 14.67432
1004.094, 0.2280270
1004.577, 21.72339
1005.059, 47.29565
1005.541, 51.53809
1006.023, 44.24097
1006.505, 37.97559
1006.987, 34.73804
1007.469, 32.05298
1007.951, 28.56323
1008.434, 26.47290
1008.916, 29.70776
1009.398, 34.11548
1009.880, 33.17529
1010.362, 28.93579
1010.844, 26.34570
1011.326, 26.75806
1011.808, 30.53784
1012.290, 40.24561
1012.773, 48.23779
1013.255, 40.86499
1013.737, 23.86499
1014.219, 7.277588
1014.701, 5.734863
1015.183, 2.561035
1015.665, 20.71729
1016.147, 39.84546
1016.630, 24.97534
1017.112, 8.412598
1017.594, 23.01196
1018.076, 19.79199
1018.558, 3.225586
1019.040, 44.13745
1019.522, 64.23218
1020.004, 40.87329
1020.486, 4.980225
1020.969, 7.680664
1021.451, 41.96826
1021.933, 51.37988
1022.415, 35.67090
1022.897, 23.53833
1023.379, 21.40942
1023.861, 21.69775
1024.343, 18.22437
1024.825, 15.69189
1025.308, 28.35791
1025.790, 58.75757
1026.272, 69.99365
1026.754, 57.90356
1027.236, 48.86646
1027.718, 52.72363
1028.200, 58.73584
1028.682, 56.54492
1029.165, 48.33618
1029.647, 43.12158
1030.129, 40.56592
1030.611, 42.93237
1031.093, 52.07300
1031.575, 61.51440
1032.057, 68.88135
1032.539, 75.06763
1033.021, 82.21680
1033.504, 89.75903
1033.986, 88.36182
1034.468, 74.56177
1034.950, 59.61572
1035.432, 41.66309
1035.914, 27.18970
1036.396, 18.28979
1036.878, 15.80420
1037.360, 23.51489
1037.843, 43.16748
1038.325, 50.67310
1038.807, 39.29395
1039.289, 28.74072
1039.771, 18.80127
1040.253, 11.08740
1040.735, 5.056152
1041.217, 2.221924
1041.700, 13.64746
1042.182, 47.10034
1042.664, 65.28442
1043.146, 53.77686
1043.628, 45.54517
1044.110, 51.42627
1044.592, 59.51807
1045.074, 62.82983
1045.557, 60.87573
1046.039, 53.03491
1046.521, 34.73169
1047.003, 24.71460
1047.485, 29.20825
1047.967, 37.05859
1048.449, 45.57202
1048.931, 54.88428
1049.413, 70.26904
1049.896, 87.17480
1050.378, 87.39990
1050.860, 58.18945
1051.342, 36.35522
1051.824, 28.77881
1052.306, 29.70581
1052.788, 45.76831
1053.270, 63.56763
1053.752, 67.84302
1054.235, 59.55322
1054.717, 51.61133
1055.199, 44.38574
1055.681, 42.40747
1056.163, 54.79272
1056.645, 64.15771
1057.127, 55.37988
1057.609, 38.90430
1058.092, 34.18579
1058.574, 39.97852
1059.056, 39.42480
1059.538, 15.85352
1060.020, 2.808594
1060.502, 22.27100
1060.984, 45.37231
1061.466, 48.87231
1061.948, 43.46167
1062.431, 50.65283
1062.913, 72.22021
1063.395, 85.49121
1063.877, 75.45996
1064.359, 64.83936
1064.841, 63.51294
1065.323, 64.39233
1065.805, 63.92578
1066.287, 60.54346
1066.770, 50.97876
1067.252, 34.87720
1067.734, 21.28198
1068.216, 6.826904
1068.698, 4.628174
1069.180, 33.98242
1069.662, 66.78491
1070.144, 78.16382
1070.627, 73.08667
1071.109, 63.93750
1071.591, 53.47754
1072.073, 46.79028
1072.555, 52.00854
1073.037, 54.03369
1073.519, 34.27417
1074.001, 16.01587
1074.484, 32.15088
1074.966, 65.08301
1075.448, 68.04053
1075.930, 28.09399
1076.412, 2.387939
1076.894, 29.96606
1077.376, 31.95645
1077.858, 64.64294
1078.340, 82.73757
1078.823, 87.02355
1079.305, 36.10970
1079.787, 56.50735
1080.269, 48.34516
1080.751, 39.02478
1081.233, 69.49712
1081.715, 26.68083
1082.197, 56.54897
1082.680, 57.42031
1083.162, 71.58292
1083.644, 57.00923
1084.126, 51.32879
1084.608, 74.42023
1085.090, 81.60120
1085.572, 63.77125
1086.054, 78.85770
1086.536, 35.17017
1087.019, 43.08170
1087.501, 73.26477
1087.983, 56.94696
1088.465, 72.62564
1088.947, 76.13662
1089.429, 24.30383
1089.911, 68.75595
1090.393, 71.58712
1090.875, 31.68214
1091.358, 72.87495
1091.840, 38.89018
1092.322, 31.75745
1092.804, 44.83604
1093.286, 36.87226
1093.768, 62.11848
1094.250, 55.39725
1094.732, 45.83203
1095.215, 48.74930
1095.697, 16.34548
1096.179, 49.50814
1096.661, 37.90574
1097.143, 48.57502
1097.625, 64.30270
1098.107, 41.41319
1098.589, 59.43438
1099.072, 14.04656
1099.554, 21.73989
1100.036, 23.73208
1100.518, 59.65731
1101.000, 14.63209
1101.482, 20.90425
1101.964, 49.02572
1102.446, 46.60690
1102.928, 56.97600
1103.411, 29.54032
1103.893, 37.64521
1104.375, 35.97076
1104.857, 68.14883
1105.339, 73.62563
1105.821, 46.89821
1106.303, 20.32054
1106.785, 54.98723
1107.267, 31.63182
1107.750, 39.59951
1108.232, 15.24413
1108.714, 18.82184
1109.196, 21.97018
1109.678, 39.44415
1110.160, 13.53245
1110.642, 43.92939
1111.124, 41.80247
1111.607, 49.27395
1112.089, 55.69186
1112.571, 18.46135
1113.053, 17.03633
1113.535, 66.83978
1114.017, 38.55087
1114.499, 26.03972
1114.981, 24.74830
1115.464, 76.35976
1115.946, 78.82442
1116.428, 22.54169
1116.910, 71.86178
1117.392, 56.23437
1117.874, 59.92453
1118.356, 56.58508
1118.838, 55.34379
1119.320, 27.59661
1119.802, 34.81008
1120.285, 70.45328
1120.767, 57.66457
1121.249, 77.80695
1121.731, 37.97177
1122.213, 33.75940
1122.695, 39.01231
1123.177, 47.72594
1123.659, 28.90897
1124.142, 65.19041
1124.624, 64.80756
1125.106, 32.65469
1125.588, 34.99335
1126.070, 31.62055
1126.552, 87.85753
1127.034, 62.16984
1127.516, 30.69317
1127.999, 64.18812
1128.481, 76.87477
1128.963, 61.42787
1129.445, 60.95057
1129.927, 32.11143
1130.409, 46.80062
1130.891, 46.53702
1131.373, 84.19775
1131.855, 65.99487
1132.338, 23.07202
1132.820, 9.751709
1133.302, 23.97314
1133.784, 31.74170
1134.266, 29.72363
1134.748, 30.87231
1135.230, 40.42993
1135.712, 45.66333
1136.194, 30.25952
1136.677, 7.564453
1137.159, 17.93335
1137.641, 50.09399
1138.123, 52.38794
1138.605, 25.90894
1139.087, 2.151367
1139.569, 8.336426
1140.051, 6.935059
1140.534, 7.394531
1141.016, 26.40137
1141.498, 40.11987
1141.980, 47.31763
1142.462, 42.83813
1142.944, 30.53467
1143.426, 22.65015
1143.908, 21.73364
1144.391, 23.31421
1144.873, 25.62793
1145.355, 25.20557
1145.837, 14.73999
1146.319, 2.533691
1146.801, 1.742188
1147.283, 0.4052730
1147.765, 7.420654
1148.247, 17.24292
1148.729, 23.13916
1149.212, 20.20654
1149.694, 23.99463
1150.176, 61.05640
1150.658, 92.30591
1151.140, 73.57202
1151.622, 37.51050
1152.104, 25.55640
1152.586, 33.70068
1153.069, 34.92627
1153.551, 20.44214
1154.033, 11.85107
1154.515, 22.96582
1154.997, 34.39355
1155.479, 37.03638
1155.961, 35.22827
1156.443, 35.71948
1156.926, 38.52539
1157.408, 42.39575
1157.890, 47.57324
1158.372, 49.89478
1158.854, 45.84180
1159.336, 43.27612
1159.818, 42.16602
1160.300, 44.17188
1160.782, 56.34546
1161.265, 68.79443
1161.747, 67.17114
1162.229, 51.87451
1162.711, 9.976621
1163.193, 41.63858
1163.675, 58.79598
1164.157, 62.23444
1164.639, 10.55925
1165.121, 30.28363
1165.604, 21.53355
1166.086, 11.71556
1166.568, 41.77857
1167.050, -1.359564
1167.532, 28.27496
1168.014, 29.00144
1168.496, 43.10600
1168.978, 28.56212
1169.461, 22.99859
1169.943, 46.29590
1170.425, 53.77042
1170.907, 36.32206
1171.389, 51.87784
1171.871, 8.747618
1172.353, 17.30519
1172.835, 48.22115
1173.318, 32.72527
1173.800, 49.31291
1174.282, 53.82066
1174.764, 3.072611
1175.246, 48.69723
1175.728, 52.78891
1176.210, 14.23214
1176.692, 56.86190
1177.174, 24.40097
1177.656, 18.88034
1178.139, 33.66188
1178.621, 27.48579
1179.103, 54.60792
1179.585, 49.85011
1180.067, 42.33662
1180.549, 47.39334
1181.031, 17.21700
1181.513, 52.69444
1181.996, 43.49994
1182.478, 56.66053
1182.960, 74.96683
1183.442, 54.74443
1183.924, 75.51992
1184.406, 32.97514
1184.888, 43.59846
1185.370, 48.60928
1185.853, 87.64732
1186.335, 45.81591
1186.817, 55.37056
1187.299, 75.62939
1187.781, 70.04883
1188.263, 68.50586
1188.745, 78.03345
1189.227, 72.62158
1189.709, 32.86255
1190.192, 9.285400
1190.674, 21.20825
1191.156, 39.19238
1191.638, 44.33716
1192.120, 42.90576
1192.602, 48.25610
1193.084, 60.53735
1193.566, 53.43750
1194.048, 21.88477
1194.531, 0.7407230
1195.013, 10.52197
1195.495, 7.790771
1195.977, 8.803711
1196.459, 28.59180
1196.941, 40.05029
1197.423, 44.29883
1197.905, 47.05078
1198.388, 47.94312
1198.870, 39.49463
1199.352, 23.64380
1199.834, 13.15991
1200.316, 11.67358
1200.798, 18.32690
1201.280, 33.53003
1201.762, 51.31079
1202.245, 67.57568
1202.727, 79.22534
1203.209, 81.30981
1203.691, 76.47070
1204.173, 64.98364
1204.655, 50.91235
1205.137, 43.75366
1205.619, 47.10864
1206.101, 50.45190
1206.583, 52.77246
1207.066, 47.00635
1207.548, 14.44189
1208.030, 13.84668
1208.512, 5.819336
1208.994, 22.08423
1209.476, 42.49341
1209.958, 52.06250
1210.440, 52.23315
1210.923, 29.47510
1211.405, 19.32593
1211.887, 37.06494
1212.369, 50.88281
1212.851, 47.42432
1213.333, 39.80859
1213.815, 39.79297
1214.297, 44.85083
1214.780, 46.32373
1215.262, 43.00977
1215.744, 45.38062
1216.226, 54.37646
1216.708, 65.25977
1217.190, 78.60889
1217.672, 78.70386
1218.154, 53.62842
1218.636, 25.21533
1219.119, 21.56421
1219.601, 34.98975
1220.083, 46.84814
1220.565, 55.49854
1221.047, 51.02539
1221.529, 36.68945
1222.011, 31.33545
1222.493, 39.43140
1222.975, 44.09229
1223.458, 35.31616
1223.940, 26.23291
1224.422, 36.29370
1224.904, 27.30536
1225.386, 41.36694
1225.868, 26.00830
1226.350, 21.02271
1226.832, 25.88599
1227.315, 31.12354
1227.797, 34.66382
1228.279, 29.89258
1228.761, 9.674316
1229.243, 2.621094
1229.725, 6.484131
1230.207, 21.15430
1230.689, 31.25659
1231.172, 40.11450
1231.654, 56.49463
1232.136, 78.83569
1232.618, 78.32397
1233.100, 86.68819
1233.582, 98.28857
1234.064, 77.72803
1234.546, 101.5388
1235.028, 79.33301
1235.510, 47.61206
1235.993, 33.30249
1236.475, 31.63794
1236.957, 37.64233
1237.439, 48.13623
1237.921, 38.78003
1238.403, 15.40820
1238.885, 10.07861
1239.367, 24.30786
1239.850, 37.70728
1240.332, 41.71289
1240.814, 39.85962
1241.296, 33.74194
1241.778, 25.56909
1242.260, 13.24072
1242.742, 4.083984
1243.224, 8.881836
1243.707, 22.08228
1244.189, 36.90601
1244.671, 50.05737
1245.153, 53.21899
1245.635, 44.59229
1246.117, 32.61816
1246.599, 12.85815
1247.081, 0.7092290
1247.563, 1.028564
1248.046, 6.523682
1248.528, 4.364746
1249.010, 2.938721
1249.492, 19.87573
1249.974, 53.86938
1250.456, 63.21265
1250.938, 40.54907
1251.420, 27.29053
1251.902, 27.23682
1252.385, 29.97852
1252.867, 32.12500
1253.349, 33.29443
1253.831, 33.17358
1254.313, 30.74731
1254.795, 28.00439
1255.277, 24.25317
1255.759, 17.41455
1256.242, 8.888428
1256.724, 2.388428
1257.206, 0.6777340
1257.688, 4.092285
1258.170, 17.80566
1258.652, 26.94482
1259.134, 11.12988
1259.616, 5.8590001E-03
1260.099, 15.30151
1260.581, 0.0000000E+00
##END=



