##NAMES=Potassic-arfvedsonite
##RRUFFID=R050516
##IDEAL CHEMISTRY=KNa_2_Fe^2+^_4_Fe^3+^Si_8_O_22_(OH)_2_
##LOCALITY=Red Wine complex, Labrador, Newfoundland, Canada
##OWNER=RRUFF
##SOURCE=Frank Hawthorne
##DESCRIPTION=Black fragments, structure is published in Can Min 14 (1976) 346-356
##STATUS=The identification of this mineral is confirmed by single-crystal X-ray diffraction and chemical analysis.
##URL=rruff.info/R050516
##MEASURED CHEMISTRY=(K_0.72_Na_0.25_[box]_0.03_)Na_2.00_(Fe^2+^_3.75_Ca_0.15_Mg_0.10_)_Î£=4_(Fe^3+^_0.55_Al_0.30_Ti_0.10_Mn_0.05_)Si_8_O_22_(OH)_2_
110.2153, 0.0000000E+00
110.6974, 5.3328998E-02
111.1795, 0.1494900
111.6616, 0.5789340
112.1437, 1.086288
112.6259, 1.551056
113.1080, 1.756607
113.5901, 1.715515
114.0722, 1.880737
114.5543, 2.779465
115.0364, 4.351776
115.5185, 5.386780
116.0007, 4.955948
116.4828, 4.383820
116.9649, 4.650955
117.4470, 5.870193
117.9291, 7.195801
118.4112, 7.315247
118.8934, 5.373123
119.3755, 4.323883
119.8576, 4.781860
120.3397, 5.947647
120.8218, 7.348068
121.3039, 8.778275
121.7861, 10.14450
122.2682, 11.18732
122.7503, 11.98126
123.2324, 12.27065
123.7145, 11.62018
124.1966, 10.51114
124.6788, 9.618622
125.1609, 9.327530
125.6430, 9.582993
126.1251, 9.902267
126.6072, 10.39842
127.0893, 10.84172
127.5715, 10.99582
128.0536, 10.94197
128.5357, 11.13527
129.0178, 12.11769
129.4999, 13.66943
129.9821, 14.47260
130.4642, 13.74622
130.9463, 12.63600
131.4284, 12.49760
131.9105, 13.59247
132.3926, 14.63011
132.8748, 14.27435
133.3569, 13.14787
133.8390, 12.37039
134.3211, 12.77718
134.8032, 13.95909
135.2853, 14.45641
135.7674, 13.85971
136.2496, 13.07124
136.7317, 12.50230
137.2138, 12.12480
137.6959, 11.85318
138.1780, 11.75449
138.6601, 11.90048
139.1423, 11.46043
139.6244, 9.786133
140.1065, 8.041794
140.5886, 6.504425
141.0707, 5.343582
141.5528, 4.548294
142.0350, 4.445190
142.5171, 5.526871
142.9992, 5.848572
143.4813, 4.641815
143.9634, 3.303421
144.4455, 2.705200
144.9277, 3.037979
145.4098, 3.863297
145.8919, 4.513031
146.3740, 4.889191
146.8561, 5.279175
147.3382, 5.637054
147.8204, 6.067032
148.3025, 6.677567
148.7846, 7.320099
149.2667, 8.061401
149.7488, 8.592087
150.2309, 8.620575
150.7131, 8.691483
151.1952, 9.360031
151.6773, 10.40111
152.1594, 10.75574
152.6415, 9.561508
153.1236, 7.852722
153.6058, 7.341156
154.0879, 8.357574
154.5700, 9.792511
155.0521, 10.43575
155.5342, 10.39838
156.0163, 10.13266
156.4985, 9.320724
156.9806, 8.479645
157.4627, 8.076187
157.9448, 8.276184
158.4269, 8.703552
158.9090, 8.809860
159.3912, 8.518051
159.8733, 8.072906
160.3554, 7.288086
160.8375, 6.510193
161.3196, 6.100494
161.8017, 6.241409
162.2839, 6.712540
162.7660, 6.842468
163.2481, 6.205002
163.7302, 5.788406
164.2123, 6.053513
164.6944, 6.524536
165.1766, 6.561234
165.6587, 5.770721
166.1408, 4.324509
166.6229, 3.328781
167.1050, 3.151611
167.5871, 3.020172
168.0693, 2.791443
168.5514, 2.493317
169.0335, 2.248779
169.5156, 2.158478
169.9977, 2.186813
170.4798, 1.875992
170.9620, 0.8315280
171.4441, 0.1045230
171.9262, 0.4406890
172.4083, 0.2751920
172.8904, 0.1310580
173.3725, 0.4329380
173.8547, 1.115540
174.3368, 1.506790
174.8189, 1.518204
175.3010, 1.308411
175.7831, 0.9142760
176.2652, 0.3295140
176.7474, 0.1848750
177.2295, 0.3506620
177.7116, 0.2942810
178.1937, 0.3289950
178.6758, 0.5418090
179.1579, 0.8771510
179.6401, 1.323212
180.1222, 1.977875
180.6043, 2.427719
181.0864, 2.314484
181.5685, 1.852142
182.0506, 1.346542
182.5328, 0.8658140
183.0149, 0.4507600
183.4970, 0.2638550
183.9791, 0.1401345
184.4612, 0.6749270
184.9433, 0.2999570
185.4255, 0.3182070
185.9076, 0.6568600
186.3897, 0.2295530
186.8718, 0.8473970
187.3539, 1.306015
187.8360, 0.4251250
188.3182, 0.3565670
188.8003, 0.6275790
189.2824, 0.4741210
189.7645, 0.1136470
190.2466, 0.3397830
190.7287, 0.9058690
191.2109, 1.130920
191.6930, 0.6727910
192.1751, 0.2040860
192.6572, 9.9959999E-02
193.1393, 0.2336430
193.6214, 0.2592620
194.1036, 0.2227170
194.5857, 0.1246950
195.0678, 4.7943000E-02
195.5499, 0.3191530
196.0320, 0.6303410
196.5141, 1.108948
196.9963, 1.664001
197.4784, 1.914063
197.9605, 1.384628
198.4426, 9.3307003E-02
198.9247, 0.5619350
199.4068, 0.9361270
199.8890, 2.496552
200.3711, 2.711029
200.8532, 1.563400
201.3353, 0.4109340
201.8174, 0.6218870
202.2995, 2.227234
202.7817, 3.425385
203.2638, 3.915955
203.7459, 4.199631
204.2280, 4.835205
204.7101, 5.884567
205.1922, 6.835815
205.6744, 7.203415
206.1565, 7.084427
206.6386, 6.849304
207.1207, 6.164520
207.6028, 5.594299
208.0849, 6.093033
208.5671, 7.976746
209.0492, 9.753265
209.5313, 10.00110
210.0134, 9.287201
210.4955, 8.736481
210.9776, 8.844849
211.4598, 9.379654
211.9419, 9.870834
212.4240, 10.37192
212.9061, 10.68501
213.3882, 10.69182
213.8703, 10.45476
214.3525, 10.04234
214.8346, 9.258484
215.3167, 8.329987
215.7988, 8.214417
216.2809, 9.613968
216.7630, 10.73775
217.2451, 10.54584
217.7273, 9.617462
218.2094, 8.986221
218.6915, 9.403397
219.1736, 10.63875
219.6557, 11.28670
220.1378, 10.84865
220.6200, 10.38365
221.1021, 10.13939
221.5842, 10.10510
222.0663, 10.25670
222.5484, 10.61839
223.0305, 11.14816
223.5127, 11.45964
223.9948, 11.32179
224.4769, 11.19264
224.9590, 11.30711
225.4411, 11.48306
225.9232, 11.33986
226.4054, 10.55447
226.8875, 9.240723
227.3696, 8.678497
227.8517, 9.895493
228.3338, 10.81702
228.8159, 10.90332
229.2981, 10.37508
229.7802, 9.670395
230.2623, 9.107254
230.7444, 8.656021
231.2265, 7.987961
231.7086, 6.565765
232.1908, 5.493820
232.6729, 5.222992
233.1550, 5.531372
233.6371, 6.021408
234.1192, 6.505569
234.6013, 6.918457
235.0835, 6.802307
235.5656, 5.683044
236.0477, 4.657700
236.5298, 3.850632
237.0119, 3.377182
237.4940, 3.553040
237.9762, 4.684570
238.4583, 6.474472
238.9404, 7.506500
239.4225, 7.487457
239.9046, 7.206039
240.3867, 6.864639
240.8689, 6.451813
241.3510, 5.898315
241.8331, 5.084518
242.3152, 4.210358
242.7973, 3.834610
243.2794, 3.934723
243.7616, 4.383591
244.2437, 5.672363
244.7258, 7.410599
245.2079, 8.264893
245.6900, 7.409821
246.1721, 5.640778
246.6543, 4.712830
247.1364, 4.915619
247.6185, 5.179092
248.1006, 4.917099
248.5827, 4.245987
249.0648, 3.581589
249.5470, 2.962601
250.0291, 2.537628
250.5112, 2.534058
250.9933, 3.018234
251.4754, 3.500092
251.9576, 3.853806
252.4397, 4.026779
252.9218, 3.705795
253.4039, 2.520432
253.8860, 1.163483
254.3681, 0.4112090
254.8503, 0.2513580
255.3324, 0.2159730
255.8145, 0.1219330
256.2966, 0.6669620
256.7787, 0.6396940
257.2608, 0.7335050
257.7430, 0.7557360
258.2251, 0.7081186
258.7072, 0.4740450
259.1893, 0.7332000
259.6714, 0.5240020
260.1535, 0.7981410
260.6357, 0.5939019
261.1178, 0.6757350
261.5999, 0.2020870
262.0820, 0.4637300
262.5641, 0.2407680
263.0462, 5.8945000E-02
263.5284, 0.2489320
264.0105, 0.3394010
264.4926, 0.2061460
264.9747, 0.4224400
265.4568, 0.8243710
265.9389, 0.4827120
266.4211, 0.3118740
266.9032, 0.9556730
267.3853, 1.062286
267.8674, 0.7500460
268.3495, 0.5611570
268.8316, 0.6075290
269.3138, 0.7548680
269.7959, 0.9642030
270.2780, 1.227509
270.7601, 1.550888
271.2422, 1.959061
271.7243, 2.386002
272.2065, 2.565277
272.6886, 2.331284
273.1707, 2.126648
273.6528, 2.119675
274.1349, 2.187958
274.6170, 2.176682
275.0992, 2.003571
275.5813, 1.757782
276.0634, 1.651932
276.5455, 1.678543
277.0276, 1.880020
277.5097, 2.543869
277.9919, 3.212479
278.4740, 3.384583
278.9561, 2.884857
279.4382, 2.081223
279.9203, 1.669052
280.4024, 1.854355
280.8846, 2.025909
281.3667, 2.096634
281.8488, 2.148682
282.3309, 2.276581
282.8130, 2.490128
283.2951, 2.678635
283.7773, 2.656998
284.2594, 2.309036
284.7415, 2.039581
285.2236, 1.710526
285.7057, 1.557739
286.1878, 1.825943
286.6700, 2.483353
287.1521, 3.230530
287.6342, 3.753738
288.1163, 4.056793
288.5984, 4.084946
289.0805, 3.440216
289.5627, 2.896210
290.0448, 2.858200
290.5269, 3.271774
291.0090, 3.826096
291.4911, 4.255066
291.9732, 4.557404
292.4554, 4.739700
292.9375, 4.584900
293.4196, 4.526596
293.9017, 4.940536
294.3838, 5.566315
294.8659, 5.817505
295.3481, 5.230850
295.8302, 3.890381
296.3123, 2.919563
296.7944, 2.218399
297.2765, 2.024498
297.7586, 2.786133
298.2408, 4.016052
298.7229, 5.025543
299.2050, 5.431473
299.6871, 5.345215
300.1692, 5.190216
300.6513, 4.977104
301.1335, 4.678940
301.6156, 4.199738
302.0977, 3.681862
302.5798, 3.251945
303.0619, 2.965683
303.5440, 2.814171
304.0262, 2.773972
304.5083, 2.848602
304.9904, 3.053719
305.4725, 3.737091
305.9546, 4.328384
306.4367, 4.229950
306.9189, 3.362915
307.4010, 2.265282
307.8831, 1.708305
308.3652, 1.968155
308.8473, 2.081207
309.3294, 1.977928
309.8116, 1.809280
310.2937, 1.561874
310.7758, 1.298454
311.2579, 1.224777
311.7400, 1.600670
312.2221, 2.547775
312.7043, 3.056648
313.1864, 2.894211
313.6685, 2.584770
314.1506, 2.259384
314.6327, 1.982323
315.1148, 1.809441
315.5970, 1.688164
316.0791, 1.609818
316.5612, 1.563683
317.0433, 1.599373
317.5254, 1.579117
318.0075, 1.383965
318.4897, 1.119942
318.9718, 1.080856
319.4539, 1.414452
319.9360, 1.912201
320.4181, 1.866203
320.9002, 0.1867980
321.3824, 0.6483380
321.8645, 0.2373200
322.3466, 1.633347
322.8287, 2.311844
323.3108, 1.891197
323.7929, 0.8770980
324.2751, 1.8913001E-02
324.7572, 1.028969
325.2393, 1.285057
325.7214, 5.8387998E-02
326.2035, 1.480125
326.6856, 1.783485
327.1678, 0.9335400
327.6499, 0.1283720
328.1320, 0.3544620
328.6141, 0.4637600
329.0962, 1.093468
329.5783, 1.644852
330.0605, 1.937675
330.5426, 1.649757
331.0247, 1.007095
331.5068, 0.5929030
331.9889, 0.8944400
332.4710, 1.842049
332.9532, 2.348740
333.4353, 1.969017
333.9174, 1.608574
334.3995, 1.425148
334.8816, 1.371910
335.3637, 1.351860
335.8459, 1.313889
336.3280, 1.303391
336.8101, 1.486176
337.2922, 2.212997
337.7743, 2.601280
338.2564, 2.337868
338.7386, 1.875839
339.2206, 1.592110
339.7028, 1.596283
340.1849, 1.787857
340.6670, 2.010849
341.1491, 2.237167
341.6312, 2.576668
342.1133, 3.282501
342.5955, 3.873566
343.0776, 4.008614
343.5597, 3.734436
344.0418, 3.362320
344.5239, 3.156342
345.0060, 3.113243
345.4882, 3.245354
345.9703, 3.965805
346.4524, 4.461014
346.9345, 4.406548
347.4166, 3.967697
347.8987, 3.409012
348.3809, 2.845879
348.8630, 2.364265
349.3451, 2.382622
349.8272, 3.361565
350.3093, 4.132225
350.7914, 4.315903
351.2736, 4.283638
351.7557, 4.421547
352.2378, 4.862503
352.7199, 5.422318
353.2020, 5.838440
353.6841, 6.164917
354.1663, 6.155243
354.6484, 5.485405
355.1305, 4.713646
355.6126, 4.021873
356.0947, 3.501732
356.5768, 3.327713
357.0590, 3.878906
357.5411, 5.201111
358.0232, 6.002426
358.5053, 5.894699
358.9874, 5.657295
359.4695, 5.554016
359.9517, 5.574844
360.4338, 5.677887
360.9159, 5.864662
361.3980, 6.096146
361.8801, 6.219841
362.3622, 6.138229
362.8444, 6.170631
363.3265, 6.627365
363.8086, 7.159729
364.2907, 7.374207
364.7728, 7.122627
365.2549, 6.687546
365.7371, 6.370552
366.2192, 6.159256
366.7013, 6.212746
367.1834, 6.850479
367.6655, 7.542412
368.1476, 7.882881
368.6298, 7.865837
369.1119, 7.760414
369.5940, 7.729996
370.0761, 7.771553
370.5582, 7.870598
371.0403, 8.060425
371.5225, 8.238190
372.0046, 8.323769
372.4867, 8.348709
372.9688, 8.378716
373.4509, 8.507935
373.9330, 8.612068
374.4152, 8.432800
374.8973, 7.927864
375.3794, 7.526558
375.8615, 7.629601
376.3436, 7.874367
376.8257, 7.641235
377.3079, 6.645630
377.7900, 5.790939
378.2721, 5.911545
378.7542, 6.739449
379.2363, 7.125175
379.7184, 6.692238
380.2006, 6.005936
380.6827, 5.910004
381.1648, 6.394211
381.6469, 6.586273
382.1290, 6.035164
382.6111, 5.064537
383.0933, 4.156219
383.5754, 3.426353
384.0575, 2.819252
384.5396, 2.297928
385.0217, 1.893333
385.5038, 1.701332
385.9860, 2.006477
386.4681, 2.298882
386.9502, 2.218925
387.4323, 1.844719
387.9144, 1.439545
388.3965, 1.101959
388.8787, 0.9270630
389.3608, 1.144791
389.8429, 2.024384
390.3250, 2.673615
390.8071, 2.770432
391.2892, 2.596214
391.7714, 2.480820
392.2535, 2.528122
392.7356, 2.635841
393.2177, 2.711319
393.6998, 2.787354
394.1819, 2.548706
394.6641, 1.577583
395.1462, 0.7260360
395.6283, 0.4942930
396.1104, 0.8184130
396.5925, 1.481003
397.0746, 2.400955
397.5568, 3.396980
398.0389, 3.620903
398.5210, 2.403778
399.0031, 1.374260
399.4852, 0.7065120
399.9673, 0.3476640
400.4495, 0.2152790
400.9316, 0.2877580
401.4137, 0.6084210
401.8958, 1.301048
402.3779, 2.839325
402.8600, 3.445656
403.3422, 2.338402
403.8243, 1.072975
404.3064, 0.2971880
404.7885, 0.1002580
405.2706, 0.4221730
405.7527, 1.338058
406.2349, 2.713890
406.7170, 3.417366
407.1991, 3.015175
407.6812, 2.512344
408.1633, 2.028419
408.6454, 1.633400
409.1276, 1.379547
409.6097, 1.285103
410.0918, 1.378136
410.5739, 1.793694
411.0560, 2.635849
411.5381, 3.235710
412.0203, 3.256645
412.5024, 3.196510
412.9845, 3.390282
413.4666, 3.789619
413.9487, 4.085960
414.4308, 3.914345
414.9130, 3.445930
415.3951, 3.423935
415.8772, 4.121727
416.3593, 4.598618
416.8414, 3.904968
417.3235, 2.803467
417.8057, 2.382034
418.2878, 3.115120
418.7699, 4.172699
419.2520, 4.899971
419.7341, 5.292610
420.2162, 5.229431
420.6984, 4.409050
421.1805, 3.462242
421.6626, 3.307693
422.1447, 3.943802
422.6268, 4.396164
423.1089, 4.153107
423.5911, 3.595093
424.0732, 3.189079
424.5553, 2.986031
425.0374, 2.989433
425.5195, 3.312859
426.0016, 3.867844
426.4838, 4.071121
426.9659, 3.596382
427.4480, 3.126556
427.9301, 3.061371
428.4122, 3.219704
428.8943, 3.163376
429.3765, 2.701965
429.8586, 2.135468
430.3407, 2.008728
430.8228, 2.649628
431.3049, 3.026711
431.7870, 2.904961
432.2692, 2.688225
432.7513, 2.822433
433.2334, 3.211304
433.7155, 3.263245
434.1976, 2.429642
434.6797, 0.8037260
435.1619, 0.2642520
435.6440, 0.5377660
436.1261, 0.4989470
436.6082, 6.0173001E-02
437.0903, 0.7755050
437.5724, 1.234879
438.0546, 1.295212
438.5367, 1.131676
439.0188, 1.017029
439.5009, 0.9890140
439.9830, 0.8859560
440.4651, 0.4392550
440.9473, 0.1533660
441.4294, 0.4699170
441.9115, 1.172089
442.3936, 1.639725
442.8757, 1.412079
443.3578, 0.6768800
443.8400, 1.5830999E-02
444.3221, 0.6846310
444.8042, 1.027275
445.2863, 0.5046310
445.7684, 0.2425610
446.2505, 0.5911100
446.7327, 0.3960040
447.2148, 0.1263120
447.6969, 0.3071140
448.1790, 0.1806120
448.6611, 0.2464225
449.1432, 0.3266830
449.6254, 0.3494030
450.1075, 0.5910030
450.5896, 0.5003890
451.0717, 0.3490830
451.5538, 5.3847998E-02
452.0359, 0.1608050
452.5181, 9.6129999E-03
453.0002, 0.4624180
453.4823, 0.9734800
453.9644, 1.493721
454.4465, 1.856232
454.9286, 1.530693
455.4108, 0.1597600
455.8929, 0.6986160
456.3750, 0.2034450
456.8571, 0.7224120
457.3392, 1.026466
457.8214, 0.5840070
458.3035, 3.4575999E-02
458.7856, 0.3531340
459.2677, 0.3705670
459.7498, 0.2465900
460.2319, 0.3974910
460.7141, 0.7276460
461.1962, 0.2618480
461.6783, 0.5788570
462.1604, 1.218903
462.6425, 1.439003
463.1246, 1.401573
463.6068, 1.370651
464.0889, 1.358963
464.5710, 1.322220
465.0531, 1.301399
465.5352, 1.218628
466.0173, 0.9686510
466.4995, 0.6204300
466.9816, 0.3475650
467.4637, 0.2726670
467.9458, 0.3436890
468.4279, 0.4013140
468.9100, 0.4549180
469.3922, 0.4741670
469.8743, 0.3275530
470.3564, 0.2176670
470.8385, 0.3898540
471.3206, 0.1349330
471.8027, 1.185593
472.2849, 1.831558
472.7670, 2.094582
473.2491, 0.8285520
473.7312, 1.536369
474.2133, 1.452759
474.6954, 1.336472
475.1776, 2.321365
475.6597, 1.274696
476.1418, 2.241592
476.6239, 2.405014
477.1060, 2.935822
477.5881, 2.670349
478.0703, 2.650520
478.5524, 3.426735
479.0345, 3.761787
479.5166, 3.403732
479.9987, 3.956467
480.4808, 2.881256
480.9630, 3.234184
481.4451, 4.203140
481.9272, 3.883957
482.4093, 4.450127
482.8914, 4.678780
483.3735, 3.374458
483.8557, 4.735573
484.3378, 4.943649
484.8199, 3.967819
485.3020, 5.236931
485.7841, 4.423859
486.2662, 4.353737
486.7484, 4.842659
487.2305, 4.748253
487.7126, 5.570465
488.1947, 5.506439
488.6768, 5.365799
489.1589, 5.570503
489.6411, 5.456551
490.1232, 5.837601
490.6053, 5.638573
491.0874, 6.055710
491.5695, 6.612335
492.0516, 6.098053
492.5338, 6.709236
493.0159, 5.536339
493.4980, 5.815590
493.9801, 5.938965
494.4622, 7.036392
494.9443, 5.899269
495.4265, 6.183945
495.9086, 7.073296
496.3907, 7.115860
496.8728, 7.511581
497.3549, 6.860039
497.8370, 7.191742
498.3192, 7.250412
498.8013, 6.950562
499.2834, 7.225258
499.7655, 6.801697
500.2476, 6.668930
500.7297, 6.915443
501.2119, 7.123039
501.6940, 7.263527
502.1761, 7.314072
502.6582, 7.238693
503.1403, 7.147934
503.6224, 7.221039
504.1045, 7.537926
504.5866, 8.023537
505.0688, 8.432228
505.5509, 8.947716
506.0330, 9.077896
506.5151, 8.325684
506.9972, 7.558441
507.4793, 7.542473
507.9615, 8.225342
508.4436, 8.852051
508.9257, 8.690704
509.4078, 7.922844
509.8899, 7.635590
510.3720, 8.023483
510.8542, 8.394127
511.3363, 8.412125
511.8184, 8.328789
512.3005, 8.420792
512.7827, 8.791916
513.2648, 9.299599
513.7469, 9.801224
514.2290, 10.22942
514.7111, 10.36929
515.1932, 10.19701
515.6754, 9.971077
516.1575, 9.807091
516.6396, 9.696564
517.1217, 9.731926
517.6038, 10.05922
518.0859, 10.33939
518.5681, 10.39509
519.0502, 10.37936
519.5323, 10.47924
520.0144, 10.73103
520.4965, 10.99638
520.9786, 11.10509
521.4608, 11.03094
521.9429, 10.95534
522.4250, 10.96225
522.9071, 10.87602
523.3892, 10.39978
523.8713, 9.856110
524.3535, 9.825195
524.8356, 10.53673
525.3177, 11.49496
525.7998, 11.76924
526.2819, 11.12640
526.7640, 10.98337
527.2462, 12.02549
527.7283, 12.95087
528.2104, 13.15201
528.6925, 12.76039
529.1746, 12.04360
529.6567, 10.84949
530.1389, 9.822655
530.6210, 10.14249
531.1031, 11.70432
531.5852, 12.68427
532.0673, 12.35436
532.5494, 11.55655
533.0316, 11.33635
533.5137, 11.64746
533.9958, 11.88032
534.4779, 11.83195
534.9600, 11.72366
535.4421, 11.66039
535.9243, 11.67928
536.4064, 11.90365
536.8885, 12.41457
537.3706, 13.04593
537.8527, 13.43794
538.3348, 13.44753
538.8170, 13.49670
539.2991, 13.62672
539.7812, 13.75619
540.2633, 13.88627
540.7454, 13.97632
541.2275, 13.93556
541.7097, 13.69721
542.1918, 13.33145
542.6739, 13.00612
543.1560, 12.69894
543.6381, 12.49879
544.1202, 12.32932
544.6024, 12.35767
545.0845, 12.94058
545.5666, 13.92027
546.0487, 14.49004
546.5308, 13.86279
547.0129, 12.75951
547.4951, 12.30186
547.9772, 12.47500
548.4593, 12.94080
548.9414, 13.73959
549.4235, 14.54041
549.9056, 14.63750
550.3878, 13.93025
550.8699, 13.36001
551.3520, 13.10372
551.8341, 12.99237
552.3162, 12.86454
552.7983, 12.74914
553.2805, 12.86115
553.7626, 13.36636
554.2447, 14.02432
554.7268, 14.07743
555.2089, 12.82218
555.6910, 12.16782
556.1732, 12.72341
556.6553, 13.34055
557.1374, 13.20513
557.6195, 12.47712
558.1016, 11.86865
558.5837, 11.88728
559.0659, 12.27997
559.5480, 12.41777
560.0301, 12.20805
560.5122, 12.08627
560.9943, 12.25131
561.4764, 12.51638
561.9586, 12.73738
562.4407, 12.93021
562.9228, 12.99169
563.4049, 12.78675
563.8870, 12.42948
564.3691, 12.01099
564.8513, 11.56030
565.3334, 11.16940
565.8155, 10.86150
566.2976, 10.69229
566.7797, 10.80918
567.2618, 11.52726
567.7440, 11.77178
568.2261, 11.17493
568.7082, 10.55318
569.1903, 10.19476
569.6724, 10.06720
570.1545, 10.15456
570.6367, 10.52325
571.1188, 10.94777
571.6009, 10.85295
572.0830, 10.08749
572.5651, 9.676384
573.0472, 9.876038
573.5294, 10.12717
574.0115, 10.22890
574.4936, 10.18002
574.9757, 9.946114
575.4578, 9.445892
575.9399, 8.845444
576.4221, 8.282143
576.9042, 7.771416
577.3863, 7.412270
577.8684, 7.269241
578.3505, 7.190002
578.8326, 6.980515
579.3148, 6.627174
579.7969, 6.346718
580.2790, 6.214920
580.7611, 6.085602
581.2432, 5.882301
581.7253, 5.635551
582.2075, 5.366478
582.6896, 5.092125
583.1717, 4.891022
583.6538, 4.902443
584.1359, 5.174309
584.6180, 5.311356
585.1002, 5.134575
585.5823, 5.036285
586.0643, 5.318970
586.5464, 5.678604
587.0286, 5.608543
587.5107, 4.928635
587.9928, 4.304947
588.4749, 4.563179
588.9570, 5.435707
589.4391, 5.902618
589.9213, 5.855698
590.4034, 5.365974
590.8855, 4.174217
591.3676, 2.614784
591.8497, 1.923561
592.3318, 2.708038
592.8140, 3.302284
593.2961, 3.004433
593.7782, 2.350960
594.2603, 1.914398
594.7424, 1.770706
595.2245, 1.717247
595.7067, 1.590416
596.1888, 1.422897
596.6709, 1.423988
597.1530, 1.847366
597.6351, 1.992180
598.1172, 1.497528
598.5994, 0.9395370
599.0815, 0.7878420
599.5636, 1.007225
600.0457, 1.187721
600.5278, 0.9217530
601.0099, 0.5476990
601.4921, 0.8660280
601.9742, 1.889389
602.4563, 2.642761
602.9384, 2.795074
603.4205, 2.518402
603.9026, 1.883385
604.3848, 0.8604660
604.8669, 0.1763840
605.3490, 9.3552001E-02
605.8311, 0.2192760
606.3132, 0.4463270
606.7953, 0.6650240
607.2775, 0.5864110
607.7596, 0.1082610
608.2417, 0.3652190
608.7238, 0.1042940
609.2059, 1.160995
609.6880, 1.811951
610.1702, 1.407135
610.6523, 0.8627090
611.1344, 0.3202210
611.6165, 0.1257020
612.0986, -5.7387106E-02
612.5807, 0.3407520
613.0629, 0.1503070
613.5450, 0.3264310
614.0271, 0.9256440
614.5092, 1.059456
614.9913, 0.6210560
615.4734, 5.5213999E-02
615.9556, 0.4527590
616.4377, 0.8422780
616.9198, 0.9060210
617.4019, 0.4771800
617.8840, 8.0352999E-02
618.3661, 0.2981950
618.8483, 0.5189820
619.3304, 0.2734450
619.8125, 0.2925260
620.2946, 0.5986020
620.7767, 0.2351300
621.2589, 0.5441820
621.7410, 0.9757310
622.2231, 0.9279400
622.7052, 0.9242100
623.1873, 1.143250
623.6694, 1.319298
624.1516, 1.397942
624.6337, 1.315033
625.1158, 0.8564150
625.5979, 0.3986970
626.0800, 1.569794
626.5621, 1.640884
627.0443, 0.8590700
627.5264, 7.5424001E-02
628.0085, 1.062775
628.4906, 1.593842
628.9727, 0.9775620
629.4548, 0.7891540
629.9370, 1.629288
630.4191, 0.9552310
630.9012, 0.2457730
631.3833, 0.2752230
631.8654, 0.6146550
632.3475, 0.6700210
632.8297, 0.5120930
633.3118, 0.5319670
633.7939, 1.214760
634.2760, 2.282204
634.7581, 2.408966
635.2402, 1.261200
635.7224, 0.4978940
636.2045, 0.8678820
636.6866, 1.643974
637.1687, 2.043159
637.6508, 2.082054
638.1329, 2.198166
638.6151, 2.703453
639.0972, 3.186836
639.5793, 3.259590
640.0614, 3.032372
640.5435, 2.789841
641.0256, 2.632698
641.5078, 2.551224
641.9899, 2.562134
642.4720, 2.703690
642.9541, 2.618767
643.4362, 1.784050
643.9183, 1.341354
644.4005, 1.760521
644.8826, 2.586800
645.3647, 3.398468
645.8468, 4.080086
646.3289, 4.648628
646.8110, 5.224655
647.2932, 5.697441
647.7753, 5.567535
648.2574, 4.787407
648.7395, 4.451202
649.2216, 5.200310
649.7037, 6.459793
650.1859, 7.181870
650.6680, 7.225548
651.1501, 7.422676
651.6322, 7.975685
652.1143, 8.564392
652.5964, 9.048592
653.0786, 9.422600
653.5607, 9.615494
654.0428, 9.619308
654.5249, 9.732491
655.0070, 10.52373
655.4891, 12.03844
655.9713, 12.89725
656.4534, 12.69263
656.9355, 12.62183
657.4176, 13.73539
657.8997, 15.08718
658.3818, 15.35119
658.8640, 14.21130
659.3461, 13.30885
659.8282, 13.47934
660.3103, 14.19022
660.7924, 15.03440
661.2745, 15.86971
661.7567, 16.43962
662.2388, 16.58279
662.7209, 16.58046
663.2030, 16.98092
663.6851, 17.90649
664.1672, 18.84468
664.6494, 20.34863
665.1315, 21.25948
665.6136, 20.71394
666.0957, 19.49722
666.5778, 18.71703
667.0599, 18.65898
667.5421, 19.06334
668.0242, 20.13565
668.5063, 21.42690
668.9884, 21.72107
669.4705, 20.92408
669.9526, 19.93185
670.4348, 19.17872
670.9169, 18.64361
671.3990, 18.29800
671.8811, 18.30865
672.3632, 18.05076
672.8453, 17.48141
673.3275, 16.66786
673.8096, 15.44665
674.2917, 14.03832
674.7738, 12.74774
675.2559, 11.72758
675.7380, 11.00868
676.2202, 10.73013
676.7023, 10.82873
677.1844, 10.74618
677.6665, 10.38831
678.1486, 9.995308
678.6307, 9.708267
679.1129, 9.514877
679.5950, 9.432091
680.0771, 9.570068
680.5592, 9.328476
681.0413, 8.259460
681.5234, 7.023499
682.0056, 6.002357
682.4877, 5.244545
682.9698, 4.755043
683.4519, 4.501236
683.9340, 4.433975
684.4161, 4.804199
684.8983, 5.785789
685.3804, 5.711700
685.8625, 3.731239
686.3446, 2.051094
686.8267, 1.813683
687.3088, 2.223381
687.7910, 2.591324
688.2731, 2.955536
688.7552, 3.203987
689.2373, 3.195992
689.7194, 3.069138
690.2015, 2.966820
690.6837, 2.969887
691.1658, 3.017494
691.6479, 3.060112
692.1300, 3.108170
692.6121, 3.215797
693.0942, 3.422195
693.5764, 3.455055
694.0585, 3.156754
694.5406, 2.910362
695.0227, 2.815659
695.5048, 2.821732
695.9869, 2.915482
696.4691, 3.084946
696.9512, 3.182083
697.4333, 3.137642
697.9154, 2.985535
698.3975, 2.762131
698.8796, 2.514290
699.3618, 2.223442
699.8439, 1.867157
700.3260, 1.626846
700.8081, 1.837006
701.2902, 1.376804
701.7723, 1.052817
702.2545, 1.057014
702.7366, 0.1567080
703.2187, 0.4705430
703.7008, 0.2677920
704.1829, 0.1194610
704.6650, 0.6287000
705.1472, 1.320305
705.6293, 2.499298
706.1114, 3.635658
706.5935, 3.835312
707.0756, 3.204681
707.5577, 2.338402
708.0399, 1.332626
708.5220, 0.5418470
709.0041, 0.4269410
709.4862, 0.9904400
709.9683, 1.233337
710.4504, 0.7757870
710.9326, 0.5798870
711.4147, 0.9287640
711.8968, 1.457863
712.3789, 2.018471
712.8610, 2.501656
713.3431, 2.639603
713.8253, 2.186142
714.3074, 1.444000
714.7895, 0.7096860
715.2716, 4.8248000E-02
715.7537, 8.5006997E-02
716.2358, 1.119530
716.7180, 2.000931
717.2001, 1.714622
717.6822, 0.5084080
718.1643, 4.4395000E-02
718.6464, 0.8452840
719.1285, 1.594933
719.6107, 2.400345
720.0928, 2.915573
720.5749, 2.648270
721.0570, 1.884254
721.5391, 1.395950
722.0212, 1.587135
722.5034, 2.062683
722.9855, 2.345444
723.4676, 2.451904
723.9497, 2.468521
724.4318, 2.403175
724.9139, 2.248787
725.3961, 1.957787
725.8782, 1.604713
726.3603, 1.416077
726.8424, 1.504845
727.3245, 1.491623
727.8066, 0.5068590
728.2888, 1.419487
728.7709, 1.927727
729.2530, 2.053253
729.7351, 0.6498870
730.2172, 1.220596
730.6993, 1.000145
731.1815, 0.7471920
731.6636, 1.595818
732.1457, 0.4150010
732.6278, 1.246582
733.1099, 1.275078
733.5920, 1.671204
734.0742, 1.271255
734.5563, 1.117157
735.0384, 1.759308
735.5205, 1.960648
736.0026, 1.469261
736.4847, 1.889015
736.9669, 1.815613
737.4490, 0.9012990
737.9311, 1.737839
738.4132, 1.286446
738.8953, 0.6685490
739.3774, 0.5534290
739.8596, 0.5578610
740.3417, 0.4181900
740.8238, 0.1551970
741.3059, 0.1408000
741.7880, 0.5096360
742.2701, 1.031494
742.7523, 1.576721
743.2344, 2.117249
743.7165, 2.188332
744.1986, 1.370087
744.6807, 0.7018970
745.1628, 0.2533040
745.6450, 4.6875000E-02
746.1271, 0.3898700
746.6092, 0.9884260
747.0913, 0.9838410
747.5734, 1.410418
748.0555, 1.514343
748.5377, 1.614761
749.0198, 0.7885280
749.5019, 9.3383998E-02
749.9840, 0.3531490
750.4661, 0.5699540
750.9482, 0.5242460
751.4304, 0.3206480
751.9125, 0.2050550
752.3946, 0.1449280
752.8767, 0.2623670
753.3588, 0.3086370
753.8409, 0.4090937
754.3231, 0.5486760
754.8052, 0.6741260
755.2873, 0.6901700
755.7694, 0.8187790
756.2515, 0.8688098
756.7336, 0.7094098
757.2158, 0.9651260
757.6979, 0.4451370
758.1800, 0.3957370
758.6621, 0.5119630
759.1442, 0.7055440
759.6263, 0.9017490
760.1085, 1.031075
760.5906, 1.066116
761.0727, 0.8901140
761.5548, 0.3034210
762.0369, 0.1044010
762.5190, 0.3991240
763.0012, 0.4043200
763.4833, 0.3653790
763.9654, 1.602036
764.4475, 2.136864
764.9296, 1.101112
765.4117, 5.2696001E-02
765.8939, 0.1372910
766.3760, -0.2300254
766.8581, 0.9270100
767.3402, 3.4568999E-02
767.8223, 0.9250110
768.3044, 1.114120
768.7866, 0.7780690
769.2687, 0.3009410
769.7508, 0.4104610
770.2329, 0.9267200
770.7150, 1.212471
771.1971, 1.333237
771.6793, 1.356712
772.1614, 1.224213
772.6435, 0.6794970
773.1256, 0.4168090
773.6077, 0.9416120
774.0898, 0.1934430
774.5720, 1.480797
775.0541, 0.7876970
775.5362, 1.736938
776.0183, 2.265266
776.5004, 2.427826
776.9825, 1.061707
777.4647, 1.669830
777.9468, 1.486900
778.4289, 1.271660
778.9110, 2.157921
779.3931, 1.014679
779.8752, 1.883698
780.3574, 1.949615
780.8395, 2.383255
781.3216, 2.020981
781.8037, 1.904678
782.2858, 2.584770
782.7679, 2.824074
783.2501, 2.370613
783.7322, 2.828316
784.2143, 1.658379
784.6964, 1.916931
785.1785, 2.791878
785.6606, 2.379028
786.1428, 2.851868
786.6249, 2.987549
787.1070, 1.590607
787.5891, 2.859406
788.0712, 2.975525
788.5533, 1.908104
789.0355, 3.085945
789.5176, 2.181961
789.9997, 2.021233
790.4818, 2.419876
790.9639, 2.235657
791.4460, 2.283936
791.9282, 2.820442
792.4103, 2.325859
792.8924, 2.230240
793.3745, 2.443306
793.8566, 2.899101
794.3387, 3.149155
794.8209, 2.760811
795.3030, 2.406906
795.7851, 3.051598
796.2672, 4.151077
796.7493, 4.426712
797.2314, 3.749077
797.7136, 2.850266
798.1957, 2.156464
798.6778, 1.751335
799.1599, 1.947861
799.6420, 2.987152
800.1241, 3.624924
800.6063, 3.674500
801.0884, 3.574203
801.5705, 3.376633
802.0526, 3.215469
802.5347, 3.378563
803.0168, 3.935287
803.4990, 4.078445
803.9811, 3.026695
804.4632, 2.082039
804.9453, 2.237648
805.4274, 2.940414
805.9095, 3.383743
806.3917, 3.455498
806.8738, 3.268196
807.3559, 2.730995
807.8380, 2.137260
808.3201, 2.390747
808.8022, 3.441536
809.2844, 4.006912
809.7665, 3.786987
810.2486, 3.466927
810.7307, 3.522102
811.2128, 3.830200
811.6949, 4.023880
812.1771, 4.125954
812.6592, 4.014236
813.1413, 3.429970
813.6234, 3.042549
814.1055, 3.277237
814.5876, 3.744484
815.0698, 3.859932
815.5519, 3.529076
816.0340, 3.245369
816.5161, 3.359184
816.9982, 3.646942
817.4803, 3.935867
817.9625, 4.175552
818.4446, 4.121468
818.9267, 3.760780
819.4088, 3.682426
819.8909, 4.483284
820.3730, 5.748207
820.8552, 5.904068
821.3373, 4.599037
821.8194, 3.848434
822.3015, 4.153183
822.7836, 4.552979
823.2657, 4.352516
823.7479, 3.897018
824.2300, 3.887627
824.7121, 4.460419
825.1942, 5.014519
825.6763, 5.579132
826.1584, 5.885506
826.6406, 5.736458
827.1227, 5.279045
827.6048, 4.528976
828.0869, 3.597977
828.5690, 3.022774
829.0511, 3.320168
829.5333, 4.109459
830.0154, 4.895348
830.4975, 5.614311
830.9796, 5.882774
831.4617, 5.605484
831.9438, 5.191071
832.4260, 4.796211
832.9081, 4.495659
833.3902, 4.537994
833.8723, 5.089828
834.3544, 5.550438
834.8365, 5.930206
835.3187, 6.191956
835.8008, 6.235329
836.2829, 6.205467
836.7650, 6.341766
837.2471, 6.670914
837.7292, 6.783646
838.2114, 6.401962
838.6935, 5.919914
839.1756, 5.487846
839.6577, 5.161003
840.1398, 5.039612
840.6219, 5.105705
841.1041, 5.213341
841.5862, 5.259918
842.0683, 5.314613
842.5504, 5.572563
843.0325, 5.977478
843.5146, 6.066452
843.9968, 5.753998
844.4789, 5.608147
844.9610, 6.002899
845.4431, 6.588699
845.9252, 6.717400
846.4073, 6.293701
846.8895, 5.891579
847.3716, 5.445763
847.8537, 5.112312
848.3358, 4.905640
848.8179, 4.832909
849.3000, 5.007408
849.7822, 5.349792
850.2643, 5.472229
850.7464, 5.051773
851.2285, 4.708183
851.7106, 4.809196
852.1927, 5.170067
852.6749, 5.767998
853.1570, 6.426147
853.6391, 6.638100
854.1212, 6.172760
854.6033, 5.547806
855.0854, 5.391174
855.5676, 5.650848
856.0497, 6.193840
856.5318, 7.033882
857.0139, 7.617729
857.4960, 7.742149
857.9781, 7.629921
858.4603, 7.462944
858.9424, 7.262283
859.4245, 7.292297
859.9066, 7.914619
860.3887, 8.141418
860.8708, 7.532333
861.3530, 6.896530
861.8351, 6.812080
862.3172, 6.946465
862.7993, 6.565125
863.2814, 5.402672
863.7635, 4.594597
864.2457, 4.924484
864.7278, 5.496948
865.2099, 5.641167
865.6920, 5.526184
866.1741, 5.357826
866.6563, 5.219986
867.1384, 5.319344
867.6205, 5.933754
868.1026, 6.662827
868.5847, 6.399948
869.0668, 5.359428
869.5490, 5.204285
870.0311, 6.227829
870.5132, 6.982224
870.9953, 6.523880
871.4774, 5.453926
871.9595, 4.958717
872.4417, 5.180916
872.9238, 5.326050
873.4059, 5.411331
873.8880, 5.365578
874.3701, 4.958672
874.8522, 4.557442
875.3344, 4.497734
875.8165, 4.738487
876.2986, 5.005592
876.7807, 5.604027
877.2628, 5.721275
877.7449, 4.359711
878.2271, 3.001175
878.7092, 3.304375
879.1913, 4.692924
879.6734, 5.445313
880.1555, 4.967697
880.6376, 4.126984
881.1198, 3.385933
881.6019, 2.913979
882.0840, 3.296509
882.5661, 4.281410
883.0482, 4.659409
883.5303, 4.158134
884.0125, 3.729179
884.4946, 4.228241
884.9767, 5.283638
885.4588, 5.698402
885.9409, 5.405075
886.4230, 4.918999
886.9052, 4.224503
887.3873, 3.601189
887.8694, 3.093613
888.3515, 2.743958
888.8336, 2.629021
889.3157, 2.769028
889.7979, 3.160400
890.2800, 4.288040
890.7621, 5.028938
891.2442, 4.688797
891.7263, 4.123428
892.2084, 4.230644
892.6906, 4.799370
893.1727, 4.934555
893.6548, 4.222763
894.1369, 3.400986
894.6190, 2.848457
895.1011, 2.539131
895.5833, 2.567108
896.0654, 2.800095
896.5475, 2.953621
897.0296, 2.931602
897.5117, 2.754593
897.9938, 2.361443
898.4760, 1.919655
898.9581, 1.950127
899.4402, 2.407608
899.9223, 2.801643
900.4044, 3.076027
900.8865, 2.989655
901.3687, 2.313263
901.8508, 1.337799
902.3329, 0.6561890
902.8150, 0.2369160
903.2971, 0.2837520
903.7792, 1.067543
904.2614, 1.858131
904.7435, 2.702049
905.2256, 3.244736
905.7077, 2.985817
906.1898, 2.083969
906.6719, 1.419518
907.1541, 1.259621
907.6362, 1.092850
908.1183, 0.5209580
908.6004, 0.1658250
909.0825, 0.6983110
909.5646, 1.681381
910.0468, 2.410446
910.5289, 2.684471
911.0110, 2.572502
911.4931, 1.597656
911.9752, 0.7150730
912.4573, 1.429672
912.9395, 2.879341
913.4216, 3.031067
913.9037, 1.821274
914.3858, 1.010376
914.8679, 1.713654
915.3500, 0.9491810
915.8321, 2.685440
916.3142, 1.284149
916.7963, 1.088913
917.2784, 2.242310
917.7606, 3.122055
918.2427, 3.163834
918.7248, 2.711746
919.2069, 2.041573
919.6890, 1.218544
920.1711, 0.7471390
920.6533, 0.7944950
921.1354, 0.7979890
921.6175, 0.7397310
922.0996, 0.5957110
922.5817, 0.1773300
923.0638, 0.2558520
923.5460, 0.2082370
924.0281, 0.4256970
924.5102, 0.6718140
924.9923, 6.3666999E-02
925.4744, 0.6247480
925.9565, 0.3820190
926.4387, 4.1855000E-02
926.9208, 2.1965001E-02
927.4029, 0.4263920
927.8850, 0.5122150
928.3671, 4.7501002E-02
928.8492, 0.4745560
929.3314, 0.1057590
929.8135, 0.8279650
930.2956, 0.5657120
930.7777, 0.2993470
931.2598, 0.8425370
931.7419, 0.8518980
932.2241, 0.6847150
932.7062, 0.6154100
933.1883, 0.5516820
933.6704, 0.1992570
934.1525, 0.3122410
934.6346, 0.2055820
935.1168, 0.5522310
935.5989, 0.6707760
936.0810, 0.5588910
936.5631, 1.826836
937.0452, 1.156242
937.5273, 1.278572
938.0095, 2.529198
938.4916, 2.370773
938.9737, 1.930344
939.4558, 1.282539
939.9379, 0.6490330
940.4200, 0.1356580
940.9022, 0.2337800
941.3843, 0.4030460
941.8664, 0.3708190
942.3485, 0.1412350
942.8306, 0.8443150
943.3127, 1.300720
943.7949, 0.3102110
944.2770, 0.8940580
944.7591, 1.169540
945.2412, 0.6531750
945.7233, 0.1423260
946.2054, 0.3467330
946.6876, 0.4639130
947.1697, 0.3821330
947.6518, 1.192886
948.1339, 1.152725
948.6160, 0.5987550
949.0981, 6.1912999E-02
949.5803, 0.3203660
950.0624, 0.5943530
950.5445, 0.6924900
951.0266, 0.8402860
951.5087, 1.457024
951.9908, 2.185051
952.4730, 2.323036
952.9551, 1.964699
953.4372, 1.669296
953.9193, 1.679703
954.4014, 2.000267
954.8835, 2.930550
955.3657, 4.022911
955.8478, 3.679794
956.3299, 2.148750
956.8120, 1.317429
957.2941, 1.560043
957.7762, 1.934639
958.2584, 1.806641
958.7405, 1.528030
959.2226, 1.867569
959.7047, 2.881256
960.1868, 3.653481
960.6689, 4.251884
961.1511, 4.270203
961.6332, 3.322258
962.1153, 2.327263
962.5974, 2.129204
963.0795, 2.568535
963.5616, 2.963448
964.0438, 3.428101
964.5259, 3.600677
965.0080, 3.093338
965.4901, 2.796173
965.9722, 3.166222
966.4543, 3.777649
966.9365, 4.295563
967.4186, 4.684792
967.9007, 4.765335
968.3828, 4.058350
968.8649, 3.709534
969.3470, 4.313484
969.8292, 5.000313
970.3113, 5.334854
970.7934, 5.318184
971.2755, 4.790024
971.7576, 3.808105
972.2397, 3.361084
972.7219, 4.477341
973.2040, 5.627571
973.6861, 5.844215
974.1682, 5.557144
974.6503, 5.046364
975.1324, 4.514969
975.6146, 4.366333
976.0967, 4.729027
976.5788, 5.051964
977.0609, 4.780273
977.5430, 4.246124
978.0251, 3.807144
978.5073, 3.503014
978.9894, 3.499619
979.4715, 3.751854
979.9536, 3.894455
980.4357, 3.722107
980.9178, 3.439911
981.4000, 3.496666
981.8821, 3.158203
982.3642, 3.438042
982.8463, 2.634129
983.3284, 1.961826
983.8105, 1.630001
984.2927, 1.580269
984.7748, 1.761261
985.2569, 2.043121
985.7390, 2.212399
986.2211, 2.306137
986.7032, 2.298801
987.1854, 2.166714
987.6675, 1.872986
988.1496, 1.406590
988.6317, 1.057449
989.1138, 1.060257
989.5959, 0.9671210
990.0781, 1.031765
990.5602, 1.330933
991.0423, 1.455334
991.5244, 2.012146
992.0065, 2.476803
992.4886, 2.729126
992.9708, 2.820004
993.4529, 2.744640
993.9350, 2.469059
994.4171, 2.049107
994.8992, 1.287613
995.3813, 1.033230
995.8635, 1.737690
996.3456, 2.299709
996.8277, 2.001507
997.3098, 1.433189
997.7919, 1.425049
998.2740, 1.968285
998.7562, 2.167202
999.2383, 1.590744
999.7204, 1.057171
1000.203, 0.6817930
1000.685, 0.5386660
1001.167, 0.8441890
1001.649, 1.315155
1002.131, 1.346115
1002.613, 0.9324070
1003.095, 0.8483240
1003.577, 1.897095
1004.059, 2.739208
1004.542, 2.235653
1005.024, 1.444321
1005.506, 1.611740
1005.988, 2.377956
1006.470, 2.564308
1006.952, 1.868095
1007.434, 1.289936
1007.916, 1.614967
1008.398, 2.261150
1008.881, 2.974331
1009.363, 3.469822
1009.845, 3.115425
1010.327, 2.138901
1010.809, 1.343464
1011.291, 1.052349
1011.773, 1.087112
1012.255, 1.391319
1012.738, 1.832180
1013.220, 2.454754
1013.702, 2.240131
1014.184, 3.184071
1014.666, 3.723770
1015.148, 3.880962
1015.630, 2.509514
1016.112, 3.112385
1016.594, 2.924271
1017.077, 2.703865
1017.559, 3.585091
1018.041, 2.436848
1018.523, 3.300938
1019.005, 3.361965
1019.487, 3.790775
1019.969, 3.423729
1020.451, 3.302708
1020.934, 3.978138
1021.416, 4.212837
1021.898, 3.754845
1022.380, 4.208199
1022.862, 3.034260
1023.344, 3.289200
1023.826, 4.160866
1024.308, 3.744804
1024.791, 4.214474
1025.273, 4.347054
1025.755, 2.947041
1026.237, 4.212833
1026.719, 4.326008
1027.201, 3.255695
1027.683, 4.430676
1028.165, 3.523899
1028.647, 3.360435
1029.130, 3.756371
1029.612, 3.569500
1030.094, 4.301994
1030.576, 4.149376
1031.058, 3.918365
1031.540, 4.033161
1032.022, 3.829834
1032.504, 4.121891
1032.986, 3.834270
1033.469, 4.163132
1033.951, 4.631889
1034.433, 4.031216
1034.915, 4.563091
1035.397, 3.339100
1035.879, 3.584652
1036.361, 3.672165
1036.843, 4.699062
1037.326, 3.117325
1037.808, 1.561798
1038.290, 1.726517
1038.772, 4.290237
1039.254, 5.506554
1039.736, 4.313660
1040.218, 3.456745
1040.700, 3.781906
1041.182, 4.260185
1041.665, 4.117931
1042.147, 3.629898
1042.629, 3.437672
1043.111, 3.599106
1043.593, 3.795849
1044.075, 4.071526
1044.557, 4.311886
1045.039, 4.545200
1045.521, 4.736130
1046.004, 4.744446
1046.486, 4.615120
1046.968, 4.339302
1047.450, 3.855896
1047.932, 3.583790
1048.414, 3.681030
1048.896, 3.837326
1049.378, 4.151966
1049.861, 4.325665
1050.343, 3.856354
1050.825, 3.190449
1051.307, 3.346783
1051.789, 4.570896
1052.271, 5.406509
1052.753, 5.530464
1053.235, 5.281525
1053.718, 4.315540
1054.200, 3.438488
1054.682, 3.220566
1055.164, 3.536201
1055.646, 4.278378
1056.128, 5.476768
1056.610, 6.004528
1057.092, 4.983627
1057.574, 4.025669
1058.057, 3.576687
1058.539, 3.511780
1059.021, 3.974976
1059.503, 4.654213
1059.985, 4.935207
1060.467, 4.740475
1060.949, 4.732521
1061.431, 5.522228
1061.913, 6.007343
1062.396, 5.542400
1062.878, 4.824394
1063.360, 4.350224
1063.842, 4.034023
1064.324, 3.560398
1064.806, 2.912960
1065.288, 2.694340
1065.770, 3.831512
1066.253, 4.506397
1066.735, 3.443508
1067.217, 2.155293
1067.699, 1.690628
1068.181, 1.849628
1068.663, 2.298462
1069.145, 2.923759
1069.627, 3.437595
1070.109, 3.743904
1070.592, 3.904369
1071.074, 3.951412
1071.556, 3.860542
1072.038, 3.481556
1072.520, 3.024956
1073.002, 2.817165
1073.484, 2.861412
1073.966, 2.843166
1074.448, 2.514057
1074.931, 2.401772
1075.413, 3.347725
1075.895, 3.986942
1076.377, 2.859020
1076.859, 1.103447
1077.341, 0.2058300
1077.823, 0.2748450
1078.305, 0.7431640
1078.788, 1.583309
1079.270, 2.265892
1079.752, 2.499741
1080.234, 2.584927
1080.716, 2.625027
1081.198, 2.629131
1081.680, 2.644417
1082.162, 2.700077
1082.644, 2.688713
1083.127, 2.546082
1083.609, 2.492558
1084.091, 2.798363
1084.573, 3.023071
1085.055, 2.778179
1085.537, 2.407642
1086.019, 2.336411
1086.501, 2.461437
1086.984, 2.327312
1087.466, 1.763653
1087.948, 1.615517
1088.430, 2.905495
1088.912, 3.780766
1089.394, 2.695686
1089.876, 1.328140
1090.358, 1.299438
1090.840, 2.178631
1091.323, 2.817787
1091.805, 2.982578
1092.287, 3.306122
1092.769, 4.644142
1093.251, 5.361397
1093.733, 4.033665
1094.215, 2.547009
1094.697, 2.740253
1095.179, 3.640236
1095.662, 3.369286
1096.144, 1.838985
1096.626, 1.011593
1097.108, 2.140751
1097.590, 3.048737
1098.072, 3.007782
1098.554, 2.593811
1099.036, 1.844425
1099.519, 0.9974210
1100.001, 0.4840200
1100.483, 0.3446350
1100.965, 0.4400410
1101.447, 1.059795
1101.929, 1.208679
1102.411, 0.1989630
1102.893, 1.169193
1103.375, 0.3823360
1103.858, 1.031734
1104.340, 2.258968
1104.822, 3.067799
1105.304, 2.911198
1105.786, 1.295601
1106.268, 0.1332740
1106.750, 0.1175080
1107.232, 1.4534000E-02
1107.714, 0.4966010
1108.197, 1.069763
1108.679, 1.530869
1109.161, 1.818069
1109.643, 1.731091
1110.125, 1.137669
1110.607, 1.001137
1111.089, 1.892612
1111.571, 2.551781
1112.054, 2.790001
1112.536, 2.686436
1113.018, 1.935883
1113.500, 1.048935
1113.982, 0.9497150
1114.464, 1.663574
1114.946, 1.868965
1115.428, 1.197884
1115.911, 0.6349300
1116.393, 5.3642001E-02
1116.875, 0.2566680
1117.357, 0.7334020
1117.839, 1.887379
1118.321, 2.002468
1118.803, 1.280437
1119.285, 0.9301030
1119.767, 1.226078
1120.250, 1.190002
1120.732, 0.6081350
1121.214, 0.1190300
1121.696, 0.1574210
1122.178, 0.1626780
1122.660, 0.2549590
1123.142, 0.4775611
1123.624, 0.7000647
1124.106, 1.106617
1124.589, 1.227356
1125.071, 1.714439
1125.553, 1.767345
1126.035, 0.9546970
1126.517, 0.6346820
1126.999, 1.857037
1127.481, 3.465652
1127.963, 3.555706
1128.446, 2.282944
1128.928, 1.452774
1129.410, 1.104485
1129.892, 0.8085860
1130.374, 0.5098230
1130.856, 0.3331760
1131.338, 0.3279040
1131.820, 0.5272520
1132.302, 1.044689
1132.785, 1.646736
1133.267, 1.353653
1133.749, 1.783825
1134.231, 2.115910
1134.713, 1.743359
1135.195, 1.754086
1135.677, 1.919807
1136.159, 1.034565
1136.641, 0.3243680
1137.124, 0.2222060
1137.606, 0.7428630
1138.088, 1.108368
1138.570, 0.6635590
1139.052, 0.4090960
1139.534, 1.306011
1140.016, 1.882912
1140.498, 2.208603
1140.981, 2.317986
1141.463, 2.196579
1141.945, 1.679150
1142.427, 1.108036
1142.909, 1.191212
1143.391, 1.631561
1143.873, 1.989639
1144.355, 2.080082
1144.838, 2.144486
1145.320, 0.4645500
1145.802, 1.606079
1146.284, 1.051670
1146.766, 1.6098000E-02
1147.248, 0.3408970
1147.730, 0.4276730
1148.212, 0.7163390
1148.694, 1.106586
1149.177, 1.367283
1149.659, 1.496742
1150.141, 1.502739
1150.623, 1.431353
1151.105, 1.201966
1151.587, 0.7976800
1152.069, 0.4843790
1152.551, 0.3320620
1153.033, 0.3782880
1153.516, 0.9334640
1153.998, 1.247002
1154.480, 1.375648
1154.962, 1.322590
1155.444, 0.9735370
1155.926, 0.3231890
1156.408, 0.9900670
1156.890, 6.0150001E-02
1157.373, 1.170521
1157.855, 1.418098
1158.337, 1.200592
1158.819, 0.7761960
1159.301, 0.3274880
1159.783, 0.6315840
1160.265, 2.455738
1160.747, 3.061939
1161.229, 1.267902
1161.712, 0.1221730
1162.194, 0.4641610
1162.676, 0.2608910
1163.158, 0.3828740
1163.640, 1.193489
1164.122, 1.691879
1164.604, 1.876175
1165.086, 1.777981
1165.568, 1.116634
1166.051, 1.096947
1166.533, 2.109318
1167.015, 2.938042
1167.497, 3.072617
1167.979, 2.812702
1168.461, 2.402874
1168.943, 1.955711
1169.425, 1.898449
1169.908, 1.716717
1170.390, 1.713409
1170.872, 1.856712
1171.354, 1.834579
1171.836, 2.396236
1172.318, 2.520550
1172.800, 1.521992
1173.282, 0.4958000
1173.765, 1.224770
1174.247, 2.925495
1174.729, 3.157562
1175.211, 2.361977
1175.693, 1.954056
1176.175, 2.048500
1176.657, 2.418732
1177.139, 2.938164
1177.621, 3.240814
1178.104, 2.987049
1178.586, 2.649872
1179.068, 2.926315
1179.550, 3.348698
1180.032, 3.295712
1180.514, 2.920498
1180.996, 2.343403
1181.478, 1.756496
1181.960, 1.677048
1182.443, 2.310165
1182.925, 2.959167
1183.407, 3.212448
1183.889, 3.359791
1184.371, 3.768440
1184.853, 3.967461
1185.335, 3.198235
1185.817, 2.114216
1186.300, 1.794590
1186.782, 2.302364
1187.264, 2.963768
1187.746, 3.868469
1188.228, 4.434437
1188.710, 4.661545
1189.192, 4.399429
1189.674, 2.885601
1190.156, 1.550751
1190.639, 1.814327
1191.121, 2.909576
1191.603, 3.088043
1192.085, 2.225388
1192.567, 2.179192
1193.049, 3.486496
1193.531, 3.964870
1194.013, 3.031628
1194.495, 2.355576
1194.978, 2.710289
1195.460, 3.281876
1195.942, 3.261543
1196.424, 2.863804
1196.906, 2.563049
1197.388, 2.310314
1197.870, 2.164509
1198.352, 2.121029
1198.835, 1.997765
1199.317, 1.775318
1199.799, 1.792934
1200.281, 2.234848
1200.763, 2.583370
1201.245, 2.077541
1201.727, 1.317024
1202.209, 1.418167
1202.692, 2.075554
1203.174, 2.932755
1203.656, 3.627846
1204.138, 3.269882
1204.620, 1.957714
1205.102, 1.201782
1205.584, 1.864040
1206.066, 2.779266
1206.548, 3.300076
1207.031, 3.514915
1207.513, 3.308823
1207.995, 2.984676
1208.477, 2.904842
1208.959, 2.924217
1209.441, 2.702938
1209.923, 2.151623
1210.405, 1.677937
1210.887, 1.453392
1211.370, 1.215534
1211.852, 0.5747830
1212.334, 0.3487890
1212.816, 1.279507
1213.298, 2.366474
1213.780, 2.772358
1214.262, 2.668003
1214.744, 2.576584
1215.227, 2.459572
1215.709, 2.238503
1216.191, 1.913269
1216.673, 1.343784
1217.155, 0.3261110
1217.637, 0.1877250
1218.119, 1.685143
1218.601, 3.046009
1219.083, 2.339233
1219.566, 0.5383950
1220.048, 0.1197090
1220.530, 0.8194200
1221.012, 1.415237
1221.494, 1.816692
1221.976, 1.831257
1222.458, 1.510571
1222.940, 1.323196
1223.422, 1.414600
1223.905, 1.426895
1224.387, 0.8352810
1224.869, 0.3318410
1225.351, 1.102501
1225.833, 0.4759931
1226.315, 1.425941
1226.797, 0.1382790
1227.279, 0.4452480
1227.762, 0.1958270
1228.244, 0.4310150
1228.726, 1.402252
1229.208, 2.186985
1229.690, 2.585587
1230.172, 2.728981
1230.654, 2.481075
1231.136, 2.233109
1231.619, 2.367077
1232.101, 2.573639
1232.583, 2.275257
1233.065, 1.633808
1233.547, 1.789967
1234.029, 3.265224
1234.511, 3.685478
1234.993, 2.737289
1235.475, 1.904678
1235.958, 1.503700
1236.440, 1.392616
1236.922, 1.531208
1237.404, 1.715359
1237.886, 1.631714
1238.368, 1.437725
1238.850, 1.821579
1239.332, 1.501217
1239.814, 2.324120
1240.297, 1.418507
1240.779, 1.091377
1241.261, 1.541672
1241.743, 2.044701
1242.225, 2.230907
1242.707, 2.239723
1243.189, 2.081734
1243.671, 1.931477
1244.154, 2.015060
1244.636, 2.112164
1245.118, 1.759674
1245.600, 1.360645
1246.082, 1.855122
1246.564, 3.104568
1247.046, 3.631992
1247.528, 2.819710
1248.010, 2.122402
1248.493, 1.671055
1248.975, 1.523308
1249.457, 1.823544
1249.939, 2.277649
1250.421, 2.863846
1250.903, 3.272884
1251.385, 3.013851
1251.867, 2.226173
1252.349, 1.801945
1252.832, 1.796848
1253.314, 1.553459
1253.796, 1.079472
1254.278, 0.7835430
1254.760, 0.7587050
1255.242, 1.139874
1255.724, 1.998222
1256.206, 2.741531
1256.689, 2.543732
1257.171, 1.874249
1257.653, 1.831387
1258.135, 2.067490
1258.617, 2.272015
1259.099, 2.326817
1259.581, 1.963287
1260.063, 1.275661
1260.546, 0.7137870
1261.028, 0.4198150
1261.510, 0.4046970
1261.992, 0.8809780
1262.474, 1.343727
1262.956, 1.605907
1263.438, 1.776657
1263.920, 2.106384
1264.402, 2.238342
1264.885, 1.483353
1265.367, 0.2147060
1265.849, 0.1795880
1266.331, 0.4801940
1266.813, 0.8109020
1267.295, 0.6948360
1267.777, 0.8476370
1268.259, 1.413063
1268.741, 1.983116
1269.224, 2.388584
1269.706, 2.680218
1270.188, 2.917534
1270.670, 3.009689
1271.152, 2.664242
1271.634, 2.895500
1272.116, 2.297638
1272.598, 2.767883
1273.081, 2.659565
1273.563, 2.128181
1274.045, 2.065239
1274.527, 2.717800
1275.009, 3.311089
1275.491, 3.505882
1275.973, 3.445679
1276.455, 3.042629
1276.938, 2.646919
1277.420, 2.145168
1277.902, 1.800232
1278.384, 2.177933
1278.866, 1.404516
1279.348, 2.129150
1279.830, 0.4925960
1280.312, 0.2721250
1280.794, 6.3160002E-02
1281.276, 0.3865850
1281.759, 0.6527710
1282.241, 0.9612920
1282.723, 1.339336
1283.205, 1.731659
1283.687, 1.378967
1284.169, 1.447762
1284.651, 1.248341
1285.133, 0.8198510
1285.616, 0.3981480
1286.098, 0.0000000E+00
##END=



