##NAMES=Pseudomalachite
##RRUFFID=R050264
##IDEAL CHEMISTRY=Cu^2+^_5_(P^5+^O_4_)_2_(OH)_4_
##LOCALITY=Cerro Morita, 27 km southwest of Agua Prieta, Sonora, Mexico
##OWNER=RRUFF
##SOURCE=Marcus Origlieri
##DESCRIPTION=Blue powdery crust
##STATUS=The identification of this mineral has been confirmed by X-ray diffraction and chemical analysis
##URL=rruff.info/R050264
##MEASURED CHEMISTRY=(Cu_4.91_Al_0.04_[box]_0.03_Ca_0.02_)_Σ=5_((P_1.98_S_0.02_)_Σ=1_O_4_)_2_(OH)_4_ ; = light phase
112.4127, 0.0000000E+00
112.8948, 0.5176390
113.3769, 1.084061
113.8591, 1.255478
114.3412, 0.6038440
114.8233, 0.1516650
115.3054, 6.8191998E-02
115.7875, 0.1371000
116.2696, 0.2645490
116.7517, 0.3736950
117.2339, 0.5127940
117.7160, 0.9731670
118.1981, 1.156418
118.6802, 1.222786
119.1623, 1.072472
119.6444, 0.8166960
120.1266, 0.6338500
120.6087, 0.7437590
121.0908, 0.9719090
121.5729, 0.9204250
122.0550, 0.3985370
122.5371, 0.1035610
123.0193, 8.6037003E-02
123.5014, 0.5136030
123.9835, 1.113533
124.4656, 1.561768
124.9477, 1.858292
125.4298, 1.873878
125.9120, 1.460785
126.3941, 0.8752670
126.8762, 0.7714000
127.3583, 1.541115
127.8404, 2.217339
128.3225, 2.489174
128.8047, 2.523972
129.2868, 2.581894
129.7689, 2.749603
130.2510, 2.967407
130.7331, 3.055641
131.2152, 2.911057
131.6974, 2.724998
132.1795, 2.569870
132.6616, 2.472649
133.1437, 2.343170
133.6258, 2.119293
134.1079, 1.789505
134.5901, 1.623810
135.0722, 1.761520
135.5543, 1.888985
136.0364, 1.816826
136.5185, 1.554527
137.0006, 1.253098
137.4828, 1.042992
137.9649, 0.9578320
138.4470, 0.8857570
138.9291, 0.7623210
139.4112, 0.6327440
139.8933, 0.6027680
140.3755, 0.7343060
140.8576, 0.9133220
141.3397, 0.9918370
141.8218, 0.9747090
142.3039, 0.9179920
142.7860, 0.7716450
143.2681, 0.5475540
143.7503, 0.3543170
144.2324, 0.2303620
144.7145, 0.1387180
145.1966, 3.6628999E-02
145.6787, 6.6307001E-02
146.1608, 0.1364970
146.6430, 0.1502530
147.1251, 0.1019210
147.6072, 3.9200000E-02
148.0893, 2.7061000E-02
148.5714, 1.0530000E-03
149.0535, 9.1805004E-02
149.5357, 0.2565770
150.0178, 0.4681170
150.4999, 0.7316510
150.9820, 1.197624
151.4641, 1.362465
151.9462, 0.9556500
152.4284, 0.4313430
152.9105, 0.1495590
153.3926, 0.2484660
153.8747, 0.5797960
154.3568, 0.7793050
154.8389, 0.7338330
155.3211, 0.6777570
155.8032, 0.5409320
156.2853, 0.4252010
156.7674, 0.4984440
157.2495, 0.8600690
157.7316, 1.393555
158.2138, 1.584785
158.6959, 1.206657
159.1780, 0.7991940
159.6601, 0.4391710
160.1422, 0.1413350
160.6243, 5.6435000E-02
161.1065, 0.1250610
161.5886, 8.8004999E-02
162.0707, 5.5144999E-02
162.5528, 1.9424001E-02
163.0349, 8.7050004E-03
163.5170, 5.8209999E-03
163.9991, 2.2926001E-02
164.4813, 3.3844002E-02
164.9634, 2.8740000E-02
165.4455, 9.8949997E-03
165.9276, 0.1708910
166.4097, 0.5953830
166.8918, 1.047241
167.3740, 1.238159
167.8561, 1.125549
168.3382, 0.9518130
168.8203, 0.7649920
169.3024, 0.6242070
169.7845, 0.6420590
170.2667, 1.025055
170.7488, 1.519890
171.2309, 1.550278
171.7130, 0.7655870
172.1951, 0.1585850
172.6772, 0.1909710
173.1594, 0.5970760
173.6415, 1.020653
174.1236, 1.276840
174.6057, 1.377235
175.0878, 1.372559
175.5699, 1.080322
176.0521, 0.8894120
176.5342, 0.9882510
177.0163, 1.255836
177.4984, 1.476944
177.9805, 1.494377
178.4626, 1.301498
178.9448, 1.123985
179.4269, 0.8434830
179.9090, 0.7014010
180.3911, 0.9163210
180.8732, 1.364334
181.3553, 1.694672
181.8375, 1.547356
182.3196, 0.8310550
182.8017, 0.5323490
183.2838, 0.9358220
183.7659, 1.400734
184.2480, 1.641373
184.7301, 1.644279
185.2123, 1.520340
185.6944, 1.342567
186.1765, 1.097565
186.6586, 0.9590380
187.1407, 0.9894560
187.6228, 1.077431
188.1050, 1.142662
188.5871, 1.176994
189.0692, 1.228012
189.5513, 1.393456
190.0334, 1.660126
190.5155, 1.718819
190.9977, 1.337463
191.4798, 0.8239210
191.9619, 0.5358960
192.4440, 0.5367430
192.9261, 0.6379550
193.4082, 0.6710130
193.8904, 0.6585920
194.3725, 0.6680070
194.8546, 0.7388000
195.3367, 0.8443680
195.8188, 0.9365460
196.3009, 1.018082
196.7831, 1.068039
197.2652, 1.080849
197.7473, 1.057487
198.2294, 0.9915010
198.7115, 0.8291020
199.1936, 0.6062010
199.6758, 0.4868010
200.1579, 0.5029220
200.6400, 0.5960770
201.1221, 0.7509920
201.6042, 0.9440840
202.0863, 1.134407
202.5685, 1.297447
203.0506, 1.433998
203.5327, 1.563179
204.0148, 1.692322
204.4969, 1.813171
204.9790, 1.945251
205.4612, 2.070511
205.9433, 2.151596
206.4254, 2.179794
206.9075, 2.163132
207.3896, 1.995087
207.8717, 1.380501
208.3539, 0.8731540
208.8360, 0.6657490
209.3181, 0.7259520
209.8002, 0.9309540
210.2823, 1.202278
210.7644, 1.567421
211.2466, 1.743965
211.7287, 1.625252
212.2108, 1.441750
212.6929, 1.206001
213.1750, 0.9703600
213.6571, 0.8499530
214.1393, 0.9793780
214.6214, 1.427696
215.1035, 1.569443
215.5856, 1.228958
216.0677, 0.8150710
216.5498, 0.3740540
217.0320, 4.8290002E-03
217.5141, 8.1978001E-02
217.9962, 0.4176940
218.4783, 1.588448
218.9604, 2.477249
219.4425, 3.212456
219.9247, 3.622681
220.4068, 3.459122
220.8889, 2.779823
221.3710, 2.002274
221.8531, 1.454781
222.3352, 1.167641
222.8174, 0.9952160
223.2995, 1.066002
223.7816, 1.160576
224.2637, 1.085793
224.7458, 0.8354720
225.2279, 0.5852510
225.7100, 0.4684450
226.1922, 0.4839630
226.6743, 0.5437770
227.1564, 0.7304460
227.6385, 0.9062500
228.1206, 0.8598480
228.6027, 0.5717320
229.0849, 0.4244920
229.5670, 0.8909230
230.0491, 1.709457
230.5312, 2.160614
231.0133, 1.866234
231.4954, 1.297554
231.9776, 0.9652710
232.4597, 0.8882520
232.9418, 0.9132770
233.4239, 1.093010
233.9060, 1.284309
234.3881, 1.218872
234.8703, 0.5790790
235.3524, 0.1336900
235.8345, 0.1495060
236.3166, 0.6961590
236.7987, 1.554146
237.2808, 2.066322
237.7630, 2.343651
238.2451, 2.435112
238.7272, 2.257263
239.2093, 1.932251
239.6914, 1.616539
240.1735, 1.270607
240.6557, 1.052612
241.1378, 1.156082
241.6199, 1.359810
242.1020, 1.414665
242.5841, 1.192146
243.0662, 0.9268260
243.5484, 1.097908
244.0305, 1.947075
244.5126, 2.567780
244.9947, 2.583321
245.4768, 2.351852
245.9589, 2.143578
246.4410, 2.047562
246.9232, 2.031944
247.4053, 2.055519
247.8874, 2.174095
248.3695, 2.199493
248.8516, 2.117035
249.3337, 1.930969
249.8159, 1.577431
250.2980, 1.047935
250.7801, 0.5149150
251.2622, 0.2944950
251.7443, 0.5744480
252.2264, 0.7472380
252.7086, 0.6956100
253.1907, 0.5764690
253.6728, 0.4916000
254.1549, 0.4693300
254.6370, 0.4821470
255.1191, 0.4896390
255.6013, 0.4901960
256.0834, 0.4875410
256.5655, 0.5268630
257.0476, 0.5331340
257.5297, 0.3956760
258.0118, 0.1263500
258.4940, 0.1076200
258.9761, 5.0919000E-02
259.4582, 0.5007630
259.9403, 0.8246460
260.4224, 0.8773730
260.9045, 0.7924270
261.3867, 0.5635450
261.8688, 0.2396010
262.3509, 1.8188000E-02
262.8330, 1.1400000E-04
263.3151, 0.4304280
263.7972, 0.6355510
264.2794, 0.4137880
264.7615, 0.1812820
265.2436, 0.2025150
265.7257, 0.4592210
266.2078, 0.7349240
266.6899, 0.8050540
267.1721, 0.6125030
267.6542, 0.5969090
268.1363, 0.9951930
268.6184, 1.318687
269.1005, 1.281197
269.5826, 0.9327770
270.0648, 0.5053180
270.5469, 0.1641310
271.0290, 9.2026003E-02
271.5111, 0.1359940
271.9932, 0.2212910
272.4753, 0.5584340
272.9575, 0.6670990
273.4396, 0.6124340
273.9217, 0.5508420
274.4038, 0.6108250
274.8859, 0.7806850
275.3680, 0.8791660
275.8501, 0.9133000
276.3322, 0.9065400
276.8144, 0.7872160
277.2965, 0.6251140
277.7786, 0.5817340
278.2607, 0.7681580
278.7428, 1.105896
279.2249, 1.248932
279.7071, 1.136581
280.1892, 0.9483410
280.6713, 0.5927120
281.1534, 0.2063830
281.6355, 7.6935001E-02
282.1176, 0.3598630
282.5998, 0.8657460
283.0819, 1.094872
283.5640, 0.9340210
284.0461, 0.7682040
284.5282, 0.6944430
285.0103, 0.6583330
285.4925, 0.5452960
285.9746, 0.3016200
286.4567, 6.5505996E-02
286.9388, 0.1149520
287.4209, 0.5730670
287.9030, 0.8959270
288.3852, 0.9169010
288.8673, 0.8010560
289.3494, 0.7496570
289.8315, 0.8137590
290.3136, 0.9008940
290.7957, 0.9115140
291.2779, 0.8365400
291.7600, 0.7561490
292.2421, 0.6586840
292.7242, 0.5696870
293.2063, 0.5927050
293.6884, 0.7504120
294.1706, 0.8149340
294.6527, 0.4601440
295.1348, 0.3066640
295.6169, 0.6574860
296.0990, 0.2244190
296.5811, 0.3890610
297.0633, 0.7491380
297.5454, 0.8401870
298.0275, 0.8050160
298.5096, 0.7084350
298.9917, 0.5633390
299.4738, 0.4572980
299.9560, 0.3624500
300.4381, 0.3308560
300.9202, 0.4503330
301.4023, 0.6812900
301.8844, 0.8460240
302.3665, 0.8483510
302.8487, 0.7186660
303.3308, 0.5440440
303.8129, 0.1608120
304.2950, 1.3695000E-02
304.7771, 0.3979490
305.2592, 1.173920
305.7414, 1.748375
306.2235, 1.911400
306.7056, 1.766899
307.1877, 1.448593
307.6698, 0.8901750
308.1519, 0.4443590
308.6341, 0.2637020
309.1162, 0.2609860
309.5983, 0.3170850
310.0804, 0.4147490
310.5625, 0.5042720
311.0446, 0.5001220
311.5268, 0.3988340
312.0089, 0.3313600
312.4910, 0.2604220
312.9731, 0.2655490
313.4552, 0.5269010
313.9373, 1.082535
314.4195, 1.578552
314.9016, 1.644508
315.3837, 1.302216
315.8658, 1.025909
316.3479, 0.9032750
316.8300, 0.8261340
317.3121, 0.6543270
317.7943, 0.3759990
318.2764, 0.2655560
318.7585, 0.6234050
319.2406, 1.298386
319.7227, 1.571785
320.2048, 1.096878
320.6870, 0.5828860
321.1691, 0.4641570
321.6512, 0.6422580
322.1333, 0.7807010
322.6154, 0.6932600
323.0975, 0.4465640
323.5797, 0.2736890
324.0618, 0.1732710
324.5439, 0.1254350
325.0260, 0.1202770
325.5081, 0.1630330
325.9902, 0.2811200
326.4724, 0.4884260
326.9545, 0.7271350
327.4366, 0.9163280
327.9187, 1.066238
328.4008, 1.138107
328.8829, 1.132439
329.3651, 1.025993
329.8472, 0.7378690
330.3293, 0.2460020
330.8114, 0.1336360
331.2935, 7.5840000E-03
331.7756, 0.7193450
332.2578, 1.055565
332.7399, 0.5863570
333.2220, 3.4538001E-02
333.7041, 2.7465999E-02
334.1862, 0.3748090
334.6683, 0.8295900
335.1505, 1.074753
335.6326, 1.120972
336.1147, 1.102722
336.5968, 1.000267
337.0789, 0.8634950
337.5610, 0.6748430
338.0432, 0.4663850
338.5253, 0.3216320
339.0074, 0.2853930
339.4895, 0.3213960
339.9716, 0.3240660
340.4537, 0.2227940
340.9359, 0.1926270
341.4180, 0.3435520
341.9001, 0.5641100
342.3822, 0.7286000
342.8643, 0.8010560
343.3464, 0.7717740
343.8286, 0.6000060
344.3107, 0.1774520
344.7928, 5.0712999E-02
345.2749, 0.1044770
345.7570, 0.3278270
346.2391, 0.3417740
346.7213, 0.1473690
347.2034, 2.0714000E-02
347.6855, 7.6935001E-02
348.1676, 0.4629290
348.6497, 0.5889130
349.1318, 0.1471250
349.6140, 0.2066270
350.0961, 8.3503999E-02
350.5782, 0.3527680
351.0603, 0.6785130
351.5424, 0.6289060
352.0245, 0.3185040
352.5067, 0.2423020
352.9888, 0.5899120
353.4709, 0.8883900
353.9530, 1.133514
354.4351, 1.339310
354.9172, 1.531723
355.3994, 1.726563
355.8815, 1.871117
356.3636, 1.866066
356.8457, 1.595032
357.3278, 1.405289
357.8099, 1.319794
358.2920, 1.288345
358.7741, 1.331131
359.2563, 1.415939
359.7384, 1.420532
360.2205, 1.194473
360.7026, 0.6881940
361.1847, 0.4386830
361.6668, 0.6039580
362.1490, 0.8402560
362.6311, 1.138695
363.1132, 1.419258
363.5953, 1.530052
364.0774, 1.360435
364.5595, 1.009010
365.0417, 0.9118270
365.5238, 1.433144
366.0059, 1.704422
366.4880, 1.379227
366.9701, 0.9000700
367.4522, 0.7302630
367.9344, 1.013611
368.4165, 1.445038
368.8986, 1.524521
369.3807, 1.076599
369.8628, 0.7526630
370.3449, 0.6427230
370.8271, 0.5952990
371.3092, 0.5404130
371.7913, 0.4732670
372.2734, 0.4240190
372.7555, 0.4449840
373.2376, 0.5309520
373.7198, 0.4707180
374.2019, 2.5901999E-02
374.6840, 0.2639160
375.1661, 0.1262280
375.6482, 0.2501220
376.1303, 0.5760420
376.6125, 0.7122880
377.0946, 0.7212070
377.5767, 0.7643660
378.0588, 0.9091260
378.5409, 0.8910680
379.0230, 0.3179930
379.5052, 0.2429580
379.9873, 0.2674870
380.4694, 0.3335880
380.9515, 1.018845
381.4336, 1.216034
381.9157, 0.9345860
382.3979, 0.6249240
382.8800, 0.2387920
383.3621, 2.9144000E-02
383.8442, 2.6329000E-02
384.3263, 0.3152470
384.8084, 0.5135570
385.2906, 0.3324580
385.7727, 4.0702999E-02
386.2548, 0.1610720
386.7369, 2.5970001E-02
387.2190, 0.2711640
387.7011, 0.4632720
388.1833, 0.6179200
388.6654, 0.7431180
389.1475, 0.8644180
389.6296, 0.9681170
390.1117, 1.088898
390.5938, 1.208107
391.0760, 1.141502
391.5581, 0.7207790
392.0402, 0.2301940
392.5223, 7.9750001E-02
393.0044, 0.2922360
393.4865, 0.4673160
393.9687, 0.3958280
394.4508, 0.2076640
394.9329, 0.1250530
395.4150, 0.1877820
395.8971, 0.2529300
396.3792, 0.1679150
396.8614, 4.7401000E-02
397.3435, 0.1532820
397.8256, 0.1007390
398.3077, 2.7718000E-02
398.7898, 0.2369080
399.2719, 0.4891820
399.7540, 0.6552960
400.2361, 0.6626050
400.7183, 0.5546040
401.2004, 0.4480900
401.6825, 0.3036420
402.1646, 0.2260280
402.6467, 0.2893450
403.1288, 0.4072650
403.6110, 0.4645390
404.0931, 0.4351120
404.5752, 0.3464130
405.0573, 0.2080990
405.5394, 4.9060001E-03
406.0215, 6.2637001E-02
406.5037, 0.2137530
406.9858, 0.4543760
407.4679, 0.3942030
407.9500, 0.1518330
408.4321, 6.3629998E-03
408.9142, 0.1349870
409.3964, 0.4547270
409.8785, 0.5818020
410.3606, 0.3180850
410.8427, 0.1066890
411.3248, 5.2177001E-02
411.8069, 0.1252060
412.2891, 3.9574001E-02
412.7712, 0.2048030
413.2533, 0.4765550
413.7354, 0.5804980
414.2175, 0.4494480
414.6996, 0.4216690
415.1818, 0.5838470
415.6639, 0.7722240
416.1460, 0.9925770
416.6281, 1.190872
417.1102, 1.241905
417.5923, 1.018448
418.0745, 0.6346280
418.5566, 0.5142140
419.0387, 0.8242950
419.5208, 1.027557
420.0029, 0.8412250
420.4850, 0.5435560
420.9672, 0.3976060
421.4493, 0.4687960
421.9314, 0.6033860
422.4135, 0.6788020
422.8956, 0.6930470
423.3777, 0.5738140
423.8599, 0.1336290
424.3420, 0.1890410
424.8241, 5.1314998E-02
425.3062, 0.7026210
425.7883, 1.212418
426.2704, 1.279297
426.7526, 1.104736
427.2347, 0.9559940
427.7168, 0.8328020
428.1989, 0.7605900
428.6810, 0.7940140
429.1631, 0.8673860
429.6453, 0.8178940
430.1274, 0.5478440
430.6095, 0.3755950
431.0916, 0.5523680
431.5737, 0.9238510
432.0558, 1.189377
432.5380, 1.257294
433.0201, 1.215065
433.5022, 1.088211
433.9843, 0.8409580
434.4664, 0.7768480
434.9485, 1.248070
435.4307, 1.613701
435.9128, 1.256409
436.3949, 0.3803100
436.8770, 0.2728040
437.3591, 0.2710110
437.8412, 0.2418060
438.3234, 0.6890110
438.8055, 1.018623
439.2876, 1.308388
439.7697, 1.596001
440.2518, 1.827293
440.7339, 1.933136
441.2160, 1.905434
441.6982, 1.817467
442.1803, 1.747688
442.6624, 1.707619
443.1445, 1.597191
443.6266, 1.211464
444.1087, 0.9595790
444.5909, 1.115364
445.0730, 1.474800
445.5551, 1.705307
446.0372, 1.626274
446.5193, 1.376564
447.0014, 1.257492
447.4836, 1.294983
447.9657, 1.387138
448.4478, 1.668037
448.9299, 1.885506
449.4120, 1.808784
449.8941, 1.458191
450.3763, 1.130981
450.8584, 1.067451
451.3405, 1.217384
451.8226, 1.396523
452.3047, 1.643204
452.7868, 1.811737
453.2690, 1.731133
453.7511, 1.537010
454.2332, 1.428070
454.7153, 1.487465
455.1974, 1.548187
455.6795, 1.406548
456.1617, 1.138138
456.6438, 1.095650
457.1259, 1.456978
457.6080, 1.915077
458.0901, 2.070198
458.5722, 1.936638
459.0544, 1.706032
459.5365, 1.186653
460.0186, 0.7472610
460.5007, 0.8116760
460.9828, 1.311241
461.4649, 1.788185
461.9471, 1.970505
462.4292, 1.909790
462.9113, 1.817024
463.3934, 1.664757
463.8755, 1.516075
464.3576, 1.370361
464.8398, 1.238800
465.3219, 1.117409
465.8040, 1.013557
466.2861, 0.9721680
466.7682, 1.044960
467.2503, 1.239571
467.7325, 1.476128
468.2146, 1.955582
468.6967, 2.257843
469.1788, 2.090454
469.6609, 1.716797
470.1430, 1.556259
470.6252, 1.793488
471.1073, 2.213913
471.5894, 2.428413
472.0715, 2.377525
472.5536, 2.384903
473.0357, 2.604584
473.5179, 2.819687
474.0000, 2.870232
474.4821, 2.761536
474.9642, 2.592026
475.4463, 2.366737
475.9284, 2.131287
476.4106, 1.989563
476.8927, 1.952362
477.3748, 1.946457
477.8569, 1.951653
478.3390, 1.961655
478.8211, 1.958000
479.3033, 1.925217
479.7854, 1.931808
480.2675, 2.077301
480.7496, 2.268585
481.2317, 2.309395
481.7138, 2.159439
482.1959, 1.987823
482.6780, 1.990891
483.1602, 2.153206
483.6423, 2.140259
484.1244, 1.767677
484.6065, 1.431221
485.0886, 1.332771
485.5707, 1.370018
486.0529, 1.353378
486.5350, 1.212189
487.0171, 1.022537
487.4992, 0.9229970
487.9813, 0.9884490
488.4634, 0.9523620
488.9456, 0.6458280
489.4277, 0.3943020
489.9098, 0.4048840
490.3919, 0.6092150
490.8740, 0.8366240
491.3561, 0.9922790
491.8383, 1.084946
492.3204, 1.127754
492.8025, 1.123421
493.2846, 1.071083
493.7667, 0.8806300
494.2488, 0.7077710
494.7310, 0.7080760
495.2131, 0.8853450
495.6952, 1.001617
496.1773, 0.7153320
496.6594, 0.2108990
497.1415, 3.6224000E-02
497.6237, 0.2634580
498.1058, 0.5417180
498.5879, 0.7401810
499.0700, 0.8408130
499.5521, 0.7970200
500.0342, 0.5218660
500.5164, 0.3096390
500.9985, 0.3318410
501.4806, 0.5071870
501.9627, 0.7252730
502.4448, 0.9650190
502.9269, 1.139069
503.4091, 1.130798
503.8912, 0.9312740
504.3733, 0.9259110
504.8554, 1.501282
505.3375, 1.819061
505.8196, 1.294518
506.3018, 0.4069140
506.7839, 7.2486997E-02
507.2660, 0.1235730
507.7481, 0.6108700
508.2302, 0.7944790
508.7123, 0.5530850
509.1945, 0.4489970
509.6766, 0.6138840
510.1587, 0.7849200
510.6408, 0.9152910
511.1229, 0.9712520
511.6050, 0.8639070
512.0872, 0.5001680
512.5693, 0.1136020
513.0514, 0.2240070
513.5335, 0.9296570
514.0156, 1.365707
514.4977, 1.178055
514.9799, 0.8220290
515.4620, 0.6828920
515.9441, 0.7497860
516.4262, 0.8172990
516.9083, 0.7755360
517.3904, 0.6717910
517.8726, 0.5584950
518.3547, 0.4558940
518.8368, 0.3848650
519.3189, 0.3432010
519.8010, 0.3494800
520.2831, 0.4801180
520.7653, 0.8203890
521.2474, 1.015938
521.7295, 0.8310700
522.2116, 0.6000900
522.6937, 0.6813660
523.1758, 1.037308
523.6580, 1.329361
524.1401, 1.299446
524.6222, 1.022789
525.1043, 0.8932420
525.5864, 1.141960
526.0685, 1.205002
526.5507, 0.8528980
527.0328, 0.4315640
527.5149, 0.2062990
527.9970, 0.2140730
528.4791, 0.3601000
528.9612, 0.6589200
529.4434, 1.039886
529.9255, 0.9954610
530.4076, 0.2774580
530.8897, 0.2869570
531.3718, 0.1976170
531.8539, 0.1604390
532.3361, 0.4100800
532.8182, 0.4844060
533.3003, 0.5339200
533.7824, 0.6896130
534.2645, 0.8849260
534.7466, 0.9632800
535.2288, 0.8984530
535.7109, 0.8017350
536.1930, 0.7492980
536.6751, 0.7365570
537.1572, 0.7300570
537.6393, 0.7556990
538.1215, 0.7550740
538.6036, 0.6756520
539.0857, 0.5768970
539.5678, 0.5305180
540.0499, 0.5518190
540.5320, 0.6214980
541.0142, 0.7367940
541.4963, 0.9030150
541.9784, 0.9337690
542.4604, 0.6838760
542.9426, 0.4641110
543.4247, 0.3747940
543.9068, 0.3288960
544.3889, 0.2010120
544.8710, 3.6040999E-02
545.3531, 0.2482910
545.8353, 0.2744670
546.3174, 0.1282350
546.7995, 5.3275999E-02
547.2816, 0.3195800
547.7637, 0.5002980
548.2458, 0.3656160
548.7280, 0.1004560
549.2101, 8.1099998E-03
549.6922, 0.1776280
550.1743, 0.4429470
550.6564, 0.8804780
551.1385, 1.307976
551.6207, 1.238426
552.1028, 0.5587010
552.5849, 0.1689530
553.0670, 0.4140470
553.5491, 0.1735840
554.0313, 3.6880001E-02
554.5134, 0.2151720
554.9955, 0.3722840
555.4776, 0.4936900
555.9597, 0.6046300
556.4418, 0.7606890
556.9240, 0.9643170
557.4061, 1.120811
557.8882, 1.100060
558.3703, 0.8934100
558.8524, 0.7616350
559.3345, 0.7572560
559.8167, 0.7516710
560.2988, 0.6693730
560.7809, 0.5742720
561.2630, 0.5639880
561.7451, 0.6722340
562.2272, 0.7612080
562.7094, 0.6863250
563.1915, 0.4924770
563.6736, 0.3053130
564.1557, 0.1163940
564.6378, 5.5397000E-02
565.1199, 0.2899320
565.6021, 0.7348100
566.0842, 1.005875
566.5663, 1.053284
567.0484, 1.002495
567.5305, 0.8197250
568.0126, 0.6005330
568.4948, 0.4574580
568.9769, 0.4117810
569.4590, 0.4251400
569.9411, 0.4682240
570.4232, 0.5392530
570.9053, 0.6027300
571.3875, 0.7531130
571.8696, 0.7602230
572.3517, 0.4845890
572.8338, 0.1219860
573.3159, 0.1957860
573.7980, 0.4264450
574.2802, 0.5112080
574.7623, 0.3486560
575.2444, 8.2470002E-03
575.7265, 0.3613200
576.2086, 0.7289200
576.6907, 1.017456
577.1729, 1.201111
577.6550, 1.257591
578.1371, 1.128525
578.6192, 0.7514110
579.1013, 0.4679030
579.5834, 0.4142840
580.0656, 0.5172200
580.5477, 0.7901080
581.0298, 1.176918
581.5119, 1.398148
581.9940, 1.250259
582.4761, 0.8564760
582.9583, 0.6384280
583.4404, 0.7446590
583.9225, 0.8058010
584.4046, 0.7050860
584.8867, 0.6522750
585.3688, 0.9043430
585.8510, 1.341347
586.3331, 1.550850
586.8152, 1.207207
587.2973, 0.6029050
587.7794, 0.4521870
588.2615, 0.8303380
588.7437, 1.137589
589.2258, 1.308815
589.7079, 1.336136
590.1900, 1.107018
590.6721, 0.6769490
591.1542, 0.4153440
591.6364, 0.4985050
592.1185, 0.7410890
592.6006, 1.078934
593.0827, 1.452560
593.5648, 1.666573
594.0469, 1.638901
594.5291, 1.553749
595.0112, 1.707390
595.4933, 2.244698
595.9754, 2.348450
596.4575, 1.666321
596.9396, 1.011627
597.4218, 0.6589130
597.9039, 0.5150760
598.3860, 0.4092180
598.8681, 0.2853850
599.3502, 0.2416530
599.8323, 0.4629750
600.3145, 0.9353940
600.7966, 1.236519
601.2787, 1.309998
601.7608, 1.290367
602.2429, 1.173874
602.7250, 1.029922
603.2072, 0.9744870
603.6893, 1.055550
604.1714, 1.180092
604.6535, 1.383568
605.1356, 1.552048
605.6177, 1.467621
606.0999, 1.138069
606.5820, 0.8388290
607.0641, 0.7792820
607.5462, 0.9122470
608.0283, 0.9932630
608.5104, 0.9740300
608.9926, 0.9692840
609.4747, 0.9777450
609.9568, 1.008026
610.4389, 1.073273
610.9210, 1.153839
611.4031, 1.216743
611.8853, 1.211891
612.3674, 1.171371
612.8495, 1.158966
613.3316, 1.176956
613.8137, 1.296364
614.2958, 1.693054
614.7780, 1.988045
615.2601, 1.614479
615.7422, 0.7204670
616.2243, 0.2037050
616.7064, 0.5788420
617.1885, 1.085205
617.6707, 1.311523
618.1528, 1.301292
618.6349, 1.097679
619.1170, 0.7255250
619.5991, 0.3731160
620.0812, 0.2697750
620.5634, 0.4306790
621.0455, 0.5964360
621.5276, 0.8556520
622.0097, 1.004868
622.4918, 0.9343340
622.9739, 0.7777790
623.4561, 0.6799240
623.9382, 0.6576160
624.4203, 0.6161500
624.9023, 0.4177930
625.3845, 0.1780320
625.8666, 0.2822340
626.3487, 0.7778550
626.8308, 1.122215
627.3129, 1.002953
627.7950, 0.6495210
628.2772, 0.4970320
628.7593, 0.5664830
629.2414, 0.6766050
629.7235, 0.7571180
630.2056, 0.9103240
630.6877, 1.401794
631.1699, 1.997070
631.6520, 2.100708
632.1341, 1.435074
632.6162, 0.5415730
633.0983, 0.3899920
633.5804, 1.164429
634.0626, 1.623024
634.5447, 1.637329
635.0268, 1.467583
635.5089, 1.079262
635.9910, 0.6322940
636.4731, 0.4534530
636.9553, 0.6729130
637.4374, 0.9108350
637.9195, 0.8328780
638.4016, 0.6076350
638.8837, 0.5828860
639.3658, 0.7904430
639.8480, 0.9928670
640.3301, 1.047943
640.8122, 0.9722440
641.2943, 0.8169480
641.7764, 0.3667980
642.2585, 0.1643450
642.7407, 0.4665070
643.2228, 0.7875670
643.7049, 0.7618180
644.1870, 0.4934690
644.6691, 0.3185120
645.1512, 0.4238660
645.6334, 0.6569750
646.1155, 0.7667540
646.5976, 0.7548520
647.0797, 0.7835690
647.5618, 0.8816530
648.0439, 1.016228
648.5261, 1.222527
649.0082, 1.445900
649.4903, 1.503304
649.9724, 1.275185
650.4545, 1.043663
650.9366, 0.9071430
651.4188, 0.8462830
651.9009, 0.8422010
652.3830, 0.8503040
652.8651, 0.8372120
653.3472, 0.7563320
653.8293, 0.6406780
654.3115, 0.6347730
654.7936, 0.8399200
655.2757, 0.9165120
655.7578, 0.6067960
656.2399, 0.3155520
656.7220, 0.3062290
657.2042, 0.5044480
657.6863, 0.6556700
658.1684, 0.6374890
658.6505, 0.5755080
659.1326, 0.6058430
659.6147, 0.6866150
660.0969, 0.6747820
660.5790, 0.5362400
661.0611, 0.4320220
661.5432, 0.5365980
662.0253, 0.8124390
662.5074, 0.8530270
662.9896, 0.2968750
663.4717, 1.4252000E-02
663.9538, 0.1490330
664.4359, 0.4623260
664.9180, 0.7618100
665.4001, 0.9768680
665.8823, 0.9874420
666.3644, 0.6399690
666.8465, 0.1757740
667.3286, 9.3552001E-02
667.8107, 0.3823620
668.2928, 0.4994200
668.7750, 0.2623520
669.2571, 2.3636000E-02
669.7392, 8.4395997E-02
670.2213, 6.9587998E-02
670.7034, 0.2622300
671.1855, 0.7005080
671.6677, 0.9180980
672.1498, 0.5072100
672.6319, 4.6890002E-02
673.1140, 0.1886830
673.5961, 0.1138610
674.0782, 0.5336230
674.5604, 0.8587880
675.0425, 1.060890
675.5246, 1.007599
676.0067, 0.6236800
676.4888, 0.3326190
676.9709, 0.2049480
677.4531, 0.1835630
677.9352, 0.2567140
678.4173, 0.3936920
678.8994, 0.4797820
679.3815, 0.5164790
679.8636, 0.4649430
680.3458, 0.1760860
680.8279, 0.1698910
681.3100, 0.2533490
681.7921, 4.3129001E-02
682.2742, 0.2157140
682.7563, 0.3285900
683.2385, 0.3151400
683.7206, 0.2609790
684.2027, 7.6972999E-02
684.6848, 4.6936002E-02
685.1669, 0.4465710
685.6490, 0.7996060
686.1312, 0.7822950
686.6133, 0.4845430
687.0954, 0.2037050
687.5775, 3.9429002E-02
688.0596, 5.1346000E-02
688.5417, 0.1334990
689.0239, 0.1671680
689.5060, 6.5599999E-04
689.9881, 0.3906860
690.4702, 0.7303010
690.9523, 0.8062740
691.4344, 0.6564640
691.9166, 0.4577260
692.3987, 1.5747000E-02
692.8808, 0.1637800
693.3629, 0.3974000
693.8450, 0.9447560
694.3271, 0.9909970
694.8093, 0.6617130
695.2914, 0.3395540
695.7735, 0.1712190
696.2556, 0.1325300
696.7377, 0.2281880
697.2198, 0.4322050
697.7020, 0.7032240
698.1841, 1.047585
698.6662, 1.244591
699.1483, 1.105698
699.6304, 0.7202300
700.1125, 0.4273610
700.5947, 0.2008440
701.0768, 0.1219480
701.5589, 0.2872920
702.0410, 0.5127870
702.5231, 0.7365570
703.0052, 0.9244160
703.4874, 1.017899
703.9695, 0.9836810
704.4516, 0.9228210
704.9337, 1.011642
705.4158, 1.194717
705.8979, 1.163132
706.3801, 0.8573300
706.8622, 0.5568770
707.3442, 0.4369740
707.8264, 0.4190670
708.3085, 0.2755810
708.7906, 0.1627200
709.2727, 0.2930600
709.7548, 0.2694170
710.2369, 0.8140720
710.7191, 0.9073410
711.2012, 0.6841050
711.6833, 0.3801960
712.1654, 8.7585002E-02
712.6475, 9.0857998E-02
713.1296, 5.9478998E-02
713.6118, 0.4538190
714.0939, 0.5892560
714.5760, 0.4122620
715.0581, 0.2241900
715.5402, 0.1270900
716.0223, 0.1299900
716.5045, 0.2851790
716.9866, 0.6288380
717.4687, 0.8912960
717.9508, 1.082222
718.4329, 1.152046
718.9150, 0.9791110
719.3972, 0.7092590
719.8793, 0.5434490
720.3614, 0.5338440
720.8435, 0.6033020
721.3256, 0.7346040
721.8077, 0.8741680
722.2899, 0.7757340
722.7720, 0.4050900
723.2541, 0.1292880
723.7362, 9.5023997E-02
724.2183, 0.1553570
724.7004, 0.1102980
725.1826, 3.4423999E-02
725.6647, 2.8990000E-03
726.1468, 0.3678890
726.6289, 0.7408070
727.1110, 1.024353
727.5931, 1.216469
728.0753, 1.331085
728.5574, 1.371597
729.0395, 1.364296
729.5216, 1.323524
730.0037, 1.242928
730.4858, 1.089958
730.9680, 0.8645550
731.4501, 0.7855530
731.9322, 0.9618300
732.4143, 1.072845
732.8964, 0.7152560
733.3785, 5.0087001E-02
733.8607, 8.3847001E-02
734.3428, 0.8500290
734.8249, 1.480003
735.3070, 1.372742
735.7891, 0.9840470
736.2712, 0.5221020
736.7534, 0.1208340
737.2355, 1.3046000E-02
737.7176, 0.3302990
738.1997, 0.8209000
738.6818, 1.142288
739.1639, 1.305748
739.6461, 1.362961
740.1282, 1.300812
740.6103, 1.132835
741.0924, 0.7692410
741.5745, 0.3762740
742.0566, 0.3702160
742.5388, 0.8952180
743.0209, 1.276749
743.5030, 1.505844
743.9851, 1.528831
744.4672, 1.113190
744.9493, 0.5498890
745.4315, 0.3097530
745.9136, 0.5032270
746.3957, 0.7860260
746.8778, 0.7638550
747.3599, 0.5992660
747.8420, 0.8436510
748.3242, 1.509773
748.8063, 1.940536
749.2884, 1.889549
749.7705, 1.583855
750.2526, 1.231201
750.7347, 0.8191910
751.2169, 0.5713880
751.6990, 0.6022800
752.1811, 0.6057510
752.6632, 0.4502560
753.1453, 0.2851640
753.6274, 0.2301480
754.1096, 0.2995000
754.5917, 0.4835510
755.0738, 0.8368840
755.5559, 1.173096
756.0380, 1.200081
756.5201, 0.9778210
757.0023, 0.7384800
757.4844, 0.5134350
757.9665, 0.3703460
758.4486, 0.3753050
758.9307, 0.4764100
759.4128, 0.4941410
759.8950, 0.3449630
760.3771, 0.2630000
760.8592, 0.2636260
761.3413, 0.3098600
761.8234, 0.3922420
762.3055, 0.5054240
762.7877, 0.6691740
763.2698, 0.8932650
763.7519, 1.053223
764.2340, 1.055672
764.7161, 0.9363940
765.1982, 0.6380840
765.6804, 0.2334750
766.1625, 0.1470410
766.6446, 0.5475390
767.1267, 1.090637
767.6088, 1.360886
768.0909, 1.333656
768.5731, 1.141937
769.0552, 0.5356750
769.5373, 0.1756900
770.0194, 0.4335250
770.5015, 0.7917710
770.9836, 0.8755110
771.4658, 0.6975710
771.9479, 0.4778440
772.4300, 0.2319720
772.9121, 4.8462000E-02
773.3942, 3.1608999E-02
773.8763, 0.1014480
774.3585, 0.1343690
774.8406, 0.1186370
775.3227, 0.1005400
775.8048, 0.1060330
776.2869, 0.1482850
776.7690, 0.3002470
777.2512, 0.6146930
777.7333, 0.6582110
778.2154, 0.2180100
778.6975, 0.1526720
779.1796, 0.1331250
779.6617, 0.1396330
780.1439, 0.4717100
780.6260, 0.9054110
781.1081, 1.175903
781.5902, 1.182404
782.0723, 1.045403
782.5544, 0.7524640
783.0366, 0.3961110
783.5187, 0.1095660
784.0008, 6.5407000E-02
784.4829, 0.1288380
784.9650, 2.8252000E-02
785.4471, 0.1543960
785.9293, 0.1298900
786.4114, 0.1061480
786.8935, 0.2397920
787.3756, 0.1943280
787.8577, 2.0248000E-02
788.3398, 0.2607420
788.8220, 0.6363220
789.3040, 1.000061
789.7861, 1.512070
790.2682, 1.782501
790.7504, 1.645615
791.2325, 1.392448
791.7146, 1.125877
792.1967, 0.9071880
792.6788, 0.7977140
793.1609, 0.8356780
793.6431, 0.8745120
794.1252, 0.7311020
794.6073, 0.5218660
795.0894, 0.4832610
795.5715, 0.6106110
796.0536, 0.7618180
796.5358, 0.8806380
797.0179, 0.9812160
797.5000, 1.098129
797.9821, 1.238556
798.4642, 1.191490
798.9464, 0.7440640
799.4285, 0.4941100
799.9106, 0.8426280
800.3927, 1.242607
800.8748, 1.239113
801.3569, 0.9055330
801.8391, 0.6582110
802.3212, 0.6183620
802.8033, 0.6686940
803.2854, 0.7739490
803.7675, 0.9223560
804.2496, 1.181320
804.7318, 1.478325
805.2139, 1.545929
805.6960, 1.225273
806.1781, 0.7923580
806.6602, 0.7198100
807.1423, 0.9768680
807.6245, 1.145630
808.1066, 1.205765
808.5887, 1.194397
809.0708, 1.104149
809.5529, 0.9835590
810.0350, 0.9214780
810.5172, 0.9440310
810.9993, 0.8400190
811.4814, 0.4293210
811.9635, 0.1242220
812.4456, 6.3346997E-02
812.9277, 0.1387410
813.4099, 0.3297120
813.8920, 0.5696410
814.3741, 0.6513820
814.8562, 0.3829350
815.3383, 0.1073530
815.8204, 0.2592850
816.3026, 0.6548840
816.7847, 0.8704610
817.2668, 0.8751600
817.7489, 0.9017560
818.2310, 1.082245
818.7131, 1.364502
819.1953, 1.694809
819.6774, 2.133270
820.1595, 2.208588
820.6416, 1.656242
821.1237, 1.223434
821.6058, 1.301331
822.0880, 1.580063
822.5701, 1.722931
823.0522, 1.728401
823.5343, 1.703842
824.0164, 1.726395
824.4985, 1.657089
824.9807, 1.262360
825.4628, 0.8546070
825.9449, 0.9070590
826.4270, 1.315674
826.9091, 1.498016
827.3912, 1.085876
827.8734, 0.5105590
828.3555, 0.4129640
828.8376, 0.6816560
829.3197, 0.8655320
829.8018, 0.9243700
830.2839, 0.9231800
830.7661, 0.8949510
831.2482, 0.8099670
831.7303, 0.5731660
832.2124, 0.1113970
832.6945, 4.7630001E-02
833.1766, 0.7972870
833.6588, 1.345985
834.1409, 1.350319
834.6230, 1.170776
835.1051, 1.117485
835.5872, 1.158264
836.0693, 1.036537
836.5515, 0.4338380
837.0336, 2.6404999E-02
837.5157, 0.4177170
837.9978, 1.041817
838.4799, 1.251793
838.9620, 1.070297
839.4442, 0.7912220
839.9263, 0.5511250
840.4084, 0.4031680
840.8905, 0.4476010
841.3726, 0.6559910
841.8547, 0.8817370
842.3369, 1.123772
842.8190, 1.360229
843.3011, 1.607094
843.7832, 1.741844
844.2653, 1.589119
844.7474, 1.153633
845.2296, 0.7985000
845.7117, 0.6171800
846.1938, 0.3896180
846.6759, 0.1265720
847.1580, 0.4839630
847.6401, 0.2884450
848.1223, 0.2558900
848.6044, 0.6858220
849.0865, 0.8821410
849.5686, 0.9656600
850.0507, 0.9612430
850.5328, 0.9113160
851.0150, 0.8228300
851.4971, 0.7247620
851.9792, 0.7175060
852.4613, 0.8197630
852.9434, 0.9082260
853.4255, 0.8103710
853.9077, 0.6053090
854.3898, 0.5312960
854.8719, 0.5884170
855.3540, 0.6400910
855.8361, 0.6469880
856.3182, 0.7055130
856.8004, 0.9180300
857.2825, 1.216995
857.7646, 1.387039
858.2467, 1.394455
858.7288, 1.305717
859.2109, 0.9655760
859.6931, 0.7264020
860.1752, 0.7782670
860.6573, 0.9599760
861.1394, 1.099922
861.6215, 1.173294
862.1036, 1.178841
862.5858, 1.061554
863.0679, 0.9358520
863.5500, 0.9262390
864.0321, 0.9329070
864.5142, 0.7631990
864.9963, 0.4488600
865.4785, 0.2252730
865.9606, 0.2310260
866.4427, 0.3731770
866.9248, 0.5761870
867.4069, 0.8026580
867.8890, 0.8077850
868.3712, 0.5756760
868.8533, 0.3951950
869.3354, 0.3854980
869.8175, 0.4900510
870.2996, 0.6514820
870.7817, 0.8730240
871.2639, 0.9609450
871.7459, 0.8566360
872.2280, 0.7214050
872.7101, 0.3825680
873.1923, 0.2075200
873.6744, 0.6337200
874.1565, 1.370026
874.6386, 1.677788
875.1207, 1.294052
875.6028, 0.9210970
876.0850, 0.9153520
876.5671, 0.9007260
877.0492, 0.4581070
877.5313, 0.1369250
878.0134, 0.3884510
878.4955, 0.1980820
878.9777, 0.1550140
879.4598, 0.5480880
879.9419, 0.9128420
880.4240, 1.133675
880.9061, 1.240829
881.3882, 1.249397
881.8704, 1.162544
882.3525, 0.9625550
882.8346, 0.6072080
883.3167, 0.2706300
883.7988, 0.3920440
884.2809, 1.087166
884.7631, 1.328384
885.2452, 0.8786320
885.7273, 0.5707550
886.2094, 0.8207860
886.6915, 1.203239
887.1736, 1.168922
887.6558, 0.7599030
888.1379, 0.6395950
888.6200, 1.136391
889.1021, 1.484428
889.5842, 1.457390
890.0663, 1.330086
890.5485, 1.323181
891.0306, 1.354927
891.5127, 1.170212
891.9948, 0.6830600
892.4769, 0.3527680
892.9590, 0.6906970
893.4412, 1.148117
893.9233, 1.069565
894.4054, 0.6730730
894.8875, 0.4474030
895.3696, 0.4878920
895.8517, 0.5651020
896.3339, 0.4993590
896.8160, 0.4045330
897.2981, 0.5753330
897.7802, 0.9683990
898.2623, 1.131073
898.7444, 1.007652
899.2266, 0.8203660
899.7087, 0.6502690
900.1908, 0.5361020
900.6729, 0.5531690
901.1550, 0.7115330
901.6371, 0.7642820
902.1193, 0.6425250
902.6014, 0.5433580
903.0835, 0.5510560
903.5656, 0.5443730
904.0477, 0.3428840
904.5298, 6.4873002E-02
905.0120, 7.2708003E-02
905.4941, 0.6203840
905.9762, 0.9798130
906.4583, 0.8376460
906.9404, 0.5613900
907.4225, 0.2633820
907.9047, 2.4994001E-02
908.3868, 1.9676000E-02
908.8689, 0.1142650
909.3510, 0.1969870
909.8331, 2.5364000E-02
910.3152, 0.1453820
910.7974, 8.8620000E-03
911.2795, 0.3231160
911.7616, 0.5002140
912.2437, 0.5222320
912.7258, 0.5044520
913.2079, 0.5010640
913.6901, 0.4634250
914.1722, 0.2857320
914.6543, 1.2623000E-02
915.1364, 0.1073460
915.6185, 7.3204003E-02
916.1006, 0.1043700
916.5828, 0.4504090
917.0649, 0.8320660
917.5470, 1.181034
918.0291, 1.446598
918.5112, 1.415833
918.9933, 0.8783380
919.4755, 0.5896800
919.9576, 0.7452390
920.4397, 0.8725090
920.9218, 0.7189520
921.4039, 0.4888920
921.8860, 0.4074670
922.3682, 0.4729190
922.8503, 0.5394170
923.3324, 0.6379810
923.8145, 0.6655620
924.2966, 0.5637590
924.7787, 0.4063530
925.2609, 0.1555370
925.7430, 7.9464003E-02
926.2251, 3.7712000E-02
926.7072, 0.3665920
927.1893, 0.6919710
927.6714, 0.4919660
928.1536, 0.2094270
928.6357, 0.3904190
929.1178, 0.7930450
929.5999, 0.8735620
930.0820, 0.6062130
930.5641, 0.4476130
931.0463, 0.7079770
931.5284, 1.116665
932.0105, 1.238194
932.4926, 1.106354
932.9747, 0.9118580
933.4568, 0.6749340
933.9390, 0.5603940
934.4211, 0.6417620
934.9032, 0.7525860
935.3853, 0.7093770
935.8674, 0.5151370
936.3495, 0.1652600
936.8317, 0.4733310
937.3138, 0.6448290
937.7959, 9.0919003E-02
938.2780, 0.5688630
938.7601, 1.127666
939.2422, 1.476555
939.7244, 1.314362
940.2065, 0.4543380
940.6886, 0.1854290
941.1707, 1.143551
941.6528, 1.798042
942.1349, 1.698139
942.6171, 1.344742
943.0992, 0.9816020
943.5813, 0.6806070
944.0634, 0.5688060
944.5455, 0.6956520
945.0276, 0.9166490
945.5098, 1.457626
945.9919, 1.785240
946.4740, 1.204651
946.9561, 0.3812640
947.4382, 0.3677520
947.9203, 1.135941
948.4025, 1.673397
948.8846, 1.351696
949.3667, 0.8444290
949.8488, 0.8246420
950.3309, 1.016815
950.8130, 0.9573210
951.2952, 0.7092400
951.7773, 0.6218300
952.2594, 0.8017350
952.7415, 1.011890
953.2236, 1.001900
953.7057, 0.8876650
954.1878, 1.007839
954.6699, 1.313286
955.1520, 1.369770
955.6342, 1.124893
956.1163, 0.9605480
956.5984, 1.099747
957.0805, 1.321087
957.5626, 1.239357
958.0447, 0.8634070
958.5269, 0.7552490
959.0090, 1.012932
959.4911, 1.089523
959.9732, 0.7644920
960.4553, 0.4800950
960.9374, 0.6283230
961.4196, 1.024796
961.9017, 1.141609
962.3838, 0.8660160
962.8659, 0.6529270
963.3480, 0.4452740
963.8301, 0.4034650
964.3123, 0.7106060
964.7944, 1.045818
965.2765, 1.059845
965.7586, 0.8293690
966.2407, 0.7405510
966.7228, 0.9007420
967.2050, 1.097569
967.6871, 1.440605
968.1692, 1.629848
968.6513, 1.360901
969.1334, 0.9402010
969.6155, 0.7988360
970.0977, 0.9649200
970.5798, 1.143856
971.0619, 1.254444
971.5440, 1.268936
972.0261, 1.107372
972.5082, 0.8873480
972.9904, 0.6823500
973.4725, 0.5437930
973.9546, 0.5464320
974.4367, 0.6981890
974.9188, 0.9215930
975.4009, 1.282627
975.8831, 1.570473
976.3652, 1.381676
976.8473, 0.9667550
977.3294, 0.8218310
977.8115, 0.9581180
978.2936, 1.065517
978.7758, 0.9971960
979.2579, 0.9450450
979.7400, 1.225910
980.2221, 1.688107
980.7042, 1.782887
981.1863, 1.551777
981.6685, 1.296101
982.1506, 1.077164
982.6327, 0.9712100
983.1148, 1.043171
983.5969, 1.178802
984.0790, 1.175133
984.5612, 1.034557
985.0433, 0.9278410
985.5254, 0.8597530
986.0075, 0.8083610
986.4896, 0.7812310
986.9717, 0.7489470
987.4539, 0.7006070
987.9360, 0.6170160
988.4181, 0.3996280
988.9002, 8.7364003E-02
989.3823, 0.1910550
989.8644, 0.3425030
990.3466, 0.7643320
990.8287, 0.7288060
991.3108, 0.6208190
991.7929, 0.8935010
992.2750, 1.442368
992.7571, 1.631042
993.2393, 1.139439
993.7214, 0.8667910
994.2035, 1.001633
994.6856, 1.113487
995.1677, 1.115749
995.6498, 1.053192
996.1320, 0.7852060
996.6141, 0.3723720
997.0962, 0.2990190
997.5783, 0.9833830
998.0604, 1.466251
998.5425, 1.335609
999.0247, 1.108707
999.5068, 1.120693
999.9889, 1.232239
1000.471, 1.223755
1000.953, 1.068439
1001.435, 0.8639760
1001.917, 0.5283360
1002.399, 0.3396110
1002.882, 0.6570550
1003.364, 1.009735
1003.846, 0.8507310
1004.328, 0.4166530
1004.810, 0.2728650
1005.292, 0.5275730
1005.774, 0.7286950
1006.256, 0.4831660
1006.739, 0.2128680
1007.221, 0.4095460
1007.703, 0.7703820
1008.185, 0.8827930
1008.667, 0.7574460
1009.149, 0.5197140
1009.631, 0.2327160
1010.113, 4.8466001E-02
1010.595, 0.1911930
1011.078, 0.4152640
1011.560, 0.2246890
1012.042, 0.1382370
1012.524, 1.4389000E-02
1013.006, 0.6187780
1013.488, 0.9604070
1013.970, 0.7324910
1014.452, 0.3500480
1014.935, 0.2401770
1015.417, 0.3509100
1015.899, 0.6905590
1016.381, 1.153336
1016.863, 1.135784
1017.345, 0.6002350
1017.827, 0.1659130
1018.309, 0.1528660
1018.791, 0.3642540
1019.274, 0.6053700
1019.756, 0.8146590
1020.238, 0.5478060
1020.720, 0.1628190
1021.202, 0.3304630
1021.684, 0.2477190
1022.166, 0.7388380
1022.648, 0.6429290
1023.130, 0.2980690
1023.613, 0.2585640
1024.095, 0.4996830
1024.577, 0.5875170
1025.059, 0.4934880
1025.541, 0.4925610
1026.023, 0.6544490
1026.505, 0.8293610
1026.987, 0.9367100
1027.469, 0.9728470
1027.952, 0.9213330
1028.434, 0.7767910
1028.916, 0.6592370
1029.398, 0.5691990
1029.880, 0.5081560
1030.362, 0.4953310
1030.844, 0.4707410
1031.326, 0.4097370
1031.809, 0.2907410
1032.291, 2.1046000E-02
1032.773, 0.4657900
1033.255, 0.5029980
1033.737, 0.2205240
1034.219, 0.7072070
1034.701, 0.6601720
1035.183, 0.5022890
1035.666, 0.4824870
1036.148, 0.5568350
1036.630, 0.6336480
1037.112, 0.7052730
1037.594, 0.8224560
1038.076, 1.075150
1038.558, 1.225433
1039.040, 1.195129
1039.522, 1.090958
1040.005, 0.9316830
1040.487, 0.7589950
1040.969, 0.7110900
1041.451, 0.8537220
1041.933, 0.8157540
1042.415, 0.2402080
1042.897, 2.4258001E-02
1043.379, 0.5897980
1043.861, 1.160183
1044.344, 0.8776780
1044.826, 0.1815530
1045.308, 4.1959998E-03
1045.790, 0.4868430
1046.272, 0.7152140
1046.754, 0.2940410
1047.236, 1.7067000E-02
1047.718, 7.4805997E-02
1048.201, 0.2564320
1048.683, 0.3318480
1049.165, 0.3426930
1049.647, 0.3672220
1050.129, 0.4062080
1050.611, 0.5507090
1051.093, 1.020428
1051.575, 1.319912
1052.057, 1.119583
1052.540, 0.8736500
1053.022, 1.008175
1053.504, 1.296356
1053.986, 1.229446
1054.468, 0.7232740
1054.950, 0.4292640
1055.432, 0.6149140
1055.914, 0.9095120
1056.396, 1.407776
1056.879, 1.760223
1057.361, 1.522537
1057.843, 1.021099
1058.325, 0.8624650
1058.807, 1.132633
1059.289, 1.327221
1059.771, 1.220234
1060.253, 1.096344
1060.736, 1.075264
1061.218, 1.063087
1061.700, 0.9362260
1062.182, 0.7916640
1062.664, 0.8283690
1063.146, 1.059555
1063.628, 1.229645
1064.110, 1.246922
1064.593, 1.185890
1065.075, 0.9643400
1065.557, 0.8026770
1066.039, 0.9385530
1066.521, 1.182068
1067.003, 1.236004
1067.485, 1.089321
1067.967, 0.9197580
1068.449, 0.7519340
1068.932, 0.6635020
1069.414, 0.7464900
1069.896, 0.8178790
1070.378, 0.7485960
1070.860, 0.6377790
1071.342, 0.6653590
1071.824, 0.8199880
1072.306, 0.8789520
1072.788, 0.7089310
1073.271, 0.5583840
1073.753, 0.5337910
1074.235, 0.5909080
1074.717, 0.7769050
1075.199, 0.9741210
1075.681, 1.044998
1076.163, 0.9786000
1076.645, 0.7979350
1077.127, 0.4173050
1077.610, 0.2241740
1078.092, 0.5518460
1078.574, 0.9505080
1079.056, 1.137302
1079.538, 1.243473
1080.020, 1.417213
1080.502, 1.625671
1080.984, 1.706161
1081.467, 1.610786
1081.949, 1.374149
1082.431, 0.7889750
1082.913, 0.3247680
1083.395, 0.3167000
1083.877, 0.5444340
1084.359, 0.8128280
1084.841, 1.090488
1085.323, 1.421162
1085.806, 1.839573
1086.288, 2.062347
1086.770, 1.826176
1087.252, 1.542267
1087.734, 1.445454
1088.216, 1.378742
1088.698, 1.126537
1089.180, 0.8143770
1089.662, 0.7214580
1090.145, 0.9025610
1090.627, 1.046692
1091.109, 1.052113
1091.591, 1.084061
1092.073, 1.264568
1092.555, 1.370491
1093.037, 1.093082
1093.519, 0.6793710
1094.002, 0.5813450
1094.484, 0.8389890
1094.966, 1.044971
1095.448, 1.152000
1095.930, 1.068192
1096.412, 0.5517200
1096.894, 6.2996000E-02
1097.376, 0.1359630
1097.859, 0.1122930
1098.341, 0.1159210
1098.823, 0.4815250
1099.305, 0.6560520
1099.787, 0.4858320
1100.269, 0.2840960
1100.751, 2.5921000E-02
1101.233, 0.1198810
1101.715, 5.3860000E-03
1102.198, 0.2067570
1102.680, 0.3842960
1103.162, 0.5037880
1103.644, 0.5247310
1104.126, 0.3863910
1104.608, 0.3202590
1105.090, 0.3786700
1105.572, 0.4997060
1106.054, 0.7778170
1106.537, 1.002613
1107.019, 0.9237520
1107.501, 0.6787870
1107.983, 0.6511120
1108.465, 0.9410480
1108.947, 1.027851
1109.429, 0.6035840
1109.911, 0.3461840
1110.394, 0.5548020
1110.876, 0.7942580
1111.358, 0.7780800
1111.840, 0.6357920
1112.322, 0.6110380
1112.804, 0.7191850
1113.286, 0.6624790
1113.768, 0.1808620
1114.250, 2.9426999E-02
1114.733, 0.2610130
1115.215, 0.5850180
1115.697, 0.8328320
1116.179, 0.9325330
1116.661, 0.7127910
1117.143, 0.2451480
1117.625, 6.4769998E-02
1118.107, 0.2826920
1118.589, 0.5404240
1119.072, 0.9393500
1119.554, 1.156868
1120.036, 1.000420
1120.518, 0.7883680
1121.000, 0.8404730
1121.482, 1.010395
1121.964, 0.8345300
1122.446, 0.2180060
1122.929, 0.1786120
1123.411, 0.3562770
1123.893, 0.2693940
1124.375, 0.2153820
1124.857, 0.5792810
1125.339, 0.4578970
1125.821, 8.7233998E-02
1126.303, 0.1665080
1126.786, 0.2943950
1127.268, 5.4825000E-02
1127.750, 0.6178510
1128.232, 1.070580
1128.714, 1.221256
1129.196, 1.048145
1129.678, 0.4758680
1130.160, 2.1113999E-02
1130.642, 0.1557120
1131.125, 0.7570150
1131.607, 0.8245930
1132.089, 0.4053310
1132.571, 0.4005550
1133.053, 0.8475070
1133.535, 1.116486
1134.017, 1.015331
1134.499, 0.8025360
1134.981, 0.6646120
1135.464, 0.6065640
1135.946, 0.6793370
1136.428, 0.8372880
1136.910, 0.8978160
1137.392, 0.8786930
1137.874, 0.9054600
1138.356, 0.9820520
1138.838, 0.9214480
1139.321, 0.6261330
1139.803, 0.3867720
1140.285, 0.6443980
1140.767, 1.063526
1141.249, 0.9480170
1141.731, 0.5493510
1142.213, 0.4233820
1142.695, 0.5561560
1143.177, 0.6774330
1143.660, 0.7005270
1144.142, 0.7139630
1144.624, 0.8220210
1145.106, 0.8465270
1145.588, 0.4721720
1146.070, 1.1395000E-02
1146.552, 0.1543540
1147.034, 9.7861998E-02
1147.516, 7.3448002E-02
1147.999, 0.2828410
1148.481, 0.3491170
1148.963, 0.1708150
1149.445, 1.3400000E-04
1149.927, 2.2849999E-03
1150.409, 6.1110999E-02
1150.891, 2.5284000E-02
1151.373, 5.6072000E-02
1151.856, 0.4380070
1152.338, 1.001343
1152.820, 1.363335
1153.302, 1.443348
1153.784, 1.333069
1154.266, 0.8665120
1154.748, 0.4928360
1155.230, 0.2832760
1155.713, 0.2902490
1156.195, 0.8072890
1156.677, 1.386612
1157.159, 1.340431
1157.641, 0.7626150
1158.123, 0.5658150
1158.605, 1.178940
1159.087, 1.425709
1159.569, 0.8523290
1160.052, 0.4656490
1160.534, 0.7073630
1161.016, 1.022713
1161.498, 0.9779850
1161.980, 0.7353970
1162.462, 0.6659930
1162.944, 0.8014790
1163.426, 0.7499240
1163.908, 0.3861120
1164.391, 0.2163120
1164.873, 0.3677020
1165.355, 0.5473790
1165.837, 0.6362460
1166.319, 0.6845590
1166.801, 0.7471160
1167.283, 0.8214680
1167.765, 0.9027100
1168.247, 0.9932370
1168.730, 1.021687
1169.212, 0.9782410
1169.694, 1.227432
1170.176, 1.880623
1170.658, 2.210770
1171.140, 1.666176
1171.622, 0.8816990
1172.104, 0.9559250
1172.587, 1.599277
1173.069, 1.825577
1173.551, 1.726109
1174.033, 1.653435
1174.515, 1.635967
1174.997, 1.523060
1175.479, 1.264992
1175.961, 0.9801290
1176.443, 0.6988910
1176.926, 0.5758780
1177.408, 1.029819
1177.890, 1.602818
1178.372, 1.497551
1178.854, 1.043266
1179.336, 1.002186
1179.818, 1.416245
1180.300, 1.818165
1180.782, 2.029659
1181.265, 1.976944
1181.747, 1.404041
1182.229, 0.8564450
1182.711, 0.6509970
1183.193, 0.6300850
1183.675, 0.6963390
1184.157, 0.7899170
1184.639, 0.8698230
1185.122, 0.9337310
1185.604, 0.9698220
1186.086, 0.9320870
1186.568, 0.9215160
1187.050, 1.048882
1187.532, 1.088100
1188.014, 0.7897150
1188.496, 0.5001070
1188.979, 0.6147040
1189.461, 0.9466170
1189.943, 0.9585300
1190.425, 0.5416870
1190.907, 0.5005380
1191.389, 0.9756470
1191.871, 1.279755
1192.353, 1.277824
1192.835, 1.178017
1193.318, 1.048424
1193.800, 0.9843670
1194.282, 1.137508
1194.764, 1.412140
1195.246, 1.387829
1195.728, 1.081768
1196.210, 0.9614640
1196.692, 1.043507
1197.174, 1.201813
1197.657, 1.395882
1198.139, 1.566998
1198.621, 1.684834
1199.103, 1.669464
1199.585, 1.289516
1200.067, 0.7971420
1200.549, 0.7249070
1201.031, 0.9240300
1201.514, 1.142872
1201.996, 1.307575
1202.478, 1.297203
1202.960, 1.104549
1203.442, 0.9105260
1203.924, 0.8003620
1204.406, 0.7621500
1204.888, 0.9158060
1205.370, 1.043053
1205.853, 0.8802870
1206.335, 0.6265370
1206.817, 0.5551800
1207.299, 0.6036450
1207.781, 0.5211640
1208.263, 0.2466810
1208.745, 8.4167004E-02
1209.227, 0.1169050
1209.709, 0.2565960
1210.192, 0.6723520
1210.674, 0.9636990
1211.156, 0.8530120
1211.638, 0.5853080
1212.120, 0.3289410
1212.602, 0.1296460
1213.084, 0.1941950
1213.566, 0.6010820
1214.049, 0.8891410
1214.531, 1.059605
1215.013, 1.081936
1215.495, 0.9200550
1215.977, 0.7483980
1216.459, 0.6519850
1216.941, 0.6385960
1217.423, 0.7463040
1217.906, 0.8974880
1218.388, 0.8027080
1218.870, 0.5287280
1219.352, 0.4337540
1219.834, 0.4970930
1220.316, 0.5121420
1220.798, 0.4314580
1221.280, 0.2740440
1221.762, 4.3308001E-02
1222.245, 8.9680001E-02
1222.727, 0.1119920
1223.209, 0.4368590
1223.691, 0.7696880
1224.173, 0.9788210
1224.655, 0.7626880
1225.137, 0.3384480
1225.619, 0.1443600
1226.101, 0.2289050
1226.584, 0.3341670
1227.066, 0.3641550
1227.548, 0.4492420
1228.030, 0.7749400
1228.512, 0.9819220
1228.994, 0.8466840
1229.476, 0.6063230
1229.958, 0.3573420
1230.441, 0.1793670
1230.923, 0.2480470
1231.405, 0.5508880
1231.887, 0.6403160
1232.369, 0.4328500
1232.851, 0.2480090
1233.333, 5.5698000E-02
1233.815, 8.7242000E-02
1234.297, 0.4933970
1234.780, 0.7422640
1235.262, 0.4034610
1235.744, 0.1289560
1236.226, 0.1418530
1236.708, 0.2124330
1237.190, 0.2708020
1237.672, 0.1102070
1238.154, 6.7649998E-02
1238.636, 0.1627310
1239.119, 0.3299750
1239.601, 0.5250090
1240.083, 0.6072850
1240.565, 0.4742390
1241.047, 0.2711300
1241.529, 3.1665999E-02
1242.011, 9.8826997E-02
1242.493, 0.1611370
1242.975, 0.5040890
1243.458, 0.5079460
1243.940, 0.3013840
1244.422, 0.2572860
1244.904, 0.4192960
1245.386, 0.4582980
1245.868, 8.4755003E-02
1246.350, 3.7907001E-02
1246.832, 0.6061900
1247.315, 0.9625930
1247.797, 0.2962000
1248.279, 0.3167720
1248.761, 4.0031001E-02
1249.243, 0.7068980
1249.725, 1.208996
1250.207, 1.457970
1250.689, 1.247826
1251.172, 0.4982150
1251.654, 0.2239990
1252.136, 0.5201720
1252.618, 0.7251780
1253.100, 0.6364630
1253.582, 0.4197270
1254.064, 0.2158970
1254.546, 7.0095003E-02
1255.028, 8.1313998E-02
1255.510, 0.2030490
1255.993, 0.4034540
1256.475, 0.6115040
1256.957, 0.6319580
1257.439, 0.5584560
1257.921, 0.7137600
1258.403, 1.098518
1258.885, 1.300255
1259.367, 1.119457
1259.850, 0.8732030
1260.332, 0.5275960
1260.814, 0.3609120
1261.296, 0.5616110
1261.778, 0.7580760
1262.260, 0.5440140
1262.742, 0.1952930
1263.224, 0.1608050
1263.707, 0.4601940
1264.189, 0.7065700
1264.671, 0.8927610
1265.153, 1.015846
1265.635, 1.013710
1266.117, 1.269493
1266.599, 1.821384
1267.081, 2.142548
1267.563, 1.706566
1268.046, 0.9684560
1268.528, 0.4158900
1269.010, 6.8778999E-02
1269.492, 3.1321999E-02
1269.974, 0.2045250
1270.456, 0.3840480
1270.938, 0.5129430
1271.420, 0.4392740
1271.902, 0.2334710
1272.385, 0.2758290
1272.867, 0.7126730
1273.349, 1.065380
1273.831, 0.9406130
1274.313, 0.8103180
1274.795, 0.9481390
1275.277, 1.088066
1275.759, 0.9970050
1276.242, 0.8587340
1276.724, 0.9739690
1277.206, 1.214222
1277.688, 1.121437
1278.170, 0.6343800
1278.652, 0.2703900
1279.134, 1.6000000E-04
1279.616, 1.1753000E-02
1280.099, 0.2939990
1280.581, 0.6823730
1281.063, 1.102863
1281.545, 1.247002
1282.027, 0.7855380
1282.509, 0.1716120
1282.991, 5.9499999E-04
1283.473, 0.1181560
1283.955, 0.0000000E+00
##END=



