##NAMES=Pyrite
##RRUFFID=R050190
##IDEAL CHEMISTRY=Fe^2+^(S_2_)^2-^
##LOCALITY=Huanzala mine, Huallanca District, Dos de Mayo Province, Huanuco Department, Peru
##OWNER=RRUFF
##SOURCE=Dave Bunk Minerals
##DESCRIPTION=Brass yellow modified cubes with typical pyrite striations
##STATUS=The identification of this mineral has been confirmed by X-ray diffraction and chemical analysis
##URL=rruff.info/R050190
##MEASURED CHEMISTRY=Fe_1.00_S_2.00_
146.4807, 0.0000000E+00
146.9629, 2.9056000E-02
147.4450, 9.2199998E-04
147.9271, 7.0059001E-02
148.4092, 0.2065590
148.8913, 0.2407150
149.3734, 0.1835990
149.8556, 7.0748001E-02
150.3377, 4.7681998E-02
150.8198, 0.2311240
151.3019, 0.4051520
151.7840, 0.5631950
152.2661, 0.7900000
152.7483, 0.8959070
153.2304, 0.9464250
153.7125, 0.9658910
154.1946, 0.8982120
154.6767, 0.6638280
155.1588, 0.4431700
155.6410, 0.3179850
156.1231, 0.2725100
156.6052, 0.2362500
157.0873, 0.1492880
157.5694, 5.7500001E-04
158.0515, 5.7489999E-02
158.5337, 3.4584001E-02
159.0158, 0.1762370
159.4979, 0.2799340
159.9800, 0.3407300
160.4621, 0.4203300
160.9442, 0.6232170
161.4264, 0.8918800
161.9085, 1.038910
162.3906, 0.9365830
162.8727, 0.7089260
163.3548, 0.5556320
163.8369, 0.4956660
164.3191, 0.4888140
164.8012, 0.5593400
165.2833, 0.6635810
165.7654, 0.6989950
166.2475, 0.5477790
166.7296, 0.2610300
167.2118, 0.1273320
167.6939, 0.2397610
168.1760, 0.4015350
168.6581, 0.5421310
169.1402, 0.6443940
169.6223, 0.7243970
170.1045, 0.8133600
170.5866, 0.9328480
171.0687, 1.002814
171.5508, 0.9219420
172.0329, 0.7950600
172.5150, 0.6364580
172.9972, 0.4734030
173.4793, 0.3802170
173.9614, 0.4612940
174.4435, 0.7180750
174.9256, 0.8284010
175.4077, 0.7426030
175.8899, 0.6385210
176.3720, 0.6248840
176.8541, 0.7062800
177.3362, 0.8165700
177.8183, 0.8698950
178.3004, 0.8329360
178.7826, 0.7927870
179.2647, 0.7746330
179.7468, 0.7638490
180.2289, 0.7525870
180.7110, 0.7349630
181.1931, 0.7063540
181.6752, 0.6485500
182.1574, 0.5446020
182.6395, 0.4630410
183.1216, 0.3823750
183.6037, 0.3363850
184.0858, 0.4049980
184.5679, 0.6369030
185.0501, 0.8983300
185.5322, 0.9373060
186.0143, 0.7474280
186.4964, 0.5477400
186.9785, 0.3909470
187.4606, 0.2795030
187.9428, 0.2296150
188.4249, 0.2765630
188.9070, 0.3427280
189.3891, 0.3196360
189.8712, 0.2013310
190.3533, 9.2435002E-02
190.8355, 6.2614001E-02
191.3176, 0.1032310
191.7997, 0.1588220
192.2818, 0.2513780
192.7639, 0.3203120
193.2460, 0.3074810
193.7282, 0.2086040
194.2103, 9.0057999E-02
194.6924, 4.4940002E-03
195.1745, 4.8464000E-02
195.6566, 7.1498998E-02
196.1387, 4.1625999E-02
196.6209, 5.2740001E-03
197.1030, 5.4274000E-02
197.5851, 0.1022170
198.0672, 0.1483240
198.5493, 0.2053250
199.0314, 0.3004560
199.5136, 0.3139310
199.9957, 0.1468190
200.4778, 4.1352000E-02
200.9599, 0.1566620
201.4420, 0.1749000
201.9241, 0.1269570
202.4063, 5.3550001E-02
202.8884, 7.9350002E-02
203.3705, 0.1688280
203.8526, 0.2065140
204.3347, 0.2196040
204.8168, 0.2000400
205.2990, 0.1527010
205.7811, 0.1015920
206.2632, 9.2528999E-02
206.7453, 0.1901910
207.2274, 0.2368910
207.7095, 0.2036630
208.1917, 0.1370820
208.6738, 6.6590004E-02
209.1559, 3.0320000E-03
209.6380, 3.4846999E-02
210.1201, 6.4070001E-03
210.6022, 0.1685950
211.0844, 0.2943680
211.5665, 0.3489780
212.0486, 0.3546050
212.5307, 0.3235650
213.0128, 0.2575950
213.4949, 0.1850770
213.9771, 0.1724570
214.4592, 0.2595150
214.9413, 0.3136670
215.4234, 0.2443440
215.9055, 0.1375820
216.3876, 0.1633320
216.8698, 0.3982690
217.3519, 0.7122430
217.8340, 0.8500080
218.3161, 0.7945860
218.7982, 0.7129760
219.2803, 0.6560480
219.7625, 0.6121820
220.2446, 0.5518060
220.7267, 0.4596260
221.2088, 0.3586530
221.6909, 0.2829940
222.1730, 0.2336810
222.6552, 0.1896860
223.1373, 0.1099820
223.6194, 2.0254999E-02
224.1015, 2.7101999E-02
224.5836, 0.2153600
225.0657, 0.4347410
225.5479, 0.5155120
226.0300, 0.4553680
226.5121, 0.3654280
226.9942, 0.2982190
227.4763, 0.2554200
227.9584, 0.2502000
228.4406, 0.3128100
228.9227, 0.3871950
229.4048, 0.4204200
229.8869, 0.4146760
230.3690, 0.4193370
230.8511, 0.4902900
231.3333, 0.6211480
231.8154, 0.6845000
232.2975, 0.6259680
232.7796, 0.5247440
233.2617, 0.4074580
233.7438, 0.2849290
234.2260, 0.1893320
234.7081, 0.1372730
235.1902, 0.1248590
235.6723, 0.1719840
236.1544, 0.4056030
236.6365, 0.5949450
237.1187, 0.5759880
237.6008, 0.3891650
238.0829, 0.2257120
238.5650, 0.3069280
239.0471, 0.6849200
239.5292, 0.9188370
240.0114, 0.8565040
240.4935, 0.7710160
240.9756, 0.7907190
241.4577, 0.8888010
241.9398, 0.9502510
242.4219, 0.8463120
242.9041, 0.5398950
243.3862, 0.3510700
243.8683, 0.3710390
244.3504, 0.4252000
244.8325, 0.4709370
245.3146, 0.4970570
245.7968, 0.5006590
246.2789, 0.4777380
246.7610, 0.4255760
247.2431, 0.3693770
247.7252, 0.2408250
248.2073, 0.1701150
248.6895, 0.2674430
249.1716, 0.4795090
249.6537, 0.6520110
250.1358, 0.6446110
250.6179, 0.4393780
251.1000, 0.3320490
251.5822, 0.4166280
252.0643, 0.4893720
252.5464, 0.4570760
253.0285, 0.3459380
253.5106, 0.2378830
253.9927, 0.1936480
254.4748, 0.2141830
254.9570, 0.2752720
255.4391, 0.4421630
255.9212, 0.5733730
256.4033, 0.5981060
256.8854, 0.5445260
257.3676, 0.4856970
257.8497, 0.4707760
258.3318, 0.4887020
258.8139, 0.4675840
259.2960, 0.3617360
259.7781, 0.2895770
260.2603, 0.3198370
260.7424, 0.4184970
261.2245, 0.4957910
261.7066, 0.5020550
262.1887, 0.4485230
262.6708, 0.3922600
263.1530, 0.3315500
263.6351, 0.2700840
264.1172, 0.1730950
264.5993, 7.6582998E-02
265.0814, 7.7399001E-02
265.5635, 0.2481240
266.0457, 0.5074470
266.5278, 0.5792240
267.0099, 0.3711670
267.4920, 0.1662680
267.9741, 3.9820001E-02
268.4562, 1.5179000E-02
268.9384, 8.0660004E-03
269.4204, 6.8983003E-02
269.9026, 0.1843090
270.3847, 0.2799620
270.8668, 0.3794450
271.3489, 0.4111500
271.8310, 0.2833910
272.3131, 8.0385000E-02
272.7953, 3.0991999E-02
273.2774, 1.2476000E-02
273.7595, 0.1309400
274.2416, 0.2085750
274.7237, 0.2501520
275.2058, 0.2606840
275.6880, 0.2147970
276.1701, 0.1443910
276.6522, 0.1090540
277.1343, 0.1271690
277.6164, 0.1647040
278.0985, 0.1720790
278.5807, 0.1521950
279.0628, 0.1559730
279.5449, 0.1966990
280.0270, 0.2698580
280.5091, 0.4003700
280.9912, 0.6164280
281.4734, 0.7796150
281.9555, 0.6586270
282.4376, 0.3338720
282.9197, 0.1530830
283.4018, 0.3619190
283.8839, 0.6949150
284.3661, 0.7654400
284.8482, 0.5144760
285.3303, 0.2267030
285.8124, 0.1415240
286.2945, 0.1871670
286.7766, 0.1914160
287.2588, 4.5125000E-02
287.7409, 0.1180860
288.2230, 0.1112170
288.7051, 8.3659999E-02
289.1872, 0.2546610
289.6693, 0.2591940
290.1515, 0.1584070
290.6336, 5.5505000E-02
291.1157, 5.8720000E-02
291.5978, 0.1410850
292.0799, 0.1347180
292.5620, 3.9205000E-02
293.0442, 6.2045999E-02
293.5263, 0.1390910
294.0084, 0.1968190
294.4905, 0.2429520
294.9726, 0.2766560
295.4547, 0.3031660
295.9369, 0.3477900
296.4190, 0.4045810
296.9011, 0.3831630
297.3832, 0.1914680
297.8653, 3.2612000E-02
298.3474, 0.1325790
298.8296, 9.5622003E-02
299.3117, 2.1327000E-02
299.7938, 2.9588001E-02
300.2759, 6.1905999E-02
300.7580, 0.1028440
301.2401, 0.1674070
301.7223, 0.2286910
302.2044, 0.2636970
302.6865, 0.2742550
303.1686, 0.2721960
303.6507, 0.2678740
304.1328, 0.2562890
304.6150, 0.2107200
305.0971, 9.9574000E-02
305.5792, 1.2874000E-02
306.0613, 3.9298002E-02
306.5434, 0.1442160
307.0255, 0.2379720
307.5077, 0.2758410
307.9898, 0.2781130
308.4719, 0.2803100
308.9540, 0.2769050
309.4361, 0.2914090
309.9182, 0.3959020
310.4004, 0.5187370
310.8825, 0.5336490
311.3646, 0.3299670
311.8467, 7.1797997E-02
312.3288, 3.3549999E-03
312.8109, 0.1250750
313.2931, 0.2996010
313.7752, 0.5031160
314.2573, 0.6884640
314.7394, 0.7863270
315.2215, 0.7587650
315.7036, 0.7107730
316.1858, 0.7564990
316.6679, 0.8950460
317.1500, 1.010795
317.6321, 1.033566
318.1142, 1.046834
318.5963, 1.104096
319.0785, 1.202634
319.5606, 1.421953
320.0427, 1.757826
320.5248, 2.238716
321.0069, 2.987769
321.4890, 3.877200
321.9712, 5.304399
322.4533, 7.591100
322.9354, 10.67128
323.4175, 14.10558
323.8996, 18.30966
324.3817, 22.70702
324.8639, 25.75121
325.3460, 27.28396
325.8281, 27.55132
326.3102, 25.91034
326.7923, 23.16630
327.2744, 21.05308
327.7566, 20.38482
328.2387, 20.58033
328.7208, 20.82067
329.2029, 21.08448
329.6850, 21.51196
330.1671, 22.18811
330.6493, 23.08794
331.1314, 24.23576
331.6135, 25.77188
332.0956, 27.32780
332.5777, 28.57384
333.0598, 29.51303
333.5420, 30.26626
334.0241, 30.79573
334.5062, 31.20765
334.9883, 31.65118
335.4704, 32.12900
335.9525, 32.63348
336.4347, 33.25581
336.9168, 33.92279
337.3989, 34.34036
337.8810, 34.42964
338.3631, 34.26534
338.8452, 33.93019
339.3274, 33.43793
339.8094, 32.77244
340.2916, 31.79935
340.7737, 30.68657
341.2558, 29.97122
341.7379, 29.93277
342.2200, 29.25801
342.7021, 26.44562
343.1843, 22.05231
343.6664, 17.69735
344.1485, 13.19823
344.6306, 9.162083
345.1127, 6.262807
345.5948, 4.489942
346.0770, 3.283957
346.5591, 2.470048
347.0412, 1.998860
347.5233, 1.657965
348.0054, 1.481891
348.4875, 1.344997
348.9697, 1.195261
349.4518, 1.037382
349.9339, 0.8876020
350.4160, 0.7452410
350.8981, 0.6152100
351.3802, 0.5081390
351.8624, 0.4208900
352.3445, 0.3605750
352.8266, 0.3445630
353.3087, 0.3538870
353.7908, 0.3497870
354.2729, 0.3198580
354.7551, 0.3025080
355.2372, 0.3453330
355.7193, 0.4564140
356.2014, 0.5668100
356.6835, 0.6053010
357.1656, 0.6818280
357.6478, 0.9130970
358.1299, 1.291816
358.6120, 1.704611
359.0941, 2.075705
359.5762, 2.413407
360.0583, 2.785686
360.5405, 3.291312
361.0226, 3.726647
361.5047, 4.059487
361.9868, 4.259587
362.4689, 4.220449
362.9510, 3.863317
363.4332, 3.350044
363.9153, 3.077845
364.3974, 3.132992
364.8795, 3.236943
365.3616, 3.375555
365.8438, 3.534664
366.3259, 3.706054
366.8080, 3.886591
367.2901, 4.052407
367.7722, 4.161559
368.2543, 4.175103
368.7365, 4.320208
369.2186, 4.755560
369.7007, 5.173918
370.1828, 5.369395
370.6649, 5.376476
371.1470, 5.367147
371.6292, 5.472388
372.1113, 5.680447
372.5934, 5.830011
373.0755, 5.866859
373.5576, 5.913391
374.0397, 6.037497
374.5219, 6.174728
375.0040, 6.228166
375.4861, 6.156669
375.9682, 6.003622
376.4503, 5.863211
376.9324, 5.776067
377.4146, 5.631776
377.8967, 5.535999
378.3788, 5.317327
378.8609, 4.771125
379.3430, 3.918069
379.8251, 3.011678
380.3073, 2.330082
380.7894, 1.906899
381.2715, 1.472270
381.7536, 0.8774680
382.2357, 0.4172310
382.7178, 0.2552890
383.2000, 0.3009660
383.6821, 0.3721170
384.1642, 0.3596760
384.6463, 0.2845790
385.1284, 0.2252990
385.6105, 0.1645880
386.0927, 0.1534760
386.5748, 0.2572910
387.0569, 0.3776410
387.5390, 0.4126550
388.0211, 0.3340760
388.5032, 0.2102070
388.9854, 0.1267720
389.4675, 8.6245000E-02
389.9496, 7.3367998E-02
390.4317, 0.1304260
390.9138, 0.1789470
391.3959, 0.1592470
391.8781, 8.8734001E-02
392.3602, 4.1437998E-02
392.8423, 9.0659000E-02
393.3244, 0.2111790
393.8065, 0.2688820
394.2886, 0.2156770
394.7708, 0.1954260
395.2529, 0.3274180
395.7350, 0.5173650
396.2171, 0.6366130
396.6992, 0.6415610
397.1813, 0.5678250
397.6635, 0.4161770
398.1456, 0.1793340
398.6277, 4.2605001E-02
399.1098, 0.1219140
399.5919, 0.2828450
400.0740, 0.3947590
400.5562, 0.4548970
401.0383, 0.4549750
401.5204, 0.3580620
402.0025, 0.1992700
402.4846, 6.6189997E-02
402.9667, 2.7133999E-02
403.4489, 0.1031110
403.9310, 0.2025090
404.4131, 0.3053650
404.8952, 0.3271830
405.3773, 0.1696930
405.8594, 1.3116000E-02
406.3416, 7.2185002E-02
406.8237, 2.2795999E-02
407.3058, 1.8538000E-02
407.7879, 1.0624000E-02
408.2700, 8.1141002E-02
408.7521, 0.1184110
409.2343, 0.1169110
409.7164, 0.1009430
410.1985, 6.0681000E-02
410.6806, 1.6139001E-02
411.1627, 6.5130000E-03
411.6448, 4.1414000E-02
412.1269, 7.4422002E-02
412.6090, 4.0855002E-02
413.0912, 8.4358998E-02
413.5733, 0.1317050
414.0554, 5.4388002E-02
414.5375, 5.4841999E-02
415.0196, 0.1573150
415.5017, 0.2464880
415.9839, 0.3240490
416.4660, 0.3937980
416.9481, 0.4480410
417.4302, 0.4491250
417.9123, 0.3105830
418.3944, 0.2245950
418.8766, 0.2612160
419.3587, 0.3309800
419.8408, 0.3363310
420.3229, 0.2546170
420.8050, 0.1406480
421.2871, 6.3455999E-02
421.7693, 2.2565000E-02
422.2514, 2.2677001E-02
422.7335, 8.3353996E-02
423.2156, 0.1634180
423.6977, 0.2805980
424.1798, 0.4046130
424.6620, 0.4693830
425.1441, 0.4226390
425.6262, 0.2982830
426.1083, 0.2288090
426.5904, 0.2495740
427.0725, 0.2576890
427.5547, 0.2310480
428.0368, 0.1821900
428.5189, 9.9141002E-02
429.0010, 1.7060000E-02
429.4831, 9.4640002E-02
429.9652, 2.7698999E-02
430.4474, 0.1838370
430.9295, 0.3472680
431.4116, 0.4463120
431.8937, 0.4855160
432.3758, 0.4470210
432.8579, 0.3572780
433.3401, 0.2897500
433.8222, 0.2804810
434.3043, 0.3095510
434.7864, 0.3558290
435.2685, 0.4228460
435.7506, 0.4696560
436.2328, 0.4658470
436.7149, 0.4389260
437.1970, 0.4520720
437.6791, 0.4971070
438.1612, 0.5159820
438.6433, 0.4868310
439.1255, 0.4395990
439.6076, 0.4463330
440.0897, 0.5290240
440.5718, 0.6172430
441.0539, 0.6238670
441.5360, 0.5504770
442.0182, 0.5412040
442.5003, 0.7101580
442.9824, 0.8517460
443.4645, 0.7902680
443.9466, 0.5826050
444.4287, 0.4193820
444.9109, 0.4004790
445.3930, 0.4786050
445.8751, 0.5288920
446.3572, 0.5046260
446.8393, 0.4931810
447.3214, 0.5161120
447.8036, 0.5509460
448.2857, 0.5845090
448.7678, 0.6120280
449.2499, 0.6301260
449.7320, 0.6232360
450.2141, 0.5810170
450.6963, 0.5706960
451.1784, 0.6503760
451.6605, 0.7027760
452.1426, 0.6751330
452.6247, 0.6106370
453.1068, 0.5659290
453.5890, 0.5648030
454.0711, 0.5993860
454.5532, 0.6724260
455.0353, 0.8163290
455.5174, 0.8854680
455.9995, 0.7696460
456.4817, 0.6474320
456.9638, 0.6092710
457.4459, 0.6499440
457.9280, 0.7178110
458.4101, 0.7881390
458.8922, 0.8584080
459.3744, 0.9283670
459.8565, 1.010786
460.3386, 1.049711
460.8207, 0.9776230
461.3028, 0.8571190
461.7849, 0.7558500
462.2671, 0.6825250
462.7492, 0.6388690
463.2313, 0.6634980
463.7134, 0.7310550
464.1955, 0.7328670
464.6776, 0.6254510
465.1598, 0.5154410
465.6419, 0.5371030
466.1240, 0.6754570
466.6061, 0.7695720
467.0882, 0.7859030
467.5703, 0.7655420
468.0525, 0.7235990
468.5346, 0.6652760
469.0167, 0.6046120
469.4988, 0.5464440
469.9809, 0.5002140
470.4630, 0.4879590
470.9452, 0.4968370
471.4273, 0.5527170
471.9094, 0.7594350
472.3915, 0.9557630
472.8736, 0.9819380
473.3557, 0.8465540
473.8379, 0.6805200
474.3200, 0.5939540
474.8021, 0.5802680
475.2842, 0.5406580
475.7663, 0.4098200
476.2484, 0.3357650
476.7306, 0.3827660
477.2127, 0.4778650
477.6948, 0.5541830
478.1769, 0.5886480
478.6590, 0.5805190
479.1411, 0.5021340
479.6233, 0.3390940
480.1054, 0.2610120
480.5875, 0.3180770
481.0696, 0.4190480
481.5517, 0.5686460
482.0338, 0.7211140
482.5159, 0.7714690
482.9980, 0.6186430
483.4802, 0.4219440
483.9623, 0.4538740
484.4444, 0.7157140
484.9265, 0.8681340
485.4086, 0.7645300
485.8907, 0.5395420
486.3729, 0.3503140
486.8550, 0.1905080
487.3371, 8.0197997E-02
487.8192, 4.4480000E-02
488.3013, 6.7064002E-02
488.7834, 0.1395340
489.2656, 0.2556270
489.7477, 0.3620860
490.2298, 0.4205400
490.7119, 0.4442580
491.1940, 0.4980770
491.6761, 0.6496480
492.1583, 0.7377460
492.6404, 0.7487110
493.1225, 0.6734810
493.6046, 0.4308300
494.0867, 3.9600000E-02
494.5688, 0.2906140
495.0510, 0.3138830
495.5331, 9.9099998E-04
496.0152, 0.2188140
496.4973, 0.3242930
496.9794, 0.3542080
497.4615, 0.2575480
497.9437, 0.1106430
498.4258, 1.8220000E-03
498.9079, 3.5262000E-02
499.3900, 8.3240001E-03
499.8721, 0.1014550
500.3542, 0.3153930
500.8364, 0.4420800
501.3185, 0.4383970
501.8006, 0.3634040
502.2827, 0.1969740
502.7648, 1.0892000E-02
503.2469, 0.1346310
503.7291, 8.5809000E-02
504.2112, 4.0920999E-02
504.6933, 0.1373620
505.1754, 0.2026880
505.6575, 0.1992280
506.1396, 7.2264999E-02
506.6218, 8.1165001E-02
507.1039, 0.1168040
507.5860, 3.3110000E-02
508.0681, 8.2207002E-02
508.5502, 0.2711870
509.0323, 0.4391940
509.5145, 0.4659160
509.9966, 0.3645240
510.4787, 0.2509690
510.9608, 0.1923810
511.4429, 0.1835280
511.9250, 0.2054770
512.4072, 0.3333450
512.8893, 0.3913630
513.3714, 0.2924460
513.8535, 0.1693390
514.3356, 0.1458420
514.8177, 0.2282530
515.2999, 0.3373340
515.7820, 0.4076290
516.2641, 0.4384200
516.7462, 0.4129800
517.2283, 0.2670980
517.7104, 0.1622740
518.1926, 0.1525030
518.6747, 0.1891690
519.1568, 0.2343970
519.6389, 0.2777040
520.1210, 0.3029100
520.6031, 0.2868940
521.0853, 0.2356880
521.5674, 0.1827880
522.0495, 0.1183420
522.5316, 8.2075998E-02
523.0137, 0.1434430
523.4958, 0.2472330
523.9780, 0.2766110
524.4601, 0.1569880
524.9422, 5.1410001E-02
525.4243, 7.8056999E-02
525.9064, 0.1978880
526.3885, 0.3331830
526.8707, 0.4678460
527.3528, 0.5752570
527.8349, 0.6202110
528.3170, 0.5942150
528.7991, 0.5739010
529.2813, 0.5574650
529.7634, 0.5480900
530.2455, 0.5596060
530.7276, 0.5759710
531.2097, 0.5575180
531.6918, 0.4907310
532.1740, 0.4278980
532.6561, 0.4727880
533.1382, 0.6869740
533.6203, 0.7967900
534.1024, 0.6766160
534.5845, 0.5696490
535.0667, 0.5717990
535.5488, 0.6529090
536.0309, 0.7451060
536.5130, 0.8189840
536.9951, 0.8867710
537.4772, 0.9694900
537.9594, 1.067446
538.4415, 1.161399
538.9236, 1.253328
539.4057, 1.330843
539.8878, 1.388565
540.3699, 1.425817
540.8521, 1.433605
541.3342, 1.359009
541.8163, 1.294589
542.2984, 1.355204
542.7805, 1.503884
543.2626, 1.589367
543.7448, 1.542510
544.2269, 1.432984
544.7090, 1.378404
545.1911, 1.401335
545.6732, 1.425538
546.1553, 1.465538
546.6375, 1.494468
547.1196, 1.496233
547.6017, 1.474245
548.0838, 1.429842
548.5659, 1.360680
549.0480, 1.296587
549.5302, 1.332886
550.0123, 1.555531
550.4944, 1.621423
550.9765, 1.286546
551.4586, 0.9614230
551.9407, 0.8799430
552.4229, 0.9685960
552.9050, 1.041106
553.3871, 1.006176
553.8692, 0.9107920
554.3513, 0.8356620
554.8334, 0.7811120
555.3156, 0.7992340
555.7977, 0.9742930
556.2798, 1.134995
556.7619, 0.9781620
557.2440, 0.5132870
557.7261, 0.1981870
558.2083, 0.1866840
558.6904, 0.2862300
559.1725, 0.3939070
559.6546, 0.4936900
560.1367, 0.5644900
560.6188, 0.5937500
561.1010, 0.5888400
561.5831, 0.5875840
562.0652, 0.6030420
562.5473, 0.5938220
563.0294, 0.5205660
563.5115, 0.4634070
563.9937, 0.4961950
564.4758, 0.5747310
564.9579, 0.5949580
565.4400, 0.4949450
565.9221, 0.3421640
566.4042, 0.2699870
566.8864, 0.2828710
567.3685, 0.3002610
567.8506, 0.3186030
568.3327, 0.3261820
568.8148, 0.2865830
569.2969, 0.2220980
569.7791, 0.2165480
570.2612, 0.3822140
570.7433, 0.5414340
571.2254, 0.4966910
571.7075, 0.3029110
572.1896, 0.1485430
572.6718, 9.1546997E-02
573.1539, 0.1212440
573.6360, 0.2450820
574.1181, 0.5067080
574.6002, 0.6386260
575.0823, 0.5353610
575.5645, 0.4226270
576.0466, 0.4142820
576.5287, 0.4589020
577.0108, 0.4545650
577.4929, 0.3634800
577.9750, 0.2485750
578.4572, 0.2099000
578.9393, 0.2618490
579.4214, 0.2914310
579.9035, 0.2689620
580.3856, 0.2607180
580.8677, 0.3251490
581.3499, 0.4140830
581.8320, 0.4429770
582.3141, 0.3737780
582.7962, 0.2860490
583.2783, 0.2320130
583.7604, 0.2166320
584.2426, 0.2703710
584.7247, 0.4080800
585.2068, 0.5528240
585.6889, 0.6563340
586.1710, 0.7112470
586.6531, 0.6821040
587.1352, 0.4675850
587.6173, 0.2987940
588.0994, 0.2768940
588.5815, 0.3162170
589.0637, 0.3232320
589.5458, 0.2786460
590.0279, 0.2079410
590.5100, 0.1275090
590.9921, 4.2287000E-02
591.4742, 1.5322000E-02
591.9564, 7.3850997E-02
592.4385, 0.1466850
592.9206, 0.2480420
593.4027, 0.3354500
593.8848, 0.3589010
594.3669, 0.3180970
594.8491, 0.2769600
595.3312, 0.2791570
595.8133, 0.3166290
596.2954, 0.3755030
596.7775, 0.4575220
597.2596, 0.4999840
597.7418, 0.4598620
598.2239, 0.3765540
598.7060, 0.3273890
599.1881, 0.3153400
599.6702, 0.3153390
600.1523, 0.3148420
600.6345, 0.3327190
601.1166, 0.4070250
601.5987, 0.5123810
602.0808, 0.5780390
602.5629, 0.5657750
603.0450, 0.5085640
603.5272, 0.4768630
604.0093, 0.4810170
604.4914, 0.4793070
604.9735, 0.4871630
605.4556, 0.4707330
605.9377, 0.3852060
606.4199, 0.2690830
606.9020, 0.1985010
607.3841, 0.2054880
607.8662, 0.2533230
608.3483, 0.3363450
608.8304, 0.4351610
609.3126, 0.4408840
609.7947, 0.3110000
610.2768, 0.1912150
610.7589, 0.2334960
611.2410, 0.4159780
611.7231, 0.4862940
612.2053, 0.3591740
612.6874, 0.2308390
613.1695, 0.1610260
613.6516, 0.1188600
614.1337, 5.8807001E-02
614.6158, 2.0155000E-02
615.0980, 7.4010000E-02
615.5801, 6.1246999E-02
616.0622, 1.1096000E-02
616.5443, 0.1016250
617.0264, 0.2498110
617.5085, 0.3319730
617.9907, 0.2438140
618.4728, 0.1323230
618.9549, 0.1245510
619.4370, 0.2173510
619.9191, 0.2901320
620.4012, 0.2822080
620.8834, 0.2166110
621.3655, 9.7521000E-02
621.8476, 6.2882997E-02
622.3297, 0.1829230
622.8118, 0.2343740
623.2939, 0.2223880
623.7761, 0.1388660
624.2582, 5.3709000E-02
624.7403, 0.1585390
625.2224, 8.5327998E-02
625.7045, 2.5424000E-02
626.1866, 7.9636998E-02
626.6688, 0.1986020
627.1509, 0.3050820
627.6330, 0.3715410
628.1151, 0.4149600
628.5972, 0.4641720
629.0793, 0.5194680
629.5615, 0.5155710
630.0436, 0.4144950
630.5257, 0.3286430
631.0078, 0.3474930
631.4899, 0.3983170
631.9720, 0.3760710
632.4542, 0.2475200
632.9363, 0.1703330
633.4184, 0.2837410
633.9005, 0.4587900
634.3826, 0.5292350
634.8647, 0.4935130
635.3469, 0.4254770
635.8290, 0.3615940
636.3111, 0.3058390
636.7932, 0.2708200
637.2753, 0.2425680
637.7574, 0.2573170
638.2396, 0.3848320
638.7217, 0.4793590
639.2038, 0.4426770
639.6859, 0.3365090
640.1680, 0.2710440
640.6501, 0.2784650
641.1323, 0.3056490
641.6144, 0.3149340
642.0965, 0.3076960
642.5786, 0.2826580
643.0607, 0.2221350
643.5428, 0.2083000
644.0250, 0.3507750
644.5071, 0.5801390
644.9892, 0.6428940
645.4713, 0.4020610
645.9534, 0.2381570
646.4355, 0.3421450
646.9177, 0.5197340
647.3998, 0.5647950
647.8819, 0.4791380
648.3640, 0.4125690
648.8461, 0.4673690
649.3282, 0.5910200
649.8104, 0.6284870
650.2925, 0.5536170
650.7746, 0.4750090
651.2567, 0.4145110
651.7388, 0.3420120
652.2209, 0.2050440
652.7031, 4.4027001E-02
653.1852, 3.6382001E-02
653.6673, 1.9610999E-02
654.1494, 0.1223580
654.6315, 0.2281450
655.1136, 0.3192650
655.5958, 0.3354770
656.0779, 0.2664270
656.5600, 0.2019060
657.0421, 0.2214370
657.5242, 0.3102140
658.0063, 0.3620820
658.4885, 0.3219460
658.9706, 0.3181240
659.4527, 0.4142260
659.9348, 0.5031400
660.4169, 0.4834060
660.8990, 0.3800860
661.3812, 0.3056390
661.8633, 0.3407230
662.3454, 0.4103840
662.8275, 0.3676320
663.3096, 0.2179870
663.7917, 0.1096230
664.2739, 7.6587997E-02
664.7560, 0.1011690
665.2381, 0.1839940
665.7202, 0.3098350
666.2023, 0.3940610
666.6844, 0.4218740
667.1666, 0.4279960
667.6487, 0.4009970
668.1308, 0.3711460
668.6129, 0.3843610
669.0950, 0.4354320
669.5771, 0.4666080
670.0593, 0.4273470
670.5414, 0.3492730
671.0235, 0.3462710
671.5056, 0.4480250
671.9877, 0.5132650
672.4698, 0.4834480
672.9520, 0.4418430
673.4341, 0.4722120
673.9162, 0.5502070
674.3983, 0.5788010
674.8804, 0.5080680
675.3625, 0.4130570
675.8447, 0.3352930
676.3268, 0.2705690
676.8089, 0.2070080
677.2910, 0.1442750
677.7731, 0.1020090
678.2552, 9.5810004E-02
678.7374, 0.1288440
679.2195, 0.2035730
679.7016, 0.4041610
680.1837, 0.4768000
680.6658, 0.2951940
681.1479, 9.1334000E-02
681.6301, 9.4969999E-03
682.1122, 3.5241999E-02
682.5943, 7.0896000E-02
683.0764, 7.6462001E-02
683.5585, 7.5227000E-02
684.0406, 0.1013420
684.5228, 0.1442060
685.0049, 0.1683210
685.4870, 0.1667390
685.9691, 0.1485030
686.4512, 0.1080860
686.9333, 6.0309000E-02
687.4155, 9.5482998E-02
687.8976, 0.3424210
688.3797, 0.4931300
688.8618, 0.4941080
689.3439, 0.4216030
689.8260, 0.2879170
690.3082, 0.1332710
690.7903, 3.1067001E-02
691.2724, 2.2088001E-02
691.7545, 7.0527002E-02
692.2366, 0.1560540
692.7188, 0.2661030
693.2009, 0.2712080
693.6830, 0.1275610
694.1651, 1.9943999E-02
694.6472, 6.9190003E-02
695.1293, 3.8766000E-02
695.6115, 3.6710000E-03
696.0936, 7.8397997E-02
696.5757, 9.1522999E-02
697.0578, 0.1026140
697.5399, 0.2734670
698.0220, 0.1879000
698.5042, 7.7743001E-02
698.9863, 0.2803070
699.4684, 0.2934920
699.9505, 0.2206560
700.4326, 0.2384880
700.9147, 0.3459390
701.3969, 0.3822530
701.8790, 0.3100910
702.3611, 0.2272660
702.8432, 0.1974310
703.3253, 0.1949090
703.8074, 0.1524210
704.2896, 3.5553999E-02
704.7717, 2.0136001E-02
705.2538, 4.7949001E-02
705.7359, 0.1694590
706.2180, 0.3273710
706.7001, 0.4869620
707.1823, 0.5728590
707.6644, 0.5522580
708.1465, 0.4729930
708.6286, 0.4041050
709.1107, 0.3467450
709.5928, 0.2749230
710.0750, 0.1707450
710.5571, 8.6459003E-02
711.0392, 3.9615002E-02
711.5213, 3.6648002E-02
712.0034, 9.4724000E-02
712.4855, 0.2238160
712.9677, 0.3020380
713.4498, 0.2268970
713.9319, 0.1417110
714.4140, 0.1946120
714.8961, 0.3259250
715.3782, 0.3816170
715.8604, 0.3107060
716.3425, 0.1969360
716.8246, 0.1319920
717.3067, 0.1160880
717.7888, 0.1948160
718.2709, 0.4582100
718.7531, 0.6201260
719.2352, 0.5194720
719.7173, 0.3283470
720.1994, 0.1896510
720.6815, 0.1063940
721.1636, 2.9758001E-02
721.6458, 9.3408003E-02
722.1279, 0.1807150
722.6100, 0.1491180
723.0921, 4.1986998E-02
723.5742, 6.3583001E-02
724.0563, 0.1468780
724.5385, 0.2159730
725.0206, 0.2764430
725.5027, 0.3307510
725.9848, 0.4059890
726.4669, 0.5485090
726.9490, 0.5887540
727.4312, 0.4005120
727.9132, 0.1901740
728.3953, 7.7008002E-02
728.8774, 5.5068001E-02
729.3596, 0.1001940
729.8417, 0.2647560
730.3238, 0.3983380
730.8059, 0.3887640
731.2880, 0.3012580
731.7701, 0.2147720
732.2523, 0.1462590
732.7344, 0.1046570
733.2165, 9.8125003E-02
733.6986, 0.1141170
734.1807, 0.1257210
734.6628, 0.1418800
735.1450, 0.1142410
735.6271, 2.6304999E-02
736.1092, 0.1245170
736.5913, 6.1686002E-02
737.0734, 7.6558001E-02
737.5555, 0.1493400
738.0377, 0.1187960
738.5198, 9.7295001E-02
739.0019, 0.1767460
739.4840, 0.2602930
739.9661, 0.2184830
740.4482, 9.1596000E-02
740.9304, 3.7512999E-02
741.4125, 0.1236620
741.8946, 0.2440240
742.3767, 0.2380040
742.8588, 9.7613998E-02
743.3409, 3.5999999E-03
743.8231, 2.0884000E-02
744.3052, 4.5674998E-02
744.7873, 0.1178850
745.2694, 0.1855880
745.7515, 0.2112770
746.2336, 0.1917720
746.7158, 0.1059780
747.1979, 0.1807700
747.6800, 0.4072160
748.1621, 0.3050370
748.6442, 5.0156001E-02
749.1263, 3.8309000E-02
749.6085, 9.5402002E-02
750.0906, 0.2659120
750.5727, 0.3153700
751.0548, 0.2721280
751.5369, 0.2439730
752.0190, 0.2273180
752.5012, 0.2208480
752.9833, 0.2352980
753.4654, 0.2561890
753.9475, 0.2927400
754.4296, 0.3248760
754.9117, 0.2872660
755.3939, 0.1053960
755.8760, 4.0910002E-03
756.3581, 8.1349999E-02
756.8402, 0.2373610
757.3223, 0.3912400
757.8044, 0.5175360
758.2866, 0.5776700
758.7687, 0.5510380
759.2508, 0.4947030
759.7329, 0.5025230
760.2150, 0.5724770
760.6971, 0.6072750
761.1793, 0.5863360
761.6614, 0.5908610
762.1435, 0.6663910
762.6256, 0.7781860
763.1077, 0.9003740
763.5898, 1.044435
764.0720, 1.083909
764.5541, 0.8825470
765.0362, 0.7077100
765.5183, 0.7232080
766.0004, 0.8245080
766.4825, 0.8741010
766.9647, 0.8452440
767.4468, 0.7842860
767.9289, 0.7069890
768.4110, 0.6473790
768.8931, 0.7115940
769.3752, 0.8940370
769.8574, 1.028230
770.3395, 1.075111
770.8216, 1.077633
771.3037, 1.071509
771.7858, 1.052418
772.2679, 0.9939970
772.7501, 0.7961680
773.2322, 0.7054060
773.7143, 0.8468690
774.1964, 0.9966490
774.6785, 1.010055
775.1606, 0.9219890
775.6428, 0.8150230
776.1249, 0.7163640
776.6070, 0.6457160
777.0891, 0.6246340
777.5712, 0.6444350
778.0533, 0.6912090
778.5355, 0.7624350
779.0176, 0.8558930
779.4997, 0.9753550
779.9818, 1.063488
780.4639, 1.030607
780.9460, 0.8604180
781.4282, 0.7626190
781.9103, 0.7488020
782.3924, 0.7892960
782.8745, 0.9494800
783.3566, 1.105605
783.8387, 1.136503
784.3209, 1.057812
784.8030, 0.9856410
785.2851, 0.9504210
785.7672, 0.9624560
786.2493, 1.037892
786.7314, 1.163304
787.2136, 1.350177
787.6957, 1.579045
788.1778, 1.735859
788.6599, 1.742621
789.1420, 1.649567
789.6241, 1.556507
790.1063, 1.448991
790.5884, 1.426962
791.0705, 1.529102
791.5526, 1.657124
792.0347, 1.809803
792.5168, 1.937038
792.9990, 1.960036
793.4811, 1.865354
793.9632, 1.744216
794.4453, 1.541987
794.9274, 1.413953
795.4095, 1.534727
795.8917, 1.755340
796.3738, 1.833321
796.8559, 1.733944
797.3380, 1.614464
797.8201, 1.595586
798.3022, 1.656130
798.7844, 1.787896
799.2665, 1.985487
799.7486, 2.033699
800.2307, 1.857712
800.7128, 1.660390
801.1949, 1.603597
801.6771, 1.642159
802.1592, 1.601215
802.6413, 1.367688
803.1234, 1.242727
803.6055, 1.315502
804.0876, 1.410381
804.5698, 1.449465
805.0519, 1.450912
805.5340, 1.457191
806.0161, 1.478739
806.4982, 1.465347
806.9803, 1.320219
807.4625, 1.159174
807.9446, 1.176816
808.4267, 1.324268
808.9088, 1.424345
809.3909, 1.425091
809.8730, 1.353151
810.3552, 1.221173
810.8373, 1.047131
811.3194, 0.9394170
811.8015, 0.8970730
812.2836, 0.9311510
812.7657, 1.169402
813.2479, 1.333113
813.7300, 1.154375
814.2121, 0.7928080
814.6942, 0.5917260
815.1763, 0.6268620
815.6584, 0.7054620
816.1406, 0.7792710
816.6227, 0.8577440
817.1048, 0.9911870
817.5869, 1.123496
818.0690, 1.131567
818.5511, 0.9851700
819.0333, 0.7943820
819.5154, 0.6537280
819.9975, 0.5587120
820.4796, 0.5075650
820.9617, 0.4992620
821.4438, 0.4810910
821.9260, 0.4304190
822.4081, 0.4108120
822.8902, 0.5029170
823.3723, 0.6745940
823.8544, 0.7188130
824.3365, 0.4421220
824.8187, 0.3483350
825.3008, 0.6338530
825.7829, 0.9083330
826.2650, 0.9594170
826.7471, 0.8659820
827.2292, 0.7604580
827.7114, 0.6707410
828.1935, 0.6166100
828.6756, 0.6261120
829.1577, 0.6637830
829.6398, 0.6905770
830.1219, 0.7138280
830.6041, 0.7670770
831.0862, 0.8556860
831.5683, 0.9388070
832.0504, 0.9780990
832.5325, 0.9812130
833.0146, 0.9717560
833.4968, 0.9467320
833.9789, 0.9304570
834.4610, 0.9198840
834.9431, 0.9340770
835.4252, 0.9869150
835.9073, 1.074314
836.3895, 1.203446
836.8716, 1.461088
837.3537, 1.535706
837.8358, 1.178023
838.3179, 0.8766670
838.8000, 0.9258130
839.2822, 1.148499
839.7643, 1.306786
840.2464, 1.353751
840.7285, 1.372725
841.2106, 1.432395
841.6927, 1.477263
842.1749, 1.395405
842.6570, 1.248720
843.1391, 1.231867
843.6212, 1.360701
844.1033, 1.464227
844.5854, 1.412707
845.0676, 1.280968
845.5497, 1.265934
846.0318, 1.392780
846.5139, 1.485944
846.9960, 1.535017
847.4781, 1.557626
847.9603, 1.531668
848.4424, 1.510010
848.9245, 1.570741
849.4066, 1.713433
849.8887, 1.829217
850.3708, 1.888133
850.8530, 1.941292
851.3351, 2.020532
851.8172, 2.063833
852.2993, 2.086928
852.7814, 2.094080
853.2635, 2.086140
853.7457, 2.017765
854.2278, 2.027536
854.7099, 2.006053
855.1920, 1.983332
855.6741, 2.004237
856.1563, 1.944915
856.6384, 1.965271
857.1205, 1.953911
857.6026, 1.957131
858.0847, 1.934902
858.5668, 1.929472
859.0490, 1.951896
859.5311, 1.947577
860.0132, 1.915897
860.4953, 1.920304
860.9774, 1.860390
861.4595, 1.864939
861.9417, 1.907515
862.4238, 1.897349
862.9059, 1.902622
863.3880, 1.894581
863.8701, 1.825945
864.3522, 1.864427
864.8344, 1.856596
865.3165, 1.801087
865.7986, 1.834425
866.2807, 1.785431
866.7628, 1.945102
867.2449, 1.739644
867.7271, 1.413688
868.2092, 1.292458
868.6913, 1.320808
869.1733, 1.363364
869.6555, 1.387754
870.1376, 1.377347
870.6197, 1.316611
871.1018, 1.224820
871.5839, 1.140690
872.0660, 1.063561
872.5482, 1.046870
873.0303, 1.146031
873.5124, 1.172306
873.9945, 0.9981820
874.4766, 0.7441230
874.9587, 0.5563340
875.4409, 0.4372090
875.9230, 0.4076470
876.4051, 0.5559120
876.8872, 0.6794060
877.3693, 0.7373890
877.8514, 0.7627890
878.3336, 0.7785300
878.8157, 0.7707220
879.2978, 0.6752410
879.7799, 0.4397140
880.2620, 0.2715430
880.7441, 0.3951150
881.2263, 0.6021890
881.7084, 0.6274290
882.1905, 0.5175600
882.6726, 0.4301590
883.1547, 0.4154820
883.6368, 0.4472200
884.1190, 0.5207770
884.6011, 0.5946390
885.0832, 0.5163160
885.5653, 0.2877000
886.0474, 0.1074880
886.5295, 5.1000002E-03
887.0117, 3.4967002E-02
887.4938, 1.1826000E-02
887.9759, 5.6182999E-02
888.4580, 0.1367880
888.9401, 0.2558130
889.4222, 0.2937200
889.9044, 0.1693490
890.3865, 7.0560001E-02
890.8686, 3.7567999E-02
891.3507, 5.3167000E-02
891.8328, 0.1394010
892.3149, 0.2706180
892.7971, 0.3211400
893.2792, 0.2108530
893.7613, 0.1031110
894.2434, 7.7261999E-02
894.7255, 7.5055003E-02
895.2076, 3.8183998E-02
895.6898, 1.8301999E-02
896.1719, 6.1400998E-02
896.6540, 7.7678002E-02
897.1361, 4.1830000E-02
897.6182, 0.1090520
898.1003, 0.3038310
898.5825, 0.4379220
899.0646, 0.5016570
899.5467, 0.3994320
900.0288, 0.1247810
900.5109, 6.6924997E-02
900.9930, 2.3558000E-02
901.4752, 0.2726530
901.9573, 0.3703880
902.4394, 0.2907600
902.9215, 0.2675460
903.4036, 0.3417530
903.8857, 0.3663900
904.3679, 0.2595080
904.8500, 0.1038680
905.3321, 1.9756000E-02
905.8142, 0.1091620
906.2963, 0.1057440
906.7784, 0.1300950
907.2606, 0.2538050
907.7427, 0.1226990
908.2248, 3.3007000E-02
908.7069, 7.5094000E-02
909.1890, 3.3314999E-02
909.6711, 2.4715001E-02
910.1533, 8.5675001E-02
910.6354, 0.1373760
911.1175, 0.1900440
911.5996, 0.2162730
912.0817, 0.1555470
912.5638, 7.0881002E-02
913.0460, 9.0380996E-02
913.5281, 0.2081450
914.0102, 0.2788860
914.4923, 0.2062440
914.9744, 6.6596001E-02
915.4565, 7.3013999E-02
915.9387, 0.1833330
916.4208, 0.1230700
916.9029, 9.5137000E-02
917.3850, 0.2394010
917.8671, 0.2184650
918.3492, 9.4419003E-02
918.8314, 9.1783002E-02
919.3135, 0.3068110
919.7956, 0.2758950
920.2777, 9.5008999E-02
920.7598, 0.2927400
921.2419, 0.1667080
921.7241, 1.8478001E-02
922.2062, 3.8640000E-02
922.6883, 0.1530370
923.1704, 0.2039940
923.6525, 0.1694260
924.1346, 0.1555090
924.6168, 0.1909250
925.0989, 0.2096550
925.5810, 0.1865860
926.0631, 0.1460460
926.5452, 0.1016040
927.0273, 5.8711998E-02
927.5095, 2.4946000E-02
927.9916, 2.9569999E-03
928.4737, 5.6540002E-03
928.9558, 7.8106001E-02
929.4379, 0.1440650
929.9200, 4.2219002E-02
930.4022, 0.1231670
930.8843, 0.1312760
931.3664, 4.3965001E-02
931.8485, 0.1938360
932.3306, 0.1442790
932.8127, 3.1571999E-02
933.2949, 8.3731003E-02
933.7770, 0.2170630
934.2591, 0.1687710
934.7412, 5.2634999E-02
935.2233, 0.1638130
935.7054, 2.7783001E-02
936.1876, 0.1743300
936.6697, 0.1859560
937.1518, 4.1212000E-02
937.6339, 1.7320000E-03
938.1160, 6.8842001E-02
938.5981, 0.1176980
939.0803, 0.1108780
939.5624, 9.9537998E-02
940.0445, 0.1186040
940.5266, 0.1613500
941.0087, 0.2103680
941.4908, 0.2650400
941.9730, 0.3308590
942.4551, 0.4541300
942.9372, 0.5168520
943.4193, 0.4466120
943.9014, 0.3313400
944.3835, 0.2111160
944.8657, 0.1030710
945.3478, 8.9989997E-02
945.8299, 0.2501030
946.3120, 0.3771640
946.7941, 0.4304230
947.2762, 0.4374870
947.7584, 0.3943750
948.2405, 0.3215580
948.7226, 0.2279160
949.2047, 0.1250300
949.6868, 7.6324001E-02
950.1689, 0.1457600
950.6511, 0.2354450
951.1332, 0.2745420
951.6153, 0.2879980
952.0974, 0.3115600
952.5795, 0.3392570
953.0616, 0.3370770
953.5438, 0.2934130
954.0259, 0.2471790
954.5080, 0.2414820
954.9901, 0.2617880
955.4722, 0.2751690
955.9543, 0.2835200
956.4365, 0.2941340
956.9186, 0.3100540
957.4007, 0.3557260
957.8828, 0.4509950
958.3649, 0.5423780
958.8470, 0.5317010
959.3292, 0.4220190
959.8113, 0.3613700
960.2934, 0.3520150
960.7755, 0.3810450
961.2576, 0.4656100
961.7397, 0.5088260
962.2219, 0.4107140
962.7040, 0.2221800
963.1861, 0.1220100
963.6682, 0.1228230
964.1503, 0.1712650
964.6324, 0.3427490
965.1146, 0.4405140
965.5967, 0.3443530
966.0788, 0.1877810
966.5609, 0.1060870
967.0430, 9.6497998E-02
967.5251, 0.1111730
968.0073, 0.1554720
968.4894, 0.2075920
968.9715, 0.3243500
969.4536, 0.3837890
969.9357, 0.2643070
970.4178, 8.1969000E-02
970.9000, 2.2489000E-02
971.3821, 2.9943001E-02
971.8642, 4.0610999E-02
972.3463, 0.2797930
972.8284, 0.4700050
973.3105, 0.4763410
973.7927, 0.4008370
974.2748, 0.3194190
974.7569, 0.2593050
975.2390, 0.2359360
975.7211, 0.2543350
976.2032, 0.2796310
976.6854, 0.2925790
977.1675, 0.2739520
977.6496, 0.2098050
978.1317, 0.1438560
978.6138, 9.6676998E-02
979.0959, 7.3918998E-02
979.5781, 7.2910003E-02
980.0602, 9.5268004E-02
980.5423, 0.1250920
981.0244, 0.1389450
981.5065, 0.1473160
981.9886, 0.1779600
982.4708, 0.2272540
982.9529, 0.2839310
983.4350, 0.3442380
983.9171, 0.3898610
984.3992, 0.4098880
984.8813, 0.4056290
985.3635, 0.3679770
985.8456, 0.3015820
986.3277, 0.2942610
986.8098, 0.3568570
987.2919, 0.3718900
987.7740, 0.3018770
988.2562, 0.2056990
988.7383, 0.1472380
989.2204, 0.1295410
989.7025, 0.1218110
990.1846, 0.1184110
990.6667, 0.1423950
991.1489, 0.2123600
991.6310, 0.2786660
992.1131, 0.3420880
992.5952, 0.3602580
993.0773, 0.2786500
993.5594, 0.1425210
994.0416, 8.4422000E-02
994.5237, 0.1288190
995.0058, 0.1789640
995.4879, 0.2711400
995.9700, 0.3289340
996.4521, 0.2954250
996.9343, 0.2356980
997.4164, 0.2237120
997.8985, 0.2478940
998.3806, 0.2278150
998.8627, 0.1061970
999.3448, 3.0440001E-02
999.8270, 5.9393998E-02
1000.309, 0.1009140
1000.791, 9.9725999E-02
1001.273, 8.9524999E-02
1001.755, 0.1112240
1002.238, 0.1678300
1002.720, 0.2487190
1003.202, 0.4211750
1003.684, 0.4911200
1004.166, 0.2347530
1004.648, 2.7404999E-02
1005.130, 1.4452000E-02
1005.612, 0.1565130
1006.094, 0.2976800
1006.577, 0.3655930
1007.059, 0.3804930
1007.541, 0.3328230
1008.023, 0.2760930
1008.505, 0.2433520
1008.987, 0.2250530
1009.469, 0.2184400
1009.951, 0.2153890
1010.433, 0.1919860
1010.916, 0.1479070
1011.398, 0.1298320
1011.880, 0.1862310
1012.362, 0.2593010
1012.844, 0.2687900
1013.326, 0.2459030
1013.808, 0.2509740
1014.290, 0.2833850
1014.773, 0.3187700
1015.255, 0.3455770
1015.737, 0.3460510
1016.219, 0.2935620
1016.701, 0.2242190
1017.183, 0.2321700
1017.665, 0.2876250
1018.147, 0.2884710
1018.629, 0.2313570
1019.112, 0.1593410
1019.594, 9.1098003E-02
1020.076, 6.5116003E-02
1020.558, 0.1344840
1021.040, 0.2582810
1021.522, 0.3090690
1022.004, 0.2995600
1022.486, 0.3632540
1022.969, 0.5122890
1023.451, 0.5893750
1023.933, 0.5206640
1024.415, 0.3836130
1024.897, 0.2563130
1025.379, 0.1537150
1025.861, 0.1716020
1026.343, 0.3197080
1026.825, 0.3816080
1027.308, 0.3213480
1027.790, 0.2647440
1028.272, 0.2694660
1028.754, 0.2960970
1029.236, 0.3054130
1029.718, 0.3017510
1030.200, 0.2774540
1030.682, 0.2159680
1031.165, 0.1984630
1031.647, 0.2461860
1032.129, 0.2970440
1032.611, 0.3230570
1033.093, 0.3383060
1033.575, 0.3673040
1034.057, 0.4057070
1034.539, 0.3884590
1035.021, 0.2881340
1035.504, 0.2019380
1035.986, 0.1081560
1036.468, 9.0758003E-02
1036.950, 0.2382940
1037.432, 0.4254360
1037.914, 0.4816030
1038.396, 0.4145180
1038.878, 0.3848290
1039.360, 0.4206890
1039.843, 0.4391980
1040.325, 0.4399300
1040.807, 0.4157490
1041.289, 0.3267640
1041.771, 0.2393370
1042.253, 0.2545190
1042.735, 0.3648100
1043.217, 0.4153150
1043.700, 0.4033200
1044.182, 0.3369000
1044.664, 9.5417999E-02
1045.146, 5.7303000E-02
1045.628, 5.2855000E-02
1046.110, 0.2630590
1046.592, 0.4201560
1047.074, 0.5166250
1047.557, 0.5135060
1048.039, 0.3003460
1048.521, 0.1663750
1049.003, 0.2003100
1049.485, 0.2472150
1049.967, 0.2126830
1050.449, 0.1736640
1050.931, 0.2385160
1051.413, 0.3888440
1051.896, 0.4904640
1052.378, 0.5350860
1052.860, 0.5068780
1053.342, 0.3210820
1053.824, 0.1579170
1054.306, 0.1059860
1054.788, 0.1199510
1055.270, 0.1752200
1055.752, 0.2529330
1056.235, 0.2768170
1056.717, 0.2046250
1057.199, 0.1616640
1057.681, 0.2220510
1058.163, 0.2718880
1058.645, 0.2088330
1059.127, 0.1405950
1059.609, 0.2305160
1060.092, 0.4214640
1060.574, 0.4764150
1061.056, 0.3000310
1061.538, 0.1414310
1062.020, 7.0194997E-02
1062.502, 5.0280001E-02
1062.984, 8.3676003E-02
1063.466, 0.1471890
1063.948, 0.2420700
1064.431, 0.3432940
1064.913, 0.3834050
1065.395, 0.3339740
1065.877, 0.3018010
1066.359, 0.3628240
1066.841, 0.4091690
1067.323, 0.3835530
1067.805, 0.3163950
1068.287, 0.2227970
1068.770, 0.1239830
1069.252, 3.4936000E-02
1069.734, 4.6877999E-02
1070.216, 9.2044003E-02
1070.698, 9.2283003E-02
1071.180, 3.2398999E-02
1071.662, 0.2045570
1072.144, 0.4087160
1072.627, 0.3189640
1073.109, 6.7566998E-02
1073.591, 4.9178999E-02
1074.073, 3.1714000E-02
1074.555, 0.1283570
1075.037, 0.1841320
1075.519, 0.2103710
1076.001, 0.2122680
1076.484, 0.1925400
1076.966, 0.1300900
1077.448, 5.6460001E-02
1077.930, 6.2370002E-03
1078.412, 1.1110000E-02
1078.894, 1.8178999E-02
1079.376, 0.1615240
1079.858, 0.2534640
1080.340, 0.1550920
1080.823, 3.3479001E-02
1081.305, 1.4506000E-02
1081.787, 6.3427001E-02
1082.269, 0.1331210
1082.751, 0.2059470
1083.233, 0.2434650
1083.715, 0.2082470
1084.197, 0.1907570
1084.679, 0.2706560
1085.161, 0.3425450
1085.644, 0.3298550
1086.126, 0.2677230
1086.608, 0.1824980
1087.090, 9.4290003E-02
1087.572, 5.2577998E-02
1088.054, 8.1271999E-02
1088.536, 0.1215460
1089.018, 0.1445350
1089.501, 0.1765530
1089.983, 0.2744190
1090.465, 0.3576300
1090.947, 0.3161890
1091.429, 0.1876750
1091.911, 7.9061002E-02
1092.393, 8.9109996E-03
1092.875, 2.8052000E-02
1093.358, 0.2827560
1093.840, 0.4705890
1094.322, 0.3991580
1094.804, 0.2405740
1095.286, 0.1154030
1095.768, 4.4404998E-02
1096.250, 5.0510000E-02
1096.732, 0.1366140
1097.214, 0.1969570
1097.697, 0.1663130
1098.179, 0.1455410
1098.661, 0.1606950
1099.143, 0.2089550
1099.625, 0.3108520
1100.107, 0.4325770
1100.589, 0.5539740
1101.071, 0.6558240
1101.553, 0.6405550
1102.036, 0.3720350
1102.518, 0.1778380
1103.000, 0.2247490
1103.482, 0.2748760
1103.964, 0.1439120
1104.446, 1.6125999E-02
1104.928, 6.3099997E-04
1105.410, 0.1584800
1105.893, 0.2329650
1106.375, 0.1439410
1106.857, 9.7395003E-02
1107.339, 0.1748010
1107.821, 0.2446270
1108.303, 0.2647130
1108.785, 0.2513120
1109.267, 0.1939570
1109.750, 0.1202190
1110.232, 0.1037700
1110.714, 0.1675140
1111.196, 0.1927590
1111.678, 0.1443230
1112.160, 9.0042002E-02
1112.642, 4.0100000E-04
1113.124, 4.5761999E-02
1113.606, 4.5565002E-02
1114.089, 0.1928360
1114.571, 0.2709440
1115.053, 0.2760210
1115.535, 0.2486530
1116.017, 0.1292170
1116.499, 7.6057002E-02
1116.981, 0.1429910
1117.463, 0.2162850
1117.945, 0.2547530
1118.428, 0.2738640
1118.910, 0.2931490
1119.392, 0.3082760
1119.874, 0.2912010
1120.356, 0.2119510
1120.838, 0.1789780
1121.320, 0.2143380
1121.802, 0.2561680
1122.285, 0.3073670
1122.767, 0.3229370
1123.249, 0.2454170
1123.731, 0.1262160
1124.213, 0.1032290
1124.695, 0.1971830
1125.177, 0.1859170
1125.659, 2.3716999E-02
1126.141, 9.6167997E-02
1126.624, 0.1458680
1127.106, 0.1244870
1127.588, 1.7313000E-02
1128.070, 0.1111500
1128.552, 0.1682110
1129.034, 0.1652250
1129.516, 0.1676910
1129.998, 0.1765780
1130.480, 0.1635220
1130.963, 0.1192390
1131.445, 0.1125850
1131.927, 0.1866040
1132.409, 0.2299480
1132.891, 0.1222420
1133.373, 5.6416001E-02
1133.855, 7.7871002E-02
1134.337, 4.8477001E-02
1134.820, 0.1653040
1135.302, 0.2676410
1135.784, 0.3229100
1136.266, 0.3238920
1136.748, 0.3361470
1137.230, 0.4037430
1137.712, 0.4698520
1138.194, 0.4450300
1138.677, 0.3517660
1139.159, 0.2485380
1139.641, 0.1478610
1140.123, 0.1232570
1140.605, 0.1689090
1141.087, 0.1776700
1141.569, 0.1107380
1142.051, 5.8072001E-02
1142.533, 0.1114260
1143.016, 0.2050420
1143.498, 0.2462860
1143.980, 0.2413040
1144.462, 0.1689790
1144.944, 6.8069004E-02
1145.426, 5.6988999E-02
1145.908, 0.1447670
1146.390, 0.2242150
1146.872, 0.2432830
1147.355, 0.2317450
1147.837, 0.2117370
1148.319, 0.1934440
1148.801, 0.1724900
1149.283, 0.1615560
1149.765, 0.2115040
1150.247, 0.2893290
1150.729, 0.2616220
1151.212, 9.4472997E-02
1151.694, 3.0269001E-02
1152.176, 1.2650000E-03
1152.658, 0.1033310
1153.140, 0.3339100
1153.622, 0.5210450
1154.104, 0.4413010
1154.586, 0.2532530
1155.068, 0.2275510
1155.551, 0.3621160
1156.033, 0.4322020
1156.515, 0.3571320
1156.997, 0.2549510
1157.479, 9.0469003E-02
1157.961, 4.8700001E-04
1158.443, 0.1346150
1158.925, 0.2934450
1159.407, 0.2573100
1159.890, 0.1207450
1160.372, 0.1399070
1160.854, 0.3624090
1161.336, 0.4904850
1161.818, 0.4113350
1162.300, 0.3702880
1162.782, 0.4338470
1163.264, 0.4985390
1163.747, 0.5253330
1164.229, 0.5246690
1164.711, 0.5129720
1165.193, 0.4843340
1165.675, 0.3993630
1166.157, 0.2217160
1166.639, 0.1053330
1167.121, 5.7096999E-02
1167.604, 5.2625000E-02
1168.086, 9.4150998E-02
1168.568, 0.1545370
1169.050, 0.2153970
1169.532, 0.2849800
1170.014, 0.3908590
1170.496, 0.5200060
1170.978, 0.5193030
1171.460, 0.3904740
1171.943, 0.3591420
1172.425, 0.4531460
1172.907, 0.4656830
1173.389, 0.3132400
1173.871, 0.1799720
1174.353, 0.2405750
1174.835, 0.3993230
1175.317, 0.4749810
1175.799, 0.4826630
1176.282, 0.4680240
1176.764, 0.4337380
1177.246, 0.3787670
1177.728, 0.3030150
1178.210, 0.2128300
1178.692, 0.1157210
1179.174, 7.4208997E-02
1179.656, 0.1953620
1180.139, 0.3520260
1180.621, 0.3772970
1181.103, 0.3374650
1181.585, 0.3208610
1182.067, 0.3178800
1182.549, 0.3608580
1183.031, 0.4316060
1183.513, 0.4024320
1183.995, 0.1487160
1184.478, 2.4699999E-04
1184.960, 0.3162400
1185.442, 0.6182810
1185.924, 0.5125190
1186.406, 0.2794380
1186.888, 0.2044980
1187.370, 0.2512070
1187.852, 0.2782570
1188.334, 0.2633010
1188.817, 0.2614050
1189.299, 0.3016810
1189.781, 0.3281430
1190.263, 0.3298860
1190.745, 0.3173790
1191.227, 0.2436930
1191.709, 0.1987890
1192.191, 0.3084030
1192.674, 0.5098140
1193.156, 0.6025130
1193.638, 0.5764820
1194.120, 0.4817810
1194.602, 0.2794170
1195.084, 0.1332020
1195.566, 7.5662002E-02
1196.048, 6.9652997E-02
1196.531, 0.1051790
1197.013, 0.1506480
1197.495, 0.1620670
1197.977, 0.1556350
1198.459, 0.2002170
1198.941, 0.2911230
1199.423, 0.3815730
1199.905, 0.4618660
1200.387, 0.4246320
1200.870, 0.2575420
1201.352, 0.1782900
1201.834, 0.3246880
1202.316, 0.5073780
1202.798, 0.4984240
1203.280, 0.3615960
1203.762, 0.1262490
1204.244, 0.1048750
1204.726, 8.1014000E-02
1205.209, 0.1191560
1205.691, 0.2352120
1206.173, 0.2054890
1206.655, 0.1231170
1207.137, 1.5789000E-02
1207.619, 5.9985999E-02
1208.101, 5.6869000E-02
1208.583, 1.8258000E-02
1209.066, 3.8210999E-02
1209.548, 9.7549997E-02
1210.030, 0.1704590
1210.512, 0.2368480
1210.994, 0.2373980
1211.476, 0.1637630
1211.958, 0.1489370
1212.440, 0.2984660
1212.922, 0.3834530
1213.405, 0.3197430
1213.887, 0.2541320
1214.369, 0.2187060
1214.851, 0.2284440
1215.333, 0.3206010
1215.815, 0.4560010
1216.297, 0.5460520
1216.779, 0.5900740
1217.261, 0.5698410
1217.744, 0.4692400
1218.226, 0.3918130
1218.708, 0.3547280
1219.190, 0.3069040
1219.672, 0.2210300
1220.154, 0.1782880
1220.636, 0.2675400
1221.118, 0.4150930
1221.600, 0.4630000
1222.083, 0.4329840
1222.565, 0.4012540
1223.047, 0.3676100
1223.529, 0.3031200
1224.011, 0.2228950
1224.493, 0.2196080
1224.975, 0.3261460
1225.457, 0.4627950
1225.940, 0.6031870
1226.422, 0.6776280
1226.904, 0.5464650
1227.386, 0.3841440
1227.868, 0.4203150
1228.350, 0.5165090
1228.832, 0.4238310
1229.314, 0.1899170
1229.797, 6.5056004E-02
1230.279, 0.1207060
1230.761, 0.1607360
1231.243, 6.5241002E-02
1231.725, 4.6897002E-02
1232.207, 0.2856970
1232.689, 0.4658260
1233.171, 0.3703730
1233.653, 0.1766410
1234.135, 3.9329000E-02
1234.618, 3.7461001E-02
1235.100, 2.3375999E-02
1235.582, 9.8872997E-02
1236.064, 0.2007200
1236.546, 0.2849350
1237.028, 0.3392420
1237.510, 0.3679290
1237.992, 0.2857430
1238.475, 3.3573002E-02
1238.957, 0.1297780
1239.439, 9.9427998E-02
1239.921, 0.4845040
1240.403, 0.4612410
1240.885, 0.1886550
1241.367, 0.1756020
1241.849, 0.3483670
1242.332, 0.4345060
1242.814, 0.4091840
1243.296, 0.3710640
1243.778, 0.3766740
1244.260, 0.4114590
1244.742, 0.4554750
1245.224, 0.4884580
1245.706, 0.5586560
1246.188, 0.6055750
1246.671, 0.5584960
1247.153, 0.4736370
1247.635, 0.4117410
1248.117, 0.3772760
1248.599, 0.3666420
1249.081, 0.3842400
1249.563, 0.3810700
1250.045, 0.2578070
1250.527, 0.2770280
1251.010, 0.6083910
1251.492, 0.8127150
1251.974, 0.6386920
1252.456, 0.4484760
1252.938, 0.5969410
1253.420, 0.8904740
1253.902, 0.8664360
1254.384, 0.5531160
1254.867, 0.3945650
1255.349, 0.3832950
1255.831, 0.3918090
1256.313, 0.3992430
1256.795, 0.3416470
1257.277, 0.2088930
1257.759, 0.1580990
1258.241, 0.3164230
1258.724, 0.4888310
1259.206, 0.4391080
1259.688, 0.3377680
1260.170, 0.4527180
1260.652, 0.6236870
1261.134, 0.7318660
1261.616, 0.7434840
1262.098, 0.6591840
1262.580, 0.5012420
1263.063, 0.3965820
1263.545, 0.3913620
1264.027, 0.4249110
1264.509, 0.5433310
1264.991, 0.6118610
1265.473, 0.5280870
1265.955, 0.4459140
1266.437, 0.4854920
1266.919, 0.5543610
1267.402, 0.5166770
1267.884, 0.3934490
1268.366, 0.3111320
1268.848, 0.2714830
1269.330, 0.2754650
1269.812, 0.3272860
1270.294, 0.2855080
1270.776, 0.1240980
1271.259, 7.0540002E-03
1271.741, 3.0982999E-02
1272.223, 3.8631000E-02
1272.705, 0.2290430
1273.187, 0.4146310
1273.669, 0.3399300
1274.151, 0.1842490
1274.633, 0.2606820
1275.115, 0.4480440
1275.598, 0.4960330
1276.080, 0.4213100
1276.562, 0.3938970
1277.044, 0.4428710
1277.526, 0.4691400
1278.008, 0.3919260
1278.490, 0.3019080
1278.972, 0.2058570
1279.454, 0.1211630
1279.937, 5.2855998E-02
1280.419, 7.6410002E-03
1280.901, 1.2180000E-03
1281.383, 1.5579000E-02
1281.865, 0.0000000E+00
##END=



