##NAMES=Pyrochlore
##RRUFFID=R080050
##IDEAL CHEMISTRY=Ca_2_Nb_2_O_7_
##LOCALITY=Hackman Valley, Yukspor Mountain, Khibiny, Kola, Russia
##OWNER=RRUFF
##SOURCE=Michael Scott
##DESCRIPTION=Dark brown irregular grains on microcline
##STATUS=The identification of this mineral is not yet confirmed.
##URL=rruff.info/R080050
149.8103, 0.0000000E+00
150.2924, 2.9541001E-02
150.7745, 0.1015630
151.2566, 0.9615480
151.7388, 2.321167
152.2209, 3.578491
152.7030, 5.299316
153.1851, 6.550537
153.6672, 6.568359
154.1493, 3.513672
154.6315, 1.731689
155.1136, 1.961426
155.5957, 3.687378
156.0778, 6.926636
156.5599, 10.33765
157.0420, 12.51611
157.5242, 13.13318
158.0063, 10.50903
158.4884, 7.994263
158.9705, 5.958374
159.4526, 4.417725
159.9347, 3.446777
160.4169, 3.830322
160.8990, 4.350708
161.3811, 4.125610
161.8632, 0.8350830
162.3453, 1.288330
162.8274, 9.7167999E-02
163.3096, 4.151001
163.7917, 7.953857
164.2738, 9.916016
164.7559, 10.83984
165.2380, 11.51062
165.7201, 12.19275
166.2023, 12.57495
166.6844, 12.37378
167.1665, 11.58752
167.6486, 10.85278
168.1307, 10.23950
168.6128, 9.964966
169.0950, 10.30017
169.5771, 12.09021
170.0592, 14.07581
170.5413, 15.42468
171.0234, 16.10718
171.5055, 16.18152
171.9877, 15.06409
172.4698, 13.41821
172.9519, 12.34570
173.4340, 12.97229
173.9161, 14.26355
174.3982, 15.19690
174.8804, 15.47058
175.3625, 15.31274
175.8446, 14.58545
176.3267, 13.69141
176.8088, 13.18005
177.2909, 13.97632
177.7731, 15.43103
178.2552, 16.79614
178.7373, 17.95923
179.2194, 18.75354
179.7015, 19.64514
180.1836, 21.16699
180.6658, 22.50513
181.1479, 22.55798
181.6300, 21.86633
182.1121, 22.39587
182.5942, 24.91748
183.0763, 27.54517
183.5585, 27.61023
184.0406, 25.51343
184.5227, 23.32581
185.0048, 22.26794
185.4869, 22.08179
185.9690, 22.12585
186.4511, 22.21680
186.9333, 22.35193
187.4154, 23.00684
187.8975, 24.15369
188.3796, 24.82812
188.8617, 23.77173
189.3438, 21.38062
189.8260, 19.91028
190.3081, 19.94836
190.7902, 20.78894
191.2723, 20.86792
191.7544, 20.06799
192.2365, 19.09412
192.7187, 18.43225
193.2008, 18.02698
193.6829, 17.48633
194.1650, 16.66052
194.6471, 15.77466
195.1292, 15.62402
195.6114, 16.30542
196.0935, 16.81372
196.5756, 16.23743
197.0577, 14.57617
197.5398, 12.57800
198.0219, 9.942871
198.5041, 7.159058
198.9862, 6.497070
199.4683, 8.198120
199.9504, 10.42249
200.4325, 11.79028
200.9146, 12.27100
201.3968, 11.77002
201.8789, 9.711182
202.3610, 6.669800
202.8431, 5.904297
203.3252, 8.035400
203.8073, 10.51611
204.2895, 11.11816
204.7716, 9.718384
205.2537, 7.617432
205.7358, 4.814575
206.2179, 1.532959
206.7000, 0.8098140
207.1822, 2.018555
207.6643, 2.380127
208.1464, 2.403442
208.6285, 1.901978
209.1106, 1.881470
209.5927, 2.815674
210.0749, 4.568115
210.5570, 5.400635
211.0391, 5.208740
211.5212, 4.380859
212.0033, 3.177612
212.4854, 1.490479
212.9676, 3.6865000E-02
213.4497, 1.242188
213.9318, 2.114746
214.4139, 2.762939
214.8960, 2.994629
215.3781, 3.285645
215.8603, 4.301025
216.3424, 6.477539
216.8245, 7.992554
217.3066, 8.293457
217.7887, 7.397095
218.2708, 6.697998
218.7530, 6.123657
219.2351, 5.867065
219.7172, 6.346313
220.1993, 8.223022
220.6814, 9.057373
221.1635, 7.853882
221.6457, 4.526489
222.1278, 2.369019
222.6099, 1.611572
223.0920, 1.711792
223.5741, 2.171021
224.0562, 3.151978
224.5384, 4.163330
225.0205, 5.277588
225.5026, 6.499634
225.9847, 6.859619
226.4668, 5.860962
226.9489, 4.531982
227.4311, 3.994263
227.9132, 4.677002
228.3953, 5.260742
228.8774, 5.445068
229.3595, 5.230713
229.8416, 5.234863
230.3238, 5.798462
230.8059, 6.270874
231.2880, 5.867798
231.7701, 3.831055
232.2522, 2.507324
232.7343, 2.595825
233.2165, 4.169922
233.6986, 4.996582
234.1807, 4.562500
234.6628, 3.878052
235.1449, 3.948608
235.6270, 5.035278
236.1092, 6.291748
236.5913, 7.621460
237.0734, 9.006714
237.5555, 10.23950
238.0376, 11.21448
238.5197, 12.11206
239.0019, 13.13196
239.4840, 14.56885
239.9661, 15.56873
240.4482, 15.93054
240.9303, 15.66199
241.4124, 15.31506
241.8946, 14.88794
242.3767, 14.40735
242.8588, 13.88049
243.3409, 13.24658
243.8230, 12.68201
244.3051, 12.07666
244.7873, 11.44751
245.2694, 11.68689
245.7515, 13.68542
246.2336, 15.55139
246.7157, 15.51318
247.1978, 12.13110
247.6800, 9.761475
248.1621, 9.268799
248.6442, 10.53601
249.1263, 11.84070
249.6084, 13.49231
250.0905, 14.87280
250.5726, 15.46606
251.0548, 14.97461
251.5369, 14.32727
252.0190, 13.41870
252.5011, 12.35693
252.9832, 12.16736
253.4653, 13.09753
253.9475, 14.53845
254.4296, 16.22400
254.9117, 18.71655
255.3938, 19.93518
255.8759, 18.95105
256.3581, 16.30164
256.8402, 15.59448
257.3223, 17.93713
257.8044, 20.48877
258.2865, 21.29199
258.7686, 19.56958
259.2508, 18.13000
259.7329, 17.33484
260.2150, 17.02710
260.6971, 16.47595
261.1792, 15.46826
261.6613, 14.75769
262.1435, 15.06787
262.6256, 17.15759
263.1077, 17.87817
263.5898, 16.39294
264.0719, 13.58350
264.5540, 12.24170
265.0362, 12.73242
265.5183, 14.07532
266.0004, 15.97729
266.4825, 18.73047
266.9646, 20.82166
267.4467, 21.92908
267.9289, 22.25366
268.4110, 22.41162
268.8931, 22.41614
269.3752, 22.41357
269.8573, 22.31982
270.3394, 21.96326
270.8216, 22.67822
271.3037, 25.11548
271.7858, 27.90198
272.2679, 27.80957
272.7500, 24.12927
273.2321, 20.22583
273.7143, 17.59143
274.1964, 16.37244
274.6785, 15.46570
275.1606, 14.84009
275.6427, 14.63416
276.1248, 15.20972
276.6070, 16.73486
277.0891, 18.34058
277.5712, 20.01794
278.0533, 21.79895
278.5354, 21.86633
279.0175, 19.74097
279.4996, 16.86536
279.9818, 15.34082
280.4639, 15.29578
280.9460, 15.45947
281.4281, 15.48975
281.9102, 15.37158
282.3923, 14.73584
282.8745, 13.30273
283.3566, 12.23218
283.8387, 13.43237
284.3208, 16.97925
284.8029, 19.44434
285.2850, 19.01343
285.7672, 16.76514
286.2493, 18.33960
286.7314, 20.23877
287.2135, 25.01904
287.6956, 27.48730
288.1777, 27.77222
288.6599, 19.32153
289.1420, 22.15332
289.6241, 20.44507
290.1062, 18.53809
290.5883, 22.92969
291.0704, 15.73267
291.5526, 20.04663
292.0347, 19.76514
292.5168, 21.57886
292.9989, 18.84375
293.4810, 17.52246
293.9631, 20.76392
294.4453, 21.48950
294.9274, 18.25879
295.4095, 20.24268
295.8916, 12.92480
296.3737, 13.77832
296.8558, 18.15674
297.3380, 15.17261
297.8201, 17.25122
298.3022, 17.40137
298.7843, 8.788574
299.2664, 15.41602
299.7485, 15.45337
300.2307, 8.721680
300.7128, 14.82690
301.1949, 9.029541
301.6770, 8.401855
302.1591, 7.843506
302.6412, 7.281250
303.1234, 5.863281
303.6055, 4.378906
304.0876, 4.173096
304.5697, 5.469238
305.0518, 6.967041
305.5339, 7.421875
306.0161, 7.169922
306.4982, 6.892090
306.9803, 6.608643
307.4624, 6.543457
307.9445, 7.010254
308.4266, 7.992432
308.9088, 9.009766
309.3909, 10.02832
309.8730, 10.77075
310.3551, 10.86841
310.8372, 8.987549
311.3193, 7.309570
311.8015, 7.898438
312.2836, 10.51172
312.7657, 12.81982
313.2478, 13.46118
313.7299, 13.05884
314.2120, 12.19531
314.6942, 10.62744
315.1763, 9.409180
315.6584, 9.440674
316.1405, 10.49316
316.6226, 11.19946
317.1047, 10.60254
317.5869, 9.747314
318.0690, 9.345215
318.5511, 9.684082
319.0332, 10.21997
319.5153, 10.85034
319.9974, 11.53638
320.4796, 12.17407
320.9617, 12.83838
321.4438, 13.26733
321.9259, 13.39233
322.4080, 13.37378
322.8901, 12.54590
323.3723, 9.478760
323.8544, 5.869141
324.3365, 4.117188
324.8186, 6.793457
325.3007, 9.302246
325.7828, 10.44629
326.2650, 10.05859
326.7471, 9.067383
327.2292, 6.075684
327.7113, 3.219971
328.1934, 2.528564
328.6755, 7.492920
329.1577, 10.99292
329.6398, 11.22681
330.1219, 8.201904
330.6040, 6.547607
331.0861, 6.855713
331.5682, 7.996582
332.0504, 9.317871
332.5325, 11.52734
333.0146, 12.59814
333.4967, 11.71045
333.9788, 9.423340
334.4609, 8.505371
334.9431, 9.867676
335.4252, 11.30786
335.9073, 11.57129
336.3894, 9.937012
336.8715, 9.270020
337.3536, 10.24854
337.8358, 11.88062
338.3179, 12.01392
338.8000, 10.33105
339.2821, 8.146240
339.7642, 5.624756
340.2463, 2.632324
340.7285, 1.330811
341.2106, 2.020996
341.6927, 3.896484
342.1748, 6.119629
342.6569, 8.778320
343.1390, 10.97852
343.6212, 12.14722
344.1033, 12.50562
344.5854, 13.49609
345.0675, 15.08032
345.5496, 17.03516
346.0317, 19.74341
346.5139, 22.99902
346.9960, 24.25269
347.4781, 22.30444
347.9602, 18.65381
348.4423, 16.55103
348.9244, 15.97925
349.4066, 16.14404
349.8887, 17.39966
350.3708, 19.07080
350.8529, 18.55249
351.3350, 14.80103
351.8171, 10.97900
352.2993, 12.26147
352.7814, 17.41528
353.2635, 21.71680
353.7456, 22.52734
354.2277, 21.06274
354.7098, 18.29321
355.1920, 14.05396
355.6741, 10.92432
356.1562, 12.66992
356.6383, 16.90088
357.1204, 19.46143
357.6025, 16.54834
358.0847, 12.71069
358.5668, 11.85449
359.0489, 13.74878
359.5310, 15.53223
360.0131, 15.36401
360.4952, 14.30225
360.9774, 13.41528
361.4595, 13.16553
361.9416, 12.95679
362.4237, 12.73877
362.9058, 12.41016
363.3879, 11.62573
363.8701, 9.843262
364.3522, 7.897705
364.8343, 6.249512
365.3164, 4.933105
365.7985, 4.032959
366.2806, 4.144287
366.7628, 4.609619
367.2449, 4.361816
367.7270, 2.394043
368.2091, 0.5336910
368.6912, 0.6291500
369.1733, 0.9255370
369.6555, 1.227783
370.1376, 2.249512
370.6197, 2.916748
371.1018, 2.214844
371.5839, 2.026367
372.0660, 4.521973
372.5482, 3.719238
373.0303, 0.1726070
373.5124, 1.692871
373.9945, 1.019287
374.4766, 0.1069340
374.9587, 0.4719240
375.4409, 0.2460940
375.9230, 0.8334960
376.4051, 1.133301
376.8872, 1.327148
377.3693, 1.911133
377.8514, 3.027588
378.3336, 3.875244
378.8157, 4.003418
379.2978, 3.366455
379.7799, 2.748291
380.2620, 2.078857
380.7441, 1.483643
381.2263, 1.454590
381.7084, 1.949707
382.1905, 1.423828
382.6726, 1.044922
383.1547, 4.594971
383.6368, 6.770508
384.1190, 7.556396
384.6011, 7.585693
385.0832, 6.919922
385.5653, 5.840576
386.0474, 5.077637
386.5295, 4.571777
387.0117, 4.806641
387.4938, 7.354004
387.9759, 11.46436
388.4580, 14.42407
388.9401, 13.65088
389.4222, 11.42285
389.9044, 10.48145
390.3865, 11.14526
390.8686, 12.11450
391.3507, 12.60889
391.8328, 12.77295
392.3149, 12.79517
392.7971, 12.90527
393.2792, 12.77734
393.7613, 11.96875
394.2434, 10.60986
394.7255, 9.647705
395.2076, 9.865479
395.6898, 10.40063
396.1719, 10.63989
396.6540, 10.50977
397.1361, 9.992920
397.6182, 8.285156
398.1003, 6.173828
398.5825, 5.460449
399.0646, 7.853760
399.5467, 10.38672
400.0288, 12.18262
400.5109, 13.25488
400.9930, 13.29248
401.4752, 10.92334
401.9573, 8.328857
402.4394, 7.904541
402.9215, 11.82959
403.4036, 14.33691
403.8857, 13.97949
404.3678, 11.18823
404.8499, 9.872314
405.3321, 10.75073
405.8142, 11.83203
406.2963, 11.65625
406.7784, 9.860107
407.2605, 8.965576
407.7426, 9.362793
408.2248, 10.40454
408.7069, 10.84668
409.1890, 10.61523
409.6711, 10.23193
410.1532, 9.572266
410.6353, 8.816650
411.1175, 9.469482
411.5996, 11.68750
412.0817, 13.80908
412.5638, 13.44751
413.0459, 11.37744
413.5280, 10.61865
414.0102, 12.64087
414.4923, 15.53125
414.9744, 16.66895
415.4565, 16.27197
415.9386, 15.39014
416.4207, 14.04980
416.9029, 12.92529
417.3850, 12.99634
417.8671, 14.61279
418.3492, 16.53052
418.8313, 18.25342
419.3134, 19.64331
419.7956, 20.51587
420.2777, 20.33228
420.7598, 19.97827
421.2419, 19.75293
421.7240, 19.66602
422.2061, 19.96240
422.6883, 20.84180
423.1704, 21.99438
423.6525, 23.23315
424.1346, 24.88916
424.6167, 26.04834
425.0988, 26.46777
425.5810, 26.24731
426.0631, 25.64209
426.5452, 23.91284
427.0273, 22.56860
427.5094, 22.23242
427.9915, 23.20874
428.4737, 23.64600
428.9558, 23.68384
429.4379, 23.37988
429.9200, 22.46533
430.4021, 20.60791
430.8842, 19.39380
431.3664, 19.21777
431.8485, 19.93506
432.3306, 20.45508
432.8127, 20.69849
433.2948, 20.86963
433.7769, 21.12134
434.2591, 21.42236
434.7412, 21.29663
435.2233, 20.49756
435.7054, 19.71655
436.1875, 20.17920
436.6696, 21.69580
437.1518, 23.04248
437.6339, 23.67822
438.1160, 23.83887
438.5981, 23.74170
439.0802, 23.38354
439.5623, 23.14819
440.0445, 23.71460
440.5266, 24.60791
441.0087, 25.05200
441.4908, 24.86768
441.9729, 24.61499
442.4550, 24.19336
442.9372, 23.92822
443.4193, 24.40698
443.9014, 28.11157
444.3835, 31.17407
444.8656, 30.87939
445.3477, 26.91357
445.8299, 23.87207
446.3120, 23.30688
446.7941, 23.97852
447.2762, 24.92749
447.7583, 27.51074
448.2404, 28.51855
448.7226, 26.70654
449.2047, 23.06250
449.6868, 20.46216
450.1689, 18.89282
450.6510, 18.39062
451.1331, 19.40381
451.6153, 22.49536
452.0974, 23.65576
452.5795, 22.09082
453.0616, 20.03247
453.5437, 19.13550
454.0258, 19.73706
454.5080, 20.74268
454.9901, 22.37793
455.4722, 23.92407
455.9543, 24.30078
456.4364, 23.45215
456.9185, 22.34253
457.4007, 22.10645
457.8828, 22.12598
458.3649, 21.92676
458.8470, 21.39087
459.3291, 20.89648
459.8112, 20.92432
460.2934, 21.20801
460.7755, 21.38184
461.2576, 21.64160
461.7397, 21.47974
462.2218, 20.63354
462.7039, 18.96240
463.1861, 16.53687
463.6682, 12.07935
464.1503, 7.859375
464.6324, 5.897217
465.1145, 7.276367
465.5966, 8.685547
466.0788, 9.314941
466.5609, 9.692139
467.0430, 10.08057
467.5251, 11.28735
468.0072, 12.10498
468.4893, 11.75464
468.9715, 10.44653
469.4536, 9.870605
469.9357, 10.54639
470.4178, 11.51074
470.8999, 12.39746
471.3820, 13.68994
471.8642, 13.36523
472.3463, 10.37793
472.8284, 6.878906
473.3105, 6.582275
473.7926, 10.13354
474.2747, 13.22070
474.7569, 14.61743
475.2390, 14.54004
475.7211, 13.55249
476.2032, 11.60840
476.6853, 9.951416
477.1674, 9.790527
477.6496, 10.66968
478.1317, 11.31982
478.6138, 11.62939
479.0959, 11.42993
479.5780, 9.771484
480.0602, 7.435303
480.5423, 6.266113
481.0244, 8.659912
481.5065, 11.38916
481.9886, 11.55029
482.4707, 9.430664
482.9529, 7.471924
483.4350, 6.833496
483.9171, 6.845215
484.3992, 7.094971
484.8813, 7.768066
485.3634, 8.136475
485.8456, 7.628906
486.3277, 6.803955
486.8098, 6.501465
487.2919, 7.510254
487.7740, 8.229980
488.2561, 8.169678
488.7383, 7.387939
489.2204, 7.097412
489.7025, 7.519287
490.1846, 8.039307
490.6667, 8.353516
491.1488, 8.502930
491.6310, 8.176758
492.1131, 7.302734
492.5952, 6.075195
493.0773, 4.550537
493.5594, 2.740234
494.0415, 1.502686
494.5237, 1.272705
495.0058, 1.731201
495.4879, 2.271973
495.9700, 2.880371
496.4521, 3.331543
496.9342, 3.633057
497.4164, 3.629150
497.8985, 2.920898
498.3806, 1.320801
498.8627, 0.2912600
499.3448, 1.832031
499.8269, 2.835693
500.3091, 2.614258
500.7912, 0.7963870
501.2733, 3.802246
501.7554, 4.540039
502.2375, 3.365967
502.7196, 2.485107
503.2018, 2.835449
503.6839, 3.228760
504.1660, 2.871582
504.6481, 0.9091800
505.1302, 0.5300290
505.6123, 3.090576
506.0945, 6.212158
506.5766, 7.030273
507.0587, 4.391357
507.5408, 2.495605
508.0229, 2.317871
508.5050, 3.293457
508.9872, 3.461670
509.4693, 2.782471
509.9514, 1.711914
510.4335, 3.330811
510.9156, 0.4555660
511.3977, 2.588867
511.8799, 3.156250
512.3619, 2.526123
512.8441, 0.1166990
513.3262, 0.9291990
513.8083, 1.894775
514.2904, 1.627197
514.7725, 3.151611
515.2546, 0.2978520
515.7368, 0.4621580
516.2189, 2.129395
516.7010, 0.5410160
517.1831, 2.9297000E-02
517.6652, 2.684326
518.1473, 3.576904
518.6295, 1.614502
519.1116, 3.376953
519.5937, 1.515869
520.0758, 0.5688480
520.5579, 2.898926
521.0400, 1.098633
521.5222, 2.921631
522.0043, 3.364990
522.4864, 2.460693
522.9685, 2.614258
523.4506, 2.974854
523.9327, 1.504395
524.4149, 3.196289
524.8970, 0.6164550
525.3791, 1.390869
525.8612, 0.1213380
526.3433, 0.7509770
526.8254, 2.135254
527.3076, 1.401367
527.7897, 1.955078
528.2718, 2.759277
528.7539, 2.494141
529.2360, 1.633789
529.7181, 1.414063
530.2003, 3.107666
530.6824, 4.717285
531.1645, 3.974121
531.6466, 1.520264
532.1287, 0.2583010
532.6108, 0.5917970
533.0930, 0.3715820
533.5751, 3.387939
534.0572, 9.341064
534.5393, 12.80127
535.0214, 10.77368
535.5035, 6.826416
535.9857, 4.106201
536.4678, 3.294922
536.9499, 2.729492
537.4320, 2.327637
537.9141, 2.101318
538.3962, 2.030762
538.8784, 2.033936
539.3605, 2.458496
539.8426, 3.746582
540.3247, 5.624756
540.8068, 5.742188
541.2889, 3.911133
541.7711, 2.208496
542.2532, 3.099365
542.7353, 5.533203
543.2174, 6.030762
543.6995, 3.776611
544.1816, 1.355957
544.6638, 1.567627
545.1459, 3.455811
545.6280, 5.251221
546.1101, 6.435303
546.5922, 7.150391
547.0743, 7.025391
547.5565, 6.363281
548.0386, 6.350586
548.5207, 8.207764
549.0028, 10.04810
549.4849, 10.84375
549.9670, 10.13208
550.4492, 9.969727
550.9313, 11.12085
551.4134, 12.20947
551.8955, 12.06226
552.3776, 10.10742
552.8597, 8.568115
553.3419, 7.685547
553.8240, 7.320068
554.3061, 7.478760
554.7882, 8.264160
555.2703, 8.285889
555.7524, 6.558838
556.2346, 3.906006
556.7167, 2.351807
557.1988, 1.835449
557.6809, 1.908203
558.1630, 2.763672
558.6451, 4.036865
559.1273, 4.680664
559.6094, 4.456299
560.0915, 4.257324
560.5736, 4.941162
561.0557, 5.840088
561.5378, 6.190186
562.0200, 4.627441
562.5021, 3.714844
562.9842, 4.950684
563.4663, 7.431641
563.9484, 8.357422
564.4305, 6.556396
564.9127, 4.463379
565.3948, 2.489502
565.8769, 0.6442870
566.3590, 2.3193000E-02
566.8411, 1.109375
567.3232, 2.383057
567.8054, 2.795410
568.2875, 2.126221
568.7696, 1.468262
569.2517, 0.6396480
569.7338, 0.1291500
570.2159, 1.064697
570.6981, 1.576904
571.1802, 0.8554690
571.6623, 2.393799
572.1444, 5.982666
572.6265, 7.158203
573.1086, 6.648438
573.5908, 5.264893
574.0729, 2.023682
574.5550, 0.7761230
575.0371, 1.904541
575.5192, 1.207031
576.0013, 1.049072
576.4835, 7.351807
576.9656, 13.34717
577.4477, 16.03296
577.9298, 13.31470
578.4119, 11.68896
578.8940, 11.27710
579.3762, 11.68555
579.8583, 12.48486
580.3404, 13.59888
580.8225, 14.74170
581.3046, 15.53687
581.7867, 16.00854
582.2689, 16.77075
582.7510, 17.62085
583.2331, 18.38989
583.7152, 19.33276
584.1973, 20.04297
584.6794, 19.86328
585.1616, 18.76440
585.6437, 17.99341
586.1258, 19.29541
586.6079, 20.87720
587.0900, 20.82495
587.5721, 18.00659
588.0543, 15.72119
588.5364, 15.47363
589.0185, 16.24438
589.5006, 16.75781
589.9827, 17.37915
590.4648, 16.99951
590.9470, 14.97998
591.4291, 11.96729
591.9112, 10.23413
592.3933, 10.05859
592.8754, 10.40381
593.3575, 11.21118
593.8397, 12.30542
594.3218, 11.92139
594.8039, 9.969482
595.2860, 8.008545
595.7681, 7.302246
596.2502, 7.527344
596.7324, 7.986572
597.2145, 8.608887
597.6966, 9.408203
598.1787, 11.07959
598.6608, 12.69287
599.1429, 12.92822
599.6251, 9.623779
600.1072, 6.988525
600.5893, 7.083984
601.0714, 8.960205
601.5535, 10.46387
602.0356, 10.84741
602.5178, 11.18945
602.9999, 11.82202
603.4820, 12.69189
603.9641, 12.91382
604.4462, 12.22974
604.9283, 11.48877
605.4105, 11.24170
605.8926, 11.49292
606.3747, 11.64624
606.8568, 11.75220
607.3389, 11.55078
607.8210, 11.00977
608.3032, 9.978516
608.7853, 7.650146
609.2674, 3.020020
609.7495, 0.7172850
610.2316, 0.2785640
610.7137, 4.069580
611.1959, 7.270752
611.6780, 8.684082
612.1601, 9.112061
612.6422, 8.703369
613.1243, 7.524902
613.6064, 5.899902
614.0886, 2.475098
614.5707, 0.1379390
615.0528, 0.1477050
615.5349, 2.674561
616.0170, 4.342285
616.4991, 4.906738
616.9813, 5.168945
617.4634, 5.564453
617.9455, 6.113770
618.4276, 7.419189
618.9097, 9.685059
619.3918, 11.89380
619.8740, 12.78271
620.3561, 12.70679
620.8382, 12.59033
621.3203, 12.91968
621.8024, 12.92334
622.2845, 11.18115
622.7667, 8.715820
623.2488, 7.684082
623.7309, 10.81421
624.2130, 13.58398
624.6951, 14.17554
625.1772, 12.68994
625.6594, 11.22266
626.1415, 9.663086
626.6236, 8.368164
627.1057, 7.480469
627.5878, 7.018799
628.0699, 7.026367
628.5521, 7.735107
629.0342, 8.287598
629.5163, 7.596436
629.9984, 5.928467
630.4805, 4.709229
630.9626, 4.097656
631.4448, 4.039307
631.9269, 4.809570
632.4090, 6.024658
632.8911, 6.999023
633.3732, 7.557861
633.8553, 7.828125
634.3375, 7.699951
634.8196, 7.303467
635.3017, 6.929443
635.7838, 7.329834
636.2659, 7.009521
636.7480, 4.875000
637.2302, 1.285889
637.7123, 0.3662110
638.1944, 0.7104490
638.6765, 2.177734
639.1586, 3.056396
639.6407, 3.362061
640.1229, 3.150146
640.6050, 2.352783
641.0871, 1.612793
641.5692, 1.528564
642.0513, 1.958984
642.5334, 2.661621
643.0156, 3.677979
643.4977, 4.507813
643.9798, 4.385254
644.4619, 3.905273
644.9440, 3.890137
645.4261, 5.276855
645.9083, 6.251709
646.3904, 5.462158
646.8725, 3.931641
647.3546, 3.940186
647.8367, 6.998779
648.3188, 9.491211
648.8010, 10.77002
649.2831, 10.89282
649.7652, 9.917236
650.2473, 7.510010
650.7294, 5.702148
651.2115, 5.955078
651.6937, 7.677246
652.1758, 8.352051
652.6579, 8.017822
653.1400, 7.675049
653.6221, 8.491943
654.1042, 9.579102
654.5864, 9.639893
655.0685, 8.335693
655.5506, 7.193848
656.0327, 6.816895
656.5148, 7.071533
656.9969, 7.860107
657.4791, 10.00000
657.9612, 11.49146
658.4433, 12.35376
658.9254, 12.47803
659.4075, 11.44727
659.8896, 8.728516
660.3718, 6.819092
660.8539, 6.323975
661.3360, 6.791992
661.8181, 7.517090
662.3002, 8.422852
662.7823, 8.755859
663.2645, 7.332764
663.7466, 5.640137
664.2287, 6.216553
664.7108, 8.573486
665.1929, 10.35181
665.6750, 9.761230
666.1572, 8.573730
666.6393, 7.968750
667.1214, 8.124023
667.6035, 7.800049
668.0856, 6.617188
668.5677, 5.065918
669.0499, 3.171875
669.5320, 0.4006350
670.0141, 0.4755860
670.4962, 1.102783
670.9783, 3.454102
671.4604, 4.833984
671.9426, 5.399902
672.4247, 5.999268
672.9068, 6.937500
673.3889, 7.459473
673.8710, 6.314941
674.3531, 4.188721
674.8353, 2.371826
675.3174, 0.4350590
675.7995, 6.4696997E-02
676.2816, 3.031006
676.7637, 8.203613
677.2458, 11.61523
677.7280, 11.24976
678.2101, 10.56226
678.6922, 10.14819
679.1743, 10.00684
679.6564, 10.38062
680.1385, 11.79248
680.6207, 12.19287
681.1028, 10.01367
681.5849, 6.046387
682.0670, 4.643555
682.5491, 5.817139
683.0313, 7.053711
683.5134, 5.790283
683.9955, 3.789795
684.4776, 4.020752
684.9597, 6.890137
685.4418, 8.803467
685.9240, 6.364746
686.4061, 2.962402
686.8882, 1.477295
687.3703, 3.459961
687.8524, 4.685547
688.3345, 4.498047
688.8167, 3.800293
689.2988, 3.397217
689.7809, 3.187744
690.2630, 3.069336
690.7451, 2.983887
691.2272, 3.312988
691.7094, 4.789307
692.1915, 7.141357
692.6736, 9.148438
693.1557, 10.54346
693.6378, 11.18359
694.1199, 10.27417
694.6021, 8.475586
695.0842, 7.354736
695.5663, 8.886475
696.0484, 9.935303
696.5305, 8.452393
697.0126, 5.016846
697.4948, 3.372314
697.9769, 4.987793
698.4590, 6.481934
698.9411, 6.562988
699.4232, 5.398193
699.9053, 5.182617
700.3875, 6.065186
700.8696, 6.896973
701.3517, 6.774414
701.8338, 6.055664
702.3159, 5.720459
702.7980, 5.804688
703.2802, 5.899658
703.7623, 5.529053
704.2444, 5.207764
704.7265, 5.615479
705.2086, 7.362061
705.6907, 8.300049
706.1729, 6.390137
706.6550, 4.277832
707.1371, 4.318359
707.6192, 8.308594
708.1013, 10.03687
708.5834, 8.467529
709.0656, 6.103271
709.5477, 6.715576
710.0298, 10.05762
710.5119, 11.90796
710.9940, 11.11084
711.4761, 9.391602
711.9582, 9.123291
712.4403, 9.636963
712.9224, 9.525391
713.4045, 7.435059
713.8867, 5.581299
714.3688, 5.429443
714.8509, 6.367188
715.3330, 6.976318
715.8151, 6.433838
716.2972, 6.353516
716.7794, 7.427734
717.2615, 9.172607
717.7436, 9.617920
718.2257, 8.524414
718.7078, 7.357666
719.1899, 6.930420
719.6721, 6.791016
720.1542, 5.120850
720.6363, 2.220703
721.1184, 0.3974610
721.6005, 2.213135
722.0826, 4.994629
722.5648, 6.122314
723.0469, 5.531494
723.5290, 4.927734
724.0111, 4.830811
724.4932, 5.007813
724.9753, 5.644287
725.4575, 7.047607
725.9396, 6.805176
726.4217, 4.319336
726.9038, 1.455566
727.3859, 0.7368160
727.8680, 2.199951
728.3502, 2.180908
728.8323, 0.4924320
729.3144, 1.224365
729.7965, 0.7084960
730.2786, 0.5937500
730.7607, 0.1965330
731.2429, 2.788330
731.7250, 5.430176
732.2071, 6.525391
732.6892, 6.326172
733.1713, 5.061279
733.6534, 7.5438999E-02
734.1356, 2.069092
734.6177, 0.1257320
735.0998, 3.455811
735.5819, 5.503662
736.0640, 5.866211
736.5461, 6.480469
737.0283, 7.858643
737.5104, 9.160889
737.9925, 8.725098
738.4746, 7.180664
738.9567, 6.197021
739.4388, 6.732666
739.9210, 7.478271
740.4031, 7.903320
740.8852, 7.832275
741.3673, 7.010254
741.8494, 4.308838
742.3315, 2.165771
742.8137, 1.309326
743.2958, 1.224121
743.7779, 0.3393550
744.2600, 1.678955
744.7421, 2.783447
745.2242, 1.766846
745.7064, 0.2526860
746.1885, 0.1750490
746.6706, 2.528320
747.1527, 3.845215
747.6348, 1.366211
748.1169, 2.078369
748.5991, 4.361084
749.0812, 5.533203
749.5633, 5.997559
750.0454, 4.855957
750.5275, 4.042969
751.0096, 4.463623
751.4918, 5.963379
751.9739, 6.927734
752.4560, 7.080566
752.9381, 7.249023
753.4202, 7.656006
753.9023, 8.359619
754.3845, 10.39331
754.8666, 13.61646
755.3487, 15.89941
755.8308, 15.08325
756.3129, 12.87769
756.7950, 10.89575
757.2772, 9.289795
757.7593, 8.200439
758.2414, 8.110840
758.7235, 8.262695
759.2056, 8.534424
759.6877, 9.250977
760.1699, 7.992676
760.6520, 3.722900
761.1341, 0.2202150
761.6162, 0.6889650
762.0983, 1.801025
762.5804, 2.148926
763.0626, 5.3711001E-02
763.5447, 2.041748
764.0268, 2.133301
764.5089, 0.8784180
764.9910, 1.048584
765.4731, 3.660645
765.9553, 6.159668
766.4374, 8.766357
766.9195, 10.75562
767.4016, 11.33276
767.8837, 9.427490
768.3658, 8.989990
768.8480, 10.52197
769.3301, 12.56494
769.8122, 13.95117
770.2943, 14.61841
770.7764, 13.72583
771.2585, 10.92456
771.7407, 8.159180
772.2228, 7.367920
772.7049, 7.902100
773.1870, 9.149414
773.6691, 11.80444
774.1512, 12.96802
774.6334, 9.831543
775.1155, 5.572510
775.5976, 3.751221
776.0797, 6.346191
776.5618, 7.331055
777.0439, 6.073975
777.5261, 3.860596
778.0082, 2.131836
778.4903, 0.8957520
778.9724, 0.1687010
779.4545, 4.3212999E-02
779.9366, 0.2377930
780.4188, 1.421875
780.9009, 2.956787
781.3830, 3.942871
781.8651, 3.842529
782.3472, 3.662109
782.8293, 3.539063
783.3115, 3.617920
783.7936, 4.061523
784.2757, 4.924561
784.7578, 6.074707
785.2399, 7.526855
785.7220, 9.017334
786.2042, 10.21680
786.6863, 11.26538
787.1684, 12.39746
787.6505, 13.65161
788.1326, 14.89453
788.6147, 16.38232
789.0969, 17.77979
789.5790, 18.52539
790.0611, 17.53174
790.5432, 16.86670
791.0253, 17.19043
791.5074, 17.98657
791.9896, 18.42920
792.4717, 18.84863
792.9538, 18.93677
793.4359, 18.74463
793.9180, 18.09204
794.4001, 16.32349
794.8823, 13.75342
795.3644, 11.73560
795.8465, 11.11157
796.3286, 10.47437
796.8107, 7.718994
797.2928, 4.355713
797.7750, 2.884277
798.2571, 6.707031
798.7392, 9.064209
799.2213, 7.811523
799.7034, 5.007324
800.1855, 4.457031
800.6677, 6.790527
801.1498, 7.477783
801.6319, 5.084229
802.1140, 1.328613
802.5961, 1.082275
803.0782, 2.129639
803.5604, 2.029541
804.0425, 0.7592770
804.5246, 0.9646000
805.0067, 3.791992
805.4888, 6.916260
805.9709, 8.610596
806.4531, 6.729004
806.9352, 5.371338
807.4173, 5.142578
807.8994, 5.479736
808.3815, 5.209717
808.8636, 4.276611
809.3458, 3.953857
809.8279, 4.598633
810.3100, 5.781494
810.7921, 7.244873
811.2742, 8.712891
811.7563, 9.607666
812.2385, 9.276367
812.7206, 8.911133
813.2027, 9.150146
813.6848, 9.634033
814.1669, 9.711914
814.6490, 9.040527
815.1312, 8.736816
815.6133, 9.090576
816.0954, 9.705322
816.5775, 10.03491
817.0596, 10.15332
817.5417, 9.755371
818.0239, 8.809814
818.5060, 7.614258
818.9881, 6.211182
819.4702, 4.806641
819.9523, 3.710205
820.4344, 2.414307
820.9166, 1.848877
821.3987, 2.781738
821.8808, 4.309326
822.3629, 5.141602
822.8450, 5.007813
823.3271, 5.655029
823.8093, 7.542480
824.2914, 9.433594
824.7735, 8.843750
825.2556, 6.784912
825.7377, 6.415283
826.2198, 9.275635
826.7020, 11.72534
827.1841, 10.40063
827.6662, 7.686768
828.1483, 6.362061
828.6304, 8.584961
829.1125, 9.947510
829.5947, 10.32520
830.0768, 9.966309
830.5589, 8.791748
831.0410, 6.865234
831.5231, 6.149414
832.0052, 7.084473
832.4874, 8.504395
832.9695, 9.136719
833.4516, 9.425293
833.9337, 10.11230
834.4158, 11.52368
834.8979, 12.72754
835.3801, 13.36304
835.8622, 13.60010
836.3443, 13.53345
836.8264, 12.78955
837.3085, 12.84082
837.7906, 13.95923
838.2728, 15.25317
838.7549, 15.69458
839.2370, 15.50366
839.7191, 15.79199
840.2012, 16.64990
840.6833, 16.57446
841.1655, 12.82886
841.6476, 8.708008
842.1297, 7.465576
842.6118, 10.67334
843.0939, 12.32764
843.5760, 11.31055
844.0582, 9.825195
844.5403, 9.443115
845.0224, 10.23755
845.5045, 10.08398
845.9866, 8.978271
846.4688, 7.668457
846.9509, 6.789063
847.4330, 6.038574
847.9151, 4.634766
848.3972, 2.560791
848.8793, 1.676270
849.3615, 3.797852
849.8436, 6.240479
850.3257, 7.749023
850.8078, 8.293701
851.2899, 7.908936
851.7720, 6.224854
852.2542, 4.955566
852.7363, 5.327148
853.2184, 6.771729
853.7005, 7.934082
854.1826, 8.831787
854.6647, 9.557617
855.1469, 9.893555
855.6290, 10.31348
856.1111, 11.83057
856.5932, 14.06055
857.0753, 13.87915
857.5574, 8.770752
858.0396, 5.744141
858.5217, 7.761230
859.0038, 12.99780
859.4859, 15.14014
859.9680, 14.37329
860.4501, 13.27734
860.9323, 13.41553
861.4144, 13.53906
861.8965, 11.84180
862.3786, 9.191650
862.8607, 7.579590
863.3428, 8.659180
863.8250, 9.536133
864.3071, 9.756836
864.7892, 9.365479
865.2713, 8.122559
865.7534, 5.868164
866.2355, 4.665771
866.7177, 5.235840
867.1998, 6.469727
867.6819, 6.942383
868.1640, 6.908447
868.6461, 6.970459
869.1282, 7.922363
869.6104, 7.932129
870.0925, 4.873047
870.5746, 1.246094
871.0567, 0.2148440
871.5388, 2.919434
872.0209, 5.078613
872.5031, 6.807861
872.9852, 7.458984
873.4673, 4.825195
873.9494, 0.2971190
874.4315, 1.700195
874.9136, 0.2753910
875.3958, 1.607178
875.8779, 2.304932
876.3600, 2.385498
876.8421, 2.168213
877.3242, 1.330322
877.8063, 1.587891
878.2885, 3.480225
878.7706, 5.434570
879.2527, 6.154053
879.7348, 5.813965
880.2169, 6.042480
880.6990, 6.832031
881.1812, 7.847900
881.6633, 9.187500
882.1454, 10.36182
882.6275, 10.40234
883.1096, 9.411621
883.5917, 10.02905
884.0739, 15.43237
884.5560, 19.07861
885.0381, 18.28052
885.5202, 14.00781
886.0023, 11.47974
886.4844, 10.68848
886.9666, 10.09912
887.4487, 8.673340
887.9308, 7.236328
888.4129, 7.160156
888.8950, 7.935303
889.3771, 8.196777
889.8593, 6.863525
890.3414, 5.730957
890.8235, 5.178467
891.3056, 5.136963
891.7877, 5.915283
892.2698, 7.809814
892.7520, 7.555908
893.2341, 3.839600
893.7162, 0.4650880
894.1983, 1.394287
894.6804, 0.1997070
895.1625, 0.7812500
895.6447, 0.9357910
896.1268, 0.7651370
896.6089, 0.4985350
897.0910, 1.356445
897.5731, 0.2194820
898.0552, 4.014648
898.5374, 6.046387
899.0195, 5.346191
899.5016, 4.232422
899.9837, 5.173340
900.4658, 7.265381
900.9479, 8.714355
901.4301, 9.324463
901.9122, 9.519531
902.3943, 9.148193
902.8764, 8.739990
903.3585, 8.718750
903.8406, 9.097656
904.3228, 8.967529
904.8049, 7.924072
905.2870, 7.739014
905.7691, 9.834717
906.2512, 13.25171
906.7333, 15.79443
907.2155, 17.44824
907.6976, 17.96191
908.1797, 16.07104
908.6618, 14.29321
909.1439, 14.81934
909.6260, 16.46460
910.1082, 15.22632
910.5903, 9.139893
911.0724, 5.640869
911.5545, 6.880859
912.0366, 10.34204
912.5187, 11.70337
913.0009, 11.36938
913.4830, 10.68433
913.9651, 9.949463
914.4472, 9.138428
914.9293, 7.988525
915.4114, 6.868408
915.8936, 6.161621
916.3757, 5.467529
916.8578, 6.370117
917.3399, 9.784912
917.8220, 12.94653
918.3041, 12.77588
918.7863, 10.23730
919.2684, 9.439941
919.7505, 10.61719
920.2326, 11.57495
920.7147, 10.48608
921.1968, 8.712891
921.6790, 6.817139
922.1611, 4.828613
922.6432, 4.710205
923.1253, 7.869141
923.6074, 9.932617
924.0895, 8.497314
924.5717, 4.910889
925.0538, 4.360840
925.5359, 6.220459
926.0180, 7.339600
926.5001, 5.262939
926.9822, 2.815918
927.4644, 1.873535
927.9465, 1.911377
928.4286, 1.767334
928.9107, 1.488037
929.3928, 0.5432130
929.8749, 1.800293
930.3571, 3.731201
930.8392, 1.530029
931.3213, 3.640381
931.8034, 6.405029
932.2855, 5.261475
932.7676, 3.964844
933.2498, 5.776367
933.7319, 8.095703
934.2140, 8.143799
934.6961, 4.135986
935.1782, 3.281494
935.6603, 7.117432
936.1425, 10.80127
936.6246, 10.79834
937.1067, 7.968506
937.5888, 6.009033
938.0709, 4.882080
938.5530, 4.156006
939.0352, 3.734375
939.5173, 3.537842
939.9994, 3.648193
940.4815, 4.025391
940.9636, 4.370605
941.4457, 4.883789
941.9279, 4.909424
942.4100, 4.205322
942.8921, 3.047119
943.3742, 1.632813
943.8563, 0.1813960
944.3384, 0.5632320
944.8206, 0.2453610
945.3027, 0.4289550
945.7848, 1.299316
946.2669, 2.120117
946.7490, 2.565430
947.2311, 2.268311
947.7133, 2.490234
948.1954, 3.293945
948.6775, 4.429443
949.1596, 6.554199
949.6417, 8.699707
950.1238, 7.468994
950.6060, 2.964355
951.0881, 0.3500980
951.5702, 1.230713
952.0523, 3.503174
952.5344, 4.425049
953.0165, 4.059814
953.4987, 2.970215
953.9808, 0.6430660
954.4629, 8.9844003E-02
954.9450, 2.233643
955.4271, 6.053955
955.9092, 8.740234
956.3914, 10.43726
956.8735, 11.54224
957.3556, 12.12329
957.8376, 12.18384
958.3198, 11.14575
958.8019, 9.897461
959.2840, 9.672119
959.7661, 10.92993
960.2482, 10.26025
960.7303, 7.155029
961.2125, 3.950439
961.6946, 2.918701
962.1767, 3.215088
962.6588, 3.994141
963.1409, 5.155518
963.6230, 5.483887
964.1052, 3.985840
964.5873, 2.185303
965.0694, 0.5922850
965.5515, 0.7849120
966.0336, 2.198242
966.5157, 3.652100
966.9979, 3.703369
967.4800, 0.9841310
967.9621, 2.361816
968.4442, 4.056885
968.9263, 4.531738
969.4084, 4.533936
969.8906, 3.481934
970.3727, 3.108887
970.8548, 3.740479
971.3369, 4.825684
971.8190, 6.115479
972.3011, 7.467041
972.7833, 7.292725
973.2654, 5.392334
973.7475, 3.086914
974.2296, 0.2856450
974.7117, 1.615967
975.1938, 0.6774900
975.6760, 3.306152
976.1581, 4.911133
976.6402, 2.788086
977.1223, 0.5688480
977.6044, 0.4333500
978.0865, 0.5102540
978.5687, 0.5747070
979.0508, 0.5224610
979.5329, 0.6484380
980.0150, 5.179688
980.4971, 8.412354
980.9792, 5.829834
981.4614, 1.391602
981.9435, 0.9133300
982.4256, 6.440674
982.9077, 9.822266
983.3898, 10.39307
983.8719, 9.864258
984.3541, 9.463135
984.8362, 9.343262
985.3183, 10.14868
985.8004, 11.83325
986.2825, 12.63623
986.7646, 10.08789
987.2468, 8.093018
987.7289, 8.398682
988.2110, 10.48364
988.6931, 12.33545
989.1752, 13.94336
989.6573, 14.44238
990.1395, 13.39917
990.6216, 11.43335
991.1037, 8.354492
991.5858, 5.207520
992.0679, 3.741455
992.5500, 6.549072
993.0322, 7.836182
993.5143, 6.844727
993.9964, 5.009277
994.4785, 3.514404
994.9606, 2.384766
995.4427, 1.387695
995.9249, 0.5573730
996.4070, 0.5019530
996.8891, 2.434814
997.3712, 4.584473
997.8533, 5.228760
998.3354, 4.578369
998.8176, 5.427246
999.2997, 8.378662
999.7818, 11.00903
1000.264, 12.45630
1000.746, 13.31616
1001.228, 14.86768
1001.710, 16.60693
1002.192, 17.27295
1002.674, 16.23267
1003.157, 15.00928
1003.639, 14.03101
1004.121, 13.30811
1004.603, 12.99194
1005.085, 13.25732
1005.567, 12.74658
1006.049, 11.44580
1006.531, 10.31909
1007.014, 10.47510
1007.496, 10.94922
1007.978, 10.55591
1008.460, 9.474609
1008.942, 8.377686
1009.424, 6.973145
1009.906, 6.532471
1010.388, 7.851807
1010.870, 9.513672
1011.353, 8.020264
1011.835, 4.263184
1012.317, 3.907959
1012.799, 8.557129
1013.281, 13.16919
1013.763, 14.34644
1014.245, 13.52759
1014.727, 11.42896
1015.210, 7.944336
1015.692, 5.802490
1016.174, 5.180176
1016.656, 5.450928
1017.138, 6.849609
1017.620, 8.570313
1018.102, 9.003906
1018.584, 8.378418
1019.066, 7.290283
1019.549, 4.822021
1020.031, 3.425049
1020.513, 3.821777
1020.995, 5.368408
1021.477, 7.906250
1021.959, 11.43213
1022.441, 12.61206
1022.923, 11.03296
1023.406, 9.346680
1023.888, 10.11963
1024.370, 11.53687
1024.852, 12.05005
1025.334, 11.75000
1025.816, 11.77979
1026.298, 13.05347
1026.780, 12.42432
1027.262, 8.205811
1027.745, 2.609863
1028.227, 0.1745610
1028.709, 0.4287110
1029.191, 1.380615
1029.673, 6.504639
1030.155, 10.11426
1030.637, 7.872803
1031.119, 4.927490
1031.602, 6.068115
1032.084, 12.12598
1032.566, 12.94482
1033.048, 8.377441
1033.530, 3.836426
1034.012, 3.876221
1034.494, 5.140625
1034.976, 3.190918
1035.458, 0.6652830
1035.941, 1.882568
1036.423, 2.274902
1036.905, 6.558105
1037.387, 10.98022
1037.869, 14.35815
1038.351, 14.24634
1038.833, 11.64233
1039.315, 9.669189
1039.797, 8.734131
1040.280, 8.643799
1040.762, 10.61963
1041.244, 12.07153
1041.726, 10.59595
1042.208, 6.663574
1042.690, 6.758057
1043.172, 11.32349
1043.654, 14.38135
1044.137, 12.75928
1044.619, 10.08228
1045.101, 11.07861
1045.583, 13.92480
1046.065, 15.77539
1046.547, 16.07886
1047.029, 14.93628
1047.511, 11.41187
1047.994, 8.515137
1048.476, 9.601318
1048.958, 13.24316
1049.440, 13.56519
1049.922, 10.97485
1050.404, 8.781982
1050.886, 9.385498
1051.368, 10.22656
1051.850, 10.20410
1052.333, 9.535889
1052.815, 8.408447
1053.297, 6.685547
1053.779, 5.962646
1054.261, 6.614990
1054.743, 7.578125
1055.225, 8.186523
1055.707, 8.252441
1056.189, 7.282715
1056.672, 5.126465
1057.154, 3.851318
1057.636, 3.605957
1058.118, 4.314941
1058.600, 6.446533
1059.082, 9.009277
1059.564, 9.302246
1060.046, 7.959717
1060.529, 6.964844
1061.011, 6.635742
1061.493, 6.513428
1061.975, 7.218750
1062.457, 7.688965
1062.939, 6.584473
1063.421, 3.642822
1063.903, 3.904541
1064.385, 7.353516
1064.868, 10.71582
1065.350, 12.15381
1065.832, 12.49951
1066.314, 12.25244
1066.796, 11.36157
1067.278, 9.618896
1067.760, 6.404541
1068.242, 4.344238
1068.724, 3.861084
1069.207, 4.418213
1069.689, 6.238037
1070.171, 8.348145
1070.653, 8.474609
1071.135, 6.375732
1071.617, 4.962158
1072.099, 5.997314
1072.581, 7.010742
1073.064, 6.946289
1073.546, 6.313477
1074.028, 6.837646
1074.510, 8.283203
1074.992, 9.745850
1075.474, 11.22974
1075.956, 11.70996
1076.438, 8.654785
1076.921, 5.401855
1077.403, 5.802246
1077.885, 10.66162
1078.367, 12.84888
1078.849, 12.15479
1079.331, 10.95654
1079.813, 10.56909
1080.295, 10.56030
1080.777, 10.74316
1081.260, 10.86011
1081.742, 10.29956
1082.224, 7.202881
1082.706, 6.319824
1083.188, 8.913574
1083.670, 11.65771
1084.152, 10.41431
1084.634, 6.645264
1085.116, 4.582275
1085.599, 4.408936
1086.081, 5.236816
1086.563, 7.682617
1087.045, 9.813721
1087.527, 10.63550
1088.009, 10.77734
1088.491, 12.18823
1088.973, 14.70239
1089.455, 14.08984
1089.938, 8.980957
1090.420, 4.639648
1090.902, 7.136719
1091.384, 11.06128
1091.866, 11.44434
1092.348, 8.016113
1092.830, 5.495605
1093.312, 3.786865
1093.795, 3.533936
1094.277, 5.838135
1094.759, 8.528320
1095.241, 8.329102
1095.723, 6.493652
1096.205, 5.055908
1096.687, 4.750732
1097.169, 4.283203
1097.651, 3.590820
1098.134, 2.617188
1098.616, 0.6428220
1099.098, 1.536621
1099.580, 0.2807620
1100.062, 3.467285
1100.544, 6.020264
1101.026, 4.722900
1101.508, 3.136719
1101.990, 2.013672
1102.473, 1.468506
1102.955, 2.140869
1103.437, 3.925049
1103.919, 3.617676
1104.401, 1.045166
1104.883, 1.227783
1105.365, 1.988037
1105.847, 1.232910
1106.330, 2.414795
1106.812, 7.612305
1107.294, 9.355713
1107.776, 6.961182
1108.258, 5.017822
1108.740, 4.236084
1109.222, 4.509766
1109.704, 6.518799
1110.187, 8.995850
1110.669, 10.63477
1111.151, 11.21045
1111.633, 10.71875
1112.115, 8.427490
1112.597, 7.130859
1113.079, 8.207764
1113.561, 10.19360
1114.043, 10.35498
1114.526, 9.322021
1115.008, 8.500732
1115.490, 8.560547
1115.972, 7.943604
1116.454, 6.178223
1116.936, 3.882813
1117.418, 0.7509770
1117.900, 2.570557
1118.382, 2.257813
1118.865, 0.8964840
1119.347, 3.372803
1119.829, 3.353271
1120.311, 2.487549
1120.793, 0.7084960
1121.275, 1.070068
1121.757, 1.796143
1122.239, 1.409668
1122.722, 1.841797
1123.204, 3.113770
1123.686, 3.740723
1124.168, 2.976318
1124.650, 0.9477540
1125.132, 4.022461
1125.614, 9.833496
1126.096, 10.99902
1126.578, 6.260742
1127.061, 2.769287
1127.543, 1.300537
1128.025, 0.7966310
1128.507, 0.4492190
1128.989, 0.3493650
1129.471, 0.8862300
1129.953, 1.933838
1130.435, 2.027100
1130.917, 0.1875000
1131.400, 9.6680000E-02
1131.882, 3.291260
1132.364, 6.823242
1132.846, 5.417725
1133.328, 1.706055
1133.810, 0.1926270
1134.292, 1.775635
1134.774, 3.550537
1135.257, 5.699707
1135.739, 6.464355
1136.221, 4.443848
1136.703, 1.338135
1137.185, 1.816650
1137.667, 4.702148
1138.149, 6.575928
1138.631, 6.105469
1139.114, 5.742432
1139.596, 6.565186
1140.078, 7.566406
1140.560, 8.305420
1141.042, 8.729980
1141.524, 8.356201
1142.006, 7.396240
1142.488, 7.129883
1142.970, 8.784180
1143.453, 10.27417
1143.935, 10.50928
1144.417, 10.08423
1144.899, 9.523193
1145.381, 8.827637
1145.863, 8.551025
1146.345, 8.674316
1146.827, 8.185303
1147.309, 4.685303
1147.792, 2.102051
1148.274, 4.775146
1148.756, 9.791992
1149.238, 11.60889
1149.720, 9.474121
1150.202, 7.514648
1150.684, 5.894531
1151.166, 4.948730
1151.649, 5.455566
1152.131, 6.353027
1152.613, 6.316162
1153.095, 5.765137
1153.577, 6.583740
1154.059, 9.463867
1154.541, 11.69287
1155.023, 12.98096
1155.505, 13.26196
1155.988, 11.99902
1156.470, 9.952637
1156.952, 7.157715
1157.434, 4.080811
1157.916, 4.480469
1158.398, 10.82178
1158.880, 14.84668
1159.362, 14.19849
1159.844, 11.56177
1160.327, 10.25098
1160.809, 9.923096
1161.291, 10.34692
1161.773, 11.58716
1162.255, 11.61108
1162.737, 8.436279
1163.219, 6.821289
1163.701, 8.889160
1164.184, 12.89429
1164.666, 15.57666
1165.148, 17.06030
1165.630, 17.50439
1166.112, 16.60864
1166.594, 16.18408
1167.076, 17.53271
1167.558, 18.27124
1168.041, 17.01660
1168.523, 14.58521
1169.005, 13.65161
1169.487, 13.79346
1169.969, 13.56812
1170.451, 12.12354
1170.933, 11.19873
1171.415, 12.04932
1171.897, 12.86865
1172.380, 12.09448
1172.862, 10.34009
1173.344, 12.10815
1173.826, 16.45508
1174.308, 19.10449
1174.790, 16.86133
1175.272, 14.45337
1175.754, 13.45923
1176.236, 13.25000
1176.719, 13.52783
1177.201, 14.10132
1177.683, 13.76929
1178.165, 12.73535
1178.647, 12.72705
1179.129, 16.15137
1179.611, 19.02979
1180.093, 19.34277
1180.576, 18.20410
1181.058, 16.72046
1181.540, 14.96387
1182.022, 12.76831
1182.504, 10.21021
1182.986, 9.212891
1183.468, 12.99194
1183.950, 16.61865
1184.432, 16.86255
1184.915, 14.71484
1185.397, 11.60986
1185.879, 7.560547
1186.361, 6.473877
1186.843, 8.412842
1187.325, 10.20093
1187.807, 9.342529
1188.289, 7.964355
1188.771, 7.147461
1189.254, 6.988525
1189.736, 7.673828
1190.218, 9.198975
1190.700, 11.38623
1191.182, 14.35474
1191.664, 15.95361
1192.146, 13.01807
1192.628, 9.280273
1193.111, 7.319580
1193.593, 6.987061
1194.075, 7.649170
1194.557, 9.459473
1195.039, 10.00952
1195.521, 8.609619
1196.003, 7.891602
1196.485, 11.58838
1196.968, 15.87476
1197.450, 17.33521
1197.932, 16.33765
1198.414, 15.94263
1198.896, 15.80566
1199.378, 15.47095
1199.860, 14.68628
1200.342, 14.10571
1200.824, 14.02002
1201.307, 14.73071
1201.789, 16.80566
1202.271, 20.00146
1202.753, 21.92651
1203.235, 22.56250
1203.717, 22.26978
1204.199, 21.07446
1204.681, 19.30420
1205.163, 16.54248
1205.646, 13.88965
1206.128, 12.77515
1206.610, 13.17554
1207.092, 12.94580
1207.574, 12.02246
1208.056, 11.74951
1208.538, 13.01147
1209.020, 13.93970
1209.503, 11.94556
1209.985, 9.088135
1210.467, 7.949707
1210.949, 8.612061
1211.431, 7.629883
1211.913, 4.930176
1212.395, 3.281250
1212.877, 4.084961
1213.359, 5.356934
1213.842, 5.115479
1214.324, 4.268555
1214.806, 3.917969
1215.288, 4.150146
1215.770, 4.127441
1216.252, 3.848389
1216.734, 3.591797
1217.216, 3.368408
1217.698, 3.443359
1218.181, 4.039551
1218.663, 5.093018
1219.145, 6.900391
1219.627, 9.681885
1220.109, 9.337402
1220.591, 5.739258
1221.073, 3.115234
1221.555, 3.867920
1222.038, 5.962158
1222.520, 8.543457
1223.002, 11.09277
1223.484, 13.16162
1223.966, 14.83496
1224.448, 15.05029
1224.930, 13.83276
1225.412, 12.14966
1225.895, 10.02075
1226.377, 8.353760
1226.859, 8.075439
1227.341, 8.560059
1227.823, 9.059082
1228.305, 9.629395
1228.787, 9.720947
1229.269, 9.353027
1229.751, 8.886475
1230.234, 8.444824
1230.716, 7.991455
1231.198, 7.179688
1231.680, 6.489258
1232.162, 6.366455
1232.644, 6.760742
1233.126, 8.535889
1233.608, 11.47925
1234.090, 13.16309
1234.573, 11.24365
1235.055, 8.796387
1235.537, 6.989014
1236.019, 5.855957
1236.501, 5.866211
1236.983, 6.978760
1237.465, 6.021973
1237.947, 3.244141
1238.430, 0.7673340
1238.912, 0.5073240
1239.394, 0.7712400
1239.876, 1.213379
1240.358, 3.057373
1240.840, 1.641846
1241.322, 2.343994
1241.804, 2.294189
1242.286, 1.188965
1242.769, 3.287109
1243.251, 0.8483890
1243.733, 3.590820
1244.215, 1.978027
1244.697, 0.9208980
1245.179, 1.991455
1245.661, 1.779541
1246.143, 3.321533
1246.625, 6.193604
1247.108, 7.866211
1247.590, 5.393311
1248.072, 4.279785
1248.554, 6.431396
1249.036, 8.802490
1249.518, 7.649902
1250.000, 4.479736
1250.482, 3.982422
1250.965, 5.651855
1251.447, 6.969482
1251.929, 6.721924
1252.411, 6.349365
1252.893, 5.779053
1253.375, 5.724365
1253.857, 8.387695
1254.339, 11.35913
1254.822, 8.458008
1255.304, 1.530762
1255.786, 2.498779
1256.268, 0.4519040
1256.750, 2.623047
1257.232, 3.618652
1257.714, 3.573242
1258.196, 1.430420
1258.678, 0.8879390
1259.161, 0.2490230
1259.643, 2.523926
1260.125, 4.659912
1260.607, 5.755615
1261.089, 6.267822
1261.571, 6.088867
1262.053, 6.040039
1262.535, 7.068359
1263.017, 8.332764
1263.500, 8.485596
1263.982, 8.316162
1264.464, 10.13867
1264.946, 15.04370
1265.428, 16.43115
1265.910, 13.81396
1266.392, 10.61328
1266.874, 9.208740
1267.357, 8.452881
1267.839, 8.184814
1268.321, 7.632080
1268.803, 4.889160
1269.285, 0.3271480
1269.767, 1.011230
1270.249, 2.985107
1270.731, 6.928467
1271.214, 8.168945
1271.696, 8.187744
1272.178, 7.116455
1272.660, 5.504395
1273.142, 4.240967
1273.624, 2.942627
1274.106, 3.209961
1274.588, 5.058838
1275.070, 5.957031
1275.552, 5.200928
1276.035, 5.627930
1276.517, 9.272461
1276.999, 12.93555
1277.481, 12.88501
1277.963, 10.29468
1278.445, 9.219238
1278.927, 9.562988
1279.409, 10.41602
1279.892, 11.93359
1280.374, 13.09790
1280.856, 13.27808
1281.338, 13.50342
1281.820, 13.46411
1282.302, 12.94409
1282.784, 12.58008
1283.266, 12.40552
1283.749, 12.07788
1284.231, 10.89209
1284.713, 11.21924
1285.195, 13.49268
1285.677, 15.67896
1286.159, 16.42285
1286.641, 16.06934
1287.123, 14.52905
1287.605, 12.09229
1288.088, 9.809570
1288.570, 8.012207
1289.052, 8.311768
1289.534, 10.84570
1290.016, 12.73584
1290.498, 11.19653
1290.980, 9.330322
1291.462, 9.717285
1291.944, 10.91309
1292.427, 10.79517
1292.909, 9.228760
1293.391, 9.413818
1293.873, 11.11133
1294.355, 12.08594
1294.837, 10.27759
1295.319, 8.719727
1295.801, 9.763672
1296.284, 10.64941
1296.766, 8.866699
1297.248, 5.236572
1297.730, 3.932861
1298.212, 4.446777
1298.694, 5.068115
1299.176, 5.795166
1299.658, 5.187256
1300.141, 2.041016
1300.623, 0.3908690
1301.105, 0.2995610
1301.587, 3.009521
1302.069, 6.544678
1302.551, 9.787109
1303.033, 10.25195
1303.515, 4.492188
1303.997, 1.354492
1304.479, 3.4179999E-03
1304.962, 0.3242190
1305.444, 0.0000000E+00
##END=



