##NAMES=Pyrolusite
##RRUFFID=R050361
##IDEAL CHEMISTRY=Mn^4+^O_2_
##LOCALITY=Serra do Navio, Amapa, Brazil
##OWNER=RRUFF
##SOURCE=University of Arizona Mineral Museum
##DESCRIPTION=Black prismatic crystals
##STATUS=The identification of this mineral has been confirmed by X-ray diffraction and chemical analysis
##URL=rruff.info/R050361
##MEASURED CHEMISTRY=Mn_1.00_O_2_
128.2001, 0.0000000E+00
128.6822, 3.5666998E-02
129.1643, 5.3505000E-02
129.6464, 3.1029001E-02
130.1285, 6.4289004E-02
130.6107, 0.4722440
131.0928, 0.6990360
131.5749, 0.5832940
132.0570, 0.3170700
132.5391, 0.1054920
133.0212, 2.4334000E-02
133.5034, 2.3289001E-02
133.9855, 0.1129380
134.4676, 0.3619690
134.9497, 0.6173970
135.4318, 0.5871350
135.9139, 0.2868770
136.3960, 0.1719090
136.8782, 0.3262860
137.3603, 0.9771580
137.8424, 1.432823
138.3245, 1.489584
138.8066, 1.395353
139.2887, 1.523977
139.7709, 2.042246
140.2530, 2.508184
140.7351, 2.132414
141.2172, 0.9443740
141.6993, 2.0688999E-02
142.1814, 0.1716380
142.6636, 1.080400
143.1457, 1.494492
143.6278, 0.7748930
144.1099, 1.6966000E-02
144.5920, 1.2758000E-02
145.0741, 0.5664620
145.5563, 1.351034
146.0384, 2.050491
146.5205, 2.703125
147.0026, 2.982958
147.4847, 2.409042
147.9668, 1.705807
148.4490, 1.253630
148.9311, 1.135763
149.4132, 1.189150
149.8953, 1.163517
150.3774, 1.054201
150.8595, 0.9318100
151.3417, 0.7151030
151.8238, 0.4799020
152.3059, 0.2784560
152.7880, 0.1654050
153.2701, 6.5035000E-02
153.7522, 0.1358620
154.2344, 0.5494960
154.7165, 0.8979050
155.1986, 1.208517
155.6807, 1.449648
156.1628, 1.576969
156.6449, 1.572895
157.1271, 1.470045
157.6092, 1.358143
158.0913, 1.352602
158.5734, 1.279135
159.0555, 0.8292730
159.5376, 0.2072090
160.0198, 0.2224270
160.5019, 0.2654690
160.9840, 3.1893000E-02
161.4661, 0.3266320
161.9482, 0.6063100
162.4303, 0.8933240
162.9125, 1.294518
163.3946, 1.783937
163.8767, 2.078337
164.3588, 1.808109
164.8409, 1.309671
165.3230, 1.154181
165.8052, 1.671566
166.2873, 2.363472
166.7694, 2.538828
167.2515, 1.976746
167.7336, 1.399509
168.2157, 1.177589
168.6979, 1.145012
169.1800, 1.115335
169.6621, 0.9952580
170.1442, 0.8390410
170.6263, 0.8291490
171.1084, 1.153688
171.5906, 1.310902
172.0727, 1.005264
172.5548, 0.4867250
173.0369, 0.1054780
173.5190, 8.7932996E-02
174.0011, 0.3924940
174.4833, 0.6680580
174.9654, 1.094860
175.4475, 1.293760
175.9296, 0.9515610
176.4117, 0.3168280
176.8938, 0.1265240
177.3760, 2.4775000E-02
177.8581, 0.7929170
178.3402, 1.138552
178.8223, 0.5344770
179.3044, 7.9585999E-02
179.7865, 0.4394130
180.2687, 1.348515
180.7508, 2.031189
181.2329, 1.932318
181.7150, 0.9563430
182.1971, 0.3736920
182.6792, 0.3967290
183.1614, 0.5709930
183.6435, 0.6911430
184.1256, 0.7239530
184.6077, 0.6866040
185.0898, 0.5641350
185.5719, 0.3540690
186.0541, 0.2743030
186.5362, 0.4489230
187.0183, 0.6434210
187.5004, 0.5565570
187.9825, 0.1371480
188.4646, 0.2066170
188.9468, 7.8699000E-02
189.4289, 0.8132440
189.9110, 1.244894
190.3931, 0.8864570
190.8752, 0.2197210
191.3573, 4.5924999E-02
191.8395, 0.5544220
192.3216, 1.184528
192.8037, 1.580059
193.2858, 1.774107
193.7679, 1.797594
194.2500, 1.519053
194.7322, 1.067427
195.2143, 0.8856910
195.6964, 1.192486
196.1785, 1.436539
196.6606, 1.196360
197.1427, 0.6676920
197.6249, 0.2913280
198.1070, 0.4634060
198.5891, 1.105354
199.0712, 1.423227
199.5533, 1.168156
200.0354, 0.8283690
200.5176, 0.4930130
200.9997, 0.2122540
201.4818, 7.8348003E-02
201.9639, 0.1926650
202.4460, 0.5651340
202.9281, 0.8665050
203.4103, 1.201715
203.8924, 1.337545
204.3745, 0.9694650
204.8566, 0.2996440
205.3387, 0.1675010
205.8208, 6.4828999E-02
206.3030, 1.117760
206.7851, 1.738106
207.2672, 1.548758
207.7493, 1.337513
208.2314, 1.500502
208.7135, 1.924513
209.1957, 2.281633
209.6778, 2.354055
210.1599, 2.083496
210.6420, 1.988787
211.1241, 2.349688
211.6062, 2.614281
212.0884, 2.357199
212.5705, 1.659035
213.0526, 1.015383
213.5347, 0.8841970
214.0168, 1.343849
214.4989, 1.702705
214.9811, 1.999847
215.4632, 2.179556
215.9453, 2.135807
216.4274, 1.886383
216.9095, 1.639690
217.3916, 1.573425
217.8737, 1.684782
218.3559, 1.802374
218.8380, 1.998724
219.3201, 2.174303
219.8022, 2.274570
220.2843, 2.295031
220.7664, 2.192205
221.2486, 1.851492
221.7307, 1.335800
222.2128, 0.9339030
222.6949, 0.6545220
223.1770, 0.5236630
223.6591, 0.6641120
224.1413, 1.128214
224.6234, 1.511530
225.1055, 1.405199
225.5876, 1.014887
226.0697, 0.6971590
226.5518, 0.5308700
227.0340, 0.4949320
227.5161, 0.6041790
227.9982, 0.9130230
228.4803, 1.176315
228.9624, 1.305302
229.4445, 1.292925
229.9267, 1.072771
230.4088, 1.000624
230.8909, 0.8516043
231.3730, 0.5745490
231.8551, 0.5804710
232.3372, 0.3452210
232.8194, 0.2839490
233.3015, 1.037386
233.7836, 1.588343
234.2657, 1.766521
234.7478, 1.708685
235.2299, 1.790127
235.7121, 2.136488
236.1942, 2.349281
236.6763, 2.329985
237.1584, 2.131512
237.6405, 1.759968
238.1227, 1.182003
238.6048, 0.5436190
239.0869, 0.2494010
239.5690, 0.5280080
240.0511, 0.7587010
240.5332, 0.7420540
241.0154, 0.6653770
241.4975, 0.7522010
241.9796, 1.101421
242.4617, 1.560856
242.9438, 1.734089
243.4259, 1.399853
243.9081, 1.108730
244.3902, 0.8858390
244.8723, 0.7491700
245.3544, 0.7520980
245.8365, 0.9071880
246.3186, 1.105175
246.8008, 1.156010
247.2829, 0.8424070
247.7650, 0.6641460
248.2471, 0.6466160
248.7292, 0.7534890
249.2113, 0.9901370
249.6935, 1.359735
250.1756, 1.784422
250.6577, 2.124876
251.1398, 2.471085
251.6219, 2.563181
252.1040, 2.224745
252.5862, 1.738491
253.0683, 1.344687
253.5504, 1.118773
254.0325, 0.9825970
254.5146, 0.8052010
254.9967, 0.4746760
255.4789, 0.3290710
255.9610, 0.4720820
256.4431, 0.7435870
256.9252, 1.077251
257.4073, 1.439905
257.8894, 1.679132
258.3716, 1.547312
258.8537, 0.7619670
259.3358, 0.4021700
259.8179, 0.8440840
260.3000, 1.498514
260.7821, 1.870880
261.2643, 1.873306
261.7464, 1.684206
262.2285, 1.467430
262.7106, 1.199568
263.1927, 1.030083
263.6748, 1.256563
264.1570, 1.437128
264.6391, 0.9999920
265.1212, 6.5706000E-02
265.6033, 0.9709840
266.0854, 0.8756830
266.5675, 0.2841190
267.0497, 1.090429
267.5318, 1.337780
268.0139, 1.340631
268.4960, 1.310715
268.9781, 1.265020
269.4602, 1.170311
269.9424, 0.9360690
270.4245, 0.6214430
270.9066, 0.5644150
271.3887, 1.085377
271.8708, 1.632330
272.3529, 1.700775
272.8351, 1.327291
273.3172, 1.018900
273.7993, 1.144262
274.2814, 1.551531
274.7635, 1.712318
275.2456, 1.388590
275.7278, 1.071566
276.2099, 1.134165
276.6920, 1.540751
277.1741, 2.022783
277.6562, 2.536306
278.1383, 2.944252
278.6205, 3.055109
279.1026, 2.779140
279.5847, 2.409292
280.0668, 2.056309
280.5489, 1.740702
281.0310, 1.625645
281.5132, 1.879871
281.9953, 2.255655
282.4774, 2.394915
282.9595, 2.261316
283.4416, 2.074501
283.9237, 2.013933
284.4059, 2.045126
284.8880, 2.015285
285.3701, 1.867472
285.8522, 1.675163
286.3343, 1.469133
286.8164, 1.252058
287.2986, 1.162827
287.7807, 1.341446
288.2628, 1.712963
288.7449, 2.038965
289.2270, 2.327385
289.7091, 2.506258
290.1913, 2.551157
290.6734, 2.483732
291.1555, 2.288994
291.6376, 1.809715
292.1197, 1.218212
292.6018, 0.9559290
293.0840, 1.151194
293.5661, 1.426386
294.0482, 1.570992
294.5303, 1.614714
295.0124, 1.592022
295.4945, 1.443575
295.9767, 1.274574
296.4588, 1.337984
296.9409, 1.743038
297.4230, 2.006834
297.9051, 1.729969
298.3872, 1.209034
298.8694, 0.7475660
299.3515, 0.3780840
299.8336, 0.1952190
300.3157, 0.4042450
300.7978, 1.081322
301.2799, 1.700537
301.7621, 2.137852
302.2442, 2.376629
302.7263, 2.319483
303.2084, 1.905012
303.6905, 1.455448
304.1726, 1.318083
304.6548, 1.506212
305.1369, 1.697504
305.6190, 1.786768
306.1011, 1.879709
306.5832, 2.133177
307.0653, 2.542906
307.5475, 2.810946
308.0296, 2.561251
308.5117, 1.853745
308.9938, 1.430531
309.4759, 1.568716
309.9580, 1.805971
310.4402, 1.866608
310.9223, 1.763105
311.4044, 1.562490
311.8865, 1.154907
312.3686, 0.6495040
312.8507, 0.5856000
313.3329, 1.281094
313.8150, 1.882755
314.2971, 1.914150
314.7792, 1.547438
315.2613, 1.055424
315.7434, 0.3855320
316.2256, 0.2194840
316.7077, 7.6596998E-02
317.1898, 1.198528
317.6719, 2.145485
318.1540, 1.649368
318.6361, 0.6697620
319.1183, 0.2920880
319.6004, 0.9545820
320.0825, 1.982870
320.5646, 2.451723
321.0467, 2.275568
321.5288, 2.087755
322.0110, 2.171429
322.4931, 2.265337
322.9752, 2.058954
323.4573, 1.445835
323.9394, 0.9616760
324.4215, 1.231621
324.9037, 2.183945
325.3858, 2.927694
325.8679, 3.419041
326.3500, 3.499660
326.8321, 2.860249
327.3142, 1.632885
327.7964, 0.5869120
328.2785, 0.2337060
328.7606, 0.4954220
329.2427, 1.056282
329.7248, 2.137037
330.2069, 3.104620
330.6891, 3.672363
331.1712, 3.866108
331.6533, 3.700743
332.1354, 3.039349
332.6175, 2.095762
333.0996, 1.260426
333.5818, 0.5004180
334.0639, 5.4205000E-02
334.5460, -0.1834271
335.0281, 0.4110660
335.5102, 8.9198999E-02
335.9923, 0.7908440
336.4745, 1.702414
336.9566, 1.984276
337.4387, 1.601454
337.9208, 1.165886
338.4029, 0.8373640
338.8850, 0.5680830
339.3671, 0.2032430
339.8492, 0.3002360
340.3314, 0.4652520
340.8135, 0.4206640
341.2956, 2.116297
341.7777, 3.050232
342.2598, 2.618814
342.7419, 1.812283
343.2241, 1.475313
343.7062, 1.533743
344.1883, 1.646345
344.6704, 1.770279
345.1525, 1.817223
345.6346, 1.470366
346.1168, 0.5309730
346.5989, 0.2142370
347.0810, 0.1232470
347.5631, 1.029329
348.0452, 1.607912
348.5273, 1.411709
349.0095, 0.9938640
349.4916, 1.010740
349.9737, 1.472376
350.4558, 1.883259
350.9379, 1.979820
351.4200, 1.904926
351.9022, 1.902296
352.3843, 2.000658
352.8664, 2.117489
353.3485, 2.281666
353.8306, 2.450739
354.3127, 2.356398
354.7949, 1.738281
355.2770, 1.083479
355.7591, 1.083609
356.2412, 1.721985
356.7233, 2.251873
357.2054, 2.343929
357.6876, 2.178602
358.1697, 2.028505
358.6518, 1.927990
359.1339, 1.837664
359.6160, 1.690472
360.0981, 1.515444
360.5803, 1.471519
361.0624, 1.667994
361.5445, 1.935429
362.0266, 2.238010
362.5087, 2.540642
362.9908, 2.555893
363.4730, 1.999872
363.9551, 1.140217
364.4372, 0.7747340
364.9193, 1.143650
365.4014, 1.541460
365.8835, 1.557909
366.3657, 1.384209
366.8478, 1.534945
367.3299, 2.253981
367.8120, 3.024357
368.2941, 2.904367
368.7762, 1.637491
369.2584, 0.7107370
369.7405, 0.4282530
370.2226, 0.5201420
370.7047, 0.8777310
371.1868, 1.442904
371.6689, 1.861982
372.1511, 1.823614
372.6332, 1.307915
373.1153, 1.033810
373.5974, 1.054358
374.0795, 1.226788
374.5616, 1.637569
375.0438, 2.162432
375.5259, 2.517107
376.0080, 2.539043
376.4901, 2.297483
376.9722, 2.027743
377.4543, 1.685010
377.9365, 1.376006
378.4186, 0.9657910
378.9007, 0.6566480
379.3828, 0.7325820
379.8649, 1.255737
380.3470, 1.981172
380.8292, 2.602738
381.3113, 3.220657
381.7934, 3.371938
382.2755, 2.551146
382.7576, 1.765595
383.2397, 1.697699
383.7219, 2.222434
384.2040, 2.753684
384.6861, 2.816491
385.1682, 2.447784
385.6503, 2.232658
386.1324, 2.392920
386.6146, 2.463429
387.0967, 2.286627
387.5788, 2.004651
388.0609, 1.796364
388.5430, 1.738289
389.0251, 1.778543
389.5073, 1.822512
389.9894, 1.901510
390.4715, 1.913542
390.9536, 1.862645
391.4357, 1.747947
391.9178, 1.391754
392.4000, 0.8802080
392.8821, 0.6724090
393.3642, 1.439249
393.8463, 3.226042
394.3284, 4.048656
394.8105, 3.062188
395.2927, 2.038628
395.7748, 1.621943
396.2569, 1.572527
396.7390, 1.418335
397.2211, 0.8760690
397.7032, 0.1935880
398.1854, 1.2338000E-02
398.6675, 0.4331570
399.1496, 0.9197740
399.6317, 1.414227
400.1138, 1.805779
400.5959, 2.002791
401.0781, 1.990255
401.5602, 1.813820
402.0423, 1.416954
402.5244, 0.8342520
403.0065, 0.4228870
403.4886, 0.2048140
403.9708, 0.2177340
404.4529, 0.6849430
404.9350, 1.412526
405.4171, 1.786333
405.8992, 1.092554
406.3813, 0.1261770
406.8635, 0.4196120
407.3456, 2.157971
407.8277, 3.426611
408.3098, 2.948313
408.7919, 1.562245
409.2740, 0.7408820
409.7562, 0.7363520
410.2383, 0.8418260
410.7204, 0.5110090
411.2025, 5.7902999E-02
411.6846, 0.2122630
412.1667, 0.3293370
412.6489, 1.003949
413.1310, 1.074279
413.6131, 0.5658420
414.0952, 0.2035810
414.5773, 0.1669040
415.0594, 0.2857000
415.5416, 0.4703420
416.0237, 0.7013090
416.5058, 0.8995900
416.9879, 1.001681
417.4700, 1.031736
417.9521, 1.123353
418.4343, 1.491043
418.9164, 1.657146
419.3985, 1.376850
419.8806, 0.8495860
420.3627, 0.3392450
420.8448, 7.0324004E-02
421.3270, 0.3888760
421.8091, 0.6402120
422.2912, 0.8671780
422.7733, 0.8615920
423.2554, 0.3734610
423.7375, 0.1142550
424.2197, 0.2420970
424.7018, 9.7294003E-02
425.1839, 7.6086000E-02
425.6660, 0.5011050
426.1481, 1.262462
426.6302, 1.563046
427.1124, 0.9125310
427.5945, 0.3784200
428.0766, 7.4042998E-02
428.5587, 0.2654910
429.0408, 0.1740120
429.5229, 1.265856
430.0051, 2.395520
430.4872, 2.539246
430.9693, 1.336256
431.4514, 0.6590160
431.9335, 1.005849
432.4156, 1.504038
432.8978, 1.999402
433.3799, 2.373744
433.8620, 2.397666
434.3441, 1.785167
434.8262, 0.8390050
435.3083, 0.5214180
435.7905, 1.114603
436.2726, 1.557022
436.7547, 1.236846
437.2368, 0.7167060
437.7189, 0.4766960
438.2010, 0.6109450
438.6832, 0.9444070
439.1653, 1.510654
439.6474, 2.155753
440.1295, 2.343351
440.6116, 1.816371
441.0938, 1.143848
441.5759, 0.8149960
442.0580, 0.7399460
442.5401, 0.6682510
443.0222, 0.4029740
443.5043, 0.2296160
443.9865, 0.4862440
444.4686, 1.065804
444.9507, 1.548902
445.4328, 1.702476
445.9149, 1.643126
446.3970, 1.645818
446.8792, 1.754539
447.3613, 1.784195
447.8434, 1.566947
448.3255, 1.297344
448.8076, 1.208845
449.2897, 1.340977
449.7719, 1.634759
450.2540, 2.102956
450.7361, 2.770253
451.2182, 2.940798
451.7003, 2.146618
452.1824, 1.446044
452.6646, 1.323666
453.1467, 1.532053
453.6288, 1.613466
454.1109, 1.366461
454.5930, 0.9833040
455.0751, 0.8657740
455.5573, 1.253695
456.0394, 1.428752
456.5215, 1.119901
457.0036, 0.8740340
457.4857, 1.182190
457.9678, 1.888269
458.4500, 2.371006
458.9321, 2.067213
459.4142, 1.171538
459.8963, 0.8838340
460.3784, 1.645681
460.8605, 2.233524
461.3427, 2.146991
461.8248, 1.853337
462.3069, 1.854630
462.7890, 2.273522
463.2711, 2.725454
463.7532, 2.804113
464.2354, 2.528347
464.7175, 2.176070
465.1996, 1.655169
465.6817, 1.261857
466.1638, 1.229956
466.6459, 1.476484
467.1281, 1.832115
467.6102, 2.535748
468.0923, 3.059112
468.5744, 2.522753
469.0565, 1.051109
469.5386, 0.1080640
470.0208, 0.4991360
470.5029, 1.466694
470.9850, 1.595567
471.4671, 0.7026480
471.9492, 0.1701210
472.4313, 0.6656890
472.9135, 1.508759
473.3956, 1.973783
473.8777, 2.004482
474.3598, 1.936448
474.8419, 2.035022
475.3240, 2.264079
475.8062, 2.261472
476.2883, 1.826974
476.7704, 1.441013
477.2525, 1.151661
477.7346, 0.9832340
478.2167, 1.024451
478.6989, 1.264496
479.1810, 1.504044
479.6631, 1.506004
480.1452, 1.245132
480.6273, 0.8930890
481.1094, 0.8003057
481.5916, 0.2120480
482.0737, 0.3817900
482.5558, 0.3076040
483.0379, 3.8116999E-02
483.5200, 0.4420610
484.0021, 0.9513940
484.4843, 1.119308
484.9664, 0.8710240
485.4485, 0.6095010
485.9306, 0.1354560
486.4127, 9.5720999E-02
486.8948, 0.5244870
487.3770, 1.801906
487.8591, 2.725871
488.3412, 2.412132
488.8233, 1.457821
489.3054, 1.030176
489.7875, 1.183897
490.2697, 1.484169
490.7518, 1.855513
491.2339, 2.155987
491.7160, 2.058924
492.1981, 1.342914
492.6802, 0.8566380
493.1624, 1.209811
493.6445, 1.924456
494.1266, 2.318448
494.6087, 2.273973
495.0908, 1.885314
495.5729, 1.100067
496.0551, 5.9069000E-02
496.5372, 0.4474510
497.0193, 0.6066940
497.5014, 1.524033
497.9835, 1.793248
498.4656, 1.645647
498.9478, 1.403643
499.4299, 1.179403
499.9120, 0.9181570
500.3941, 0.8076381
500.8762, 0.3748040
501.3583, 0.5821190
501.8405, 0.7568240
502.3226, 0.6296223
502.8047, 1.628056
503.2868, 0.7300920
503.7689, 0.2647690
504.2510, 0.8438480
504.7331, 1.859612
505.2152, 2.143390
505.6974, 1.560085
506.1795, 1.092467
506.6616, 0.9666240
507.1437, 0.9808380
507.6258, 1.010271
508.1079, 1.052063
508.5901, 1.115125
509.0722, 1.300154
509.5543, 1.461373
510.0364, 1.301332
510.5185, 0.8263830
511.0006, 0.4724040
511.4828, 0.4616060
511.9649, 0.6821680
512.4470, 0.9161020
512.9291, 1.190856
513.4113, 1.395714
513.8934, 1.542104
514.3755, 1.575472
514.8576, 1.363035
515.3397, 0.9388800
515.8218, 0.5475630
516.3040, 0.3682440
516.7861, 0.3803520
517.2682, 0.4361090
517.7503, 0.4907800
518.2324, 0.6505550
518.7145, 1.066500
519.1967, 1.506199
519.6788, 1.735012
520.1609, 1.726491
520.6430, 1.644006
521.1251, 1.680553
521.6072, 1.826209
522.0894, 1.701903
522.5715, 1.026936
523.0536, 0.5447780
523.5357, 0.5890650
524.0178, 0.8963480
524.4999, 1.281142
524.9821, 1.754700
525.4642, 2.150043
525.9463, 2.284710
526.4284, 2.193489
526.9105, 2.015506
527.3926, 1.734298
527.8748, 1.450704
528.3569, 1.164537
528.8390, 0.9182600
529.3211, 0.8694770
529.8032, 1.251847
530.2853, 1.590635
530.7675, 1.531854
531.2496, 1.254333
531.7317, 1.152618
532.2138, 1.349500
532.6959, 1.638526
533.1780, 1.765302
533.6602, 1.709110
534.1423, 1.611512
534.6244, 1.268977
535.1065, 1.109998
535.5886, 1.460408
536.0707, 2.050755
536.5529, 2.496082
537.0350, 2.637671
537.5171, 2.534921
537.9992, 2.206439
538.4813, 1.565001
538.9634, 1.147861
539.4456, 1.068377
539.9277, 1.104332
540.4098, 1.219958
540.8919, 1.389828
541.3740, 1.542312
541.8561, 1.640171
542.3383, 1.708403
542.8204, 1.771214
543.3025, 1.828793
543.7846, 1.906893
544.2667, 2.044761
544.7488, 2.144116
545.2310, 1.998598
545.7131, 1.640006
546.1952, 1.372082
546.6773, 1.400834
547.1594, 1.386067
547.6415, 0.9745990
548.1237, 0.3451740
548.6058, 6.3054003E-02
549.0879, 7.2031997E-02
549.5700, 0.2062190
550.0521, 0.6343860
550.5342, 1.389678
551.0164, 1.728298
551.4985, 1.379689
551.9806, 0.9573500
552.4627, 0.6333590
552.9448, 0.4503560
553.4269, 0.4429290
553.9091, 0.6212850
554.3912, 0.9079170
554.8733, 1.300415
555.3554, 1.802136
555.8375, 2.121044
556.3196, 2.174098
556.8018, 2.076151
557.2839, 1.890657
557.7660, 1.627483
558.2481, 1.305187
558.7302, 0.8392330
559.2123, 0.3813530
559.6945, 6.1646000E-02
560.1766, 0.1340640
560.6587, 2.1150000E-02
561.1408, 0.7013250
561.6229, 1.394794
562.1050, 1.412317
562.5872, 0.6134250
563.0693, 7.4991003E-02
563.5514, 0.1275530
564.0335, 0.1298550
564.5156, 0.1126770
564.9977, 0.4835490
565.4799, 0.8010320
565.9620, 0.9908850
566.4441, 1.092059
566.9262, 1.178375
567.4083, 1.285363
567.8904, 1.230115
568.3726, 0.6823590
568.8547, 0.3172550
569.3368, 0.5296990
569.8189, 1.038615
570.3010, 1.365841
570.7831, 1.320510
571.2653, 1.141232
571.7474, 1.078324
572.2295, 1.125994
572.7116, 1.263206
573.1937, 1.540647
573.6758, 1.769926
574.1580, 1.742540
574.6401, 1.525783
575.1222, 1.383469
575.6043, 1.448179
576.0864, 1.468989
576.5685, 1.220251
577.0507, 0.8759130
577.5328, 0.7552650
578.0149, 0.9291900
578.4970, 1.209374
578.9791, 1.445571
579.4612, 1.655219
579.9434, 1.380353
580.4255, 1.436183
580.9076, 1.359241
581.3897, 1.157542
581.8718, 1.006018
582.3539, 0.9126809
582.8361, 0.5541650
583.3182, 0.6614190
583.8003, 0.5747990
584.2824, 0.3520550
584.7645, 0.4998490
585.2466, 1.212219
585.7288, 1.745258
586.2108, 1.653245
586.6929, 1.191917
587.1750, 0.6698880
587.6572, 5.2049000E-02
588.1393, 0.3792880
588.6214, 0.4258070
589.1035, 0.2481890
589.5856, 8.2168996E-02
590.0677, 6.7961000E-02
590.5499, 0.4215870
591.0320, 1.179183
591.5141, 2.165954
591.9962, 2.721920
592.4783, 2.481722
592.9604, 2.299587
593.4426, 2.207267
593.9247, 2.156452
594.4068, 2.109957
594.8889, 2.073275
595.3710, 2.099323
595.8531, 2.259662
596.3353, 2.427059
596.8174, 2.237127
597.2995, 1.605341
597.7816, 1.100435
598.2637, 0.8127160
598.7458, 0.7420820
599.2280, 0.9056150
599.7101, 1.275428
600.1922, 1.701889
600.6743, 2.312046
601.1564, 2.810658
601.6385, 2.816470
602.1207, 2.499374
602.6028, 2.472622
603.0849, 2.973490
603.5670, 3.396007
604.0491, 2.845333
604.5313, 1.024920
605.0134, 9.9588998E-02
605.4955, 0.5769500
605.9776, 1.235353
606.4597, 1.865441
606.9418, 2.375229
607.4240, 2.669994
607.9061, 2.717943
608.3882, 2.587252
608.8703, 2.214925
609.3524, 1.646292
609.8345, 1.587878
610.3167, 2.331727
610.7988, 2.877439
611.2809, 2.512858
611.7630, 1.753387
612.2451, 1.274893
612.7272, 1.152253
613.2094, 1.210896
613.6915, 1.439991
614.1736, 1.769359
614.6557, 2.213710
615.1378, 2.717764
615.6199, 2.976001
616.1021, 2.789894
616.5842, 2.266829
617.0663, 1.692818
617.5484, 0.7559170
618.0305, 0.3069090
618.5126, 0.5873590
618.9948, 1.099068
619.4769, 1.756044
619.9590, 2.402674
620.4411, 2.744894
620.9232, 2.600677
621.4053, 2.225034
621.8875, 2.011374
622.3696, 1.963474
622.8517, 1.961990
623.3338, 1.985488
623.8159, 2.059979
624.2980, 2.307232
624.7802, 2.633280
625.2623, 2.703628
625.7444, 2.165739
626.2265, 1.771093
626.7086, 2.051983
627.1907, 2.606941
627.6729, 2.851517
628.1550, 2.690830
628.6371, 2.413307
629.1192, 2.277987
629.6013, 2.252557
630.0834, 2.047247
630.5656, 1.305581
631.0477, 0.9914060
631.5298, 1.498292
632.0119, 2.228260
632.4940, 2.809790
632.9761, 3.196813
633.4583, 3.452945
633.9404, 3.577026
634.4225, 3.624749
634.9046, 3.639514
635.3867, 3.632536
635.8688, 3.791312
636.3510, 4.249975
636.8331, 4.706467
637.3152, 4.749483
637.7973, 4.281965
638.2794, 4.115419
638.7615, 4.617269
639.2437, 5.004662
639.7258, 4.841232
640.2079, 4.349840
640.6900, 3.940082
641.1721, 3.745090
641.6542, 3.789612
642.1364, 4.163195
642.6185, 4.829273
643.1006, 5.321661
643.5827, 5.686874
644.0648, 5.767811
644.5469, 5.046360
645.0291, 4.306635
645.5112, 4.409575
645.9933, 5.389024
646.4754, 6.202790
646.9575, 6.319349
647.4396, 6.096529
647.9218, 5.737508
648.4039, 5.344632
648.8860, 5.302830
649.3681, 5.809269
649.8502, 6.595860
650.3323, 7.234104
650.8145, 7.727365
651.2966, 7.948328
651.7787, 7.675980
652.2608, 7.398264
652.7429, 7.188854
653.2250, 7.090791
653.7072, 7.185229
654.1893, 7.484658
654.6714, 7.842044
655.1535, 8.083010
655.6356, 8.216162
656.1177, 8.376240
656.5999, 8.609004
657.0820, 8.617424
657.5641, 8.120543
658.0462, 7.531588
658.5283, 7.454750
659.0104, 7.873846
659.4926, 8.257272
659.9747, 8.725080
660.4568, 9.025574
660.9389, 8.927406
661.4210, 8.551126
661.9031, 8.119717
662.3853, 7.724857
662.8674, 7.403208
663.3495, 7.159225
663.8316, 7.007437
664.3137, 6.936594
664.7958, 7.014389
665.2780, 7.049683
665.7601, 7.037393
666.2422, 6.897275
666.7243, 6.417005
667.2064, 5.510792
667.6885, 4.861779
668.1707, 5.184008
668.6528, 5.667654
669.1349, 5.121848
669.6170, 3.794952
670.0991, 3.014235
670.5812, 3.429205
671.0634, 4.421223
671.5455, 4.926441
672.0276, 4.823130
672.5097, 4.682934
672.9918, 4.474678
673.4739, 4.263346
673.9561, 4.173664
674.4382, 4.060377
674.9203, 3.599514
675.4024, 2.735647
675.8845, 1.973083
676.3666, 1.833645
676.8488, 2.057780
677.3309, 2.046591
677.8130, 1.777904
678.2951, 1.633169
678.7772, 1.851199
679.2593, 2.178720
679.7415, 2.116673
680.2236, 1.426161
680.7057, 1.093108
681.1878, 1.400042
681.6699, 1.751165
682.1520, 1.906893
682.6342, 1.921555
683.1163, 1.866817
683.5984, 1.775562
684.0805, 1.736151
684.5626, 1.936361
685.0447, 2.294173
685.5269, 2.302618
686.0090, 1.877303
686.4911, 1.541323
686.9732, 1.553674
687.4553, 1.748706
687.9374, 1.914910
688.4196, 2.082446
688.9017, 2.016735
689.3838, 1.393814
689.8659, 0.8152650
690.3480, 0.6353170
690.8301, 0.7540710
691.3123, 0.9921860
691.7944, 1.284024
692.2765, 1.638983
692.7586, 2.205052
693.2407, 2.917274
693.7228, 2.697706
694.2050, 1.040042
694.6871, 0.1735630
695.1692, 0.1242700
695.6513, 0.8725670
696.1334, 0.8077040
696.6155, 7.3398001E-02
697.0977, 0.5665250
697.5798, 0.1050550
698.0619, 0.8899010
698.5440, 0.9012780
699.0261, 0.4673080
699.5082, 0.3534580
699.9904, 0.7565980
700.4725, 1.178762
700.9546, 1.040317
701.4367, 0.3938120
701.9188, 4.0468000E-02
702.4009, 6.6413999E-02
702.8831, 0.2183610
703.3652, 0.6363990
703.8473, 1.005420
704.3294, 1.049814
704.8115, 0.8014650
705.2936, 0.5364200
705.7758, 0.3890470
706.2579, 0.2426150
706.7400, 0.2119300
707.2221, 0.7046210
707.7042, 0.4890140
708.1863, 0.5733800
708.6685, 1.699099
709.1506, 2.203827
709.6327, 2.141261
710.1148, 1.881424
710.5969, 1.298320
711.0790, 0.7485690
711.5612, 0.1295710
712.0433, 0.3164380
712.5254, 0.3778510
713.0075, 0.1259010
713.4896, 0.2518950
713.9717, 0.8934830
714.4539, 1.241955
714.9360, 0.3261890
715.4181, 1.167202
715.9002, 1.526811
716.3823, 0.5279460
716.8644, 0.7234550
717.3466, 1.481271
717.8287, 1.787032
718.3108, 1.787160
718.7929, 1.291465
719.2750, 0.8358030
719.7571, 0.2409280
720.2393, 8.9405000E-02
720.7214, 0.3235240
721.2035, 1.087781
721.6856, 1.416137
722.1677, 0.9659760
722.6498, 0.4489030
723.1320, 0.5277700
723.6141, 0.9683670
724.0962, 1.310499
724.5783, 1.523921
725.0604, 1.651076
725.5425, 1.744639
726.0247, 1.755939
726.5068, 1.567271
726.9889, 1.064577
727.4710, 0.7005600
727.9531, 0.4696710
728.4352, 0.3813710
728.9174, 0.5212830
729.3995, 0.7684030
729.8816, 1.042303
730.3637, 1.313094
730.8458, 1.368884
731.3279, 0.6928190
731.8101, 0.1044060
732.2922, 0.2438360
732.7743, 1.534562
733.2564, 2.271303
733.7385, 1.852136
734.2206, 1.087687
734.7028, 1.020905
735.1849, 1.708472
735.6670, 2.238301
736.1491, 2.644622
736.6312, 2.833806
737.1133, 2.663832
737.5955, 2.366752
738.0776, 2.128045
738.5597, 1.959713
739.0418, 1.778603
739.5239, 1.417901
740.0060, 1.174893
740.4882, 1.527631
740.9703, 2.281728
741.4524, 2.854130
741.9345, 3.122448
742.4166, 3.222916
742.8987, 3.287391
743.3809, 3.260126
743.8630, 2.814580
744.3451, 1.346874
744.8272, 0.5733490
745.3093, 1.101605
745.7914, 1.798653
746.2736, 2.095482
746.7557, 2.102934
747.2378, 2.133438
747.7199, 2.296676
748.2020, 2.440429
748.6841, 2.493064
749.1663, 2.430656
749.6484, 2.019553
750.1305, 1.359238
750.6126, 1.235079
751.0947, 2.105337
751.5768, 3.377563
752.0590, 3.989209
752.5411, 3.804441
753.0232, 3.519238
753.5053, 2.944106
753.9874, 2.492363
754.4695, 2.233287
754.9517, 2.148271
755.4338, 2.411168
755.9159, 2.972137
756.3980, 3.364591
756.8801, 3.201599
757.3622, 2.916983
757.8444, 3.048676
758.3265, 3.374863
758.8086, 3.315199
759.2907, 2.735231
759.7728, 1.941560
760.2549, 1.179905
760.7371, 0.5263150
761.2192, 0.5253690
761.7013, 1.511113
762.1834, 2.251880
762.6655, 2.528309
763.1476, 2.499790
763.6298, 2.200836
764.1119, 1.700443
764.5940, 1.127857
765.0761, 0.3298690
765.5582, 0.1403460
766.0403, 0.1317510
766.5225, 0.7529510
767.0046, 1.486918
767.4867, 2.203719
767.9688, 2.637538
768.4509, 2.651484
768.9330, 2.411871
769.4152, 2.129551
769.8973, 1.772698
770.3794, 1.625127
770.8615, 1.766975
771.3436, 1.999566
771.8257, 2.390618
772.3079, 2.681627
772.7900, 2.342233
773.2721, 1.208983
773.7542, 0.5573320
774.2363, 1.351623
774.7184, 1.968879
775.2006, 1.100356
775.6827, 0.2339620
776.1648, 0.4920290
776.6469, 0.4403040
777.1290, 1.363485
777.6111, 1.322553
778.0933, 0.6576770
778.5754, 8.1708997E-02
779.0575, 0.4134040
779.5396, 0.5947110
780.0217, 0.3536200
780.5038, 1.4541000E-02
780.9860, 0.2354610
781.4681, 0.3661920
781.9502, 0.4019280
782.4323, 0.4213480
782.9144, 0.9001820
783.3965, 1.053077
783.8787, 9.6426003E-02
784.3608, 0.4360750
784.8429, 0.2946510
785.3250, 0.1256770
785.8071, 0.8952160
786.2892, 6.4351000E-02
786.7714, 0.6905060
787.2535, 0.7611360
787.7356, 1.145072
788.2177, 0.8509030
788.6998, 0.7663170
789.1819, 1.360281
789.6641, 1.565248
790.1462, 1.193615
790.6283, 1.598279
791.1104, 0.6162510
791.5925, 0.8514910
792.0746, 1.612283
792.5568, 1.276217
793.0389, 1.694936
793.5210, 1.826530
794.0031, 0.6523440
794.4852, 1.749337
794.9673, 1.864272
795.4495, 0.9708670
795.9316, 1.990374
796.4137, 1.236212
796.8958, 1.115293
797.3779, 1.470963
797.8600, 1.330027
798.3422, 1.972332
798.8243, 1.860310
799.3064, 1.681000
799.7885, 1.795963
800.2706, 1.631179
800.7527, 1.023619
801.2349, 0.6396210
801.7170, 0.8883770
802.1991, 1.438429
802.6812, 1.943162
803.1633, 2.413239
803.6454, 2.525311
804.1276, 1.727588
804.6097, 1.203779
805.0918, 1.759336
805.5739, 2.555665
806.0560, 2.642470
806.5381, 2.060830
807.0203, 1.489424
807.5024, 1.294282
807.9845, 1.377186
808.4666, 1.743906
808.9487, 2.284192
809.4308, 2.559661
809.9130, 2.517727
810.3951, 2.278420
810.8772, 1.852854
811.3593, 1.409624
811.8414, 1.316475
812.3235, 1.716121
812.8057, 1.924980
813.2878, 1.658173
813.7699, 1.557971
814.2520, 2.026725
814.7341, 2.589326
815.2162, 2.735182
815.6984, 2.450654
816.1805, 2.129520
816.6626, 1.923394
817.1447, 1.744766
817.6268, 1.371798
818.1089, 1.053760
818.5911, 1.411096
819.0732, 2.346337
819.5553, 2.859169
820.0374, 2.228649
820.5195, 1.155470
821.0016, 1.285258
821.4838, 2.670940
821.9659, 3.244157
822.4480, 2.654163
822.9301, 1.910070
823.4122, 1.351895
823.8943, 1.084785
824.3765, 1.411191
824.8586, 2.559142
825.3407, 3.088593
825.8228, 2.276595
826.3049, 1.657614
826.7870, 2.070922
827.2692, 2.726411
827.7513, 2.696534
828.2334, 2.010385
828.7155, 1.403704
829.1976, 1.214976
829.6797, 1.377645
830.1619, 2.138539
830.6440, 3.125656
831.1261, 3.336372
831.6082, 2.722936
832.0903, 2.073438
832.5724, 1.849222
833.0546, 1.788176
833.5367, 1.265869
834.0188, 9.9201001E-02
834.5009, 0.1865940
834.9830, 0.9325470
835.4651, 1.823087
835.9473, 1.635860
836.4294, 1.137094
836.9115, 1.233313
837.3936, 1.890284
837.8757, 2.327671
838.3578, 2.291932
838.8400, 2.168059
839.3221, 2.118695
839.8042, 2.029145
840.2863, 1.658315
840.7684, 1.153141
841.2505, 1.104094
841.7327, 1.871265
842.2148, 2.642739
842.6969, 2.120378
843.1790, 0.8809830
843.6611, 0.7177300
844.1432, 1.653059
844.6254, 2.441851
845.1075, 2.556284
845.5896, 2.336771
846.0717, 2.215311
846.5538, 2.196083
847.0359, 2.262288
847.5181, 2.483605
848.0002, 2.476248
848.4823, 1.756745
848.9644, 1.215097
849.4465, 1.613664
849.9286, 2.578133
850.4108, 3.088341
850.8929, 2.696281
851.3750, 2.493324
851.8571, 3.295613
852.3392, 4.102814
852.8214, 3.950839
853.3035, 3.191156
853.7856, 2.617327
854.2677, 2.485042
854.7498, 2.524878
855.2319, 2.423083
855.7141, 2.341079
856.1962, 2.833331
856.6783, 3.772025
857.1604, 4.162852
857.6425, 3.726247
858.1246, 3.236977
858.6068, 3.355335
859.0889, 3.908520
859.5710, 4.290241
860.0531, 4.633883
860.5352, 4.420968
861.0173, 3.101433
861.4995, 1.926570
861.9816, 1.453923
862.4637, 1.435506
862.9458, 1.628017
863.4279, 2.029104
863.9100, 2.347807
864.3922, 2.532409
864.8743, 2.616978
865.3564, 2.566651
865.8385, 2.409825
866.3206, 2.073921
866.8027, 1.629475
867.2849, 1.308317
867.7670, 1.224756
868.2491, 1.395335
868.7312, 2.132423
869.2133, 3.101165
869.6954, 3.168711
870.1776, 2.328468
870.6597, 1.596289
871.1418, 1.413379
871.6239, 1.685207
872.1060, 2.393006
872.5881, 3.527821
873.0703, 3.972213
873.5524, 3.474964
874.0345, 2.919342
874.5166, 2.401082
874.9987, 2.004733
875.4808, 1.767407
875.9630, 1.663087
876.4451, 1.655350
876.9272, 1.814801
877.4093, 1.913702
877.8914, 1.841325
878.3735, 1.783884
878.8557, 1.790888
879.3378, 1.884510
879.8199, 2.229498
880.3020, 2.806676
880.7841, 3.043621
881.2662, 2.271933
881.7484, 1.280336
882.2305, 0.9860870
882.7126, 1.235325
883.1947, 1.761389
883.6768, 2.436105
884.1589, 3.026854
884.6411, 3.416966
885.1232, 3.484359
885.6053, 2.748689
886.0874, 1.166372
886.5695, 0.5621590
887.0516, 1.196821
887.5338, 1.932720
888.0159, 2.431585
888.4980, 2.689274
888.9801, 2.668875
889.4622, 2.374559
889.9443, 2.051606
890.4265, 1.567690
890.9086, 1.246343
891.3907, 1.205201
891.8728, 1.249413
892.3549, 1.191956
892.8370, 1.151555
893.3192, 1.463532
893.8013, 2.282263
894.2834, 2.757348
894.7655, 2.203919
895.2476, 1.394729
895.7297, 0.7381550
896.2119, 0.3815200
896.6940, 0.7658280
897.1761, 1.777299
897.6582, 2.436888
898.1403, 1.995292
898.6224, 1.054514
899.1046, 0.4953840
899.5867, 0.2908000
900.0688, 0.4015400
900.5509, 0.8097910
901.0330, 1.080534
901.5151, 0.9903270
901.9973, 0.7769210
902.4794, 0.8331610
902.9615, 1.160467
903.4436, 0.9948950
903.9257, 2.7997000E-02
904.4078, 0.5508580
904.8900, 0.1520670
905.3721, 0.8528320
905.8542, 0.3885240
906.3363, 0.8058460
906.8184, 1.375454
907.3005, 1.081614
907.7827, 0.6976170
908.2648, 0.3143290
908.7469, 0.1360950
909.2290, 0.9242000
909.7111, 1.659592
910.1932, 1.739173
910.6754, 1.191621
911.1575, 0.7809810
911.6396, 1.016310
912.1217, 1.315489
912.6038, 1.156865
913.0859, 0.8013000
913.5681, 0.5423660
914.0502, 0.4445220
914.5323, 0.6211120
915.0144, 1.113501
915.4965, 1.573620
915.9786, 1.425017
916.4607, 0.9325490
916.9428, 1.254827
917.4249, 2.296488
917.9070, 2.632658
918.3892, 1.860835
918.8713, 0.9736030
919.3534, 0.7678070
919.8355, 1.021755
920.3176, 1.070416
920.7997, 0.8731850
921.2819, 0.5914780
921.7640, 5.1224001E-02
922.2461, 0.2201340
922.7282, 0.1573150
923.2103, 0.7633840
923.6924, 1.115566
924.1746, 1.224222
924.6567, 1.214665
925.1388, 1.009337
925.6209, 0.8035970
926.1030, 0.4446120
926.5851, 0.2752540
927.0673, 0.8062430
927.5494, 1.601674
928.0315, 1.783141
928.5136, 1.121219
928.9957, 0.5532370
929.4778, 0.5574480
929.9600, 0.8651450
930.4421, 1.658629
930.9242, 2.414195
931.4063, 2.104127
931.8884, 0.8587190
932.3705, 6.6575997E-02
932.8527, 6.1028998E-02
933.3348, 0.6121310
933.8169, 0.8424210
934.2990, 0.8040520
934.7811, 0.5359610
935.2632, 9.6354000E-02
935.7454, 0.1257520
936.2275, 1.6589999E-03
936.7096, 0.1479410
937.1917, 3.7234999E-02
937.6738, 0.3834800
938.1559, 7.2526999E-02
938.6381, 1.050599
939.1202, 1.462303
939.6023, 0.7964930
940.0844, 0.1223950
940.5665, 9.1733001E-02
941.0486, 8.2042001E-02
941.5308, 0.6189150
942.0129, 1.596260
942.4950, 2.097270
942.9771, 1.863669
943.4592, 1.541177
943.9413, 1.118110
944.4235, 0.7355400
944.9056, 0.4173820
945.3877, 0.2171390
945.8698, 0.2840590
946.3519, 0.7112720
946.8340, 1.062394
947.3162, 1.206877
947.7983, 1.270811
948.2804, 1.300025
948.7625, 1.296115
949.2446, 1.248937
949.7267, 1.165308
950.2089, 1.049448
950.6910, 0.8586510
951.1731, 0.8148240
951.6552, 1.186975
952.1373, 1.642976
952.6194, 1.669541
953.1016, 1.408489
953.5837, 1.258739
954.0658, 1.336529
954.5479, 1.550667
955.0300, 1.890116
955.5121, 2.197643
955.9943, 2.096579
956.4764, 1.705276
956.9585, 1.472338
957.4406, 1.446528
957.9227, 1.636129
958.4048, 2.069366
958.8870, 2.391825
959.3691, 2.052435
959.8512, 1.174724
960.3333, 0.7764020
960.8154, 0.9098060
961.2975, 1.198028
961.7797, 1.670320
962.2618, 1.909456
962.7439, 1.656802
963.2260, 1.124306
963.7081, 0.8234700
964.1902, 0.7020250
964.6724, 0.7782910
965.1545, 1.303248
965.6366, 1.759376
966.1187, 2.086474
966.6008, 2.244391
967.0829, 2.146573
967.5651, 1.871111
968.0472, 1.475402
968.5293, 0.8177380
969.0114, 0.4695450
969.4935, 0.7041880
969.9756, 1.028306
970.4578, 1.338503
970.9399, 1.546021
971.4220, 1.550846
971.9041, 1.369668
972.3862, 1.103133
972.8683, 0.7048180
973.3505, 0.4106510
973.8326, 0.3421650
974.3147, 0.4280710
974.7968, 0.7268970
975.2789, 1.085178
975.7610, 1.187681
976.2432, 1.017304
976.7253, 0.9582000
977.2074, 1.330850
977.6895, 1.795243
978.1716, 1.928102
978.6537, 1.923434
979.1359, 2.217546
979.6180, 2.702003
980.1001, 2.840369
980.5822, 2.490171
981.0643, 1.995049
981.5464, 1.721536
982.0286, 1.556022
982.5107, 1.138855
982.9928, 0.5782740
983.4749, 0.5033030
983.9570, 0.9642430
984.4391, 1.274656
984.9213, 1.062817
985.4034, 0.6794100
985.8855, 0.6518440
986.3676, 0.9277480
986.8497, 1.089024
987.3318, 1.146625
987.8140, 0.8860850
988.2961, 0.8605775
988.7782, 0.4312420
989.2603, 0.5701810
989.7424, 0.3007990
990.2245, 0.3334020
990.7067, 1.478610
991.1888, 1.998868
991.6709, 1.635026
992.1530, 1.233830
992.6351, 0.8799290
993.1172, 0.7037130
993.5994, 0.9071220
994.0815, 1.360741
994.5636, 1.615737
995.0457, 1.664607
995.5278, 1.456020
996.0099, 0.7459810
996.4921, 0.1980770
996.9742, 6.6271000E-02
997.4563, 0.1015040
997.9384, 0.1254180
998.4205, 0.5326060
998.9026, 0.8905050
999.3848, 1.196646
999.8669, 1.369273
1000.349, 1.271946
1000.831, 1.179710
1001.313, 1.305562
1001.795, 1.448486
1002.277, 1.320842
1002.760, 0.9778210
1003.242, 0.7810780
1003.724, 0.9416970
1004.206, 1.041102
1004.688, 0.7346790
1005.170, 0.4344830
1005.652, 0.4995660
1006.134, 0.7616400
1006.617, 1.043854
1007.099, 1.248629
1007.581, 1.103546
1008.063, 0.2264060
1008.545, 0.4164400
1009.027, 0.3334320
1009.509, 1.444386
1009.991, 1.590961
1010.473, 1.127373
1010.956, 1.100996
1011.438, 1.669555
1011.920, 1.955788
1012.402, 1.198533
1012.884, 0.2933380
1013.366, 0.5719340
1013.848, 1.383950
1014.330, 1.385752
1014.813, 0.7417650
1015.295, 0.4033060
1015.777, 0.6498640
1016.259, 1.028583
1016.741, 1.176952
1017.223, 1.157797
1017.705, 0.9884700
1018.187, 0.7561860
1018.669, 0.8305430
1019.152, 1.196074
1019.634, 1.558412
1020.116, 1.803224
1020.598, 1.762781
1021.080, 1.157415
1021.562, 1.485929
1022.044, 0.4941330
1022.526, 1.461890
1023.008, 1.873083
1023.491, 1.591376
1023.973, 0.9634530
1024.455, 7.7726997E-02
1024.937, 0.5430550
1025.419, 0.2216620
1025.901, 0.8053640
1026.383, 1.455100
1026.865, 1.706682
1027.348, 1.891277
1027.830, 2.043328
1028.312, 2.063909
1028.794, 1.900481
1029.276, 1.598557
1029.758, 1.149128
1030.240, 0.6250150
1030.722, 0.7106380
1031.204, 1.619326
1031.687, 2.153392
1032.169, 2.122277
1032.651, 1.940516
1033.133, 1.773503
1033.615, 1.587917
1034.097, 1.319834
1034.579, 0.9822870
1035.061, 0.7846160
1035.544, 0.7365770
1036.026, 0.8188160
1036.508, 1.126977
1036.990, 1.389622
1037.472, 1.513433
1037.954, 1.486886
1038.436, 1.228658
1038.918, 0.7543610
1039.401, 0.5183710
1039.883, 0.4955980
1040.365, 0.7795960
1040.847, 1.879853
1041.329, 2.610234
1041.811, 2.097559
1042.293, 1.175466
1042.775, 0.9578760
1043.257, 1.423987
1043.740, 1.720151
1044.222, 1.813555
1044.704, 1.788721
1045.186, 1.576706
1045.668, 1.332586
1046.150, 0.8395170
1046.632, 0.5162890
1047.114, 1.159382
1047.596, 2.675292
1048.079, 3.464155
1048.561, 2.966124
1049.043, 2.314884
1049.525, 1.320219
1050.007, 0.5660400
1050.489, 0.5350200
1050.971, 0.7606330
1051.453, 0.5862880
1051.936, 6.3313998E-02
1052.418, 6.2652998E-02
1052.900, 0.6909710
1053.382, 1.221565
1053.864, 1.226199
1054.346, 1.065677
1054.828, 0.8015290
1055.310, 0.5580340
1055.792, 0.4582060
1056.275, 0.5048640
1056.757, 0.6855570
1057.239, 1.069368
1057.721, 1.437368
1058.203, 1.874486
1058.685, 2.116634
1059.167, 1.917981
1059.649, 1.510835
1060.131, 1.019851
1060.614, 0.5886280
1061.096, 0.6105610
1061.578, 1.496212
1062.060, 1.989069
1062.542, 1.098604
1063.024, 0.3319010
1063.506, 0.8232940
1063.988, 1.708764
1064.471, 1.946240
1064.953, 1.601613
1065.435, 1.379558
1065.917, 1.528408
1066.399, 1.567699
1066.881, 1.265075
1067.363, 0.9689180
1067.845, 0.8237400
1068.328, 0.8552520
1068.810, 1.228848
1069.292, 1.784488
1069.774, 2.066649
1070.256, 1.936180
1070.738, 1.611890
1071.220, 0.7123990
1071.702, 0.2076260
1072.184, 1.200562
1072.667, 2.456382
1073.149, 2.635339
1073.631, 1.944843
1074.113, 1.171654
1074.595, 0.4962940
1075.077, 0.2081320
1075.559, 0.7155960
1076.041, 1.287632
1076.523, 1.734692
1077.006, 1.890971
1077.488, 1.399705
1077.970, 0.5540190
1078.452, 6.4418003E-02
1078.934, 0.3167760
1079.416, 0.2415320
1079.898, 0.4841710
1080.380, 1.103313
1080.862, 1.136135
1081.345, 0.9681670
1081.827, 0.8434490
1082.309, 0.8245420
1082.791, 1.064671
1083.273, 1.597025
1083.755, 1.737912
1084.237, 0.7478680
1084.719, 8.3122998E-02
1085.202, 2.4250999E-02
1085.684, 0.3179780
1086.166, 0.5365870
1086.648, 0.6688800
1087.130, 0.8601740
1087.612, 1.109327
1088.094, 1.239153
1088.576, 1.126350
1089.058, 0.9982990
1089.541, 0.9657970
1090.023, 0.9386250
1090.505, 0.7166100
1090.987, 0.5482020
1091.469, 0.9391310
1091.951, 1.739360
1092.433, 2.051645
1092.915, 1.374093
1093.397, 0.8567650
1093.880, 1.133797
1094.362, 1.488606
1094.844, 1.525756
1095.326, 1.399812
1095.808, 1.195842
1096.290, 1.010528
1096.772, 1.123778
1097.254, 1.726763
1097.737, 2.032048
1098.219, 1.472983
1098.701, 0.8856070
1099.183, 0.5884900
1099.665, 0.4732410
1100.147, 0.5026760
1100.629, 0.6059340
1101.111, 0.6500330
1101.594, 0.6064530
1102.076, 0.5980180
1102.558, 0.4887323
1103.040, 0.4735813
1103.522, 0.2515890
1104.004, 0.3241700
1104.486, 0.2883330
1104.968, 7.2356001E-02
1105.450, 0.2524550
1105.932, 0.2078800
1106.415, 0.2587550
1106.897, 0.6056840
1107.379, 0.8418290
1107.861, 0.7453200
1108.343, 0.6844350
1108.825, 0.9272930
1109.307, 1.258922
1109.789, 1.426869
1110.272, 1.429564
1110.754, 1.393967
1111.236, 1.131018
1111.718, 1.099633
1112.200, 1.687979
1112.682, 2.144310
1113.164, 2.061426
1113.646, 1.863538
1114.129, 2.040186
1114.611, 2.417362
1115.093, 2.351929
1115.575, 1.594678
1116.057, 1.153372
1116.539, 1.437717
1117.021, 1.408224
1117.503, 0.4551030
1117.985, 0.3845540
1118.468, 0.3394880
1118.950, 0.2264370
1119.432, 0.6736830
1119.914, 1.010416
1120.396, 1.106315
1120.878, 0.8246610
1121.360, 0.6031180
1121.842, 0.5260930
1122.324, 0.4344480
1122.807, 0.1219150
1123.289, 5.2111998E-02
1123.771, 0.5215700
1124.253, 0.3828250
1124.735, 0.4472730
1125.217, 0.9345190
1125.699, 0.5483540
1126.181, 1.149393
1126.664, 1.530188
1127.146, 1.212593
1127.628, 0.6950090
1128.110, 0.3873620
1128.592, 0.2896800
1129.074, 0.4726250
1129.556, 0.9952320
1130.038, 1.125239
1130.521, 0.8094310
1131.003, 0.4409480
1131.485, 8.3737001E-02
1131.967, 0.1662960
1132.449, 0.2585600
1132.931, 0.1586910
1133.413, 0.2352060
1133.895, 0.8689680
1134.377, 1.383096
1134.859, 1.780953
1135.342, 2.081892
1135.824, 2.287052
1136.306, 2.227633
1136.788, 1.810125
1137.270, 1.486157
1137.752, 1.802870
1138.234, 1.371381
1138.716, 2.100421
1139.199, 1.258105
1139.681, 1.130835
1140.163, 1.627964
1140.645, 1.680191
1141.127, 1.041097
1141.609, 0.3466660
1142.091, 1.1626000E-02
1142.573, 3.6720000E-03
1143.056, 0.4349300
1143.538, 1.061732
1144.020, 1.362066
1144.502, 1.387475
1144.984, 1.170426
1145.466, 0.8381760
1145.948, 0.9030660
1146.430, 1.571977
1146.912, 2.076817
1147.395, 1.557354
1147.877, 0.7516570
1148.359, 0.3446290
1148.841, 0.2787200
1149.323, 0.7003500
1149.805, 1.317168
1150.287, 1.460851
1150.769, 1.051523
1151.251, 0.6980400
1151.734, 0.7232390
1152.216, 0.8715660
1152.698, 1.158870
1153.180, 1.309368
1153.662, 0.9470680
1154.144, 0.4057990
1154.626, 4.7279000E-02
1155.108, 0.2363490
1155.591, 0.2785790
1156.073, 1.794941
1156.555, 2.766586
1157.037, 2.275265
1157.519, 1.642362
1158.001, 1.205986
1158.483, 1.045183
1158.965, 1.401219
1159.448, 1.939823
1159.930, 2.041023
1160.412, 1.662686
1160.894, 1.385211
1161.376, 1.374585
1161.858, 1.285920
1162.340, 1.040393
1162.822, 0.8405800
1163.304, 0.7178670
1163.786, 0.6783740
1164.269, 0.7539140
1164.751, 0.9130720
1165.233, 1.048675
1165.715, 1.155068
1166.197, 1.296239
1166.679, 1.633292
1167.161, 1.480152
1167.643, 0.4381330
1168.126, 0.4202990
1168.608, 0.4819120
1169.090, 7.5733997E-02
1169.572, 1.160857
1170.054, 0.7898635
1170.536, 2.601070
1171.018, 1.120295
1171.500, 0.6125380
1171.983, 1.314156
1172.465, 2.205533
1172.947, 2.964756
1173.429, 3.044121
1173.911, 1.869643
1174.393, 0.2892680
1174.875, 3.7335999E-02
1175.357, 0.7318350
1175.839, 0.8779710
1176.322, 0.6014930
1176.804, 0.3233120
1177.286, 0.1699410
1177.768, 0.5639600
1178.250, 1.675806
1178.732, 2.724227
1179.214, 2.919366
1179.696, 2.706755
1180.178, 2.578190
1180.661, 2.518692
1181.143, 2.539906
1181.625, 2.606697
1182.107, 2.595962
1182.589, 2.513921
1183.071, 2.572931
1183.553, 2.992055
1184.035, 3.083915
1184.518, 1.935002
1185.000, 0.8595330
1185.482, 0.9200350
1185.964, 1.426499
1186.446, 1.785426
1186.928, 1.912122
1187.410, 1.732111
1187.892, 1.177061
1188.375, 0.8415520
1188.857, 0.8566780
1189.339, 1.107603
1189.821, 2.013441
1190.303, 2.605418
1190.785, 2.049577
1191.267, 1.264428
1191.749, 1.363053
1192.231, 2.047918
1192.714, 2.136537
1193.196, 1.416448
1193.678, 0.8977750
1194.160, 0.5102320
1194.642, 0.5739530
1195.124, 1.339188
1195.606, 2.032164
1196.088, 2.227568
1196.570, 2.056503
1197.053, 1.634436
1197.535, 1.037840
1198.017, 0.6347500
1198.499, 0.4270700
1198.981, 0.5307350
1199.463, 0.9328510
1199.945, 1.154022
1200.427, 1.068725
1200.910, 1.058851
1201.392, 1.403361
1201.874, 1.773330
1202.356, 1.698522
1202.838, 1.310747
1203.320, 0.6494820
1203.802, 3.1270001E-03
1204.284, 0.1220410
1204.766, 0.8677370
1205.249, 1.633625
1205.731, 2.178385
1206.213, 2.280730
1206.695, 1.570825
1207.177, 0.9465820
1207.659, 1.304428
1208.141, 1.858491
1208.623, 1.885879
1209.105, 1.617655
1209.588, 1.279700
1210.070, 0.9497980
1210.552, 0.7440550
1211.034, 0.7090430
1211.516, 0.5789300
1211.998, 0.1008480
1212.480, 0.2080330
1212.962, 0.2109780
1213.445, 1.1482000E-02
1213.927, 0.5863260
1214.409, 1.097430
1214.891, 0.8416320
1215.373, 5.8665998E-02
1215.855, 0.1485070
1216.337, 0.3887250
1216.819, 0.8125670
1217.302, 1.123643
1217.784, 1.314124
1218.266, 1.355344
1218.748, 1.407535
1219.230, 1.571991
1219.712, 1.738958
1220.194, 1.770112
1220.676, 1.686727
1221.158, 1.484081
1221.641, 1.222851
1222.123, 1.329710
1222.605, 1.719147
1223.087, 1.778623
1223.569, 1.414789
1224.051, 1.105030
1224.533, 1.111646
1225.015, 1.374546
1225.497, 2.130330
1225.980, 2.784416
1226.462, 2.629686
1226.944, 2.088872
1227.426, 1.464020
1227.908, 0.9104560
1228.390, 0.6974680
1228.872, 0.8003270
1229.354, 0.7705840
1229.837, 0.2866320
1230.319, 0.1159090
1230.801, 0.8706620
1231.283, 1.532086
1231.765, 1.441048
1232.247, 1.293780
1232.729, 1.894794
1233.211, 1.614699
1233.693, 1.506776
1234.176, 1.576334
1234.658, 1.003187
1235.140, 1.025628
1235.622, 0.8976980
1236.104, 0.4852350
1236.586, 0.3108300
1237.068, 0.5564320
1237.550, 0.9489680
1238.032, 1.310245
1238.515, 1.623987
1238.997, 1.918063
1239.479, 2.106418
1239.961, 1.664608
1240.443, 0.7959610
1240.925, 0.4323910
1241.407, 0.5935040
1241.889, 1.013767
1242.372, 1.539617
1242.854, 1.762061
1243.336, 1.403819
1243.818, 0.8525440
1244.300, 9.9454999E-02
1244.782, 0.2800210
1245.264, 0.7991090
1245.746, 0.6300332
1246.229, 0.9491768
1246.711, 1.326388
1247.193, 1.283546
1247.675, 2.144693
1248.157, 2.436646
1248.639, 1.333511
1249.121, 0.5843830
1249.603, 0.5838250
1250.085, 0.8127550
1250.568, 1.441888
1251.050, 1.858171
1251.532, 1.544911
1252.014, 0.9484190
1252.496, 0.7327840
1252.978, 0.8471380
1253.460, 0.6378570
1253.942, 2.5560999E-02
1254.424, 6.0467999E-02
1254.907, 0.8318030
1255.389, 1.522266
1255.871, 1.900922
1256.353, 1.817903
1256.835, 1.130800
1257.317, 0.5736720
1257.799, 1.428465
1258.281, 2.696700
1258.764, 2.401441
1259.246, 1.327035
1259.728, 0.7936970
1260.210, 0.7101710
1260.692, 0.4433110
1261.174, 3.5610001E-03
1261.656, 0.1740620
1262.138, 1.457076
1262.620, 2.373029
1263.103, 1.937645
1263.585, 1.387048
1264.067, 1.359393
1264.549, 1.316364
1265.031, 0.5107870
1265.513, 0.3223150
1265.995, 7.5952001E-02
1266.477, 0.2208298
1266.959, 0.3090335
1267.442, 1.085216
1267.924, 0.8843870
1268.406, 1.528869
1268.888, 1.984855
1269.370, 2.050734
1269.852, 1.923965
1270.334, 1.657824
1270.816, 1.595907
1271.299, 2.213997
1271.781, 2.942366
1272.263, 2.484080
1272.745, 1.325260
1273.227, 0.4398650
1273.709, 6.6170000E-02
1274.191, 6.3644998E-02
1274.673, 0.7344990
1275.156, 1.299118
1275.638, 1.546336
1276.120, 1.402313
1276.602, 0.9872870
1277.084, 0.7441010
1277.566, 1.053928
1278.048, 1.447818
1278.530, 1.863672
1279.012, 2.037364
1279.495, 1.486330
1279.977, 0.5626880
1280.459, 3.3723000E-02
1280.941, 7.4900000E-04
1281.423, 0.2861030
1281.905, 1.001427
1282.387, 1.230197
1282.869, 0.7912060
1283.351, 0.6177200
1283.834, 0.9137010
1284.316, 1.216706
1284.798, 0.9216720
1285.280, 0.3959210
1285.762, 8.2432002E-02
1286.244, 0.0000000E+00
##END=



