##NAMES=Pyrrhotite
##RRUFFID=R061127
##IDEAL CHEMISTRY=Fe^2+^_5_Fe^3+^_2_S^2-^_8_
##LOCALITY=Morro Velho Gold mine, Nova Umha, Minas Gerais, Brazil
##OWNER=RRUFF
##SOURCE=Michael Scott
##DESCRIPTION=Brass colored, prismatic crystals associated with quartz and dolomite
##STATUS=The identification of this mineral has been confirmed by single-crystal X-ray diffraction.
##URL=rruff.info/R061127
196.1889, 0.0000000E+00
196.6711, 0.2882770
197.1532, 0.1941110
197.6353, 0.3662800
198.1174, 1.972652
198.5995, 2.821175
199.0816, 2.362053
199.5638, 0.8770180
200.0459, 9.4508998E-02
200.5280, 0.5595740
201.0101, 2.346447
201.4922, 3.650787
201.9743, 4.455788
202.4565, 4.828575
202.9386, 4.759434
203.4207, 4.243809
203.9028, 3.927731
204.3849, 2.818348
204.8670, 1.506561
205.3492, 1.011799
205.8313, 1.667419
206.3134, 2.717190
206.7955, 2.998306
207.2776, 2.296272
207.7597, 1.731937
208.2419, 1.746815
208.7240, 2.189724
209.2061, 3.209763
209.6882, 5.228157
210.1703, 7.125885
210.6524, 6.637856
211.1346, 2.425247
211.6167, 0.6331410
212.0988, 8.0208004E-02
212.5809, 1.849773
213.0630, 2.913139
213.5451, 2.095284
214.0273, 0.4711910
214.5094, 0.6667180
214.9915, 4.311008
215.4736, 6.837982
215.9557, 7.120178
216.4378, 6.618336
216.9200, 5.699081
217.4021, 5.487228
217.8842, 5.772076
218.3663, 5.847370
218.8484, 5.291012
219.3305, 5.167805
219.8127, 5.965584
220.2948, 7.062450
220.7769, 7.950905
221.2590, 8.399967
221.7411, 8.288788
222.2232, 7.221054
222.7054, 3.008671
223.1875, 0.5100400
223.6696, 1.236916
224.1517, 3.373642
224.6338, 4.783871
225.1159, 4.516003
225.5980, 3.213737
226.0802, 2.718082
226.5623, 4.042137
227.0444, 4.948902
227.5265, 4.924911
228.0086, 4.494438
228.4907, 4.472004
228.9729, 5.238285
229.4550, 6.255322
229.9371, 6.029808
230.4192, 3.344215
230.9013, 1.395779
231.3834, 1.070236
231.8656, 1.680382
232.3477, 2.290672
232.8298, 2.573669
233.3119, 2.582088
233.7940, 2.402130
234.2761, 2.085892
234.7583, 1.535316
235.2404, 0.2615850
235.7225, 1.194473
236.2046, 1.864841
236.6867, 1.373085
237.1688, 0.1225850
237.6510, 1.384109
238.1331, 3.243542
238.6152, 4.796017
239.0973, 5.738434
239.5794, 6.223862
240.0615, 6.677273
240.5437, 7.388645
241.0258, 7.707809
241.5079, 6.271664
241.9900, 3.055893
242.4721, 0.7400210
242.9542, 1.002823
243.4364, 3.022869
243.9185, 4.773163
244.4006, 5.947430
244.8827, 6.592167
245.3648, 6.807957
245.8469, 6.623081
246.3290, 5.974796
246.8112, 4.109322
247.2933, 1.689674
247.7754, 0.9699330
248.2575, 3.148247
248.7396, 5.534142
249.2217, 5.986622
249.7039, 4.908760
250.1860, 3.570923
250.6681, 2.265030
251.1502, 1.175522
251.6323, 1.141590
252.1144, 2.918198
252.5966, 4.582184
253.0787, 5.078705
253.5608, 4.641315
254.0429, 3.747330
254.5250, 2.088585
255.0071, 0.1260530
255.4893, 0.1650850
255.9714, 2.280418
256.4535, 4.749489
256.9356, 6.211731
257.4177, 6.858070
257.8998, 6.963287
258.3820, 6.655144
258.8641, 5.965111
259.3462, 4.903862
259.8283, 2.731560
260.3104, 1.488728
260.7925, 2.402283
261.2747, 4.307690
261.7568, 5.631092
262.2389, 5.516918
262.7210, 4.494526
263.2031, 4.221779
263.6852, 5.643372
264.1674, 6.158352
264.6495, 4.243328
265.1316, 1.630196
265.6137, 0.1878280
266.0958, 0.7393990
266.5779, 2.656271
267.0601, 4.553463
267.5422, 6.646957
268.0243, 8.271746
268.5064, 9.828468
268.9885, 10.72507
269.4706, 9.942253
269.9528, 7.307327
270.4349, 4.075855
270.9170, 2.724972
271.3991, 4.352089
271.8812, 5.801704
272.3633, 7.025274
272.8455, 7.923466
273.3276, 8.409233
273.8097, 8.465679
274.2918, 8.130346
274.7739, 7.371523
275.2560, 5.724745
275.7382, 4.669197
276.2202, 4.293976
276.7024, 4.300949
277.1845, 4.611160
277.6666, 5.154030
278.1487, 5.795990
278.6308, 6.482216
279.1129, 7.672079
279.5951, 7.676224
280.0772, 5.520964
280.5593, 3.490696
281.0414, 2.685146
281.5235, 3.162598
282.0056, 4.479851
282.4878, 6.430862
282.9699, 9.356674
283.4520, 10.37273
283.9341, 7.471699
284.4162, 4.896313
284.8983, 4.795254
285.3805, 6.675041
285.8626, 8.469406
286.3447, 8.660011
286.8268, 7.378071
287.3089, 6.339880
287.7910, 5.259930
288.2732, 4.697264
288.7553, 5.130344
289.2374, 6.190594
289.7195, 7.183853
290.2016, 7.674244
290.6837, 7.782883
291.1659, 8.204824
291.6480, 9.915113
292.1301, 10.79723
292.6122, 9.746098
293.0943, 7.846498
293.5764, 6.570253
294.0586, 6.670156
294.5407, 7.838009
295.0228, 8.923527
295.5049, 10.26489
295.9870, 10.77988
296.4691, 9.624924
296.9513, 8.040615
297.4334, 7.553322
297.9155, 8.622265
298.3976, 10.22409
298.8797, 10.59861
299.3618, 8.567505
299.8440, 7.499641
300.3261, 8.174328
300.8082, 9.307808
301.2903, 9.813742
301.7724, 9.512224
302.2545, 9.018162
302.7367, 9.075294
303.2188, 9.906248
303.7009, 10.44057
304.1830, 10.88834
304.6651, 10.91238
305.1472, 9.932297
305.6294, 8.160789
306.1115, 6.612446
306.5936, 6.181232
307.0757, 6.936403
307.5578, 7.668182
308.0399, 8.536297
308.5221, 9.237179
309.0042, 9.663330
309.4863, 9.812399
309.9684, 9.666634
310.4505, 9.184858
310.9326, 8.425613
311.4148, 7.804874
311.8969, 7.632183
312.3790, 7.219387
312.8611, 5.750412
313.3432, 4.045448
313.8253, 3.680237
314.3075, 5.452522
314.7896, 8.333218
315.2717, 9.654631
315.7538, 7.696308
316.2359, 6.665600
316.7180, 7.981636
317.2001, 9.906506
317.6823, 10.32577
318.1644, 8.662621
318.6465, 6.216160
319.1286, 4.886904
319.6107, 5.071724
320.0928, 5.665764
320.5750, 7.609768
321.0571, 9.311455
321.5392, 9.077629
322.0213, 6.969130
322.5034, 4.880993
322.9855, 4.855114
323.4677, 7.349653
323.9498, 8.504698
324.4319, 6.510891
324.9140, 5.048634
325.3961, 7.034248
325.8782, 11.36487
326.3604, 14.31270
326.8425, 12.98627
327.3246, 7.905842
327.8067, 5.145233
328.2888, 5.818678
328.7709, 7.170261
329.2531, 9.499546
329.7352, 11.87944
330.2173, 12.67050
330.6994, 11.02685
331.1815, 7.919384
331.6636, 5.958958
332.1458, 6.054981
332.6279, 6.258564
333.1100, 6.629673
333.5921, 7.025839
334.0742, 7.634275
334.5563, 8.407555
335.0385, 8.477394
335.5206, 6.299200
336.0027, 0.2266080
336.4848, 3.392267
336.9669, 0.5932600
337.4490, 3.113623
337.9312, 4.183306
338.4133, 2.628941
338.8954, 1.184599
339.3775, 2.719055
339.8596, 7.727554
340.3417, 10.15676
340.8239, 8.841333
341.3060, 6.563604
341.7881, 3.148079
342.2702, 0.4469990
342.7523, 2.406048
343.2344, 1.495522
343.7166, 1.639984
344.1987, 3.858782
344.6808, 4.813356
345.1629, 5.124949
345.6450, 4.159306
346.1271, 2.845776
346.6093, 2.370316
347.0914, 3.135679
347.5735, 4.393644
348.0556, 4.514891
348.5377, 2.220619
349.0198, 1.061350
349.5020, 2.074497
349.9841, 3.292736
350.4662, 3.235807
350.9483, 1.848755
351.4304, 0.1555330
351.9125, 0.8139270
352.3947, 1.057995
352.8768, 0.5662380
353.3589, 1.554321
353.8410, 3.516163
354.3231, 4.505295
354.8052, 4.843948
355.2874, 5.364338
355.7695, 6.699604
356.2516, 8.601028
356.7337, 9.676422
357.2158, 9.646547
357.6979, 9.062149
358.1800, 7.357870
358.6621, 5.476145
359.1443, 4.614637
359.6264, 5.221712
360.1085, 6.412310
360.5906, 6.495113
361.0727, 4.890985
361.5548, 3.687849
362.0370, 3.360407
362.5191, 3.265007
363.0012, 3.036644
363.4833, 2.713839
363.9654, 2.435429
364.4475, 2.229162
364.9297, 2.208153
365.4118, 2.046072
365.8939, 1.439560
366.3760, 1.035431
366.8581, 1.205383
367.3402, 1.759279
367.8224, 2.283901
368.3045, 2.479034
368.7866, 2.514791
369.2687, 2.881088
369.7508, 3.619968
370.2329, 4.618708
370.7151, 6.561829
371.1972, 8.389132
371.6793, 8.774593
372.1614, 7.186539
372.6435, 5.225780
373.1256, 5.142332
373.6078, 7.116827
374.0899, 8.315788
374.5720, 7.764906
375.0541, 6.565899
375.5362, 5.320866
376.0183, 4.106407
376.5005, 3.226568
376.9826, 2.836044
377.4647, 2.932560
377.9468, 3.723795
378.4289, 5.755592
378.9110, 7.269035
379.3932, 6.614491
379.8753, 4.665770
380.3574, 2.998888
380.8395, 2.021524
381.3216, 1.614557
381.8037, 1.951551
382.2859, 3.058870
382.7680, 3.594717
383.2501, 2.373320
383.7322, 0.6519030
384.2143, 0.4857330
384.6964, 2.294678
385.1786, 4.307381
385.6607, 5.774940
386.1428, 6.672125
386.6249, 6.773205
387.1070, 5.816355
387.5891, 4.641911
388.0713, 4.248947
388.5534, 4.560120
389.0355, 4.999647
389.5176, 5.804770
389.9997, 6.466784
390.4818, 6.345369
390.9640, 5.452639
391.4461, 4.428404
391.9282, 3.584074
392.4103, 3.015461
392.8924, 3.062237
393.3745, 5.043135
393.8567, 6.136538
394.3388, 4.146776
394.8209, 0.7846890
395.3030, 1.481697
395.7851, 1.720844
396.2672, 0.6335960
396.7494, 0.6677460
397.2315, 2.589207
397.7136, 3.700638
398.1957, 3.263077
398.6778, 2.577477
399.1599, 2.674326
399.6420, 3.656189
400.1241, 4.906467
400.6063, 5.879408
401.0884, 6.779751
401.5705, 6.837608
402.0526, 4.912340
402.5347, 3.325865
403.0168, 3.214014
403.4990, 3.829723
403.9811, 3.660830
404.4632, 1.956999
404.9453, 0.2255280
405.4274, 0.1858800
405.9095, 4.133648
406.3917, 7.243699
406.8738, 9.045513
407.3559, 9.674623
407.8380, 8.637860
408.3201, 6.248062
408.8022, 3.922615
409.2844, 3.135663
409.7665, 3.953688
410.2486, 4.568802
410.7307, 4.933636
411.2128, 5.241264
411.6949, 5.811241
412.1771, 6.351343
412.6592, 6.335722
413.1413, 5.441589
413.6234, 4.070011
414.1055, 3.069281
414.5876, 2.512560
415.0698, 2.094852
415.5519, 1.591066
416.0340, 1.310976
416.5161, 1.764281
416.9982, 2.891188
417.4803, 3.766816
417.9625, 3.537322
418.4446, 2.403240
418.9267, 1.851213
419.4088, 2.427619
419.8909, 2.777929
420.3730, 1.313139
420.8552, 1.001586
421.3373, 1.873093
421.8194, 3.1498000E-02
422.3015, 3.102708
422.7836, 6.033142
423.2657, 8.794827
423.7479, 9.612898
424.2300, 6.435986
424.7121, 2.132840
425.1942, 1.482832
425.6763, 5.245522
426.1584, 8.608303
426.6406, 9.184834
427.1227, 8.119622
427.6048, 7.387218
428.0869, 7.347202
428.5690, 7.117755
429.0511, 5.710821
429.5333, 3.136129
430.0154, 1.361961
430.4975, 0.3394880
430.9796, 0.1698650
431.4617, 1.483098
431.9438, 3.722363
432.4260, 5.596821
432.9081, 6.528410
433.3902, 6.592798
433.8723, 5.890532
434.3544, 3.472508
434.8365, 1.871603
435.3187, 1.134378
435.8008, 1.266070
436.2829, 2.788572
436.7650, 5.441969
437.2471, 7.907879
437.7292, 8.921243
438.2114, 8.449023
438.6935, 7.963196
439.1756, 7.534100
439.6577, 7.015207
440.1398, 6.241511
440.6219, 5.397696
441.1040, 4.756016
441.5862, 4.424777
442.0683, 4.287796
442.5504, 4.068420
443.0325, 3.546816
443.5146, 3.587744
443.9967, 4.905438
444.4789, 6.268530
444.9610, 7.236248
445.4431, 7.699913
445.9252, 7.553152
446.4073, 6.529402
446.8894, 4.856201
447.3716, 3.226069
447.8537, 1.248623
448.3358, 0.3085740
448.8179, 1.986127
449.3000, 4.600767
449.7821, 6.330435
450.2643, 6.681008
450.7464, 6.714155
451.2285, 7.500963
451.7106, 8.821532
452.1927, 9.522749
452.6748, 9.282276
453.1570, 8.435468
453.6391, 7.614916
454.1212, 6.817818
454.6033, 5.370602
455.0854, 1.777301
455.5675, 1.631126
456.0497, 2.409499
456.5318, 0.8706460
457.0139, 0.9007700
457.4960, 1.989560
457.9781, 2.459660
458.4602, 2.355087
458.9424, 1.179255
459.4245, 0.5504820
459.9066, 1.335716
460.3887, 2.477369
460.8708, 2.781765
461.3529, 2.137609
461.8351, 1.325936
462.3172, 1.011281
462.7993, 1.158886
463.2814, 1.927053
463.7635, 4.707211
464.2456, 6.513042
464.7278, 5.953554
465.2099, 4.196871
465.6920, 2.918709
466.1741, 2.754994
466.6562, 3.011742
467.1383, 2.348929
467.6205, 0.1100500
468.1026, 1.005906
468.5847, 0.1995620
469.0668, 1.554935
469.5489, 1.738388
470.0310, 1.223872
470.5132, 1.566387
470.9953, 4.213524
471.4774, 7.882715
471.9595, 9.143798
472.4416, 7.508926
472.9237, 5.255100
473.4059, 1.889629
473.8880, 0.9233770
474.3701, 1.161505
474.8522, 1.490263
475.3343, 4.093970
475.8164, 4.730919
476.2986, 3.909392
476.7807, 2.566842
477.2628, 0.6005360
477.7449, 0.6929620
478.2270, 9.6013002E-02
478.7091, 2.360415
479.1913, 3.773678
479.6734, 3.969819
480.1555, 3.843302
480.6376, 3.900545
481.1197, 3.973267
481.6018, 3.457626
482.0839, 2.090714
482.5660, 0.9289000
483.0482, 1.643416
483.5303, 5.168215
484.0124, 7.126577
484.4945, 6.076151
484.9766, 4.912735
485.4587, 5.554514
485.9409, 7.355344
486.4230, 8.508832
486.9051, 7.986438
487.3872, 6.267235
487.8693, 4.666716
488.3514, 2.853289
488.8336, 1.803592
489.3157, 1.741963
489.7978, 2.232873
490.2799, 3.513626
490.7620, 5.230907
491.2441, 6.141479
491.7263, 4.661948
492.2084, 1.581088
492.6905, 1.150718
493.1726, 4.893049
493.6547, 7.615482
494.1368, 5.847500
494.6190, 2.621090
495.1011, 1.131527
495.5832, 2.123488
496.0653, 3.315536
496.5474, 2.644871
497.0295, 0.7957920
497.5117, 3.4125999E-02
497.9938, 0.6519810
498.4759, 1.606919
498.9580, 1.661492
499.4401, 1.074149
499.9222, 1.224941
500.4044, 2.863626
500.8865, 4.568810
501.3686, 5.961536
501.8507, 6.852749
502.3328, 6.630803
502.8149, 5.045325
503.2971, 3.113117
503.7792, 2.298031
504.2613, 2.976021
504.7434, 3.471109
505.2255, 3.677615
505.7076, 3.824422
506.1898, 4.178288
506.6719, 4.684611
507.1540, 4.532153
507.6361, 3.461195
508.1182, 2.130412
508.6003, 2.198673
509.0825, 4.536957
509.5646, 5.933426
510.0467, 5.675505
510.5288, 4.743569
511.0109, 3.159618
511.4930, 1.268118
511.9752, 3.5682999E-02
512.4573, 8.1660002E-02
512.9394, 1.013123
513.4215, 2.647438
513.9036, 5.450323
514.3857, 7.394382
514.8679, 7.054285
515.3500, 5.722304
515.8321, 5.301718
516.3142, 5.972013
516.7963, 6.228387
517.2784, 5.068547
517.7606, 3.282954
518.2427, 1.664731
518.7248, 0.3465720
519.2069, 1.2125000E-02
519.6890, 1.190336
520.1711, 3.652210
520.6533, 5.854549
521.1354, 8.757947
521.6175, 10.21417
522.0996, 8.868641
522.5817, 6.483418
523.0638, 4.737015
523.5460, 3.937983
524.0281, 3.457790
524.5102, 2.598630
524.9923, 1.402772
525.4744, 1.540315
525.9565, 5.086962
526.4387, 7.203843
526.9208, 5.434652
527.4029, 2.493301
527.8850, 1.378525
528.3671, 2.798115
528.8492, 4.904199
529.3314, 5.827824
529.8135, 5.681465
530.2956, 5.618323
530.7777, 5.857829
531.2598, 5.853315
531.7419, 5.041759
532.2241, 3.782241
532.7062, 2.537903
533.1883, 1.004060
533.6704, 3.5399999E-02
534.1525, 0.6129880
534.6346, 2.149720
535.1168, 3.325416
535.5989, 3.810232
536.0810, 3.846212
536.5631, 3.429070
537.0452, 2.525378
537.5273, 2.073158
538.0095, 2.496140
538.4916, 2.853871
538.9737, 2.748699
539.4558, 2.322249
539.9379, 1.997503
540.4200, 1.917429
540.9022, 2.266891
541.3843, 3.480492
541.8664, 5.933025
542.3485, 7.473692
542.8306, 7.306852
543.3127, 6.797672
543.7948, 6.182085
544.2769, 5.520714
544.7590, 4.781333
545.2411, 3.909433
545.7233, 3.284829
546.2054, 3.494213
546.6875, 4.492772
547.1696, 5.694296
547.6517, 7.259217
548.1339, 8.535975
548.6160, 8.671136
549.0981, 8.043603
549.5802, 7.697755
550.0623, 8.018634
550.5444, 8.466663
551.0266, 9.132670
551.5087, 9.629494
551.9908, 8.769952
552.4729, 6.141176
552.9550, 3.134946
553.4371, 1.374412
553.9193, 0.8859920
554.4014, 1.643359
554.8835, 5.248800
555.3656, 8.141972
555.8477, 8.366117
556.3298, 7.294475
556.8120, 7.266439
557.2941, 9.081894
557.7762, 11.12532
558.2583, 10.87921
558.7404, 8.050079
559.2225, 5.448311
559.7047, 2.759149
560.1868, 0.8926190
560.6689, 0.1536940
561.1510, 0.4336180
561.6331, 1.923495
562.1152, 5.406244
562.5974, 8.035175
563.0795, 5.872887
563.5616, 0.4789370
564.0437, 2.150784
564.5258, 0.4580540
565.0079, 2.342568
565.4901, 3.355084
565.9722, 2.659434
566.4543, 2.653405
566.9364, 4.390911
567.4185, 5.611046
567.9006, 5.382137
568.3828, 4.140448
568.8649, 1.904099
569.3470, 1.063095
569.8291, 3.058447
570.3112, 1.724392
570.7933, 3.243327
571.2755, 6.179310
571.7576, 5.695965
572.2397, 4.833408
572.7218, 3.932897
573.2039, 3.217257
573.6860, 3.008448
574.1682, 3.380791
574.6503, 4.055248
575.1324, 4.810396
575.6145, 5.651287
576.0966, 6.789972
576.5787, 8.484194
577.0609, 9.476648
577.5430, 8.624383
578.0251, 6.620874
578.5072, 5.211853
578.9893, 4.629171
579.4714, 4.194653
579.9536, 3.504603
580.4357, 2.898120
580.9178, 2.916337
581.3999, 3.545005
581.8820, 4.180631
582.3641, 4.331549
582.8463, 4.126945
583.3284, 4.350952
583.8105, 5.931616
584.2926, 6.563852
584.7747, 5.284981
585.2568, 3.647248
585.7390, 2.799664
586.2211, 2.783380
586.7032, 2.990833
587.1853, 2.974107
587.6674, 2.882139
588.1495, 3.129889
588.6317, 3.748608
589.1138, 4.550264
589.5959, 5.699896
590.0780, 6.793045
590.5601, 7.449512
591.0422, 7.677538
591.5244, 7.388390
592.0065, 5.802315
592.4886, 4.276387
592.9707, 4.399116
593.4528, 5.726225
593.9349, 6.684316
594.4171, 6.605473
594.8992, 5.642488
595.3813, 3.848828
595.8634, 0.2142990
596.3455, 1.170139
596.8276, 1.991703
597.3098, 4.814724
597.7919, 4.882006
598.2740, 3.234398
598.7561, 1.235535
599.2382, 0.6168250
599.7203, 1.458458
600.2025, 1.004621
600.6846, 6.615189
601.1667, 8.685990
601.6488, 4.997632
602.1309, 0.8367310
602.6130, 0.1125940
603.0952, 1.462156
603.5773, 2.223501
604.0594, 1.624740
604.5415, 1.227641
605.0236, 2.069515
605.5057, 3.528939
605.9879, 4.738692
606.4700, 5.530722
606.9521, 5.969517
607.4342, 6.057066
607.9163, 5.850871
608.3984, 5.799034
608.8806, 6.368427
609.3627, 6.427578
609.8448, 5.544914
610.3269, 4.386889
610.8090, 3.222133
611.2911, 2.237696
611.7733, 1.867856
612.2554, 2.708264
612.7375, 4.100871
613.2196, 4.465304
613.7017, 3.722968
614.1838, 2.695667
614.6660, 1.205763
615.1481, 3.9624002E-02
615.6302, 0.4314250
616.1123, 2.253842
616.5944, 3.588240
617.0765, 3.922994
617.5587, 3.766518
618.0408, 3.042887
618.5229, 2.141182
619.0050, 1.961149
619.4871, 2.803012
619.9692, 4.009994
620.4514, 4.697934
620.9335, 4.796673
621.4156, 4.936127
621.8977, 5.379702
622.3798, 5.476366
622.8619, 4.476256
623.3441, 3.130045
623.8262, 2.305799
624.3083, 2.213000
624.7904, 2.518196
625.2725, 3.282759
625.7546, 4.194945
626.2367, 4.233490
626.7188, 3.151357
627.2009, 2.329981
627.6830, 2.845008
628.1652, 4.059036
628.6473, 3.857144
629.1294, 1.525590
629.6115, 8.6153001E-02
630.0936, 0.4347530
630.5757, 4.4248000E-02
631.0579, 1.134942
631.5400, 2.715332
632.0221, 3.806053
632.5042, 3.935045
632.9863, 3.687330
633.4684, 4.307255
633.9506, 6.133353
634.4327, 7.160801
634.9148, 7.141459
635.3969, 6.447546
635.8790, 4.801533
636.3611, 2.795373
636.8433, 1.357494
637.3254, 0.6101670
637.8075, 0.9162290
638.2896, 3.391675
638.7717, 6.607327
639.2538, 7.913704
639.7360, 6.977535
640.2181, 5.729366
640.7002, 5.522026
641.1823, 6.078399
641.6644, 6.268711
642.1465, 5.890680
642.6287, 5.397469
643.1108, 4.564606
643.5929, 3.816442
644.0750, 3.336449
644.5571, 3.189273
645.0392, 3.488326
645.5214, 4.362719
646.0035, 5.487370
646.4856, 6.443890
646.9677, 7.231154
647.4498, 7.369126
647.9319, 6.489168
648.4141, 5.541143
648.8962, 5.666877
649.3783, 6.411770
649.8604, 5.983631
650.3425, 2.361145
650.8246, 0.1110760
651.3068, 2.669549
651.7889, 6.734556
652.2710, 8.203457
652.7531, 6.635136
653.2352, 3.851179
653.7173, 1.046685
654.1995, 1.535052
654.6816, 2.188124
655.1637, 7.4721999E-02
655.6458, 1.639157
656.1279, 0.6819020
656.6100, 6.2933996E-02
657.0922, 1.548240
657.5743, 4.766550
658.0564, 7.001675
658.5385, 6.725098
659.0206, 5.483683
659.5027, 4.346539
659.9849, 3.436044
660.4670, 3.184669
660.9491, 3.723598
661.4312, 4.524698
661.9133, 5.198641
662.3954, 5.722214
662.8776, 5.762851
663.3597, 4.807011
663.8418, 4.015346
664.3239, 3.462660
664.8060, 3.137427
665.2881, 3.195617
665.7703, 3.502049
666.2524, 3.591585
666.7345, 2.917089
667.2166, 2.051805
667.6987, 2.193530
668.1808, 3.303018
668.6630, 3.795094
669.1451, 3.033942
669.6272, 2.203211
670.1093, 2.698992
670.5914, 4.389979
671.0735, 5.024418
671.5557, 3.181252
672.0378, 2.023633
672.5199, 3.343509
673.0020, 5.399332
673.4841, 6.122864
673.9662, 5.419930
674.4484, 4.844352
674.9305, 5.716870
675.4126, 7.428320
675.8947, 7.817001
676.3768, 6.523581
676.8589, 5.496771
677.3411, 5.195102
677.8232, 5.197020
678.3053, 5.366286
678.7874, 5.576962
679.2695, 5.326260
679.7516, 3.922091
680.2338, 2.761569
680.7159, 3.073177
681.1980, 4.005036
681.6801, 4.225574
682.1622, 3.516150
682.6443, 2.270377
683.1265, 0.6222540
683.6086, 1.060146
684.0907, 0.7743370
684.5728, 2.964983
685.0549, 5.417505
685.5370, 4.724875
686.0192, 3.648423
686.5013, 3.703712
686.9834, 4.681839
687.4655, 5.755039
687.9476, 6.749237
688.4297, 7.512413
688.9119, 7.887846
689.3940, 7.875496
689.8761, 7.307058
690.3582, 6.180290
690.8403, 5.103335
691.3224, 4.598465
691.8046, 4.478708
692.2867, 3.811567
692.7688, 1.781808
693.2509, 0.5298240
693.7330, 0.8979630
694.2151, 1.320366
694.6973, 0.3677160
695.1794, 1.259268
695.6615, 1.614407
696.1436, 0.4242520
696.6257, 2.996160
697.1078, 4.187076
697.5900, 4.212521
698.0721, 3.622477
698.5542, 2.436922
699.0363, 1.502468
699.5184, 1.424923
700.0005, 2.010108
700.4827, 2.592295
700.9648, 3.337440
701.4469, 3.792617
701.9290, 3.704704
702.4111, 3.558001
702.8932, 3.833598
703.3754, 4.238127
703.8575, 4.005547
704.3396, 2.856238
704.8217, 1.604625
705.3038, 1.624958
705.7859, 2.675159
706.2681, 3.672044
706.7502, 4.588396
707.2323, 4.983925
707.7144, 4.468211
708.1965, 3.394811
708.6786, 2.524186
709.1607, 1.793861
709.6428, 1.450065
710.1249, 1.825485
710.6071, 2.274625
711.0892, 2.196571
711.5713, 2.008872
712.0534, 2.562497
712.5355, 4.187152
713.0176, 5.873664
713.4998, 5.925318
713.9819, 4.677773
714.4640, 4.026192
714.9461, 4.129278
715.4282, 4.073265
715.9103, 3.316288
716.3925, 2.387129
716.8746, 2.139288
717.3567, 2.631851
717.8388, 3.160524
718.3209, 4.296336
718.8030, 4.767775
719.2852, 3.182501
719.7673, 0.9280250
720.2494, 0.1324730
720.7315, 0.6593810
721.2136, 2.177744
721.6957, 4.515738
722.1779, 7.013283
722.6600, 6.390524
723.1421, 2.111048
723.6242, 0.4538290
724.1063, 1.009905
724.5884, 3.481471
725.0706, 3.583546
725.5527, 1.521328
726.0348, 0.2223620
726.5169, 0.4858960
726.9990, 0.7331600
727.4811, 4.1561998E-02
727.9633, 0.6848320
728.4454, 0.1874840
728.9275, 1.383744
729.4096, 2.688079
729.8917, 2.771052
730.3738, 2.199899
730.8560, 1.875680
731.3381, 1.747863
731.8202, 1.818754
732.3023, 1.996259
732.7844, 2.608095
733.2665, 4.350117
733.7487, 6.692339
734.2308, 7.644485
734.7129, 6.377956
735.1950, 5.297539
735.6771, 4.590465
736.1592, 4.493126
736.6414, 5.979709
737.1235, 8.155029
737.6056, 8.679123
738.0877, 6.439617
738.5698, 3.556190
739.0519, 3.196824
739.5341, 5.036548
740.0162, 6.188243
740.4983, 6.505457
740.9804, 6.067668
741.4625, 4.390593
741.9446, 2.385967
742.4268, 1.743367
742.9089, 2.692598
743.3910, 3.333941
743.8731, 3.037138
744.3552, 2.917404
744.8373, 4.210584
745.3195, 5.703875
745.8016, 5.095236
746.2837, 2.207961
746.7658, 2.5355000E-02
747.2479, 1.675198
747.7300, 5.615588
748.2122, 6.913436
748.6943, 5.526674
749.1764, 4.371430
749.6585, 4.263464
750.1406, 4.661175
750.6227, 5.124835
751.1049, 5.642922
751.5870, 5.932239
752.0691, 5.709352
752.5512, 5.659982
753.0333, 6.343632
753.5154, 6.818257
753.9976, 6.008828
754.4797, 4.223061
754.9618, 2.951251
755.4439, 2.997359
755.9260, 3.703704
756.4081, 4.473821
756.8903, 5.193707
757.3724, 5.306211
757.8545, 4.721435
758.3366, 3.902157
758.8187, 3.035817
759.3008, 2.259898
759.7830, 1.974338
760.2651, 2.741719
760.7472, 2.646602
761.2293, 0.2927240
761.7114, 1.308004
762.1935, 0.1105980
762.6757, 2.188556
763.1578, 3.032705
763.6399, 1.906344
764.1220, 1.026334
764.6041, 2.483193
765.0862, 4.857244
765.5684, 6.180213
766.0505, 6.477043
766.5326, 5.797156
767.0147, 4.095571
767.4968, 2.518323
767.9789, 2.443128
768.4611, 3.782441
768.9432, 4.478175
769.4253, 4.411921
769.9074, 3.889581
770.3895, 2.246534
770.8716, 0.8022010
771.3538, 0.6638440
771.8359, 1.498568
772.3180, 2.047438
772.8001, 1.491970
773.2822, 1.421808
773.7643, 3.935412
774.2465, 7.093721
774.7286, 7.407288
775.2107, 5.198528
775.6928, 4.270264
776.1749, 6.914606
776.6570, 10.39091
777.1392, 8.479476
777.6213, 0.1653620
778.1034, 4.137764
778.5855, 1.006596
779.0676, 2.269199
779.5497, 2.154460
780.0319, 0.8431660
780.5140, 1.574268
780.9961, 4.647346
781.4782, 6.046437
781.9603, 2.890458
782.4424, 3.6812000E-02
782.9246, 0.5585580
783.4067, 2.929882
783.8888, 4.424770
784.3709, 4.571065
784.8530, 4.651508
785.3351, 5.924450
785.8173, 4.726385
786.2994, 6.392193
786.7815, 2.850492
787.2636, 0.1851160
787.7457, 1.091070
788.2278, 0.9673320
788.7100, 1.204971
789.1921, 4.704050
789.6742, 6.282360
790.1563, 4.479453
790.6384, 3.671656
791.1205, 5.445509
791.6026, 6.903896
792.0847, 5.969785
792.5668, 3.760354
793.0490, 2.315277
793.5311, 2.226845
794.0132, 2.328608
794.4953, 1.235580
794.9774, 9.1698997E-02
795.4595, 0.5160660
795.9417, 2.681230
796.4238, 3.870110
796.9059, 3.213424
797.3880, 2.002662
797.8701, 1.584697
798.3522, 1.940408
798.8344, 2.843661
799.3165, 5.060437
799.7986, 6.355259
800.2807, 5.866094
800.7628, 4.791604
801.2449, 3.221650
801.7271, 1.645150
802.2092, 1.422215
802.6913, 3.478256
803.1734, 5.374110
803.6555, 5.953436
804.1376, 5.666928
804.6198, 4.354230
805.1019, 2.644210
805.5840, 2.346673
806.0661, 4.275800
806.5482, 6.291637
807.0303, 5.181256
807.5125, 1.473046
807.9946, 0.5817780
808.4767, 3.061519
808.9588, 5.242530
809.4409, 6.064219
809.9230, 6.042494
810.4052, 6.106224
810.8873, 5.610494
811.3694, 5.843653
811.8515, 3.942444
812.3336, 2.328823
812.8157, 0.9834670
813.2979, 0.3468370
813.7800, 1.487124
814.2621, 3.607635
814.7442, 4.380044
815.2263, 2.507438
815.7084, 0.7290580
816.1906, 2.774734
816.6727, 6.479755
817.1548, 6.870171
817.6369, 4.093679
818.1190, 1.900158
818.6011, 1.977870
819.0833, 3.122879
819.5654, 3.556691
820.0475, 3.414426
820.5296, 3.325802
821.0117, 3.190407
821.4938, 3.298804
821.9760, 4.190930
822.4581, 4.943199
822.9402, 4.290238
823.4223, 2.703668
823.9044, 2.474578
824.3865, 5.674877
824.8687, 7.806437
825.3508, 6.024627
825.8329, 3.221916
826.3150, 2.043976
826.7971, 2.402854
827.2792, 3.234793
827.7614, 4.077688
828.2435, 4.901580
828.7256, 6.021025
829.2077, 7.096834
829.6898, 6.396684
830.1719, 3.824695
830.6541, 2.299375
831.1362, 3.197901
831.6183, 4.944385
832.1004, 5.742281
832.5825, 5.599703
833.0646, 5.248590
833.5468, 4.626134
834.0289, 3.889461
834.5110, 2.387774
834.9931, 1.411451
835.4752, 2.364145
835.9573, 4.171591
836.4395, 5.015141
836.9216, 3.777999
837.4037, 2.740534
837.8858, 3.603251
838.3679, 4.922372
838.8500, 5.119691
839.3322, 4.483344
839.8143, 3.910903
840.2964, 3.743153
840.7785, 4.051067
841.2606, 5.279818
841.7427, 6.891004
842.2249, 6.266953
842.7070, 3.274487
843.1891, 1.395508
843.6712, 1.622714
844.1533, 2.773297
844.6354, 4.260813
845.1176, 5.757800
845.5997, 5.528150
846.0818, 1.382861
846.5639, 0.7461080
847.0460, 0.1177730
847.5281, 1.738673
848.0103, 3.985499
848.4924, 5.921426
848.9745, 5.883361
849.4566, 3.550656
849.9387, 1.708426
850.4208, 2.436211
850.9030, 3.700623
851.3851, 3.590592
851.8672, 2.669755
852.3493, 1.991131
852.8314, 1.780531
853.3135, 1.974180
853.7957, 2.573773
854.2778, 3.225682
854.7599, 2.579925
855.2420, 0.6852460
855.7241, 0.2189280
856.2062, 1.669162
856.6884, 3.616166
857.1705, 5.620002
857.6526, 7.219330
858.1347, 7.427730
858.6168, 5.803518
859.0989, 4.780159
859.5811, 5.066660
860.0632, 5.021666
860.5453, 3.728216
861.0274, 2.359745
861.5095, 2.308713
861.9916, 3.245538
862.4738, 3.277719
862.9559, 0.8303320
863.4380, 0.9000280
863.9201, 1.047743
864.4022, 4.257505
864.8843, 6.341194
865.3665, 6.922779
865.8486, 5.206393
866.3307, 0.9750820
866.8128, 2.715126
867.2949, 1.194449
867.7770, 4.055692
868.2592, 6.252263
868.7413, 5.343750
869.2234, 4.660430
869.7055, 5.244953
870.1876, 5.737269
870.6697, 4.741540
871.1519, 2.601411
871.6340, 1.213412
872.1161, 0.2980980
872.5981, 0.6764340
873.0803, 4.758277
873.5624, 7.564051
874.0445, 5.575876
874.5266, 1.728532
875.0087, 0.2501130
875.4908, 1.752003
875.9730, 3.616368
876.4551, 5.361732
876.9372, 6.741580
877.4193, 7.510156
877.9014, 7.869431
878.3835, 8.191548
878.8657, 8.422707
879.3478, 8.079044
879.8299, 6.805247
880.3120, 5.090781
880.7941, 3.224216
881.2762, 1.501882
881.7584, 1.150472
882.2405, 2.146061
882.7226, 2.953474
883.2047, 2.842998
883.6868, 2.689713
884.1689, 3.853521
884.6511, 6.258201
885.1332, 7.338963
885.6153, 6.932577
886.0974, 5.514265
886.5795, 1.976132
887.0616, 1.000175
887.5438, 1.056642
888.0259, 1.038489
888.5080, 3.050154
888.9901, 5.320710
889.4722, 6.600798
889.9543, 6.077091
890.4365, 5.232562
890.9186, 4.575127
891.4007, 4.207053
891.8828, 4.283298
892.3649, 4.766958
892.8470, 5.288527
893.3292, 5.910792
893.8113, 6.141438
894.2934, 5.211588
894.7755, 3.686351
895.2576, 2.295965
895.7397, 1.289513
896.2219, 1.208990
896.7040, 2.347982
897.1861, 3.887439
897.6682, 4.770331
898.1503, 5.067406
898.6324, 5.365555
899.1146, 5.671535
899.5967, 5.857451
900.0788, 5.827289
900.5609, 5.887244
901.0430, 6.390387
901.5251, 7.236419
902.0073, 7.851006
902.4894, 8.668733
902.9715, 8.334414
903.4536, 5.167039
903.9357, 2.728333
904.4178, 3.213066
904.9000, 5.052659
905.3821, 5.975654
905.8642, 5.770451
906.3463, 5.371577
906.8284, 5.079253
907.3105, 4.568517
907.7927, 3.552323
908.2748, 2.295156
908.7569, 1.046552
909.2390, 2.4545999E-02
909.7211, 0.7827090
910.2032, 1.201829
910.6854, 1.060395
911.1675, 0.3992230
911.6496, 2.243655
912.1317, 2.705108
912.6138, 2.134354
913.0959, 2.003705
913.5781, 2.756068
914.0602, 3.892260
914.5423, 4.996675
915.0244, 6.059306
915.5065, 7.303629
915.9886, 8.729172
916.4708, 8.805381
916.9529, 7.130285
917.4350, 5.181170
917.9171, 3.548875
918.3992, 2.489574
918.8813, 2.497311
919.3635, 3.683665
919.8456, 5.186105
920.3277, 8.332192
920.8098, 9.608564
921.2919, 6.100199
921.7740, 2.433729
922.2562, 2.083782
922.7383, 4.036736
923.2204, 5.133213
923.7025, 4.713907
924.1846, 4.195636
924.6667, 3.676089
925.1489, 3.325329
925.6310, 2.758627
926.1131, 2.393081
926.5952, 3.365091
927.0773, 5.500790
927.5594, 6.684274
928.0416, 5.282795
928.5237, 3.262917
929.0058, 2.428985
929.4879, 2.247311
929.9700, 1.962653
930.4521, 1.495440
930.9343, 0.8848740
931.4164, 0.1618180
931.8985, 0.3796730
932.3806, 0.3975620
932.8627, 4.3983001E-02
933.3448, 0.8262520
933.8270, 1.917126
934.3091, 3.042081
934.7912, 4.151677
935.2733, 5.039462
935.7554, 5.576013
936.2375, 5.727543
936.7197, 5.301556
937.2018, 4.111120
937.6839, 3.409335
938.1660, 3.252883
938.6481, 3.495384
939.1302, 4.554000
939.6124, 5.413202
940.0945, 4.832332
940.5766, 2.998087
941.0587, 1.659050
941.5408, 0.3774520
942.0229, 0.2293730
942.5051, 2.262592
942.9872, 4.343714
943.4693, 5.901626
943.9514, 6.634760
944.4335, 5.879672
944.9156, 3.565283
945.3978, 1.519724
945.8799, 0.2217130
946.3620, 0.4228940
946.8441, 0.2604180
947.3262, 0.4375380
947.8083, 1.694078
948.2905, 3.197823
948.7726, 4.322863
949.2547, 4.838302
949.7368, 5.053446
950.2189, 5.437939
950.7010, 5.519837
951.1832, 4.288465
951.6653, 2.315426
952.1474, 0.9937090
952.6295, 0.5402570
953.1116, 0.2438730
953.5938, 0.4134460
954.0759, 0.7246730
954.5580, 1.122824
955.0400, 0.7754010
955.5222, 4.966231
956.0043, 2.618632
956.4864, 1.817835
956.9685, 4.153021
957.4506, 7.016069
957.9327, 7.947062
958.4149, 7.203786
958.8970, 5.492093
959.3791, 2.238005
959.8612, 1.073269
960.3433, 2.976590
960.8254, 5.090493
961.3076, 6.447580
961.7897, 6.900719
962.2718, 6.001658
962.7539, 3.714131
963.2360, 2.103658
963.7181, 1.724026
964.2003, 1.176328
964.6824, 0.4324310
965.1645, 1.429453
965.6466, 0.6711440
966.1287, 1.184873
966.6108, 3.304066
967.0930, 5.740681
967.5751, 6.871355
968.0572, 5.228029
968.5393, 3.731620
969.0214, 3.484020
969.5035, 3.963840
969.9857, 5.214431
970.4678, 6.748203
970.9499, 7.629324
971.4320, 7.604458
971.9141, 6.581075
972.3962, 2.935224
972.8784, 0.2154980
973.3605, 0.5660420
973.8426, 3.388952
974.3247, 5.484526
974.8068, 6.464096
975.2889, 6.788364
975.7711, 6.631196
976.2532, 5.949857
976.7353, 4.656265
977.2174, 3.087753
977.6995, 1.548689
978.1816, 0.2862060
978.6638, 0.2019390
979.1459, 1.449278
979.6280, 3.109652
980.1101, 4.532375
980.5922, 5.597336
981.0743, 5.838496
981.5565, 5.420401
982.0386, 5.403449
982.5207, 5.851748
983.0028, 6.384991
983.4849, 6.928870
983.9670, 6.634652
984.4492, 4.245589
984.9313, 0.5441560
985.4134, 0.5151300
985.8955, 1.582017
986.3776, 3.033975
986.8597, 3.400234
987.3419, 3.949342
987.8240, 5.528010
988.3061, 7.147071
988.7882, 7.252970
989.2703, 5.857282
989.7524, 5.302791
990.2346, 6.226697
990.7167, 6.705394
991.1988, 6.603708
991.6809, 5.764823
992.1630, 2.994812
992.6451, 2.0959999E-03
993.1273, 0.3168980
993.6094, 4.627581
994.0915, 7.259494
994.5736, 7.144154
995.0557, 6.740819
995.5378, 6.457929
996.0200, 6.074747
996.5021, 5.197861
996.9842, 4.180440
997.4663, 3.914806
997.9484, 4.715458
998.4305, 4.773003
998.9127, 2.606452
999.3948, 0.8971430
999.8769, 0.8262790
1000.359, 1.713180
1000.841, 3.530650
1001.323, 5.634762
1001.805, 6.558129
1002.287, 5.743473
1002.770, 4.778612
1003.252, 4.372681
1003.734, 4.220564
1004.216, 4.227797
1004.698, 4.266723
1005.180, 4.064576
1005.662, 3.684116
1006.144, 3.541205
1006.627, 3.866269
1007.109, 4.064791
1007.591, 3.175657
1008.073, 2.283693
1008.555, 2.939963
1009.037, 4.477049
1009.519, 5.920422
1010.001, 6.811351
1010.483, 6.093884
1010.966, 2.903813
1011.448, 0.2649070
1011.930, 2.8330000E-02
1012.412, 2.299959
1012.894, 3.550136
1013.376, 3.984088
1013.858, 4.883449
1014.340, 6.426877
1014.823, 7.425154
1015.305, 7.006126
1015.787, 5.827045
1016.269, 4.598344
1016.751, 3.553516
1017.233, 3.922985
1017.715, 5.523890
1018.197, 6.620730
1018.679, 6.727356
1019.162, 6.557918
1019.644, 6.694305
1020.126, 6.962754
1020.608, 7.063677
1021.090, 6.989201
1021.572, 6.505060
1022.054, 5.582359
1022.536, 5.009160
1023.018, 5.023206
1023.501, 5.395592
1023.983, 5.907683
1024.465, 6.314225
1024.947, 5.709470
1025.429, 3.914289
1025.911, 3.476941
1026.393, 4.809548
1026.875, 5.669283
1027.358, 5.110007
1027.840, 4.461946
1028.322, 5.200634
1028.804, 4.574879
1029.286, 4.111170
1029.768, 4.308408
1030.250, 2.777101
1030.732, 2.547095
1031.214, 1.880381
1031.697, 0.3005600
1032.179, 2.391104
1032.661, 2.931895
1033.143, 1.974031
1033.625, 0.4817040
1034.107, 6.115182
1034.589, 8.924810
1035.071, 7.598051
1035.553, 5.690847
1036.036, 3.815647
1036.518, 2.616309
1037.000, 3.218094
1037.482, 5.157933
1037.964, 5.674151
1038.446, 3.479781
1038.928, 2.401436
1039.410, 3.447696
1039.893, 4.243959
1040.375, 3.353963
1040.857, 2.380852
1041.339, 3.660928
1041.821, 6.457450
1042.303, 6.571579
1042.785, 1.050674
1043.267, 1.532511
1043.750, 1.804085
1044.232, 4.865276
1044.714, 5.312213
1045.196, 4.628936
1045.678, 3.976994
1046.160, 3.466197
1046.642, 3.278196
1047.124, 3.396222
1047.606, 3.912896
1048.089, 5.697040
1048.571, 7.024416
1049.053, 6.520329
1049.535, 5.393352
1050.017, 4.326994
1050.499, 3.570330
1050.981, 3.881793
1051.463, 6.067965
1051.945, 7.448795
1052.428, 7.188286
1052.910, 6.337267
1053.392, 4.844236
1053.874, 3.557561
1054.356, 2.904685
1054.838, 2.852146
1055.320, 2.920274
1055.802, 3.117664
1056.285, 3.038960
1056.767, 1.905797
1057.249, 1.264697
1057.731, 2.356137
1058.213, 3.945656
1058.695, 4.948499
1059.177, 5.325622
1059.659, 5.453512
1060.141, 5.702024
1060.624, 5.939444
1061.106, 6.149822
1061.588, 6.302961
1062.070, 6.564822
1062.552, 6.618000
1063.034, 5.679654
1063.516, 4.336627
1063.998, 4.319888
1064.480, 6.257376
1064.963, 7.791383
1065.445, 8.072917
1065.927, 7.613697
1066.409, 5.753584
1066.891, 4.048738
1067.373, 4.322898
1067.855, 5.924084
1068.337, 7.142838
1068.820, 7.574165
1069.302, 7.530051
1069.784, 6.529510
1070.266, 5.909032
1070.748, 7.173950
1071.230, 8.445243
1071.712, 7.548154
1072.194, 5.406631
1072.677, 4.187922
1073.159, 4.364360
1073.641, 4.864692
1074.123, 5.386191
1074.605, 5.912774
1075.087, 7.211941
1075.569, 7.805714
1076.051, 5.202552
1076.533, 1.410438
1077.016, 0.3022690
1077.498, 2.449038
1077.980, 5.035120
1078.462, 7.428252
1078.944, 9.212946
1079.426, 10.78169
1079.908, 11.10347
1080.390, 8.206568
1080.872, 4.069608
1081.354, 1.722103
1081.837, 1.535263
1082.319, 1.949524
1082.801, 2.419530
1083.283, 3.299549
1083.765, 5.949230
1084.247, 7.825272
1084.729, 5.675079
1085.211, 2.440603
1085.694, 2.704341
1086.176, 6.161915
1086.658, 8.413928
1087.140, 7.728512
1087.622, 6.518747
1088.104, 4.906473
1088.586, 4.090564
1089.068, 5.561845
1089.551, 7.718487
1090.033, 8.947864
1090.515, 9.099264
1090.997, 7.985523
1091.479, 5.134731
1091.961, 3.054017
1092.443, 2.560296
1092.925, 3.290611
1093.407, 6.588552
1093.890, 9.764507
1094.372, 9.919691
1094.854, 7.861066
1095.336, 5.909227
1095.818, 4.497583
1096.300, 3.664987
1096.782, 3.731471
1097.264, 3.854946
1097.746, 4.017568
1098.229, 4.176615
1098.711, 4.644335
1099.193, 4.951458
1099.675, 3.846827
1100.157, 1.170350
1100.639, 0.1150040
1101.121, 2.058082
1101.603, 3.768828
1102.086, 3.143603
1102.568, 2.362702
1103.050, 3.068186
1103.532, 4.291121
1104.014, 4.794724
1104.496, 4.452543
1104.978, 3.199080
1105.460, 0.7328870
1105.943, 2.615017
1106.425, 1.7030001E-02
1106.907, 2.746304
1107.389, 3.543210
1107.871, 3.509322
1108.353, 3.729906
1108.835, 4.212303
1109.317, 4.848986
1109.799, 6.447633
1110.281, 6.170424
1110.764, 1.065681
1111.246, 2.282794
1111.728, 0.3466540
1112.210, 2.509438
1112.692, 2.656333
1113.174, 1.130981
1113.656, 0.7863240
1114.138, 2.098305
1114.621, 2.447677
1115.103, 1.184297
1115.585, 0.1416360
1116.067, 2.794683
1116.549, 3.351485
1117.031, 2.152814
1117.513, 9.416918
1117.995, 10.97782
1118.478, 6.743216
1118.960, 5.028955
1119.442, 7.637289
1119.924, 8.397755
1120.406, 5.323533
1120.888, 3.144106
1121.370, 4.340344
1121.852, 6.618383
1122.334, 7.503038
1122.817, 7.120506
1123.299, 5.887410
1123.781, 3.078658
1124.263, 2.706512
1124.745, 5.714193
1125.227, 8.111357
1125.709, 8.708264
1126.191, 8.203785
1126.673, 6.975768
1127.156, 5.396762
1127.638, 4.239583
1128.120, 3.482113
1128.602, 4.235652
1129.084, 6.727674
1129.566, 8.362818
1130.048, 8.605848
1130.530, 7.959190
1131.013, 6.592513
1131.495, 5.120777
1131.977, 4.432583
1132.459, 4.449050
1132.941, 4.904941
1133.423, 5.763635
1133.905, 6.695850
1134.387, 7.609131
1134.870, 7.131397
1135.352, 4.739716
1135.834, 2.757063
1136.316, 3.632868
1136.798, 2.630426
1137.280, 5.625619
1137.762, 3.966471
1138.244, 4.472756
1138.726, 6.665547
1139.208, 7.231274
1139.691, 5.539931
1140.173, 3.485968
1140.655, 2.166352
1141.137, 1.709034
1141.619, 2.951750
1142.101, 4.704893
1142.583, 4.404622
1143.065, 3.079623
1143.548, 3.526764
1144.030, 5.420224
1144.512, 5.754869
1144.994, 3.476042
1145.476, 1.711762
1145.958, 4.031246
1146.440, 6.645148
1146.922, 4.962229
1147.405, 1.906561
1147.887, 1.190328
1148.369, 2.115008
1148.851, 2.665975
1149.333, 2.453054
1149.815, 2.107034
1150.297, 1.525070
1150.779, 1.962710
1151.261, 5.678723
1151.744, 9.013277
1152.226, 9.430675
1152.708, 7.817721
1153.190, 4.060734
1153.672, 0.4571260
1154.154, 1.912020
1154.636, 1.093589
1155.118, 3.195636
1155.600, 1.813869
1156.083, 0.6531200
1156.565, 0.6186360
1157.047, 1.627330
1157.529, 4.932214
1158.011, 8.548093
1158.493, 8.878708
1158.975, 5.882788
1159.457, 3.959330
1159.940, 4.011471
1160.422, 4.159233
1160.904, 4.531336
1161.386, 4.672617
1161.868, 4.195081
1162.350, 3.682312
1162.832, 3.652460
1163.314, 3.946442
1163.796, 4.209258
1164.279, 4.723759
1164.761, 5.391354
1165.243, 6.357456
1165.725, 6.906303
1166.207, 6.908759
1166.689, 6.332392
1167.171, 4.922112
1167.653, 3.679160
1168.135, 4.264106
1168.618, 3.390402
1169.100, 3.259403
1169.582, 3.622073
1170.064, 3.159520
1170.546, 4.656748
1171.028, 4.502250
1171.510, 1.495626
1171.992, 0.3280810
1172.474, 2.534082
1172.957, 7.129461
1173.439, 8.282301
1173.921, 6.861736
1174.403, 5.798463
1174.885, 5.277328
1175.367, 4.708150
1175.849, 3.975725
1176.331, 2.407573
1176.814, 5.7957999E-02
1177.296, 1.086452
1177.778, 2.500630
1178.260, 7.078225
1178.742, 8.485894
1179.224, 8.246824
1179.706, 8.337401
1180.188, 8.513788
1180.671, 7.794100
1181.153, 6.138266
1181.635, 4.278581
1182.117, 2.222216
1182.599, 1.135565
1183.081, 2.260406
1183.563, 3.830712
1184.045, 4.939687
1184.527, 5.787520
1185.010, 6.732221
1185.492, 7.586812
1185.974, 7.978030
1186.456, 7.877564
1186.938, 6.957458
1187.420, 3.261402
1187.902, 1.633295
1188.384, 4.560120
1188.866, 7.603767
1189.349, 9.245461
1189.831, 9.703627
1190.313, 8.913947
1190.795, 7.159613
1191.277, 5.455020
1191.759, 3.557186
1192.241, 2.966531
1192.723, 4.214938
1193.206, 4.852950
1193.688, 4.263664
1194.170, 3.386650
1194.652, 2.665945
1195.134, 2.370421
1195.616, 3.071421
1196.098, 4.332194
1196.580, 3.761147
1197.063, 4.891225
1197.545, 2.605961
1198.027, 5.972836
1198.509, 7.934625
1198.991, 7.478079
1199.473, 5.866609
1199.955, 3.815185
1200.437, 2.316832
1200.919, 3.078472
1201.401, 4.971942
1201.884, 6.557008
1202.366, 7.508009
1202.848, 6.612283
1203.330, 4.630564
1203.812, 4.310699
1204.294, 6.234361
1204.776, 7.307289
1205.258, 4.947903
1205.741, 2.802621
1206.223, 3.742453
1206.705, 5.214067
1207.187, 5.015576
1207.669, 4.368722
1208.151, 5.151139
1208.633, 6.920865
1209.115, 7.647942
1209.598, 6.703778
1210.080, 6.430390
1210.562, 7.966124
1211.044, 9.037229
1211.526, 9.374250
1212.008, 8.752086
1212.490, 6.662696
1212.972, 4.343019
1213.454, 3.525908
1213.937, 3.859298
1214.419, 3.492903
1214.901, 1.974634
1215.383, 2.531897
1215.865, 5.885172
1216.347, 6.499269
1216.829, 2.752117
1217.311, 0.4968710
1217.793, 0.4045310
1218.276, 1.513858
1218.758, 3.497549
1219.240, 5.391560
1219.722, 7.020662
1220.204, 8.166397
1220.686, 7.656982
1221.168, 5.825739
1221.650, 3.952678
1222.133, 2.510287
1222.615, 2.171751
1223.097, 3.459912
1223.579, 4.577018
1224.061, 3.219193
1224.543, 1.607711
1225.025, 2.154673
1225.507, 3.503345
1225.990, 4.141361
1226.472, 4.192385
1226.954, 4.014304
1227.436, 3.786098
1227.918, 4.329811
1228.400, 6.483578
1228.882, 8.029088
1229.364, 9.106044
1229.846, 8.715848
1230.328, 4.618086
1230.811, 0.8039730
1231.293, 0.9155650
1231.775, 2.912278
1232.257, 2.415598
1232.739, 0.5437490
1233.221, 1.312866
1233.703, 0.6639890
1234.185, 2.491579
1234.668, 4.070164
1235.150, 4.687854
1235.632, 4.013837
1236.114, 3.187238
1236.596, 3.114902
1237.078, 3.307074
1237.560, 2.644754
1238.042, 1.647526
1238.525, 2.488128
1239.007, 2.160703
1239.489, 2.311209
1239.971, 3.313888
1240.453, 3.199964
1240.935, 4.813465
1241.417, 6.232220
1241.899, 6.347364
1242.381, 5.647231
1242.864, 3.843025
1243.346, 2.129402
1243.828, 0.8763350
1244.310, 0.7755740
1244.792, 3.616322
1245.274, 7.822677
1245.756, 9.977949
1246.238, 9.579268
1246.720, 8.485309
1247.203, 6.324932
1247.685, 4.570859
1248.167, 3.102818
1248.649, 2.440406
1249.131, 3.115395
1249.613, 4.020545
1250.095, 4.236682
1250.577, 4.268168
1251.059, 5.225344
1251.542, 6.848669
1252.024, 7.601566
1252.506, 7.375378
1252.988, 7.584762
1253.470, 8.231950
1253.952, 6.145760
1254.434, 0.6555660
1254.916, 2.978538
1255.399, 0.8556050
1255.881, 2.957451
1256.363, 3.211969
1256.845, 2.163279
1257.327, 2.832386
1257.809, 4.563951
1258.291, 6.938910
1258.773, 9.239380
1259.255, 9.828001
1259.738, 9.172355
1260.220, 8.022445
1260.702, 6.433525
1261.184, 5.229171
1261.666, 5.145185
1262.148, 4.854859
1262.630, 3.279100
1263.112, 1.905317
1263.594, 2.068884
1264.077, 2.852789
1264.559, 2.659794
1265.041, 1.788122
1265.523, 3.168347
1266.005, 7.645344
1266.487, 8.859201
1266.969, 6.216349
1267.451, 4.239082
1267.934, 3.983628
1268.416, 5.128665
1268.898, 7.604182
1269.380, 9.369341
1269.862, 7.502266
1270.344, 3.041670
1270.826, 2.251127
1271.308, 2.904286
1271.791, 3.158381
1272.273, 3.113774
1272.755, 3.168427
1273.237, 3.474281
1273.719, 4.249706
1274.201, 5.583372
1274.683, 7.063730
1275.165, 9.381205
1275.647, 10.55595
1276.130, 9.602927
1276.612, 7.551739
1277.094, 3.481421
1277.576, 7.1676001E-02
1278.058, 0.1069450
1278.540, 2.676832
1279.022, 4.264740
1279.504, 4.883636
1279.986, 4.063742
1280.469, 1.436749
1280.951, 0.1288880
1281.433, 0.4028020
1281.915, 0.6073100
1282.397, 5.9078000E-02
1282.879, 2.3761000E-02
1283.361, 1.302190
1283.843, 2.736221
1284.326, 2.126409
1284.808, 0.0000000E+00
##END=



