##NAMES=Ramdohrite
##RRUFFID=R110001
##IDEAL CHEMISTRY=Pb_5.9_Fe_0.1_Mn_0.1_In_0.1_Cd_0.2_Ag_2.8_Sb_10.8_S_24_
##LOCALITY=Chocaya, Potosi, Bolivia
##OWNER=RRUFF
##SOURCE=Mark N. Feinglos
##DESCRIPTION=Massive, silver metallic associated with quartz and wurtzite
##STATUS=The identification of this mineral has been confirmed by single-crystal X-ray diffraction.
##URL=rruff.info/R110001
159.4958, 0.0000000E+00
159.9779, 2.7654000E-02
160.4600, 2.595471
160.9422, 4.716690
161.4243, 4.470984
161.9064, 3.713826
162.3885, 3.715902
162.8706, 5.484334
163.3527, 7.223149
163.8349, 8.527605
164.3170, 9.299816
164.7991, 9.107150
165.2812, 6.416146
165.7633, 3.258933
166.2454, 1.475646
166.7276, 2.934668
167.2097, 4.764396
167.6918, 5.105745
168.1739, 4.147065
168.6560, 3.473296
169.1381, 4.589741
169.6203, 6.353949
170.1024, 7.318625
170.5845, 6.694669
171.0666, 5.744677
171.5487, 4.194458
172.0309, 2.255301
172.5130, 1.116163
172.9951, 2.394589
173.4772, 5.317389
173.9593, 6.975952
174.4414, 6.354877
174.9236, 5.131883
175.4057, 5.427685
175.8878, 7.266346
176.3699, 8.901821
176.8520, 8.690446
177.3341, 7.203635
177.8163, 5.667572
178.2984, 4.628368
178.7805, 3.898983
179.2626, 3.056124
179.7447, 1.993795
180.2268, 1.040506
180.7090, 0.5367270
181.1911, 0.3786690
181.6732, 0.2587690
182.1553, 0.2674070
182.6374, 0.8156090
183.1195, 0.2295490
183.6017, 1.377972
184.0838, 3.199607
184.5659, 4.495886
185.0480, 5.206379
185.5301, 5.043427
186.0123, 2.977987
186.4944, 0.1586530
186.9765, 1.519571
187.4586, 0.8154760
187.9407, 0.8600660
188.4228, 2.330016
188.9050, 3.565857
189.3871, 4.273844
189.8692, 3.852382
190.3513, 2.619036
190.8334, 2.357907
191.3155, 3.391015
191.7977, 4.787577
192.2798, 4.925436
192.7619, 3.810045
193.2440, 2.726240
193.7261, 2.391123
194.2082, 2.740695
194.6904, 3.064821
195.1725, 3.382659
195.6546, 3.560783
196.1367, 3.278485
196.6188, 2.509369
197.1009, 1.648165
197.5831, 0.7031490
198.0652, 0.3323790
198.5473, 0.4999490
199.0294, 0.5391650
199.5115, 2.059448
199.9937, 2.359070
200.4758, 1.214441
200.9579, 0.2569330
201.4400, 0.6261400
201.9221, 2.458920
202.4042, 3.624660
202.8864, 3.839302
203.3685, 3.495121
203.8506, 3.682620
204.3327, 4.680521
204.8148, 5.172007
205.2969, 4.112870
205.7791, 1.133643
206.2612, 0.6094660
206.7433, 0.6133410
207.2254, 0.4696040
207.7075, 0.9070400
208.1896, 0.4418810
208.6718, 8.2610004E-02
209.1539, 0.5075330
209.6360, 1.943930
210.1181, 2.950078
210.6002, 3.308371
211.0823, 3.269543
211.5645, 3.618305
212.0466, 4.595132
212.5287, 5.393397
213.0108, 5.479910
213.4929, 4.605788
213.9750, 3.989690
214.4572, 3.669375
214.9393, 3.658086
215.4214, 4.144272
215.9035, 5.541059
216.3856, 6.597841
216.8678, 6.405466
217.3499, 4.130359
217.8320, 3.095227
218.3141, 3.970923
218.7962, 6.036574
219.2783, 6.914310
219.7605, 5.956224
220.2426, 4.974429
220.7247, 5.054764
221.2068, 6.775978
221.6889, 7.908053
222.1710, 8.313859
222.6532, 8.078392
223.1353, 7.351562
223.6174, 5.742313
224.0995, 4.281647
224.5816, 3.557248
225.0637, 3.952788
225.5459, 4.055709
226.0280, 3.603839
226.5101, 2.878977
226.9922, 2.844481
227.4743, 4.026553
227.9564, 5.070602
228.4386, 5.212055
228.9207, 3.797685
229.4028, 3.112565
229.8849, 3.494596
230.3670, 4.516713
230.8492, 4.985556
231.3313, 4.557783
231.8134, 4.087845
232.2955, 3.982872
232.7776, 4.465006
233.2597, 4.786481
233.7419, 4.835412
234.2240, 4.751023
234.7061, 4.949541
235.1882, 5.764299
235.6703, 6.356555
236.1524, 6.354104
236.6346, 5.576499
237.1167, 4.600003
237.5988, 2.924139
238.0809, 1.194839
238.5630, 0.9536020
239.0451, 3.080505
239.5273, 5.382657
240.0094, 7.054722
240.4915, 8.198041
240.9736, 8.386539
241.4557, 7.106269
241.9378, 5.072091
242.4200, 3.832442
242.9021, 3.741526
243.3842, 3.877137
243.8663, 3.930179
244.3484, 3.908145
244.8306, 3.642005
245.3127, 3.092553
245.7948, 2.501390
246.2769, 2.342794
246.7590, 3.089375
247.2411, 3.456968
247.7233, 2.766624
248.2054, 0.3975030
248.6875, 0.6101340
249.1696, 0.4748960
249.6517, 2.436191
250.1338, 3.191623
250.6160, 1.907950
251.0981, 0.9293580
251.5802, 1.171957
252.0623, 3.027046
252.5444, 4.049547
253.0265, 3.914423
253.5087, 3.206743
253.9908, 2.742398
254.4729, 2.599693
254.9550, 2.529934
255.4371, 2.433372
255.9192, 2.260324
256.4014, 2.343845
256.8835, 2.823967
257.3656, 3.462142
257.8477, 4.038247
258.3298, 4.599342
258.8120, 4.990513
259.2941, 5.143982
259.7762, 5.044864
260.2583, 4.961820
260.7404, 4.906518
261.2225, 4.851462
261.7047, 4.747896
262.1868, 4.543702
262.6689, 4.446518
263.1510, 4.624116
263.6331, 5.054402
264.1152, 4.785894
264.5974, 3.441080
265.0795, 2.083151
265.5616, 1.856476
266.0437, 3.227563
266.5258, 4.142215
267.0079, 4.052585
267.4901, 3.114779
267.9722, 2.777331
268.4543, 3.240837
268.9364, 3.896630
269.4185, 4.268325
269.9006, 4.318694
270.3828, 4.246686
270.8649, 4.069912
271.3470, 3.794048
271.8291, 3.471792
272.3112, 3.145583
272.7933, 2.648452
273.2755, 1.620105
273.7576, 0.1541330
274.2397, 0.9231170
274.7218, 0.1693810
275.2039, 1.547566
275.6860, 2.461485
276.1682, 2.401723
276.6503, 2.212949
277.1324, 2.549160
277.6145, 3.483318
278.0966, 3.841249
278.5787, 3.313861
279.0609, 2.422319
279.5430, 2.470977
280.0251, 3.645823
280.5072, 4.735137
280.9893, 4.985185
281.4715, 4.385267
281.9536, 3.891682
282.4357, 3.574175
282.9178, 3.358544
283.3999, 3.116149
283.8820, 2.843158
284.3642, 2.608096
284.8463, 2.577673
285.3284, 2.699132
285.8105, 2.196236
286.2926, 0.8644800
286.7747, 0.4550960
287.2569, 0.3448990
287.7390, 1.134611
288.2211, 2.371595
288.7032, 2.552295
289.1853, 1.931313
289.6674, 1.608111
290.1496, 1.586169
290.6317, 1.815814
291.1138, 2.577035
291.5959, 3.719559
292.0780, 4.150373
292.5602, 3.173257
293.0423, 1.373978
293.5244, 9.6523002E-02
294.0065, 0.6431620
294.4886, 0.7985990
294.9707, 0.1153040
295.4529, 1.773693
295.9350, 2.983205
296.4171, 3.395041
296.8992, 3.241021
297.3813, 2.717623
297.8634, 1.868803
298.3456, 1.168315
298.8277, 0.9849150
299.3098, 1.219306
299.7919, 1.709224
300.2740, 2.517496
300.7561, 3.391097
301.2383, 4.090417
301.7204, 4.597339
302.2025, 4.775547
302.6846, 4.147486
303.1667, 3.252120
303.6488, 3.059093
304.1310, 3.973583
304.6131, 4.798845
305.0952, 3.893743
305.5773, 1.868976
306.0594, 0.3776050
306.5415, 0.8266840
307.0237, 1.988467
307.5058, 2.451578
307.9879, 2.009953
308.4700, 1.380758
308.9521, 1.015453
309.4343, 0.8692630
309.9164, 0.7776230
310.3985, 0.6516250
310.8806, 0.5986130
311.3627, 0.6542790
311.8448, 0.8217640
312.3270, 1.244490
312.8091, 2.595420
313.2912, 4.036702
313.7733, 4.567666
314.2554, 2.780563
314.7375, 0.9395740
315.2197, 0.2658600
315.7018, 0.6414350
316.1839, 1.218207
316.6660, 1.882228
317.1481, 2.441336
317.6302, 2.714746
318.1124, 2.307140
318.5945, 2.051569
319.0766, 2.293520
319.5587, 2.927730
320.0408, 3.587761
320.5229, 4.345941
321.0051, 4.967263
321.4872, 5.312070
321.9693, 5.270239
322.4514, 5.111827
322.9335, 4.808488
323.4156, 4.430623
323.8978, 4.113892
324.3799, 3.977669
324.8620, 3.822870
325.3441, 3.539267
325.8262, 3.025986
326.3083, 2.704204
326.7905, 2.723339
327.2726, 2.907151
327.7547, 3.037871
328.2368, 3.077813
328.7189, 3.096097
329.2010, 3.101648
329.6832, 3.094012
330.1653, 3.088653
330.6474, 3.237266
331.1295, 3.278953
331.6116, 2.938200
332.0938, 1.500981
332.5759, 0.8316010
333.0580, 1.442322
333.5401, 3.100157
334.0222, 4.198588
334.5043, 4.752827
334.9865, 4.743276
335.4686, 4.038538
335.9507, 2.232634
336.4328, 0.8204170
336.9149, 0.1150330
337.3970, 0.6231780
337.8792, 0.7795900
338.3613, 0.5888530
338.8434, 0.1606100
339.3255, 0.6148660
339.8076, 1.858614
340.2898, 2.690117
340.7719, 3.082082
341.2540, 3.124486
341.7361, 2.765539
342.2182, 1.927632
342.7003, 1.497497
343.1825, 1.943501
343.6646, 3.112495
344.1467, 3.974617
344.6288, 4.505148
345.1109, 4.811195
345.5930, 5.062943
346.0752, 5.213902
346.5573, 4.910422
347.0394, 3.879757
347.5215, 2.503099
348.0036, 1.574873
348.4857, 1.095909
348.9679, 0.8675340
349.4500, 0.8900040
349.9321, 1.055313
350.4142, 0.9624990
350.8963, 0.4052040
351.3784, 5.9055001E-02
351.8606, 0.6161660
352.3427, 2.111067
352.8248, 3.228534
353.3069, 2.652030
353.7890, 1.461609
354.2711, 1.299005
354.7533, 2.401868
355.2354, 3.495163
355.7175, 3.363507
356.1996, 2.481444
356.6817, 1.676407
357.1638, 1.259858
357.6460, 1.078559
358.1281, 1.079414
358.6102, 1.246029
359.0923, 1.411962
359.5744, 1.589741
360.0565, 1.672724
360.5387, 1.538677
361.0208, 0.8829930
361.5029, 0.3422060
361.9850, 0.1886950
362.4671, 0.3724600
362.9492, 0.7482390
363.4314, 1.680851
363.9135, 2.490171
364.3956, 2.772115
364.8777, 2.299984
365.3598, 1.710902
365.8419, 0.9373660
366.3241, 0.1887070
366.8062, 0.2509430
367.2883, 1.5104000E-02
367.7704, 0.2372140
368.2526, 0.3422290
368.7347, 0.2835600
369.2168, 0.1359150
369.6989, 0.2883660
370.1810, 0.6842940
370.6631, 0.7955150
371.1453, 0.3945630
371.6274, 5.6586001E-02
372.1095, 3.0615000E-02
372.5916, 4.0991001E-02
373.0737, 0.4089040
373.5558, 1.863528
374.0380, 3.128593
374.5201, 3.437282
375.0022, 2.358587
375.4843, 1.749041
375.9664, 1.803667
376.4485, 2.268294
376.9307, 2.619884
377.4128, 2.824820
377.8949, 2.781804
378.3770, 2.358936
378.8591, 1.590065
379.3412, 1.112672
379.8234, 0.9441490
380.3055, 1.019976
380.7876, 1.481393
381.2697, 2.287332
381.7518, 2.591421
382.2339, 1.967520
382.7161, 0.8621050
383.1982, 0.2784010
383.6803, 0.2119100
384.1624, 0.3820070
384.6445, 0.7224410
385.1266, 1.139181
385.6088, 1.369321
386.0909, 1.330275
386.5730, 1.233586
387.0551, 1.328070
387.5372, 1.566013
388.0193, 1.813356
388.5015, 2.195956
388.9836, 2.445596
389.4657, 2.052181
389.9478, 0.9610310
390.4299, 0.1875390
390.9120, 0.6717270
391.3942, 1.795828
391.8763, 2.816655
392.3584, 3.814200
392.8405, 4.324570
393.3226, 3.872555
393.8047, 2.640851
394.2869, 1.463866
394.7690, 0.4189460
395.2511, 0.3380200
395.7332, 0.6295620
396.2154, 0.1680730
396.6975, 0.2812880
397.1796, 0.4589960
397.6617, 0.5148660
398.1438, 0.7289530
398.6259, 1.242860
399.1081, 1.817813
399.5902, 2.496024
400.0723, 3.357006
400.5544, 3.755729
401.0365, 3.393624
401.5186, 2.789660
402.0008, 2.367233
402.4829, 2.201478
402.9650, 2.068927
403.4471, 1.941148
403.9292, 1.827913
404.4113, 1.788940
404.8935, 1.870059
405.3756, 1.919736
405.8577, 1.857448
406.3398, 1.675107
406.8219, 1.390177
407.3040, 0.8977300
407.7862, 0.5266080
408.2683, 0.7840670
408.7504, 1.715858
409.2325, 2.550460
409.7146, 3.026038
410.1967, 3.256298
410.6789, 3.491897
411.1610, 3.765309
411.6431, 4.061890
412.1252, 4.617032
412.6073, 5.202927
413.0894, 5.004932
413.5716, 3.564861
414.0537, 1.969941
414.5358, 1.740997
415.0179, 2.530909
415.5000, 3.198231
415.9821, 2.754271
416.4643, 2.066081
416.9464, 2.250185
417.4285, 3.460537
417.9106, 4.358912
418.3927, 3.516078
418.8748, 2.057959
419.3570, 1.335554
419.8391, 2.801283
420.3212, 4.117948
420.8033, 4.205723
421.2854, 3.265142
421.7675, 2.265176
422.2497, 1.245513
422.7318, 0.4691320
423.2139, 4.9000001E-04
423.6960, 0.2548020
424.1781, 1.8339001E-02
424.6602, 1.363973
425.1424, 3.110437
425.6245, 3.984674
426.1066, 3.167323
426.5887, 2.487218
427.0709, 2.440227
427.5530, 3.004697
428.0351, 3.008378
428.5172, 1.912298
428.9993, 1.069954
429.4814, 1.793014
429.9636, 4.901860
430.4457, 6.132950
430.9278, 4.552003
431.4099, 1.513360
431.8920, 0.1159840
432.3741, 0.5498950
432.8563, 1.053653
433.3384, 0.6679950
433.8205, 0.4120860
434.3026, 0.7632690
434.7847, 0.2960410
435.2668, 0.3735880
435.7490, 0.5895860
436.2311, 0.5063720
436.7132, 0.6067590
437.1953, 1.116353
437.6774, 1.727842
438.1595, 2.114830
438.6417, 2.271307
439.1238, 2.171781
439.6059, 1.255112
440.0880, 0.3534480
440.5701, 0.6034410
441.0522, 2.317255
441.5344, 3.801827
442.0165, 3.660972
442.4986, 2.791043
442.9807, 2.289634
443.4628, 3.039050
443.9449, 3.716011
444.4271, 3.537541
444.9092, 2.718169
445.3913, 2.505741
445.8734, 4.508892
446.3555, 6.201720
446.8376, 6.167677
447.3198, 2.941556
447.8019, 0.6989810
448.2840, 4.5542002E-02
448.7661, 7.3864996E-02
449.2482, 0.1810890
449.7303, 0.2256230
450.2125, 0.3412360
450.6946, 0.5534940
451.1767, 0.8629430
451.6588, 1.314778
452.1409, 2.045622
452.6230, 2.609090
453.1052, 2.517710
453.5873, 1.715399
454.0694, 1.352893
454.5515, 1.612135
455.0337, 2.093373
455.5158, 2.135197
455.9979, 1.764175
456.4800, 1.363103
456.9621, 0.9315440
457.4442, 0.6282760
457.9264, 0.9035160
458.4085, 1.748610
458.8906, 2.759685
459.3727, 3.852774
459.8548, 4.836306
460.3369, 5.377606
460.8191, 5.414065
461.3012, 4.990502
461.7833, 3.599590
462.2654, 1.790574
462.7475, 0.7087900
463.2296, 1.818500
463.7118, 2.984845
464.1939, 2.662920
464.6760, 0.7338730
465.1581, 0.4016720
465.6402, 1.138383
466.1223, 3.067330
466.6045, 3.755469
467.0866, 0.9816670
467.5687, 0.5565610
468.0508, 8.6046003E-02
468.5329, 2.055572
469.0150, 3.511093
469.4972, 4.413050
469.9793, 4.833474
470.4614, 4.710107
470.9435, 4.018732
471.4256, 3.224586
471.9077, 2.226565
472.3899, 1.328122
472.8720, 0.7229860
473.3541, 0.3859380
473.8362, 0.7380710
474.3183, 2.132449
474.8004, 3.777454
475.2826, 3.826617
475.7647, 2.401470
476.2468, 1.227155
476.7289, 1.507921
477.2110, 2.598685
477.6931, 3.150069
478.1753, 3.127514
478.6574, 2.695199
479.1395, 1.554295
479.6216, 0.2012170
480.1037, 0.6075240
480.5858, 0.5350140
481.0680, 0.1616820
481.5501, 0.1985950
482.0322, 0.5955050
482.5143, 1.064994
482.9964, 1.935300
483.4786, 2.582939
483.9607, 2.576378
484.4428, 1.836476
484.9249, 1.287323
485.4070, 1.100915
485.8892, 1.173002
486.3713, 1.446049
486.8534, 2.100703
487.3355, 2.691834
487.8176, 3.401443
488.2997, 3.976205
488.7819, 3.755500
489.2640, 2.222154
489.7461, 1.089834
490.2282, 1.207660
490.7103, 2.358301
491.1924, 2.366973
491.6746, 0.9242090
492.1567, 0.5367800
492.6388, 0.4747140
493.1209, 0.9056170
493.6030, 1.751987
494.0851, 1.741130
494.5673, 1.370865
495.0494, 1.246210
495.5315, 1.348525
496.0136, 1.614161
496.4957, 2.396123
496.9778, 3.098721
497.4600, 2.843996
497.9421, 1.735774
498.4242, 0.8164950
498.9063, 0.9818660
499.3884, 1.448740
499.8705, 1.439815
500.3527, 0.4381000
500.8348, 0.1250440
501.3169, 0.7844080
501.7990, 2.300043
502.2811, 3.206186
502.7632, 2.459239
503.2454, 1.964080
503.7275, 2.422578
504.2096, 3.692525
504.6917, 4.137920
505.1738, 3.108633
505.6559, 2.132736
506.1381, 2.186409
506.6202, 3.782721
507.1023, 4.201871
507.5844, 2.982057
508.0665, 1.414391
508.5486, 1.474418
509.0308, 3.209194
509.5129, 4.575358
509.9950, 5.018446
510.4771, 4.805872
510.9592, 4.346215
511.4413, 3.674383
511.9235, 3.105020
512.4056, 2.842391
512.8877, 2.806651
513.3698, 3.043329
513.8519, 3.596291
514.3340, 3.770799
514.8162, 2.552800
515.2983, 0.8499030
515.7804, 0.2499280
516.2625, 0.2436230
516.7446, 0.1931970
517.2267, 1.052945
517.7089, 2.150732
518.1910, 3.023327
518.6731, 3.673101
519.1552, 3.988878
519.6373, 3.837268
520.1194, 3.179418
520.6016, 2.538672
521.0837, 1.805007
521.5658, 1.218222
522.0479, 0.9939510
522.5300, 1.252264
523.0121, 1.414820
523.4943, 1.473190
523.9764, 1.469677
524.4585, 1.466370
524.9406, 1.458688
525.4227, 1.630197
525.9048, 2.265779
526.3870, 3.097307
526.8691, 3.582177
527.3513, 3.725986
527.8334, 3.604177
528.3155, 3.032956
528.7976, 2.317096
529.2797, 1.879663
529.7618, 1.909671
530.2440, 2.286215
530.7261, 3.339645
531.2082, 4.361871
531.6903, 4.559721
532.1724, 2.615971
532.6545, 0.9573290
533.1367, 0.5921330
533.6188, 1.177004
534.1009, 1.456600
534.5830, 0.4718050
535.0651, 7.9124004E-02
535.5472, 0.6518510
536.0294, 3.019689
536.5115, 4.016490
536.9936, 2.858123
537.4757, 1.424450
537.9578, 1.412662
538.4399, 3.178608
538.9221, 4.429100
539.4042, 4.907687
539.8863, 4.783453
540.3684, 4.058060
540.8505, 2.816073
541.3326, 2.105412
541.8148, 2.822969
542.2969, 4.050839
542.7790, 3.911749
543.2611, 2.582096
543.7432, 1.468591
544.2253, 1.780618
544.7075, 2.655657
545.1896, 3.319889
545.6717, 3.722834
546.1538, 3.593975
546.6359, 2.070711
547.1180, 0.2513600
547.6002, 0.6759170
548.0823, 0.6397370
548.5644, 1.628138
549.0465, 1.480744
549.5286, 0.6610700
550.0107, 0.5175750
550.4929, 1.593159
550.9750, 2.636443
551.4571, 3.268611
551.9392, 3.489290
552.4213, 3.285081
552.9034, 2.499116
553.3856, 1.774770
553.8677, 1.720648
554.3498, 2.276169
554.8319, 2.739221
555.3140, 3.062593
555.7961, 3.224599
556.2783, 3.071600
556.7604, 2.686997
557.2425, 2.221047
557.7246, 1.488919
558.2067, 0.9502260
558.6888, 1.256362
559.1710, 2.186570
559.6531, 2.965115
560.1352, 3.155207
560.6173, 3.123177
561.0994, 2.985141
561.5815, 2.712385
562.0637, 2.704122
562.5458, 3.609177
563.0279, 4.430027
563.5100, 4.395555
563.9921, 2.439106
564.4742, 1.562524
564.9564, 2.276332
565.4385, 3.747678
565.9206, 4.553988
566.4027, 4.560747
566.8848, 4.582025
567.3669, 5.018361
567.8491, 5.543136
568.3312, 4.780575
568.8133, 2.791589
569.2954, 1.090398
569.7775, 0.8317640
570.2596, 1.484446
570.7418, 2.281119
571.2239, 3.198153
571.7060, 3.746059
572.1881, 3.103850
572.6702, 2.092642
573.1523, 1.654364
573.6345, 2.344112
574.1166, 3.041193
574.5987, 3.365997
575.0808, 3.417407
575.5629, 3.376742
576.0450, 3.350282
576.5272, 3.132665
577.0093, 2.544064
577.4914, 1.683952
577.9735, 1.227016
578.4556, 1.331094
578.9377, 1.519819
579.4199, 1.541147
579.9020, 1.389594
580.3841, 1.372437
580.8662, 1.491344
581.3483, 1.731747
581.8304, 2.089533
582.3126, 2.557319
582.7947, 3.172292
583.2768, 4.034781
583.7589, 4.759774
584.2410, 4.978994
584.7231, 4.756154
585.2053, 4.217301
585.6874, 3.398347
586.1696, 2.292992
586.6517, 0.3393620
587.1338, 2.081313
587.6159, 3.301960
588.0980, 2.028374
588.5801, 0.2286750
589.0623, 1.494561
589.5444, 3.257902
590.0265, 3.994368
590.5086, 3.006656
590.9907, 1.883266
591.4728, 1.982954
591.9550, 3.551620
592.4371, 4.809560
592.9192, 5.670856
593.4013, 6.051471
593.8834, 5.473583
594.3655, 4.085519
594.8477, 3.064422
595.3298, 3.003086
595.8119, 3.225638
596.2940, 2.629255
596.7761, 1.499742
597.2582, 0.7782370
597.7404, 1.418720
598.2225, 2.294699
598.7046, 2.500603
599.1867, 1.996445
599.6688, 1.808665
600.1509, 2.496734
600.6331, 3.413999
601.1152, 4.220328
601.5973, 5.157971
602.0794, 5.364512
602.5615, 4.495460
603.0436, 3.237113
603.5258, 2.286164
604.0079, 1.611935
604.4900, 1.493778
604.9721, 2.136757
605.4542, 3.016732
605.9363, 3.623195
606.4185, 3.898044
606.9006, 3.790304
607.3827, 2.896304
607.8648, 1.843525
608.3469, 1.681259
608.8290, 2.273762
609.3112, 2.867984
609.7933, 2.933525
610.2754, 2.890702
610.7575, 3.242217
611.2396, 4.165834
611.7217, 4.398158
612.2039, 2.463847
612.6860, 0.4100290
613.1681, 0.1444290
613.6502, 2.258044
614.1323, 3.666520
614.6144, 3.752108
615.0966, 3.076199
615.5787, 2.273546
616.0608, 1.246847
616.5429, 0.7973850
617.0250, 1.256293
617.5071, 2.232776
617.9893, 3.020576
618.4714, 3.587890
618.9535, 3.675534
619.4356, 2.549025
619.9177, 1.199862
620.3998, 1.114110
620.8820, 2.163182
621.3641, 3.055459
621.8462, 2.775599
622.3283, 2.345445
622.8104, 2.421192
623.2925, 3.118306
623.7747, 3.852990
624.2568, 4.802901
624.7389, 5.639483
625.2210, 6.141994
625.7031, 6.488780
626.1852, 5.991128
626.6674, 4.199252
627.1495, 2.030649
627.6316, 1.104689
628.1137, 1.469150
628.5958, 1.915648
629.0779, 2.143019
629.5601, 2.198868
630.0422, 2.109148
630.5243, 1.907537
631.0064, 1.749562
631.4885, 1.727986
631.9706, 1.786158
632.4528, 1.866439
632.9349, 1.970346
633.4170, 2.143107
633.8991, 2.665212
634.3812, 3.064736
634.8633, 2.915578
635.3455, 1.755083
635.8276, 1.473401
636.3097, 2.881999
636.7918, 4.470592
637.2739, 4.862733
637.7560, 3.664006
638.2382, 2.867018
638.7203, 2.716266
639.2024, 2.857326
639.6845, 2.790595
640.1666, 2.530679
640.6487, 2.163682
641.1309, 1.546746
641.6130, 1.070847
642.0951, 1.564537
642.5772, 2.686379
643.0594, 3.452962
643.5415, 3.090899
644.0236, 2.492576
644.5057, 1.970742
644.9879, 1.454406
645.4700, 1.435054
645.9521, 3.411777
646.4342, 4.938807
646.9163, 4.598578
647.3984, 1.908761
647.8806, 0.4715150
648.3627, 0.7119070
648.8448, 1.381544
649.3269, 1.480540
649.8090, 1.007970
650.2911, 0.5244390
650.7733, 4.4490001E-03
651.2554, 0.2272770
651.7375, 0.6276450
652.2196, 2.102454
652.7017, 3.035752
653.1838, 2.884116
653.6660, 2.536065
654.1481, 2.846771
654.6302, 3.410770
655.1123, 3.513534
655.5944, 2.188626
656.0765, 1.140388
656.5587, 1.191956
657.0408, 2.042679
657.5229, 2.195220
658.0050, 1.151242
658.4871, 0.2444990
658.9692, 9.1025002E-02
659.4514, 0.1205460
659.9335, 0.8678670
660.4156, 2.277515
660.8977, 3.174205
661.3798, 1.995633
661.8619, 0.2875500
662.3441, 0.8539590
662.8262, 0.4960810
663.3083, 2.046849
663.7904, 2.491616
664.2725, 2.370245
664.7546, 2.275824
665.2368, 2.383531
665.7189, 2.371816
666.2010, 2.008732
666.6831, 1.525743
667.1652, 1.174857
667.6473, 0.7609800
668.1295, 0.8538030
668.6116, 1.773888
669.0937, 3.016008
669.5758, 3.465237
670.0579, 3.016908
670.5400, 2.857604
671.0222, 3.501257
671.5043, 4.468719
671.9864, 4.657956
672.4685, 4.161424
672.9506, 3.435310
673.4327, 2.291194
673.9149, 1.373945
674.3970, 1.432333
674.8791, 2.348247
675.3612, 3.086208
675.8433, 3.026651
676.3254, 2.864808
676.8076, 3.097405
677.2897, 3.919279
677.7718, 3.981051
678.2539, 2.919828
678.7360, 1.541309
679.2181, 0.2175030
679.7003, 1.088073
680.1824, 1.434956
680.6645, 0.6601530
681.1466, 0.5156540
681.6287, 1.567995
682.1108, 2.394808
682.5930, 2.555169
683.0751, 1.766165
683.5572, 0.9954570
684.0393, 1.260085
684.5214, 2.001043
685.0035, 2.418567
685.4857, 1.710169
685.9678, 1.282472
686.4499, 1.753460
686.9320, 2.711793
687.4141, 3.258301
687.8962, 3.296569
688.3784, 3.072823
688.8605, 2.554581
689.3426, 1.812676
689.8247, 1.494392
690.3068, 1.620990
690.7889, 1.642235
691.2711, 1.069471
691.7532, 0.3114050
692.2353, 0.3277620
692.7174, 1.003639
693.1995, 1.617315
693.6816, 1.575395
694.1638, 1.416976
694.6459, 1.644374
695.1280, 2.319582
695.6101, 2.686620
696.0922, 2.231703
696.5743, 1.690747
697.0565, 1.474385
697.5386, 1.681123
698.0207, 1.758909
698.5028, 1.607163
698.9849, 1.539786
699.4670, 2.109088
699.9492, 3.190486
700.4313, 3.295457
700.9135, 2.104509
701.3956, 0.7703890
701.8777, 0.7101950
702.3598, 1.327971
702.8419, 1.567762
703.3240, 0.9016860
703.8062, 0.2962810
704.2883, 0.1703150
704.7704, 0.4402520
705.2525, 0.9863150
705.7346, 2.447283
706.2167, 3.315560
706.6989, 3.199219
707.1810, 2.515766
707.6631, 2.183477
708.1452, 2.249681
708.6273, 2.419967
709.1094, 2.625824
709.5916, 2.870987
710.0737, 3.159932
710.5558, 3.458505
711.0379, 3.603038
711.5200, 3.596301
712.0021, 3.326005
712.4843, 2.265493
712.9664, 0.6857440
713.4485, 1.8471999E-02
713.9306, 1.721349
714.4127, 3.508979
714.8948, 4.217551
715.3770, 3.837063
715.8591, 3.211108
716.3412, 2.129596
716.8233, 1.256696
717.3054, 1.324794
717.7875, 2.268064
718.2697, 2.392873
718.7518, 1.637022
719.2339, 0.9220680
719.7160, 1.286124
720.1981, 2.079059
720.6802, 2.207315
721.1624, 1.383487
721.6445, 0.8926120
722.1266, 2.024914
722.6087, 3.514791
723.0908, 4.255046
723.5729, 3.723418
724.0551, 3.096986
724.5372, 2.261114
725.0193, 1.512917
725.5014, 1.145657
725.9835, 1.170209
726.4656, 1.635009
726.9478, 2.740162
727.4299, 3.775411
727.9120, 3.467969
728.3941, 2.222667
728.8762, 1.373302
729.3583, 1.471434
729.8405, 1.679538
730.3226, 1.136697
730.8047, 0.2621610
731.2868, 0.2355840
731.7689, 8.9069001E-02
732.2510, 0.5556650
732.7332, 1.266510
733.2153, 1.914438
733.6974, 1.908988
734.1795, 0.9690570
734.6616, 0.1197190
735.1437, 0.4032960
735.6259, 0.6772800
736.1080, 0.3504360
736.5901, 0.5096580
737.0722, 1.306257
737.5543, 1.757361
738.0364, 1.916524
738.5186, 1.633003
739.0007, 1.079365
739.4828, 0.8350920
739.9649, 1.420551
740.4470, 2.134531
740.9291, 2.819141
741.4113, 3.418278
741.8934, 3.514790
742.3755, 2.866549
742.8576, 2.144895
743.3397, 1.587625
743.8218, 1.186133
744.3040, 0.9208330
744.7861, 0.7839170
745.2682, 0.6080350
745.7503, 0.1154690
746.2324, 0.7894030
746.7145, 8.9061998E-02
747.1967, 1.910493
747.6788, 3.457249
748.1609, 3.098197
748.6430, 2.329236
749.1251, 2.261400
749.6072, 3.273251
750.0894, 3.405173
750.5715, 1.899221
751.0536, 0.4289210
751.5357, 0.2494070
752.0178, 1.530486
752.4999, 1.835143
752.9821, 1.026974
753.4642, 0.1341130
753.9463, 0.2859930
754.4284, 1.021607
754.9105, 1.391474
755.3926, 1.249752
755.8748, 1.037846
756.3569, 1.076442
756.8390, 1.210854
757.3211, 1.159811
757.8032, 0.7090570
758.2853, 0.6777780
758.7675, 1.352813
759.2496, 2.200266
759.7318, 2.782884
760.2139, 3.092280
760.6960, 3.142724
761.1781, 2.907144
761.6602, 2.507996
762.1423, 1.900907
762.6245, 1.261997
763.1066, 1.061454
763.5887, 1.487809
764.0708, 2.066995
764.5529, 2.872211
765.0350, 3.473054
765.5172, 3.358080
765.9993, 1.102178
766.4814, 5.5305000E-02
766.9635, 0.6183860
767.4456, 2.016901
767.9277, 2.695700
768.4099, 2.555594
768.8920, 2.372817
769.3741, 2.255564
769.8562, 2.172144
770.3383, 2.004963
770.8204, 1.830728
771.3026, 1.928194
771.7847, 2.733404
772.2668, 3.184749
772.7489, 1.909718
773.2310, 2.1593999E-02
773.7131, 0.9154910
774.1953, 0.7558310
774.6774, 1.964248
775.1595, 2.172826
775.6416, 1.875330
776.1237, 1.984191
776.6058, 2.553162
777.0880, 3.195143
777.5701, 3.990103
778.0522, 4.489122
778.5343, 3.442060
779.0164, 1.423133
779.4985, 0.1225500
779.9807, 0.8626850
780.4628, 1.760856
780.9449, 1.522248
781.4270, 0.6281810
781.9091, 7.7666998E-02
782.3912, 0.3213950
782.8734, 0.6247820
783.3555, 0.9423720
783.8376, 1.234760
784.3197, 1.320289
784.8018, 1.160922
785.2839, 1.305135
785.7661, 2.078203
786.2482, 3.016478
786.7303, 3.324876
787.2124, 3.145397
787.6945, 2.891475
788.1766, 2.952443
788.6588, 2.786357
789.1409, 1.439242
789.6230, 0.3553860
790.1051, 0.5120030
790.5872, 3.255289
791.0693, 5.265893
791.5515, 3.620564
792.0336, 0.1080990
792.5157, 1.087596
792.9978, 0.6668220
793.4799, 2.194342
793.9620, 2.308151
794.4442, 1.804014
794.9263, 1.827982
795.4084, 2.179436
795.8905, 2.298958
796.3726, 1.637101
796.8547, 1.003866
797.3369, 0.7126570
797.8190, 0.7259200
798.3011, 0.8654550
798.7832, 1.222552
799.2653, 1.532785
799.7474, 1.799700
800.2296, 1.928943
800.7117, 1.448598
801.1938, 0.4409280
801.6759, 0.1873550
802.1580, 0.1019650
802.6401, 0.7884560
803.1223, 1.522313
803.6044, 2.176554
804.0865, 2.390929
804.5686, 1.587383
805.0507, 0.9735210
805.5328, 1.074873
806.0150, 1.645111
806.4971, 2.048075
806.9792, 2.208791
807.4613, 2.479364
807.9434, 3.087855
808.4255, 3.720590
808.9077, 3.334658
809.3898, 2.229109
809.8719, 1.777445
810.3540, 3.358593
810.8361, 5.006303
811.3182, 5.131178
811.8004, 4.135949
812.2825, 2.983209
812.7646, 1.571643
813.2467, 0.4240980
813.7288, 0.6191890
814.2109, 1.249988
814.6931, 0.3291360
815.1752, 2.402954
815.6573, 4.336805
816.1394, 4.585939
816.6215, 3.902380
817.1037, 3.272836
817.5858, 2.730087
818.0679, 2.346081
818.5500, 2.307723
819.0322, 2.263382
819.5143, 1.822895
819.9964, 1.287915
820.4785, 1.374169
820.9606, 2.841812
821.4427, 3.502864
821.9249, 2.767393
822.4070, 1.324729
822.8891, 0.4400950
823.3712, 0.1130350
823.8533, 0.4540950
824.3354, 1.815381
824.8176, 3.167871
825.2997, 3.210824
825.7818, 2.437189
826.2639, 1.691368
826.7460, 1.039055
827.2281, 0.7026970
827.7103, 1.072731
828.1924, 1.623971
828.6745, 1.572896
829.1566, 0.6618530
829.6387, 0.2397790
830.1208, 0.6246510
830.6030, 1.280809
831.0851, 1.289786
831.5672, 0.8429920
832.0493, 0.7158480
832.5314, 1.050565
833.0135, 1.636185
833.4957, 2.839477
833.9778, 3.984264
834.4599, 4.287929
834.9420, 2.346108
835.4241, 1.526821
835.9063, 2.301875
836.3884, 3.367098
836.8705, 3.311638
837.3526, 2.277241
837.8347, 1.427913
838.3168, 0.8911970
838.7990, 0.5863180
839.2811, 0.4169970
839.7632, 0.4184320
840.2453, 0.7201230
840.7274, 1.527784
841.2095, 2.037869
841.6917, 1.569020
842.1738, 1.020718
842.6559, 1.149752
843.1380, 2.276952
843.6201, 2.951071
844.1022, 3.148497
844.5844, 2.973886
845.0665, 2.192487
845.5486, 1.145822
846.0307, 0.8264870
846.5128, 1.328606
846.9949, 2.143925
847.4771, 3.548817
847.9592, 4.664601
848.4413, 4.669993
848.9234, 3.142654
849.4055, 2.126795
849.8876, 1.908987
850.3698, 1.782892
850.8519, 1.397062
851.3340, 0.7513500
851.8161, 0.8753830
852.2982, 1.762786
852.7803, 2.554871
853.2625, 2.356720
853.7446, 1.912430
854.2267, 2.137728
854.7088, 2.997036
855.1909, 3.597790
855.6730, 3.539742
856.1552, 3.251553
856.6373, 2.746510
857.1194, 2.049120
857.6015, 2.286845
858.0836, 3.615220
858.5657, 4.731109
859.0479, 5.078125
859.5300, 4.778685
860.0121, 3.597249
860.4942, 1.895054
860.9763, 0.9854070
861.4584, 2.702199
861.9406, 4.174760
862.4227, 3.723960
862.9048, 1.909400
863.3869, 0.8207230
863.8690, 0.5828240
864.3511, 0.7954750
864.8333, 1.529843
865.3154, 2.457276
865.7975, 2.956155
866.2796, 3.059618
866.7617, 2.910608
867.2438, 2.461886
867.7260, 1.941548
868.2081, 1.365415
868.6902, 0.8750730
869.1723, 0.6741850
869.6544, 0.9415690
870.1365, 1.351617
870.6187, 2.025314
871.1008, 2.678266
871.5829, 2.847347
872.0650, 2.542713
872.5471, 2.229855
873.0292, 1.904305
873.5114, 1.607831
873.9935, 1.336423
874.4756, 1.155240
874.9577, 1.201392
875.4399, 1.638764
875.9220, 1.853787
876.4041, 1.348976
876.8862, 0.8623460
877.3683, 0.9784660
877.8505, 1.876731
878.3326, 2.009190
878.8147, 1.264820
879.2968, 0.5666420
879.7789, 0.8243360
880.2610, 1.615186
880.7432, 2.454150
881.2253, 3.273599
881.7074, 3.520061
882.1895, 2.239424
882.6716, 0.9425640
883.1537, 0.5272680
883.6359, 0.9467190
884.1180, 1.249913
884.6001, 1.441846
885.0822, 1.487357
885.5643, 1.171405
886.0464, 0.8106010
886.5286, 1.440651
887.0107, 2.789847
887.4928, 3.743096
887.9749, 3.391889
888.4570, 2.796386
888.9391, 2.268570
889.4213, 1.922592
889.9034, 2.117547
890.3855, 3.294745
890.8676, 3.993235
891.3497, 3.975627
891.8318, 3.250339
892.3140, 1.082803
892.7961, 1.925422
893.2782, 3.267032
893.7603, 1.666980
894.2424, 0.5775870
894.7245, 2.246025
895.2067, 3.352789
895.6888, 3.922442
896.1709, 3.911489
896.6530, 3.302653
897.1351, 1.689493
897.6172, 0.1239080
898.0994, 0.1156260
898.5815, 0.9622820
899.0636, 1.893688
899.5457, 2.533477
900.0278, 2.914957
900.5099, 2.619652
900.9921, 2.249247
901.4742, 2.433161
901.9563, 3.329448
902.4384, 4.077022
902.9205, 4.798036
903.4026, 5.020144
903.8848, 4.307058
904.3669, 2.828920
904.8490, 1.986397
905.3311, 1.770301
905.8132, 1.792225
906.2953, 1.879958
906.7775, 2.042246
907.2596, 2.291984
907.7417, 2.623431
908.2238, 3.023297
908.7059, 3.801748
909.1880, 4.236023
909.6702, 4.117650
910.1523, 3.609848
910.6344, 2.937719
911.1165, 2.114174
911.5986, 1.893962
912.0807, 2.785031
912.5629, 3.598341
913.0450, 2.469057
913.5271, 0.5430310
914.0092, 0.4513370
914.4913, 0.5545470
914.9734, 1.487391
915.4556, 2.081432
915.9377, 2.435882
916.4198, 2.614523
916.9019, 2.613141
917.3840, 2.378939
917.8661, 1.849411
918.3483, 1.657197
918.8304, 2.999153
919.3125, 4.657609
919.7946, 4.908267
920.2767, 3.563272
920.7589, 2.547747
921.2410, 2.732103
921.7231, 3.079315
922.2052, 3.266546
922.6873, 3.277528
923.1694, 2.846152
923.6516, 1.958798
924.1337, 1.235561
924.6158, 1.096263
925.0979, 1.197082
925.5800, 0.9060420
926.0621, 0.4948900
926.5443, 0.6410700
927.0264, 2.243055
927.5085, 3.601392
927.9906, 4.435808
928.4727, 4.825259
928.9548, 4.819539
929.4370, 4.407494
929.9191, 3.889425
930.4012, 3.250131
930.8833, 2.826239
931.3654, 3.366986
931.8475, 4.201211
932.3297, 4.306840
932.8118, 3.188948
933.2939, 2.445642
933.7761, 2.736050
934.2582, 3.222960
934.7403, 3.420669
935.2224, 3.321342
935.7045, 3.373127
936.1866, 3.582415
936.6688, 3.773911
937.1509, 3.654882
937.6330, 3.568135
938.1151, 4.307226
938.5972, 5.578204
939.0793, 5.839181
939.5615, 2.997477
940.0436, 1.122435
940.5257, 1.596027
941.0078, 3.480275
941.4899, 4.249811
941.9720, 3.945288
942.4542, 3.679051
942.9363, 3.877645
943.4184, 3.955462
943.9005, 2.782183
944.3826, 1.280010
944.8647, 0.7631610
945.3469, 2.304099
945.8290, 3.427160
946.3111, 3.935172
946.7932, 3.979657
947.2753, 3.448510
947.7574, 2.395550
948.2396, 2.072222
948.7217, 2.519608
949.2038, 3.450963
949.6859, 5.700531
950.1680, 7.542293
950.6501, 6.781676
951.1323, 3.546370
951.6144, 1.423652
952.0965, 1.181688
952.5786, 1.394217
953.0607, 1.778893
953.5428, 2.272529
954.0250, 3.068838
954.5071, 3.949870
954.9892, 3.418088
955.4713, 0.4291240
955.9534, 3.614755
956.4355, 2.091118
956.9177, 1.613286
957.3998, 3.839034
957.8819, 3.116958
958.3640, 2.875906
958.8461, 3.364954
959.3282, 3.975433
959.8104, 4.037314
960.2925, 3.681397
960.7746, 3.319472
961.2567, 2.984705
961.7388, 2.659643
962.2209, 2.273518
962.7031, 1.937647
963.1852, 1.710042
963.6673, 1.616665
964.1494, 1.823275
964.6315, 2.331697
965.1136, 2.962168
965.5958, 3.730120
966.0779, 4.448272
966.5600, 4.696062
967.0421, 4.578520
967.5242, 4.371653
968.0063, 4.136320
968.4885, 3.896002
968.9706, 3.680206
969.4527, 3.449995
969.9348, 3.111422
970.4169, 2.583461
970.8990, 2.381741
971.3812, 2.561882
971.8633, 2.872438
972.3454, 3.467780
972.8275, 3.973679
973.3096, 3.636944
973.7917, 2.418766
974.2739, 1.801400
974.7560, 3.226237
975.2381, 4.325929
975.7202, 3.933825
976.2023, 2.489372
976.6844, 2.411937
977.1666, 3.662848
977.6487, 4.552968
978.1308, 4.136510
978.6129, 3.461107
979.0950, 3.871975
979.5771, 4.712272
980.0593, 4.906721
980.5414, 3.149841
981.0235, 2.295640
981.5056, 2.797273
981.9877, 3.715847
982.4698, 4.251190
982.9520, 4.395236
983.4341, 3.945307
983.9162, 2.897220
984.3983, 1.913946
984.8804, 1.239772
985.3625, 0.9985560
985.8447, 1.482327
986.3268, 2.681245
986.8089, 3.557064
987.2910, 3.979018
987.7731, 4.215766
988.2552, 4.453178
988.7374, 4.502572
989.2195, 3.718548
989.7016, 2.442359
990.1837, 1.552071
990.6658, 1.329138
991.1479, 1.561906
991.6301, 2.711076
992.1122, 3.906991
992.5944, 4.284467
993.0765, 3.686205
993.5586, 2.940747
994.0407, 1.975192
994.5228, 1.513750
995.0049, 2.909886
995.4871, 4.706310
995.9692, 4.739858
996.4513, 3.189475
996.9334, 1.923630
997.4155, 1.688505
997.8976, 1.620000
998.3798, 1.458597
998.8619, 1.849400
999.3440, 1.884280
999.8261, 2.925678
1000.308, 3.896666
1000.790, 4.768458
1001.272, 5.101971
1001.755, 3.951856
1002.237, 2.393646
1002.719, 1.633921
1003.201, 2.120570
1003.683, 2.450680
1004.165, 2.587385
1004.647, 2.675959
1005.129, 2.808934
1005.612, 2.983050
1006.094, 3.237531
1006.576, 3.540932
1007.058, 3.756635
1007.540, 3.936009
1008.022, 3.875461
1008.504, 3.176772
1008.986, 2.302749
1009.468, 2.178331
1009.951, 2.963825
1010.433, 3.067483
1010.915, 2.103776
1011.397, 1.091510
1011.879, 1.436662
1012.361, 2.273650
1012.843, 2.494614
1013.325, 1.828416
1013.807, 0.9899550
1014.290, 0.1782210
1014.772, 6.9307998E-02
1015.254, 0.4798830
1015.736, 1.592149
1016.218, 2.424210
1016.700, 2.969814
1017.182, 3.184773
1017.664, 2.911144
1018.147, 2.486323
1018.629, 2.130257
1019.111, 1.755078
1019.593, 1.190645
1020.075, 0.2781540
1020.557, 0.4422970
1021.039, 0.9699050
1021.521, 0.8748870
1022.003, 0.9477030
1022.486, 3.378164
1022.968, 4.243912
1023.450, 3.549615
1023.932, 2.826728
1024.414, 2.682674
1024.896, 2.580028
1025.378, 2.175769
1025.860, 1.761695
1026.343, 2.532684
1026.825, 4.338841
1027.307, 5.145294
1027.789, 4.148192
1028.271, 2.806961
1028.753, 2.332796
1029.235, 2.279295
1029.717, 2.126943
1030.199, 1.664428
1030.682, 1.707097
1031.164, 2.468340
1031.646, 3.141981
1032.128, 3.270527
1032.610, 2.932930
1033.092, 1.845755
1033.574, 0.3806880
1034.056, 5.8414999E-02
1034.539, 2.539920
1035.021, 4.578340
1035.503, 4.603391
1035.985, 3.706873
1036.467, 3.226855
1036.949, 3.183203
1037.431, 2.910699
1037.913, 2.316463
1038.396, 1.702271
1038.878, 0.9938610
1039.360, 0.6350510
1039.842, 1.236191
1040.324, 2.836799
1040.806, 4.167768
1041.288, 5.459584
1041.770, 5.756538
1042.252, 4.496512
1042.734, 2.432878
1043.217, 0.7552480
1043.699, 0.4476950
1044.181, 0.9276770
1044.663, 0.4361320
1045.145, 0.3600360
1045.627, 1.681510
1046.109, 2.806555
1046.591, 3.168856
1047.074, 2.745848
1047.556, 2.030772
1048.038, 0.9926700
1048.520, 0.2080250
1049.002, 0.4112970
1049.484, 1.000571
1049.966, 1.735178
1050.448, 2.428446
1050.931, 2.521006
1051.413, 1.444692
1051.895, 1.011910
1052.377, 1.579100
1052.859, 2.446332
1053.341, 2.834920
1053.823, 2.862733
1054.305, 2.734551
1054.787, 2.474107
1055.270, 2.286117
1055.752, 2.476285
1056.234, 2.497649
1056.716, 1.924157
1057.198, 1.057027
1057.680, 1.256466
1058.162, 2.444614
1058.644, 3.450324
1059.126, 3.988494
1059.609, 3.987402
1060.091, 2.924017
1060.573, 1.538792
1061.055, 0.6092340
1061.537, 9.6900001E-02
1062.019, 0.6864130
1062.501, 2.778381
1062.983, 4.499459
1063.466, 4.216658
1063.948, 2.939929
1064.430, 2.550589
1064.912, 2.780401
1065.394, 2.824900
1065.876, 1.795817
1066.358, 1.429821
1066.840, 2.437482
1067.323, 3.692399
1067.805, 3.599117
1068.287, 2.393333
1068.769, 1.695468
1069.251, 1.636928
1069.733, 2.054182
1070.215, 3.795557
1070.697, 5.101058
1071.179, 4.162722
1071.661, 1.678159
1072.144, 0.7342740
1072.626, 1.562602
1073.108, 2.437370
1073.590, 2.973990
1074.072, 3.196889
1074.554, 2.781483
1075.036, 2.234343
1075.518, 2.378908
1076.001, 3.671842
1076.483, 4.122470
1076.965, 3.410515
1077.447, 2.219108
1077.929, 0.5389570
1078.411, 1.174973
1078.893, 1.441179
1079.375, 0.4889780
1079.858, 0.9044000
1080.340, 3.318920
1080.822, 4.682461
1081.304, 3.241704
1081.786, 1.186371
1082.268, 0.5261700
1082.750, 1.295593
1083.232, 1.839452
1083.714, 2.121635
1084.197, 2.158683
1084.679, 1.686315
1085.161, 1.255843
1085.643, 1.370978
1086.125, 1.785098
1086.607, 1.847285
1087.089, 1.276376
1087.571, 1.466877
1088.054, 2.862303
1088.536, 4.146887
1089.018, 3.168178
1089.500, 1.386483
1089.982, 1.114215
1090.464, 2.623765
1090.946, 3.755090
1091.428, 4.270085
1091.911, 3.979167
1092.393, 2.505753
1092.875, 0.5478190
1093.357, 0.2302510
1093.839, 5.0804999E-02
1094.321, 0.4670850
1094.803, 1.357802
1095.285, 1.902169
1095.767, 1.172162
1096.250, 0.4989790
1096.732, 0.8630550
1097.214, 2.192321
1097.696, 3.151534
1098.178, 3.743573
1098.660, 3.978270
1099.142, 3.706952
1099.624, 3.275174
1100.106, 2.836544
1100.589, 2.444854
1101.071, 2.127002
1101.553, 1.646081
1102.035, 2.081154
1102.517, 3.747624
1102.999, 5.068231
1103.481, 4.403165
1103.963, 2.749469
1104.446, 0.8919030
1104.928, 0.8516910
1105.410, 1.378410
1105.892, 0.4559610
1106.374, 2.020470
1106.856, 2.982614
1107.338, 3.558864
1107.820, 4.228778
1108.302, 4.715937
1108.785, 4.056201
1109.267, 2.151932
1109.749, 0.8462100
1110.231, 1.409453
1110.713, 2.233416
1111.195, 2.800511
1111.677, 3.083096
1112.159, 2.775422
1112.641, 1.982723
1113.124, 1.322742
1113.606, 0.9043790
1114.088, 0.8206880
1114.570, 1.450998
1115.052, 2.184278
1115.534, 2.481986
1116.016, 2.366550
1116.498, 2.430854
1116.981, 2.674579
1117.463, 3.189917
1117.945, 4.385969
1118.427, 5.280981
1118.909, 4.437349
1119.391, 2.858887
1119.873, 2.044430
1120.355, 2.495051
1120.838, 2.651146
1121.320, 2.503713
1121.802, 2.099756
1122.284, 1.190395
1122.766, 0.2270460
1123.248, 0.2302470
1123.730, 0.1812540
1124.212, 0.3528640
1124.694, 2.217253
1125.177, 3.220351
1125.659, 2.911485
1126.141, 2.307860
1126.623, 2.709201
1127.105, 3.608608
1127.587, 3.468557
1128.069, 2.373659
1128.551, 1.565173
1129.033, 1.734681
1129.516, 2.123207
1129.998, 2.640639
1130.480, 3.108491
1130.962, 3.190434
1131.444, 2.946536
1131.926, 2.710438
1132.408, 2.534197
1132.890, 2.231910
1133.373, 1.301270
1133.855, 0.6109330
1134.337, 0.7855420
1134.819, 1.548680
1135.301, 2.030431
1135.783, 2.227836
1136.265, 1.984341
1136.747, 1.233216
1137.229, 0.6611230
1137.712, 1.019523
1138.194, 1.544093
1138.676, 1.482074
1139.158, 0.8235410
1139.640, 0.4940330
1140.122, 0.5032180
1140.604, 0.7880270
1141.086, 1.598827
1141.569, 2.168208
1142.051, 1.030985
1142.533, 0.5896640
1143.015, 0.9222770
1143.497, 0.8497820
1143.979, 1.954296
1144.461, 2.293690
1144.943, 2.315181
1145.426, 2.218980
1145.908, 2.022995
1146.390, 1.695244
1146.872, 1.302337
1147.354, 0.9790060
1147.836, 0.5156540
1148.318, 0.6306440
1148.800, 1.609236
1149.282, 2.528211
1149.765, 2.277498
1150.247, 1.518870
1150.729, 2.188379
1151.211, 3.802395
1151.693, 4.369677
1152.175, 1.524894
1152.657, 0.1437980
1153.139, 0.5281260
1153.621, 1.917378
1154.104, 2.051250
1154.586, 1.307339
1155.068, 0.9944200
1155.550, 1.148691
1156.032, 1.179880
1156.514, 0.2472820
1156.996, 0.1098170
1157.478, 0.9381910
1157.961, 2.440722
1158.443, 2.574762
1158.925, 1.584410
1159.407, 0.7771780
1159.889, 0.3346930
1160.371, 0.1709530
1160.853, 0.4909700
1161.335, 0.8131050
1161.818, 0.9223290
1162.300, 0.8549180
1162.782, 0.5681740
1163.264, 0.1174670
1163.746, 1.7139999E-02
1164.228, 0.2817750
1164.710, 0.6996280
1165.192, 1.341304
1165.674, 1.883322
1166.156, 2.147785
1166.639, 2.119617
1167.121, 1.310210
1167.603, 0.2654390
1168.085, 0.8141900
1168.567, 0.5733500
1169.049, 2.124620
1169.531, 2.307222
1170.013, 1.903394
1170.496, 1.711972
1170.978, 1.779208
1171.460, 1.302907
1171.942, 0.2114470
1172.424, 0.1094820
1172.906, 1.466615
1173.388, 3.173705
1173.870, 3.070235
1174.353, 2.103117
1174.835, 1.470051
1175.317, 1.252991
1175.799, 1.448637
1176.281, 2.146367
1176.763, 2.536359
1177.245, 1.822862
1177.727, 0.9390230
1178.209, 0.9417120
1178.692, 1.515631
1179.174, 2.206428
1179.656, 3.365088
1180.138, 3.276339
1180.620, 1.645950
1181.102, 0.2600600
1181.584, 0.8165210
1182.066, 2.088552
1182.548, 2.598543
1183.031, 2.554539
1183.513, 2.480263
1183.995, 2.608956
1184.477, 2.288307
1184.959, 1.348836
1185.441, 0.5045430
1185.923, 0.2973110
1186.405, 0.6247880
1186.888, 1.789682
1187.370, 3.409549
1187.852, 4.093424
1188.334, 2.916778
1188.816, 2.266955
1189.298, 2.434204
1189.780, 2.896004
1190.262, 3.319709
1190.745, 3.574389
1191.227, 3.417867
1191.709, 2.947494
1192.191, 2.374372
1192.673, 1.293786
1193.155, 0.7152840
1193.637, 0.8273010
1194.119, 1.286047
1194.601, 1.863119
1195.084, 2.419391
1195.566, 2.725872
1196.048, 2.776510
1196.530, 2.695242
1197.012, 2.442907
1197.494, 2.194878
1197.976, 1.975501
1198.458, 1.858202
1198.941, 1.897127
1199.423, 1.867384
1199.905, 1.329931
1200.387, 0.2399830
1200.869, 3.0301001E-02
1201.351, 1.550909
1201.833, 2.495908
1202.315, 2.060924
1202.797, 1.029796
1203.280, 0.4366870
1203.762, 0.2364130
1204.244, 0.4244240
1204.726, 1.016462
1205.208, 1.604890
1205.690, 2.304278
1206.172, 2.584892
1206.654, 2.131701
1207.136, 1.467094
1207.619, 1.490437
1208.101, 1.963158
1208.583, 2.600574
1209.065, 3.443800
1209.547, 3.613285
1210.029, 2.600628
1210.511, 1.827718
1210.993, 1.895732
1211.476, 2.337317
1211.958, 2.307976
1212.440, 2.025310
1212.922, 1.918182
1213.404, 2.146526
1213.886, 2.085598
1214.368, 1.468652
1214.850, 1.053931
1215.333, 1.194551
1215.815, 1.670024
1216.297, 2.492638
1216.779, 3.226648
1217.261, 2.889152
1217.743, 0.7429400
1218.225, 0.2190600
1218.707, 0.6789980
1219.189, 1.526169
1219.672, 1.324793
1220.154, 0.6931440
1220.636, 0.6124780
1221.118, 0.9850450
1221.600, 1.728899
1222.082, 3.118287
1222.564, 3.863357
1223.046, 3.821579
1223.528, 3.384704
1224.011, 2.497120
1224.493, 1.644277
1224.975, 1.757344
1225.457, 2.465358
1225.939, 3.143723
1226.421, 3.800854
1226.903, 4.198109
1227.385, 4.330205
1227.868, 4.204876
1228.350, 3.668589
1228.832, 3.055293
1229.314, 2.960050
1229.796, 3.121337
1230.278, 3.078163
1230.760, 2.631895
1231.242, 2.335783
1231.724, 2.231909
1232.207, 2.057604
1232.689, 1.410340
1233.171, 0.8714620
1233.653, 1.519758
1234.135, 2.681957
1234.617, 3.202263
1235.099, 2.806479
1235.581, 2.058389
1236.063, 0.8027590
1236.546, 0.3362160
1237.028, 2.543983
1237.510, 4.862785
1237.992, 3.799799
1238.474, 1.184643
1238.956, 0.1177030
1239.438, 1.297881
1239.920, 1.549896
1240.403, 0.7929090
1240.885, 0.1801940
1241.367, 0.4757460
1241.849, 1.202526
1242.331, 2.459980
1242.813, 3.629245
1243.295, 3.622395
1243.777, 2.010042
1244.260, 1.890968
1244.742, 3.264661
1245.224, 4.363219
1245.706, 3.966565
1246.188, 3.077530
1246.670, 2.033415
1247.152, 1.109902
1247.634, 0.7531190
1248.116, 1.038507
1248.599, 0.4565450
1249.081, 0.8986730
1249.563, 1.553671
1250.045, 0.1147550
1250.527, 1.865795
1251.009, 2.608406
1251.491, 2.744051
1251.973, 2.497694
1252.455, 1.908493
1252.938, 2.131004
1253.420, 3.041673
1253.902, 3.595906
1254.384, 3.197662
1254.866, 2.342213
1255.348, 0.5523430
1255.830, 0.9523100
1256.313, 0.8861730
1256.795, 0.4990920
1257.277, 1.828488
1257.759, 3.039603
1258.241, 3.896046
1258.723, 3.999099
1259.205, 4.185159
1259.687, 4.882050
1260.169, 5.317739
1260.651, 4.578482
1261.134, 3.086471
1261.616, 1.862507
1262.098, 1.016750
1262.580, 0.8332240
1263.062, 2.304992
1263.544, 3.064458
1264.026, 2.780918
1264.508, 2.095265
1264.991, 1.255114
1265.473, 0.5399990
1265.955, 0.4690660
1266.437, 0.9719230
1266.919, 1.869095
1267.401, 3.667826
1267.883, 4.884877
1268.365, 5.533509
1268.848, 5.487434
1269.330, 3.816997
1269.812, 2.048100
1270.294, 2.689458
1270.776, 4.628737
1271.258, 5.303311
1271.740, 3.997342
1272.222, 3.094753
1272.704, 2.637778
1273.187, 2.525565
1273.669, 2.946075
1274.151, 3.425213
1274.633, 3.573564
1275.115, 3.483474
1275.597, 3.337536
1276.079, 3.038907
1276.561, 2.288757
1277.043, 1.424120
1277.526, 0.9226550
1278.008, 1.548203
1278.490, 2.278309
1278.972, 2.309308
1279.454, 2.134986
1279.936, 2.808582
1280.418, 4.409263
1280.900, 4.697492
1281.383, 3.882641
1281.865, 3.332047
1282.347, 4.405938
1282.829, 4.844889
1283.311, 3.160740
1283.793, 1.469157
1284.275, 1.742169
1284.757, 3.289709
1285.240, 2.847126
1285.722, 1.105173
1286.204, 0.3660340
1286.686, 2.559703
1287.168, 3.858632
1287.650, 3.552376
1288.132, 3.009878
1288.614, 3.301959
1289.096, 3.893528
1289.578, 3.710832
1290.061, 2.983474
1290.543, 2.080375
1291.025, 0.5575820
1291.507, 0.4271890
1291.989, 1.978909
1292.471, 3.566638
1292.953, 4.555060
1293.435, 4.699255
1293.918, 2.769715
1294.400, 0.2573890
1294.882, 0.4970330
1295.364, 0.7959950
1295.846, 1.849860
1296.328, 2.663306
1296.810, 3.386372
1297.292, 4.172797
1297.775, 4.716697
1298.257, 4.443845
1298.739, 3.906340
1299.221, 3.154005
1299.703, 3.427344
1300.185, 3.234519
1300.667, 2.592448
1301.149, 1.760556
1301.631, 0.5998250
1302.114, 6.0129999E-03
1302.596, 0.0000000E+00
##END=



