##NAMES=Rammelsbergite
##RRUFFID=R061021
##IDEAL CHEMISTRY=NiAs_2_
##LOCALITY=Schneckenstei, Vogtland, Saxony, Germany
##OWNER=RRUFF
##SOURCE=Michael Scott
##DESCRIPTION=Tin-white metallic massive
##STATUS=The identification of this mineral has been confirmed by X-ray diffraction and chemical analysis
##URL=rruff.info/R061021
##MEASURED CHEMISTRY=(Ni_0.96_Co_0.03_Fe_0.01_)_Î£=1_As_2.00_ ; trace amounts of S
109.9513, 0.0000000E+00
110.4335, 5.943634
110.9156, 2.343719
111.3977, 1.379730
111.8798, 5.246765
112.3619, 4.346161
112.8440, 0.2963560
113.3262, 2.182404
113.8083, 1.631378
114.2904, 2.293762
114.7725, 6.629639
115.2546, 9.848877
115.7367, 13.23752
116.2189, 18.56854
116.7010, 32.15756
117.1831, 43.82132
117.6652, 46.74890
118.1473, 35.54239
118.6294, 25.49234
119.1116, 24.89554
119.5937, 31.45715
120.0758, 38.54041
120.5579, 38.42383
121.0400, 38.89160
121.5221, 48.46030
122.0043, 79.22961
122.4864, 110.8691
122.9685, 126.9745
123.4506, 128.0769
123.9327, 122.2529
124.4148, 110.2510
124.8969, 95.70395
125.3791, 85.59723
125.8612, 82.37009
126.3433, 85.53702
126.8254, 95.74567
127.3075, 113.7504
127.7896, 134.8485
128.2718, 155.8703
128.7539, 176.3531
129.2360, 193.2375
129.7181, 202.7519
130.2002, 207.0508
130.6823, 214.4033
131.1645, 228.0155
131.6466, 241.8713
132.1287, 242.3908
132.6108, 229.0690
133.0929, 213.3029
133.5750, 202.6904
134.0572, 197.1769
134.5393, 196.1552
135.0214, 200.2829
135.5035, 208.7520
135.9856, 216.2662
136.4677, 221.0455
136.9499, 229.7225
137.4320, 253.8049
137.9141, 297.0392
138.3962, 334.6992
138.8783, 361.0960
139.3604, 376.3828
139.8426, 374.6371
140.3247, 351.0049
140.8068, 314.7628
141.2889, 281.2159
141.7710, 248.8023
142.2531, 222.9095
142.7353, 207.1514
143.2174, 206.8877
143.6995, 203.0836
144.1816, 192.9717
144.6637, 178.4744
145.1458, 169.6075
145.6280, 170.9765
146.1101, 173.0405
146.5922, 169.5244
147.0743, 156.6417
147.5564, 143.7158
148.0385, 130.1792
148.5207, 115.7591
149.0028, 108.0175
149.4849, 112.6777
149.9670, 121.3590
150.4491, 125.9447
150.9312, 121.1422
151.4134, 117.5582
151.8955, 117.4768
152.3776, 121.9842
152.8597, 126.3216
153.3418, 131.7341
153.8239, 136.5994
154.3061, 138.4674
154.7882, 137.8657
155.2703, 133.6068
155.7524, 124.9221
156.2345, 109.7411
156.7166, 93.64468
157.1988, 73.35846
157.6809, 52.21918
158.1630, 39.56985
158.6451, 45.24426
159.1272, 55.70566
159.6093, 63.09796
160.0915, 60.58221
160.5736, 59.92538
161.0557, 66.25323
161.5378, 78.61572
162.0199, 89.87036
162.5020, 101.1803
162.9841, 108.4180
163.4663, 107.9361
163.9484, 90.72141
164.4305, 71.75989
164.9126, 58.46307
165.3947, 51.24704
165.8768, 45.83054
166.3590, 37.76825
166.8411, 30.49774
167.3232, 28.77307
167.8053, 41.71323
168.2874, 56.28845
168.7695, 61.21173
169.2517, 53.62390
169.7338, 44.89316
170.2159, 44.13339
170.6980, 48.47949
171.1801, 51.15903
171.6622, 47.32037
172.1444, 40.64972
172.6265, 35.25653
173.1086, 32.39633
173.5907, 29.79398
174.0728, 23.90851
174.5549, 15.73657
175.0371, 9.889984
175.5192, 11.23086
176.0013, 16.53452
176.4834, 20.54639
176.9655, 20.72052
177.4476, 20.24911
177.9298, 24.92853
178.4119, 34.38818
178.8940, 41.36813
179.3761, 37.06033
179.8582, 25.61493
180.3403, 17.19659
180.8225, 16.26083
181.3046, 20.12485
181.7867, 24.21527
182.2688, 28.47430
182.7509, 33.19589
183.2330, 40.88391
183.7152, 50.05844
184.1973, 54.89560
184.6794, 48.86902
185.1615, 36.30609
185.6436, 30.93161
186.1257, 34.11734
186.6079, 39.98773
187.0900, 39.53165
187.5721, 33.44733
188.0542, 29.20590
188.5363, 33.72034
189.0184, 44.41061
189.5006, 47.28662
189.9827, 39.04202
190.4648, 27.01666
190.9469, 24.51450
191.4290, 31.78427
191.9111, 41.32709
192.3932, 49.73282
192.8754, 56.85217
193.3575, 60.97134
193.8396, 61.09537
194.3217, 58.81805
194.8038, 58.05496
195.2859, 58.86923
195.7681, 60.81631
196.2502, 64.50900
196.7323, 70.00336
197.2144, 72.98483
197.6965, 71.07343
198.1786, 66.34467
198.6608, 68.06339
199.1429, 77.38397
199.6250, 89.47443
200.1071, 99.70682
200.5892, 107.7525
201.0714, 116.9216
201.5535, 127.6348
202.0356, 140.0041
202.5177, 157.8775
202.9998, 185.0975
203.4819, 209.4117
203.9641, 211.7273
204.4462, 187.0922
204.9283, 165.0493
205.4104, 155.5144
205.8925, 158.9802
206.3746, 163.7731
206.8568, 172.0041
207.3389, 178.3926
207.8210, 173.4876
208.3031, 154.2113
208.7852, 134.4992
209.2673, 119.4180
209.7495, 109.3347
210.2316, 101.8855
210.7137, 98.64218
211.1958, 96.92664
211.6779, 90.43439
212.1600, 76.56903
212.6422, 64.44861
213.1243, 59.31082
213.6064, 64.05283
214.0885, 64.53561
214.5706, 57.96994
215.0527, 47.87476
215.5349, 45.12595
216.0170, 52.55423
216.4991, 62.05655
216.9812, 69.65485
217.4633, 75.28934
217.9454, 76.79443
218.4276, 71.33228
218.9097, 62.18582
219.3918, 62.65515
219.8739, 78.40079
220.3560, 95.09915
220.8381, 102.2778
221.3203, 93.59088
221.8024, 90.85956
222.2845, 98.62360
222.7666, 115.3080
223.2487, 128.8137
223.7308, 136.0341
224.2129, 143.0604
224.6951, 155.7682
225.1772, 180.2031
225.6593, 198.7908
226.1414, 208.6038
226.6235, 209.5513
227.1056, 206.8130
227.5878, 196.9049
228.0699, 187.4184
228.5520, 185.8274
229.0341, 198.2866
229.5162, 206.3066
229.9983, 204.5452
230.4805, 192.2908
230.9626, 186.1361
231.4447, 188.6297
231.9268, 195.0228
232.4089, 200.3124
232.8910, 204.2361
233.3732, 207.6802
233.8553, 210.6567
234.3374, 213.0605
234.8195, 216.3959
235.3016, 221.4685
235.7837, 226.3491
236.2659, 229.4297
236.7480, 230.6054
237.2301, 230.7744
237.7122, 230.2148
238.1943, 229.0247
238.6764, 226.9419
239.1586, 225.8740
239.6407, 222.6183
240.1228, 211.6807
240.6049, 187.4174
241.0870, 164.7158
241.5691, 147.8754
242.0513, 137.6321
242.5334, 130.2939
243.0155, 126.4287
243.4976, 125.1437
243.9797, 125.6125
244.4618, 130.4940
244.9440, 132.7790
245.4261, 128.9032
245.9082, 115.0077
246.3903, 107.1344
246.8724, 106.9193
247.3545, 111.7555
247.8367, 117.4201
248.3188, 126.8420
248.8009, 132.5155
249.2830, 130.9588
249.7651, 119.6195
250.2472, 108.2474
250.7294, 96.64798
251.2115, 85.12720
251.6936, 74.29843
252.1757, 63.90369
252.6578, 54.61890
253.1399, 46.43686
253.6220, 38.80060
254.1042, 33.51270
254.5863, 31.73712
255.0684, 31.94345
255.5505, 30.04712
256.0326, 24.59320
256.5147, 19.43503
256.9969, 16.42352
257.4790, 16.60327
257.9611, 15.97000
258.4432, 13.50073
258.9253, 10.39365
259.4074, 10.94153
259.8896, 18.02899
260.3717, 23.56345
260.8538, 22.93256
261.3359, 13.53986
261.8180, 5.489777
262.3001, 1.160248
262.7823, 6.117889
263.2644, 8.599335
263.7465, 8.225769
264.2286, 6.062256
264.7107, 1.725830
265.1928, 6.472229
265.6750, 9.915222
266.1571, 5.651794
266.6392, 2.752167
267.1213, 3.481781
267.6034, 6.514435
268.0855, 17.26764
268.5677, 23.19788
269.0498, 23.68411
269.5319, 21.89954
270.0140, 17.05014
270.4961, 10.49545
270.9782, 6.969543
271.4604, 7.684357
271.9425, 7.977081
272.4246, 4.393036
272.9067, 4.167603
273.3888, 11.03241
273.8709, 16.05359
274.3531, 18.75490
274.8352, 16.58081
275.3173, 7.951538
275.7994, 0.4185490
276.2815, 3.739563
276.7636, 1.412140
277.2458, 1.022186
277.7279, 3.407684
278.2100, 5.141159
278.6921, 3.818695
279.1742, 1.455109
279.6563, 5.386932
280.1385, 2.669403
280.6206, 6.900955
281.1027, 11.28760
281.5848, 7.496338
282.0669, 0.6751860
282.5490, 3.161545
283.0312, 0.6838230
283.5133, 4.665085
283.9954, 4.475739
284.4775, 0.3323670
284.9596, 3.006805
285.4417, 4.957352
285.9239, 5.892380
286.4060, 6.451080
286.8881, 6.620026
287.3702, 6.746582
287.8523, 6.845016
288.3344, 6.995514
288.8166, 7.942337
289.2987, 10.01277
289.7808, 12.51096
290.2629, 14.93935
290.7450, 17.22519
291.2271, 17.22305
291.7093, 10.55351
292.1914, 0.3828740
292.6735, 4.764618
293.1556, 0.1822050
293.6377, 9.303589
294.1198, 15.69308
294.6020, 19.49492
295.0841, 21.02728
295.5662, 19.59517
296.0483, 16.03407
296.5304, 12.47041
297.0125, 8.978577
297.4947, 6.054535
297.9768, 4.101379
298.4589, 3.207809
298.9410, 3.929947
299.4231, 9.208481
299.9052, 15.94362
300.3873, 17.39183
300.8694, 11.60852
301.3516, 3.992981
301.8337, 7.2571002E-02
302.3158, 0.7926940
302.7979, 0.8016660
303.2800, 1.484344
303.7621, 1.982880
304.2443, 1.048187
304.7264, 1.597076
305.2085, 5.151123
305.6906, 10.01054
306.1727, 15.37442
306.6548, 19.34149
307.1370, 19.61900
307.6191, 18.43132
308.1012, 18.19868
308.5833, 19.49944
309.0654, 20.12021
309.5475, 16.05589
310.0297, 10.27501
310.5118, 8.260071
310.9939, 18.59914
311.4760, 29.84871
311.9581, 32.18625
312.4402, 23.33339
312.9224, 14.63751
313.4045, 11.43077
313.8866, 12.20827
314.3687, 14.44080
314.8508, 19.21133
315.3329, 23.53398
315.8151, 25.21478
316.2972, 23.79855
316.7793, 22.94247
317.2614, 26.05284
317.7435, 30.00842
318.2256, 31.08479
318.7078, 22.83740
319.1899, 16.21512
319.6720, 17.63426
320.1541, 28.02672
320.6362, 34.13251
321.1183, 27.50613
321.6005, 16.92339
322.0826, 10.73145
322.5647, 15.46031
323.0468, 20.02739
323.5289, 20.84489
324.0110, 18.06087
324.4932, 16.84366
324.9753, 21.11417
325.4574, 26.14642
325.9395, 27.92296
326.4216, 19.67197
326.9037, 15.17747
327.3859, 19.48183
327.8680, 32.10388
328.3501, 37.49899
328.8322, 28.59093
329.3143, 17.45891
329.7964, 11.49220
330.2786, 15.19121
330.7607, 17.64496
331.2428, 17.91022
331.7249, 16.20120
332.2070, 13.28050
332.6891, 7.980057
333.1713, 3.833755
333.6534, 2.443817
334.1355, 3.523575
334.6176, 6.996689
335.0997, 14.78047
335.5818, 24.41652
336.0640, 27.47981
336.5461, 20.76610
337.0282, 14.32724
337.5103, 13.59052
337.9924, 20.53401
338.4745, 23.94853
338.9567, 23.20619
339.4388, 19.81940
339.9209, 15.00972
340.4030, 7.310562
340.8851, 2.239548
341.3672, 4.085236
341.8494, 13.39972
342.3315, 19.45451
342.8136, 21.45914
343.2957, 21.22612
343.7778, 21.85709
344.2599, 23.39551
344.7421, 24.11899
345.2242, 22.81105
345.7063, 19.87221
346.1884, 17.27704
346.6705, 14.86127
347.1526, 13.61227
347.6348, 16.52359
348.1169, 22.51387
348.5990, 25.50572
349.0811, 20.88803
349.5632, 12.37216
350.0453, 6.358765
350.5275, 2.820724
351.0096, 3.585663
351.4917, 13.74582
351.9738, 28.88457
352.4559, 39.12494
352.9380, 39.76044
353.4202, 35.15584
353.9023, 28.68797
354.3844, 20.70294
354.8665, 14.16302
355.3486, 11.55237
355.8307, 11.43033
356.3129, 12.00046
356.7950, 12.76534
357.2771, 14.34795
357.7592, 18.24797
358.2413, 23.56032
358.7234, 26.95267
359.2056, 25.17751
359.6877, 21.34613
360.1698, 17.67625
360.6519, 13.32683
361.1340, 11.85822
361.6161, 19.56868
362.0982, 31.38564
362.5804, 36.29129
363.0625, 20.02580
363.5446, 4.057404
364.0267, 0.2925110
364.5088, 15.09813
364.9909, 26.90230
365.4731, 30.52260
365.9552, 28.81621
366.4373, 26.27881
366.9194, 18.69893
367.4015, 13.44688
367.8836, 15.59877
368.3658, 28.46843
368.8479, 33.20274
369.3300, 20.60764
369.8121, 4.367706
370.2942, 1.777954
370.7763, 10.53499
371.2585, 20.29015
371.7406, 23.78220
372.2227, 21.17348
372.7048, 19.04588
373.1869, 17.73691
373.6690, 16.50359
374.1512, 14.28381
374.6333, 9.633942
375.1154, 8.592316
375.5975, 13.64055
376.0796, 22.41827
376.5617, 24.73203
377.0439, 18.68120
377.5260, 12.44131
378.0081, 11.88565
378.4902, 17.41864
378.9723, 21.17401
379.4544, 22.92719
379.9366, 22.13123
380.4187, 15.53207
380.9008, 2.933990
381.3829, 5.688354
381.8650, 2.004196
382.3471, 10.64769
382.8293, 17.26643
383.3114, 16.64368
383.7935, 13.75691
384.2756, 15.69527
384.7577, 20.82713
385.2398, 22.73134
385.7220, 14.12958
386.2041, 2.529175
386.6862, 1.171936
387.1683, 9.931503
387.6504, 18.96930
388.1325, 19.31506
388.6147, 15.06233
389.0968, 12.90826
389.5789, 17.74431
390.0610, 22.46967
390.5431, 20.14615
391.0252, 12.16716
391.5074, 5.398132
391.9895, 2.350479
392.4716, 2.781693
392.9537, 7.282318
393.4358, 20.01999
393.9179, 29.04214
394.4001, 27.09955
394.8822, 18.12105
395.3643, 11.03593
395.8464, 9.866623
396.3285, 9.972000
396.8106, 8.612473
397.2928, 3.609024
397.7749, 3.301559
398.2570, 14.90192
398.7391, 29.52130
399.2212, 35.61021
399.7033, 23.41391
400.1855, 13.22957
400.6676, 9.753983
401.1497, 13.50824
401.6318, 15.30296
402.1139, 13.58450
402.5960, 11.48203
403.0782, 12.17516
403.5603, 18.27979
404.0424, 20.30365
404.5245, 14.99425
405.0066, 4.841797
405.4887, 0.7735600
405.9709, 4.130737
406.4530, 9.592499
406.9351, 15.00185
407.4172, 20.50978
407.8993, 21.77449
408.3814, 17.21045
408.8636, 10.54451
409.3457, 8.949753
409.8278, 12.13206
410.3099, 14.82294
410.7920, 13.52458
411.2741, 9.677429
411.7563, 8.009262
412.2384, 8.817001
412.7205, 10.13995
413.2026, 8.896866
413.6847, 6.504959
414.1668, 6.760086
414.6490, 14.13647
415.1311, 22.47545
415.6132, 23.77510
416.0953, 18.97461
416.5774, 15.11682
417.0595, 16.22064
417.5417, 19.71297
418.0238, 22.62193
418.5059, 24.82471
418.9880, 25.23558
419.4701, 22.50674
419.9522, 17.47272
420.4344, 12.27901
420.9165, 5.784851
421.3986, 0.8305360
421.8807, 0.3611150
422.3628, 4.557419
422.8449, 6.848984
423.3270, 0.3840330
423.8091, 8.117477
424.2913, 10.27272
424.7734, 3.612076
425.2555, 14.45370
425.7376, 18.25647
426.2197, 14.88727
426.7018, 10.62741
427.1840, 2.710983
427.6661, 3.292618
428.1482, 2.636230
428.6303, 9.114502
429.1124, 17.49402
429.5945, 20.72472
430.0767, 19.95947
430.5588, 18.19475
431.0409, 15.12633
431.5230, 12.26518
432.0051, 10.28581
432.4872, 9.184937
432.9694, 8.890472
433.4515, 9.315414
433.9336, 10.81187
434.4157, 15.40817
434.8978, 22.39268
435.3799, 26.40355
435.8621, 23.81499
436.3442, 17.42384
436.8263, 12.33647
437.3084, 8.530014
437.7905, 6.224915
438.2726, 5.909485
438.7548, 7.099014
439.2369, 8.954193
439.7190, 12.99751
440.2011, 16.73264
440.6832, 17.25977
441.1653, 15.52168
441.6475, 14.17958
442.1296, 16.22755
442.6117, 17.91267
443.0938, 16.05080
443.5759, 8.865311
444.0580, 3.333572
444.5402, 2.582275
445.0223, 4.678452
445.5044, 7.158249
445.9865, 9.149033
446.4686, 11.95138
446.9507, 17.05759
447.4329, 24.58203
447.9150, 28.25247
448.3971, 25.06320
448.8792, 20.68945
449.3613, 18.81944
449.8434, 21.71703
450.3256, 21.80299
450.8077, 16.74207
451.2898, 9.517349
451.7719, 9.261597
452.2540, 18.77634
452.7361, 25.75172
453.2183, 23.19148
453.7004, 11.33347
454.1825, 3.007309
454.6646, 1.374039
455.1467, 2.959183
455.6288, 0.8381810
456.1110, 4.343018
456.5931, 8.035248
457.0752, 8.225174
457.5573, 6.608719
458.0394, 5.103165
458.5215, 3.928619
459.0037, 5.062073
459.4858, 13.31374
459.9679, 23.55695
460.4500, 27.76595
460.9321, 22.91159
461.4142, 17.44495
461.8964, 18.04604
462.3785, 22.18188
462.8606, 25.06963
463.3427, 24.51077
463.8248, 22.48166
464.3069, 19.48128
464.7891, 15.43747
465.2712, 12.03571
465.7533, 9.466324
466.2354, 7.828293
466.7175, 7.231598
467.1996, 8.605362
467.6818, 9.939682
468.1639, 11.72102
468.6460, 13.41235
469.1281, 12.75525
469.6102, 6.293488
470.0923, 2.776611
470.5745, 7.461884
471.0566, 23.32622
471.5387, 31.22827
472.0208, 29.75337
472.5029, 22.68324
472.9850, 11.81706
473.4672, 3.497635
473.9493, 10.32294
474.4314, 1.264404
474.9135, 16.50801
475.3956, 21.47841
475.8777, 13.83148
476.3599, 4.945557
476.8420, 4.653549
477.3241, 9.534561
477.8062, 11.39136
478.2883, 8.098373
478.7704, 5.524628
479.2526, 11.14629
479.7347, 21.55240
480.2168, 29.42010
480.6989, 30.62029
481.1810, 28.77840
481.6631, 24.55745
482.1453, 18.47566
482.6274, 14.82146
483.1095, 15.71352
483.5916, 18.25854
484.0737, 20.28653
484.5558, 23.36404
485.0379, 23.44937
485.5201, 16.05775
486.0022, 5.223145
486.4843, 1.287811
486.9664, 9.276306
487.4485, 17.76308
487.9306, 23.74725
488.4128, 27.25342
488.8949, 27.58533
489.3770, 23.03447
489.8591, 17.33073
490.3412, 15.37674
490.8233, 17.81665
491.3055, 18.31100
491.7876, 15.21318
492.2697, 9.936661
492.7518, 5.576859
493.2339, 2.218964
493.7160, 1.931168
494.1982, 9.622620
494.6803, 20.96664
495.1624, 24.24959
495.6445, 17.85210
496.1266, 10.55536
496.6087, 10.80156
497.0909, 15.60248
497.5730, 19.84772
498.0551, 21.79318
498.5372, 22.36137
499.0193, 21.93527
499.5014, 20.57582
499.9836, 18.55919
500.4657, 13.18028
500.9478, 9.253326
501.4299, 10.38382
501.9120, 20.90463
502.3941, 27.18138
502.8763, 24.07014
503.3584, 16.88174
503.8405, 12.57101
504.3226, 13.00908
504.8047, 13.37379
505.2868, 11.88855
505.7690, 9.188492
506.2511, 11.87311
506.7332, 22.88174
507.2153, 32.24846
507.6974, 31.94586
508.1795, 21.74036
508.6617, 14.43980
509.1438, 11.29941
509.6259, 10.31093
510.1080, 9.064514
510.5901, 7.539703
511.0722, 5.468582
511.5544, 0.4031370
512.0365, 3.826202
512.5186, 0.8041990
513.0007, 13.22368
513.4828, 24.10506
513.9650, 24.81337
514.4471, 21.43742
514.9292, 20.80714
515.4113, 25.79758
515.8934, 29.55365
516.3755, 27.09663
516.8576, 21.67238
517.3397, 18.40105
517.8218, 22.33252
518.3040, 24.83232
518.7861, 21.17506
519.2682, 11.01753
519.7503, 8.178299
520.2324, 19.26540
520.7145, 30.97095
521.1967, 35.26044
521.6788, 29.48376
522.1609, 23.69072
522.6430, 17.32889
523.1251, 12.01616
523.6072, 11.57976
524.0894, 16.47234
524.5715, 20.64734
525.0536, 21.79263
525.5357, 20.71201
526.0178, 19.65495
526.4999, 18.61423
526.9821, 18.06499
527.4642, 18.81395
527.9463, 20.20680
528.4284, 21.26584
528.9105, 22.06496
529.3926, 21.70729
529.8748, 17.46358
530.3569, 11.82335
530.8390, 9.146805
531.3211, 15.01314
531.8032, 20.03204
532.2853, 21.36636
532.7675, 18.53577
533.2496, 13.63861
533.7317, 2.511566
534.2138, 7.102478
534.6959, 10.86038
535.1780, 5.880539
535.6602, 0.5672300
536.1423, 5.610352
536.6244, 11.81436
537.1065, 17.09488
537.5886, 21.62720
538.0707, 24.46663
538.5529, 25.20828
539.0350, 24.10602
539.5171, 21.31082
539.9992, 16.56502
540.4813, 13.79771
540.9634, 17.93015
541.4456, 26.25529
541.9277, 29.90573
542.4098, 27.24185
542.8919, 24.43253
543.3740, 31.56929
543.8561, 42.42528
544.3383, 45.88904
544.8204, 30.49577
545.3025, 13.06641
545.7846, 1.720413
546.2667, 3.707733
546.7488, 3.924606
547.2310, 9.195480
547.7131, 20.68208
548.1952, 21.90739
548.6773, 6.414200
549.1594, 2.274368
549.6415, 0.4783630
550.1237, 7.915192
550.6058, 11.94054
551.0879, 9.327972
551.5700, 10.97704
552.0521, 20.85265
552.5342, 34.56958
553.0164, 38.74338
553.4985, 32.67258
553.9806, 23.83324
554.4627, 13.37938
554.9448, 2.992386
555.4269, 0.5705410
555.9091, 6.442200
556.3912, 14.19772
556.8733, 20.00067
557.3554, 23.22400
557.8375, 21.96178
558.3196, 12.49911
558.8018, 4.517853
559.2839, 5.923569
559.7660, 13.76495
560.2481, 21.45340
560.7302, 27.33858
561.2123, 31.07515
561.6945, 32.45259
562.1766, 31.65498
562.6587, 29.20839
563.1408, 24.00414
563.6229, 18.26833
564.1050, 12.91402
564.5872, 7.048752
565.0693, 4.151932
565.5514, 4.884338
566.0335, 7.803162
566.5156, 10.84277
566.9977, 14.02651
567.4799, 16.64594
567.9620, 17.96057
568.4441, 18.87669
568.9262, 23.22356
569.4083, 30.45432
569.8904, 34.10596
570.3726, 23.65196
570.8547, 10.28702
571.3368, 12.16519
571.8189, 33.48175
572.3010, 50.81000
572.7831, 43.94383
573.2653, 27.12975
573.7474, 16.34157
574.2295, 21.30765
574.7116, 26.68204
575.1937, 29.07440
575.6758, 29.17905
576.1580, 29.32266
576.6401, 30.93294
577.1222, 30.78784
577.6043, 27.07249
578.0864, 19.43381
578.5685, 15.23318
579.0507, 15.24043
579.5328, 16.54474
580.0149, 16.50943
580.4970, 15.27710
580.9791, 16.06018
581.4612, 20.04616
581.9434, 23.68213
582.4255, 19.51509
582.9076, 10.48332
583.3897, 5.469650
583.8718, 12.39594
584.3539, 21.75369
584.8361, 24.54573
585.3182, 21.97815
585.8003, 20.27185
586.2824, 24.00520
586.7645, 28.27156
587.2466, 30.07297
587.7288, 28.45776
588.2109, 26.60059
588.6930, 24.09518
589.1751, 21.97835
589.6572, 21.32889
590.1393, 22.62669
590.6215, 24.11887
591.1036, 26.37567
591.5857, 28.98792
592.0678, 30.85617
592.5499, 32.28960
593.0320, 32.26958
593.5142, 28.70168
593.9963, 23.10420
594.4784, 21.76640
594.9605, 24.53914
595.4426, 27.44739
595.9247, 28.59962
596.4069, 27.63029
596.8890, 22.87367
597.3711, 12.44655
597.8532, 4.681961
598.3353, 6.060867
598.8174, 12.03239
599.2996, 16.97224
599.7817, 20.13322
600.2638, 21.31024
600.7459, 18.93329
601.2280, 14.24655
601.7101, 12.01460
602.1923, 13.84987
602.6744, 15.44313
603.1565, 15.06490
603.6386, 12.70964
604.1207, 10.17284
604.6028, 7.346756
605.0850, 5.986343
605.5671, 9.636047
606.0492, 16.30673
606.5313, 15.59056
607.0134, 4.045120
607.4955, 7.729187
607.9777, 7.441772
608.4598, 0.6420140
608.9419, 8.204163
609.4240, 12.46094
609.9061, 14.61131
610.3882, 14.91650
610.8704, 13.57730
611.3525, 11.33740
611.8346, 6.715683
612.3167, 2.725479
612.7988, 0.7326050
613.2809, 0.9270170
613.7631, 1.533951
614.2452, 2.156891
614.7273, 3.712799
615.2094, 8.456604
615.6915, 17.50945
616.1736, 18.89696
616.6558, 9.727097
617.1379, 2.498497
617.6200, 7.362473
618.1021, 6.288223
618.5842, 2.766388
619.0663, 3.011002
619.5485, 9.555107
620.0306, 17.29769
620.5127, 24.93027
620.9948, 27.51103
621.4769, 14.35050
621.9590, 1.677765
622.4412, 1.357376
622.9233, 15.99556
623.4054, 26.91700
623.8875, 28.35139
624.3696, 26.35547
624.8517, 24.59843
625.3339, 21.72409
625.8160, 22.71084
626.2981, 29.75056
626.7802, 38.19978
627.2623, 40.30312
627.7444, 35.77040
628.2266, 31.87241
628.7087, 31.12688
629.1908, 31.55631
629.6729, 28.40284
630.1550, 22.46314
630.6371, 17.76571
631.1193, 17.81935
631.6014, 19.50917
632.0835, 20.21165
632.5656, 19.77832
633.0477, 18.36417
633.5298, 13.64027
634.0120, 9.547874
634.4941, 9.276772
634.9762, 16.82680
635.4583, 20.75401
635.9404, 17.97017
636.4225, 13.38073
636.9047, 13.00835
637.3868, 18.38606
637.8689, 22.35147
638.3510, 23.17857
638.8331, 22.47188
639.3152, 24.77082
639.7973, 29.73967
640.2794, 32.72876
640.7615, 29.02853
641.2437, 23.09291
641.7258, 22.67713
642.2079, 27.09010
642.6900, 30.71885
643.1721, 28.63098
643.6542, 25.36175
644.1364, 25.16152
644.6185, 29.97004
645.1006, 31.82653
645.5827, 27.48447
646.0648, 20.11581
646.5469, 12.08361
647.0291, 0.9279480
647.5112, 5.467087
647.9933, 2.475784
648.4754, 16.26748
648.9575, 23.61641
649.4396, 23.72565
649.9218, 21.99526
650.4039, 18.98347
650.8860, 16.09537
651.3681, 17.70207
651.8502, 22.84771
652.3323, 26.14159
652.8145, 22.92508
653.2966, 17.38147
653.7787, 12.14822
654.2608, 7.449387
654.7429, 5.698441
655.2250, 9.820122
655.7072, 15.86015
656.1893, 21.20527
656.6714, 25.03724
657.1535, 29.46435
657.6356, 36.54717
658.1177, 42.29285
658.5999, 40.97113
659.0820, 31.02075
659.5641, 23.07668
660.0462, 18.96457
660.5283, 17.60856
661.0104, 17.95228
661.4926, 19.56543
661.9747, 20.14629
662.4568, 17.61644
662.9389, 14.23878
663.4210, 11.96912
663.9031, 10.94099
664.3853, 11.69357
664.8674, 15.91841
665.3495, 20.29018
665.8316, 24.21643
666.3137, 28.30013
666.7958, 30.43318
667.2780, 29.82401
667.7601, 27.96973
668.2422, 24.31237
668.7243, 15.92458
669.2064, 20.23579
669.6885, 42.63092
670.1707, 66.75805
670.6528, 69.84064
671.1349, 54.97148
671.6170, 39.98030
672.0991, 29.16017
672.5812, 20.97252
673.0634, 12.22279
673.5455, 3.950623
674.0276, 2.207138
674.5097, 7.811043
674.9918, 9.134102
675.4739, 1.033455
675.9561, 14.96259
676.4382, 26.29688
676.9203, 29.32196
677.4024, 29.31814
677.8845, 27.45292
678.3666, 23.55461
678.8488, 20.70218
679.3309, 19.21195
679.8130, 17.65617
680.2951, 13.03975
680.7772, 6.845711
681.2593, 8.970596
681.7415, 21.77863
682.2236, 32.91328
682.7057, 26.35746
683.1878, 10.99815
683.6699, 0.6076970
684.1520, 0.1305620
684.6342, 2.848999
685.1163, 10.03499
685.5984, 18.48984
686.0805, 23.35320
686.5626, 21.40931
687.0447, 18.38786
687.5269, 13.49794
688.0090, 8.268074
688.4911, 9.535133
688.9732, 19.33347
689.4553, 26.54356
689.9374, 25.31858
690.4196, 18.00507
690.9017, 11.45700
691.3838, 5.907890
691.8659, 4.275749
692.3480, 12.83862
692.8301, 24.17186
693.3123, 29.37507
693.7944, 27.22674
694.2765, 24.57121
694.7586, 23.78210
695.2407, 23.75961
695.7228, 23.41733
696.2050, 22.40382
696.6871, 22.29397
697.1692, 23.74397
697.6513, 25.46460
698.1334, 25.75558
698.6155, 24.41572
699.0977, 23.14989
699.5798, 21.82284
700.0619, 21.48693
700.5440, 25.83260
701.0261, 33.12860
701.5082, 37.00548
701.9904, 33.04253
702.4725, 26.13246
702.9546, 18.04398
703.4367, 10.03355
703.9188, 6.215126
704.4009, 14.90173
704.8831, 21.30717
705.3652, 16.47075
705.8473, 1.605698
706.3294, 3.845764
706.8115, 4.481827
707.2936, 13.88557
707.7758, 17.13446
708.2579, 14.40337
708.7400, 14.27978
709.2221, 17.17102
709.7042, 18.77728
710.1863, 11.16285
710.6685, 0.5694660
711.1506, 0.7088780
711.6327, 15.98886
712.1148, 28.70442
712.5969, 23.51650
713.0790, 11.58011
713.5612, 4.538589
714.0433, 8.292801
714.5254, 12.80497
715.0075, 17.57120
715.4896, 22.45414
715.9717, 27.99891
716.4539, 35.32616
716.9360, 38.24727
717.4181, 33.97835
717.9002, 26.33227
718.3823, 23.95421
718.8644, 26.11938
719.3466, 28.57616
719.8287, 30.61398
720.3108, 30.97492
720.7929, 26.76291
721.2750, 19.28050
721.7571, 13.56975
722.2393, 14.03011
722.7214, 14.86904
723.2035, 11.56306
723.6856, 3.630371
724.1677, 4.514107
724.6498, 20.42464
725.1320, 35.12872
725.6141, 38.22466
726.0962, 29.43767
726.5783, 27.60950
727.0604, 33.65302
727.5425, 39.14397
728.0247, 35.72885
728.5068, 26.52924
728.9889, 15.64035
729.4710, 2.684647
729.9531, 5.029114
730.4352, 2.185181
730.9174, 14.54395
731.3995, 22.19712
731.8816, 17.93481
732.3637, 15.80666
732.8458, 17.84447
733.3279, 22.93573
733.8101, 29.10160
734.2922, 37.11604
734.7743, 41.59947
735.2564, 41.12686
735.7385, 37.49182
736.2206, 32.45332
736.7028, 26.69115
737.1849, 23.75544
737.6670, 27.11137
738.1491, 31.73307
738.6312, 34.68756
739.1133, 35.40895
739.5955, 32.20850
740.0776, 16.10216
740.5597, 4.498611
741.0418, 6.043053
741.5239, 18.50739
742.0060, 28.93842
742.4882, 38.73726
742.9703, 43.03408
743.4524, 36.03553
743.9345, 20.82809
744.4166, 19.33925
744.8987, 31.54512
745.3809, 42.58701
745.8630, 39.09251
746.3451, 29.40414
746.8272, 23.95599
747.3093, 23.71655
747.7914, 23.74583
748.2736, 20.82735
748.7557, 17.96849
749.2378, 18.05476
749.7199, 24.22019
750.2020, 24.20663
750.6841, 15.46399
751.1663, 4.217491
751.6484, 5.443581
752.1305, 13.49061
752.6126, 14.35899
753.0947, 6.767525
753.5768, 4.648926
754.0590, 18.26352
754.5411, 31.11176
755.0232, 36.55556
755.5053, 29.71109
755.9874, 22.26678
756.4695, 21.69829
756.9517, 23.91040
757.4338, 23.32279
757.9159, 13.59523
758.3980, 9.044731
758.8801, 13.14143
759.3622, 21.50156
759.8444, 25.11548
760.3265, 23.42178
760.8086, 24.27474
761.2907, 31.81139
761.7728, 40.36150
762.2549, 37.52352
762.7370, 27.02039
763.2191, 20.92801
763.7012, 30.15269
764.1833, 40.53670
764.6655, 45.23996
765.1476, 44.57800
765.6297, 41.60158
766.1118, 33.03006
766.5939, 26.62616
767.0760, 24.90520
767.5582, 27.20377
768.0403, 29.19039
768.5224, 30.92447
769.0045, 31.42921
769.4866, 30.68183
769.9688, 28.15287
770.4509, 20.79153
770.9330, 9.258789
771.4151, 0.5057300
771.8972, 0.2977830
772.3793, 3.618637
772.8615, 7.796539
773.3436, 12.73579
773.8257, 15.99078
774.3078, 16.63584
774.7899, 16.15816
775.2720, 15.18291
775.7542, 13.72163
776.2363, 11.15678
776.7184, 6.947624
777.2005, 4.362717
777.6826, 7.221283
778.1647, 13.69031
778.6469, 20.57881
779.1290, 27.85846
779.6111, 31.34499
780.0932, 23.38849
780.5753, 13.13795
781.0574, 9.389275
781.5396, 16.61670
782.0217, 22.51159
782.5038, 26.48149
782.9859, 28.36461
783.4680, 27.86752
783.9501, 24.82007
784.4323, 19.86527
784.9144, 12.18414
785.3965, 5.977371
785.8786, 8.957352
786.3607, 17.22684
786.8428, 21.03947
787.3250, 17.31892
787.8071, 11.28599
788.2892, 5.060997
788.7713, 1.9112000E-02
789.2534, 2.364906
789.7355, 0.8349150
790.2177, 2.137154
790.6998, 7.801590
791.1819, 13.70297
791.6640, 16.53494
792.1461, 16.17751
792.6282, 13.02972
793.1104, 5.470718
793.5925, 0.8021010
794.0746, 6.709206
794.5567, 21.59970
795.0388, 29.15018
795.5209, 17.61262
796.0031, 5.959038
796.4852, 4.223534
796.9673, 8.728424
797.4494, 12.33752
797.9315, 14.27090
798.4136, 15.17275
798.8958, 14.58566
799.3779, 13.42566
799.8600, 14.33797
800.3421, 17.27213
800.8242, 18.93974
801.3063, 17.95333
801.7885, 15.47167
802.2706, 10.73769
802.7527, 5.819672
803.2348, 5.793114
803.7169, 22.09433
804.1990, 34.09300
804.6812, 29.00156
805.1633, 12.40726
805.6454, 5.072327
806.1275, 12.35075
806.6096, 17.34894
807.0917, 14.22419
807.5739, 6.924026
808.0560, 9.171211
808.5381, 19.86594
809.0202, 27.41273
809.5023, 22.88234
809.9844, 14.21715
810.4666, 9.729675
810.9487, 9.248215
811.4308, 10.37810
811.9129, 15.36787
812.3950, 17.58672
812.8771, 12.46894
813.3593, 2.310287
813.8414, 2.150581
814.3235, 5.8823001E-02
814.8056, 4.388023
815.2877, 10.19752
815.7698, 16.25513
816.2520, 18.79086
816.7341, 18.61213
817.2162, 16.75392
817.6983, 12.35021
818.1804, 9.141663
818.6625, 10.88010
819.1447, 16.77171
819.6268, 21.93231
820.1089, 27.85029
820.5910, 29.69622
821.0731, 23.83321
821.5552, 12.32857
822.0374, 7.786156
822.5195, 10.66024
823.0016, 15.70596
823.4837, 22.87702
823.9658, 29.15314
824.4479, 26.67548
824.9301, 17.21658
825.4122, 10.01392
825.8943, 13.46927
826.3764, 16.90756
826.8585, 13.33859
827.3406, 3.229622
827.8228, 2.226013
828.3049, 0.8721160
828.7870, 1.381187
829.2691, 2.604546
829.7512, 3.109451
830.2333, 8.741959
830.7155, 19.48921
831.1976, 27.92582
831.6797, 28.54079
832.1618, 25.01430
832.6439, 19.22667
833.1260, 12.02457
833.6082, 7.741936
834.0903, 9.245010
834.5724, 12.61064
835.0545, 16.97271
835.5366, 22.08302
836.0187, 26.36696
836.5009, 30.49905
836.9830, 30.53375
837.4651, 21.50001
837.9472, 8.430695
838.4293, 3.556274
838.9114, 5.831116
839.3936, 9.256645
839.8757, 10.84033
840.3578, 12.12475
840.8399, 14.67368
841.3220, 18.16363
841.8041, 19.44199
842.2863, 18.13264
842.7684, 14.77342
843.2505, 7.799095
843.7326, 0.8592300
844.2147, 0.4638520
844.6968, 11.18130
845.1790, 18.39431
845.6611, 9.908195
846.1432, 2.362274
846.6253, 3.729332
847.1074, 3.246666
847.5895, 8.600830
848.0717, 6.215958
848.5538, 3.803452
849.0359, 3.330894
849.5180, 4.900108
850.0001, 10.02769
850.4822, 19.90231
850.9644, 27.51608
851.4465, 29.85812
851.9286, 28.37298
852.4107, 24.87609
852.8928, 19.99343
853.3749, 16.08382
853.8571, 15.88266
854.3392, 15.50443
854.8213, 11.25256
855.3034, 4.698181
855.7855, 2.673698
856.2676, 7.615059
856.7498, 13.00243
857.2319, 17.78669
857.7140, 21.61387
858.1961, 23.59245
858.6782, 23.76055
859.1603, 22.44923
859.6425, 18.65174
860.1246, 14.81834
860.6067, 12.77783
861.0888, 12.64273
861.5709, 14.70741
862.0530, 24.23320
862.5352, 29.46896
863.0173, 26.98640
863.4994, 19.66244
863.9815, 12.22105
864.4636, 4.270943
864.9457, 0.6695100
865.4279, 2.804138
865.9100, 9.658051
866.3921, 25.11651
866.8742, 43.45453
867.3563, 52.57732
867.8384, 40.26289
868.3206, 28.15961
868.8027, 25.40636
869.2848, 27.85993
869.7669, 28.66016
870.2490, 27.26477
870.7311, 25.48642
871.2133, 23.41978
871.6954, 21.28114
872.1775, 20.67696
872.6596, 20.55070
873.1417, 16.08530
873.6238, 3.174698
874.1060, 5.455688
874.5881, 5.601257
875.0702, 23.48452
875.5523, 33.52448
876.0344, 28.49254
876.5165, 21.76531
876.9987, 11.05067
877.4808, 1.713638
877.9629, 1.186203
878.4450, 8.581306
878.9271, 12.80898
879.4092, 12.31736
879.8914, 11.31570
880.3735, 14.38512
880.8556, 18.82108
881.3377, 21.34791
881.8198, 20.78642
882.3019, 20.74196
882.7841, 24.94656
883.2662, 26.98382
883.7483, 20.75002
884.2304, 4.260971
884.7125, 9.2551999E-02
885.1946, 9.935272
885.6768, 18.20460
886.1588, 5.017677
886.6409, 14.96769
887.1230, 18.75243
887.6052, 4.634140
888.0873, 10.42828
888.5694, 22.02512
889.0515, 29.88828
889.5336, 33.76028
890.0157, 33.66081
890.4979, 31.93956
890.9800, 28.57993
891.4621, 24.14838
891.9442, 15.07142
892.4263, 5.389534
892.9084, 5.284851
893.3906, 13.17156
893.8727, 19.80647
894.3548, 20.17227
894.8369, 18.12196
895.3190, 13.89672
895.8011, 8.447006
896.2833, 7.603249
896.7654, 13.67571
897.2475, 18.05834
897.7296, 16.34824
898.2117, 12.47740
898.6938, 19.13565
899.1760, 33.05077
899.6581, 40.39246
900.1402, 28.28112
900.6223, 14.91077
901.1044, 13.00826
901.5865, 17.80510
902.0687, 19.28492
902.5508, 12.70276
903.0329, 10.16866
903.5150, 14.63393
903.9971, 21.69873
904.4792, 23.63898
904.9614, 21.79171
905.4435, 22.31024
905.9256, 28.45211
906.4077, 32.73708
906.8898, 23.28015
907.3719, 10.68378
907.8541, 7.663124
908.3362, 27.13167
908.8183, 37.50144
909.3004, 34.99208
909.7825, 27.19864
910.2646, 20.39291
910.7468, 14.62650
911.2289, 9.886894
911.7110, 6.079117
912.1931, 4.868790
912.6752, 9.268127
913.1573, 15.96515
913.6395, 22.67231
914.1216, 29.68810
914.6037, 31.50470
915.0858, 21.48181
915.5679, 13.73287
916.0500, 17.32284
916.5322, 30.94102
917.0143, 35.68839
917.4964, 31.63126
917.9785, 26.09677
918.4606, 23.62462
918.9427, 22.35449
919.4249, 19.80789
919.9070, 16.45162
920.3891, 14.97820
920.8712, 17.47083
921.3533, 20.49026
921.8354, 23.14916
922.3176, 25.64702
922.7997, 29.36050
923.2818, 34.36992
923.7639, 37.11472
924.2460, 35.95753
924.7281, 32.55173
925.2103, 26.41557
925.6924, 19.89658
926.1745, 17.38058
926.6566, 24.50758
927.1387, 30.46673
927.6208, 35.06763
928.1030, 37.27715
928.5851, 31.90996
929.0672, 18.18417
929.5493, 11.93399
930.0314, 16.51147
930.5135, 23.99619
930.9957, 27.48048
931.4778, 27.77988
931.9599, 24.73660
932.4420, 18.18214
932.9241, 13.22168
933.4063, 11.26380
933.8884, 11.13541
934.3705, 12.05119
934.8526, 13.94098
935.3347, 19.96837
935.8168, 30.43378
936.2990, 38.08759
936.7811, 33.95389
937.2632, 26.04731
937.7453, 24.10937
938.2274, 27.90686
938.7095, 31.66817
939.1917, 33.09380
939.6738, 34.95119
940.1559, 39.12810
940.6380, 44.17296
941.1201, 43.61017
941.6022, 37.42601
942.0844, 30.61804
942.5665, 23.92053
943.0486, 19.29720
943.5307, 20.34042
944.0128, 24.65402
944.4949, 26.56185
944.9771, 24.12379
945.4592, 22.93323
945.9413, 23.14774
946.4234, 23.89969
946.9055, 25.98161
947.3876, 29.22890
947.8698, 24.30547
948.3519, 8.286163
948.8340, 4.704185
949.3161, 5.061432
949.7982, 22.55954
950.2803, 29.99272
950.7625, 21.75970
951.2446, 16.07249
951.7267, 17.42677
952.2088, 18.97437
952.6909, 16.41078
953.1730, 10.14450
953.6552, 5.122437
954.1373, 1.442917
954.6194, 0.5401460
955.1015, 6.459854
955.5836, 13.08841
956.0657, 14.59650
956.5479, 11.81825
957.0300, 9.822174
957.5121, 9.246063
957.9942, 10.02882
958.4763, 13.09225
958.9584, 16.63318
959.4406, 15.28038
959.9227, 10.03499
960.4048, 7.219681
960.8869, 10.52402
961.3690, 13.19856
961.8511, 9.597214
962.3333, 2.436737
962.8154, 5.138374
963.2975, 19.33302
963.7796, 20.45199
964.2617, 3.826004
964.7438, 16.46979
965.2260, 27.02228
965.7081, 29.50703
966.1902, 28.45506
966.6723, 24.24907
967.1544, 19.46609
967.6365, 14.87572
968.1187, 11.11354
968.6008, 8.930084
969.0829, 8.285873
969.5650, 7.884827
970.0471, 7.838074
970.5292, 7.516647
971.0114, 5.878021
971.4935, 4.393936
971.9756, 7.858261
972.4577, 14.46873
972.9398, 18.60385
973.4219, 14.40068
973.9041, 11.26416
974.3862, 13.49582
974.8683, 18.33221
975.3504, 22.96001
975.8325, 28.02882
976.3146, 29.50063
976.7968, 26.34511
977.2789, 22.01208
977.7610, 20.56424
978.2431, 20.53362
978.7252, 19.09880
979.2073, 15.41690
979.6895, 13.42981
980.1716, 17.00029
980.6537, 20.31749
981.1358, 20.45125
981.6179, 17.50867
982.1000, 12.57074
982.5822, 5.499298
983.0643, 2.158051
983.5464, 12.44638
984.0285, 23.34439
984.5106, 17.37115
984.9927, 0.2164760
985.4749, 11.26000
985.9570, 10.39056
986.4391, 5.605957
986.9212, 4.473038
987.4033, 15.17957
987.8854, 16.70692
988.3676, 10.83231
988.8497, 10.12155
989.3318, 18.33844
989.8139, 26.20691
990.2960, 24.92714
990.7781, 20.31340
991.2603, 18.27693
991.7424, 20.28522
992.2245, 21.75099
992.7066, 23.18042
993.1887, 22.79382
993.6708, 18.08092
994.1530, 10.81314
994.6351, 6.197540
995.1172, 4.071518
995.5993, 3.675171
996.0814, 5.695343
996.5635, 8.218002
997.0457, 10.88815
997.5278, 13.32173
998.0099, 13.77254
998.4920, 11.15448
998.9741, 14.13977
999.4562, 26.85249
999.9384, 38.63307
1000.420, 31.18169
1000.903, 14.66177
1001.385, 5.825745
1001.867, 10.97261
1002.349, 15.81070
1002.831, 15.59068
1003.313, 15.52730
1003.795, 20.57433
1004.277, 30.38110
1004.760, 28.10222
1005.242, 13.98024
1005.724, 1.377350
1006.206, 1.664169
1006.688, 0.4793700
1007.170, 8.223633
1007.652, 19.19958
1008.134, 25.85696
1008.616, 26.63487
1009.099, 25.03990
1009.581, 20.97617
1010.063, 15.94476
1010.545, 12.04800
1011.027, 9.254822
1011.509, 7.331894
1011.991, 5.798904
1012.473, 6.652328
1012.955, 13.88495
1013.438, 21.97496
1013.920, 26.41888
1014.402, 26.75934
1014.884, 27.20262
1015.366, 27.83194
1015.848, 28.02499
1016.330, 27.54822
1016.812, 26.28145
1017.294, 23.15550
1017.777, 18.95172
1018.259, 16.44902
1018.741, 19.25000
1019.223, 20.23959
1019.705, 17.05141
1020.187, 12.24500
1020.669, 10.24379
1021.151, 10.20573
1021.634, 9.291397
1022.116, 7.633896
1022.598, 7.077881
1023.080, 10.98412
1023.562, 15.69296
1024.044, 17.29195
1024.526, 14.40976
1025.008, 14.26720
1025.490, 17.92448
1025.973, 20.94855
1026.455, 19.68213
1026.937, 16.70737
1027.419, 18.40059
1027.901, 23.87283
1028.383, 29.79984
1028.865, 39.04388
1029.347, 43.39102
1029.830, 38.99315
1030.312, 29.09377
1030.794, 14.60164
1031.276, 5.215607
1031.758, 10.12459
1032.240, 4.244904
1032.722, 19.58272
1033.204, 14.74812
1033.687, 4.417435
1034.169, 5.486374
1034.651, 21.21010
1035.133, 28.51675
1035.615, 20.65073
1036.097, 15.27211
1036.579, 20.70151
1037.061, 32.62325
1037.543, 39.27794
1038.026, 41.78293
1038.508, 43.88197
1038.990, 48.30122
1039.472, 50.99596
1039.954, 50.50670
1040.436, 47.20319
1040.918, 40.51562
1041.400, 29.14418
1041.882, 24.42735
1042.365, 27.57994
1042.847, 30.68152
1043.329, 21.72893
1043.811, 11.95320
1044.293, 16.08955
1044.775, 33.39288
1045.257, 45.16646
1045.739, 49.54820
1046.222, 45.20663
1046.704, 27.26390
1047.186, 5.330521
1047.668, 2.662415
1048.150, 14.33771
1048.632, 23.20959
1049.114, 23.66710
1049.596, 22.58313
1050.078, 23.81902
1050.561, 24.98315
1051.043, 23.12584
1051.525, 17.07326
1052.007, 18.81779
1052.489, 29.18208
1052.971, 38.23380
1053.453, 37.79025
1053.935, 33.37256
1054.417, 30.18758
1054.900, 28.50204
1055.382, 28.90744
1055.864, 35.53543
1056.346, 37.61429
1056.828, 31.50316
1057.310, 23.86732
1057.792, 27.72975
1058.274, 38.24088
1058.757, 37.25566
1059.239, 20.77884
1059.721, 8.317642
1060.203, 16.99673
1060.685, 27.61885
1061.167, 26.89465
1061.649, 16.20401
1062.131, 13.58693
1062.614, 19.34560
1063.096, 23.14297
1063.578, 18.35237
1064.060, 12.83987
1064.542, 17.88393
1065.024, 27.68520
1065.506, 32.91072
1065.988, 28.88808
1066.470, 23.92075
1066.953, 16.81706
1067.435, 11.31329
1067.917, 12.99826
1068.399, 18.57944
1068.881, 17.99605
1069.363, 11.67636
1069.845, 6.190414
1070.327, 3.364807
1070.809, 3.858643
1071.292, 9.010788
1071.774, 16.92514
1072.256, 23.75981
1072.738, 29.49394
1073.220, 35.59900
1073.702, 43.26007
1074.184, 47.73692
1074.666, 41.85448
1075.148, 32.75369
1075.631, 27.86964
1076.113, 29.07310
1076.595, 25.75739
1077.077, 15.93640
1077.559, 9.055664
1078.041, 11.91319
1078.523, 18.82764
1079.005, 19.71573
1079.488, 16.25986
1079.970, 14.01579
1080.452, 16.96925
1080.934, 19.63025
1081.416, 22.05563
1081.898, 22.85976
1082.380, 18.83188
1082.862, 11.21042
1083.344, 10.06216
1083.827, 15.59169
1084.309, 21.35710
1084.791, 24.41638
1085.273, 25.15813
1085.755, 20.47452
1086.237, 13.82936
1086.719, 18.09154
1087.201, 35.47061
1087.683, 44.24405
1088.166, 37.74588
1088.648, 27.40248
1089.130, 24.74095
1089.612, 26.30103
1090.094, 29.42065
1090.576, 34.10849
1091.058, 35.04750
1091.540, 31.45160
1092.023, 25.35289
1092.505, 15.57812
1092.987, 5.563751
1093.469, 5.694427
1093.951, 12.86314
1094.433, 18.26749
1094.915, 15.83105
1095.397, 14.93324
1095.880, 19.65042
1096.362, 25.02234
1096.844, 25.17461
1097.326, 20.72466
1097.808, 24.42506
1098.290, 36.29158
1098.772, 44.96382
1099.254, 40.19283
1099.736, 32.37164
1100.219, 27.01291
1100.701, 25.06444
1101.183, 25.24150
1101.665, 25.95787
1102.147, 27.41563
1102.629, 30.80403
1103.111, 34.53627
1103.593, 38.16762
1104.075, 40.30049
1104.558, 38.92374
1105.040, 33.74171
1105.522, 28.22415
1106.004, 21.61067
1106.486, 16.32297
1106.968, 13.51080
1107.450, 11.94438
1107.932, 7.712997
1108.415, 2.696335
1108.897, 1.335190
1109.379, 5.704056
1109.861, 12.86862
1110.343, 27.99408
1110.825, 38.98273
1111.307, 34.50316
1111.789, 16.60657
1112.271, 6.504044
1112.754, 3.898056
1113.236, 5.618912
1113.718, 15.89452
1114.200, 23.41374
1114.682, 18.70068
1115.164, 8.723526
1115.646, 4.948441
1116.128, 7.873428
1116.610, 13.75381
1117.093, 22.52255
1117.575, 30.83116
1118.057, 36.42969
1118.539, 39.62103
1119.021, 40.64528
1119.503, 39.44579
1119.985, 35.71910
1120.467, 28.25308
1120.950, 21.63692
1121.432, 16.50009
1121.914, 13.90683
1122.396, 18.65923
1122.878, 25.68620
1123.360, 25.34329
1123.842, 12.93323
1124.324, 8.466461
1124.807, 17.87946
1125.289, 29.14838
1125.771, 38.08626
1126.253, 43.90260
1126.735, 42.32867
1127.217, 35.51827
1127.699, 30.35065
1128.181, 32.01266
1128.663, 31.52311
1129.146, 25.17656
1129.628, 17.04064
1130.110, 8.320740
1130.592, 0.3414080
1131.074, 3.867760
1131.556, 2.403542
1132.038, 1.308350
1132.520, 8.787193
1133.002, 14.68766
1133.485, 13.57339
1133.967, 9.909821
1134.449, 13.97920
1134.931, 27.60798
1135.413, 26.20862
1135.895, 5.696152
1136.377, 13.65007
1136.859, 14.57876
1137.342, 6.137810
1137.824, 8.095886
1138.306, 25.88347
1138.788, 32.55019
1139.270, 25.41737
1139.752, 17.06909
1140.234, 9.193672
1140.716, 5.414467
1141.198, 15.91887
1141.681, 30.78799
1142.163, 35.46832
1142.645, 25.74245
1143.127, 19.31766
1143.609, 17.87036
1144.091, 18.63184
1144.573, 20.78278
1145.055, 23.96922
1145.537, 28.65965
1146.020, 33.61822
1146.502, 35.77892
1146.984, 33.01337
1147.466, 30.18407
1147.948, 28.40268
1148.430, 26.22163
1148.912, 20.04518
1149.394, 12.70774
1149.877, 21.29250
1150.359, 41.17451
1150.841, 53.22425
1151.323, 41.64156
1151.805, 28.80185
1152.287, 19.33811
1152.769, 13.68613
1153.251, 13.82169
1153.734, 19.10310
1154.216, 21.84636
1154.698, 21.78735
1155.180, 21.05136
1155.662, 19.97918
1156.144, 19.64828
1156.626, 25.11369
1157.108, 29.96358
1157.590, 17.25676
1158.073, 13.16088
1158.555, 25.05260
1159.037, 11.88689
1159.519, 4.890373
1160.001, 9.197464
1160.483, 8.622971
1160.965, 8.856453
1161.447, 9.666000
1161.929, 6.398224
1162.412, 1.961800
1162.894, 2.379776
1163.376, 11.20700
1163.858, 25.06979
1164.340, 21.08516
1164.822, 11.86013
1165.304, 12.56480
1165.786, 26.20964
1166.269, 29.71540
1166.751, 20.64873
1167.233, 14.00069
1167.715, 17.77844
1168.197, 24.43722
1168.679, 22.68625
1169.161, 17.33715
1169.643, 16.05214
1170.125, 23.69620
1170.608, 26.05133
1171.090, 21.68335
1171.572, 16.80444
1172.054, 16.41100
1172.536, 17.39465
1173.018, 11.49567
1173.500, 3.002464
1173.982, 1.910385
1174.464, 21.68469
1174.947, 32.60608
1175.429, 32.19383
1175.911, 26.20673
1176.393, 16.54598
1176.875, 6.355362
1177.357, 2.687798
1177.839, 4.910828
1178.321, 9.328667
1178.804, 16.04528
1179.286, 23.70387
1179.768, 34.45946
1180.250, 41.60637
1180.732, 31.20281
1181.214, 12.14768
1181.696, 8.510986
1182.178, 21.08829
1182.661, 33.21024
1183.143, 41.12869
1183.625, 42.80502
1184.107, 35.98079
1184.589, 25.12520
1185.071, 17.98047
1185.553, 13.35406
1186.035, 6.441048
1186.517, 3.907021
1187.000, 8.793686
1187.482, 0.8012700
1187.964, 10.87740
1188.446, 16.81206
1188.928, 18.82179
1189.410, 15.17250
1189.892, 8.547050
1190.374, 10.89572
1190.856, 27.91112
1191.339, 39.84108
1191.821, 32.96356
1192.303, 22.50462
1192.785, 14.74184
1193.267, 10.26089
1193.749, 13.59933
1194.231, 21.85758
1194.713, 28.03731
1195.195, 29.81911
1195.678, 30.09006
1196.160, 30.35925
1196.642, 28.43916
1197.124, 21.27043
1197.606, 10.10596
1198.088, 6.934868
1198.570, 10.81050
1199.052, 16.33833
1199.535, 23.40926
1200.017, 27.94811
1200.499, 25.18259
1200.981, 21.26707
1201.463, 22.57655
1201.945, 28.96050
1202.427, 28.35284
1202.909, 21.57467
1203.391, 16.19662
1203.874, 16.66032
1204.356, 19.51366
1204.838, 26.16126
1205.320, 32.23490
1205.802, 32.48345
1206.284, 27.01691
1206.766, 20.36348
1207.248, 13.02415
1207.730, 10.80235
1208.213, 25.29243
1208.695, 37.13325
1209.177, 31.54008
1209.659, 19.70927
1210.141, 18.11700
1210.623, 26.36697
1211.105, 30.08500
1211.587, 28.18098
1212.070, 25.92014
1212.552, 27.80419
1213.034, 29.49182
1213.516, 27.74197
1213.998, 24.55103
1214.480, 23.46410
1214.962, 24.39945
1215.444, 26.44960
1215.927, 28.56058
1216.409, 28.31382
1216.891, 23.76168
1217.373, 19.61827
1217.855, 18.10387
1218.337, 17.91114
1218.819, 14.51419
1219.301, 8.517334
1219.783, 9.133217
1220.266, 18.41956
1220.748, 26.40247
1221.230, 25.02637
1221.712, 21.47234
1222.194, 20.25748
1222.676, 20.53840
1223.158, 18.36992
1223.640, 14.37115
1224.122, 15.22166
1224.605, 23.84137
1225.087, 30.23320
1225.569, 23.46125
1226.051, 14.87914
1226.533, 11.65079
1227.015, 12.86551
1227.497, 14.17999
1227.979, 15.90668
1228.462, 20.89835
1228.944, 31.53570
1229.426, 39.65081
1229.908, 38.90397
1230.390, 35.77375
1230.872, 35.24927
1231.354, 35.71355
1231.836, 26.74590
1232.318, 10.88840
1232.801, 1.460999
1233.283, 4.591866
1233.765, 9.980064
1234.247, 14.83646
1234.729, 17.94193
1235.211, 18.03624
1235.693, 15.88143
1236.175, 15.58592
1236.657, 16.32094
1237.140, 14.25569
1237.622, 5.629616
1238.104, 1.053246
1238.586, 2.325211
1239.068, 0.9739300
1239.550, 2.106064
1240.032, 6.502914
1240.514, 10.07523
1240.997, 12.55798
1241.479, 13.41208
1241.961, 10.65067
1242.443, 9.231285
1242.925, 10.42575
1243.407, 13.24039
1243.889, 16.94730
1244.371, 22.43695
1244.854, 21.57461
1245.336, 16.20354
1245.818, 12.89809
1246.300, 14.44189
1246.782, 18.90189
1247.264, 29.47294
1247.746, 36.26706
1248.228, 26.60237
1248.710, 8.421677
1249.193, 6.311340
1249.675, 15.11239
1250.157, 19.06187
1250.639, 1.750481
1251.121, 2.122208
1251.603, 15.17145
1252.085, 33.09673
1252.567, 31.13202
1253.049, 19.21511
1253.532, 15.51956
1254.014, 17.88438
1254.496, 18.23314
1254.978, 9.104698
1255.460, 9.147797
1255.942, 21.67714
1256.424, 34.74130
1256.906, 37.03680
1257.389, 33.79480
1257.871, 32.72052
1258.353, 32.46532
1258.835, 27.34068
1259.317, 12.15503
1259.799, 5.714470
1260.281, 10.30159
1260.763, 17.07681
1261.245, 18.58041
1261.728, 18.02251
1262.210, 18.36390
1262.692, 19.56051
1263.174, 21.13509
1263.656, 23.34647
1264.138, 24.31609
1264.620, 23.76756
1265.102, 23.59853
1265.584, 27.12212
1266.067, 30.05215
1266.549, 27.81988
1267.031, 22.33159
1267.513, 18.67308
1267.995, 16.76091
1268.477, 16.71534
1268.959, 18.57110
1269.441, 19.25851
1269.924, 14.38738
1270.406, 10.72511
1270.888, 13.43542
1271.370, 18.34106
1271.852, 18.23341
1272.334, 13.59069
1272.816, 10.86934
1273.298, 10.58929
1273.781, 11.89523
1274.263, 15.57079
1274.745, 19.20464
1275.227, 22.61340
1275.709, 24.61925
1276.191, 21.78651
1276.673, 16.28253
1277.155, 13.86107
1277.637, 15.07111
1278.120, 19.51755
1278.602, 32.15594
1279.084, 40.85854
1279.566, 42.21890
1280.048, 39.86241
1280.530, 40.46838
1281.012, 40.68918
1281.494, 29.18524
1281.976, 7.303925
1282.459, 6.361938
1282.941, 3.845421
1283.423, 3.334900
1283.905, 15.36330
1284.387, 26.47295
1284.869, 27.87172
1285.351, 25.08273
1285.833, 26.34364
1286.316, 31.21657
1286.798, 31.84758
1287.280, 24.45293
1287.762, 25.76245
1288.244, 40.10556
1288.726, 52.72778
1289.208, 45.69473
1289.690, 32.26186
1290.172, 23.21233
1290.655, 19.44069
1291.137, 20.56974
1291.619, 24.04710
1292.101, 26.66579
1292.583, 29.50934
1293.065, 28.83388
1293.547, 18.90244
1294.029, 9.707626
1294.511, 8.531158
1294.994, 12.56993
1295.476, 19.76202
1295.958, 29.13483
1296.440, 27.36533
1296.922, 12.49469
1297.404, 0.4407810
1297.886, 0.5358730
1298.368, 6.096313
1298.851, 24.23915
1299.333, 32.16295
1299.815, 24.59161
1300.297, 0.0000000E+00
##END=



