##NAMES=Rathite
##RRUFFID=R070691
##IDEAL CHEMISTRY=Ag^1+^_2_Pb^2+^_12-x_Tl^1+^_x/2_As^3+^_18+x/2_S^2-^_40_
##LOCALITY=Lengenbach Quarry, near Imfeld, Binnental, Valais, Switzerland
##OWNER=RRUFF
##SOURCE=James Shigley
##DESCRIPTION=Lead-gray striated metallic crystals associated with dolomite. Known as rathite I.
##STATUS=The identification of this mineral has been confirmed only by single crystal X-ray diffraction.
##URL=rruff.info/R070691
142.1378, 0.0000000E+00
142.6199, 20.16840
143.1021, 39.86487
143.5842, 50.95728
144.0663, 15.70844
144.5484, 1.832581
145.0305, 5.944641
145.5126, 36.02698
145.9948, 58.71942
146.4769, 79.66217
146.9590, 91.32416
147.4411, 87.46539
147.9232, 39.38483
148.4053, 10.21863
148.8875, 16.58075
149.3696, 68.71869
149.8517, 96.80627
150.3338, 81.26752
150.8159, 49.43939
151.2980, 32.25134
151.7802, 48.53778
152.2623, 64.04474
152.7444, 67.56354
153.2265, 50.29187
153.7086, 40.17249
154.1908, 43.68347
154.6729, 56.56879
155.1550, 68.58990
155.6371, 84.81952
156.1192, 95.32404
156.6013, 94.80566
157.0834, 68.98364
157.5656, 45.42511
158.0477, 31.06989
158.5298, 23.75464
159.0119, 19.90167
159.4940, 18.75439
159.9761, 21.88770
160.4583, 30.51544
160.9404, 53.47095
161.4225, 74.43115
161.9046, 88.12628
162.3867, 94.28180
162.8688, 90.78510
163.3510, 65.67883
163.8331, 33.51208
164.3152, 15.39832
164.7973, 15.11548
165.2794, 24.83832
165.7615, 38.11542
166.2437, 56.10083
166.7258, 72.91504
167.2079, 83.75580
167.6900, 85.70374
168.1721, 81.16699
168.6542, 64.47406
169.1364, 43.73090
169.6185, 26.15436
170.1006, 10.45032
170.5827, 2.405334
171.0648, 15.01593
171.5469, 45.75085
172.0291, 70.26990
172.5112, 60.77655
172.9933, 32.11615
173.4754, 9.239868
173.9575, 2.113708
174.4396, 3.499268
174.9218, 6.172485
175.4039, 10.15881
175.8860, 15.00220
176.3681, 22.79315
176.8502, 31.50873
177.3323, 35.96674
177.8144, 30.16156
178.2966, 19.51752
178.7787, 14.07758
179.2608, 14.90942
179.7429, 17.66980
180.2250, 16.35150
180.7071, 11.90594
181.1893, 9.307556
181.6714, 12.68097
182.1535, 20.06976
182.6356, 27.23425
183.1177, 34.76654
183.5998, 39.74329
184.0820, 35.37531
184.5641, 22.01538
185.0462, 7.875671
185.5283, 4.449524
186.0104, 13.62463
186.4925, 12.04639
186.9747, 7.160889
187.4568, 34.64587
187.9389, 44.89380
188.4210, 36.82489
188.9031, 24.11047
189.3852, 21.97046
189.8674, 29.07629
190.3495, 30.23688
190.8316, 14.73077
191.3137, 11.12555
191.7958, 15.31378
192.2779, 5.943909
192.7601, 35.79474
193.2422, 54.75824
193.7243, 62.38428
194.2064, 64.71185
194.6885, 62.42542
195.1706, 55.65759
195.6528, 49.87976
196.1349, 44.88202
196.6170, 41.20624
197.0991, 41.08679
197.5812, 45.28638
198.0633, 47.53345
198.5455, 44.06866
199.0276, 34.59906
199.5097, 23.63702
199.9918, 10.74445
200.4739, 2.645020
200.9560, 11.33826
201.4381, 14.90118
201.9203, 15.17157
202.4024, 12.77173
202.8845, 6.493103
203.3666, 1.347290
203.8487, 0.5529170
204.3308, 0.7306520
204.8130, 8.205017
205.2951, 25.80963
205.7772, 44.26355
206.2593, 56.46307
206.7414, 62.52515
207.2235, 61.76337
207.7057, 50.20258
208.1878, 28.72852
208.6699, 22.32709
209.1520, 37.27417
209.6341, 57.84882
210.1162, 65.95734
210.5984, 57.84644
211.0805, 48.51215
211.5626, 41.72858
212.0447, 37.61591
212.5268, 34.96558
213.0089, 34.33392
213.4911, 34.56824
213.9732, 33.61023
214.4553, 30.64160
214.9374, 28.34967
215.4195, 27.03070
215.9016, 25.50818
216.3838, 30.48187
216.8659, 47.23907
217.3480, 67.79321
217.8301, 72.28516
218.3122, 51.89355
218.7943, 31.65363
219.2765, 23.80780
219.7586, 33.92932
220.2407, 42.03290
220.7228, 47.61682
221.2049, 50.70636
221.6870, 50.78516
222.1691, 45.04803
222.6513, 40.50885
223.1334, 42.19897
223.6155, 54.26807
224.0976, 63.01794
224.5797, 67.33374
225.0618, 67.33331
225.5440, 63.52539
226.0261, 53.79346
226.5082, 42.99115
226.9903, 34.68286
227.4724, 28.70990
227.9545, 25.25415
228.4367, 23.95636
228.9188, 25.09790
229.4009, 30.94739
229.8830, 44.49939
230.3651, 59.55243
230.8472, 70.42267
231.3294, 78.16217
231.8115, 78.96844
232.2936, 68.64850
232.7757, 44.78510
233.2578, 35.39349
233.7399, 49.41846
234.2221, 70.86292
234.7042, 79.58618
235.1863, 66.89081
235.6684, 56.34106
236.1505, 54.80054
236.6326, 64.43652
237.1148, 73.51428
237.5969, 82.69537
238.0790, 90.92798
238.5611, 96.79749
239.0432, 100.6774
239.5253, 101.7283
240.0075, 99.74789
240.4896, 94.83551
240.9717, 85.79306
241.4538, 68.26202
241.9359, 48.26205
242.4180, 38.30515
242.9002, 41.65958
243.3823, 49.72430
243.8644, 60.50006
244.3465, 80.49301
244.8286, 91.39798
245.3107, 89.49603
245.7928, 78.06241
246.2750, 66.49792
246.7571, 54.00961
247.2392, 42.42813
247.7213, 31.76846
248.2034, 18.64359
248.6855, 14.61038
249.1677, 22.25681
249.6498, 39.26483
250.1319, 55.63000
250.6140, 73.03104
251.0961, 85.28415
251.5782, 87.96387
252.0604, 76.07208
252.5425, 66.26315
253.0246, 59.18423
253.5067, 54.19009
253.9888, 52.17459
254.4709, 53.87173
254.9531, 57.55231
255.4352, 63.19876
255.9173, 74.58368
256.3994, 78.64908
256.8815, 71.73297
257.3636, 54.75726
257.8458, 41.04333
258.3279, 28.97205
258.8100, 21.77429
259.2921, 24.51016
259.7742, 43.06757
260.2563, 57.23914
260.7385, 62.95456
261.2206, 60.56433
261.7027, 60.07050
262.1848, 61.47211
262.6669, 63.00116
263.1490, 63.72031
263.6312, 63.40765
264.1133, 63.16049
264.5954, 64.49432
265.0775, 67.25552
265.5596, 62.16290
266.0417, 45.42953
266.5239, 26.62650
267.0060, 15.24384
267.4881, 11.24002
267.9702, 14.92429
268.4523, 29.35080
268.9344, 54.64819
269.4166, 71.21713
269.8987, 77.81812
270.3808, 77.72171
270.8629, 73.49094
271.3450, 63.90515
271.8271, 55.23508
272.3093, 48.40952
272.7914, 43.41724
273.2735, 45.29922
273.7556, 56.23929
274.2377, 70.23029
274.7198, 81.30176
275.2020, 90.65906
275.6841, 90.27203
276.1662, 71.67841
276.6483, 35.25705
277.1304, 17.36719
277.6125, 21.30011
278.0946, 37.00787
278.5768, 52.28180
279.0589, 67.41818
279.5410, 80.19547
280.0231, 91.12067
280.5052, 99.90793
280.9873, 98.97272
281.4695, 85.66632
281.9516, 68.59174
282.4337, 60.02374
282.9158, 60.08041
283.3979, 64.14059
283.8800, 73.53101
284.3622, 87.23431
284.8443, 92.19659
285.3264, 87.16638
285.8085, 77.05411
286.2906, 65.97668
286.7727, 54.20764
287.2549, 48.75653
287.7370, 57.74875
288.2191, 77.61703
288.7012, 88.74600
289.1833, 89.92261
289.6654, 84.41357
290.1476, 72.68140
290.6297, 55.85059
291.1118, 44.16287
291.5939, 46.14172
292.0760, 57.68671
292.5581, 65.47400
293.0403, 68.55948
293.5224, 69.29538
294.0045, 71.42566
294.4866, 74.36179
294.9687, 74.61929
295.4508, 69.74023
295.9330, 60.97705
296.4151, 49.62100
296.8972, 34.74112
297.3793, 22.11923
297.8614, 20.10846
298.3435, 26.80783
298.8257, 35.27032
299.3078, 45.66272
299.7899, 54.50308
300.2720, 54.71475
300.7541, 44.70447
301.2362, 31.22388
301.7184, 16.75620
302.2005, 3.675781
302.6826, 2.211700
303.1647, 8.328979
303.6468, 25.40952
304.1289, 37.44806
304.6111, 43.62408
305.0932, 44.31027
305.5753, 32.08984
306.0574, 13.99228
306.5395, 6.679321
307.0216, 34.38754
307.5038, 67.86191
307.9859, 76.84381
308.4680, 54.94522
308.9501, 27.19730
309.4322, 2.666168
309.9143, 15.15677
310.3965, 18.77222
310.8786, 10.57681
311.3607, 45.12946
311.8428, 65.16586
312.3249, 67.71725
312.8070, 60.65839
313.2892, 37.95810
313.7713, 9.605682
314.2534, 8.112091
314.7355, 0.5336000
315.2176, 14.83572
315.6997, 24.55869
316.1819, 28.29117
316.6640, 28.86639
317.1461, 27.10434
317.6282, 22.90741
318.1103, 16.10220
318.5924, 2.645599
319.0746, 16.10910
319.5567, 13.95432
320.0388, 9.015472
320.5209, 26.04016
321.0030, 23.11230
321.4851, 13.00836
321.9673, 11.75668
322.4494, 36.37787
322.9315, 57.35883
323.4136, 64.64420
323.8957, 54.54361
324.3778, 45.69788
324.8599, 41.86108
325.3420, 39.56232
325.8242, 34.82288
326.3063, 17.54041
326.7884, 7.656219
327.2705, 13.39697
327.7526, 40.36237
328.2347, 55.27298
328.7169, 48.39301
329.1990, 33.98117
329.6811, 26.48801
330.1632, 31.40540
330.6453, 35.99988
331.1274, 38.26633
331.6096, 38.50925
332.0917, 36.54211
332.5738, 31.71512
333.0559, 25.78351
333.5380, 20.34915
334.0201, 14.68448
334.5023, 12.98352
334.9844, 15.72830
335.4665, 22.93704
335.9486, 32.35989
336.4307, 47.52029
336.9128, 59.45917
337.3950, 56.01230
337.8771, 32.01331
338.3592, 18.09583
338.8413, 24.59741
339.3234, 46.66446
339.8055, 53.29608
340.2877, 40.42722
340.7698, 25.53177
341.2519, 25.74985
341.7340, 41.84781
342.2161, 55.33508
342.6982, 63.74924
343.1804, 66.64981
343.6625, 59.27753
344.1446, 40.52002
344.6267, 23.60144
345.1088, 18.53342
345.5909, 24.29999
346.0731, 37.70337
346.5552, 64.10776
347.0373, 90.42712
347.5194, 87.52753
348.0015, 57.12909
348.4836, 27.21811
348.9658, 16.86209
349.4479, 21.91663
349.9300, 33.69818
350.4121, 54.14127
350.8942, 73.63864
351.3763, 78.17798
351.8585, 70.33636
352.3406, 61.10428
352.8227, 52.59375
353.3048, 47.49606
353.7869, 51.61676
354.2690, 69.45444
354.7512, 86.41077
355.2333, 87.57922
355.7154, 78.14264
356.1975, 70.89551
356.6796, 76.88678
357.1617, 85.19919
357.6439, 85.56442
358.1260, 74.21167
358.6081, 64.45319
359.0902, 64.58441
359.5723, 70.84964
360.0544, 76.94928
360.5366, 83.14401
361.0187, 86.50134
361.5008, 83.96130
361.9829, 73.61069
362.4650, 66.06360
362.9471, 67.84146
363.4293, 73.07169
363.9114, 74.52942
364.3935, 59.39389
364.8756, 50.94028
365.3577, 62.02081
365.8398, 98.10382
366.3220, 117.4541
366.8041, 102.3776
367.2862, 74.92239
367.7683, 55.39441
368.2504, 49.48312
368.7325, 46.53018
369.2146, 42.48718
369.6967, 37.23297
370.1789, 43.84073
370.6610, 76.85641
371.1431, 107.3433
371.6252, 110.5959
372.1073, 67.98987
372.5894, 37.45340
373.0716, 29.09151
373.5537, 39.00548
374.0358, 42.28703
374.5179, 35.92523
375.0000, 29.34593
375.4821, 29.99739
375.9643, 39.46353
376.4464, 47.24081
376.9285, 52.52518
377.4106, 54.75739
377.8927, 50.36432
378.3748, 37.64072
378.8570, 27.01289
379.3391, 26.96765
379.8212, 36.04185
380.3033, 39.89395
380.7854, 36.47304
381.2675, 29.52940
381.7497, 24.07986
382.2318, 20.09097
382.7139, 17.95355
383.1960, 21.20447
383.6781, 25.91174
384.1602, 20.88116
384.6424, 3.680405
385.1245, 12.50381
385.6066, 12.12411
386.0887, 0.2666170
386.5708, 13.00409
387.0529, 25.01889
387.5351, 32.64276
388.0172, 28.31355
388.4993, 11.57458
388.9814, 2.270416
389.4635, 3.409164
389.9456, 16.47618
390.4278, 20.76083
390.9099, 2.440338
391.3920, 24.63457
391.8741, 27.48837
392.3562, 12.79417
392.8383, 0.8457490
393.3205, 4.257263
393.8026, 11.27167
394.2847, 12.74469
394.7668, 0.9875790
395.2489, 10.27078
395.7310, 19.91158
396.2132, 27.28342
396.6953, 29.58037
397.1774, 19.96890
397.6595, 10.09677
398.1416, 5.627884
398.6237, 12.46223
399.1059, 15.78099
399.5880, 13.31895
400.0701, 7.739197
400.5522, 5.014435
401.0343, 7.031082
401.5164, 9.084305
401.9986, 8.452286
402.4807, 2.987930
402.9628, 4.871964
403.4449, 16.59659
403.9270, 32.90414
404.4091, 48.58894
404.8913, 65.72205
405.3734, 72.15637
405.8555, 58.36082
406.3376, 27.43848
406.8197, 17.70935
407.3018, 33.35220
407.7840, 52.22034
408.2661, 48.47137
408.7482, 24.44707
409.2303, 5.800217
409.7124, 0.6186220
410.1945, 2.397583
410.6767, 12.61676
411.1588, 29.46785
411.6409, 43.44505
412.1230, 44.92149
412.6051, 38.57182
413.0872, 33.86147
413.5693, 33.04523
414.0515, 33.71788
414.5336, 33.45383
415.0157, 32.59566
415.4978, 32.20740
415.9799, 30.86420
416.4620, 31.39258
416.9442, 38.25314
417.4263, 54.64677
417.9084, 66.78517
418.3905, 63.81026
418.8726, 52.27902
419.3547, 42.24695
419.8369, 37.06322
420.3190, 33.95984
420.8011, 32.17241
421.2832, 31.80133
421.7653, 31.41779
422.2474, 30.67088
422.7296, 29.83882
423.2117, 29.15450
423.6938, 28.79054
424.1759, 28.50029
424.6580, 28.73727
425.1401, 29.46342
425.6223, 28.83224
426.1044, 26.50719
426.5865, 22.80231
427.0686, 16.76976
427.5507, 5.407166
428.0328, 0.5441130
428.5150, 4.959045
428.9971, 15.17406
429.4792, 23.23712
429.9613, 29.74524
430.4434, 31.99016
430.9255, 25.89879
431.4077, 11.79599
431.8898, 5.682526
432.3719, 9.411484
432.8540, 16.12949
433.3361, 14.19916
433.8182, 5.184875
434.3004, 2.146500
434.7825, 16.23929
435.2646, 38.22572
435.7467, 45.13498
436.2288, 36.42465
436.7109, 27.08080
437.1931, 32.08066
437.6752, 44.20107
438.1573, 51.02034
438.6394, 47.52657
439.1215, 39.65228
439.6036, 28.88582
440.0858, 16.74724
440.5679, 9.063416
441.0500, 13.10384
441.5321, 20.07695
442.0142, 22.95920
442.4963, 17.84952
442.9785, 13.87553
443.4606, 16.78905
443.9427, 24.34497
444.4248, 30.81462
444.9069, 36.15433
445.3890, 38.93835
445.8712, 37.70293
446.3533, 30.97585
446.8354, 26.74780
447.3175, 26.37401
447.7996, 28.57584
448.2817, 32.84413
448.7639, 41.80920
449.2460, 45.17024
449.7281, 41.29752
450.2102, 32.90324
450.6923, 27.94940
451.1744, 25.48477
451.6566, 25.62755
452.1387, 31.65543
452.6208, 44.95763
453.1029, 48.68527
453.5850, 37.71100
454.0671, 22.11391
454.5493, 22.29462
455.0314, 36.96947
455.5135, 49.13321
455.9956, 49.02248
456.4777, 40.51031
456.9598, 30.56337
457.4420, 19.12427
457.9240, 9.579254
458.4062, 4.257446
458.8883, 3.199509
459.3704, 6.410690
459.8525, 18.20547
460.3346, 30.62814
460.8167, 38.91466
461.2989, 43.24887
461.7810, 43.78154
462.2631, 34.82358
462.7452, 25.59540
463.2273, 23.65211
463.7094, 37.23705
464.1916, 46.77069
464.6737, 42.85394
465.1558, 31.62782
465.6379, 26.88641
466.1200, 36.22702
466.6021, 47.16220
467.0843, 57.49785
467.5664, 69.03853
468.0485, 70.87985
468.5306, 56.61736
469.0127, 38.33923
469.4948, 29.27303
469.9770, 32.54034
470.4591, 35.69424
470.9412, 35.66240
471.4233, 33.69852
471.9054, 37.05673
472.3875, 46.99203
472.8697, 55.59885
473.3518, 54.31754
473.8339, 45.22649
474.3160, 44.76416
474.7981, 57.34018
475.2802, 71.71695
475.7624, 70.89038
476.2445, 57.72690
476.7266, 43.63306
477.2087, 32.17023
477.6908, 24.00713
478.1729, 21.00034
478.6551, 23.27504
479.1372, 25.83081
479.6193, 26.44492
480.1014, 25.01176
480.5835, 21.37610
481.0656, 12.53558
481.5478, 4.528427
482.0299, 1.532272
482.5120, 5.251663
482.9941, 4.988129
483.4762, 2.432175
483.9583, 11.75468
484.4405, 20.91867
484.9226, 31.52328
485.4047, 38.02805
485.8868, 36.58777
486.3689, 33.19347
486.8510, 37.21841
487.3332, 56.67487
487.8153, 66.62613
488.2974, 56.15102
488.7795, 27.85640
489.2616, 18.64977
489.7437, 34.48404
490.2259, 52.95953
490.7080, 54.04857
491.1901, 38.18512
491.6722, 20.96843
492.1543, 3.236252
492.6364, 10.32915
493.1186, 10.03738
493.6007, 2.173492
494.0828, 14.59454
494.5649, 22.30873
495.0470, 25.82784
495.5291, 23.54189
496.0113, 14.01289
496.4934, 8.504501
496.9755, 21.81270
497.4576, 42.70367
497.9397, 57.06503
498.4218, 56.35515
498.9040, 51.63628
499.3861, 45.65374
499.8682, 38.89809
500.3503, 33.61768
500.8324, 28.24438
501.3145, 26.26352
501.7967, 29.99004
502.2788, 44.27531
502.7609, 55.07307
503.2430, 63.51071
503.7251, 68.48811
504.2072, 66.55513
504.6893, 53.93980
505.1714, 42.09158
505.6536, 34.94637
506.1357, 31.94011
506.6178, 24.06070
507.0999, 9.130486
507.5820, 1.644806
508.0641, 5.816246
508.5463, 28.61216
509.0284, 41.06351
509.5105, 37.32765
509.9926, 26.32523
510.4747, 17.20553
510.9568, 10.87257
511.4390, 10.84639
511.9211, 27.84641
512.4032, 47.29504
512.8853, 50.76591
513.3674, 37.12935
513.8495, 23.32358
514.3317, 20.24564
514.8138, 21.67719
515.2959, 21.37437
515.7780, 8.743294
516.2601, 3.836990
516.7422, 21.43115
517.2244, 53.03964
517.7065, 68.11651
518.1886, 42.86343
518.6707, 19.28546
519.1528, 13.69836
519.6349, 33.70958
520.1171, 41.78495
520.5992, 32.98114
521.0813, 17.78005
521.5634, 6.039322
522.0455, 3.282166
522.5276, 1.951714
523.0098, 16.38404
523.4919, 44.20396
523.9740, 56.50689
524.4561, 53.16846
524.9382, 45.37206
525.4203, 37.74010
525.9025, 31.57007
526.3846, 30.39100
526.8667, 35.07846
527.3488, 42.06034
527.8309, 52.65419
528.3130, 62.64838
528.7952, 64.46994
529.2773, 44.78166
529.7594, 25.00977
530.2415, 17.97686
530.7236, 22.68015
531.2057, 29.18713
531.6879, 37.03693
532.1700, 43.67782
532.6521, 47.16705
533.1342, 44.29851
533.6163, 44.02440
534.0984, 51.39344
534.5806, 59.37622
535.0627, 55.73607
535.5448, 31.69009
536.0269, 15.10117
536.5090, 15.89524
536.9911, 31.37288
537.4733, 39.04485
537.9554, 37.61749
538.4375, 33.98166
538.9196, 33.98756
539.4017, 36.75128
539.8839, 36.12456
540.3660, 30.26879
540.8481, 23.78603
541.3302, 23.93407
541.8123, 28.13415
542.2944, 30.02461
542.7766, 21.40024
543.2587, 12.72404
543.7408, 17.10918
544.2229, 33.43806
544.7050, 42.32967
545.1871, 24.31777
545.6693, 1.411148
546.1514, 9.426826
546.6335, 5.725555
547.1156, 15.47729
547.5977, 8.138725
548.0798, 6.195366
548.5620, 7.409584
549.0441, 15.59232
549.5262, 34.57497
550.0083, 42.09662
550.4904, 37.80577
550.9725, 30.55109
551.4547, 19.92278
551.9368, 9.281219
552.4189, 1.5720000E-03
552.9010, 7.599182
553.3831, 6.601982
553.8652, 5.312553
554.3474, 22.17388
554.8295, 38.07777
555.3116, 52.11847
555.7937, 60.95062
556.2758, 63.33961
556.7579, 59.47328
557.2401, 44.38352
557.7222, 19.28713
558.2043, 2.246941
558.6864, 12.75134
559.1685, 29.20411
559.6506, 33.94878
560.1328, 15.13938
560.6149, 0.6043780
561.0970, 8.571060
561.5791, 10.38510
562.0612, 8.877518
562.5433, 2.858459
563.0255, 4.022789
563.5076, 11.08646
563.9897, 18.23048
564.4718, 26.86337
564.9539, 38.97511
565.4360, 46.70486
565.9182, 40.64286
566.4003, 22.13620
566.8824, 15.93552
567.3645, 27.32964
567.8466, 42.21184
568.3287, 37.91990
568.8109, 21.69305
569.2930, 11.42249
569.7750, 21.46902
570.2571, 37.36285
570.7393, 45.75456
571.2214, 47.27293
571.7035, 45.36411
572.1856, 35.70502
572.6677, 27.40704
573.1498, 27.77681
573.6320, 43.47110
574.1141, 54.18151
574.5962, 53.47954
575.0783, 47.40852
575.5604, 43.90530
576.0425, 45.89671
576.5247, 45.17543
577.0068, 37.69192
577.4889, 26.04027
577.9710, 23.43105
578.4531, 32.34299
578.9352, 39.14528
579.4174, 31.52522
579.8995, 12.76069
580.3816, 5.873772
580.8637, 13.00571
581.3458, 23.94016
581.8279, 28.74022
582.3101, 29.33798
582.7922, 29.77568
583.2743, 31.49839
583.7564, 33.25671
584.2385, 35.03406
584.7206, 36.25780
585.2028, 35.21530
585.6849, 25.42762
586.1670, 18.15207
586.6491, 21.42737
587.1312, 39.79281
587.6133, 47.55888
588.0955, 34.55522
588.5776, 18.42021
589.0597, 13.97756
589.5418, 27.85498
590.0239, 33.76637
590.5060, 26.31423
590.9882, 12.78438
591.4703, 10.36459
591.9524, 19.31541
592.4345, 25.95090
592.9166, 21.13609
593.3987, 10.74958
593.8809, 9.982872
594.3630, 18.45127
594.8451, 27.41348
595.3272, 28.23490
595.8093, 26.90435
596.2914, 31.95862
596.7736, 48.88580
597.2557, 61.18486
597.7378, 57.62357
598.2199, 45.42410
598.7020, 35.26759
599.1841, 27.88519
599.6663, 24.58146
600.1484, 27.01617
600.6305, 34.24996
601.1126, 40.87389
601.5947, 48.31195
602.0768, 52.44607
602.5590, 49.71097
603.0411, 39.44016
603.5232, 33.28230
604.0053, 31.71744
604.4874, 31.04550
604.9695, 22.55174
605.4517, 8.977356
605.9338, 0.3385770
606.4159, 0.3727950
606.8980, 6.519676
607.3801, 18.51403
607.8622, 33.75323
608.3444, 44.66505
608.8265, 45.29666
609.3086, 42.61023
609.7907, 39.04698
610.2728, 34.55263
610.7549, 33.54893
611.2371, 45.26988
611.7192, 55.92725
612.2013, 55.54269
612.6834, 33.74720
613.1655, 22.25559
613.6476, 24.19157
614.1298, 33.73225
614.6119, 43.93730
615.0940, 55.83466
615.5761, 57.86690
616.0582, 41.42041
616.5403, 16.67822
617.0225, 10.40464
617.5046, 20.74934
617.9867, 29.32115
618.4688, 17.41216
618.9509, 0.1192250
619.4330, 4.084717
619.9152, 8.787148
620.3973, 23.91930
620.8794, 36.78485
621.3615, 45.92601
621.8436, 50.09273
622.3257, 47.17137
622.8079, 41.36821
623.2900, 30.23656
623.7721, 17.06956
624.2542, 9.384720
624.7363, 10.60873
625.2184, 9.375679
625.7006, 1.659500
626.1827, 18.68514
626.6648, 11.32481
627.1469, 23.04179
627.6290, 55.16163
628.1111, 56.98540
628.5933, 38.82802
629.0754, 31.28597
629.5575, 39.45668
630.0396, 48.49095
630.5217, 43.40012
631.0038, 31.63895
631.4860, 23.85397
631.9681, 30.75156
632.4502, 34.72434
632.9323, 23.10520
633.4144, 2.643105
633.8965, 4.324318
634.3787, 17.68546
634.8608, 38.44000
635.3429, 49.59946
635.8250, 50.93729
636.3071, 50.94724
636.7892, 49.01380
637.2714, 47.40002
637.7535, 50.14274
638.2356, 56.11133
638.7177, 53.15681
639.1998, 38.22830
639.6819, 21.57354
640.1641, 15.48631
640.6462, 16.70679
641.1283, 17.99752
641.6104, 15.93077
642.0925, 13.85997
642.5746, 13.43922
643.0568, 14.67561
643.5389, 17.57375
644.0210, 23.46514
644.5031, 29.79958
644.9852, 35.79559
645.4673, 41.61395
645.9495, 46.54368
646.4316, 53.01756
646.9137, 55.15773
647.3958, 45.31078
647.8779, 21.56536
648.3600, 9.909996
648.8422, 14.39500
649.3243, 25.52735
649.8064, 32.82449
650.2885, 36.17051
650.7706, 34.76302
651.2527, 24.97861
651.7349, 14.22361
652.2170, 8.024902
652.6991, 6.534447
653.1812, 10.50301
653.6633, 30.00750
654.1454, 46.41959
654.6276, 48.03030
655.1097, 31.58564
655.5918, 23.16158
656.0739, 29.80913
656.5560, 38.60186
657.0381, 41.30801
657.5203, 36.42255
658.0024, 31.37099
658.4845, 25.77937
658.9666, 21.42937
659.4487, 22.70197
659.9308, 28.34621
660.4129, 29.55781
660.8950, 20.46381
661.3771, 10.59166
661.8593, 15.59814
662.3414, 30.13400
662.8235, 38.24118
663.3056, 21.92900
663.7877, 5.639984
664.2698, 5.489746
664.7520, 22.50996
665.2341, 34.93774
665.7162, 39.33131
666.1983, 38.11026
666.6804, 30.62525
667.1625, 12.02194
667.6447, 4.335205
668.1268, 11.21376
668.6089, 22.21117
669.0910, 24.13264
669.5731, 17.89542
670.0552, 13.60567
670.5374, 14.10959
671.0195, 16.06322
671.5016, 13.65740
671.9837, 8.882019
672.4658, 7.265602
672.9479, 16.89627
673.4301, 25.66496
673.9122, 24.27679
674.3943, 13.96799
674.8764, 7.142418
675.3585, 10.10623
675.8406, 14.02885
676.3228, 14.16348
676.8049, 8.754257
677.2870, 9.343796
677.7691, 17.62884
678.2512, 29.31622
678.7333, 43.49799
679.2155, 59.65642
679.6976, 64.34668
680.1797, 53.29016
680.6618, 38.30509
681.1439, 36.65783
681.6260, 42.28230
682.1082, 41.29509
682.5903, 20.58598
683.0724, 1.015610
683.5545, 12.68564
684.0366, 17.11226
684.5187, 18.35418
685.0009, 18.71363
685.4830, 15.16571
685.9651, 5.187149
686.4472, 11.50979
686.9293, 24.56304
687.4114, 34.33710
687.8936, 39.63218
688.3757, 38.02345
688.8578, 30.10992
689.3399, 22.88371
689.8220, 16.48154
690.3041, 11.74260
690.7863, 8.882111
691.2684, 8.403877
691.7505, 11.55233
692.2326, 22.12126
692.7147, 31.40191
693.1968, 32.39129
693.6790, 29.21476
694.1611, 29.06047
694.6432, 38.78622
695.1253, 45.71848
695.6074, 47.74156
696.0895, 45.08652
696.5717, 37.34570
697.0538, 21.70580
697.5359, 9.839424
698.0180, 7.934875
698.5001, 14.58063
698.9822, 23.60724
699.4644, 35.13070
699.9465, 44.26080
700.4286, 45.87952
700.9107, 43.37527
701.3928, 40.58923
701.8749, 37.57855
702.3571, 36.97627
702.8392, 43.28135
703.3213, 51.14718
703.8034, 55.22003
704.2855, 49.45541
704.7676, 47.04932
705.2498, 51.98051
705.7319, 58.52126
706.2140, 54.64052
706.6961, 37.73710
707.1782, 24.72092
707.6603, 21.76310
708.1425, 24.57718
708.6246, 23.01269
709.1067, 17.77512
709.5888, 13.35440
710.0709, 12.44247
710.5530, 13.59758
711.0352, 15.26935
711.5173, 17.46659
711.9994, 21.62959
712.4815, 32.70806
712.9636, 42.56435
713.4457, 46.10397
713.9279, 41.83429
714.4100, 35.26412
714.8921, 23.21916
715.3742, 13.25403
715.8563, 14.68826
716.3384, 27.56469
716.8206, 40.83968
717.3027, 53.64156
717.7848, 61.13882
718.2669, 52.37750
718.7490, 34.12038
719.2311, 22.76646
719.7133, 30.13349
720.1954, 38.79783
720.6775, 36.45268
721.1596, 27.11008
721.6417, 20.92670
722.1238, 21.04907
722.6060, 24.22854
723.0881, 31.11913
723.5702, 40.89414
724.0523, 46.83894
724.5344, 48.92281
725.0165, 47.42505
725.4987, 40.00433
725.9808, 28.39921
726.4629, 23.72787
726.9450, 26.18517
727.4271, 29.55051
727.9092, 26.85413
728.3914, 23.12304
728.8735, 26.16812
729.3556, 39.99309
729.8377, 48.90721
730.3198, 42.76212
730.8019, 30.59507
731.2841, 21.18181
731.7662, 12.85992
732.2483, 11.32368
732.7304, 19.20183
733.2125, 31.60092
733.6946, 41.44759
734.1768, 48.79338
734.6589, 52.00573
735.1410, 49.31359
735.6231, 44.25914
736.1052, 42.48916
736.5873, 43.19262
737.0695, 43.74202
737.5516, 42.58457
738.0337, 41.07555
738.5158, 40.57836
738.9979, 40.80539
739.4800, 39.12897
739.9622, 29.26497
740.4443, 23.62071
740.9264, 29.30209
741.4085, 46.74692
741.8906, 49.82547
742.3727, 35.64985
742.8549, 20.64386
743.3370, 19.55389
743.8191, 28.89213
744.3012, 34.86173
744.7833, 35.92542
745.2654, 35.18864
745.7476, 35.66848
746.2297, 35.59544
746.7118, 32.39621
747.1939, 21.83698
747.6760, 15.29969
748.1581, 18.25935
748.6403, 25.61059
749.1224, 31.71507
749.6044, 37.83421
750.0865, 38.60546
750.5687, 31.64846
751.0508, 21.03886
751.5329, 14.08038
752.0150, 10.79231
752.4971, 11.06709
752.9792, 17.04254
753.4614, 24.37084
753.9435, 26.42567
754.4256, 25.29526
754.9077, 27.53038
755.3898, 44.77849
755.8719, 57.67096
756.3541, 54.71050
756.8362, 35.88191
757.3183, 23.09980
757.8004, 17.17667
758.2825, 15.47841
758.7646, 17.33088
759.2468, 22.60962
759.7289, 30.81018
760.2110, 42.50354
760.6931, 49.85946
761.1752, 40.98998
761.6573, 25.55942
762.1395, 19.27570
762.6216, 24.86403
763.1037, 32.25647
763.5858, 39.90139
764.0679, 44.85614
764.5500, 44.31323
765.0322, 33.61764
765.5143, 24.47689
765.9964, 15.74198
766.4785, 9.866074
766.9606, 11.93593
767.4427, 22.50594
767.9249, 27.15813
768.4070, 21.50866
768.8891, 13.91724
769.3712, 18.20696
769.8533, 29.76736
770.3354, 37.65257
770.8176, 36.24562
771.2997, 31.50876
771.7818, 27.54118
772.2639, 22.59666
772.7460, 11.84146
773.2281, 18.17178
773.7103, 36.50183
774.1924, 34.00719
774.6745, 15.25259
775.1566, 2.377655
775.6387, 19.27599
776.1208, 31.12127
776.6030, 32.03831
777.0851, 27.77307
777.5672, 31.75755
778.0493, 42.34163
778.5314, 48.07893
779.0135, 34.65630
779.4957, 21.32761
779.9778, 20.92442
780.4599, 33.81202
780.9420, 41.54277
781.4241, 41.87228
781.9063, 39.49885
782.3884, 36.16838
782.8705, 31.55523
783.3526, 29.44196
783.8347, 30.08196
784.3168, 31.68892
784.7990, 32.78680
785.2811, 33.59379
785.7632, 34.26294
786.2453, 34.60588
786.7274, 36.11100
787.2095, 44.49102
787.6917, 51.98885
788.1738, 50.78148
788.6559, 26.42532
789.1380, 14.61004
789.6201, 22.77401
790.1022, 37.39009
790.5844, 41.32994
791.0665, 33.85844
791.5486, 25.39845
792.0307, 16.57415
792.5128, 10.29280
792.9949, 10.72652
793.4771, 16.81157
793.9592, 26.46609
794.4413, 45.50629
794.9234, 59.62179
795.4055, 56.36554
795.8876, 43.42291
796.3698, 37.98178
796.8519, 47.93375
797.3340, 55.71276
797.8161, 57.64297
798.2982, 55.66021
798.7803, 55.38344
799.2625, 56.82988
799.7446, 59.09940
800.2267, 63.99165
800.7088, 67.80602
801.1909, 63.10415
801.6730, 51.81680
802.1552, 41.56655
802.6373, 35.45043
803.1194, 31.77022
803.6015, 27.76765
804.0836, 24.04146
804.5657, 31.38469
805.0479, 60.28501
805.5300, 80.86060
806.0121, 76.77315
806.4942, 51.80819
806.9763, 35.08665
807.4584, 26.50788
807.9406, 22.81035
808.4227, 23.48307
808.9048, 26.84057
809.3869, 32.02896
809.8690, 39.29227
810.3511, 43.94441
810.8333, 38.64894
811.3154, 33.48463
811.7975, 34.96661
812.2796, 45.18259
812.7617, 51.45431
813.2438, 53.52300
813.7260, 51.49802
814.2081, 41.63976
814.6902, 26.84786
815.1723, 23.02714
815.6544, 32.19413
816.1365, 41.15892
816.6187, 37.51170
817.1008, 28.20696
817.5829, 19.52006
818.0650, 10.05223
818.5471, 8.930157
819.0292, 30.75159
819.5114, 52.67234
819.9935, 53.64315
820.4756, 26.15658
820.9577, 13.31562
821.4398, 20.39506
821.9219, 34.16327
822.4041, 40.14157
822.8862, 39.77589
823.3683, 35.61757
823.8504, 25.90964
824.3325, 19.46670
824.8146, 26.19674
825.2968, 38.03504
825.7789, 44.95967
826.2610, 41.14044
826.7431, 37.10108
827.2252, 32.39525
827.7073, 28.39466
828.1895, 27.94657
828.6716, 31.14637
829.1537, 33.10624
829.6358, 32.81014
830.1179, 30.89207
830.6000, 26.46582
831.0822, 19.96764
831.5643, 15.03898
832.0464, 18.23310
832.5285, 20.83953
833.0106, 16.15508
833.4927, 8.086197
833.9749, 6.850140
834.4570, 16.89467
834.9391, 23.42374
835.4212, 24.39212
835.9033, 19.79545
836.3854, 3.333530
836.8676, 21.35781
837.3497, 31.99670
837.8318, 11.59517
838.3139, 15.66636
838.7960, 29.68803
839.2781, 33.99603
839.7602, 35.51406
840.2423, 31.70736
840.7244, 30.97728
841.2065, 38.02269
841.6887, 48.49870
842.1708, 47.94004
842.6529, 34.70214
843.1350, 23.22113
843.6171, 18.34418
844.0992, 18.37016
844.5814, 22.34129
845.0635, 28.88272
845.5456, 33.49858
846.0277, 32.98650
846.5098, 31.02077
846.9919, 27.71265
847.4741, 24.17490
847.9562, 24.75048
848.4383, 30.49244
848.9204, 38.66832
849.4025, 50.64343
849.8846, 63.43540
850.3668, 64.38803
850.8489, 54.86528
851.3310, 48.04214
851.8131, 57.22464
852.2952, 67.44308
852.7773, 62.05066
853.2595, 44.70806
853.7416, 29.99332
854.2237, 19.53186
854.7058, 16.01070
855.1879, 23.34952
855.6700, 38.41954
856.1522, 43.56395
856.6343, 37.53237
857.1164, 31.31403
857.5985, 30.94807
858.0806, 33.01855
858.5627, 32.11274
859.0449, 29.20612
859.5270, 27.78542
860.0091, 31.21133
860.4912, 35.15269
860.9733, 38.21406
861.4554, 40.03382
861.9376, 39.29991
862.4197, 35.61819
862.9018, 29.95192
863.3839, 20.84816
863.8660, 10.66284
864.3481, 9.588333
864.8303, 16.59225
865.3124, 23.55556
865.7945, 28.40234
866.2766, 29.04968
866.7587, 16.75647
867.2408, 4.038795
867.7230, 9.455807
868.2051, 32.20171
868.6872, 60.13794
869.1693, 52.05894
869.6514, 16.01641
870.1335, 1.041557
870.6157, 1.539360
871.0978, 9.446194
871.5799, 17.43583
872.0620, 24.80576
872.5441, 30.42538
873.0262, 34.59827
873.5084, 38.09401
873.9905, 41.39152
874.4726, 44.61896
874.9547, 47.76197
875.4368, 50.87013
875.9189, 54.66637
876.4011, 60.46018
876.8832, 61.82243
877.3653, 52.32801
877.8474, 39.01036
878.3295, 45.77467
878.8116, 66.88862
879.2938, 77.95590
879.7759, 54.60258
880.2580, 28.91001
880.7401, 23.07431
881.2222, 33.00021
881.7043, 33.23288
882.1865, 14.35240
882.6686, 0.5407260
883.1507, 0.3761100
883.6328, 7.970577
884.1149, 15.32757
884.5970, 21.44597
885.0792, 24.65653
885.5613, 20.75149
886.0434, 16.39293
886.5255, 19.24616
887.0076, 26.73518
887.4897, 30.79403
887.9719, 25.91996
888.4540, 21.40687
888.9361, 19.13654
889.4182, 18.63213
889.9003, 17.54013
890.3824, 15.73891
890.8646, 18.54700
891.3467, 31.99496
891.8288, 45.84321
892.3109, 43.16377
892.7930, 29.78173
893.2751, 19.85186
893.7573, 25.57554
894.2394, 27.98724
894.7215, 13.99160
895.2036, 6.121140
895.6857, 8.763123
896.1678, 9.552387
896.6500, 23.31813
897.1321, 25.23867
897.6142, 21.36953
898.0963, 21.28562
898.5784, 23.68045
899.0605, 25.39486
899.5427, 26.44569
900.0248, 25.03558
900.5069, 16.05204
900.9890, 5.361443
901.4711, 4.330898
901.9532, 18.31754
902.4354, 27.10195
902.9175, 26.85945
903.3996, 22.58380
903.8817, 21.90620
904.3638, 23.98528
904.8459, 26.14236
905.3281, 27.86036
905.8102, 28.99541
906.2923, 30.60636
906.7744, 31.10783
907.2565, 27.96256
907.7386, 14.47052
908.2208, 9.771500
908.7029, 17.51971
909.1850, 29.51071
909.6671, 37.27136
910.1492, 40.60232
910.6313, 37.13681
911.1135, 25.06146
911.5956, 13.21471
912.0777, 7.951065
912.5598, 7.414997
913.0419, 10.44276
913.5240, 22.48466
914.0062, 24.28012
914.4883, 7.547054
914.9704, 8.749489
915.4525, 3.742546
915.9346, 20.27319
916.4167, 30.79590
916.8989, 24.86245
917.3810, 14.87553
917.8631, 7.430965
918.3452, 3.822342
918.8273, 7.180664
919.3094, 19.95686
919.7916, 27.32544
920.2737, 22.95851
920.7558, 17.75479
921.2379, 18.43745
921.7200, 24.93095
922.2021, 27.25031
922.6843, 25.25530
923.1664, 23.28681
923.6485, 26.22290
924.1306, 30.28275
924.6127, 29.06757
925.0948, 22.05114
925.5770, 18.00717
926.0591, 25.59024
926.5412, 31.13699
927.0233, 28.83858
927.5054, 19.91751
927.9875, 16.13675
928.4697, 17.89145
928.9517, 17.91482
929.4338, 8.468597
929.9160, 2.473667
930.3981, 4.982471
930.8802, 0.3674350
931.3623, 6.012680
931.8444, 14.56195
932.3265, 22.56359
932.8087, 30.23901
933.2908, 36.40229
933.7729, 35.19812
934.2550, 26.33683
934.7371, 15.36183
935.2192, 1.568916
935.7014, 9.463711
936.1835, 9.078857
936.6656, 0.6180610
937.1477, 8.772400
937.6298, 20.39762
938.1119, 28.49556
938.5941, 29.66279
939.0762, 27.48512
939.5583, 26.78379
940.0404, 27.82012
940.5225, 25.57243
941.0046, 17.74483
941.4868, 11.38972
941.9689, 17.45471
942.4510, 29.48632
942.9331, 37.69764
943.4152, 39.20240
943.8973, 37.86870
944.3795, 31.35270
944.8616, 24.89196
945.3437, 23.79417
945.8258, 29.11990
946.3079, 28.36323
946.7900, 20.23637
947.2722, 11.90481
947.7543, 10.83019
948.2364, 13.20039
948.7185, 14.56561
949.2006, 14.39264
949.6827, 14.68893
950.1649, 15.79780
950.6470, 18.14729
951.1291, 23.23329
951.6112, 31.07690
952.0933, 29.37769
952.5754, 17.44976
953.0576, 8.885586
953.5397, 19.56084
954.0218, 35.08798
954.5039, 34.21703
954.9860, 19.94140
955.4681, 11.66013
955.9503, 24.63474
956.4324, 33.72789
956.9145, 29.83607
957.3966, 17.29185
957.8787, 12.07693
958.3608, 14.04323
958.8430, 16.60925
959.3251, 15.07742
959.8072, 15.91565
960.2893, 32.22428
960.7714, 55.55207
961.2535, 68.22993
961.7357, 52.50080
962.2178, 43.95557
962.6999, 51.60199
963.1820, 63.44001
963.6641, 58.28257
964.1462, 37.63461
964.6284, 27.07167
965.1105, 33.24095
965.5926, 41.53305
966.0747, 37.28222
966.5568, 27.88392
967.0389, 21.65320
967.5211, 20.81960
968.0032, 22.11475
968.4853, 26.53331
968.9674, 31.06829
969.4495, 34.12742
969.9316, 35.50976
970.4138, 31.83363
970.8959, 23.10284
971.3780, 15.61475
971.8601, 13.12437
972.3422, 14.62711
972.8243, 21.66410
973.3065, 35.46712
973.7886, 40.11762
974.2707, 28.40969
974.7528, 19.71065
975.2349, 24.04918
975.7170, 36.08722
976.1992, 37.66626
976.6813, 30.47163
977.1634, 22.88812
977.6455, 15.43768
978.1276, 12.68078
978.6097, 21.64583
979.0919, 36.85985
979.5740, 44.68135
980.0561, 44.58725
980.5382, 35.90328
981.0203, 15.28781
981.5024, 6.103642
981.9846, 4.750443
982.4667, 11.27037
982.9488, 19.60023
983.4309, 11.20564
983.9130, 3.828800
984.3951, 5.766705
984.8773, 12.96829
985.3594, 21.86691
985.8415, 33.70308
986.3236, 43.19599
986.8057, 51.06554
987.2878, 53.04305
987.7700, 40.91639
988.2521, 22.17043
988.7342, 7.065601
989.2163, 3.641804
989.6984, 5.409248
990.1805, 14.57551
990.6627, 32.34052
991.1448, 37.23701
991.6269, 31.01936
992.1090, 24.77152
992.5911, 18.51228
993.0732, 14.01509
993.5554, 13.44467
994.0375, 13.23956
994.5196, 6.529179
995.0017, 3.374962
995.4838, 7.684700
995.9659, 0.7587430
996.4481, 9.095997
996.9302, 16.71828
997.4123, 22.52406
997.8944, 23.29893
998.3765, 19.91195
998.8586, 19.12638
999.3408, 22.63431
999.8229, 27.03900
1000.305, 32.05675
1000.787, 35.08845
1001.269, 32.47585
1001.751, 19.85455
1002.233, 15.23293
1002.716, 22.27268
1003.198, 28.68240
1003.680, 23.39472
1004.162, 10.50957
1004.644, 1.377666
1005.126, 3.503380
1005.608, 1.874611
1006.090, 19.65105
1006.573, 36.27477
1007.055, 25.34177
1007.537, 2.974236
1008.019, 2.992516
1008.501, 31.62045
1008.983, 56.14449
1009.465, 52.69826
1009.947, 37.15718
1010.429, 31.82053
1010.912, 32.44854
1011.394, 30.33563
1011.876, 15.93416
1012.358, 8.385834
1012.840, 15.36575
1013.322, 26.71009
1013.804, 30.93042
1014.286, 28.20795
1014.768, 30.67064
1015.251, 39.99485
1015.733, 46.49669
1016.215, 35.13379
1016.697, 21.22350
1017.179, 23.37949
1017.661, 45.85787
1018.143, 51.15824
1018.625, 28.45406
1019.107, 6.787350
1019.590, 0.8166920
1020.072, 2.724598
1020.554, 9.886837
1021.036, 19.92780
1021.518, 29.75690
1022.000, 43.34883
1022.482, 50.42033
1022.964, 39.43754
1023.447, 20.11135
1023.929, 12.25903
1024.411, 18.71058
1024.893, 23.79241
1025.375, 24.89612
1025.857, 25.40276
1026.339, 30.99007
1026.821, 38.25247
1027.303, 41.64701
1027.786, 39.31414
1028.268, 36.71373
1028.750, 38.20012
1029.232, 36.40224
1029.714, 24.79593
1030.196, 4.291798
1030.678, 6.679565
1031.160, 8.137600
1031.643, 2.086113
1032.125, 17.44081
1032.607, 37.51501
1033.089, 48.72023
1033.571, 51.97038
1034.053, 52.47331
1034.535, 49.20446
1035.017, 47.21556
1035.500, 48.43624
1035.982, 49.65227
1036.464, 46.13814
1036.946, 38.26887
1037.428, 25.51810
1037.910, 3.331009
1038.392, 11.15179
1038.874, 4.037453
1039.356, 8.404396
1039.839, 14.09374
1040.321, 12.15787
1040.803, 15.01617
1041.285, 23.07602
1041.767, 30.08629
1042.249, 29.89989
1042.731, 27.31717
1043.213, 28.09602
1043.695, 31.99094
1044.178, 32.73969
1044.660, 26.57613
1045.142, 22.60012
1045.624, 23.30881
1046.106, 26.76032
1046.588, 29.14378
1047.070, 30.35570
1047.552, 31.09805
1048.035, 31.75645
1048.517, 32.68158
1048.999, 34.46543
1049.481, 36.57963
1049.963, 38.95770
1050.445, 42.55595
1050.927, 40.76452
1051.409, 32.60717
1051.891, 26.24306
1052.374, 31.86549
1052.856, 40.69751
1053.338, 40.79749
1053.820, 33.50060
1054.302, 28.08493
1054.784, 30.56061
1055.266, 29.61312
1055.748, 20.72924
1056.230, 8.474564
1056.713, 2.524441
1057.195, 4.278889
1057.677, 13.19209
1058.159, 32.63399
1058.641, 48.52006
1059.123, 50.60128
1059.605, 46.06776
1060.087, 42.75109
1060.570, 41.82804
1061.052, 37.70653
1061.534, 29.61634
1062.016, 22.82352
1062.498, 22.85451
1062.980, 25.62126
1063.462, 25.70652
1063.944, 23.51974
1064.426, 23.76119
1064.909, 31.68190
1065.391, 36.90053
1065.873, 37.60795
1066.355, 34.43287
1066.837, 23.37713
1067.319, 7.984596
1067.801, 6.948017
1068.283, 32.97337
1068.766, 54.88999
1069.248, 44.87140
1069.730, 26.37917
1070.212, 24.33510
1070.694, 45.43980
1071.176, 47.78350
1071.658, 28.50221
1072.140, 11.19302
1072.622, 21.50762
1073.104, 39.35520
1073.587, 36.61401
1074.069, 16.82218
1074.551, 3.423141
1075.033, 3.178112
1075.515, 8.976471
1075.997, 22.50869
1076.479, 37.74749
1076.961, 41.74565
1077.444, 37.26082
1077.926, 33.99816
1078.408, 34.39044
1078.890, 35.60674
1079.372, 39.62764
1079.854, 40.86052
1080.336, 33.17587
1080.818, 15.22391
1081.301, 9.613377
1081.783, 17.02258
1082.265, 26.18923
1082.747, 31.72045
1083.229, 33.75492
1083.711, 30.07822
1084.193, 23.06139
1084.675, 20.17662
1085.157, 28.60490
1085.640, 29.48640
1086.122, 17.34293
1086.604, 2.369125
1087.086, 0.2874910
1087.568, 5.813992
1088.050, 12.47415
1088.532, 17.96983
1089.014, 22.65754
1089.496, 25.94731
1089.979, 29.75598
1090.461, 35.33987
1090.943, 42.44042
1091.425, 49.72844
1091.907, 56.78383
1092.389, 57.71461
1092.871, 43.88194
1093.353, 28.44731
1093.836, 21.54090
1094.318, 19.68798
1094.800, 15.67745
1095.282, 6.743080
1095.764, 3.541714
1096.246, 6.960106
1096.728, 13.23122
1097.210, 17.80604
1097.693, 20.98158
1098.175, 23.72145
1098.657, 26.11248
1099.139, 27.25863
1099.621, 29.03844
1100.103, 25.79104
1100.585, 11.99814
1101.067, 5.636833
1101.549, 1.753967
1102.031, 18.54739
1102.514, 36.42924
1102.996, 47.56405
1103.478, 50.07927
1103.960, 33.14494
1104.442, 13.70026
1104.924, 9.549343
1105.406, 23.08294
1105.888, 31.59526
1106.371, 34.56477
1106.853, 35.29942
1107.335, 34.29175
1107.817, 33.72052
1108.299, 36.31202
1108.781, 41.37027
1109.263, 44.96605
1109.745, 46.92508
1110.228, 47.31770
1110.710, 46.23837
1111.192, 43.38751
1111.674, 36.14553
1112.156, 27.45988
1112.638, 24.38960
1113.120, 31.72190
1113.602, 28.91389
1114.084, 0.1744580
1114.567, 23.76000
1115.049, 24.37696
1115.531, 7.080387
1116.013, 3.756931
1116.495, 8.902641
1116.977, 11.80401
1117.459, 11.95230
1117.941, 12.93623
1118.423, 17.77874
1118.906, 23.62668
1119.388, 26.59614
1119.870, 26.46334
1120.352, 25.10432
1120.834, 22.33669
1121.316, 22.40698
1121.798, 33.48380
1122.280, 45.61900
1122.763, 49.00111
1123.245, 43.32187
1123.727, 41.07042
1124.209, 43.90087
1124.691, 44.24054
1125.173, 37.80857
1125.655, 31.51892
1126.137, 41.11276
1126.620, 56.88397
1127.102, 61.17352
1127.584, 41.77644
1128.066, 29.84864
1128.548, 31.32751
1129.030, 35.30660
1129.512, 33.68238
1129.994, 28.33874
1130.476, 26.66126
1130.958, 28.16464
1131.441, 30.11883
1131.923, 33.08385
1132.405, 33.90100
1132.887, 29.93552
1133.369, 24.45911
1133.851, 22.28714
1134.333, 23.28857
1134.815, 25.72334
1135.298, 29.47691
1135.780, 33.08617
1136.262, 34.44872
1136.744, 35.99818
1137.226, 41.86196
1137.708, 50.78825
1138.190, 48.65569
1138.672, 33.99785
1139.155, 23.69198
1139.637, 27.13159
1140.119, 31.74243
1140.601, 17.20059
1141.083, 2.900826
1141.565, 7.267204
1142.047, 19.63636
1142.529, 30.36647
1143.011, 20.67559
1143.494, 9.745731
1143.976, 15.46175
1144.458, 27.70895
1144.940, 27.37026
1145.422, 17.18222
1145.904, 8.732460
1146.386, 5.157513
1146.868, 3.954235
1147.350, 4.560379
1147.833, 7.693493
1148.315, 17.71922
1148.797, 30.89812
1149.279, 33.58398
1149.761, 23.01976
1150.243, 18.61156
1150.725, 41.42584
1151.207, 59.10409
1151.690, 56.05111
1152.172, 37.60425
1152.654, 20.93436
1153.136, 6.993343
1153.618, 3.323811
1154.100, 18.32919
1154.582, 31.30489
1155.064, 23.37289
1155.546, 12.07366
1156.029, 17.69875
1156.511, 44.67639
1156.993, 44.70017
1157.475, 17.46405
1157.957, 4.564312
1158.439, 6.330818
1158.921, 24.39445
1159.403, 32.69926
1159.885, 32.74252
1160.368, 28.80679
1160.850, 17.94974
1161.332, 18.86198
1161.814, 36.28352
1162.296, 52.48520
1162.778, 44.90903
1163.260, 28.65530
1163.742, 20.62745
1164.224, 22.04369
1164.707, 20.99474
1165.189, 15.07995
1165.671, 11.13188
1166.153, 11.55560
1166.635, 14.12584
1167.117, 14.40327
1167.599, 14.44028
1168.081, 18.66164
1168.564, 31.01820
1169.046, 38.33012
1169.528, 39.56357
1170.010, 35.46976
1170.492, 22.05282
1170.974, 5.489201
1171.456, 8.479794
1171.938, 24.80888
1172.421, 32.46851
1172.903, 12.01978
1173.385, 2.065002
1173.867, 13.74823
1174.349, 30.66173
1174.831, 34.64301
1175.313, 28.60449
1175.795, 26.84894
1176.277, 29.88403
1176.760, 32.50588
1177.242, 32.23145
1177.724, 30.41055
1178.206, 26.69984
1178.688, 22.47804
1179.170, 19.91976
1179.652, 19.53410
1180.134, 24.67806
1180.616, 37.52586
1181.099, 48.61914
1181.581, 52.27057
1182.063, 50.93961
1182.545, 44.11884
1183.027, 33.54491
1183.509, 31.84224
1183.991, 38.58644
1184.473, 43.30832
1184.956, 41.89713
1185.438, 37.10426
1185.920, 27.92670
1186.402, 18.44158
1186.884, 12.66074
1187.366, 10.03922
1187.848, 17.84926
1188.330, 37.10008
1188.813, 49.21355
1189.295, 32.03283
1189.777, 10.83071
1190.259, 10.08883
1190.741, 22.24866
1191.223, 27.61267
1191.705, 23.00677
1192.187, 22.04923
1192.669, 26.38232
1193.151, 31.59432
1193.634, 33.73225
1194.116, 34.28439
1194.598, 34.97255
1195.080, 35.66779
1195.562, 34.53580
1196.044, 31.63377
1196.526, 25.41891
1197.008, 13.00783
1197.491, 4.448956
1197.973, 21.92451
1198.455, 46.38670
1198.937, 48.45271
1199.419, 18.56525
1199.901, 6.199219
1200.383, 18.74074
1200.865, 30.36015
1201.348, 29.99842
1201.830, 22.43895
1202.312, 10.82461
1202.794, 0.8512920
1203.276, 4.895023
1203.758, 6.054893
1204.240, 14.08570
1204.722, 18.31543
1205.204, 21.29846
1205.687, 25.58138
1206.169, 29.49754
1206.651, 28.12398
1207.133, 23.42554
1207.615, 21.92522
1208.097, 33.96387
1208.579, 35.43375
1209.061, 20.19354
1209.543, 3.062267
1210.026, 2.477535
1210.508, 10.97229
1210.990, 12.22675
1211.472, 6.285309
1211.954, 4.422138
1212.436, 19.19753
1212.918, 23.89480
1213.400, 8.552155
1213.883, 10.76382
1214.365, 5.544205
1214.847, 15.54411
1215.329, 36.74565
1215.811, 56.33564
1216.293, 61.60929
1216.775, 37.34320
1217.257, 14.32885
1217.740, 2.098148
1218.222, 0.5868260
1218.704, 10.30950
1219.186, 27.41054
1219.668, 31.32794
1220.150, 10.22901
1220.632, 4.826054
1221.114, 4.956314
1221.596, 0.7661670
1222.078, 2.768196
1222.561, 5.778584
1223.043, 8.843231
1223.525, 11.71418
1224.007, 13.66294
1224.489, 13.48683
1224.971, 13.52044
1225.453, 13.30428
1225.935, 14.57109
1226.418, 21.99777
1226.900, 31.78806
1227.382, 28.53060
1227.864, 14.56739
1228.346, 4.209152
1228.828, 4.953911
1229.310, 9.132172
1229.792, 17.80035
1230.275, 24.92854
1230.757, 19.41568
1231.239, 6.581745
1231.721, 3.121113
1232.203, 9.954292
1232.685, 16.40390
1233.167, 14.96997
1233.649, 17.08710
1234.131, 28.20771
1234.614, 41.06559
1235.096, 41.61984
1235.578, 32.86219
1236.060, 19.54282
1236.542, 0.7165830
1237.024, 4.511597
1237.506, 31.50434
1237.988, 53.26743
1238.470, 34.72446
1238.953, 2.959682
1239.435, 3.729019
1239.917, 19.64489
1240.399, 33.60955
1240.881, 26.26096
1241.363, 18.84302
1241.845, 15.29803
1242.327, 14.08408
1242.810, 14.84220
1243.292, 17.20957
1243.774, 22.04496
1244.256, 27.97658
1244.738, 31.05470
1245.220, 27.09531
1245.702, 25.41618
1246.184, 28.81892
1246.666, 31.54958
1247.149, 26.94757
1247.631, 18.91748
1248.113, 18.89975
1248.595, 25.25309
1249.077, 32.15510
1249.559, 42.12565
1250.041, 44.38335
1250.523, 34.66983
1251.005, 23.96066
1251.488, 25.92046
1251.970, 33.97376
1252.452, 36.15008
1252.934, 32.19362
1253.416, 26.87733
1253.898, 17.85447
1254.380, 14.37731
1254.862, 19.27539
1255.344, 26.55383
1255.827, 30.37595
1256.309, 30.31862
1256.791, 22.91180
1257.273, 7.181225
1257.755, 0.1907460
1258.237, 3.593468
1258.719, 9.843166
1259.201, 18.23744
1259.684, 23.84332
1260.166, 14.71399
1260.648, 0.5574230
1261.130, 6.518940
1261.612, 1.220085
1262.094, 6.982933
1262.576, 20.22755
1263.058, 25.44463
1263.541, 14.04391
1264.023, 1.189137
1264.505, 12.89560
1264.987, 33.98623
1265.469, 43.74327
1265.951, 36.85385
1266.433, 26.94792
1266.915, 12.29539
1267.397, 4.018173
1267.880, 10.37666
1268.362, 20.71025
1268.844, 22.06923
1269.326, 19.82909
1269.808, 19.18697
1270.290, 22.64062
1270.772, 27.15799
1271.254, 33.21078
1271.736, 34.65156
1272.219, 21.37161
1272.701, 8.596554
1273.183, 13.39206
1273.665, 25.45915
1274.147, 27.21553
1274.629, 15.81959
1275.111, 11.98600
1275.593, 16.14011
1276.076, 20.23756
1276.558, 16.84995
1277.040, 13.61280
1277.522, 15.16218
1278.004, 20.45150
1278.486, 29.79534
1278.968, 43.23363
1279.450, 43.95712
1279.932, 31.05170
1280.415, 18.96149
1280.897, 17.57207
1281.379, 19.44472
1281.861, 17.71723
1282.343, 14.70117
1282.825, 15.66209
1283.307, 19.54960
1283.789, 18.52256
1284.271, 11.98609
1284.754, 8.273922
1285.236, 16.12490
1285.718, 22.41012
1286.200, 21.72874
1286.682, 17.61156
1287.164, 16.85708
1287.646, 18.48615
1288.128, 19.35055
1288.611, 18.86660
1289.093, 19.55355
1289.575, 26.59679
1290.057, 28.32613
1290.539, 18.51978
1291.021, 5.775654
1291.503, 9.076195
1291.985, 21.29494
1292.468, 29.08456
1292.950, 30.24703
1293.432, 25.26306
1293.914, 10.64028
1294.396, 6.9332004E-02
1294.878, 2.323360
1295.360, 2.950928
1295.842, 20.62321
1296.324, 42.11510
1296.807, 50.66412
1297.289, 35.07142
1297.771, 19.02461
1298.253, 19.91630
1298.735, 16.99527
1299.217, 10.49828
1299.699, 0.0000000E+00
##END=



