##NAMES=Realgar
##RRUFFID=R100026
##IDEAL CHEMISTRY=AsS
##LOCALITY=Palomo mine, Castrovirreyna Province, Huancavelica Department, Peru
##OWNER=RRUFF
##SOURCE=Rob Woodside
##DESCRIPTION=Red prismatic crystals
##STATUS=The identification of this mineral has been confirmed by single-crystal X-ray diffraction.
##URL=rruff.info/R100026
164.2560, 0.0000000E+00
164.7382, 1.603119
165.2203, 1.337006
165.7024, 0.6094970
166.1845, 0.2833250
166.6666, 2.838165
167.1487, 6.320313
167.6309, 9.109863
168.1130, 11.30069
168.5951, 13.05383
169.0772, 14.41986
169.5593, 15.42392
170.0414, 15.92789
170.5236, 15.55258
171.0057, 15.47418
171.4878, 17.14340
171.9699, 19.96030
172.4520, 22.05399
172.9341, 21.43820
173.4163, 19.88745
173.8984, 19.55505
174.3805, 21.29239
174.8626, 23.68805
175.3447, 25.75659
175.8268, 27.47327
176.3090, 28.73236
176.7911, 28.92184
177.2732, 28.67728
177.7553, 28.98648
178.2374, 29.99890
178.7195, 31.76706
179.2017, 34.62866
179.6838, 38.51990
180.1659, 42.55554
180.6480, 46.17371
181.1301, 49.44174
181.6122, 52.67377
182.0944, 56.31674
182.5765, 59.70294
183.0586, 61.51666
183.5407, 61.73782
184.0228, 61.65393
184.5049, 62.56223
184.9871, 64.15955
185.4692, 65.33795
185.9513, 66.02811
186.4334, 65.99115
186.9155, 64.07150
187.3976, 60.09509
187.8798, 56.33359
188.3619, 55.72937
188.8440, 57.76535
189.3261, 59.13947
189.8082, 58.69016
190.2903, 56.73743
190.7725, 54.09335
191.2546, 50.54764
191.7367, 47.25562
192.2188, 45.68964
192.7009, 45.75787
193.1830, 46.01883
193.6652, 45.84308
194.1473, 45.36517
194.6294, 45.45682
195.1115, 46.18048
195.5936, 47.25717
196.0757, 48.29767
196.5579, 49.28983
197.0400, 50.54260
197.5221, 52.48798
198.0042, 55.01846
198.4863, 56.45648
198.9684, 56.57248
199.4506, 56.08911
199.9327, 56.04718
200.4148, 56.48792
200.8969, 56.98535
201.3790, 57.52148
201.8611, 58.11188
202.3433, 58.02533
202.8254, 57.12128
203.3075, 55.74664
203.7896, 54.46582
204.2717, 53.27527
204.7538, 52.11078
205.2360, 50.75500
205.7181, 49.08307
206.2002, 48.24466
206.6823, 48.15555
207.1644, 48.98181
207.6465, 51.45648
208.1287, 56.14795
208.6108, 60.41687
209.0929, 62.79422
209.5750, 62.76505
210.0571, 63.75720
210.5392, 65.98859
211.0214, 69.08484
211.5035, 72.40820
211.9856, 76.09991
212.4677, 79.57452
212.9498, 82.40005
213.4319, 84.18085
213.9141, 86.73059
214.3962, 89.96381
214.8783, 94.05206
215.3604, 99.69257
215.8425, 107.9358
216.3246, 115.4557
216.8067, 120.6158
217.2889, 122.6259
217.7710, 124.7610
218.2531, 127.0377
218.7352, 129.4545
219.2173, 132.0900
219.6994, 134.9991
220.1816, 138.0216
220.6637, 141.2208
221.1458, 144.8510
221.6279, 148.1540
222.1100, 150.9262
222.5921, 153.2598
223.0743, 154.6701
223.5564, 154.5701
224.0385, 154.6248
224.5206, 155.6348
225.0027, 158.1219
225.4848, 160.1047
225.9670, 161.2333
226.4491, 161.8641
226.9312, 163.0319
227.4133, 164.8936
227.8954, 167.0587
228.3775, 169.3834
228.8597, 172.1196
229.3418, 174.5851
229.8239, 176.4669
230.3060, 177.9424
230.7881, 179.8950
231.2702, 183.3777
231.7524, 185.9915
232.2345, 186.3857
232.7166, 183.3354
233.1987, 180.8135
233.6808, 179.3138
234.1629, 178.2728
234.6451, 176.0563
235.1272, 171.9931
235.6093, 167.8098
236.0914, 164.4467
236.5735, 162.9725
237.0556, 159.8877
237.5378, 154.6996
238.0199, 148.0793
238.5020, 141.6390
238.9841, 135.1214
239.4662, 129.0796
239.9483, 123.8273
240.4305, 119.9745
240.9126, 115.5247
241.3947, 109.9811
241.8768, 103.9796
242.3589, 99.25333
242.8410, 96.85278
243.3232, 94.09808
243.8053, 89.89767
244.2874, 83.91928
244.7695, 77.01102
245.2516, 67.78146
245.7337, 58.11389
246.2159, 52.49878
246.6980, 53.04050
247.1801, 54.34348
247.6622, 54.58371
248.1443, 54.04858
248.6264, 51.45734
249.1086, 45.69885
249.5907, 38.42328
250.0728, 33.02850
250.5549, 30.08139
251.0370, 28.06522
251.5191, 26.65628
252.0013, 26.37061
252.4834, 24.81329
252.9655, 21.02576
253.4476, 16.54102
253.9297, 14.44849
254.4118, 16.10602
254.8940, 17.63605
255.3761, 17.55768
255.8582, 15.36310
256.3403, 13.53589
256.8224, 12.00647
257.3046, 10.89880
257.7867, 10.58643
258.2688, 11.58191
258.7509, 12.32471
259.2330, 12.43866
259.7151, 12.02484
260.1973, 10.16028
260.6794, 5.715088
261.1615, 0.9709470
261.6436, 0.3933720
262.1257, 2.824707
262.6078, 6.481567
263.0900, 9.465576
263.5721, 11.79614
264.0542, 13.27100
264.5363, 13.21027
265.0184, 13.10693
265.5005, 15.23956
265.9827, 20.56165
266.4648, 25.17914
266.9469, 27.27673
267.4290, 26.71600
267.9111, 29.51233
268.3932, 36.62390
268.8754, 45.58081
269.3575, 53.88507
269.8396, 61.77905
270.3217, 68.43176
270.8038, 73.65704
271.2859, 77.50549
271.7681, 80.07574
272.2502, 81.46350
272.7323, 81.39478
273.2144, 79.57263
273.6965, 75.96167
274.1786, 70.77039
274.6608, 63.63354
275.1429, 54.84570
275.6250, 46.25409
276.1071, 37.87134
276.5892, 29.68152
277.0714, 21.64386
277.5535, 13.60193
278.0356, 6.756531
278.5177, 1.326294
278.9998, 2.739197
279.4819, 5.431122
279.9641, 6.583832
280.4462, 7.138702
280.9283, 7.820282
281.4104, 8.631622
281.8925, 9.222198
282.3746, 9.582733
282.8568, 9.654663
283.3389, 9.162354
283.8210, 8.048706
284.3031, 6.839264
284.7852, 5.783905
285.2673, 4.909149
285.7495, 4.579132
286.2316, 5.112732
286.7137, 5.843445
287.1958, 5.082550
287.6779, 2.783051
288.1600, 0.6390380
288.6422, 3.0701000E-02
289.1243, 0.6856080
289.6064, 0.5417480
290.0885, 0.7626340
290.5706, 2.437805
291.0527, 2.851135
291.5349, 2.130554
292.0170, 2.106567
292.4991, 4.440613
292.9812, 8.402405
293.4633, 11.08960
293.9454, 12.18219
294.4276, 12.83112
294.9097, 14.70813
295.3918, 17.57111
295.8739, 20.10419
296.3560, 21.37646
296.8381, 21.88153
297.3203, 22.77942
297.8024, 24.12280
298.2845, 25.50861
298.7666, 26.31476
299.2487, 26.76489
299.7308, 27.57794
300.2130, 29.06610
300.6951, 31.09381
301.1772, 33.73596
301.6593, 36.98254
302.1414, 39.95795
302.6235, 41.49921
303.1057, 42.22028
303.5878, 43.32123
304.0699, 45.46637
304.5520, 48.00665
305.0341, 50.49658
305.5162, 52.86481
305.9984, 54.56580
306.4805, 54.14978
306.9626, 53.07489
307.4447, 53.51123
307.9268, 56.95923
308.4089, 60.86755
308.8911, 62.95538
309.3732, 63.54114
309.8553, 63.95264
310.3374, 64.62482
310.8195, 65.66162
311.3016, 67.24152
311.7838, 69.63037
312.2659, 72.07031
312.7480, 73.88397
313.2301, 75.33405
313.7122, 77.10211
314.1943, 79.80273
314.6765, 82.77673
315.1586, 85.66602
315.6407, 88.51782
316.1228, 90.92731
316.6049, 92.28326
317.0870, 93.10834
317.5692, 94.24011
318.0513, 95.76990
318.5334, 97.84326
319.0155, 100.7802
319.4976, 104.7870
319.9797, 108.3489
320.4619, 110.4686
320.9440, 112.0347
321.4261, 114.0166
321.9082, 117.3771
322.3903, 120.4900
322.8724, 122.7496
323.3546, 124.1248
323.8367, 125.5138
324.3188, 126.9017
324.8009, 128.4891
325.2830, 130.4120
325.7651, 132.7343
326.2473, 135.3837
326.7294, 138.7570
327.2115, 142.6890
327.6936, 145.8319
328.1757, 147.8831
328.6578, 149.2713
329.1400, 150.1820
329.6221, 149.3839
330.1042, 149.7774
330.5863, 152.2358
331.0684, 155.9222
331.5505, 158.2588
332.0327, 157.7395
332.5148, 157.6462
332.9969, 159.5486
333.4790, 164.7700
333.9611, 168.0607
334.4432, 168.1656
334.9254, 167.0605
335.4075, 168.2666
335.8896, 172.9737
336.3717, 177.6401
336.8538, 181.1390
337.3359, 183.5381
337.8180, 184.5900
338.3001, 183.8437
338.7823, 182.5316
339.2644, 182.1295
339.7465, 182.9016
340.2286, 183.4792
340.7107, 183.3770
341.1928, 182.8165
341.6750, 183.1985
342.1571, 184.7014
342.6392, 186.5044
343.1213, 188.0644
343.6034, 189.3331
344.0855, 190.1270
344.5677, 190.3528
345.0498, 190.3010
345.5319, 190.2326
346.0140, 190.0420
346.4961, 189.6929
346.9782, 189.1714
347.4604, 188.6351
347.9425, 188.6194
348.4246, 189.3514
348.9067, 189.9128
349.3888, 188.5333
349.8709, 185.5967
350.3531, 183.1968
350.8352, 182.8400
351.3173, 183.6567
351.7994, 184.0186
352.2815, 183.8575
352.7636, 183.3135
353.2458, 182.3713
353.7279, 181.1399
354.2100, 179.8533
354.6921, 178.5140
355.1742, 177.2136
355.6563, 176.2756
356.1385, 175.6198
356.6206, 174.4534
357.1027, 171.5193
357.5848, 168.0616
358.0669, 165.5487
358.5490, 164.6685
359.0312, 164.3161
359.5133, 164.2263
359.9954, 164.1996
360.4775, 163.6110
360.9596, 162.0968
361.4417, 159.9531
361.9239, 157.2232
362.4060, 153.6306
362.8881, 150.2907
363.3702, 147.8383
363.8523, 145.8576
364.3344, 143.7205
364.8166, 141.7428
365.2987, 139.1314
365.7808, 135.2032
366.2629, 129.6102
366.7450, 125.1378
367.2271, 123.3906
367.7093, 122.3909
368.1914, 120.4193
368.6735, 116.1989
369.1556, 112.3093
369.6377, 109.0209
370.1198, 106.2655
370.6020, 104.1401
371.0841, 102.8651
371.5662, 102.0519
372.0483, 101.4792
372.5304, 101.3505
373.0125, 100.9497
373.4947, 100.5071
373.9768, 99.74530
374.4589, 97.73456
374.9410, 93.52118
375.4231, 90.20337
375.9052, 89.34235
376.3874, 91.40704
376.8695, 91.15015
377.3516, 87.78955
377.8337, 83.38629
378.3158, 80.42523
378.7979, 79.08319
379.2801, 77.84302
379.7622, 76.39795
380.2443, 74.71478
380.7264, 72.39764
381.2085, 69.35962
381.6906, 66.36462
382.1728, 64.23541
382.6549, 62.79291
383.1370, 60.99969
383.6191, 58.55841
384.1012, 55.92645
384.5833, 53.92230
385.0655, 52.39905
385.5476, 50.66083
386.0297, 47.83014
386.5118, 44.60712
386.9939, 42.42926
387.4760, 41.60291
387.9582, 40.78424
388.4403, 38.09399
388.9224, 34.37387
389.4045, 31.51871
389.8866, 31.77521
390.3687, 32.20807
390.8509, 29.48749
391.3330, 23.96637
391.8151, 19.52121
392.2972, 19.39099
392.7793, 21.07727
393.2614, 22.22037
393.7436, 22.34515
394.2257, 21.55249
394.7078, 19.41412
395.1899, 16.35046
395.6720, 13.45651
396.1541, 10.56616
396.6363, 8.361084
397.1184, 7.413239
397.6005, 8.388428
398.0826, 8.652679
398.5647, 7.147278
399.0468, 4.941559
399.5290, 3.335815
400.0111, 3.044769
400.4932, 2.697723
400.9753, 2.120544
401.4574, 1.307281
401.9395, 0.1625060
402.4217, 2.028839
402.9038, 3.822266
403.3859, 4.129791
403.8680, 2.170074
404.3501, 0.6016540
404.8322, 0.2701720
405.3144, 0.6926570
405.7965, 1.417664
406.2786, 2.683197
406.7607, 3.466949
407.2428, 3.067535
407.7249, 1.431610
408.2071, 0.3691710
408.6892, 0.1054990
409.1713, 7.7849999E-02
409.6534, 0.5771790
410.1355, 1.809784
410.6176, 2.727661
411.0998, 2.971436
411.5819, 2.804565
412.0640, 3.009552
412.5461, 3.557343
413.0282, 3.702484
413.5103, 2.378143
413.9925, 2.560014
414.4746, 1.064911
414.9567, 1.449341
415.4388, 1.184998
415.9209, 0.3753360
416.4030, 0.8228450
416.8852, 2.041260
417.3673, 3.408173
417.8494, 4.496429
418.3315, 4.870850
418.8136, 4.497467
419.2957, 3.911621
419.7779, 3.096527
420.2600, 2.352692
420.7421, 1.997589
421.2242, 2.848877
421.7063, 3.341797
422.1884, 2.679932
422.6706, 1.185852
423.1527, 4.3671001E-02
423.6348, 0.2202150
424.1169, 0.2561040
424.5990, 0.3206790
425.0811, 0.3407290
425.5633, 0.5969540
426.0454, 1.386505
426.5275, 2.288849
427.0096, 2.771271
427.4917, 2.593109
427.9738, 2.367676
428.4560, 2.383575
428.9381, 2.588379
429.4202, 1.762054
429.9023, 0.6807560
430.3844, 3.082031
430.8665, 4.232483
431.3487, 4.020996
431.8308, 3.048370
432.3129, 3.346064
432.7950, 1.303497
433.2771, 2.337128
433.7592, 2.056396
434.2414, 0.9988400
434.7235, 1.093353
435.2056, 3.826263
435.6877, 5.549377
436.1698, 6.224854
436.6519, 6.396271
437.1341, 6.451019
437.6162, 6.404724
438.0983, 6.305878
438.5804, 6.201996
439.0625, 6.013031
439.5446, 5.748932
440.0268, 5.357788
440.5089, 4.637543
440.9910, 2.808319
441.4731, 0.9972840
441.9552, 0.2558290
442.4373, 0.8363650
442.9195, 1.834564
443.4016, 3.687744
443.8837, 5.413696
444.3658, 5.816467
444.8479, 2.860565
445.3300, 0.2245180
445.8122, 1.040039
446.2943, 0.9650570
446.7764, 0.1825560
447.2585, 2.299133
447.7406, 4.636017
448.2227, 5.902313
448.7049, 5.741608
449.1870, 5.129517
449.6691, 3.545349
450.1512, 1.771637
450.6333, 1.112152
451.1154, 1.941833
451.5976, 3.115112
452.0797, 4.629242
452.5618, 6.389740
453.0439, 6.650818
453.5260, 5.027771
454.0081, 3.095551
454.4903, 2.007751
454.9724, 1.766846
455.4545, 1.997467
455.9366, 2.729156
456.4187, 3.761597
456.9008, 4.901581
457.3830, 6.115265
457.8651, 7.024963
458.3472, 7.095306
458.8293, 6.872345
459.3114, 7.692902
459.7935, 9.539520
460.2757, 10.80692
460.7578, 9.793182
461.2399, 7.701141
461.7220, 6.223755
462.2041, 5.865814
462.6862, 5.877441
463.1684, 5.729584
463.6505, 5.576874
464.1326, 5.784851
464.6147, 7.331299
465.0968, 8.589142
465.5789, 8.438293
466.0611, 6.566406
466.5432, 5.204132
467.0253, 4.963806
467.5074, 5.437378
467.9895, 6.245148
468.4716, 8.027313
468.9538, 9.020660
469.4359, 8.861816
469.9180, 7.968109
470.4001, 7.625702
470.8822, 8.037811
471.3643, 8.672180
471.8465, 9.425629
472.3286, 10.30206
472.8107, 10.60825
473.2928, 10.27832
473.7749, 9.780884
474.2570, 9.696716
474.7392, 10.00989
475.2213, 9.990204
475.7034, 9.377411
476.1855, 8.476410
476.6676, 7.830566
477.1497, 7.438599
477.6319, 7.317688
478.1140, 7.512695
478.5961, 7.960297
479.0782, 8.549591
479.5603, 9.261444
480.0424, 10.18100
480.5246, 12.05182
481.0067, 13.95221
481.4888, 14.59454
481.9709, 12.67105
482.4530, 10.45664
482.9352, 8.826691
483.4173, 7.784729
483.8994, 7.356873
484.3815, 8.774414
484.8636, 9.831970
485.3457, 9.066010
485.8279, 5.443909
486.3100, 3.558136
486.7921, 5.574982
487.2742, 8.569183
487.7563, 9.980286
488.2384, 8.461090
488.7206, 7.373871
489.2027, 7.336975
489.6848, 7.961792
490.1669, 7.719269
490.6490, 6.178223
491.1311, 4.785278
491.6133, 4.609528
492.0954, 5.671906
492.5775, 5.539337
493.0596, 3.791351
493.5417, 1.853516
494.0238, 1.358124
494.5060, 2.062653
494.9881, 2.888214
495.4702, 3.606110
495.9523, 4.248230
496.4344, 4.974731
496.9165, 5.689606
497.3987, 6.032501
497.8808, 5.120667
498.3629, 4.150146
498.8450, 4.440033
499.3271, 6.127899
499.8092, 7.773682
500.2914, 8.923065
500.7735, 9.581940
501.2556, 9.789978
501.7377, 9.175964
502.2198, 8.513000
502.7019, 8.005890
503.1841, 7.509674
503.6662, 6.721985
504.1483, 5.117554
504.6304, 3.971893
505.1125, 3.815216
505.5946, 4.691528
506.0768, 5.195587
506.5589, 5.187531
507.0410, 5.004242
507.5231, 4.911133
508.0052, 4.923462
508.4873, 4.890747
508.9695, 4.841553
509.4516, 4.756714
509.9337, 4.530396
510.4158, 4.169617
510.8979, 3.913391
511.3800, 3.839722
511.8622, 3.926331
512.3443, 4.204834
512.8264, 4.671692
513.3085, 5.179443
513.7906, 5.809448
514.2728, 6.343140
514.7549, 6.496094
515.2370, 6.204041
515.7191, 5.549744
516.2012, 3.892578
516.6833, 2.061768
517.1655, 1.301880
517.6476, 3.378418
518.1297, 5.245728
518.6118, 5.662537
519.0939, 4.746155
519.5760, 4.207214
520.0582, 4.784363
520.5403, 5.250244
521.0224, 5.042603
521.5045, 3.782593
521.9866, 3.023804
522.4688, 3.118896
522.9509, 3.318848
523.4330, 2.541809
523.9151, 2.777937
524.3972, 1.126831
524.8793, 2.239624
525.3615, 2.652405
525.8436, 1.640381
526.3257, 0.7828370
526.8078, 3.205444
527.2899, 5.088806
527.7720, 6.359924
528.2542, 6.772583
528.7363, 6.313843
529.2184, 5.275818
529.7005, 3.228394
530.1826, 0.9765630
530.6647, 0.3663330
531.1469, 0.2988890
531.6290, 0.4398190
532.1111, 2.002441
532.5932, 3.907898
533.0753, 5.169739
533.5574, 5.114014
534.0396, 4.750061
534.5217, 4.316467
535.0038, 3.813965
535.4859, 3.506470
535.9680, 3.454590
536.4501, 3.534180
536.9323, 3.723572
537.4144, 4.192200
537.8965, 4.243408
538.3786, 3.686462
538.8607, 2.955383
539.3428, 2.772217
539.8250, 3.186584
540.3071, 3.484741
540.7892, 3.315063
541.2713, 3.020996
541.7534, 3.776184
542.2355, 5.449158
542.7177, 6.612244
543.1998, 5.982117
543.6819, 4.409851
544.1640, 3.013550
544.6461, 1.849548
545.1282, 1.331543
545.6104, 2.405212
546.0925, 4.050171
546.5746, 5.112732
547.0567, 4.954895
547.5388, 4.615906
548.0209, 4.695129
548.5031, 4.901611
548.9852, 4.450317
549.4673, 1.392090
549.9494, 0.3198850
550.4315, 0.8595580
550.9136, 4.907715
551.3958, 7.466919
551.8779, 8.177063
552.3600, 8.046143
552.8421, 7.547424
553.3242, 6.620178
553.8063, 5.836914
554.2885, 5.158203
554.7706, 4.808167
555.2527, 5.450073
555.7348, 6.857178
556.2169, 7.495605
556.6990, 6.582397
557.1812, 5.102173
557.6633, 4.400208
558.1454, 4.332031
558.6275, 4.354736
559.1096, 4.041260
559.5917, 3.774109
560.0739, 3.993652
560.5560, 4.747925
561.0381, 5.288940
561.5202, 5.064880
562.0023, 4.671997
562.4844, 4.588440
562.9666, 5.532898
563.4487, 5.629822
563.9308, 4.270264
564.4129, 2.340820
564.8950, 1.126770
565.3771, 0.5819700
565.8593, 0.9656370
566.3414, 2.851379
566.8235, 5.639038
567.3056, 6.370544
567.7877, 4.739929
568.2698, 3.161743
568.7520, 3.275696
569.2341, 4.659790
569.7162, 5.613892
570.1983, 6.056396
570.6804, 6.460388
571.1625, 7.985107
571.6447, 9.580566
572.1268, 9.244019
572.6089, 5.392578
573.0910, 1.938721
573.5731, 2.247803
574.0552, 4.530457
574.5374, 5.656494
575.0195, 3.385071
575.5016, 1.064758
575.9837, 0.3058470
576.4658, 0.7302860
576.9479, 0.7903440
577.4301, 0.2766720
577.9122, 0.3325200
578.3943, 0.8663940
578.8764, 1.329834
579.3585, 1.674133
579.8406, 1.890320
580.3228, 1.998840
580.8049, 1.887024
581.2870, 1.577271
581.7691, 1.630615
582.2512, 2.117310
582.7333, 2.840271
583.2155, 3.800842
583.6976, 4.896362
584.1797, 5.658630
584.6617, 5.401917
585.1439, 4.776917
585.6260, 4.133606
586.1081, 3.561096
586.5902, 3.513428
587.0723, 4.968079
587.5544, 6.405457
588.0366, 6.873962
588.5187, 6.002869
589.0008, 5.251648
589.4829, 4.824707
589.9650, 4.591675
590.4471, 4.498291
590.9293, 4.707886
591.4114, 4.653564
591.8935, 4.191528
592.3756, 3.578064
592.8577, 3.371582
593.3398, 3.614380
593.8220, 3.557800
594.3041, 2.787292
594.7862, 1.691345
595.2683, 1.174927
595.7504, 1.192810
596.2325, 1.394958
596.7147, 1.628296
597.1968, 1.893616
597.6789, 2.236755
598.1610, 2.665466
598.6431, 3.009399
599.1252, 3.424744
599.6074, 3.570374
600.0895, 3.103088
600.5716, 1.345642
601.0537, 5.9386998E-02
601.5358, 0.3573610
602.0179, 0.2047730
602.5001, 0.2072140
602.9822, 1.173157
603.4643, 1.812439
603.9464, 2.009888
604.4285, 1.756897
604.9106, 0.7100830
605.3928, 1.372803
605.8749, 2.626343
606.3570, 1.754028
606.8391, 0.6245120
607.3212, 2.774170
607.8033, 4.628357
608.2855, 5.810791
608.7676, 5.296326
609.2497, 4.115234
609.7318, 3.786682
610.2139, 4.800232
610.6960, 5.336426
611.1782, 3.252014
611.6603, 0.6787720
612.1424, 0.1337280
612.6245, 3.682922
613.1066, 6.450073
613.5887, 7.103699
614.0709, 6.318604
614.5530, 5.326477
615.0351, 3.991638
615.5172, 2.773865
615.9993, 1.772644
616.4814, 0.9889530
616.9636, 0.4099730
617.4457, 4.4922002E-02
617.9278, -0.1801757
618.4099, 0.1715700
618.8920, 6.1156999E-02
619.3741, 0.3936770
619.8563, 1.202881
620.3384, 1.526978
620.8205, 0.2379150
621.3026, 2.586243
621.7847, 3.560608
622.2668, 2.284058
622.7490, 0.9169920
623.2311, 0.4027710
623.7132, 0.3430790
624.1953, 0.2233280
624.6774, 0.4055180
625.1595, 0.6579590
625.6417, 0.4884030
626.1238, 0.1365970
626.6059, 1.518311
627.0880, 4.191467
627.5701, 6.030151
628.0522, 6.079590
628.5344, 4.690247
629.0165, 3.321533
629.4986, 1.958740
629.9807, 1.295776
630.4628, 2.558655
630.9449, 4.654236
631.4271, 5.452393
631.9092, 4.757507
632.3913, 3.706726
632.8734, 2.806702
633.3555, 2.122925
633.8376, 1.673035
634.3198, 1.494446
634.8019, 1.558228
635.2840, 2.095825
635.7661, 2.825745
636.2482, 3.336365
636.7303, 3.542480
637.2125, 3.649170
637.6946, 3.703979
638.1767, 3.670654
638.6588, 3.449463
639.1409, 3.038513
639.6230, 2.472778
640.1052, 1.657349
640.5873, 0.7448120
641.0694, 6.2073000E-02
641.5515, 0.3629150
642.0336, 0.2342530
642.5157, 1.394897
642.9979, 3.303101
643.4800, 3.895203
643.9621, 2.997375
644.4442, 2.050720
644.9263, 1.696289
645.4084, 1.631653
645.8906, 1.611816
646.3727, 1.516113
646.8548, 1.596680
647.3369, 1.824768
647.8190, 2.228882
648.3011, 2.842896
648.7833, 3.688904
649.2654, 4.709900
649.7475, 6.090881
650.2296, 7.400024
650.7117, 7.602051
651.1938, 6.786377
651.6760, 6.021240
652.1581, 5.715393
652.6402, 5.737366
653.1223, 6.136963
653.6044, 6.767761
654.0865, 7.021118
654.5687, 5.996460
655.0508, 4.930481
655.5329, 4.828918
656.0150, 5.804871
656.4971, 6.307190
656.9792, 5.335144
657.4614, 4.332886
657.9435, 4.112671
658.4256, 4.934998
658.9077, 5.688477
659.3898, 6.520569
659.8719, 6.992065
660.3541, 6.541992
660.8362, 5.181641
661.3183, 3.345886
661.8004, 0.8057860
662.2825, 1.174438
662.7646, 0.2455440
663.2468, 2.492432
663.7289, 4.506348
664.2110, 4.793457
664.6931, 4.526550
665.1752, 4.091858
665.6573, 3.628296
666.1395, 3.448120
666.6216, 3.891968
667.1037, 4.390015
667.5858, 4.849426
668.0679, 5.246826
668.5500, 5.279114
669.0322, 4.504822
669.5143, 4.267700
669.9964, 5.627380
670.4785, 8.394592
670.9606, 8.870239
671.4427, 6.829773
671.9249, 4.643188
672.4070, 4.551941
672.8891, 5.623352
673.3712, 5.726563
673.8533, 4.558411
674.3354, 3.453979
674.8176, 3.215393
675.2997, 3.623840
675.7818, 4.518494
676.2639, 6.361084
676.7460, 7.805359
677.2281, 8.038635
677.7103, 7.872314
678.1924, 8.506897
678.6745, 11.20325
679.1566, 11.92792
679.6387, 9.286743
680.1208, 5.205078
680.6030, 4.122192
681.0851, 6.031799
681.5672, 7.967896
682.0493, 9.001465
682.5314, 9.260986
683.0135, 8.494873
683.4957, 7.030212
683.9778, 6.134094
684.4599, 7.160461
684.9420, 8.405823
685.4241, 8.600281
685.9063, 7.777283
686.3884, 7.121887
686.8705, 7.413086
687.3526, 7.503723
687.8347, 6.566040
688.3168, 4.212036
688.7990, 3.885559
689.2811, 6.235840
689.7632, 9.173218
690.2453, 11.54266
690.7274, 13.27832
691.2095, 12.81683
691.6917, 9.823608
692.1738, 6.412537
692.6559, 4.676147
693.1380, 4.130554
693.6201, 4.151794
694.1022, 4.947754
694.5844, 5.271301
695.0665, 3.055603
695.5486, 0.4132690
696.0307, 5.4138001E-02
696.5128, 5.896118
696.9949, 9.742981
697.4771, 10.03864
697.9592, 8.286682
698.4413, 7.304932
698.9234, 7.269531
699.4055, 7.406372
699.8876, 7.657654
700.3698, 7.848450
700.8519, 7.356201
701.3340, 6.294067
701.8161, 5.403564
702.2982, 4.913208
702.7803, 4.908020
703.2625, 6.049988
703.7446, 7.987427
704.2267, 8.923889
704.7088, 6.786743
705.1909, 4.583130
705.6730, 4.188354
706.1552, 5.905029
706.6373, 6.261597
707.1194, 3.735229
707.6015, 1.971863
708.0836, 3.668274
708.5657, 9.114929
709.0479, 11.46179
709.5300, 10.35944
710.0121, 8.221924
710.4942, 7.127319
710.9763, 6.716431
711.4584, 5.840393
711.9406, 4.262939
712.4227, 3.401184
712.9048, 5.109619
713.3869, 7.642761
713.8690, 9.165833
714.3511, 8.769653
714.8333, 8.245911
715.3154, 7.699280
715.7975, 7.326172
716.2796, 7.495300
716.7617, 8.738953
717.2438, 8.921265
717.7260, 7.540344
718.2081, 5.411133
718.6902, 3.879517
719.1723, 2.895691
719.6544, 2.114075
720.1365, 1.252502
720.6187, 0.7873540
721.1008, 1.576050
721.5829, 3.101624
722.0650, 4.186646
722.5471, 3.676270
723.0292, 3.239441
723.5114, 4.046814
723.9935, 5.626465
724.4756, 5.824707
724.9577, 3.212036
725.4398, 1.370239
725.9219, 1.557739
726.4041, 3.399353
726.8862, 4.964172
727.3683, 6.322144
727.8504, 6.921753
728.3325, 5.534912
728.8146, 3.124268
729.2968, 2.375122
729.7789, 3.169189
730.2610, 3.906616
730.7431, 3.343994
731.2252, 2.469055
731.7073, 1.725464
732.1895, 1.090942
732.6716, 1.557678
733.1537, 5.145447
733.6358, 8.172363
734.1179, 8.727905
734.6000, 6.200623
735.0822, 4.657593
735.5643, 4.189148
736.0464, 4.335754
736.5285, 5.108337
737.0106, 6.199646
737.4927, 6.247437
737.9749, 5.023254
738.4570, 3.754211
738.9391, 3.495605
739.4212, 3.822510
739.9033, 4.479919
740.3854, 5.725281
740.8676, 6.065918
741.3497, 3.612061
741.8318, 0.8748170
742.3139, 0.6036380
742.7960, 4.499756
743.2781, 6.400269
743.7603, 5.288940
744.2424, 3.100464
744.7245, 2.891968
745.2066, 4.364563
745.6887, 4.912354
746.1708, 3.416565
746.6530, 1.619446
747.1351, 1.594360
747.6172, 2.774475
748.0993, 4.174133
748.5814, 6.065125
749.0635, 7.377625
749.5457, 7.555237
750.0278, 6.937256
750.5099, 6.209778
750.9920, 4.964294
751.4741, 4.521606
751.9562, 5.486938
752.4384, 7.139893
752.9205, 7.725403
753.4026, 7.263123
753.8847, 5.934692
754.3668, 3.172302
754.8489, 0.2988280
755.3311, 0.7600710
755.8132, 0.3359990
756.2953, 0.6328130
756.7774, 2.461121
757.2595, 3.985901
757.7416, 4.570557
758.2238, 4.320618
758.7059, 3.957886
759.1880, 3.121826
759.6701, 2.864624
760.1522, 3.820129
760.6343, 5.602722
761.1165, 5.908508
761.5986, 4.734558
762.0807, 3.925354
762.5628, 5.161377
763.0449, 7.000671
763.5270, 6.194153
764.0092, 3.250732
764.4913, 0.9002080
764.9734, 1.005310
765.4555, 1.880493
765.9376, 2.955566
766.4197, 4.180969
766.9019, 4.058350
767.3840, 1.393555
767.8661, 0.9456790
768.3482, 1.568726
768.8303, 0.5601200
769.3124, 5.1697001E-02
769.7946, 9.2651002E-02
770.2767, 5.6274001E-02
770.7588, 0.6877440
771.2409, 1.737610
771.7230, 2.173523
772.2051, 2.013000
772.6873, 2.311646
773.1694, 4.205566
773.6515, 6.369019
774.1336, 8.282959
774.6157, 10.12787
775.0978, 9.718628
775.5800, 5.042297
776.0621, 0.8062740
776.5442, 0.2376100
777.0263, 3.569519
777.5084, 5.164795
777.9905, 4.912231
778.4727, 4.096008
778.9548, 3.539795
779.4369, 3.262085
779.9190, 3.541748
780.4011, 4.448303
780.8832, 4.818420
781.3654, 3.291260
781.8475, 1.482422
782.3296, 0.5974730
782.8117, 1.184387
783.2938, 1.615662
783.7759, 2.124878
784.2581, 2.166016
784.7402, 0.8313600
785.2223, 1.877258
785.7044, 2.451416
786.1865, 0.5444340
786.6686, 1.591064
787.1508, 1.236694
787.6329, 8.1298999E-02
788.1150, 0.4373170
788.5971, 3.632202
789.0792, 5.721863
789.5613, 3.529053
790.0435, 0.3797610
790.5256, 0.9618530
791.0077, 0.4670410
791.4898, 1.560669
791.9719, 2.367798
792.4540, 2.731079
792.9362, 2.094971
793.4183, 0.7386470
793.9004, 0.7799680
794.3825, 2.416504
794.8646, 4.263367
795.3467, 5.493591
795.8289, 5.904236
796.3110, 4.775757
796.7931, 1.326050
797.2752, 0.7386470
797.7573, 1.420044
798.2394, 4.515564
798.7216, 5.688721
799.2037, 3.730652
799.6858, 3.243347
800.1679, 4.817932
800.6500, 6.534363
801.1321, 6.347412
801.6143, 4.579529
802.0964, 2.615723
802.5785, 0.5258180
803.0606, 0.9190060
803.5427, 0.5386960
804.0248, 0.6657710
804.5070, 1.511597
804.9891, 1.733704
805.4712, 2.144531
805.9533, 3.644226
806.4354, 4.859924
806.9175, 4.599121
807.3997, 2.298401
807.8818, 1.160583
808.3639, 1.426025
808.8460, 2.291138
809.3281, 3.380249
809.8102, 4.379211
810.2924, 4.169861
810.7745, 2.440369
811.2566, 1.073425
811.7387, 2.065613
812.2208, 3.625000
812.7029, 4.039856
813.1851, 2.333801
813.6672, 1.393860
814.1493, 1.556335
814.6314, 2.217468
815.1135, 3.061646
815.5956, 4.119934
816.0778, 4.662842
816.5599, 4.648438
817.0420, 4.240112
817.5241, 3.469788
818.0062, 2.457581
818.4883, 1.076416
818.9705, 0.8479610
819.4526, 1.656006
819.9347, 0.8765260
820.4168, 3.775391
820.8989, 4.661133
821.3810, 2.852539
821.8632, 1.741882
822.3453, 1.486023
822.8274, 1.593018
823.3095, 1.591125
823.7916, 1.588257
824.2737, 2.467773
824.7559, 4.288208
825.2380, 5.671143
825.7201, 5.052734
826.2022, 3.641907
826.6843, 2.660645
827.1664, 2.234741
827.6486, 1.963013
828.1307, 1.894104
828.6128, 1.843750
829.0949, 1.675415
829.5770, 1.364929
830.0591, 1.333740
830.5413, 1.593445
831.0234, 2.063232
831.5055, 2.918396
831.9876, 3.864929
832.4697, 4.206238
832.9518, 3.957275
833.4340, 3.808716
833.9161, 4.581787
834.3982, 5.225159
834.8803, 4.809509
835.3624, 3.176331
835.8445, 2.667175
836.3267, 3.632446
836.8088, 4.661377
837.2909, 5.537537
837.7730, 6.132080
838.2551, 5.046631
838.7372, 2.444397
839.2194, 0.8495480
839.7015, 3.293396
840.1836, 6.520325
840.6657, 7.065735
841.1478, 5.280884
841.6299, 3.809143
842.1121, 3.636169
842.5942, 3.778259
843.0763, 3.918335
843.5584, 4.060669
844.0405, 3.788391
844.5226, 2.921814
845.0048, 2.188965
845.4869, 1.851868
845.9690, 1.906921
846.4511, 2.384277
846.9332, 3.192322
847.4153, 4.037903
847.8975, 5.020386
848.3796, 5.679077
848.8617, 6.327820
849.3438, 6.575012
849.8259, 5.311707
850.3080, 1.212769
850.7902, 1.457458
851.2723, 1.542175
851.7544, 0.1095580
852.2365, 2.221069
852.7186, 4.583069
853.2007, 5.847473
853.6829, 5.014038
854.1650, 3.745300
854.6471, 3.666565
855.1292, 4.043274
855.6113, 3.911194
856.0934, 1.673035
856.5756, 0.4887080
857.0577, 1.084167
857.5398, 2.550110
858.0219, 3.771729
858.5040, 4.769043
858.9861, 5.057678
859.4683, 4.499878
859.9504, 3.422668
860.4325, 1.500061
860.9146, 0.5375370
861.3967, 0.9447020
861.8788, 1.556396
862.3610, 3.378479
862.8431, 1.965759
863.3252, 3.8818002E-02
863.8073, 0.2946170
864.2894, 3.933472
864.7715, 6.121643
865.2537, 6.369019
865.7358, 5.770874
866.2179, 5.124939
866.7000, 4.455200
867.1821, 3.702637
867.6642, 2.844238
868.1464, 2.397522
868.6285, 3.332458
869.1106, 4.358398
869.5927, 4.292175
870.0748, 2.616638
870.5569, 2.123718
871.0391, 3.398804
871.5212, 4.772583
872.0033, 5.206970
872.4854, 4.833618
872.9675, 4.652222
873.4496, 4.643921
873.9318, 4.666931
874.4139, 4.286011
874.8960, 4.142273
875.3781, 5.397644
875.8602, 7.730957
876.3423, 8.540283
876.8245, 4.927795
877.3066, 2.337463
877.7887, 3.021729
878.2708, 5.794067
878.7529, 5.794922
879.2350, 3.029175
879.7172, 1.019775
880.1993, 1.838501
880.6814, 3.597778
881.1635, 3.866455
881.6456, 3.140015
882.1277, 2.570496
882.6099, 2.520081
883.0920, 2.768860
883.5741, 3.514526
884.0562, 4.413025
884.5383, 4.977112
885.0204, 5.212219
885.5026, 5.034607
885.9847, 4.354980
886.4668, 3.466858
886.9489, 2.508911
887.4310, 1.688354
887.9131, 1.462463
888.3953, 2.030334
888.8774, 2.943909
889.3595, 4.907104
889.8416, 6.545532
890.3237, 6.364624
890.8058, 3.147217
891.2880, 1.983948
891.7701, 3.559143
892.2522, 5.067749
892.7343, 2.761902
893.2164, 1.463562
893.6985, 1.864258
894.1807, 1.962402
894.6628, 2.529791
895.1449, 3.062662
895.6270, 4.503662
896.1091, 4.233276
896.5912, 4.869812
897.0734, 5.130249
897.5555, 4.988281
898.0376, 4.588013
898.5197, 3.817810
899.0018, 2.903992
899.4839, 2.786804
899.9661, 3.351685
900.4482, 3.923950
900.9303, 4.160583
901.4124, 4.265442
901.8945, 4.298706
902.3766, 4.310547
902.8588, 4.469543
903.3409, 4.911438
903.8230, 5.280029
904.3051, 5.523560
904.7872, 5.662170
905.2693, 5.936707
905.7515, 6.256470
906.2336, 5.560852
906.7157, 2.976990
907.1978, 1.071289
907.6799, 3.095581
908.1620, 6.682922
908.6442, 8.746094
909.1263, 8.170837
909.6084, 7.010315
910.0905, 4.850281
910.5726, 2.816833
911.0547, 2.041687
911.5369, 2.431274
912.0190, 2.793152
912.5011, 3.060059
912.9832, 3.363281
913.4653, 4.118591
913.9474, 4.754089
914.4296, 4.562988
914.9117, 3.481140
915.3938, 2.899597
915.8759, 3.010132
916.3580, 3.646484
916.8401, 4.950989
917.3223, 6.724731
917.8044, 7.835144
918.2865, 8.286804
918.7686, 8.418091
919.2507, 8.543030
919.7328, 8.531799
920.2150, 8.312561
920.6971, 7.678650
921.1792, 6.106201
921.6613, 0.9059450
922.1434, 1.555908
922.6255, 0.6442870
923.1077, 4.981262
923.5898, 7.170471
924.0719, 7.294250
924.5540, 7.028625
925.0361, 6.645691
925.5182, 6.190613
926.0004, 5.442932
926.4825, 4.764771
926.9646, 4.643555
927.4467, 5.406128
927.9288, 6.041565
928.4109, 6.595764
928.8931, 6.799133
929.3752, 6.339355
929.8573, 5.235413
930.3394, 4.434387
930.8215, 3.946350
931.3036, 3.323547
931.7858, 1.710449
932.2679, 0.2099000
932.7500, 0.2440800
933.2321, 1.607849
933.7142, 2.349548
934.1964, 1.359497
934.6785, 0.6323240
935.1606, 0.7595830
935.6427, 1.435364
936.1248, 1.612610
936.6069, 1.363037
937.0891, 1.611572
937.5712, 2.913269
938.0533, 4.350708
938.5354, 5.052185
939.0175, 5.289856
939.4996, 5.452209
939.9818, 6.080017
940.4639, 5.857605
940.9460, 4.331665
941.4281, 2.533142
941.9102, 1.481689
942.3923, 1.130249
942.8745, 1.040283
943.3566, 1.181396
943.8387, 1.630676
944.3208, 2.713379
944.8029, 3.971985
945.2850, 5.038940
945.7672, 5.860657
946.2493, 6.230591
946.7314, 6.074768
947.2135, 5.604492
947.6956, 4.791748
948.1777, 3.771423
948.6599, 2.988770
949.1420, 2.455261
949.6241, 2.271057
950.1062, 2.744019
950.5883, 3.271179
951.0704, 3.318787
951.5526, 3.107666
952.0347, 3.042542
952.5168, 2.971008
952.9989, 2.976135
953.4810, 2.997375
953.9631, 3.228699
954.4453, 4.272095
954.9274, 5.745605
955.4095, 6.199219
955.8916, 5.381409
956.3737, 4.313171
956.8558, 3.059753
957.3380, 2.278198
957.8201, 2.769958
958.3022, 4.666504
958.7843, 5.626099
959.2664, 5.531982
959.7485, 4.802795
960.2307, 3.251282
960.7128, 1.467224
961.1949, 1.174988
961.6770, 1.946716
962.1591, 2.286560
962.6412, 0.6676030
963.1234, 0.5750730
963.6055, 0.1742550
964.0876, 5.1268871E-04
964.5697, 1.628784
965.0518, 0.3915410
965.5339, 1.684082
966.0161, 1.905823
966.4982, 1.355042
966.9803, 2.363953
967.4624, 1.903992
967.9445, 3.117798
968.4266, 3.592712
968.9088, 3.590027
969.3909, 2.932922
969.8730, 2.113403
970.3551, 1.005493
970.8372, 0.4098510
971.3193, 0.1813960
971.8015, 1.737122
972.2836, 3.655212
972.7657, 4.819641
973.2478, 5.307251
973.7299, 4.919678
974.2120, 3.945557
974.6942, 3.102661
975.1763, 2.376160
975.6584, 2.130920
976.1405, 2.375061
976.6226, 3.141602
977.1047, 4.959717
977.5869, 7.636536
978.0690, 8.628845
978.5511, 7.431091
979.0332, 5.916809
979.5153, 5.843323
979.9974, 5.952759
980.4796, 5.129517
980.9617, 2.892395
981.4438, 2.001221
981.9259, 3.233643
982.4080, 4.294189
982.8901, 3.915527
983.3723, 2.704285
983.8544, 2.702087
984.3365, 3.625671
984.8186, 4.300903
985.3007, 3.593750
985.7828, 3.105591
986.2650, 3.885376
986.7471, 5.272034
987.2292, 6.169617
987.7113, 6.628845
988.1934, 6.694336
988.6755, 5.974243
989.1577, 5.326660
989.6398, 5.447815
990.1219, 6.185852
990.6040, 7.764954
991.0861, 10.23456
991.5682, 11.41254
992.0504, 9.290283
992.5325, 6.830872
993.0146, 5.221558
993.4967, 4.435181
993.9788, 4.309143
994.4609, 4.849121
994.9431, 5.406799
995.4252, 5.967285
995.9073, 6.066223
996.3894, 4.550354
996.8715, 2.424927
997.3536, 1.309875
997.8358, 2.959839
998.3179, 3.583008
998.8000, 2.518005
999.2821, 1.293274
999.7642, 1.806152
1000.246, 3.563416
1000.728, 3.604492
1001.211, 1.846008
1001.693, 0.1930540
1002.175, 0.4689940
1002.657, 0.2499390
1003.139, 1.171936
1003.621, 3.577209
1004.103, 5.079224
1004.585, 5.558228
1005.068, 5.491028
1005.550, 4.799255
1006.032, 4.053528
1006.514, 4.227661
1006.996, 5.028381
1007.478, 5.978333
1007.960, 7.301270
1008.442, 7.842834
1008.924, 6.243103
1009.407, 4.711731
1009.889, 4.731995
1010.371, 6.410767
1010.853, 7.004211
1011.335, 6.510315
1011.817, 5.553284
1012.299, 3.700195
1012.781, 2.285522
1013.263, 3.362610
1013.746, 6.006042
1014.228, 6.825378
1014.710, 3.657288
1015.192, 1.882813
1015.674, 2.713928
1016.156, 4.544739
1016.638, 5.116638
1017.120, 4.667419
1017.603, 3.629517
1018.085, 1.910461
1018.567, 1.041260
1019.049, 3.187439
1019.531, 5.402954
1020.013, 5.366577
1020.495, 3.185791
1020.977, 2.172119
1021.459, 2.495300
1021.942, 3.133179
1022.424, 3.883789
1022.906, 4.360229
1023.388, 3.583069
1023.870, 2.263489
1024.352, 1.705139
1024.834, 3.349548
1025.316, 4.346985
1025.799, 4.544678
1026.281, 4.022827
1026.763, 1.970886
1027.245, 1.044373
1027.727, 1.332886
1028.209, 1.205750
1028.691, 1.802059
1029.173, 3.951355
1029.656, 3.770142
1030.138, 4.524109
1030.620, 5.914856
1031.102, 6.143250
1031.584, 4.886902
1032.066, 3.625427
1032.548, 2.549072
1033.030, 2.018616
1033.512, 2.957581
1033.995, 4.694458
1034.477, 6.193970
1034.959, 7.407288
1035.441, 7.642944
1035.923, 5.979797
1036.405, 4.140747
1036.887, 2.960693
1037.369, 2.413208
1037.851, 2.247009
1038.334, 2.446106
1038.816, 2.807983
1039.298, 3.706726
1039.780, 4.269226
1040.262, 3.456116
1040.744, 1.991211
1041.226, 1.307861
1041.708, 1.696838
1042.191, 2.227539
1042.673, 2.933044
1043.155, 3.439758
1043.637, 3.488464
1044.119, 3.021606
1044.601, 1.341003
1045.083, 1.468323
1045.565, 2.685852
1046.047, 0.2099610
1046.530, 3.022705
1047.012, 4.390503
1047.494, 4.784241
1047.976, 5.580566
1048.458, 6.686951
1048.940, 7.251160
1049.422, 6.973755
1049.904, 6.336060
1050.386, 5.189880
1050.869, 4.176758
1051.351, 4.114807
1051.833, 5.306396
1052.315, 6.012268
1052.797, 6.218445
1053.279, 5.728088
1053.761, 3.473938
1054.243, 1.040771
1054.726, 1.845093
1055.208, 4.709167
1055.690, 6.522278
1056.172, 5.456116
1056.654, 4.183594
1057.136, 2.911499
1057.618, 1.830383
1058.100, 1.285400
1058.583, 1.177856
1059.065, 0.6524660
1059.547, 0.3361820
1060.029, 0.7590940
1060.511, 0.8364260
1060.993, 1.098397
1061.475, 1.502778
1061.957, 2.178284
1062.439, 2.378357
1062.922, 3.674927
1063.404, 4.354980
1063.886, 3.828064
1064.368, 3.000732
1064.850, 3.355103
1065.332, 3.930054
1065.814, 3.192993
1066.296, 0.2853390
1066.778, 1.205566
1067.261, 0.3970340
1067.743, 0.7657470
1068.225, 1.305786
1068.707, 1.450073
1069.189, 2.038391
1069.671, 2.900269
1070.153, 3.405029
1070.635, 3.020142
1071.118, 2.567566
1071.600, 2.132019
1072.082, 1.968689
1072.564, 2.617798
1073.046, 4.245422
1073.528, 4.050110
1074.010, 1.872986
1074.492, 0.2302250
1074.974, 2.059937
1075.457, 4.444214
1075.939, 4.540466
1076.421, 2.867920
1076.903, 1.921326
1077.385, 1.870361
1077.867, 2.600037
1078.349, 4.353027
1078.831, 6.149170
1079.313, 6.516907
1079.796, 6.073608
1080.278, 5.954224
1080.760, 6.341064
1081.242, 6.529236
1081.724, 6.744263
1082.206, 6.045288
1082.688, 3.551208
1083.170, 0.2059940
1083.652, 0.7626340
1084.135, 0.2847900
1084.617, 1.693359
1085.099, 3.230042
1085.581, 4.001526
1086.063, 2.679810
1086.545, 0.9701540
1087.027, 0.5410160
1087.509, 1.540405
1087.992, 2.775146
1088.474, 4.312500
1088.956, 5.178955
1089.438, 4.308716
1089.920, 2.878113
1090.402, 1.862366
1090.884, 1.253296
1091.366, 1.051697
1091.849, 1.190552
1092.331, 1.918091
1092.813, 3.495056
1093.295, 4.924866
1093.777, 4.825867
1094.259, 3.990540
1094.741, 4.526001
1095.223, 6.199463
1095.705, 6.627991
1096.188, 3.178406
1096.670, 0.4891360
1097.152, 0.2183230
1097.634, 0.4133910
1098.116, 1.690063
1098.598, 3.374146
1099.080, 3.893066
1099.562, 2.912231
1100.044, 1.881653
1100.527, 1.779419
1101.009, 1.939270
1101.491, 1.867493
1101.973, 1.634949
1102.455, 1.820740
1102.937, 2.336243
1103.419, 2.602173
1103.901, 2.492859
1104.384, 2.538635
1104.866, 3.768250
1105.348, 5.389832
1105.830, 6.510437
1106.312, 6.980957
1106.794, 6.965698
1107.276, 6.485474
1107.758, 5.375244
1108.240, 2.969849
1108.723, 0.3417360
1109.205, 0.9536740
1109.687, 0.9821170
1110.169, 7.1410999E-02
1110.651, 4.292114
1111.133, 6.270081
1111.615, 4.753601
1112.097, 2.494690
1112.579, 2.000122
1113.062, 2.862244
1113.544, 3.786194
1114.026, 4.687927
1114.508, 5.260498
1114.990, 5.505066
1115.472, 5.178162
1115.954, 3.920471
1116.436, 2.266479
1116.919, 0.6592410
1117.401, 0.8579710
1117.883, 0.4796140
1118.365, 2.144897
1118.847, 2.236422
1119.329, 4.511292
1119.811, 3.986206
1120.293, 4.827881
1120.776, 6.398743
1121.258, 5.301392
1121.740, 0.9641110
1122.222, 0.3579710
1122.704, 3.532532
1123.186, 7.826660
1123.668, 7.120544
1124.150, 4.343811
1124.632, 2.591614
1125.115, 2.558044
1125.597, 2.121582
1126.079, 0.9043580
1126.561, 0.4174800
1127.043, 1.585510
1127.525, 3.285095
1128.007, 3.849365
1128.489, 3.573669
1128.971, 3.081726
1129.454, 2.639038
1129.936, 2.117737
1130.418, 1.389465
1130.900, 0.7893680
1131.382, 0.4294430
1131.864, 0.3746950
1132.346, 1.067566
1132.828, 2.250854
1133.311, 3.104797
1133.793, 3.383179
1134.275, 3.086670
1134.757, 1.579712
1135.239, 0.2480470
1135.721, 0.6835940
1136.203, 2.550903
1136.685, 2.692566
1137.167, 1.334106
1137.650, 0.8889160
1138.132, 4.295898
1138.614, 7.220093
1139.096, 7.356140
1139.578, 5.965820
1140.060, 4.484192
1140.542, 2.896912
1141.024, 1.598755
1141.506, 0.5725100
1141.989, 6.1829001E-02
1142.471, 0.3471680
1142.953, 0.9273070
1143.435, 1.711060
1143.917, 2.481262
1144.399, 2.460083
1144.881, 1.442871
1145.363, 1.379211
1145.846, 2.765564
1146.328, 4.120789
1146.810, 3.632141
1147.292, 2.602600
1147.774, 2.338013
1148.256, 2.929871
1148.738, 3.211426
1149.220, 3.038269
1149.703, 3.101074
1150.185, 3.695251
1150.667, 4.284729
1151.149, 3.844971
1151.631, 3.117126
1152.113, 3.190796
1152.595, 4.360413
1153.077, 5.485168
1153.559, 6.742432
1154.042, 7.184937
1154.524, 6.058899
1155.006, 4.426025
1155.488, 4.396667
1155.970, 5.333862
1156.452, 5.989319
1156.934, 5.835571
1157.416, 6.196106
1157.898, 7.975830
1158.381, 8.802307
1158.863, 6.606689
1159.345, 2.961548
1159.827, 2.912292
1160.309, 5.222412
1160.791, 6.448181
1161.273, 4.264099
1161.755, 2.911316
1162.238, 3.576477
1162.720, 4.864075
1163.202, 6.150696
1163.684, 7.236633
1164.166, 6.944519
1164.648, 5.366638
1165.130, 3.690918
1165.612, 2.391968
1166.094, 1.557678
1166.577, 1.192566
1167.059, 1.250305
1167.541, 1.985168
1168.023, 3.334839
1168.505, 4.186462
1168.987, 4.559509
1169.469, 5.035828
1169.951, 6.136108
1170.433, 6.968079
1170.916, 7.551270
1171.398, 7.622620
1171.880, 6.479797
1172.362, 4.217468
1172.844, 2.939209
1173.326, 2.805359
1173.808, 3.137512
1174.290, 3.748657
1174.773, 4.422791
1175.255, 5.169800
1175.737, 5.862427
1176.219, 6.218689
1176.701, 6.230286
1177.183, 5.028381
1177.665, 2.406006
1178.147, 0.1832280
1178.630, 9.1918997E-02
1179.112, 0.4389650
1179.594, 1.346436
1180.076, 2.351990
1180.558, 2.606812
1181.040, 2.029785
1181.522, 2.146179
1182.004, 3.369446
1182.486, 4.446594
1182.969, 4.165466
1183.451, 3.310364
1183.933, 2.441833
1184.415, 1.572815
1184.897, 1.509996
1185.379, 1.953125
1185.861, 1.663452
1186.343, 2.528259
1186.825, 2.855881
1187.308, 2.693143
1187.790, 3.467041
1188.272, 2.687927
1188.754, 3.593201
1189.236, 4.122009
1189.718, 4.297546
1190.200, 3.851868
1190.682, 2.452209
1191.165, 1.142456
1191.647, 1.391296
1192.129, 2.101318
1192.611, 1.936035
1193.093, 0.6986690
1193.575, 0.2337650
1194.057, 0.6522830
1194.539, 0.8695680
1195.021, 0.2622070
1195.504, 0.3499760
1195.986, 0.3750610
1196.468, 0.3195190
1196.950, 2.239014
1197.432, 5.786377
1197.914, 7.825562
1198.396, 8.272888
1198.878, 7.671143
1199.360, 5.566528
1199.843, 3.506409
1200.325, 3.811829
1200.807, 2.745300
1201.289, 2.535767
1201.771, 3.337708
1202.253, 3.153931
1202.735, 4.921448
1203.217, 6.678101
1203.700, 7.465210
1204.182, 7.504211
1204.664, 6.476501
1205.146, 5.101440
1205.628, 4.668213
1206.110, 5.893555
1206.592, 5.729980
1207.074, 3.872498
1207.557, 2.515991
1208.039, 3.359253
1208.521, 5.151611
1209.003, 7.340027
1209.485, 9.187866
1209.967, 8.954773
1210.449, 4.971924
1210.931, 3.928345
1211.413, 6.262390
1211.896, 8.749146
1212.378, 9.260254
1212.860, 8.689758
1213.342, 7.360779
1213.824, 5.809937
1214.306, 5.244751
1214.788, 6.135254
1215.270, 6.556091
1215.752, 6.428162
1216.235, 6.117981
1216.717, 5.863953
1217.199, 5.589539
1217.681, 5.342896
1218.163, 4.985962
1218.645, 4.073181
1219.127, 2.109558
1219.609, 2.011719
1220.092, 1.662636
1220.574, 1.575276
1221.056, 1.752319
1221.538, 2.341248
1222.020, 1.774414
1222.502, 1.815491
1222.984, 4.430664
1223.466, 5.941528
1223.948, 6.134949
1224.431, 4.887634
1224.913, 3.754883
1225.395, 4.904297
1225.877, 5.831543
1226.359, 3.370056
1226.841, 0.6412960
1227.323, 1.424744
1227.805, 1.732971
1228.287, 3.117493
1228.770, 2.218567
1229.252, 1.309387
1229.734, 2.451538
1230.216, 4.017273
1230.698, 4.704224
1231.180, 4.949402
1231.662, 6.114014
1232.144, 8.406250
1232.627, 8.335144
1233.109, 5.543579
1233.591, 2.970825
1234.073, 3.058777
1234.555, 3.854309
1235.037, 4.177795
1235.519, 4.279236
1236.001, 4.811401
1236.484, 5.772522
1236.966, 6.009766
1237.448, 5.417847
1237.930, 4.561523
1238.412, 3.646973
1238.894, 2.763855
1239.376, 1.466309
1239.858, 0.5527340
1240.340, 1.908203
1240.823, 5.138428
1241.305, 6.474487
1241.787, 5.608093
1242.269, 4.517822
1242.751, 4.242188
1243.233, 4.149536
1243.715, 4.587891
1244.197, 4.946167
1244.679, 3.345642
1245.162, 0.4255980
1245.644, 6.0120001E-02
1246.126, 2.470093
1246.608, 4.614197
1247.090, 4.538025
1247.572, 4.453613
1248.054, 5.273560
1248.536, 6.177063
1249.019, 5.800049
1249.501, 4.453613
1249.983, 2.842041
1250.465, 1.211670
1250.947, 0.9483030
1251.429, 4.284119
1251.911, 6.830017
1252.393, 7.642944
1252.875, 7.381531
1253.358, 6.426331
1253.840, 5.249573
1254.322, 5.409607
1254.804, 6.732361
1255.286, 6.567200
1255.768, 1.930420
1256.250, 0.1347050
1256.732, 2.023621
1257.214, 5.598999
1257.697, 7.426331
1258.179, 8.241455
1258.661, 9.239868
1259.143, 10.39972
1259.625, 10.91296
1260.107, 10.79907
1260.589, 9.690735
1261.071, 7.296021
1261.554, 4.911987
1262.036, 3.610046
1262.518, 3.092102
1263.000, 4.359375
1263.482, 6.873474
1263.964, 7.269897
1264.446, 4.882019
1264.928, 2.564453
1265.411, 0.2504880
1265.893, 0.3124390
1266.375, 3.321838
1266.857, 7.526733
1267.339, 9.166565
1267.821, 8.716064
1268.303, 8.037476
1268.785, 7.045105
1269.267, 7.120361
1269.750, 8.451538
1270.232, 9.480469
1270.714, 9.245117
1271.196, 8.134460
1271.678, 5.322021
1272.160, 2.356445
1272.642, 1.751038
1273.124, 3.382874
1273.606, 6.091736
1274.089, 9.611511
1274.571, 11.36493
1275.053, 8.298218
1275.535, 5.222961
1276.017, 4.009094
1276.499, 3.628662
1276.981, 2.284973
1277.463, 0.5967410
1277.946, 1.684082
1278.428, 5.192566
1278.910, 7.428650
1279.392, 5.270691
1279.874, 3.641968
1280.356, 3.644897
1280.838, 4.381409
1281.320, 5.487793
1281.802, 6.410156
1282.285, 5.298767
1282.767, 2.780029
1283.249, 1.945190
1283.731, 5.630859
1284.213, 6.728882
1284.695, 4.046692
1285.177, 0.9069820
1285.659, 0.1240230
1286.141, 2.4963001E-02
1286.624, 0.4294430
1287.106, 1.035278
1287.588, 1.895569
1288.070, 3.289307
1288.552, 3.501953
1289.034, 2.308899
1289.516, 1.499573
1289.998, 3.362061
1290.481, 5.201477
1290.963, 4.353088
1291.445, 2.340088
1291.927, 1.940979
1292.409, 3.279724
1292.891, 3.594666
1293.373, 2.926086
1293.855, 2.921448
1294.338, 5.619995
1294.820, 7.676636
1295.302, 7.983765
1295.784, 7.132446
1296.266, 4.891785
1296.748, 1.627563
1297.230, 0.1106570
1297.712, 0.3206180
1298.194, 1.097900
1298.677, 5.660156
1299.159, 9.296570
1299.641, 11.86078
1300.123, 12.51965
1300.605, 7.572449
1301.087, 2.304932
1301.569, 0.7937620
1302.051, 1.548462
1302.533, 1.636902
1303.016, 0.0000000E+00
##END=



