##NAMES=Renierite
##RRUFFID=R050428
##IDEAL CHEMISTRY=(Cu^1+^,Cu^2+^Zn^2+^)_11_(Fe^2+^,Fe^3+^)_4_(Ge^4+^,As^5+^)_2_S^2-^_16_
##LOCALITY=Tsumeb mine, Tsumeb, Otavi District, Oshikoto, Namibia
##OWNER=RRUFF
##SOURCE=University of Arizona Mineral Museum
##DESCRIPTION=Reddish bronze metallic massive, associated with siderite.
##STATUS=The identification of this mineral has been confirmed by X-ray diffraction and chemical analysis
##URL=rruff.info/R050428
##MEASURED CHEMISTRY=(Cu_10.73_Zn_0.28_)_Σ=11_Fe_4.00_(Ge_1.35_As_0.65_)_Σ=2_S_16.00_
143.4413, 21.60425
143.9234, 21.94246
144.4055, 22.28649
144.8876, 22.56382
145.3697, 22.77421
145.8518, 22.91711
146.3340, 22.95540
146.8161, 22.95186
147.2982, 22.91281
147.7803, 22.84468
148.2624, 22.75850
148.7445, 22.66912
149.2267, 22.59364
149.7088, 22.43585
150.1909, 22.09451
150.6730, 21.76886
151.1551, 21.54462
151.6372, 21.44415
152.1194, 21.48042
152.6015, 21.70793
153.0836, 22.31202
153.5657, 22.53687
154.0478, 22.04598
154.5299, 21.33694
155.0121, 20.89015
155.4942, 20.82890
155.9763, 21.00509
156.4584, 21.27684
156.9405, 21.66667
157.4226, 21.95184
157.9048, 22.06494
158.3869, 22.03160
158.8690, 21.86498
159.3511, 21.47515
159.8332, 21.10552
160.3153, 21.09276
160.7975, 21.44540
161.2796, 21.77363
161.7617, 21.78981
162.2438, 21.52010
162.7259, 21.31312
163.2081, 21.32915
163.6902, 21.36984
164.1723, 21.25282
164.6544, 20.96211
165.1365, 20.68016
165.6186, 20.64542
166.1008, 20.93837
166.5829, 21.11476
167.0650, 21.01554
167.5471, 20.83555
168.0292, 20.66627
168.5113, 20.53659
168.9935, 20.45125
169.4756, 20.42680
169.9577, 20.51155
170.4398, 20.56585
170.9219, 20.57025
171.4040, 20.55017
171.8862, 20.48783
172.3683, 20.38389
172.8504, 20.31075
173.3325, 20.44848
173.8146, 21.27452
174.2967, 21.72966
174.7789, 21.61375
175.2610, 21.17197
175.7431, 20.61078
176.2252, 20.00338
176.7073, 19.45474
177.1894, 19.34019
177.6716, 20.04940
178.1537, 20.66031
178.6358, 20.99059
179.1179, 21.10629
179.6000, 21.11767
180.0821, 21.05162
180.5643, 20.94946
181.0464, 20.94936
181.5285, 21.17338
182.0106, 21.30891
182.4927, 21.11619
182.9748, 20.67151
183.4570, 20.33736
183.9391, 20.36901
184.4212, 20.56979
184.9033, 20.48365
185.3854, 19.90095
185.8675, 19.36636
186.3497, 19.44403
186.8318, 20.15502
187.3139, 20.73468
187.7960, 20.73019
188.2781, 20.45150
188.7602, 20.21593
189.2424, 20.08158
189.7245, 20.00776
190.2066, 19.94115
190.6887, 19.87368
191.1708, 19.84461
191.6530, 19.86726
192.1351, 19.93246
192.6172, 20.05544
193.0993, 20.25265
193.5814, 20.46428
194.0635, 20.56558
194.5457, 20.51773
195.0278, 20.42692
195.5099, 20.26162
195.9920, 20.09687
196.4741, 20.00684
196.9562, 20.02537
197.4384, 20.12994
197.9205, 20.26587
198.4026, 20.53305
198.8847, 20.68414
199.3668, 20.64191
199.8489, 20.49222
200.3311, 20.32607
200.8132, 20.18906
201.2953, 20.07134
201.7774, 19.93551
202.2595, 19.71823
202.7416, 19.55407
203.2238, 19.46353
203.7059, 19.43220
204.1880, 19.43812
204.6701, 19.46997
205.1522, 19.53013
205.6343, 19.63280
206.1165, 19.91568
206.5986, 20.08294
207.0807, 19.95831
207.5628, 19.67990
208.0449, 19.52781
208.5270, 19.67382
209.0092, 20.01522
209.4913, 20.12120
209.9734, 19.82032
210.4555, 19.54434
210.9376, 19.44988
211.4197, 19.49961
211.9019, 19.60652
212.3840, 19.75855
212.8661, 19.90897
213.3482, 19.93588
213.8303, 19.78560
214.3124, 19.61084
214.7946, 19.50899
215.2767, 19.46305
215.7588, 19.36269
216.2409, 19.06561
216.7230, 18.76400
217.2052, 18.81117
217.6873, 19.38214
218.1694, 19.93567
218.6515, 19.97621
219.1336, 19.52597
219.6157, 19.17304
220.0979, 19.18806
220.5800, 19.38744
221.0621, 19.58301
221.5442, 19.76449
222.0263, 19.90450
222.5084, 19.99596
222.9906, 20.04555
223.4727, 19.97233
223.9548, 19.55729
224.4369, 19.12487
224.9190, 18.91393
225.4011, 18.97077
225.8833, 19.19146
226.3654, 19.51104
226.8475, 19.97666
227.3296, 20.30465
227.8117, 20.31684
228.2938, 20.24646
228.7760, 20.23861
229.2581, 20.32131
229.7402, 20.40785
230.2223, 20.36111
230.7044, 20.11358
231.1865, 19.94955
231.6687, 19.88447
232.1508, 19.91333
232.6329, 20.10531
233.1150, 20.44549
233.5971, 20.77460
234.0792, 20.86435
234.5614, 20.63704
235.0435, 20.34645
235.5256, 19.84505
236.0077, 19.40186
236.4898, 19.21265
236.9719, 19.29723
237.4541, 19.51531
237.9362, 19.69685
238.4183, 19.88726
238.9004, 19.90824
239.3825, 19.50303
239.8646, 19.14803
240.3468, 19.22816
240.8289, 19.75173
241.3110, 20.37873
241.7931, 20.68938
242.2752, 20.55809
242.7573, 20.43236
243.2395, 20.25105
243.7216, 20.11847
244.2037, 20.12566
244.6858, 20.27058
245.1679, 20.46463
245.6501, 20.61631
246.1322, 20.72473
246.6143, 20.77109
247.0964, 20.79631
247.5785, 20.73788
248.0606, 20.47123
248.5428, 20.02655
249.0249, 19.63789
249.5070, 19.55132
249.9891, 19.82833
250.4712, 20.00688
250.9533, 20.01789
251.4355, 19.99154
251.9176, 20.01471
252.3997, 20.09055
252.8818, 20.17689
253.3639, 20.25352
253.8460, 20.31296
254.3282, 20.27974
254.8103, 20.03310
255.2924, 19.79102
255.7745, 19.71577
256.2566, 19.80228
256.7387, 19.94039
257.2209, 20.08218
257.7030, 20.20764
258.1851, 20.24226
258.6672, 20.13102
259.1493, 19.97370
259.6314, 19.78931
260.1136, 19.59144
260.5957, 19.50433
261.0778, 19.66520
261.5599, 19.97513
262.0420, 20.11570
262.5241, 19.96865
263.0063, 19.78889
263.4884, 19.73746
263.9705, 19.80784
264.4526, 19.95774
264.9347, 20.23402
265.4168, 20.53340
265.8990, 20.65775
266.3811, 20.53368
266.8632, 20.39178
267.3453, 20.44004
267.8274, 20.64662
268.3095, 20.75656
268.7917, 20.65526
269.2738, 20.42466
269.7559, 20.16057
270.2380, 19.84299
270.7201, 19.60887
271.2022, 19.57403
271.6844, 19.71790
272.1665, 19.92300
272.6486, 20.26398
273.1307, 20.53286
273.6128, 20.49494
274.0949, 20.15343
274.5771, 19.82819
275.0592, 19.72024
275.5413, 19.80706
276.0234, 19.97962
276.5055, 20.32120
276.9876, 20.60945
277.4698, 20.65302
277.9519, 20.49102
278.4340, 20.32280
278.9161, 20.26979
279.3982, 20.31046
279.8803, 20.34322
280.3625, 20.33875
280.8446, 20.36658
281.3267, 20.56384
281.8088, 20.82900
282.2909, 20.91126
282.7730, 20.52666
283.2552, 19.86147
283.7373, 19.54853
284.2194, 19.70879
284.7015, 20.01493
285.1836, 20.42128
285.6658, 20.83509
286.1479, 21.11584
286.6300, 21.19365
287.1121, 21.10452
287.5942, 20.89222
288.0764, 20.47000
288.5585, 20.13217
289.0406, 19.98597
289.5227, 19.97016
290.0048, 20.04239
290.4869, 20.19732
290.9691, 20.40167
291.4512, 20.62178
291.9333, 20.89252
292.4154, 21.06419
292.8975, 21.07969
293.3796, 20.99536
293.8618, 20.81811
294.3439, 20.55038
294.8260, 20.26678
295.3081, 20.03090
295.7902, 19.81552
296.2723, 19.77920
296.7545, 20.20369
297.2366, 20.63796
297.7187, 20.82210
298.2008, 20.73584
298.6829, 20.52900
299.1650, 20.32380
299.6472, 20.11307
300.1293, 19.96502
300.6114, 19.89340
301.0935, 19.88489
301.5756, 19.97904
302.0577, 20.14291
302.5399, 20.28071
303.0220, 20.30051
303.5041, 20.20898
303.9862, 20.15645
304.4683, 20.15512
304.9504, 20.18453
305.4326, 20.26765
305.9147, 20.37207
306.3968, 20.43643
306.8789, 20.41174
307.3610, 20.32565
307.8431, 20.30983
308.3253, 20.46671
308.8074, 20.52685
309.2895, 20.32532
309.7716, 20.03104
310.2537, 19.84197
310.7358, 19.84397
311.2180, 19.99258
311.7001, 20.22051
312.1822, 20.63128
312.6643, 20.88696
313.1464, 20.80952
313.6285, 20.63943
314.1107, 20.56307
314.5928, 20.63181
315.0749, 20.77808
315.5570, 20.93466
316.0391, 21.13928
316.5212, 21.21203
317.0034, 20.93785
317.4855, 20.67825
317.9676, 20.67240
318.4497, 20.91428
318.9318, 21.19514
319.4139, 21.29058
319.8961, 21.17580
320.3782, 21.12310
320.8603, 21.24490
321.3424, 21.32342
321.8245, 21.24630
322.3066, 21.05518
322.7888, 20.86015
323.2709, 20.74018
323.7530, 20.68615
324.2351, 20.62640
324.7172, 20.48747
325.1993, 20.45550
325.6815, 20.75524
326.1636, 21.14165
326.6457, 21.23249
327.1278, 20.78897
327.6099, 20.07908
328.0920, 19.78630
328.5742, 20.14495
329.0563, 20.42087
329.5384, 20.37827
330.0205, 20.22455
330.5026, 20.12123
330.9847, 20.11503
331.4669, 20.17683
331.9490, 20.32283
332.4311, 20.62499
332.9132, 20.69343
333.3953, 20.17085
333.8774, 19.61456
334.3596, 19.31901
334.8417, 19.30219
335.3238, 19.41614
335.8059, 19.58524
336.2880, 19.81287
336.7701, 19.88925
337.2523, 19.67643
337.7344, 19.45450
338.2165, 19.31360
338.6986, 19.26161
339.1807, 19.31350
339.6628, 19.54456
340.1450, 19.86974
340.6271, 19.93334
341.1092, 19.55122
341.5913, 19.26380
342.0735, 19.36450
342.5556, 19.63503
343.0377, 19.80881
343.5198, 19.77439
344.0019, 19.64381
344.4840, 19.57836
344.9662, 19.57400
345.4483, 19.64959
345.9304, 19.96317
346.4125, 20.27076
346.8946, 20.35959
347.3767, 20.19881
347.8589, 20.00293
348.3410, 20.01556
348.8231, 20.22872
349.3052, 20.30526
349.7873, 20.06256
350.2694, 19.82775
350.7516, 19.86259
351.2337, 20.11238
351.7158, 20.33324
352.1979, 20.42605
352.6800, 20.38138
353.1621, 20.08405
353.6443, 19.32723
354.1264, 18.79440
354.6085, 19.19790
355.0906, 20.02415
355.5727, 20.43422
356.0548, 19.96232
356.5370, 19.18744
357.0191, 18.91832
357.5012, 19.20357
357.9833, 19.46539
358.4654, 19.42540
358.9475, 19.26392
359.4297, 19.18555
359.9118, 19.20970
360.3939, 19.30639
360.8760, 19.54801
361.3581, 19.87717
361.8402, 19.96801
362.3224, 19.62703
362.8045, 19.21132
363.2866, 19.13305
363.7687, 19.35447
364.2508, 19.53160
364.7329, 19.50365
365.2151, 19.35440
365.6972, 19.19953
366.1793, 19.03716
366.6614, 18.94025
367.1435, 19.03797
367.6256, 19.24858
368.1078, 19.31602
368.5899, 19.04806
369.0720, 18.75841
369.5541, 18.73739
370.0362, 18.94706
370.5183, 19.14036
371.0005, 19.21056
371.4826, 19.18378
371.9647, 19.12049
372.4468, 19.00392
372.9289, 18.89826
373.4110, 18.82303
373.8932, 18.77645
374.3753, 18.77391
374.8574, 18.82804
375.3395, 18.87155
375.8216, 18.80273
376.3037, 18.60465
376.7859, 18.44856
377.2680, 18.35611
377.7501, 18.30789
378.2322, 18.30682
378.7143, 18.34430
379.1964, 18.36361
379.6786, 18.30275
380.1607, 18.18131
380.6428, 18.20651
381.1249, 18.55557
381.6070, 18.83377
382.0891, 18.89905
382.5713, 18.79587
383.0534, 18.57780
383.5355, 18.25462
384.0176, 17.91940
384.4997, 17.77731
384.9818, 18.02331
385.4640, 18.14976
385.9461, 18.03118
386.4282, 17.86023
386.9103, 17.82218
387.3924, 17.93190
387.8745, 18.05817
388.3567, 18.05790
388.8388, 17.91113
389.3209, 17.77955
389.8030, 17.61212
390.2851, 17.50723
390.7672, 17.52338
391.2494, 17.62962
391.7315, 17.77961
392.2136, 17.95345
392.6957, 18.12088
393.1778, 18.15677
393.6599, 17.92068
394.1421, 17.74739
394.6242, 17.72489
395.1063, 17.74031
395.5884, 17.65280
396.0706, 17.44385
396.5527, 17.26408
397.0348, 17.36965
397.5169, 17.89867
397.9990, 18.15792
398.4811, 17.84145
398.9633, 17.52471
399.4454, 17.43649
399.9275, 17.54013
400.4096, 17.69243
400.8917, 17.80518
401.3738, 17.88543
401.8560, 17.97873
402.3381, 18.15861
402.8202, 18.20343
403.3023, 17.88821
403.7844, 17.49629
404.2665, 17.36192
404.7487, 17.59890
405.2308, 17.91207
405.7129, 17.90404
406.1950, 17.55297
406.6771, 17.29579
407.1592, 17.28218
407.6414, 17.31157
408.1235, 17.21633
408.6056, 17.02019
409.0877, 16.86827
409.5698, 16.91026
410.0519, 17.04603
410.5341, 16.99202
411.0162, 16.67175
411.4983, 16.43443
411.9804, 16.59111
412.4625, 16.95045
412.9446, 17.20086
413.4268, 17.27691
413.9089, 17.26255
414.3910, 17.16607
414.8731, 17.01632
415.3552, 16.96690
415.8373, 17.09881
416.3195, 17.29806
416.8016, 17.39774
417.2837, 17.39896
417.7658, 17.38049
418.2479, 17.39554
418.7300, 17.38467
419.2122, 17.24034
419.6943, 16.96006
420.1764, 16.70329
420.6585, 16.58982
421.1406, 16.61771
421.6227, 16.70156
422.1049, 16.92425
422.5870, 17.10782
423.0691, 17.13006
423.5512, 17.07306
424.0333, 17.10359
424.5154, 17.29164
424.9976, 17.54486
425.4797, 17.69991
425.9618, 17.79749
426.4439, 17.68027
426.9260, 17.10192
427.4081, 16.50626
427.8903, 16.19934
428.3724, 16.18777
428.8545, 16.31275
429.3366, 16.45024
429.8187, 16.60203
430.3008, 16.78544
430.7830, 17.16338
431.2651, 17.38672
431.7472, 17.31000
432.2293, 17.08222
432.7114, 16.86223
433.1935, 16.71189
433.6757, 16.62425
434.1578, 16.60769
434.6399, 16.69842
435.1220, 16.73124
435.6041, 16.64340
436.0862, 16.53626
436.5684, 16.43351
437.0505, 16.34965
437.5326, 16.31716
438.0147, 16.40052
438.4968, 16.54042
438.9789, 16.48722
439.4611, 16.12320
439.9432, 15.86501
440.4253, 15.97445
440.9074, 16.23750
441.3895, 16.44511
441.8716, 16.55124
442.3538, 16.62107
442.8359, 16.72784
443.3180, 16.85667
443.8001, 16.89992
444.2822, 16.80084
444.7643, 16.67884
445.2465, 16.69003
445.7286, 16.79579
446.2107, 16.80686
446.6928, 16.58995
447.1749, 16.31007
447.6570, 16.10781
448.1392, 15.98936
448.6213, 15.97658
449.1034, 16.11846
449.5855, 16.34180
450.0677, 16.43048
450.5498, 16.31120
451.0319, 16.23804
451.5140, 16.36323
451.9961, 16.52890
452.4782, 16.50590
452.9604, 16.26302
453.4425, 15.99667
453.9246, 15.91871
454.4067, 16.05692
454.8888, 16.08916
455.3709, 15.90383
455.8531, 15.75307
456.3352, 15.72863
456.8173, 15.80098
457.2994, 15.93515
457.7815, 16.11571
458.2636, 16.28978
458.7458, 16.33718
459.2279, 16.17994
459.7100, 16.05626
460.1921, 15.98277
460.6742, 15.93184
461.1563, 15.89025
461.6385, 15.85650
462.1206, 15.83365
462.6027, 15.82229
463.0848, 15.82397
463.5669, 15.85893
464.0490, 15.97432
464.5312, 16.02393
465.0133, 15.93975
465.4954, 15.77985
465.9775, 15.54793
466.4596, 15.22966
466.9417, 15.02641
467.4239, 15.26206
467.9060, 15.84219
468.3881, 16.09014
468.8702, 15.77474
469.3523, 15.37503
469.8344, 15.34564
470.3166, 15.56529
470.7987, 15.69003
471.2808, 15.54861
471.7629, 15.34452
472.2450, 15.23648
472.7271, 15.21984
473.2093, 15.29590
473.6914, 15.50742
474.1735, 15.73575
474.6556, 15.71784
475.1377, 15.37354
475.6198, 15.09879
476.1020, 14.88262
476.5841, 14.80590
477.0662, 15.04728
477.5483, 15.55025
478.0304, 15.98090
478.5125, 16.07100
478.9947, 15.86394
479.4768, 15.73961
479.9589, 15.78644
480.4410, 15.80738
480.9231, 15.76072
481.4052, 15.68472
481.8874, 15.63239
482.3695, 15.61044
482.8516, 15.56238
483.3337, 15.37262
483.8158, 14.99324
484.2979, 14.89164
484.7801, 15.38275
485.2622, 15.80222
485.7443, 15.92032
486.2264, 15.81717
486.7085, 15.60605
487.1906, 15.30628
487.6728, 15.01807
488.1549, 14.89071
488.6370, 14.93155
489.1191, 15.03455
489.6012, 15.25898
490.0833, 15.44306
490.5655, 15.42345
491.0476, 15.22722
491.5297, 15.04022
492.0118, 14.93687
492.4939, 14.88297
492.9760, 14.83238
493.4582, 14.78557
493.9403, 14.77998
494.4224, 14.84649
494.9045, 14.95602
495.3866, 15.03655
495.8687, 15.09191
496.3509, 15.11846
496.8330, 15.10724
497.3151, 15.07129
497.7972, 15.02230
498.2793, 14.96269
498.7614, 14.89180
499.2436, 14.80869
499.7257, 14.71397
500.2078, 14.61354
500.6899, 14.36160
501.1720, 14.28229
501.6541, 14.58940
502.1363, 15.01546
502.6184, 15.26867
503.1005, 15.27611
503.5826, 15.17970
504.0647, 15.17030
504.5468, 15.27025
505.0290, 15.22772
505.5111, 14.93067
505.9932, 14.62436
506.4753, 14.30414
506.9575, 14.06381
507.4396, 14.08282
507.9217, 14.47855
508.4038, 14.97803
508.8859, 15.26612
509.3680, 15.34910
509.8502, 15.32730
510.3323, 15.19192
510.8144, 15.00523
511.2965, 14.79160
511.7786, 14.56525
512.2607, 14.41774
512.7429, 14.41438
513.2250, 14.46514
513.7071, 14.52751
514.1892, 14.58442
514.6713, 14.54694
515.1534, 14.34488
515.6356, 14.11903
516.1177, 14.16757
516.5998, 14.70753
517.0819, 15.03518
517.5640, 15.00840
518.0461, 14.86591
518.5283, 14.73287
519.0104, 14.62983
519.4925, 14.55287
519.9746, 14.50014
520.4567, 14.46881
520.9388, 14.46711
521.4210, 14.62552
521.9031, 14.55763
522.3852, 13.98911
522.8673, 13.38212
523.3494, 13.02888
523.8315, 12.96071
524.3137, 13.09525
524.7958, 13.48284
525.2779, 14.01022
525.7600, 14.23562
526.2421, 14.07612
526.7242, 13.92636
527.2064, 13.99226
527.6885, 14.14489
528.1706, 14.24125
528.6527, 14.27996
529.1348, 14.21291
529.6169, 13.82753
530.0991, 13.38666
530.5812, 13.43918
531.0633, 14.04100
531.5454, 14.55521
532.0275, 14.46229
532.5096, 13.87765
532.9918, 13.60905
533.4739, 13.85067
533.9560, 14.10433
534.4381, 14.36242
534.9202, 14.53252
535.4023, 14.45216
535.8845, 14.12770
536.3666, 13.78957
536.8487, 13.69357
537.3308, 13.83832
537.8129, 13.78850
538.2950, 13.21089
538.7772, 12.88346
539.2593, 13.17494
539.7414, 13.69162
540.2235, 14.00150
540.7056, 13.99564
541.1877, 13.91673
541.6699, 14.05499
542.1520, 14.36066
542.6341, 14.44853
543.1162, 14.19438
543.5983, 13.96188
544.0804, 14.05170
544.5626, 14.31324
545.0447, 14.47013
545.5268, 14.46248
546.0089, 14.39153
546.4910, 14.33654
546.9731, 14.25483
547.4553, 13.99135
547.9374, 13.50896
548.4195, 13.14015
548.9016, 13.26953
549.3837, 13.91646
549.8658, 14.13635
550.3480, 13.46292
550.8301, 12.99745
551.3122, 13.19653
551.7943, 13.70243
552.2764, 14.15613
552.7585, 14.42412
553.2407, 14.42076
553.7228, 13.90771
554.2049, 12.82585
554.6870, 12.35227
555.1691, 12.89860
555.6512, 13.48982
556.1334, 13.80565
556.6155, 13.94274
557.0976, 14.02616
557.5797, 14.08895
558.0618, 14.09744
558.5439, 13.98130
559.0261, 13.78044
559.5082, 13.64628
559.9903, 13.60783
560.4724, 13.60081
560.9545, 13.58874
561.4366, 13.56818
561.9188, 13.52922
562.4009, 13.50305
562.8830, 13.41934
563.3651, 13.13752
563.8472, 12.82882
564.3293, 12.79698
564.8115, 13.07655
565.2936, 13.34571
565.7757, 13.25193
566.2578, 12.79285
566.7399, 12.60129
567.2220, 12.96130
567.7042, 13.25759
568.1863, 13.36353
568.6684, 13.37075
569.1505, 13.36983
569.6326, 13.38187
570.1147, 13.37691
570.5969, 13.27160
571.0790, 13.10364
571.5611, 13.15880
572.0432, 13.54337
572.5253, 13.85064
573.0074, 13.78095
573.4896, 13.54596
573.9717, 13.47711
574.4538, 13.65215
574.9359, 13.80140
575.4180, 13.75972
575.9001, 13.63380
576.3823, 13.56415
576.8644, 13.56745
577.3465, 13.61978
577.8286, 13.72062
578.3107, 13.84418
578.7928, 13.86267
579.2750, 13.65503
579.7571, 13.49874
580.2392, 13.39176
580.7213, 13.35295
581.2034, 13.44109
581.6855, 13.62394
582.1677, 13.77746
582.6498, 13.80118
583.1319, 13.73157
583.6140, 13.70297
584.0961, 13.74220
584.5782, 13.72765
585.0604, 13.56363
585.5425, 13.38117
586.0246, 13.29251
586.5067, 13.29579
586.9889, 13.32069
587.4710, 13.41093
587.9531, 13.45839
588.4352, 13.23947
588.9174, 12.81978
589.3995, 12.59136
589.8816, 12.74205
590.3637, 13.11959
590.8458, 13.49495
591.3279, 13.96100
591.8101, 14.12030
592.2922, 13.68680
592.7743, 13.23393
593.2564, 13.03533
593.7385, 13.05102
594.2206, 13.19248
594.7028, 13.42073
595.1849, 13.64857
595.6670, 13.71170
596.1491, 13.58476
596.6312, 13.47991
597.1133, 13.40477
597.5955, 13.36229
598.0776, 13.34313
598.5597, 13.35532
599.0418, 13.43612
599.5239, 13.66013
600.0060, 13.80647
600.4882, 13.62010
600.9703, 13.23085
601.4524, 12.93786
601.9345, 12.79712
602.4166, 12.79616
602.8987, 12.97426
603.3809, 13.30643
603.8630, 13.40676
604.3451, 12.97455
604.8272, 12.72974
605.3093, 12.93890
605.7914, 13.31385
606.2736, 13.61024
606.7557, 13.77321
607.2378, 13.83267
607.7199, 13.78649
608.2020, 13.67043
608.6841, 13.69619
609.1663, 13.96516
609.6484, 14.08044
610.1305, 13.75226
610.6126, 13.34339
611.0947, 13.16898
611.5768, 13.23425
612.0590, 13.34040
612.5411, 13.47357
613.0232, 13.55629
613.5053, 13.46578
613.9874, 13.23381
614.4695, 12.98145
614.9517, 12.73265
615.4338, 12.60288
615.9159, 12.82814
616.3980, 13.62899
616.8801, 14.01004
617.3622, 13.67722
617.8444, 13.29015
618.3265, 13.07902
618.8086, 13.01460
619.2907, 13.02883
619.7728, 13.09543
620.2549, 13.20657
620.7371, 13.41095
621.2192, 13.69734
621.7013, 13.73348
622.1834, 13.36524
622.6655, 13.06188
623.1476, 13.22031
623.6298, 13.57876
624.1119, 13.69707
624.5940, 13.46844
625.0761, 13.21342
625.5582, 13.03037
626.0403, 12.92737
626.5225, 12.97196
627.0046, 13.13503
627.4867, 13.21908
627.9688, 13.07913
628.4509, 12.81215
628.9330, 12.74283
629.4152, 13.03362
629.8973, 13.22864
630.3794, 13.25450
630.8615, 13.25033
631.3436, 13.31017
631.8257, 13.40478
632.3079, 13.43249
632.7900, 13.31643
633.2721, 13.18949
633.7542, 13.27222
634.2363, 13.53802
634.7184, 13.75250
635.2006, 13.88337
635.6827, 13.91373
636.1648, 13.76220
636.6469, 13.47144
637.1290, 13.36496
637.6111, 13.66936
638.0933, 13.88601
638.5754, 13.77747
639.0575, 13.53861
639.5396, 13.37324
640.0217, 13.31945
640.5038, 13.32939
640.9860, 13.37240
641.4681, 13.43776
641.9502, 13.46212
642.4323, 13.39951
642.9144, 13.41156
643.3965, 13.64994
643.8787, 13.88122
644.3608, 13.93493
644.8429, 13.83148
645.3250, 13.70962
645.8071, 13.61650
646.2892, 13.53926
646.7714, 13.45511
647.2535, 13.37510
647.7356, 13.32730
648.2177, 13.31765
648.6998, 13.37737
649.1819, 13.56285
649.6641, 13.88673
650.1462, 14.08508
650.6283, 14.20932
651.1104, 14.15174
651.5925, 13.68969
652.0746, 13.15662
652.5568, 12.88810
653.0389, 12.92266
653.5210, 13.07376
654.0031, 13.22077
654.4852, 13.35867
654.9673, 13.49038
655.4495, 13.62317
655.9316, 13.65492
656.4137, 13.50079
656.8958, 13.29320
657.3779, 13.22964
657.8600, 13.30575
658.3422, 13.30697
658.8243, 13.00622
659.3064, 12.82905
659.7885, 13.14335
660.2706, 13.69582
660.7527, 14.07096
661.2349, 14.14734
661.7170, 14.09215
662.1991, 14.09641
662.6812, 14.15324
663.1633, 14.08046
663.6454, 13.77457
664.1276, 13.54193
664.6097, 13.50741
665.0918, 13.57224
665.5739, 13.69351
666.0560, 13.85995
666.5381, 13.95793
667.0203, 13.91745
667.5024, 13.79759
667.9845, 13.58926
668.4666, 13.34804
668.9487, 13.28414
669.4308, 13.48498
669.9130, 13.75375
670.3951, 13.82471
670.8772, 13.67059
671.3593, 13.54186
671.8414, 13.30922
672.3235, 13.26144
672.8057, 13.63848
673.2878, 14.12730
673.7699, 14.41814
674.2520, 14.45565
674.7341, 14.36338
675.2162, 14.16552
675.6984, 13.92532
676.1805, 13.77912
676.6626, 13.72394
677.1447, 13.68330
677.6268, 13.62877
678.1089, 13.57528
678.5911, 13.53234
679.0732, 13.48853
679.5553, 13.54240
680.0374, 13.87192
680.5195, 14.09290
681.0016, 13.96106
681.4838, 13.68635
681.9659, 13.54227
682.4480, 13.58525
682.9301, 13.66680
683.4122, 13.64085
683.8943, 13.54118
684.3765, 13.50077
684.8586, 13.52302
685.3407, 13.59167
685.8228, 13.72743
686.3049, 13.87783
686.7870, 13.97902
687.2692, 14.03318
687.7513, 14.06239
688.2334, 14.06277
688.7155, 14.04662
689.1976, 13.99879
689.6797, 13.94689
690.1619, 13.94039
690.6440, 13.98653
691.1261, 14.03728
691.6082, 14.03601
692.0903, 13.99746
692.5724, 14.04105
693.0546, 14.21223
693.5367, 14.33434
694.0188, 14.38640
694.5009, 14.34201
694.9830, 14.08199
695.4651, 13.65765
695.9473, 13.46295
696.4294, 13.87706
696.9116, 14.29392
697.3937, 14.22815
697.8758, 13.89038
698.3579, 13.65135
698.8400, 13.60302
699.3221, 13.67365
699.8043, 13.82096
700.2864, 14.01747
700.7685, 14.03778
701.2506, 13.77218
701.7327, 13.56320
702.2148, 13.53652
702.6970, 13.53862
703.1791, 13.42611
703.6612, 13.24686
704.1433, 13.20600
704.6254, 13.47994
705.1075, 13.78317
705.5897, 13.89333
706.0718, 13.85840
706.5539, 13.71691
707.0360, 13.49395
707.5181, 13.40331
708.0002, 13.66480
708.4824, 14.15694
708.9645, 14.23282
709.4466, 13.49074
709.9287, 13.10391
710.4108, 13.54257
710.8929, 14.00404
711.3751, 13.97393
711.8572, 13.60858
712.3393, 13.36006
712.8214, 13.40944
713.3035, 13.56584
713.7856, 13.71129
714.2678, 13.83099
714.7499, 13.90078
715.2320, 13.91562
715.7141, 13.84642
716.1962, 13.64815
716.6783, 13.40262
717.1605, 13.37217
717.6426, 13.77202
718.1247, 13.96461
718.6068, 13.76645
719.0889, 13.56267
719.5710, 13.52553
720.0532, 13.60151
720.5353, 13.69795
721.0174, 13.79386
721.4995, 13.84753
721.9816, 13.76631
722.4637, 13.63944
722.9459, 13.69317
723.4280, 13.91966
723.9101, 14.02940
724.3922, 13.85326
724.8743, 13.57382
725.3564, 13.56075
725.8386, 13.96494
726.3207, 14.08922
726.8028, 13.63169
727.2849, 13.25247
727.7670, 13.21418
728.2491, 13.33180
728.7313, 13.37213
729.2134, 13.29293
729.6955, 13.21943
730.1776, 13.22589
730.6597, 13.29929
731.1418, 13.43178
731.6240, 13.61627
732.1061, 13.83593
732.5882, 14.09374
733.0703, 14.31645
733.5524, 14.41660
734.0345, 14.39213
734.5167, 14.29514
734.9988, 14.04552
735.4809, 13.82644
735.9630, 13.61746
736.4451, 13.48612
736.9272, 13.56592
737.4094, 13.79940
737.8915, 13.90259
738.3736, 13.62243
738.8557, 13.29230
739.3378, 13.35227
739.8199, 13.66755
740.3021, 13.81565
740.7842, 13.71215
741.2663, 13.53441
741.7484, 13.41356
742.2305, 13.34466
742.7126, 13.30635
743.1948, 13.31785
743.6769, 13.32524
744.1590, 13.26790
744.6411, 13.26223
745.1232, 13.43343
745.6053, 13.69014
746.0875, 13.84395
746.5696, 13.82686
747.0517, 13.73594
747.5338, 13.54791
748.0159, 13.37640
748.4980, 13.49359
748.9802, 13.86525
749.4623, 14.12698
749.9444, 14.08840
750.4265, 13.87546
750.9086, 13.71893
751.3907, 13.63699
751.8729, 13.52173
752.3550, 13.27125
752.8371, 13.12471
753.3192, 13.25261
753.8013, 13.45997
754.2834, 13.52465
754.7656, 13.42322
755.2477, 13.31120
755.7298, 13.25871
756.2119, 13.23075
756.6940, 13.15922
757.1761, 13.08995
757.6583, 13.18343
758.1404, 13.46833
758.6225, 13.70382
759.1046, 13.62367
759.5867, 13.29578
760.0688, 13.21327
760.5510, 13.51934
761.0331, 13.68763
761.5152, 13.51615
761.9973, 13.28220
762.4794, 13.18653
762.9615, 13.19335
763.4437, 13.18192
763.9258, 13.11178
764.4079, 13.04860
764.8900, 12.99951
765.3721, 12.98987
765.8542, 13.07807
766.3364, 13.23902
766.8185, 13.39128
767.3006, 13.49449
767.7827, 13.51451
768.2648, 13.33046
768.7469, 12.92824
769.2291, 12.75471
769.7112, 12.91929
770.1933, 13.06713
770.6754, 13.01515
771.1575, 12.85407
771.6396, 12.72072
772.1218, 12.60569
772.6039, 12.56948
773.0860, 12.62887
773.5681, 12.76160
774.0502, 13.04652
774.5323, 13.35600
775.0145, 13.51427
775.4966, 13.48862
775.9787, 13.36322
776.4608, 13.18029
776.9429, 12.97296
777.4250, 12.79346
777.9072, 12.64464
778.3893, 12.64271
778.8714, 12.84513
779.3535, 13.08605
779.8356, 13.22057
780.3177, 13.26682
780.7999, 13.34663
781.2820, 13.49152
781.7641, 13.62434
782.2462, 13.83245
782.7283, 13.94249
783.2104, 13.76704
783.6926, 13.42518
784.1747, 13.16421
784.6568, 13.07104
785.1389, 13.04697
785.6210, 12.99253
786.1031, 12.94933
786.5853, 13.05634
787.0674, 13.28469
787.5495, 13.36743
788.0316, 13.17814
788.5137, 12.87729
788.9958, 12.68192
789.4780, 12.59311
789.9601, 12.60167
790.4422, 12.77484
790.9243, 12.93814
791.4064, 13.02719
791.8885, 13.10933
792.3707, 13.28074
792.8528, 13.51065
793.3349, 13.62407
793.8170, 13.53719
794.2991, 13.35689
794.7813, 13.07126
795.2634, 12.77265
795.7455, 12.57199
796.2276, 12.48886
796.7097, 12.53505
797.1918, 12.72902
797.6740, 12.97544
798.1561, 13.07452
798.6382, 13.01913
799.1203, 13.00891
799.6024, 13.06537
800.0845, 13.14269
800.5667, 13.26447
801.0488, 13.36189
801.5309, 13.24217
802.0130, 12.82740
802.4951, 12.70103
802.9772, 13.30428
803.4594, 13.75634
803.9415, 13.50600
804.4236, 12.99601
804.9057, 12.74869
805.3878, 12.83916
805.8699, 13.05988
806.3521, 13.36460
806.8342, 13.59055
807.3163, 13.34824
807.7985, 12.78512
808.2806, 12.57055
808.7627, 12.83043
809.2448, 13.15107
809.7269, 13.24427
810.2090, 13.17511
810.6912, 13.14595
811.1733, 13.19722
811.6554, 13.19177
812.1375, 13.08018
812.6196, 12.96730
813.1017, 12.88112
813.5839, 12.82212
814.0660, 12.80804
814.5481, 12.84348
815.0302, 12.83455
815.5123, 12.68617
815.9944, 12.53061
816.4766, 12.45674
816.9587, 12.45763
817.4408, 12.56155
817.9229, 12.74637
818.4050, 12.84637
818.8871, 12.69097
819.3693, 12.41387
819.8514, 12.42171
820.3335, 12.73213
820.8156, 12.87976
821.2977, 12.73938
821.7798, 12.60237
822.2620, 12.70968
822.7441, 12.94127
823.2262, 12.92052
823.7083, 12.41702
824.1904, 12.19865
824.6725, 12.56012
825.1547, 12.90666
825.6368, 12.92361
826.1189, 12.78653
826.6010, 12.72385
827.0831, 12.78464
827.5652, 12.91984
828.0474, 13.25244
828.5295, 13.52193
829.0116, 13.29483
829.4937, 12.76641
829.9758, 12.43633
830.4579, 12.40913
830.9401, 12.52743
831.4222, 12.68759
831.9043, 12.85460
832.3864, 12.91936
832.8685, 12.86646
833.3506, 12.78096
833.8328, 12.64680
834.3149, 12.51959
834.7970, 12.36780
835.2791, 12.27461
835.7612, 12.46442
836.2433, 13.05282
836.7255, 13.26645
837.2076, 12.55942
837.6897, 11.92613
838.1718, 11.96385
838.6539, 12.28037
839.1360, 12.36709
839.6182, 12.17436
840.1003, 11.99195
840.5824, 11.99118
841.0645, 12.11704
841.5466, 12.41015
842.0287, 12.76470
842.5109, 12.75862
842.9930, 12.35586
843.4751, 12.01665
843.9572, 12.03297
844.4393, 12.24246
844.9214, 12.28300
845.4036, 12.08798
845.8857, 12.08057
846.3678, 12.41170
846.8499, 12.66149
847.3320, 12.57223
847.8141, 12.40182
848.2963, 12.46996
848.7784, 12.76104
849.2605, 12.89585
849.7426, 12.63240
850.2247, 12.41322
850.7068, 12.46764
851.1890, 12.61012
851.6711, 12.63941
852.1532, 12.57643
852.6353, 12.57777
853.1174, 12.73013
853.5995, 12.88905
854.0817, 12.88901
854.5638, 12.76767
855.0459, 12.58772
855.5280, 12.36617
856.0101, 12.23001
856.4922, 12.23531
856.9744, 12.29191
857.4565, 12.28062
857.9386, 12.20564
858.4207, 12.19439
858.9028, 12.28800
859.3849, 12.34778
859.8671, 12.37154
860.3492, 12.32600
860.8313, 12.09613
861.3134, 11.78430
861.7955, 11.69539
862.2776, 12.00606
862.7598, 12.19281
863.2419, 11.97730
863.7240, 11.73583
864.2061, 11.69254
864.6882, 11.81468
865.1703, 12.07700
865.6525, 12.44472
866.1346, 12.70622
866.6167, 12.67338
867.0988, 12.45444
867.5809, 12.13831
868.0630, 11.77993
868.5452, 11.59339
869.0273, 11.61418
869.5094, 11.69239
869.9915, 11.72420
870.4736, 11.72037
870.9557, 11.70114
871.4379, 11.65727
871.9200, 11.66180
872.4021, 11.76953
872.8842, 11.80166
873.3663, 11.59008
873.8484, 11.32864
874.3306, 11.34116
874.8127, 11.63762
875.2948, 11.83772
875.7769, 11.90298
876.2590, 11.88700
876.7411, 11.68730
877.2233, 11.50574
877.7054, 11.58159
878.1875, 11.82859
878.6696, 11.96816
879.1517, 11.88341
879.6339, 11.70058
880.1160, 11.39301
880.5981, 11.12823
881.0802, 11.23816
881.5623, 11.60993
882.0444, 11.81127
882.5266, 11.70145
883.0087, 11.51826
883.4908, 11.52387
883.9729, 11.64708
884.4550, 11.59295
884.9371, 11.35217
885.4193, 11.05893
885.9014, 10.66930
886.3835, 10.49380
886.8656, 10.83884
887.3477, 11.48384
887.8298, 11.83003
888.3120, 11.81692
888.7941, 11.66139
889.2762, 11.13433
889.7583, 10.74474
890.2404, 10.71751
890.7225, 10.85062
891.2047, 10.94271
891.6868, 10.98572
892.1689, 11.07369
892.6510, 11.31272
893.1331, 11.50214
893.6152, 11.47317
894.0974, 11.39293
894.5795, 11.52417
895.0616, 11.76306
895.5437, 11.74524
896.0258, 11.32084
896.5079, 10.80991
896.9901, 10.45814
897.4722, 10.30902
897.9543, 10.61833
898.4364, 11.27691
898.9185, 11.63222
899.4006, 11.49929
899.8828, 11.25298
900.3649, 11.22569
900.8470, 11.33719
901.3291, 11.26991
901.8112, 10.96090
902.2933, 10.79301
902.7755, 10.83621
903.2576, 10.93640
903.7397, 11.09376
904.2218, 11.20420
904.7039, 11.03957
905.1860, 10.53350
905.6682, 10.27039
906.1503, 10.39259
906.6324, 10.58294
907.1145, 10.90358
907.5966, 11.14642
908.0787, 11.10576
908.5609, 10.84673
909.0430, 10.54540
909.5251, 10.19460
910.0072, 10.05410
910.4893, 10.52749
910.9714, 11.07306
911.4536, 11.07527
911.9357, 10.73952
912.4178, 10.56195
912.8999, 10.65288
913.3820, 10.73994
913.8641, 10.57174
914.3463, 10.31237
914.8284, 10.29732
915.3105, 10.46956
915.7926, 10.56555
916.2748, 10.55101
916.7569, 10.52395
917.2390, 10.53514
917.7211, 10.57879
918.2032, 10.66035
918.6854, 10.78436
919.1675, 10.79649
919.6496, 10.64760
920.1317, 10.53606
920.6138, 10.50099
921.0959, 10.53894
921.5781, 10.70321
922.0602, 10.94375
922.5423, 11.00748
923.0244, 10.76797
923.5065, 10.59591
923.9886, 10.54165
924.4708, 10.51656
924.9529, 10.50011
925.4350, 10.47996
925.9171, 10.43730
926.3992, 10.37348
926.8813, 10.32290
927.3635, 10.27036
927.8456, 10.26898
928.3277, 10.41061
928.8098, 10.57568
929.2919, 10.64246
929.7740, 10.60897
930.2562, 10.47360
930.7383, 10.23711
931.2204, 10.09625
931.7025, 10.38738
932.1846, 10.83068
932.6667, 10.83642
933.1489, 10.52114
933.6310, 10.33456
934.1131, 10.37818
934.5952, 10.53398
935.0773, 10.73343
935.5594, 10.90816
936.0416, 10.86185
936.5237, 10.59206
937.0058, 10.38128
937.4879, 10.21945
937.9700, 10.28644
938.4521, 10.74708
938.9343, 11.24283
939.4164, 11.32817
939.8985, 11.03111
940.3806, 10.84229
940.8627, 10.79520
941.3448, 10.79399
941.8270, 10.89654
942.3091, 10.96547
942.7912, 10.93077
943.2733, 10.81697
943.7554, 10.62356
944.2375, 10.32366
944.7197, 10.18178
945.2018, 10.34469
945.6839, 10.54359
946.1660, 10.75306
946.6481, 10.89375
947.1302, 10.83180
947.6124, 10.64337
948.0945, 10.55797
948.5766, 10.66301
949.0587, 10.82437
949.5408, 11.07245
950.0229, 11.23872
950.5051, 11.03641
950.9872, 10.66877
951.4693, 10.55646
951.9514, 10.74907
952.4335, 10.94960
952.9156, 10.95080
953.3978, 10.86658
953.8799, 10.84025
954.3620, 10.86391
954.8441, 10.94317
955.3262, 11.06183
955.8083, 11.12444
956.2905, 11.09315
956.7726, 10.99837
957.2547, 10.85907
957.7368, 10.69692
958.2189, 10.60749
958.7010, 10.59319
959.1832, 10.60294
959.6653, 10.63182
960.1474, 10.67658
960.6295, 10.74820
961.1116, 10.80553
961.5938, 10.74120
962.0759, 10.51307
962.5580, 10.60246
963.0401, 11.27050
963.5222, 11.69812
964.0043, 11.57355
964.4865, 11.32287
964.9686, 11.28449
965.4507, 11.37239
965.9328, 11.28786
966.4149, 10.86352
966.8970, 10.72044
967.3792, 11.27022
967.8613, 11.65490
968.3434, 11.41639
968.8255, 10.97286
969.3076, 10.69671
969.7897, 10.61256
970.2719, 10.65496
970.7540, 10.90908
971.2361, 11.06081
971.7182, 10.82870
972.2003, 10.59076
972.6824, 10.71450
973.1646, 11.00667
973.6467, 11.09887
974.1288, 10.94984
974.6109, 10.87254
975.0930, 11.12026
975.5751, 11.39420
976.0573, 11.36044
976.5394, 11.20905
977.0215, 11.27798
977.5036, 11.49717
977.9857, 11.51039
978.4678, 11.20710
978.9500, 10.93164
979.4321, 11.07262
979.9142, 11.41530
980.3963, 11.53779
980.8784, 11.48754
981.3605, 11.42879
981.8427, 11.38556
982.3248, 11.33004
982.8069, 11.24966
983.2890, 11.11124
983.7711, 10.80786
984.2532, 10.39360
984.7354, 10.27980
985.2175, 10.47355
985.6996, 10.73227
986.1817, 11.01533
986.6638, 11.29834
987.1459, 11.58039
987.6281, 11.81300
988.1102, 11.87944
988.5923, 11.76494
989.0744, 11.56734
989.5565, 11.20666
990.0386, 11.00700
990.5208, 11.10874
991.0029, 11.31401
991.4850, 11.47504
991.9671, 11.59356
992.4492, 11.68295
992.9313, 11.79237
993.4135, 11.75097
993.8956, 11.43573
994.3777, 11.13533
994.8598, 10.80945
995.3419, 10.63682
995.8240, 10.96848
996.3062, 11.66163
996.7883, 11.87344
997.2704, 10.97979
997.7525, 10.60180
998.2346, 11.53275
998.7167, 12.37746
999.1989, 12.32031
999.6810, 11.86210
1000.163, 11.62296
1000.645, 11.64502
1001.127, 11.66298
1001.609, 11.54077
1002.092, 11.49264
1002.574, 11.80014
1003.056, 12.02736
1003.538, 11.64057
1004.020, 11.01150
1004.502, 10.84472
1004.984, 11.22567
1005.466, 11.53331
1005.948, 11.33165
1006.431, 11.10116
1006.913, 11.27023
1007.395, 11.54893
1007.877, 11.59186
1008.359, 11.44705
1008.841, 11.27820
1009.323, 11.14918
1009.805, 11.13031
1010.288, 11.35704
1010.770, 11.62641
1011.252, 11.66244
1011.734, 11.57654
1012.216, 11.57647
1012.698, 11.65957
1013.180, 11.70035
1013.662, 11.65068
1014.144, 11.61634
1014.627, 11.74187
1015.109, 11.92418
1015.591, 11.89070
1016.073, 11.74030
1016.555, 11.87831
1017.037, 12.29667
1017.519, 12.52631
1018.001, 12.32867
1018.484, 11.94487
1018.966, 11.61349
1019.448, 11.38785
1019.930, 11.58337
1020.412, 12.13096
1020.894, 12.35984
1021.376, 12.15834
1021.858, 11.93663
1022.340, 11.93327
1022.823, 12.00900
1023.305, 11.93711
1023.787, 11.73523
1024.269, 11.55603
1024.751, 11.39444
1025.233, 11.35792
1025.715, 11.47884
1026.197, 11.66098
1026.680, 11.86614
1027.162, 12.02521
1027.644, 11.96538
1028.126, 11.67616
1028.608, 11.70772
1029.090, 12.17627
1029.572, 12.37626
1030.054, 12.06446
1030.536, 11.72907
1031.019, 11.69107
1031.501, 11.87027
1031.983, 12.12606
1032.465, 12.49215
1032.947, 12.65973
1033.429, 12.61392
1033.911, 12.38414
1034.393, 11.82852
1034.875, 11.34936
1035.358, 11.23947
1035.840, 11.40573
1036.322, 11.64917
1036.804, 12.01155
1037.286, 12.25489
1037.768, 12.36799
1038.250, 12.37658
1038.732, 12.19039
1039.215, 12.01400
1039.697, 11.94327
1040.179, 12.00760
1040.661, 12.35588
1041.143, 13.22230
1041.625, 13.50645
1042.107, 12.58373
1042.589, 11.93815
1043.072, 12.10191
1043.554, 12.40048
1044.036, 12.29595
1044.518, 11.98804
1045.000, 12.00187
1045.482, 12.47151
1045.964, 12.78699
1046.446, 12.84368
1046.928, 12.82818
1047.411, 12.76629
1047.893, 12.66870
1048.375, 12.51820
1048.857, 12.34203
1049.339, 12.19558
1049.821, 12.07758
1050.303, 12.02088
1050.785, 12.01741
1051.267, 12.09322
1051.750, 12.35051
1052.232, 12.60459
1052.714, 12.70051
1053.196, 12.68172
1053.678, 12.64611
1054.160, 12.59607
1054.642, 12.61207
1055.124, 12.81845
1055.607, 12.95584
1056.089, 12.85922
1056.571, 12.71761
1057.053, 12.70057
1057.535, 12.75728
1058.017, 12.75401
1058.499, 12.66249
1058.981, 12.56491
1059.464, 12.43603
1059.946, 12.37140
1060.428, 12.51743
1060.910, 12.64697
1061.392, 12.48406
1061.874, 12.18314
1062.356, 12.09502
1062.838, 12.29516
1063.320, 12.50020
1063.802, 12.66418
1064.285, 12.74111
1064.767, 12.63046
1065.249, 12.49583
1065.731, 12.40392
1066.213, 12.42108
1066.695, 12.74892
1067.177, 13.41315
1067.659, 13.78889
1068.142, 13.40917
1068.624, 12.96906
1069.106, 12.75868
1069.588, 12.65523
1070.070, 12.58755
1070.552, 12.53397
1071.034, 12.46297
1071.516, 12.37357
1071.999, 12.33368
1072.481, 12.33069
1072.963, 12.43746
1073.445, 12.83011
1073.927, 13.21124
1074.409, 13.34096
1074.891, 13.28304
1075.373, 13.10991
1075.855, 12.86534
1076.338, 12.74605
1076.820, 12.92483
1077.302, 13.08811
1077.784, 13.11893
1078.266, 13.04164
1078.748, 12.75098
1079.230, 12.43055
1079.712, 12.39218
1080.194, 12.63020
1080.677, 12.81518
1081.159, 12.80200
1081.641, 12.76153
1082.123, 12.64531
1082.605, 12.66453
1083.087, 13.17626
1083.569, 13.79362
1084.052, 13.90138
1084.534, 13.56607
1085.016, 13.49397
1085.498, 14.09500
1085.980, 14.47000
1086.462, 14.00162
1086.944, 13.42523
1087.426, 13.22996
1087.908, 13.19112
1088.391, 12.96969
1088.873, 12.62281
1089.355, 12.50540
1089.837, 12.79257
1090.319, 12.98353
1090.801, 12.63373
1091.283, 12.42293
1091.765, 13.05472
1092.247, 13.75554
1092.730, 13.52454
1093.212, 12.70525
1093.694, 12.45286
1094.176, 13.12567
1094.658, 13.59483
1095.140, 13.28824
1095.622, 12.91285
1096.104, 12.77824
1096.587, 12.71879
1097.069, 12.52336
1097.551, 12.30387
1098.033, 12.29806
1098.515, 12.54854
1098.997, 12.97356
1099.479, 13.90357
1099.961, 14.51821
1100.443, 14.30955
1100.926, 13.92718
1101.408, 13.79398
1101.890, 13.81563
1102.372, 13.82105
1102.854, 13.78720
1103.336, 13.69977
1103.818, 13.54732
1104.300, 13.35342
1104.782, 12.97534
1105.265, 12.72390
1105.747, 12.86111
1106.229, 13.15870
1106.711, 13.32333
1107.193, 13.36147
1107.675, 13.47637
1108.157, 13.82678
1108.639, 13.99696
1109.122, 13.74828
1109.604, 13.54233
1110.086, 13.65563
1110.568, 13.81515
1111.050, 13.69145
1111.532, 13.38291
1112.014, 13.30718
1112.496, 13.62482
1112.979, 13.78383
1113.461, 13.57118
1113.943, 13.46036
1114.425, 13.64542
1114.907, 13.88601
1115.389, 14.01108
1115.871, 14.07148
1116.353, 14.21196
1116.835, 14.48766
1117.318, 14.49959
1117.800, 13.92681
1118.282, 13.70189
1118.764, 14.26894
1119.246, 14.73863
1119.728, 14.54419
1120.210, 14.03739
1120.692, 13.71430
1121.174, 13.57455
1121.657, 13.68176
1122.139, 14.27421
1122.621, 14.40443
1123.103, 13.72826
1123.585, 13.26227
1124.067, 13.53845
1124.549, 13.99825
1125.031, 13.99659
1125.514, 13.66126
1125.996, 13.61519
1126.478, 13.92941
1126.960, 14.14888
1127.442, 14.25332
1127.924, 14.28055
1128.406, 14.21197
1128.888, 14.19792
1129.370, 14.37839
1129.853, 14.65271
1130.335, 14.79114
1130.817, 14.79426
1131.299, 14.70507
1131.781, 14.51254
1132.263, 14.49930
1132.745, 14.73705
1133.227, 14.87596
1133.709, 14.69740
1134.192, 14.45162
1134.674, 14.53443
1135.156, 14.83366
1135.638, 14.85048
1136.120, 14.62916
1136.602, 14.55257
1137.084, 14.64075
1137.566, 14.55007
1138.049, 14.15262
1138.531, 13.82386
1139.013, 13.93939
1139.495, 14.30775
1139.977, 14.65606
1140.459, 14.92365
1140.941, 14.82064
1141.423, 14.47162
1141.906, 14.44646
1142.388, 14.83220
1142.870, 15.15090
1143.352, 15.09579
1143.834, 14.91823
1144.316, 14.92893
1144.798, 14.99782
1145.280, 14.89831
1145.762, 14.71541
1146.245, 14.61154
1146.727, 14.60769
1147.209, 14.69495
1147.691, 14.86790
1148.173, 14.97891
1148.655, 14.81464
1149.137, 14.65519
1149.619, 14.78655
1150.101, 15.02552
1150.584, 15.26793
1151.066, 15.40587
1151.548, 15.16338
1152.030, 14.56764
1152.512, 14.23721
1152.994, 14.60590
1153.476, 14.95379
1153.958, 14.90137
1154.441, 14.74170
1154.923, 14.56650
1155.405, 14.47239
1155.887, 14.62674
1156.369, 14.95408
1156.851, 15.15209
1157.333, 15.13176
1157.815, 15.11041
1158.297, 15.13295
1158.780, 15.16323
1159.262, 15.20056
1159.744, 15.23118
1160.226, 15.20982
1160.708, 15.18956
1161.190, 15.31320
1161.672, 15.60187
1162.154, 15.68343
1162.636, 15.39247
1163.119, 15.20608
1163.601, 15.19621
1164.083, 15.23191
1164.565, 15.30074
1165.047, 15.32224
1165.529, 15.14536
1166.011, 14.88300
1166.493, 15.05974
1166.976, 15.85188
1167.458, 16.14149
1167.940, 15.80164
1168.422, 15.59622
1168.904, 15.72329
1169.386, 15.95001
1169.868, 16.14248
1170.350, 16.26009
1170.833, 16.20684
1171.315, 16.02504
1171.797, 16.00561
1172.279, 16.12104
1172.761, 15.98772
1173.243, 15.59476
1173.725, 15.44863
1174.207, 15.73585
1174.689, 16.00827
1175.172, 15.82207
1175.654, 15.49236
1176.136, 15.64464
1176.618, 16.02903
1177.100, 15.98976
1177.582, 15.69122
1178.064, 15.76346
1178.546, 16.21685
1179.028, 16.40882
1179.511, 16.00695
1179.993, 15.59619
1180.475, 15.71521
1180.957, 16.02550
1181.439, 16.30745
1181.921, 16.49460
1182.403, 16.45090
1182.885, 16.27083
1183.368, 16.16608
1183.850, 16.17546
1184.332, 16.15745
1184.814, 15.95741
1185.296, 15.89690
1185.778, 16.26481
1186.260, 16.63018
1186.742, 16.84833
1187.224, 16.83759
1187.707, 16.26144
1188.189, 15.39861
1188.671, 15.27516
1189.153, 16.28584
1189.635, 16.86330
1190.117, 16.60620
1190.599, 16.37296
1191.081, 16.25973
1191.564, 16.24739
1192.046, 16.38956
1192.528, 16.55145
1193.010, 16.52326
1193.492, 16.34069
1193.974, 16.32730
1194.456, 16.54355
1194.938, 16.57831
1195.421, 16.36063
1195.903, 16.27812
1196.385, 16.45957
1196.867, 16.72954
1197.349, 16.98540
1197.831, 17.12622
1198.313, 16.86184
1198.795, 16.33746
1199.277, 16.32719
1199.760, 16.72473
1200.242, 17.03198
1200.724, 17.16566
1201.206, 17.02399
1201.688, 16.60433
1202.170, 16.35427
1202.652, 16.72238
1203.134, 17.23471
1203.616, 17.27665
1204.099, 17.09909
1204.581, 17.02814
1205.063, 17.02839
1205.545, 16.98089
1206.027, 16.89215
1206.509, 16.85874
1206.991, 16.91735
1207.473, 17.00834
1207.956, 17.18801
1208.438, 17.27652
1208.920, 17.04368
1209.402, 16.82037
1209.884, 16.88560
1210.366, 17.12557
1210.848, 17.40641
1211.330, 17.69222
1211.813, 17.79816
1212.295, 17.55464
1212.777, 17.43760
1213.259, 17.63457
1213.741, 17.65668
1214.223, 17.20119
1214.705, 16.82897
1215.187, 16.96464
1215.669, 17.38407
1216.151, 17.70854
1216.634, 17.93261
1217.116, 17.87750
1217.598, 17.49664
1218.080, 17.46583
1218.562, 17.86917
1219.044, 18.26089
1219.526, 18.49142
1220.008, 18.46231
1220.491, 18.04942
1220.973, 17.56359
1221.455, 17.60979
1221.937, 17.97241
1222.419, 18.10849
1222.901, 18.08632
1223.383, 18.10842
1223.865, 18.18694
1224.348, 18.24737
1224.830, 18.26107
1225.312, 18.22186
1225.794, 18.09865
1226.276, 17.97174
1226.758, 17.92269
1227.240, 17.87555
1227.722, 17.69391
1228.204, 17.52110
1228.687, 17.57150
1229.169, 17.80527
1229.651, 18.03545
1230.133, 18.23165
1230.615, 18.39437
1231.097, 18.46967
1231.579, 18.59143
1232.061, 18.96518
1232.543, 19.15363
1233.026, 18.82652
1233.508, 18.36933
1233.990, 18.20311
1234.472, 18.27571
1234.954, 18.39014
1235.436, 18.56431
1235.918, 18.64459
1236.400, 18.61991
1236.883, 18.62138
1237.365, 18.67601
1237.847, 18.76415
1238.329, 18.88029
1238.811, 18.92736
1239.293, 18.76354
1239.775, 18.50810
1240.257, 18.36057
1240.740, 18.33632
1241.222, 18.60622
1241.704, 18.99661
1242.186, 18.95199
1242.668, 18.49977
1243.150, 18.26830
1243.632, 18.54407
1244.114, 18.87202
1244.596, 19.02288
1245.078, 19.03669
1245.561, 18.73605
1246.043, 18.51082
1246.525, 18.92715
1247.007, 19.49637
1247.489, 19.36860
1247.971, 18.61178
1248.453, 18.15014
1248.935, 18.12462
1249.418, 18.29774
1249.900, 18.87327
1250.382, 19.23565
1250.864, 19.19306
1251.346, 19.05038
1251.828, 18.93916
1252.310, 18.91115
1252.792, 19.05665
1253.275, 19.32090
1253.757, 19.50823
1254.239, 19.61094
1254.721, 19.45386
1255.203, 19.07934
1255.685, 18.91297
1256.167, 19.02586
1256.649, 19.14792
1257.131, 19.13852
1257.614, 19.11218
1258.096, 19.18319
1258.578, 19.29658
1259.060, 19.42755
1259.542, 19.53039
1260.024, 19.54922
1260.506, 19.49518
1260.988, 19.35116
1261.470, 19.15820
1261.953, 19.06103
1262.435, 19.10410
1262.917, 19.21487
1263.399, 19.51571
1263.881, 19.67898
1264.363, 19.44206
1264.845, 19.26109
1265.327, 19.40483
1265.810, 19.67630
1266.292, 19.88427
1266.774, 20.01561
1267.256, 19.98725
1267.738, 19.77064
1268.220, 19.72654
1268.702, 19.86380
1269.184, 19.85569
1269.667, 19.65005
1270.149, 19.54336
1270.631, 19.67048
1271.113, 19.84799
1271.595, 19.89425
1272.077, 19.91204
1272.559, 20.11406
1273.041, 20.33991
1273.523, 20.24006
1274.005, 20.04357
1274.488, 20.26471
1274.970, 20.77920
1275.452, 21.00946
1275.934, 20.80010
1276.416, 20.61064
1276.898, 20.60928
1277.380, 20.65537
1277.862, 20.78317
1278.345, 20.86122
1278.827, 20.89165
1279.309, 20.76637
1279.791, 20.24053
1280.273, 19.61570
1280.755, 19.62201
1281.237, 20.24879
1281.719, 20.52825
1282.202, 20.42715
1282.684, 20.49360
1283.166, 20.77901
1283.648, 20.89168
1284.130, 20.71697
1284.612, 20.62936
1285.094, 20.90689
1285.576, 21.20412
1286.058, 20.96063
1286.541, 20.58422
1287.023, 20.54078
##END=



