##NAMES=Renierite
##RRUFFID=R050428
##IDEAL CHEMISTRY=(Cu^1+^,Cu^2+^Zn^2+^)_11_(Fe^2+^,Fe^3+^)_4_(Ge^4+^,As^5+^)_2_S^2-^_16_
##LOCALITY=Tsumeb mine, Tsumeb, Otavi District, Oshikoto, Namibia
##OWNER=RRUFF
##SOURCE=University of Arizona Mineral Museum
##DESCRIPTION=Reddish bronze metallic massive, associated with siderite.
##STATUS=The identification of this mineral has been confirmed by X-ray diffraction and chemical analysis
##URL=rruff.info/R050428
##MEASURED CHEMISTRY=(Cu_10.73_Zn_0.28_)_Σ=11_Fe_4.00_(Ge_1.35_As_0.65_)_Σ=2_S_16.00_
145.4870, 0.0000000E+00
145.9691, 1.148300
146.4512, 1.842300
146.9333, 2.295616
147.4155, 2.082199
147.8976, 0.7808300
148.3797, 1.2321000E-02
148.8618, 8.8019997E-02
149.3439, 0.2635960
149.8260, 0.9242780
150.3082, 2.655128
150.7903, 3.867462
151.2724, 4.119003
151.7545, 3.371201
152.2366, 3.191261
152.7188, 4.279091
153.2009, 5.634254
153.6830, 6.440529
154.1651, 6.507195
154.6472, 6.140686
155.1293, 5.243484
155.6115, 3.745277
156.0936, 2.472160
156.5757, 1.731667
157.0578, 1.382454
157.5399, 1.291496
158.0220, 1.810928
158.5042, 2.256783
158.9863, 2.299332
159.4684, 1.808952
159.9505, 1.450264
160.4326, 1.393585
160.9147, 1.599205
161.3969, 2.031143
161.8790, 3.293869
162.3611, 4.343056
162.8432, 4.523102
163.3253, 3.270254
163.8074, 3.333986
164.2896, 3.268501
164.7717, 3.080828
165.2538, 2.404825
165.7359, 2.359402
166.2180, 2.061272
166.7001, 1.752780
167.1823, 1.549583
167.6644, 1.245644
168.1465, 1.526634
168.6286, 2.262054
169.1107, 3.070930
169.5928, 3.984650
170.0750, 4.767265
170.5571, 5.157707
171.0392, 5.017418
171.5213, 4.605904
172.0034, 4.010223
172.4855, 3.266724
172.9677, 2.594437
173.4498, 2.136238
173.9319, 1.826103
174.4140, 1.546913
174.8961, 1.157791
175.3782, 1.047958
175.8604, 1.570351
176.3425, 2.627342
176.8246, 3.548866
177.3067, 3.645370
177.7888, 3.194313
178.2709, 2.760002
178.7531, 2.658936
179.2352, 2.670067
179.7173, 2.640930
180.1994, 2.548248
180.6815, 2.306732
181.1636, 2.224831
181.6458, 2.178711
182.1279, 1.971069
182.6100, 1.513565
183.0921, 1.037354
183.5742, 1.078537
184.0563, 1.661911
184.5385, 2.323318
185.0206, 2.603020
185.5027, 2.564949
185.9848, 2.503738
186.4669, 2.584801
186.9490, 2.711830
187.4312, 2.532272
187.9133, 2.005920
188.3954, 1.452698
188.8775, 1.250435
189.3596, 1.374146
189.8417, 1.599808
190.3239, 1.931061
190.8060, 2.317734
191.2881, 2.456642
191.7702, 2.393349
192.2523, 2.197113
192.7344, 2.012207
193.2166, 1.906639
193.6987, 1.785545
194.1808, 1.516937
194.6629, 1.139404
195.1450, 1.190407
195.6271, 1.800743
196.1093, 2.506676
196.5914, 2.523544
197.0735, 1.789612
197.5556, 1.131721
198.0377, 0.9651570
198.5198, 1.292717
199.0020, 1.461761
199.4841, 1.432037
199.9662, 1.313362
200.4483, 1.269859
200.9304, 1.302185
201.4125, 1.401352
201.8947, 1.663536
202.3768, 2.131271
202.8589, 2.178261
203.3410, 1.722595
203.8231, 0.9886860
204.3052, 0.4165730
204.7874, 1.1452000E-02
205.2695, 0.2224040
205.7516, 9.0103000E-02
206.2337, 0.4638210
206.7158, 0.7623520
207.1979, 0.7403790
207.6801, 0.5432430
208.1622, 0.4806440
208.6443, 0.5834430
209.1264, 0.7200090
209.6085, 0.8827670
210.0906, 1.137207
210.5728, 1.080681
211.0549, 0.5796660
211.5370, 0.1426850
212.0191, 0.5491790
212.5012, 0.5394970
212.9833, 0.4683610
213.4655, 0.5332640
213.9476, 0.8249130
214.4297, 0.8861010
214.9118, 0.5915680
215.3939, 0.1214680
215.8760, 4.4891000E-02
216.3581, 0.2538150
216.8403, 0.5282590
217.3224, 0.5182950
217.8045, 0.1049800
218.2866, 0.2231520
218.7687, 0.4339290
219.2508, 0.5591660
219.7330, 0.6882400
220.2151, 0.8625030
220.6972, 0.9596100
221.1793, 0.8782650
221.6614, 0.4722750
222.1435, 0.2861860
222.6257, 0.3853680
223.1078, 0.6809620
223.5899, 0.9921190
224.0720, 1.417137
224.5541, 1.680969
225.0362, 1.623123
225.5184, 1.050797
226.0005, 0.6353000
226.4826, 0.3982620
226.9647, 0.3225170
227.4468, 0.3741070
227.9289, 0.6324160
228.4111, 0.8987880
228.8932, 1.092796
229.3753, 1.228813
229.8574, 1.256424
230.3395, 1.135315
230.8216, 0.9151380
231.3038, 0.7243270
231.7859, 0.5544660
232.2680, 0.4267500
232.7501, 0.3500440
233.2322, 0.3271560
233.7143, 0.3443760
234.1965, 0.3913040
234.6786, 0.4786680
235.1607, 0.6761250
235.6428, 1.192200
236.1249, 1.512444
236.6070, 1.347664
237.0892, 0.3165050
237.5713, 0.3621370
238.0534, 0.6424710
238.5355, 0.5828860
239.0176, 0.2832180
239.4997, 0.5376430
239.9819, 1.200272
240.4640, 1.362053
240.9461, 0.7196880
241.4282, 0.2979580
241.9103, 0.1460420
242.3924, 0.2012250
242.8746, 0.3424840
243.3567, 0.6564410
243.8388, 0.9265370
244.3209, 1.061211
244.8030, 1.012764
245.2851, 0.9493100
245.7673, 0.8459780
246.2494, 0.7373280
246.7315, 0.7050930
247.2136, 0.7858660
247.6957, 0.8950120
248.1778, 1.002014
248.6600, 1.106171
249.1421, 1.217468
249.6242, 1.393394
250.1063, 1.547104
250.5884, 1.476692
251.0705, 1.001755
251.5527, 0.6105350
252.0348, 0.5308910
252.5169, 0.9114610
252.9990, 1.019402
253.4811, 0.6633910
253.9632, 0.1592790
254.4454, 0.1179730
254.9275, 0.8212510
255.4096, 1.447342
255.8917, 1.709076
256.3738, 1.535507
256.8560, 1.310585
257.3381, 0.9507750
257.8202, 0.6086200
258.3023, 0.5412750
258.7844, 0.8727950
259.2665, 1.212349
259.7487, 1.470657
260.2308, 1.659508
260.7129, 1.624626
261.1950, 1.202744
261.6771, 0.7334590
262.1592, 0.7359850
262.6414, 1.435509
263.1235, 2.001213
263.6056, 2.168503
264.0877, 1.921074
264.5698, 1.825890
265.0519, 1.951866
265.5341, 2.119629
266.0162, 2.080582
266.4983, 1.720459
266.9804, 1.529068
267.4625, 1.695076
267.9446, 2.207832
268.4268, 2.502213
268.9089, 2.505531
269.3910, 2.374054
269.8731, 2.320107
270.3552, 2.420303
270.8373, 2.408485
271.3195, 2.152000
271.8016, 1.677536
272.2837, 1.432083
272.7658, 1.465019
273.2479, 1.698326
273.7300, 2.151436
274.2122, 2.888199
274.6943, 3.198250
275.1764, 2.793465
275.6585, 1.892006
276.1406, 1.549332
276.6227, 1.869400
277.1049, 2.354988
277.5870, 2.632462
278.0691, 2.692314
278.5512, 2.654030
279.0333, 2.518593
279.5154, 2.307335
279.9976, 2.051018
280.4797, 1.728737
280.9618, 1.498070
281.4439, 1.498375
281.9260, 1.731560
282.4081, 1.987534
282.8903, 2.275063
283.3724, 2.530754
283.8545, 2.559227
284.3366, 2.339569
284.8187, 2.112495
285.3008, 2.089050
285.7830, 2.241287
286.2651, 2.203430
286.7472, 1.879822
287.2293, 1.474739
287.7114, 1.385086
288.1935, 1.608391
288.6757, 1.886749
289.1578, 2.111313
289.6399, 2.277779
290.1220, 2.337624
290.6041, 2.273705
291.0862, 2.152771
291.5684, 2.071716
292.0505, 2.024437
292.5326, 1.956696
293.0147, 1.769638
293.4968, 1.538918
293.9789, 1.566490
294.4611, 1.906792
294.9432, 2.218460
295.4253, 1.971992
295.9074, 1.296242
296.3895, 0.7340240
296.8716, 0.6341320
297.3538, 0.7821120
297.8359, 0.6510700
298.3180, 0.2249450
298.8001, 0.1347660
299.2822, 8.3199999E-04
299.7643, 0.4773860
300.2465, 0.8907470
300.7286, 1.095512
301.2107, 1.161957
301.6928, 1.181778
302.1749, 1.153404
302.6570, 1.059753
303.1392, 0.7787320
303.6213, 0.4387660
304.1034, 0.2755200
304.5855, 0.4343800
305.0676, 0.7024990
305.5497, 0.9288560
306.0319, 1.099510
306.5140, 1.155540
306.9961, 0.9509740
307.4782, 0.6468200
307.9603, 0.4307170
308.4424, 0.3547130
308.9246, 0.3596730
309.4067, 0.4072110
309.8888, 0.4981000
310.3709, 0.6394120
310.8530, 0.8823470
311.3351, 1.148750
311.8173, 1.386024
312.2994, 1.607918
312.7815, 1.740891
313.2636, 1.700691
313.7457, 1.544884
314.2278, 1.375412
314.7100, 1.179764
315.1921, 1.026917
315.6742, 0.9706500
316.1563, 1.028526
316.6384, 1.109772
317.1205, 1.161346
317.6027, 1.217087
318.0848, 1.319321
318.5669, 1.693588
319.0490, 1.927383
319.5311, 1.739517
320.0132, 1.097244
320.4954, 0.6453480
320.9775, 0.6886370
321.4596, 0.9413760
321.9417, 1.161377
322.4238, 1.280319
322.9059, 1.381020
323.3881, 1.486206
323.8702, 1.592628
324.3523, 1.672310
324.8344, 1.762802
325.3165, 1.798965
325.7986, 1.744019
326.2808, 1.424744
326.7629, 1.216805
327.2450, 1.257652
327.7271, 1.458366
328.2092, 1.462860
328.6913, 0.8786850
329.1735, 0.4423980
329.6556, 0.4704670
330.1377, 1.335365
330.6198, 1.956818
331.1019, 2.269867
331.5840, 2.355835
332.0662, 2.356491
332.5483, 2.154594
333.0304, 2.036980
333.5125, 2.144379
333.9946, 2.565582
334.4767, 2.734360
334.9589, 2.560837
335.4410, 2.220619
335.9231, 1.900024
336.4052, 1.546501
336.8873, 1.365875
337.3694, 1.457756
337.8516, 1.801155
338.3336, 2.080162
338.8158, 2.300705
339.2979, 2.449158
339.7800, 2.474205
340.2621, 2.343025
340.7442, 2.332977
341.2263, 2.523094
341.7085, 2.852592
342.1906, 3.109909
342.6727, 3.290527
343.1548, 3.444054
343.6369, 3.618698
344.1190, 3.807854
344.6012, 3.930573
345.0833, 3.963181
345.5654, 3.949814
346.0475, 3.942688
346.5296, 3.943932
347.0117, 4.005768
347.4939, 4.167274
347.9760, 4.410179
348.4581, 4.719841
348.9402, 5.116455
349.4223, 5.455208
349.9044, 5.596962
350.3866, 5.554153
350.8687, 5.370743
351.3508, 4.842995
351.8329, 4.282593
352.3150, 4.309174
352.7971, 4.904327
353.2793, 5.426064
353.7614, 5.223076
354.2435, 4.646904
354.7256, 4.273064
355.2077, 4.350128
355.6898, 4.583885
356.1720, 4.709908
356.6541, 4.764702
357.1362, 4.907722
357.6183, 5.541306
358.1004, 6.139305
358.5826, 6.153175
359.0647, 5.247772
359.5468, 4.339577
360.0289, 3.898178
360.5110, 3.810448
360.9931, 3.855835
361.4753, 4.199730
361.9574, 4.454498
362.4395, 4.312065
362.9216, 3.644058
363.4037, 3.243507
363.8858, 3.714867
364.3680, 4.429268
364.8501, 4.725609
365.3322, 3.991280
365.8143, 3.310478
366.2964, 2.926079
366.7785, 2.841179
367.2607, 2.894348
367.7428, 3.272720
368.2249, 3.650925
368.7070, 3.841766
369.1891, 3.911613
369.6712, 3.677147
370.1534, 2.854248
370.6355, 1.715027
371.1176, 1.117561
371.5997, 1.374649
372.0818, 1.776161
372.5639, 2.060417
373.0461, 2.214584
373.5282, 2.278534
374.0103, 2.222450
374.4924, 2.101997
374.9745, 1.982712
375.4566, 1.832222
375.9388, 1.790970
376.4209, 1.963585
376.9030, 2.329514
377.3851, 2.432137
377.8672, 2.212128
378.3493, 1.920616
378.8315, 1.834503
379.3136, 1.960396
379.7957, 1.957321
380.2778, 1.741310
380.7599, 1.412483
381.2420, 1.121841
381.7242, 0.8525850
382.2063, 0.6853560
382.6884, 0.7439800
383.1705, 0.9462050
383.6526, 0.9766390
384.1347, 0.7686610
384.6169, 0.5271840
385.0990, 0.5682680
385.5811, 0.8059690
386.0632, 0.9642260
386.5453, 0.8324890
387.0274, 0.5836790
387.5096, 0.4411240
387.9917, 0.4086530
388.4738, 0.4283290
388.9559, 0.4234620
389.4380, 0.4552460
389.9201, 0.6143720
390.4023, 1.034279
390.8844, 1.470436
391.3665, 1.798714
391.8486, 2.019844
392.3307, 2.122665
392.8128, 2.159431
393.2950, 2.037468
393.7771, 1.592735
394.2592, 0.5345150
394.7413, 0.1282580
395.2234, 0.3353040
395.7055, 1.313881
396.1877, 1.864159
396.6698, 1.349602
397.1519, 0.7896650
397.6340, 0.4823000
398.1161, 0.4733050
398.5982, 0.5164870
399.0804, 0.6634450
399.5625, 0.8215870
400.0446, 0.9186940
400.5267, 0.9126280
401.0088, 0.9132770
401.4909, 0.9458690
401.9731, 0.9958950
402.4552, 0.9960020
402.9373, 0.9363480
403.4194, 0.8959810
403.9015, 0.8750760
404.3836, 0.8868870
404.8658, 0.8609700
405.3479, 0.7700200
405.8300, 0.6767880
406.3121, 0.6924900
406.7942, 0.8337250
407.2763, 0.9518280
407.7585, 1.015724
408.2406, 1.016441
408.7227, 0.8500900
409.2048, 0.4885410
409.6869, 0.1899190
410.1690, 0.2749250
410.6512, 0.6668010
411.1333, 0.9352570
411.6154, 0.9476470
412.0975, 0.8144000
412.5796, 0.6318740
413.0617, 0.4311220
413.5439, 0.3490750
414.0260, 0.6822430
414.5081, 1.098236
414.9902, 1.030815
415.4723, 0.3952790
415.9544, 0.2327190
416.4366, 0.3503950
416.9187, 0.1629410
417.4008, 2.1660000E-02
417.8829, 5.8219999E-02
418.3650, 8.3847001E-02
418.8471, 0.1872860
419.3293, 0.3557280
419.8114, 0.5158080
420.2935, 0.6827770
420.7756, 0.8004990
421.2577, 0.8144760
421.7398, 0.6418460
422.2220, 0.5149990
422.7041, 0.4667890
423.1862, 0.4983670
423.6683, 0.6094510
424.1504, 1.116119
424.6325, 1.385597
425.1147, 1.139465
425.5968, 0.2838750
426.0789, 0.2587280
426.5610, 0.3546680
427.0431, 0.2601470
427.5252, 0.1843110
428.0074, 0.1903150
428.4895, 5.3192001E-02
428.9716, 0.3265230
429.4537, 0.8390350
429.9358, 1.123192
430.4179, 1.147896
430.9001, 1.058952
431.3822, 0.8940890
431.8643, 0.6513370
432.3464, 0.4678040
432.8285, 0.3543320
433.3106, 0.2752000
433.7928, 0.1243670
434.2749, 7.1869001E-02
434.7570, 8.1490003E-02
435.2391, 0.2983700
435.7212, 0.8049090
436.2033, 0.9051590
436.6855, 0.6272130
437.1676, 0.2422330
437.6497, 0.2829130
438.1318, 0.7252040
438.6139, 0.6316380
439.0960, 0.2208790
439.5782, 1.054428
440.0603, 1.116112
440.5424, 0.7098310
441.0245, 0.4068600
441.5066, 0.5553210
441.9887, 0.7948230
442.4709, 0.9548190
442.9530, 1.025780
443.4351, 0.9876560
443.9172, 0.6238250
444.3993, 0.2711490
444.8814, 0.1866990
445.3636, 0.7350540
445.8457, 1.117271
446.3278, 1.165749
446.8099, 0.9712070
447.2920, 0.7566680
447.7741, 0.4465330
448.2563, 0.2117840
448.7384, 0.1237410
449.2205, 0.1952740
449.7026, 0.2527080
450.1847, 0.3221660
450.6668, 0.3580400
451.1490, 0.3002700
451.6311, 0.1116180
452.1132, 2.5009001E-02
452.5953, 8.6204998E-02
453.0774, 7.7164002E-02
453.5595, 1.1604000E-02
454.0417, 0.1954350
454.5238, 0.3170470
455.0059, 0.1709210
455.4880, 0.1555790
455.9701, 6.2622003E-02
456.4522, 0.5312730
456.9344, 1.161049
457.4165, 1.270836
457.8986, 1.004860
458.3807, 0.7740940
458.8628, 0.7796630
459.3449, 0.7883300
459.8271, 0.3985440
460.3092, 0.2665410
460.7913, 0.6933290
461.2734, 0.3222890
461.7555, 0.2601700
462.2376, 0.5395200
462.7198, 0.3848040
463.2019, 0.2116170
463.6840, 0.1888960
464.1661, 0.2636490
464.6482, 0.3718340
465.1303, 0.5112920
465.6125, 0.6795200
466.0946, 0.9991840
466.5767, 1.391747
467.0588, 1.423401
467.5409, 0.6606370
468.0230, 5.9218999E-02
468.5052, 0.3619000
468.9873, 8.1763998E-02
469.4694, 0.2167660
469.9515, 0.5694200
470.4336, 0.9106600
470.9157, 1.153656
471.3979, 1.293381
471.8800, 1.349609
472.3621, 1.303642
472.8442, 1.176735
473.3263, 1.087379
473.8084, 1.036514
474.2906, 0.9784620
474.7727, 0.7827910
475.2548, 0.5290600
475.7369, 0.7154770
476.2190, 1.501556
476.7011, 2.245018
477.1833, 1.949585
477.6654, 0.9798810
478.1475, 0.3411790
478.6296, 0.7892460
479.1117, 1.535263
479.5938, 1.744308
480.0760, 1.496582
480.5581, 1.311981
481.0402, 1.601021
481.5223, 1.907524
482.0044, 1.845070
482.4865, 1.177132
482.9687, 0.6753460
483.4508, 0.7607420
483.9329, 1.117752
484.4150, 1.309326
484.8971, 1.139076
485.3792, 0.9346080
485.8614, 0.7156980
486.3435, 0.4945600
486.8256, 0.4180830
487.3077, 0.5653080
487.7898, 0.7624970
488.2719, 0.9456250
488.7541, 1.163071
489.2362, 1.165169
489.7183, 0.8584290
490.2004, 0.4587100
490.6825, 0.3151700
491.1646, 0.4586110
491.6468, 0.5603790
492.1289, 0.4827730
492.6110, 0.3156200
493.0931, 0.3154300
493.5752, 0.4676510
494.0573, 0.6286390
494.5395, 0.6988220
495.0216, 0.6957630
495.5037, 0.6297450
495.9858, 0.4887080
496.4679, 0.3818280
496.9500, 0.3600310
497.4322, 0.3658600
497.9143, 0.4228360
498.3964, 0.6036380
498.8785, 0.7973860
499.3606, 0.9792400
499.8427, 1.134132
500.3249, 1.181671
500.8070, 0.9548800
501.2891, 0.7277070
501.7712, 0.6648710
502.2533, 0.8321080
502.7354, 0.9567410
503.2176, 1.024582
503.6997, 1.041641
504.1818, 1.007690
504.6639, 0.8943940
505.1460, 0.7720490
505.6281, 0.6013110
506.1103, 0.4372860
506.5924, 0.5236430
507.0745, 0.9204710
507.5566, 1.319405
508.0387, 1.598808
508.5208, 1.769707
509.0030, 1.748894
509.4851, 1.479019
509.9672, 1.157295
510.4493, 1.076454
510.9314, 1.153900
511.4135, 1.057968
511.8957, 0.6001970
512.3778, 0.1224520
512.8599, 9.4329998E-02
513.3420, 0.3810580
513.8242, 0.6328350
514.3063, 0.6290130
514.7884, 0.5513460
515.2705, 0.4974520
515.7526, 0.4701310
516.2347, 0.5415650
516.7169, 0.9100570
517.1990, 1.284088
517.6811, 1.434418
518.1632, 1.012093
518.6453, 0.7398380
519.1274, 0.8351590
519.6096, 1.153282
520.0917, 1.408768
520.5738, 1.645424
521.0559, 1.750275
521.5380, 1.693207
522.0201, 1.477379
522.5023, 1.055664
522.9844, 0.2933040
523.4665, 0.2913060
523.9486, 0.2214280
524.4307, 0.4660870
524.9128, 1.042648
525.3950, 1.457008
525.8771, 1.702965
526.3592, 1.728844
526.8413, 1.603333
527.3234, 1.465576
527.8055, 1.348434
528.2877, 1.238495
528.7698, 1.071663
529.2519, 0.8844680
529.7340, 0.8224950
530.2161, 1.155182
530.6982, 1.518326
531.1804, 1.622185
531.6625, 1.394867
532.1446, 1.133545
532.6267, 0.7410130
533.1088, 0.4528880
533.5909, 0.4957120
534.0731, 1.500534
534.5552, 2.091896
535.0373, 1.981094
535.5194, 1.426353
536.0015, 1.088867
536.4836, 1.130577
536.9658, 1.055023
537.4479, 0.5665660
537.9300, 0.2937620
538.4121, 0.5309070
538.8942, 4.9812000E-02
539.3763, 0.6629100
539.8585, 1.334396
540.3406, 1.923660
540.8227, 2.149544
541.3048, 1.919968
541.7869, 1.534630
542.2690, 1.273262
542.7512, 1.145386
543.2333, 1.178864
543.7154, 1.627785
544.1975, 2.043488
544.6796, 1.952881
545.1617, 1.473717
545.6439, 1.128136
546.1260, 1.349174
546.6081, 1.651085
547.0902, 1.734756
547.5723, 1.549690
548.0544, 1.315315
548.5366, 0.9861600
549.0187, 0.6874770
549.5008, 0.4907910
549.9829, 0.2627940
550.4650, 0.4092250
550.9471, 1.206787
551.4293, 2.277740
551.9114, 2.720406
552.3935, 2.453949
552.8756, 1.916100
553.3577, 1.076767
553.8398, 0.1145860
554.3220, 0.1018140
554.8041, 0.4415660
555.2862, 1.099617
555.7683, 1.325356
556.2504, 1.308510
556.7325, 1.509239
557.2147, 2.058929
557.6968, 2.427361
558.1789, 1.913162
558.6610, 0.9910660
559.1431, 0.3672330
559.6252, 0.5111920
560.1074, 0.7820130
560.5895, 0.9574970
561.0716, 1.060623
561.5537, 1.165085
562.0358, 1.406677
562.5179, 1.537079
563.0001, 1.395943
563.4822, 0.9254680
563.9643, 0.7387920
564.4464, 1.075310
564.9285, 1.401688
565.4106, 1.216072
565.8928, 0.3872910
566.3749, 2.9433999E-02
566.8570, 0.1225890
567.3391, 0.5471420
567.8212, 0.8318940
568.3033, 0.9907990
568.7855, 1.108437
569.2676, 1.224716
569.7497, 1.300926
570.2318, 1.279999
570.7139, 1.179008
571.1960, 1.027405
571.6782, 0.6040270
572.1603, 0.2757720
572.6424, 0.4557950
573.1245, 1.229774
573.6066, 1.897560
574.0887, 2.249397
574.5709, 2.330742
575.0530, 2.208984
575.5351, 1.664566
576.0172, 1.230919
576.4993, 0.8280330
576.9814, 0.5880050
577.4636, 0.8000490
577.9457, 1.743439
578.4278, 2.387291
578.9099, 2.412842
579.3920, 1.973656
579.8741, 1.587265
580.3563, 1.250084
580.8384, 1.024406
581.3205, 0.9794540
581.8026, 1.096924
582.2847, 1.306450
582.7668, 1.584915
583.2490, 1.739136
583.7311, 1.478462
584.2132, 1.051430
584.6953, 0.7697220
585.1774, 0.7122880
585.6595, 0.7997130
586.1416, 1.107384
586.6237, 1.504517
587.1058, 1.797508
587.5880, 2.044289
588.0701, 2.074799
588.5522, 1.686226
589.0343, 1.002083
589.5164, 0.5793230
589.9985, 0.4348450
590.4807, 0.5286030
590.9628, 0.9714280
591.4449, 1.786606
591.9270, 2.052361
592.4091, 1.665169
592.8912, 1.117630
593.3734, 0.7918320
593.8555, 0.6726150
594.3376, 0.7548450
594.8197, 1.089554
595.3018, 1.391815
595.7839, 1.260269
596.2661, 0.8747710
596.7482, 0.5776140
597.2303, 0.4582440
597.7124, 0.4599910
598.1945, 0.6318050
598.6766, 0.9099040
599.1588, 1.105270
599.6409, 1.200470
600.1230, 1.166718
600.6051, 0.9386440
601.0872, 0.5044940
601.5693, 0.1430360
602.0515, 0.2279590
602.5336, 0.4134980
603.0157, 0.1827010
603.4978, 0.6038510
603.9799, 0.8356780
604.4620, 0.3225860
604.9442, 0.2976990
605.4263, 8.0757000E-02
605.9084, 0.8172840
606.3905, 1.456322
606.8726, 1.563751
607.3547, 1.433647
607.8369, 1.381859
608.3190, 1.392761
608.8011, 1.405609
609.2832, 1.490089
609.7653, 1.450912
610.2474, 1.028732
610.7296, 0.2919460
611.2117, 0.1942750
611.6938, 0.1485060
612.1759, 4.5494001E-02
612.6580, 0.2734380
613.1401, 0.5635220
613.6223, 0.6589200
614.1044, 0.4568020
614.5865, 0.1944430
615.0686, 9.6481003E-02
615.5507, 0.1901780
616.0328, 0.2046660
616.5150, 9.0134002E-02
616.9971, 7.0473000E-02
617.4792, 0.1112290
617.9613, 5.3367998E-02
618.4434, 8.2780002E-03
618.9255, 1.5099000E-02
619.4077, 4.9706001E-02
619.8898, 0.1432500
620.3719, 0.2524030
620.8540, 0.2396470
621.3361, 0.1798250
621.8182, 0.5489730
622.3004, 0.5239260
622.7825, 9.6061997E-02
623.2646, 0.1301570
623.7467, 0.1505970
624.2288, 0.4783710
624.7109, 0.6551130
625.1931, 0.6448290
625.6752, 0.6110150
626.1573, 0.5374370
626.6394, 0.4548950
627.1215, 0.3827130
627.6036, 0.3192140
628.0858, 0.3400800
628.5679, 0.5037460
629.0500, 0.6330870
629.5321, 0.3528670
630.0142, 0.2092060
630.4963, 0.6225510
630.9785, 0.7509770
631.4606, 0.6368180
631.9427, 6.0493000E-02
632.4248, 0.7799150
632.9069, 1.250328
633.3890, 0.5947800
633.8712, 4.6989001E-02
634.3533, 0.1221920
634.8354, 0.4393540
635.3175, 0.9363480
635.7996, 1.428162
636.2817, 1.749718
636.7639, 1.766502
637.2460, 1.385269
637.7281, 1.175224
638.2102, 1.167427
638.6923, 1.233116
639.1744, 1.203110
639.6566, 1.108597
640.1387, 1.168030
640.6208, 1.470284
641.1029, 1.780777
641.5850, 1.785187
642.0671, 1.600166
642.5493, 1.458427
643.0314, 1.515823
643.5135, 1.589005
643.9956, 1.636261
644.4777, 1.630661
644.9598, 1.490723
645.4420, 0.9620820
645.9241, 0.5470120
646.4062, 0.4166030
646.8883, 0.5597460
647.3704, 0.7175450
647.8525, 0.8895950
648.3347, 1.079582
648.8168, 1.282928
649.2989, 1.499283
649.7810, 1.762604
650.2631, 2.086342
650.7452, 2.333755
651.2274, 2.371544
651.7095, 2.232101
652.1916, 1.922333
652.6737, 1.375076
653.1558, 0.9476620
653.6379, 0.9805600
654.1201, 1.262657
654.6022, 1.514931
655.0843, 1.584618
655.5664, 1.696541
656.0485, 2.030983
656.5306, 2.424187
657.0128, 2.495850
657.4949, 2.031418
657.9770, 1.647232
658.4591, 1.488350
658.9412, 1.527519
659.4233, 1.696487
659.9055, 1.998619
660.3876, 2.206894
660.8697, 2.143639
661.3518, 1.939316
661.8339, 1.881401
662.3160, 1.966171
662.7982, 2.075371
663.2803, 2.298729
663.7624, 2.485588
664.2445, 2.430939
664.7266, 2.061203
665.2087, 1.767761
665.6909, 1.707077
666.1730, 1.762238
666.6551, 1.846260
667.1372, 2.075851
667.6193, 2.105400
668.1014, 1.835449
668.5836, 1.465492
669.0657, 1.223930
669.5478, 1.127403
670.0299, 1.255997
670.5120, 1.699753
670.9941, 2.210793
671.4763, 2.323433
671.9584, 2.112007
672.4405, 1.868324
672.9226, 1.621635
673.4047, 1.481598
673.8868, 1.599373
674.3690, 1.916939
674.8511, 2.227203
675.3332, 2.605537
675.8153, 2.824684
676.2974, 2.690193
676.7795, 2.178772
677.2617, 1.916252
677.7438, 2.034561
678.2259, 2.186890
678.7080, 2.159416
679.1901, 1.937210
679.6722, 2.023865
680.1544, 2.477203
680.6365, 2.904556
681.1186, 2.827202
681.6007, 2.455498
682.0828, 2.362297
682.5649, 2.688751
683.0471, 2.944336
683.5292, 2.536217
684.0113, 1.894958
684.4934, 1.553444
684.9755, 1.861145
685.4576, 2.150238
685.9398, 2.214172
686.4219, 2.172340
686.9040, 2.221802
687.3861, 2.383034
687.8682, 2.607788
688.3503, 2.944778
688.8325, 3.291183
689.3146, 3.291328
689.7967, 2.959366
690.2788, 2.679245
690.7609, 2.648003
691.2430, 2.748367
691.7252, 2.746117
692.2073, 2.672348
692.6894, 2.675873
693.1715, 2.929817
693.6536, 3.214691
694.1357, 3.383881
694.6179, 3.430412
695.1000, 3.417480
695.5821, 3.280846
696.0642, 3.157059
696.5463, 3.104431
697.0284, 3.125694
697.5106, 3.232246
697.9927, 3.501320
698.4748, 3.676704
698.9569, 3.433388
699.4390, 2.846985
699.9211, 2.571114
700.4033, 2.673180
700.8854, 2.929489
701.3675, 3.258453
701.8496, 3.551346
702.3317, 3.603867
702.8138, 3.272980
703.2960, 2.952469
703.7781, 2.863373
704.2602, 2.886375
704.7423, 2.875435
705.2244, 2.612045
705.7065, 2.572647
706.1887, 2.848793
706.6708, 3.328308
707.1529, 3.922943
707.6350, 4.724625
708.1171, 5.012978
708.5992, 4.380241
709.0814, 3.395195
709.5635, 3.439659
710.0456, 4.276031
710.5277, 4.775002
711.0098, 4.041115
711.4919, 2.994034
711.9741, 2.335686
712.4562, 2.037254
712.9383, 1.936905
713.4204, 2.080910
713.9025, 2.315697
714.3846, 2.641167
714.8668, 3.046692
715.3489, 3.266052
715.8310, 3.229286
716.3131, 3.149910
716.7952, 3.157944
717.2773, 3.237450
717.7595, 3.177048
718.2416, 2.969734
718.7237, 2.790886
719.2058, 2.815826
719.6879, 2.940323
720.1700, 3.030785
720.6522, 3.077950
721.1343, 3.011383
721.6164, 2.564972
722.0985, 2.129959
722.5806, 2.053818
723.0627, 2.644447
723.5449, 2.992752
724.0270, 2.889290
724.5091, 2.692787
724.9912, 2.764648
725.4733, 3.174889
725.9554, 3.435623
726.4376, 3.482109
726.9197, 3.441986
727.4018, 3.559052
727.8839, 3.738441
728.3660, 3.637779
728.8481, 3.042946
729.3303, 2.443047
729.8124, 2.377014
730.2945, 2.551132
730.7766, 2.518234
731.2587, 1.697876
731.7408, 1.179123
732.2230, 1.391266
732.7051, 2.016602
733.1872, 2.507965
733.6693, 2.842087
734.1514, 3.066490
734.6335, 3.153908
735.1157, 3.172691
735.5978, 3.383812
736.0799, 3.739449
736.5620, 3.869308
737.0441, 3.441284
737.5262, 2.827522
738.0084, 2.396767
738.4905, 2.130707
738.9726, 1.966370
739.4547, 1.931915
739.9368, 1.939682
740.4189, 1.948769
740.9011, 1.961090
741.3832, 2.031662
741.8653, 2.235962
742.3474, 2.357117
742.8295, 2.277908
743.3116, 2.026451
743.7938, 1.826004
744.2759, 1.676392
744.7580, 1.570206
745.2401, 1.553192
745.7222, 1.580673
746.2043, 1.465988
746.6865, 1.178223
747.1686, 1.054230
747.6507, 1.492607
748.1328, 1.992958
748.6149, 2.234009
749.0970, 2.146294
749.5792, 1.919724
750.0613, 1.383217
750.5434, 0.9395980
751.0255, 0.9149630
751.5076, 1.367760
751.9897, 1.528488
752.4719, 1.355194
752.9540, 1.080902
753.4361, 0.9138950
753.9182, 0.8139420
754.4003, 0.6365200
754.8824, 0.2973560
755.3646, 9.5450997E-02
755.8467, 0.3837740
756.3288, 0.8190000
756.8109, 1.074982
757.2930, 1.034302
757.7751, 0.9445190
758.2573, 0.7475590
758.7394, 0.5789410
759.2215, 0.5999150
759.7036, 0.8455510
760.1857, 1.004013
760.6678, 1.038055
761.1500, 1.004921
761.6321, 0.9616470
762.1142, 0.9072570
762.5963, 0.8150560
763.0784, 0.6334840
763.5605, 0.5133670
764.0427, 0.5747530
764.5248, 0.7666850
765.0069, 1.006004
765.4890, 1.509827
765.9711, 1.700790
766.4532, 1.382637
766.9354, 0.8640900
767.4175, 0.5635450
767.8996, 0.5064010
768.3817, 0.5275420
768.8638, 0.5861210
769.3459, 0.6705930
769.8281, 0.7742310
770.3102, 0.8814470
770.7923, 0.9464870
771.2744, 0.9552230
771.7565, 0.9134600
772.2386, 0.8358460
772.7208, 0.7080840
773.2029, 0.5038990
773.6850, 3.9673001E-02
774.1671, 0.2723460
774.6492, 0.3297200
775.1313, 0.2283860
775.6135, 0.1884160
776.0956, 0.2345890
776.5777, 0.1502300
777.0598, 0.1770400
777.5419, 0.5813670
778.0240, 0.7779460
778.5062, 0.8037720
778.9883, 0.7737810
779.4704, 0.7327650
779.9525, 0.6600950
780.4346, 0.4788280
780.9167, 0.2581710
781.3989, 0.1636810
781.8810, 0.4304280
782.3631, 0.5688400
782.8452, 0.3980940
783.3273, 7.3990002E-02
783.8094, 0.1348110
784.2916, 0.6372600
784.7737, 0.9297640
785.2558, 0.6618800
785.7379, 0.1843490
786.2200, 0.2337570
786.7021, 0.6531300
787.1843, 0.9128880
787.6664, 0.5421830
788.1485, 0.1536100
788.6306, 0.1655580
789.1127, 0.4567110
789.5948, 0.5449220
790.0770, 0.1202090
790.5591, 0.1093600
791.0412, 0.1279450
791.5233, 0.6451870
792.0054, 0.6767880
792.4875, 0.2084810
792.9697, 8.1092998E-02
793.4518, 0.2508770
793.9339, 0.8110120
794.4160, 0.9419630
794.8981, 0.7570950
795.3802, 0.6347960
795.8624, 0.8984300
796.3445, 1.123772
796.8266, 1.025925
797.3087, 0.6911240
797.7908, 0.5996250
798.2729, 0.9876860
798.7551, 1.170921
799.2372, 0.8498920
799.7193, 0.2217410
800.2014, 4.9270999E-02
800.6835, 0.3016430
801.1656, 0.5342030
801.6478, 0.5463260
802.1299, 0.3997420
802.6120, 1.2050000E-03
803.0941, 0.5237660
803.5762, 0.7486800
804.0583, 0.1270680
804.5405, 0.4366610
805.0226, 0.4667970
805.5047, 0.1346890
805.9868, 0.1665880
806.4689, 0.7345660
806.9510, 1.117241
807.4332, 0.9895400
807.9153, 0.5632780
808.3974, 0.4523320
808.8795, 0.6108860
809.3616, 0.7764970
809.8438, 0.9201890
810.3259, 0.9231340
810.8080, 0.5033800
811.2901, 0.1608890
811.7722, 0.5038600
812.2543, 7.6514997E-02
812.7365, 0.3512270
813.2186, 0.6011200
813.7007, 0.7082210
814.1828, 0.8155290
814.6649, 0.9402010
815.1470, 0.9152830
815.6292, 0.6056440
816.1113, 0.1888580
816.5934, 1.7814999E-02
817.0755, 4.7233999E-02
817.5576, 3.9670002E-03
818.0397, 0.1647720
818.5219, 0.2876740
819.0040, 0.2228470
819.4861, 3.7041001E-02
819.9682, 3.7964001E-02
820.4503, 0.1348570
820.9324, 0.1959690
821.4146, 2.1690000E-02
821.8967, 0.2713170
822.3788, 0.4315490
822.8609, 0.4517750
823.3430, 0.2035140
823.8251, 0.6035610
824.3073, 1.367004
824.7894, 1.179550
825.2715, 0.4160690
825.7536, 0.1184390
826.2357, 0.1050640
826.7178, 0.3395690
827.2000, 0.3496250
827.6821, 0.2384570
828.1642, 0.1956860
828.6463, 0.2426610
829.1284, 0.2683180
829.6105, 0.2206500
830.0927, 0.1889880
830.5748, 0.4067760
831.0569, 0.8006360
831.5390, 1.121239
832.0211, 1.317207
832.5032, 1.347023
832.9854, 1.017281
833.4675, 0.5560300
833.9496, 0.3382950
834.4317, 0.4897160
834.9138, 0.7601320
835.3959, 1.257240
835.8781, 1.784630
836.3602, 2.051674
836.8423, 2.052101
837.3244, 1.873459
837.8065, 1.490929
838.2886, 1.093269
838.7708, 0.7605970
839.2529, 0.5896910
839.7350, 0.7934720
840.2171, 1.723793
840.6992, 2.438484
841.1813, 2.521988
841.6635, 2.298592
842.1456, 2.109589
842.6277, 1.975266
843.1098, 1.772049
843.5919, 1.427414
844.0740, 1.196083
844.5562, 1.592041
845.0383, 2.350777
845.5204, 2.625008
846.0025, 2.228569
846.4846, 1.686470
846.9667, 1.102371
847.4489, 0.7202760
847.9310, 0.8635100
848.4131, 1.963799
848.8952, 2.482765
849.3773, 2.063095
849.8594, 1.525955
850.3416, 1.581955
850.8237, 2.189224
851.3058, 2.310860
851.7879, 1.881531
852.2700, 1.453537
852.7521, 1.551048
853.2343, 1.869522
853.7164, 2.047050
854.1985, 2.036980
854.6806, 2.038185
855.1627, 2.111465
855.6448, 2.225082
856.1270, 2.355255
856.6091, 2.495392
857.0912, 2.726547
857.5733, 3.091637
858.0554, 3.373344
858.5375, 3.336456
859.0197, 3.080475
859.5018, 2.835632
859.9839, 2.617737
860.4660, 2.484840
860.9481, 2.467400
861.4302, 2.508102
861.9124, 2.670692
862.3945, 2.910210
862.8766, 3.007935
863.3587, 2.940773
863.8408, 2.731354
864.3229, 2.329399
864.8051, 1.851135
865.2872, 1.602081
865.7693, 1.567436
866.2514, 1.705441
866.7335, 2.226055
867.2156, 2.681362
867.6978, 2.606152
868.1799, 2.205612
868.6620, 1.944626
869.1441, 1.935410
869.6262, 2.067127
870.1083, 2.506939
870.5905, 2.992970
871.0726, 2.922150
871.5547, 2.314106
872.0368, 1.961143
872.5189, 2.141064
873.0010, 2.414280
873.4832, 2.199551
873.9653, 1.752460
874.4474, 1.501038
874.9295, 1.764698
875.4116, 1.889469
875.8937, 1.504333
876.3759, 1.059490
876.8580, 1.032104
877.3401, 1.531487
877.8222, 1.766182
878.3043, 1.638355
878.7864, 1.484776
879.2686, 1.811615
879.7507, 2.327164
880.2328, 2.426498
880.7149, 1.979893
881.1970, 1.570534
881.6791, 1.482552
882.1613, 1.517807
882.6434, 1.570030
883.1255, 1.648605
883.6076, 1.641350
884.0897, 1.560516
884.5718, 1.428459
885.0540, 1.254089
885.5361, 1.041908
886.0182, 0.7670250
886.5003, 0.4494210
886.9824, 0.2519150
887.4645, 0.3668210
887.9467, 0.5426710
888.4288, 0.6198270
888.9109, 0.6020430
889.3930, 0.6496470
889.8751, 0.8827320
890.3572, 0.9058340
890.8394, 0.4608760
891.3215, 0.1777460
891.8036, 8.1600003E-02
892.2857, 0.6007770
892.7678, 1.058636
893.2499, 0.7412450
893.7321, 0.3012280
894.2142, 0.2395060
894.6963, 0.3979070
895.1784, 0.4733430
895.6605, 0.2814250
896.1426, 0.2006650
896.6248, 0.3033870
897.1069, 0.4830590
897.5890, 0.5906300
898.0711, 0.6303220
898.5532, 0.6174050
899.0353, 0.5386200
899.5175, 0.4835590
899.9996, 0.6134640
900.4817, 0.7782630
900.9638, 0.7819180
901.4459, 0.5152850
901.9280, 0.3023950
902.4102, 0.1173290
902.8923, 6.4139999E-02
903.3744, 0.2667660
903.8565, 0.7333180
904.3386, 1.102646
904.8207, 1.373711
905.3029, 1.424026
905.7850, 0.9556270
906.2671, 0.3438380
906.7492, 4.0543001E-02
907.2313, 0.1742900
907.7134, 0.1411440
908.1956, 0.2438320
908.6777, 0.5598600
909.1598, 0.6603010
909.6419, 0.5812910
910.1240, 0.4692610
910.6061, 0.3230130
911.0883, 0.2432980
911.5704, 0.3213770
912.0525, 0.4301640
912.5346, 0.3791050
913.0167, 0.2373200
913.4988, 0.1495440
913.9810, 0.2972300
914.4631, 0.3303490
914.9452, 1.2314000E-02
915.4273, 0.3453520
915.9094, 0.1863170
916.3915, 0.5537150
916.8737, 0.8827130
917.3558, 0.6052550
917.8379, 0.1515770
918.3200, 3.4522999E-02
918.8021, 6.3006997E-02
919.2842, 0.1011390
919.7664, 0.1983760
920.2485, 0.2253190
920.7306, 3.0197000E-02
921.2127, 0.1489300
921.6948, 0.1463580
922.1769, 5.6476999E-02
922.6591, 0.1694680
923.1412, 0.1950040
923.6233, 0.1066470
924.1054, 0.2417680
924.5875, 0.6411360
925.0696, 0.7789230
925.5518, 0.6861040
926.0339, 0.5713880
926.5160, 0.4504700
926.9981, 0.4026180
927.4802, 0.5049250
927.9623, 0.6840480
928.4445, 0.6956560
928.9266, 0.5247270
929.4087, 0.3727570
929.8908, 0.3010830
930.3729, 0.2700270
930.8550, 0.2085720
931.3372, 0.1535340
931.8193, 0.1760220
932.3014, 0.3730810
932.7835, 0.5227130
933.2656, 0.5303150
933.7477, 0.5025330
934.2299, 0.5512770
934.7120, 0.6961710
935.1941, 0.7515450
935.6762, 0.7075960
936.1583, 0.5756720
936.6404, 0.1928100
937.1226, 0.1835860
937.6047, 0.1375080
938.0868, 0.3660850
938.5689, 0.8278770
939.0510, 1.219666
939.5331, 1.374302
940.0153, 1.120522
940.4974, 0.5539590
940.9795, 0.3735660
941.4616, 0.5841060
941.9437, 0.8858570
942.4258, 1.258007
942.9080, 1.509903
943.3901, 1.246719
943.8722, 0.7027850
944.3543, 0.3781740
944.8364, 0.5556220
945.3185, 0.8200570
945.8007, 1.215496
946.2828, 1.557140
946.7649, 1.543800
947.2470, 1.189686
947.7291, 0.9592550
948.2112, 0.9164580
948.6934, 0.9510190
949.1755, 1.009686
949.6576, 1.061058
950.1397, 1.038979
950.6218, 0.8924060
951.1039, 0.7730600
951.5861, 0.6828380
952.0682, 0.6386150
952.5503, 0.6492420
953.0324, 0.7156330
953.5145, 0.9036220
953.9966, 1.195671
954.4788, 1.379765
954.9609, 1.232178
955.4430, 1.019207
955.9251, 1.010307
956.4072, 1.104141
956.8893, 1.005699
957.3715, 0.3279460
957.8536, 0.1109160
958.3357, 0.6759530
958.8178, 1.463909
959.2999, 1.484783
959.7820, 0.9192280
960.2642, 0.6069340
960.7463, 0.7294770
961.2284, 0.9888310
961.7105, 1.304070
962.1926, 1.555191
962.6747, 1.614113
963.1569, 1.413658
963.6390, 1.324471
964.1211, 1.401794
964.6032, 1.417389
965.0853, 1.151009
965.5674, 0.7597430
966.0496, 0.7900770
966.5317, 1.130264
967.0138, 1.306396
967.4959, 0.8065110
967.9780, 0.3527070
968.4601, 0.2888570
968.9423, 0.5301900
969.4244, 0.9468770
969.9065, 1.687317
970.3886, 1.914070
970.8707, 1.356560
971.3528, 0.6272960
971.8350, 0.6357730
972.3171, 1.038422
972.7992, 1.170204
973.2813, 0.8178710
973.7634, 0.5737990
974.2455, 0.8031010
974.7277, 1.070786
975.2098, 1.122231
975.6919, 0.9478000
976.1740, 0.6998140
976.6561, 0.3765030
977.1382, 0.1860430
977.6204, 0.3633190
978.1025, 0.6663280
978.5846, 0.8384170
979.0667, 0.8980030
979.5488, 0.9171070
980.0309, 0.8825230
980.5131, 0.8255540
980.9952, 0.7153320
981.4773, 0.6400600
981.9594, 0.7922060
982.4415, 1.123878
982.9236, 1.322632
983.4058, 1.308815
983.8879, 1.285271
984.3700, 1.501221
984.8521, 1.737701
985.3342, 1.773705
985.8163, 1.532768
986.2985, 1.321716
986.7806, 1.126526
987.2627, 1.002510
987.7448, 1.037521
988.2269, 1.144470
988.7090, 1.025200
989.1912, 0.7233050
989.6733, 0.4161760
990.1554, 0.1098330
990.6375, 8.6341999E-02
991.1196, 6.7078002E-02
991.6017, 8.4091000E-02
992.0839, 0.2246320
992.5660, 0.3603520
993.0481, 0.4272000
993.5302, 0.3750760
994.0123, 0.4272990
994.4944, 1.058662
994.9766, 1.846069
995.4587, 2.138535
995.9408, 1.833344
996.4229, 1.451935
996.9050, 0.9955060
997.3871, 0.6901020
997.8693, 0.7047650
998.3514, 0.9529720
998.8335, 0.8557280
999.3156, 0.4414140
999.7977, 0.1600040
1000.280, 0.3190840
1000.762, 0.5533830
1001.244, 0.5212400
1001.726, 0.3296810
1002.208, 0.1576920
1002.690, 5.2444000E-02
1003.173, 3.6331002E-02
1003.655, 0.3150710
1004.137, 0.6854020
1004.619, 0.6395110
1005.101, 0.3365330
1005.583, 0.4184420
1006.065, 0.9031830
1006.547, 1.239326
1007.029, 0.9419020
1007.512, 0.5488820
1007.994, 0.3295750
1008.476, 0.2747340
1008.958, 0.3703000
1009.440, 0.6410600
1009.922, 0.9177400
1010.404, 1.184044
1010.886, 1.357887
1011.369, 1.240707
1011.851, 0.9809420
1012.333, 0.8353040
1012.815, 0.9592210
1013.297, 0.9884490
1013.779, 0.8131100
1014.261, 0.5915990
1014.743, 0.3562090
1015.225, 0.1212230
1015.708, 0.4169460
1016.190, 1.201378
1016.672, 1.703300
1017.154, 1.070297
1017.636, 0.2776180
1018.118, 4.5981999E-02
1018.600, 5.0995000E-02
1019.082, 0.3609390
1019.565, 1.029305
1020.047, 1.456825
1020.529, 1.513817
1021.011, 1.380074
1021.493, 1.188156
1021.975, 1.025726
1022.457, 1.172684
1022.939, 1.739311
1023.421, 2.028709
1023.904, 1.339302
1024.386, 0.7386930
1024.868, 0.8354870
1025.350, 1.550095
1025.832, 1.783768
1026.314, 1.545876
1026.796, 1.265945
1027.278, 1.082115
1027.760, 1.033875
1028.243, 1.301193
1028.725, 1.682678
1029.207, 1.830070
1029.689, 1.434700
1030.171, 1.258270
1030.653, 1.418755
1031.135, 1.568230
1031.617, 1.236893
1032.100, 0.6426850
1032.582, 0.4299770
1033.064, 0.6112750
1033.546, 0.8927310
1034.028, 1.226112
1034.510, 1.509842
1034.992, 1.738396
1035.474, 1.875389
1035.957, 1.717117
1036.439, 1.236771
1036.921, 0.9817350
1037.403, 1.144806
1037.885, 1.347343
1038.367, 1.042557
1038.849, 0.5844650
1039.331, 0.4514010
1039.813, 0.8351290
1040.296, 1.064400
1040.778, 1.035072
1041.260, 0.9751890
1041.742, 1.025055
1042.224, 1.135628
1042.706, 1.100815
1043.188, 0.9618680
1043.670, 0.9062190
1044.152, 1.083557
1044.635, 1.193222
1045.117, 0.9658660
1045.599, 0.7406920
1046.081, 1.046387
1046.563, 2.012154
1047.045, 2.436539
1047.527, 2.220924
1048.009, 1.763817
1048.492, 1.131523
1048.974, 0.6458280
1049.456, 0.8456190
1049.938, 1.663223
1050.420, 1.976288
1050.902, 1.339699
1051.384, 0.8915410
1051.866, 0.9735260
1052.349, 1.306717
1052.831, 1.338753
1053.313, 1.177452
1053.795, 1.110680
1054.277, 1.203262
1054.759, 1.405922
1055.241, 1.954697
1055.723, 2.360977
1056.205, 2.240837
1056.688, 1.611816
1057.170, 1.311981
1057.652, 1.342445
1058.134, 1.444321
1058.616, 1.592148
1059.098, 1.628044
1059.580, 1.197121
1060.062, 0.5979690
1060.544, 0.4228670
1061.027, 1.130371
1061.509, 1.430313
1061.991, 1.126129
1062.473, 0.8306120
1062.955, 1.359161
1063.437, 2.259384
1063.919, 2.500359
1064.401, 2.086479
1064.884, 1.616425
1065.366, 1.291092
1065.848, 1.024101
1066.330, 0.7730330
1066.812, 0.5679860
1067.294, 0.5286870
1067.776, 0.6301270
1068.258, 0.5462880
1068.740, 0.1477660
1069.223, 6.4162999E-02
1069.705, 0.6088640
1070.187, 1.386337
1070.669, 1.566422
1071.151, 1.089149
1071.633, 0.6773070
1072.115, 0.2969130
1072.597, 0.1414570
1073.079, 0.4135060
1073.562, 0.8065800
1074.044, 0.8201830
1074.526, 0.6163480
1075.008, 0.5004810
1075.490, 0.6054920
1075.972, 0.7132950
1076.454, 0.8039090
1076.936, 0.9054490
1077.419, 1.084099
1077.901, 1.291061
1078.383, 1.292297
1078.865, 1.114052
1079.347, 0.9559100
1079.829, 0.9844210
1080.311, 0.8598630
1080.793, 0.1035690
1081.275, 0.7637020
1081.758, 0.8449480
1082.240, 9.6352004E-02
1082.722, 0.6713640
1083.204, 1.395798
1083.686, 1.799278
1084.168, 1.422066
1084.650, 0.7855990
1085.132, 0.3144680
1085.615, 5.1514000E-02
1086.097, 3.4462001E-02
1086.579, 0.1243900
1087.061, 0.2434390
1087.543, 0.2219090
1088.025, 0.1568910
1088.507, 0.2081680
1088.989, 0.3283920
1089.471, 0.4498670
1089.953, 0.5964130
1090.436, 0.6183010
1090.918, 0.2594450
1091.400, 2.4909999E-02
1091.882, 8.4990002E-03
1092.364, 0.2728420
1092.846, 0.7243800
1093.328, 1.279091
1093.810, 1.638840
1094.293, 1.577446
1094.775, 1.414711
1095.257, 1.190208
1095.739, 1.009888
1096.221, 0.9703220
1096.703, 1.067978
1097.185, 1.460991
1097.667, 2.174294
1098.150, 2.590858
1098.632, 1.960396
1099.114, 1.079399
1099.596, 0.6209640
1100.078, 0.4819490
1100.560, 0.2171170
1101.042, 0.4189760
1101.524, 0.4431990
1102.006, 0.4411700
1102.489, 1.371689
1102.971, 1.219925
1103.453, 0.5731890
1103.935, 0.3119200
1104.417, 0.5088200
1104.899, 0.6660770
1105.381, 0.6631090
1105.863, 0.6090700
1106.345, 0.5279620
1106.828, 0.4200130
1107.310, 0.2252880
1107.792, 3.4789999E-03
1108.274, 5.5633999E-02
1108.756, 0.1059650
1109.238, 0.3729930
1109.720, 0.7354580
1110.202, 1.150665
1110.685, 1.659355
1111.167, 2.208313
1111.649, 2.306396
1112.131, 1.991318
1112.613, 1.628769
1113.095, 1.328430
1113.577, 1.112450
1114.059, 1.075218
1114.542, 1.091171
1115.024, 0.9978330
1115.506, 0.7513050
1115.988, 0.5849460
1116.470, 0.4955370
1116.952, 0.5226750
1117.434, 0.7661900
1117.916, 1.077393
1118.398, 1.420761
1118.880, 1.696686
1119.363, 1.617516
1119.845, 0.8073730
1120.327, 0.4181060
1120.809, 0.6069790
1121.291, 0.9697880
1121.773, 1.183502
1122.255, 1.256477
1122.737, 1.146996
1123.220, 0.8867720
1123.702, 0.6775890
1124.184, 0.6084440
1124.666, 0.5826030
1125.148, 0.6276320
1125.630, 0.6457750
1126.112, 0.3563540
1126.594, 8.5281000E-02
1127.077, 0.1339570
1127.559, 0.3124850
1128.041, 0.6906360
1128.523, 0.5769500
1129.005, 0.5232390
1129.487, 0.8408510
1129.969, 1.359032
1130.451, 1.541397
1130.933, 1.424049
1131.416, 1.189026
1131.898, 0.8321300
1132.380, 0.6334990
1132.862, 1.149101
1133.344, 1.685036
1133.826, 1.598648
1134.308, 0.9334110
1134.790, 0.7228780
1135.272, 0.9801030
1135.755, 0.9985660
1136.237, 0.2077560
1136.719, 0.4309770
1137.201, 0.3773570
1137.683, 1.679558
1138.165, 2.162254
1138.647, 1.496895
1139.129, 1.097511
1139.612, 1.021530
1140.094, 1.164528
1140.576, 1.576118
1141.058, 1.954491
1141.540, 1.776825
1142.022, 1.299919
1142.504, 1.079086
1142.986, 1.504524
1143.469, 1.594452
1143.951, 1.219772
1144.433, 0.8446500
1144.915, 0.9720000
1145.397, 1.318893
1145.879, 1.421745
1146.361, 1.280441
1146.843, 0.9628980
1147.325, 6.0782999E-02
1147.807, 0.3406910
1148.290, 8.1009001E-02
1148.772, 0.6893920
1149.254, 0.5624160
1149.736, 2.0919999E-02
1150.218, 0.2384030
1150.700, 1.246483
1151.182, 1.913429
1151.664, 1.449913
1152.147, 0.9218060
1152.629, 0.5756760
1153.111, 0.3918910
1153.593, 0.4262620
1154.075, 0.6103590
1154.557, 0.5800630
1155.039, 0.2572630
1155.521, 0.1782150
1156.004, 1.018898
1156.486, 1.746628
1156.968, 1.869041
1157.450, 1.543159
1157.932, 1.178787
1158.414, 0.8006290
1158.896, 0.6167680
1159.378, 0.7720570
1159.860, 0.8739620
1160.343, 0.3762050
1160.825, 7.9467997E-02
1161.307, 2.9602000E-02
1161.789, 0.6083150
1162.271, 0.9222180
1162.753, 0.9758610
1163.235, 0.8505400
1163.717, 0.4711760
1164.199, 0.1846470
1164.682, 0.3860320
1165.164, 0.7398610
1165.646, 0.9199830
1166.128, 0.9116900
1166.610, 0.8262180
1167.092, 0.6532360
1167.574, 0.5491560
1168.056, 0.6402360
1168.539, 0.7572630
1169.021, 0.6700290
1169.503, 0.5495300
1169.985, 0.6899030
1170.467, 1.229881
1170.949, 1.413651
1171.431, 1.170914
1171.913, 0.9172670
1172.396, 1.059113
1172.878, 1.268097
1173.360, 1.109871
1173.842, 0.7897420
1174.324, 0.7243500
1174.806, 1.048981
1175.288, 1.347198
1175.770, 1.619499
1176.252, 1.800064
1176.734, 1.821808
1177.217, 1.733696
1177.699, 1.533539
1178.181, 1.254799
1178.663, 1.017982
1179.145, 0.7628560
1179.627, 0.7899400
1180.109, 1.197296
1180.591, 1.562195
1181.074, 1.417015
1181.556, 1.019554
1182.038, 0.6370010
1182.520, 0.3186040
1183.002, 0.2276540
1183.484, 0.5823750
1183.966, 0.6956860
1184.448, 0.4029390
1184.931, 8.1603996E-02
1185.413, 0.2970580
1185.895, 0.7068630
1186.377, 0.6880490
1186.859, 0.2728120
1187.341, 0.1114810
1187.823, 0.5870590
1188.305, 0.7360000
1188.787, 0.2255400
1189.270, 0.3200530
1189.752, 0.2136690
1190.234, 1.204597
1190.716, 1.513268
1191.198, 1.039253
1191.680, 0.7083510
1192.162, 0.7439040
1192.644, 0.8909070
1193.126, 1.128937
1193.609, 1.387474
1194.091, 1.587570
1194.573, 1.676483
1195.055, 1.649208
1195.537, 1.460342
1196.019, 1.282661
1196.501, 1.122208
1196.983, 1.028595
1197.466, 1.006142
1197.948, 1.075447
1198.430, 1.414833
1198.912, 1.827957
1199.394, 1.844872
1199.876, 1.292747
1200.358, 1.028412
1200.840, 1.437553
1201.323, 1.761299
1201.805, 1.704788
1202.287, 1.428688
1202.769, 1.204605
1203.251, 1.033043
1203.733, 0.9178470
1204.215, 0.8699340
1204.697, 0.8507080
1205.179, 0.9893650
1205.661, 0.8799210
1206.144, 0.1541440
1206.626, 0.7155150
1207.108, 0.4035870
1207.590, 0.6012340
1208.072, 1.272812
1208.554, 1.254768
1209.036, 1.075653
1209.518, 0.6177060
1210.001, 0.4173810
1210.483, 0.8886340
1210.965, 1.668991
1211.447, 1.907608
1211.929, 1.744827
1212.411, 1.450020
1212.893, 0.8948060
1213.375, 0.8122560
1213.858, 1.560783
1214.340, 2.163704
1214.822, 1.916138
1215.304, 1.262604
1215.786, 1.228989
1216.268, 1.648773
1216.750, 2.206276
1217.232, 3.236839
1217.714, 3.335670
1218.197, 2.013245
1218.679, 0.6669240
1219.161, 0.2029110
1219.643, 0.3564380
1220.125, 0.6964570
1220.607, 1.159882
1221.089, 1.611259
1221.571, 2.157501
1222.053, 2.364479
1222.536, 2.140640
1223.018, 1.795464
1223.500, 1.480385
1223.982, 1.223495
1224.464, 1.099678
1224.946, 1.073341
1225.428, 1.058350
1225.910, 0.9630660
1226.393, 1.069405
1226.875, 1.523331
1227.357, 1.731506
1227.839, 0.8794250
1228.321, 0.2560580
1228.803, 0.2744830
1229.285, 0.4259030
1229.767, 0.9352040
1230.250, 0.9446410
1230.732, 0.9310460
1231.214, 0.8826830
1231.696, 0.8662490
1232.178, 0.9725040
1232.660, 1.115288
1233.142, 1.259361
1233.624, 1.331421
1234.106, 1.108917
1234.589, 0.2233730
1235.071, 5.7053000E-02
1235.553, 0.7872010
1236.035, 1.446945
1236.517, 1.055710
1236.999, 0.3766860
1237.481, 0.1980510
1237.963, 0.4305800
1238.445, 0.9300230
1238.928, 1.960091
1239.410, 2.123909
1239.892, 1.285378
1240.374, 0.4148250
1240.856, 0.2622220
1241.338, 0.4090960
1241.820, 0.5633770
1242.302, 0.7028200
1242.785, 0.7852400
1243.267, 0.8002170
1243.749, 0.9252930
1244.231, 1.174423
1244.713, 1.325615
1245.195, 1.087151
1245.677, 0.8341140
1246.159, 0.9567340
1246.641, 1.174873
1247.124, 1.013489
1247.606, 0.3808900
1248.088, 9.4177000E-02
1248.570, 0.1936040
1249.052, 0.4543460
1249.534, 0.8307040
1250.016, 1.202164
1250.498, 1.591309
1250.980, 1.871353
1251.463, 1.842484
1251.945, 1.504135
1252.427, 1.191666
1252.909, 0.9272920
1253.391, 0.7287900
1253.873, 0.3913570
1254.355, 0.4064790
1254.837, 1.477829
1255.320, 2.517807
1255.802, 2.308426
1256.284, 1.115143
1256.766, 0.3208920
1257.248, 1.9119000E-02
1257.730, 2.2280000E-03
1258.212, 0.6676480
1258.694, 1.215698
1259.177, 1.492142
1259.659, 1.547379
1260.141, 1.329132
1260.623, 0.9521640
1261.105, 0.8908840
1261.587, 1.049698
1262.069, 0.9883120
1262.551, 8.7035999E-02
1263.033, 0.3693080
1263.516, 0.1360780
1263.998, 0.3601990
1264.480, 0.8575130
1264.962, 1.245224
1265.444, 1.181366
1265.926, 0.7843320
1266.408, 0.4370880
1266.890, 0.5775150
1267.372, 0.5496220
1267.855, 0.2334290
1268.337, 4.6082001E-02
1268.819, 0.5645290
1269.301, 1.267395
1269.783, 1.475494
1270.265, 1.301315
1270.747, 0.9441830
1271.229, 0.2835540
1271.712, 8.1863001E-02
1272.194, 0.4013980
1272.676, 0.8268430
1273.158, 1.219757
1273.640, 1.430191
1274.122, 1.137161
1274.604, 0.6257630
1275.086, 0.4828490
1275.568, 0.8202670
1276.051, 0.8031920
1276.533, 0.4294430
1277.015, 0.2061770
1277.497, 0.6771850
1277.979, 1.140900
1278.461, 1.039352
1278.943, 0.7646790
1279.425, 0.9151920
1279.907, 1.483887
1280.390, 1.337845
1280.872, 0.5515750
1281.354, 0.1123500
1281.836, 1.030869
1282.318, 1.643509
1282.800, 1.047562
1283.282, 0.2532500
1283.764, 7.5866997E-02
1284.247, 0.5855260
1284.729, 0.8188480
1285.211, 0.8512270
1285.693, 1.027405
1286.175, 1.886246
1286.657, 2.236298
1287.139, 1.752625
1287.621, 1.134552
1288.104, 0.8947600
1288.586, 0.9372250
1289.068, 1.117371
1289.550, 1.328766
1290.032, 1.340439
1290.514, 0.8009800
1290.996, 0.6612550
1291.478, 1.025635
1291.960, 1.299286
1292.443, 0.9594120
1292.925, 0.4739070
1293.407, 0.5105900
1293.889, 0.7761380
1294.371, 0.8554380
1294.853, 0.6765590
1295.335, 0.4249730
1295.817, 9.1522001E-02
1296.299, 5.2475002E-02
1296.782, 0.2399750
1297.264, 0.5911100
1297.746, 0.7219540
1298.228, 0.7668300
1298.710, 0.9001310
1299.192, 1.113663
1299.674, 1.099701
1300.156, 0.8557890
1300.639, 0.8067170
1301.121, 1.225021
1301.603, 1.408981
1302.085, 0.6078800
1302.567, 4.0130001E-03
1303.049, 0.1147160
1303.531, 0.0000000E+00
##END=



