##NAMES=Rheniite
##RRUFFID=R050362
##IDEAL CHEMISTRY=ReS_2_
##LOCALITY=Kudryaviy Volcano, Iturup Island, Kurilian Chain, Russia
##OWNER=RRUFF
##SOURCE=University of Arizona Mineral Museum
##DESCRIPTION=Bright, shiney metallic crystals associated with anhydrite
##STATUS=The identification of this mineral is not yet confirmed.
##URL=rruff.info/R050362
90.230, 0.000
90.713, 0.160
91.195, 2.499
91.677, 17.370
92.159, 33.738
92.641, 41.734
93.123, 43.964
93.605, 40.757
94.087, 36.831
94.570, 34.848
95.052, 32.128
95.534, 40.879
96.016, 64.079
96.498, 55.920
96.980, 49.974
97.462, 47.112
97.944, 44.888
98.426, 47.923
98.909, 46.236
99.391, 35.324
99.873, 19.292
100.355, 3.108
100.837, 10.690
101.319, 21.743
101.801, 21.482
102.283, 1.102
102.766, 22.505
103.248, 31.939
103.730, 32.971
104.212, 37.550
104.694, 56.406
105.176, 91.661
105.658, 117.305
106.140, 129.518
106.622, 136.949
107.105, 141.906
107.587, 145.567
108.069, 151.705
108.551, 162.242
109.033, 176.969
109.515, 208.247
109.997, 270.457
110.479, 342.186
110.962, 411.966
111.444, 479.341
111.926, 523.776
112.408, 507.772
112.890, 430.502
113.372, 350.430
113.854, 271.691
114.336, 199.505
114.818, 143.948
115.300, 108.502
115.783, 87.773
116.265, 73.485
116.747, 64.118
117.229, 66.670
117.711, 86.090
118.193, 120.519
118.675, 162.349
119.158, 206.355
119.640, 262.493
120.122, 336.520
120.604, 428.598
121.086, 536.932
121.568, 662.505
122.050, 804.734
122.532, 958.213
123.014, 1139.694
123.496, 1317.283
123.979, 1467.146
124.461, 1587.251
124.943, 1672.803
125.425, 1708.162
125.907, 1685.256
126.389, 1658.520
126.871, 1643.377
127.353, 1632.319
127.836, 1625.973
128.318, 1628.596
128.800, 1619.746
129.282, 1562.557
129.764, 1440.958
130.246, 1309.687
130.728, 1165.760
131.210, 1027.292
131.693, 913.294
132.175, 832.627
132.657, 776.179
133.139, 720.159
133.621, 657.104
134.103, 607.921
134.585, 574.542
135.067, 555.964
135.549, 552.669
136.032, 566.157
136.514, 592.991
136.996, 617.689
137.478, 636.425
137.960, 657.540
138.442, 677.325
138.924, 701.249
139.406, 738.778
139.889, 797.715
140.371, 875.201
140.853, 939.392
141.335, 981.933
141.817, 1018.290
142.299, 1044.943
142.781, 1067.567
143.263, 1093.151
143.745, 1124.852
144.227, 1162.482
144.710, 1230.110
145.192, 1348.970
145.674, 1474.898
146.156, 1578.062
146.638, 1674.602
147.120, 1808.457
147.602, 2023.161
148.085, 2329.264
148.567, 2581.027
149.049, 2896.789
149.531, 3066.365
150.013, 2945.798
150.495, 2577.683
150.977, 2125.565
151.459, 1718.181
151.941, 1352.729
152.423, 1093.820
152.906, 975.260
153.388, 912.234
153.870, 869.878
154.352, 841.822
154.834, 829.835
155.316, 837.070
155.798, 867.720
156.280, 900.417
156.763, 932.060
157.245, 967.708
157.727, 1013.398
158.209, 1068.180
158.691, 1125.055
159.173, 1183.893
159.655, 1253.771
160.137, 1262.669
160.620, 1175.624
161.102, 1049.785
161.584, 916.530
162.066, 783.692
162.548, 667.326
163.030, 588.154
163.512, 555.689
163.994, 521.827
164.476, 475.893
164.958, 433.075
165.441, 412.549
165.923, 417.323
166.405, 426.354
166.887, 413.482
167.369, 374.416
167.851, 346.068
168.333, 339.760
168.816, 342.139
169.298, 340.011
169.780, 331.062
170.262, 317.437
170.744, 299.350
171.226, 276.145
171.708, 258.462
172.190, 248.858
172.672, 245.325
173.154, 248.594
173.637, 260.154
174.119, 269.230
174.601, 259.957
175.083, 232.502
175.565, 209.007
176.047, 194.835
176.529, 186.812
177.012, 181.049
177.494, 177.099
177.976, 174.430
178.458, 173.485
178.940, 174.168
179.422, 172.732
179.904, 165.607
180.386, 156.533
180.868, 153.074
181.350, 158.271
181.833, 162.280
182.315, 148.554
182.797, 119.445
183.279, 98.563
183.761, 96.481
184.243, 105.966
184.725, 117.370
185.207, 130.853
185.690, 141.008
186.172, 137.418
186.654, 122.664
187.136, 113.133
187.618, 119.953
188.100, 132.853
188.582, 133.421
189.064, 116.224
189.546, 96.786
190.029, 92.097
190.511, 99.509
190.993, 107.564
191.475, 116.658
191.957, 123.106
192.439, 118.555
192.921, 97.937
193.403, 76.316
193.885, 69.434
194.368, 74.650
194.850, 82.507
195.332, 91.558
195.814, 99.707
196.296, 105.118
196.778, 107.814
197.260, 107.865
197.742, 100.468
198.225, 88.791
198.707, 86.004
199.189, 104.437
199.671, 131.866
200.153, 147.148
200.635, 145.884
201.117, 142.255
201.599, 150.458
202.081, 166.701
202.564, 178.732
203.046, 178.094
203.528, 173.886
204.010, 177.536
204.492, 188.724
204.974, 205.009
205.456, 227.004
205.939, 252.893
206.421, 275.890
206.903, 288.503
207.385, 299.476
207.867, 320.096
208.349, 351.501
208.831, 388.358
209.313, 441.404
209.795, 497.720
210.277, 521.301
210.760, 492.970
211.242, 434.299
211.724, 361.674
212.206, 272.900
212.688, 193.740
213.170, 145.226
213.652, 119.728
214.134, 99.788
214.617, 84.045
215.099, 71.841
215.581, 64.321
216.063, 61.670
216.545, 57.795
217.027, 47.356
217.509, 33.597
217.991, 23.771
218.473, 17.049
218.956, 16.021
219.438, 26.508
219.920, 47.824
220.402, 65.682
220.884, 69.845
221.366, 66.702
221.848, 71.614
222.330, 88.976
222.812, 109.392
223.295, 127.026
223.777, 142.170
224.259, 156.393
224.741, 168.284
225.223, 181.499
225.705, 203.255
226.187, 236.867
226.669, 272.789
227.152, 305.055
227.634, 334.758
228.116, 366.361
228.598, 401.170
229.080, 439.197
229.562, 478.752
230.044, 517.187
230.526, 563.289
231.008, 625.262
231.491, 697.911
231.973, 778.422
232.455, 879.545
232.937, 961.314
233.419, 943.684
233.901, 817.419
234.383, 671.937
234.865, 516.394
235.348, 364.677
235.830, 238.942
236.312, 145.645
236.794, 79.887
237.276, 38.322
237.758, 22.840
238.240, 12.360
238.722, 4.166
239.204, 1.688
239.687, 4.363
240.169, 3.573
240.651, 1.737
241.133, 1.434
241.615, 2.801
242.097, 5.160
242.579, 9.034
243.061, 13.543
243.544, 19.091
244.026, 25.440
244.508, 29.251
244.990, 26.724
245.472, 16.691
245.954, 9.144
246.436, 7.767
246.918, 5.921
247.400, 4.282
247.883, 20.931
248.365, 31.844
248.847, 25.969
249.329, 3.361
249.811, 10.117
250.293, 7.213
250.775, 3.665
251.257, 9.014
251.740, 19.891
252.222, 25.807
252.704, 19.322
253.186, 2.578
253.668, 7.422
254.150, 5.684
254.632, 3.825
255.114, 5.828
255.596, 9.425
256.079, 10.285
256.561, 6.073
257.043, 1.407
257.525, 6.393
258.007, 10.348
258.489, 9.683
258.971, 3.050
259.453, 17.659
259.935, 20.475
260.418, 6.878
260.900, 12.954
261.382, 18.817
261.864, 5.954
262.346, 18.642
262.828, 7.913
263.310, 6.655
263.792, 8.958
264.275, 3.781
264.757, 21.601
265.239, 31.442
265.721, 30.448
266.203, 29.323
266.685, 26.604
267.167, 24.963
267.649, 25.109
268.132, 27.514
268.614, 33.056
269.096, 43.156
269.578, 58.384
270.060, 72.496
270.542, 86.964
271.024, 98.802
271.506, 103.835
271.988, 105.147
272.471, 110.546
272.953, 126.459
273.435, 150.972
273.917, 172.622
274.399, 190.925
274.881, 206.474
275.363, 219.774
275.845, 230.718
276.328, 238.966
276.810, 244.097
277.292, 247.064
277.774, 248.672
278.256, 245.978
278.738, 249.977
279.220, 275.415
279.702, 303.206
280.184, 316.705
280.667, 311.147
281.149, 291.733
281.631, 261.619
282.113, 219.877
282.595, 177.722
283.077, 132.355
283.559, 91.983
284.041, 63.975
284.523, 49.221
285.006, 39.911
285.488, 30.094
285.970, 20.764
286.452, 18.510
286.934, 28.344
287.416, 39.254
287.898, 40.110
288.380, 32.434
288.862, 25.233
289.345, 22.721
289.827, 22.837
290.309, 23.238
290.791, 24.368
291.273, 21.854
291.755, 6.344
292.237, 17.234
292.720, 26.580
293.202, 9.594
293.684, 16.151
294.166, 39.912
294.648, 60.722
295.130, 72.531
295.612, 68.919
296.094, 54.346
296.576, 48.076
297.059, 53.784
297.541, 62.827
298.023, 70.095
298.505, 78.253
298.987, 93.811
299.469, 120.511
299.951, 152.476
300.433, 176.157
300.915, 184.372
301.398, 197.074
301.880, 217.901
302.362, 243.372
302.844, 272.612
303.326, 305.010
303.808, 335.012
304.290, 355.226
304.772, 362.476
305.254, 368.838
305.737, 378.057
306.219, 382.992
306.701, 378.589
307.183, 365.761
307.665, 348.937
308.147, 333.380
308.629, 319.064
309.111, 297.358
309.594, 251.407
310.076, 215.079
310.558, 201.553
311.040, 203.029
311.522, 205.569
312.004, 202.054
312.486, 194.577
312.968, 187.988
313.451, 176.683
313.933, 177.995
314.415, 204.041
314.897, 236.959
315.379, 262.329
315.861, 276.200
316.343, 282.590
316.825, 284.382
317.307, 279.978
317.789, 279.902
318.272, 286.559
318.754, 296.877
319.236, 311.752
319.718, 331.804
320.200, 350.833
320.682, 370.922
321.164, 387.408
321.647, 383.045
322.129, 351.113
322.611, 314.023
323.093, 287.019
323.575, 266.287
324.057, 244.407
324.539, 221.349
325.021, 194.863
325.503, 158.818
325.986, 113.462
326.468, 75.020
326.950, 53.567
327.432, 44.421
327.914, 32.465
328.396, 12.263
328.878, 1.794
329.360, 1.638
329.842, 16.806
330.325, 26.849
330.807, 24.571
331.289, 18.265
331.771, 19.182
332.253, 31.027
332.735, 39.828
333.217, 43.562
333.699, 44.631
334.181, 43.273
334.664, 40.390
335.146, 39.737
335.628, 45.160
336.110, 57.269
336.592, 67.988
337.074, 73.935
337.556, 82.195
338.038, 95.945
338.521, 113.678
339.003, 132.927
339.485, 152.408
339.967, 171.711
340.449, 189.421
340.931, 204.831
341.413, 219.680
341.895, 230.241
342.378, 242.665
342.860, 263.540
343.342, 294.190
343.824, 328.129
344.306, 363.040
344.788, 401.459
345.270, 416.993
345.752, 400.469
346.234, 365.038
346.716, 309.196
347.199, 239.222
347.681, 174.976
348.163, 128.510
348.645, 96.783
349.127, 73.213
349.609, 58.993
350.091, 46.432
350.573, 31.241
351.056, 17.772
351.538, 11.657
352.020, 16.542
352.502, 22.605
352.984, 21.379
353.466, 14.269
353.948, 7.251
354.430, 1.248
354.913, 1.766
355.395, 4.195
355.877, 22.179
356.359, 34.994
356.841, 33.880
357.323, 28.250
357.805, 28.026
358.287, 34.857
358.769, 46.194
359.252, 60.415
359.734, 78.143
360.216, 91.435
360.698, 96.324
361.180, 101.530
361.662, 109.265
362.144, 120.085
362.626, 136.059
363.108, 159.070
363.591, 184.595
364.073, 197.474
364.555, 187.381
365.037, 181.240
365.519, 186.009
366.001, 192.515
366.483, 194.754
366.965, 190.943
367.448, 180.495
367.930, 157.506
368.412, 119.945
368.894, 100.492
369.376, 117.481
369.858, 132.450
370.340, 117.889
370.822, 85.725
371.305, 66.256
371.787, 80.562
372.269, 111.780
372.751, 131.522
373.233, 138.851
373.715, 143.324
374.197, 152.555
374.679, 159.143
375.161, 150.497
375.643, 121.155
376.126, 89.516
376.608, 63.043
377.090, 41.469
377.572, 25.121
378.054, 14.374
378.536, 6.307
379.018, 3.075
379.500, 14.905
379.983, 20.508
380.465, 14.837
380.947, 7.139
381.429, 3.678
381.911, 3.533
382.393, 1.451
382.875, 6.555
383.357, 18.311
383.840, 22.689
384.322, 8.151
384.804, 0.574
385.286, 11.742
385.768, 25.676
386.250, 22.984
386.732, 0.051
387.214, 24.804
387.696, 25.613
388.179, 2.195
388.661, 22.838
389.143, 33.809
389.625, 38.388
390.107, 35.238
390.589, 26.975
391.071, 19.475
391.553, 14.291
392.035, 12.785
392.518, 19.091
393.000, 34.349
393.482, 49.047
393.964, 57.701
394.446, 64.352
394.928, 76.803
395.410, 99.311
395.892, 115.069
396.375, 110.193
396.857, 93.886
397.339, 81.333
397.821, 75.218
398.303, 78.570
398.785, 97.760
399.267, 136.013
399.749, 159.727
400.232, 157.762
400.714, 151.937
401.196, 151.391
401.678, 156.117
402.160, 164.987
402.642, 177.737
403.124, 192.359
403.606, 203.037
404.088, 209.213
404.570, 211.873
405.053, 208.152
405.535, 203.536
406.017, 202.857
406.499, 206.145
406.981, 209.141
407.463, 206.053
407.945, 197.290
408.427, 195.550
408.910, 201.402
409.392, 214.403
409.874, 235.661
410.356, 262.685
410.838, 293.043
411.320, 329.715
411.802, 363.072
412.284, 380.451
412.767, 383.970
413.249, 388.741
413.731, 397.431
414.213, 411.685
414.695, 440.352
415.177, 486.705
415.659, 511.324
416.141, 498.946
416.623, 466.614
417.106, 423.550
417.588, 373.276
418.070, 324.448
418.552, 282.684
419.034, 247.095
419.516, 210.706
419.998, 165.441
420.480, 129.499
420.962, 106.107
421.445, 92.176
421.927, 86.376
422.409, 87.582
422.891, 91.832
423.373, 95.154
423.855, 97.941
424.337, 96.771
424.819, 89.112
425.302, 80.336
425.784, 69.287
426.266, 59.295
426.748, 57.285
427.230, 68.821
427.712, 85.565
428.194, 95.773
428.676, 99.717
429.159, 106.463
429.641, 121.283
430.123, 137.423
430.605, 144.389
431.087, 141.418
431.569, 139.109
432.051, 138.601
432.533, 141.117
433.015, 151.881
433.497, 169.067
433.980, 179.835
434.462, 173.835
434.944, 153.699
435.426, 139.053
435.908, 138.577
436.390, 132.781
436.872, 112.775
437.354, 88.746
437.837, 73.286
438.319, 69.446
438.801, 68.777
439.283, 58.964
439.765, 38.344
440.247, 28.269
440.729, 38.214
441.211, 46.528
441.694, 38.219
442.176, 22.810
442.658, 18.905
443.140, 38.700
443.622, 62.557
444.104, 66.013
444.586, 51.323
445.068, 38.071
445.550, 34.654
446.033, 36.510
446.515, 32.025
446.997, 20.533
447.479, 14.898
447.961, 24.488
448.443, 35.247
448.925, 32.820
449.407, 20.373
449.889, 12.483
450.372, 18.447
450.854, 34.639
451.336, 48.117
451.818, 62.906
452.300, 68.308
452.782, 58.560
453.264, 43.697
453.746, 26.773
454.228, 10.789
454.711, 3.994
455.193, 20.720
455.675, 54.924
456.157, 62.547
456.639, 29.799
457.121, 1.848
457.603, 5.787
458.086, 24.399
458.568, 38.351
459.050, 44.965
459.532, 45.176
460.014, 34.800
460.496, 18.913
460.978, 9.516
461.460, 9.093
461.942, 14.000
462.424, 22.975
462.907, 36.418
463.389, 38.895
463.871, 19.687
464.353, 2.142
464.835, 3.557
465.317, 1.994
465.799, 0.594
466.281, 2.228
466.763, 5.117
467.246, 6.248
467.728, 4.989
468.210, 4.658
468.692, 6.601
469.174, 8.180
469.656, 10.226
470.138, 10.992
470.621, 5.900
471.103, 10.761
471.585, 29.267
472.067, 34.165
472.549, 26.061
473.031, 18.147
473.513, 12.779
473.995, 11.605
474.477, 20.998
474.960, 42.467
475.442, 53.164
475.924, 38.019
476.406, 19.283
476.888, 15.551
477.370, 24.545
477.852, 34.380
478.334, 38.672
478.816, 38.022
479.299, 33.594
479.781, 18.551
480.263, 15.142
480.745, 28.407
481.227, 43.851
481.709, 55.115
482.191, 62.874
482.673, 64.011
483.155, 51.981
483.638, 33.251
484.120, 29.032
484.602, 42.894
485.084, 52.455
485.566, 45.726
486.048, 31.683
486.530, 23.224
487.013, 20.366
487.495, 23.587
487.977, 39.010
488.459, 57.411
488.941, 68.496
489.423, 71.188
489.905, 67.002
490.387, 55.549
490.869, 39.125
491.352, 31.150
491.834, 43.239
492.316, 49.042
492.798, 42.134
493.280, 31.228
493.762, 21.315
494.244, 14.411
494.726, 13.631
495.208, 26.516
495.691, 48.570
496.173, 53.033
496.655, 32.689
497.137, 16.148
497.619, 20.146
498.101, 33.914
498.583, 42.836
499.065, 45.031
499.547, 45.487
500.030, 44.752
500.512, 44.515
500.994, 50.029
501.476, 60.928
501.958, 65.811
502.440, 53.833
502.922, 27.980
503.404, 14.289
503.887, 26.809
504.369, 34.317
504.851, 29.044
505.333, 20.160
505.815, 15.631
506.297, 16.971
506.779, 21.568
507.261, 28.639
507.743, 37.278
508.226, 41.858
508.708, 42.345
509.190, 38.948
509.672, 27.134
510.154, 12.968
510.636, 5.039
511.118, 4.819
511.600, 7.807
512.083, 13.733
512.565, 20.827
513.047, 25.732
513.529, 28.464
514.011, 34.303
514.493, 48.596
514.975, 68.838
515.457, 77.569
515.940, 58.859
516.422, 49.307
516.904, 59.726
517.386, 75.355
517.868, 85.866
518.350, 88.906
518.832, 84.591
519.314, 68.742
519.796, 46.063
520.279, 34.000
520.761, 34.101
521.243, 38.070
521.725, 45.643
522.207, 53.191
522.689, 53.253
523.171, 44.593
523.653, 35.855
524.135, 26.889
524.618, 20.604
525.100, 22.956
525.582, 32.400
526.064, 38.665
526.546, 34.166
527.028, 23.469
527.510, 24.055
527.992, 47.567
528.474, 61.818
528.957, 58.558
529.439, 50.869
529.921, 45.118
530.403, 42.754
530.885, 45.359
531.367, 59.223
531.849, 74.756
532.331, 72.046
532.813, 51.185
533.296, 31.990
533.778, 20.661
534.260, 15.598
534.742, 15.680
535.224, 21.849
535.706, 27.086
536.188, 40.419
536.670, 43.794
537.153, 10.452
537.635, 41.140
538.117, 66.953
538.599, 45.106
539.081, 1.702
539.563, 31.679
540.045, 41.015
540.527, 49.673
541.010, 61.810
541.492, 69.840
541.974, 67.783
542.456, 58.949
542.938, 51.046
543.420, 47.260
543.902, 44.192
544.384, 36.703
544.867, 27.557
545.349, 25.498
545.831, 33.000
546.313, 43.229
546.795, 49.124
547.277, 50.381
547.759, 53.359
548.241, 57.808
548.723, 64.147
549.206, 77.241
549.688, 89.875
550.170, 93.052
550.652, 85.041
551.134, 72.695
551.616, 59.581
552.098, 47.079
552.580, 46.761
553.062, 63.145
553.545, 76.158
554.027, 74.383
554.509, 63.106
554.991, 52.681
555.473, 41.691
555.955, 36.493
556.437, 44.504
556.919, 55.507
557.401, 58.720
557.884, 54.630
558.366, 50.378
558.848, 50.669
559.330, 53.687
559.812, 52.933
560.294, 44.174
560.776, 42.051
561.258, 56.408
561.740, 71.127
562.223, 77.574
562.705, 76.334
563.187, 71.274
563.669, 61.318
564.151, 51.296
564.633, 49.250
565.115, 52.221
565.597, 45.065
566.080, 21.272
566.562, 0.211
567.044, 5.857
567.526, 45.101
568.008, 66.990
568.490, 61.486
568.972, 52.968
569.454, 47.110
569.937, 43.200
570.419, 39.698
570.901, 36.164
571.383, 33.317
571.865, 30.211
572.347, 28.018
572.829, 36.396
573.311, 59.854
573.794, 72.512
574.276, 52.203
574.758, 16.839
575.240, 8.652
575.722, 40.141
576.204, 61.530
576.686, 53.212
577.168, 36.751
577.650, 31.065
578.133, 34.195
578.615, 32.103
579.097, 15.515
579.579, 5.144
580.061, 1.054
580.543, 37.401
581.025, 55.767
581.507, 31.949
581.989, 5.021
582.472, 2.367
582.954, 16.879
583.436, 27.503
583.918, 27.210
584.400, 23.705
584.882, 21.171
585.364, 19.412
585.846, 17.107
586.328, 14.219
586.811, 14.275
587.293, 21.168
587.775, 34.411
588.257, 46.369
588.739, 64.732
589.221, 69.407
589.703, 43.780
590.185, 13.591
590.667, 1.088
591.150, 7.334
591.632, 17.305
592.114, 25.870
592.596, 30.613
593.078, 23.032
593.560, 5.792
594.042, 0.001
594.524, 15.904
595.007, 38.340
595.489, 41.428
595.971, 20.237
596.453, 9.910
596.935, 18.154
597.417, 28.109
597.899, 37.493
598.381, 43.712
598.864, 42.555
599.346, 32.920
599.828, 22.719
600.310, 21.359
600.792, 26.369
601.274, 26.098
601.756, 18.681
602.238, 14.446
602.721, 19.978
603.203, 31.934
603.685, 42.834
604.167, 55.261
604.649, 60.913
605.131, 53.822
605.613, 44.742
606.095, 35.548
606.577, 29.886
607.060, 38.434
607.542, 67.668
608.024, 99.948
608.506, 104.651
608.988, 82.157
609.470, 63.995
609.952, 53.820
610.434, 47.599
610.916, 42.883
611.399, 40.076
611.881, 40.417
612.363, 45.791
612.845, 51.541
613.327, 60.792
613.809, 66.778
614.291, 57.927
614.773, 37.840
615.255, 24.471
615.738, 30.777
616.220, 48.497
616.702, 56.904
617.184, 55.259
617.666, 48.038
618.148, 28.643
618.630, 13.636
619.112, 22.984
619.594, 48.714
620.077, 63.096
620.559, 55.538
621.041, 42.872
621.523, 27.250
622.005, 13.745
622.487, 11.948
622.969, 21.657
623.451, 31.206
623.934, 29.782
624.416, 21.339
624.898, 27.277
625.380, 55.533
625.862, 71.196
626.344, 54.208
626.826, 34.141
627.308, 37.827
627.791, 61.403
628.273, 80.891
628.755, 88.410
629.237, 91.544
629.719, 95.834
630.201, 98.682
630.683, 93.667
631.165, 80.245
631.648, 66.653
632.130, 61.490
632.612, 63.370
633.094, 60.190
633.576, 48.523
634.058, 40.161
634.540, 41.034
635.022, 44.079
635.504, 44.880
635.987, 43.005
636.469, 36.371
636.951, 17.051
637.433, 0.726
637.915, 5.039
638.397, 0.364
638.879, 8.943
639.361, 18.631
639.843, 28.514
640.326, 37.989
640.808, 46.896
641.290, 52.598
641.772, 55.347
642.254, 54.205
642.736, 43.145
643.218, 32.222
643.700, 31.150
644.182, 39.665
644.665, 48.174
645.147, 53.807
645.629, 58.118
646.111, 62.875
646.593, 67.071
647.075, 68.107
647.557, 65.486
648.039, 62.012
648.521, 60.572
649.004, 61.132
649.486, 64.108
649.968, 74.018
650.450, 75.469
650.932, 53.349
651.414, 28.862
651.896, 24.110
652.378, 38.678
652.861, 50.122
653.343, 54.624
653.825, 51.320
654.307, 30.505
654.789, 3.945
655.271, 3.610
655.753, 12.707
656.235, 31.761
656.718, 30.828
657.200, 12.795
657.682, 0.149
658.164, 6.628
658.646, 9.178
659.128, 5.724
659.610, 0.148
660.092, 4.492
660.575, 8.093
661.057, 8.495
661.539, 3.113
662.021, 3.248
662.503, 11.659
662.985, 17.881
663.467, 13.673
663.949, 1.445
664.431, 17.787
664.914, 26.952
665.396, 29.847
665.878, 29.621
666.360, 26.048
666.842, 20.242
667.324, 10.289
667.806, 1.064
668.288, 3.462
668.770, 3.269
669.253, 4.870
669.735, 27.651
670.217, 50.734
670.699, 73.249
671.181, 90.595
671.663, 95.372
672.145, 88.431
672.627, 79.403
673.109, 76.638
673.592, 75.313
674.074, 60.203
674.556, 31.246
675.038, 14.871
675.520, 20.537
676.002, 30.806
676.484, 29.247
676.966, 16.739
677.448, 8.206
677.931, 2.363
678.413, 1.752
678.895, 8.361
679.377, 19.213
679.859, 36.078
680.341, 55.419
680.823, 66.351
681.305, 60.950
681.788, 48.576
682.270, 39.880
682.752, 35.102
683.234, 36.946
683.716, 46.399
684.198, 55.330
684.680, 56.717
685.162, 52.929
685.644, 54.960
686.127, 68.969
686.609, 78.791
687.091, 78.904
687.573, 80.454
688.055, 95.706
688.537, 114.472
689.019, 117.371
689.502, 94.149
689.984, 72.317
690.466, 75.684
690.948, 89.423
691.430, 96.183
691.912, 94.323
692.394, 83.827
692.876, 63.339
693.358, 40.482
693.841, 33.793
694.323, 49.076
694.805, 58.721
695.287, 59.377
695.769, 58.302
696.251, 60.069
696.733, 61.977
697.215, 59.337
697.697, 50.269
698.180, 43.739
698.662, 48.237
699.144, 52.422
699.626, 39.193
700.108, 18.321
700.590, 17.565
701.072, 46.546
701.554, 80.087
702.036, 85.553
702.519, 65.621
703.001, 46.031
703.483, 24.624
703.965, 15.335
704.447, 30.139
704.929, 51.894
705.411, 55.463
705.893, 38.242
706.375, 28.464
706.858, 32.588
707.340, 38.017
707.822, 41.548
708.304, 42.967
708.786, 41.832
709.268, 38.719
709.750, 36.642
710.232, 37.961
710.715, 41.309
711.197, 46.067
711.679, 51.292
712.161, 50.854
712.643, 42.875
713.125, 33.568
713.607, 28.067
714.089, 26.503
714.571, 31.225
715.054, 49.622
715.536, 61.129
716.018, 58.408
716.500, 53.032
716.982, 48.891
717.464, 47.970
717.946, 55.720
718.429, 80.639
718.911, 98.477
719.393, 87.126
719.875, 64.324
720.357, 53.596
720.839, 54.677
721.321, 52.989
721.803, 40.073
722.285, 26.920
722.768, 37.936
723.250, 74.499
723.732, 100.736
724.214, 116.572
724.696, 117.160
725.178, 90.805
725.660, 53.912
726.142, 38.319
726.625, 47.926
727.107, 57.777
727.589, 67.325
728.071, 74.576
728.553, 77.871
729.035, 78.665
729.517, 79.310
729.999, 80.098
730.481, 78.717
730.964, 71.205
731.446, 61.672
731.928, 57.571
732.410, 57.987
732.892, 58.509
733.374, 57.936
733.856, 57.302
734.338, 58.116
734.820, 59.717
735.303, 55.834
735.785, 42.013
736.267, 31.953
736.749, 27.097
737.231, 27.209
737.713, 35.809
738.195, 49.207
738.677, 56.478
739.159, 52.468
739.642, 47.955
740.124, 47.856
740.606, 49.432
741.088, 50.471
741.570, 50.609
742.052, 49.657
742.534, 47.498
743.016, 45.025
743.498, 47.311
743.981, 51.585
744.463, 34.025
744.945, 9.589
745.427, 35.179
745.909, 16.456
746.391, 17.770
746.873, 18.950
747.356, 23.391
747.838, 40.749
748.320, 7.482
748.802, 18.449
749.284, 17.772
749.766, 8.087
750.248, 5.351
750.730, 10.908
751.212, 19.002
751.695, 30.172
752.177, 39.551
752.659, 44.178
753.141, 44.118
753.623, 37.369
754.105, 25.171
754.587, 14.360
755.069, 9.907
755.552, 9.754
756.034, 8.631
756.516, 6.360
756.998, 9.623
757.480, 20.802
757.962, 32.158
758.444, 39.569
758.926, 43.714
759.408, 45.938
759.891, 44.430
760.373, 45.484
760.855, 55.817
761.337, 61.259
761.819, 49.605
762.301, 32.831
762.783, 29.286
763.265, 41.411
763.747, 48.004
764.230, 27.173
764.712, 2.305
765.194, 0.603
765.676, 11.924
766.158, 26.500
766.640, 38.922
767.122, 44.644
767.604, 37.990
768.086, 24.554
768.569, 25.241
769.051, 42.352
769.533, 51.290
770.015, 44.859
770.497, 38.709
770.979, 46.613
771.461, 62.394
771.943, 64.582
772.425, 40.301
772.908, 28.715
773.390, 43.011
773.872, 57.957
774.354, 62.204
774.836, 58.721
775.318, 52.012
775.800, 43.180
776.282, 34.348
776.765, 25.567
777.247, 18.440
777.729, 12.315
778.211, 9.651
778.693, 19.371
779.175, 42.135
779.657, 63.773
780.139, 71.934
780.622, 68.586
781.104, 57.379
781.586, 37.281
782.068, 25.927
782.550, 28.544
783.032, 33.620
783.514, 32.254
783.996, 27.303
784.479, 28.631
784.961, 42.397
785.443, 51.200
785.925, 53.198
786.407, 52.260
786.889, 45.077
787.371, 38.241
787.853, 43.862
788.335, 64.380
788.818, 78.622
789.300, 73.687
789.782, 60.498
790.264, 41.506
790.746, 24.006
791.228, 22.282
791.710, 37.122
792.192, 55.376
792.674, 69.698
793.157, 76.316
793.639, 59.904
794.121, 23.298
794.603, 4.422
795.085, 10.663
795.567, 21.278
796.049, 22.527
796.531, 19.286
797.013, 24.777
797.496, 44.498
797.978, 57.067
798.460, 60.945
798.942, 59.443
799.424, 46.615
799.906, 33.455
800.388, 35.761
800.870, 54.676
801.352, 66.770
801.835, 64.099
802.317, 55.001
802.799, 35.441
803.281, 14.894
803.763, 8.749
804.245, 16.693
804.727, 29.250
805.209, 41.671
805.692, 50.842
806.174, 55.473
806.656, 55.105
807.138, 49.030
807.620, 38.712
808.102, 31.528
808.584, 31.352
809.066, 35.006
809.549, 38.792
810.031, 42.970
810.513, 36.002
810.995, 10.349
811.477, 1.424
811.959, 16.699
812.441, 45.015
812.923, 64.457
813.406, 75.081
813.888, 80.411
814.370, 83.661
814.852, 76.781
815.334, 47.735
815.816, 18.881
816.298, 3.567
816.780, 0.695
817.262, 7.601
817.745, 26.595
818.227, 39.810
818.709, 28.410
819.191, 13.736
819.673, 21.273
820.155, 42.027
820.637, 54.003
821.119, 51.154
821.601, 42.362
822.084, 33.970
822.566, 26.820
823.048, 22.392
823.530, 21.113
824.012, 24.706
824.494, 33.836
824.976, 42.399
825.458, 46.144
825.940, 45.875
826.423, 43.472
826.905, 38.165
827.387, 33.397
827.869, 28.097
828.351, 25.600
828.833, 30.559
829.315, 36.943
829.797, 34.573
830.279, 22.540
830.762, 15.340
831.244, 16.488
831.726, 19.322
832.208, 19.183
832.690, 22.083
833.172, 37.618
833.654, 61.179
834.136, 77.338
834.619, 79.355
835.101, 75.136
835.583, 70.117
836.065, 61.750
836.547, 41.615
837.029, 15.948
837.511, 1.594
837.993, 4.322
838.476, 15.461
838.958, 30.661
839.440, 45.204
839.922, 42.100
840.404, 24.828
840.886, 17.795
841.368, 27.721
841.850, 38.073
842.332, 35.263
842.815, 23.713
843.297, 16.544
843.779, 13.389
844.261, 17.796
844.743, 35.701
845.225, 48.734
845.707, 47.598
846.189, 37.363
846.671, 24.102
847.154, 6.646
847.636, 5.655
848.118, 12.697
848.600, 14.755
849.082, 10.289
849.564, 2.206
850.046, 8.643
850.528, 21.003
851.010, 32.240
851.493, 43.449
851.975, 48.864
852.457, 42.868
852.939, 32.333
853.421, 19.797
853.903, 8.554
854.385, 4.349
854.867, 8.522
855.349, 15.868
855.832, 23.843
856.314, 31.038
856.796, 34.574
857.278, 35.521
857.760, 36.618
858.242, 38.474
858.724, 41.847
859.206, 47.702
859.689, 52.973
860.171, 48.405
860.653, 34.734
861.135, 37.994
861.617, 63.084
862.099, 72.878
862.581, 48.857
863.063, 13.969
863.545, 5.190
864.028, 8.427
864.510, 2.135
864.992, 38.584
865.474, 59.987
865.956, 54.158
866.438, 41.044
866.920, 29.617
867.403, 21.222
867.885, 20.208
868.367, 27.238
868.849, 33.403
869.331, 43.473
869.813, 46.566
870.295, 31.299
870.777, 10.763
871.259, 2.842
871.742, 7.192
872.224, 0.956
872.706, 28.239
873.188, 50.024
873.670, 38.467
874.152, 15.478
874.634, 1.874
875.116, 1.316
875.598, 2.519
876.081, 11.963
876.563, 21.421
877.045, 24.842
877.527, 25.389
878.009, 28.085
878.491, 31.858
878.973, 39.784
879.455, 51.342
879.938, 57.876
880.420, 52.666
880.902, 39.901
881.384, 24.422
881.866, 7.573
882.348, 7.479
882.830, 26.203
883.312, 45.102
883.794, 56.798
884.277, 63.110
884.759, 66.520
885.241, 66.848
885.723, 59.342
886.205, 40.588
886.687, 24.501
887.169, 12.126
887.651, 5.128
888.133, 6.724
888.616, 13.559
889.098, 16.411
889.580, 11.298
890.062, 13.573
890.544, 35.361
891.026, 48.903
891.508, 36.994
891.990, 20.400
892.472, 21.745
892.955, 37.988
893.437, 45.212
893.919, 29.806
894.401, 19.380
894.883, 27.592
895.365, 38.131
895.847, 41.706
896.330, 38.353
896.812, 25.654
897.294, 4.069
897.776, 7.339
898.258, 13.473
898.740, 36.705
899.222, 35.711
899.704, 23.861
900.186, 19.868
900.669, 24.225
901.151, 28.003
901.633, 24.432
902.115, 20.795
902.597, 25.449
903.079, 33.854
903.561, 37.030
904.043, 36.476
904.526, 40.092
905.008, 49.068
905.490, 52.311
905.972, 39.108
906.454, 19.404
906.936, 16.148
907.418, 26.687
907.900, 32.360
908.382, 31.367
908.865, 26.119
909.347, 16.905
909.829, 10.292
910.311, 16.570
910.793, 33.554
911.275, 39.949
911.757, 33.349
912.239, 33.746
912.721, 47.402
913.204, 58.854
913.686, 55.759
914.168, 46.160
914.650, 49.801
915.132, 72.182
915.614, 80.427
916.096, 68.413
916.578, 53.866
917.060, 34.934
917.543, 23.076
918.025, 36.241
918.507, 67.388
918.989, 75.641
919.471, 41.774
919.953, 18.002
920.435, 11.832
920.917, 8.026
921.399, 2.916
921.882, 13.234
922.364, 10.524
922.846, 4.596
923.328, 15.561
923.810, 21.063
924.292, 19.538
924.774, 1.563
925.256, 18.420
925.739, 7.560
926.221, 18.465
926.703, 32.814
927.185, 29.066
927.667, 29.783
928.149, 52.813
928.631, 74.386
929.113, 80.496
929.596, 76.340
930.078, 63.873
930.560, 47.953
931.042, 41.107
931.524, 49.557
932.006, 59.641
932.488, 61.153
932.970, 58.917
933.453, 62.540
933.935, 65.155
934.417, 45.285
934.899, 6.344
935.381, 11.567
935.863, 23.182
936.345, 65.692
936.827, 53.553
937.309, 16.019
937.792, 10.505
938.274, 30.695
938.756, 39.899
939.238, 27.510
939.720, 12.660
940.202, 11.886
940.684, 20.512
941.166, 34.512
941.648, 49.980
942.131, 47.588
942.613, 28.387
943.095, 18.616
943.577, 30.289
944.059, 46.422
944.541, 45.250
945.023, 31.481
945.505, 24.091
945.987, 22.503
946.470, 17.778
946.952, 8.249
947.434, 4.072
947.916, 12.173
948.398, 24.565
948.880, 25.763
949.362, 16.532
949.844, 19.781
950.326, 37.641
950.809, 43.901
951.291, 29.501
951.773, 16.905
952.255, 24.954
952.737, 43.467
953.219, 43.655
953.701, 19.665
954.183, 18.462
954.666, 46.799
955.148, 67.026
955.630, 67.701
956.112, 62.879
956.594, 66.225
957.076, 72.911
957.558, 58.432
958.040, 6.198
958.523, 15.416
959.005, 9.174
959.487, 35.046
959.969, 45.931
960.451, 49.942
960.933, 56.023
961.415, 63.726
961.897, 67.710
962.380, 66.552
962.862, 64.576
963.344, 63.351
963.826, 59.233
964.308, 46.405
964.790, 32.772
965.272, 29.836
965.754, 37.932
966.236, 45.017
966.719, 53.213
967.201, 57.125
967.683, 51.622
968.165, 46.866
968.647, 53.992
969.129, 62.502
969.611, 51.210
970.093, 16.080
970.575, 0.992
971.058, 9.362
971.540, 28.975
972.022, 71.955
972.504, 105.819
972.986, 104.224
973.468, 79.999
973.950, 56.395
974.432, 34.496
974.914, 21.510
975.397, 19.323
975.879, 25.305
976.361, 51.441
976.843, 73.809
977.325, 69.447
977.807, 47.810
978.289, 32.844
978.771, 28.719
979.253, 28.102
979.736, 34.834
980.218, 37.723
980.700, 26.198
981.182, 13.661
981.664, 15.108
982.146, 26.237
982.628, 32.433
983.110, 28.248
983.593, 26.576
984.075, 32.569
984.557, 39.000
985.039, 42.704
985.521, 45.258
986.003, 46.912
986.485, 48.528
986.967, 53.116
987.450, 64.356
987.932, 68.158
988.414, 49.900
988.896, 33.395
989.378, 35.150
989.860, 44.332
990.342, 51.315
990.824, 53.434
991.307, 45.654
991.789, 19.971
992.271, 4.115
992.753, 20.341
993.235, 38.173
993.717, 35.291
994.199, 24.989
994.681, 26.124
995.163, 37.961
995.646, 46.753
996.128, 49.297
996.610, 44.677
997.092, 22.239
997.574, 3.382
998.056, 4.597
998.538, 17.383
999.020, 35.408
999.502, 53.866
999.985, 58.746
1000.467, 38.930
1000.949, 20.592
1001.431, 18.490
1001.913, 19.806
1002.395, 13.272
1002.877, 6.009
1003.359, 10.120
1003.841, 24.731
1004.324, 37.065
1004.806, 40.058
1005.288, 44.265
1005.770, 60.426
1006.252, 73.485
1006.734, 72.394
1007.216, 61.425
1007.698, 42.160
1008.181, 18.554
1008.663, 5.953
1009.145, 12.846
1009.627, 24.554
1010.109, 48.242
1010.591, 59.922
1011.073, 24.185
1011.555, 23.143
1012.037, 28.998
1012.520, 5.202
1013.002, 33.261
1013.484, 37.752
1013.966, 37.809
1014.448, 39.327
1014.930, 41.491
1015.412, 44.468
1015.894, 47.314
1016.377, 49.466
1016.859, 51.565
1017.341, 47.002
1017.823, 27.639
1018.305, 16.187
1018.787, 33.987
1019.269, 48.355
1019.751, 29.483
1020.233, 2.541
1020.716, 3.218
1021.198, 28.359
1021.680, 43.628
1022.162, 36.479
1022.644, 27.233
1023.126, 18.004
1023.608, 13.292
1024.090, 21.516
1024.573, 31.354
1025.055, 27.816
1025.537, 13.070
1026.019, 4.281
1026.501, 7.204
1026.983, 12.475
1027.465, 16.585
1027.947, 24.053
1028.429, 46.062
1028.912, 65.460
1029.394, 59.560
1029.876, 34.637
1030.358, 20.595
1030.840, 25.737
1031.322, 31.306
1031.804, 39.825
1032.286, 41.236
1032.769, 22.799
1033.251, 2.979
1033.733, 1.783
1034.215, 6.371
1034.697, 18.666
1035.179, 37.278
1035.661, 51.653
1036.143, 57.954
1036.625, 64.056
1037.108, 82.514
1037.590, 92.237
1038.072, 65.712
1038.554, 18.932
1039.036, 2.828
1039.518, 7.610
1040.000, 21.698
1040.482, 47.999
1040.964, 64.777
1041.447, 67.756
1041.929, 59.299
1042.411, 29.308
1042.893, 5.204
1043.375, 1.882
1043.857, 49.660
1044.339, 73.592
1044.821, 55.032
1045.304, 40.723
1045.786, 41.450
1046.268, 42.727
1046.750, 32.911
1047.232, 21.476
1047.714, 27.837
1048.196, 53.070
1048.678, 61.727
1049.161, 49.957
1049.643, 32.006
1050.125, 2.748
1050.607, 9.070
1051.089, 18.448
1051.571, 56.488
1052.053, 61.986
1052.535, 38.822
1053.017, 24.748
1053.500, 19.956
1053.982, 24.726
1054.464, 41.321
1054.946, 52.287
1055.428, 49.532
1055.910, 39.330
1056.392, 27.924
1056.874, 16.535
1057.356, 11.119
1057.839, 11.407
1058.321, 7.027
1058.803, 2.711
1059.285, 3.944
1059.767, 35.449
1060.249, 59.154
1060.731, 42.319
1061.213, 5.491
1061.696, 4.236
1062.178, 7.503
1062.660, 13.803
1063.142, 15.100
1063.624, 27.568
1064.106, 53.386
1064.588, 65.569
1065.070, 42.123
1065.552, 11.783
1066.035, 24.758
1066.517, 58.733
1066.999, 62.244
1067.481, 43.675
1067.963, 31.483
1068.445, 30.286
1068.927, 29.605
1069.409, 22.655
1069.891, 16.092
1070.374, 16.798
1070.856, 22.330
1071.338, 37.536
1071.820, 53.577
1072.302, 49.583
1072.784, 32.296
1073.266, 32.871
1073.748, 62.278
1074.231, 84.427
1074.713, 69.823
1075.195, 44.018
1075.677, 15.408
1076.159, 5.095
1076.641, 1.049
1077.123, 18.655
1077.605, 37.772
1078.087, 53.521
1078.570, 59.607
1079.052, 42.182
1079.534, 26.671
1080.016, 28.828
1080.498, 32.339
1080.980, 25.144
1081.462, 12.940
1081.944, 1.328
1082.427, 7.794
1082.909, 6.621
1083.391, 12.412
1083.873, 29.806
1084.355, 49.228
1084.837, 58.674
1085.319, 45.777
1085.801, 27.501
1086.283, 18.479
1086.766, 17.139
1087.248, 18.722
1087.730, 25.685
1088.212, 26.461
1088.694, 13.045
1089.176, 10.672
1089.658, 31.343
1090.140, 51.420
1090.622, 53.824
1091.105, 47.706
1091.587, 51.861
1092.069, 66.330
1092.551, 62.726
1093.033, 35.736
1093.515, 32.001
1093.997, 63.466
1094.479, 76.279
1094.962, 41.255
1095.444, 2.685
1095.926, 7.685
1096.408, 14.861
1096.890, 27.425
1097.372, 31.676
1097.854, 36.047
1098.336, 40.412
1098.818, 37.899
1099.301, 27.127
1099.783, 20.841
1100.265, 30.233
1100.747, 43.382
1101.229, 40.997
1101.711, 30.747
1102.193, 27.241
1102.675, 29.571
1103.157, 36.591
1103.640, 45.893
1104.122, 48.406
1104.604, 39.334
1105.086, 30.604
1105.568, 35.664
1106.050, 41.795
1106.532, 29.942
1107.014, 17.501
1107.497, 36.096
1107.979, 70.343
1108.461, 76.393
1108.943, 46.164
1109.425, 21.297
1109.907, 22.384
1110.389, 27.733
1110.871, 33.478
1111.354, 36.096
1111.836, 25.756
1112.318, 15.735
1112.800, 29.252
1113.282, 62.674
1113.764, 78.887
1114.246, 61.748
1114.728, 53.691
1115.210, 65.138
1115.693, 71.499
1116.175, 65.161
1116.657, 52.451
1117.139, 33.500
1117.621, 16.039
1118.103, 21.089
1118.585, 51.188
1119.067, 65.904
1119.549, 62.096
1120.032, 59.287
1120.514, 61.179
1120.996, 56.480
1121.478, 37.683
1121.960, 20.622
1122.442, 26.735
1122.924, 47.089
1123.406, 52.848
1123.889, 45.929
1124.371, 34.679
1124.853, 20.938
1125.335, 9.634
1125.817, 2.750
1126.299, 5.016
1126.781, 21.700
1127.263, 38.743
1127.745, 35.755
1128.228, 24.641
1128.710, 19.153
1129.192, 20.557
1129.674, 36.732
1130.156, 60.538
1130.638, 66.855
1131.120, 45.109
1131.602, 26.775
1132.084, 31.284
1132.567, 41.908
1133.049, 58.816
1133.531, 68.751
1134.013, 57.782
1134.495, 35.104
1134.977, 7.667
1135.459, 22.626
1135.941, 34.948
1136.424, 16.516
1136.906, 1.994
1137.388, 21.909
1137.870, 36.614
1138.352, 43.973
1138.834, 45.157
1139.316, 36.675
1139.798, 26.417
1140.281, 34.526
1140.763, 63.416
1141.245, 77.897
1141.727, 75.946
1142.209, 67.650
1142.691, 52.974
1143.173, 46.641
1143.655, 56.808
1144.137, 63.541
1144.620, 41.389
1145.102, 6.972
1145.584, 2.773
1146.066, 21.294
1146.548, 43.907
1147.030, 64.902
1147.512, 66.185
1147.994, 47.166
1148.476, 28.599
1148.959, 21.401
1149.441, 21.910
1149.923, 32.863
1150.405, 43.716
1150.887, 42.291
1151.369, 35.953
1151.851, 32.594
1152.333, 32.705
1152.816, 37.697
1153.298, 46.778
1153.780, 45.396
1154.262, 17.094
1154.744, 2.729
1155.226, 3.006
1155.708, 3.924
1156.190, 16.868
1156.672, 30.515
1157.155, 42.176
1157.637, 49.893
1158.119, 46.529
1158.601, 29.323
1159.083, 15.501
1159.565, 2.615
1160.047, 5.352
1160.529, 29.774
1161.011, 52.363
1161.494, 61.384
1161.976, 59.936
1162.458, 50.242
1162.940, 35.494
1163.422, 21.812
1163.904, 11.405
1164.386, 17.247
1164.868, 35.554
1165.351, 49.077
1165.833, 53.697
1166.315, 52.180
1166.797, 45.549
1167.279, 38.532
1167.761, 37.035
1168.243, 35.382
1168.725, 24.065
1169.208, 12.779
1169.690, 13.197
1170.172, 22.733
1170.654, 37.380
1171.136, 55.057
1171.618, 60.939
1172.100, 43.109
1172.582, 26.874
1173.064, 14.540
1173.547, 7.245
1174.029, 3.569
1174.511, 7.379
1174.993, 24.983
1175.475, 50.142
1175.957, 70.173
1176.439, 85.457
1176.921, 79.253
1177.403, 47.963
1177.886, 27.811
1178.368, 23.695
1178.850, 25.797
1179.332, 30.320
1179.814, 34.334
1180.296, 35.150
1180.778, 33.689
1181.260, 27.414
1181.743, 22.347
1182.225, 36.723
1182.707, 60.741
1183.189, 71.767
1183.671, 68.589
1184.153, 59.982
1184.635, 49.111
1185.117, 42.116
1185.599, 48.953
1186.082, 51.808
1186.564, 38.314
1187.046, 21.428
1187.528, 2.611
1188.010, 8.884
1188.492, 3.178
1188.974, 33.682
1189.456, 53.495
1189.938, 62.479
1190.421, 59.434
1190.903, 39.939
1191.385, 18.351
1191.867, 7.281
1192.349, 12.707
1192.831, 21.119
1193.313, 61.293
1193.795, 71.510
1194.278, 61.047
1194.760, 45.728
1195.242, 27.855
1195.724, 20.850
1196.206, 23.374
1196.688, 28.404
1197.170, 34.147
1197.652, 43.356
1198.135, 57.545
1198.617, 61.581
1199.099, 29.500
1199.581, 3.238
1200.063, 22.157
1200.545, 52.262
1201.027, 69.365
1201.509, 72.875
1201.991, 57.445
1202.474, 28.749
1202.956, 20.867
1203.438, 49.593
1203.920, 67.240
1204.402, 70.279
1204.884, 69.429
1205.366, 67.265
1205.848, 59.280
1206.330, 41.450
1206.813, 21.497
1207.295, 8.274
1207.777, 1.926
1208.259, 4.337
1208.741, 13.911
1209.223, 26.201
1209.705, 38.188
1210.187, 34.815
1210.670, 17.469
1211.152, 9.886
1211.634, 23.318
1212.116, 38.475
1212.598, 38.793
1213.080, 36.534
1213.562, 39.593
1214.044, 45.248
1214.526, 56.613
1215.009, 66.250
1215.491, 62.166
1215.973, 46.444
1216.455, 33.177
1216.937, 20.161
1217.419, 20.790
1217.901, 43.337
1218.383, 57.322
1218.865, 54.567
1219.348, 54.556
1219.830, 67.755
1220.312, 81.641
1220.794, 82.296
1221.276, 74.943
1221.758, 73.600
1222.240, 74.640
1222.722, 61.289
1223.205, 40.095
1223.687, 34.005
1224.169, 42.410
1224.651, 48.642
1225.133, 46.377
1225.615, 41.043
1226.097, 35.681
1226.579, 28.526
1227.062, 12.279
1227.544, 1.351
1228.026, 9.159
1228.508, 23.758
1228.990, 30.149
1229.472, 33.617
1229.954, 52.472
1230.436, 89.494
1230.918, 94.600
1231.401, 61.706
1231.883, 42.783
1232.365, 44.046
1232.847, 43.105
1233.329, 33.000
1233.811, 29.218
1234.293, 41.630
1234.775, 55.727
1235.257, 45.422
1235.740, 27.044
1236.222, 30.235
1236.704, 42.704
1237.186, 46.071
1237.668, 40.967
1238.150, 31.695
1238.632, 20.870
1239.114, 17.298
1239.597, 27.356
1240.079, 35.235
1240.561, 33.617
1241.043, 34.823
1241.525, 46.663
1242.007, 56.508
1242.489, 58.194
1242.971, 52.123
1243.453, 35.116
1243.936, 14.327
1244.418, 25.457
1244.900, 62.383
1245.382, 59.281
1245.864, 24.133
1246.346, 16.415
1246.828, 40.785
1247.310, 59.046
1247.792, 55.167
1248.275, 39.214
1248.757, 5.890
1249.239, 14.888
1249.721, 11.313
1250.203, 42.579
1250.685, 43.962
1251.167, 37.132
1251.649, 52.083
1252.132, 77.108
1252.614, 75.233
1253.096, 44.797
1253.578, 29.625
1254.060, 35.331
1254.542, 26.990
1255.024, 1.280
1255.506, 6.485
1255.989, 24.530
1256.471, 50.368
1256.953, 43.181
1257.435, 28.834
1257.917, 44.669
1258.399, 67.287
1258.881, 59.432
1259.363, 38.855
1259.845, 23.530
1260.328, 16.787
1260.810, 24.385
1261.292, 42.223
1261.774, 49.289
1262.256, 51.909
1262.738, 53.827
1263.220, 58.065
1263.702, 57.587
1264.184, 48.505
1264.667, 36.271
1265.149, 39.353
1265.631, 40.990
1266.113, 30.617
1266.595, 16.526
1267.077, 16.970
1267.559, 26.375
1268.041, 23.152
1268.524, 14.392
1269.006, 24.237
1269.488, 44.740
1269.970, 42.019
1270.452, 14.536
1270.934, 1.079
1271.416, 13.080
1271.898, 25.514
1272.380, 12.551
1272.863, 3.754
1273.345, 0.000
##END=



