##NAMES=Rhodarsenide
##RRUFFID=R070074
##IDEAL CHEMISTRY=Rh_2_As
##LOCALITY=Miass River, Urals, Russia
##OWNER=RRUFF
##SOURCE=Michael Scott
##DESCRIPTION=Dark gray metallic inclusion in sperrylite and Os,Ir,Ru matrix. The sample is a polished fragment embedded in epoxy
##STATUS=The identification of this mineral has been confirmed only by chemical analysis
##URL=rruff.info/R070074
##MEASURED CHEMISTRY=dark inclusion in the gray phase: (Rh_1.52_Pt_0.19_Pd_0.17_Ni_0.10_Ru_0.01_Cu_0.01_)_Î£=2_As_1.00_
181.0925, 0.0000000E+00
181.5746, 4.6386998E-02
182.0567, 15.87305
182.5389, 44.97192
183.0210, 70.26929
183.5031, 108.2346
183.9852, 101.4153
184.4673, 72.27710
184.9494, 23.00244
185.4316, 0.2839360
185.9137, 5.477539
186.3958, 15.60620
186.8779, 90.05591
187.3600, 204.3079
187.8421, 310.2651
188.3243, 375.1726
188.8064, 397.5974
189.2885, 405.0181
189.7706, 405.7209
190.2527, 390.2410
190.7348, 337.7483
191.2170, 253.7800
191.6991, 165.9246
192.1812, 100.5891
192.6633, 58.63989
193.1454, 45.12036
193.6275, 53.74097
194.1097, 88.87476
194.5918, 178.9612
195.0739, 306.8384
195.5560, 419.9543
196.0381, 477.6731
196.5202, 477.8550
197.0024, 451.5068
197.4845, 376.9563
197.9666, 300.1489
198.4487, 232.6455
198.9308, 178.7546
199.4129, 143.6736
199.8951, 132.3833
200.3772, 143.8523
200.8593, 162.0161
201.3414, 188.4626
201.8235, 218.1750
202.3056, 260.8354
202.7878, 307.7786
203.2699, 336.7549
203.7520, 330.8674
204.2341, 296.1450
204.7162, 267.1306
205.1983, 234.5945
205.6805, 211.1256
206.1626, 209.8182
206.6447, 221.7764
207.1268, 226.4547
207.6089, 210.4961
208.0910, 180.2058
208.5732, 167.8217
209.0553, 177.1422
209.5374, 179.4235
210.0195, 175.7257
210.5016, 167.5422
210.9837, 154.8492
211.4659, 138.0864
211.9480, 121.8435
212.4301, 119.9742
212.9122, 143.7118
213.3943, 166.1454
213.8764, 182.3694
214.3586, 195.2561
214.8407, 211.9899
215.3228, 236.2332
215.8049, 262.4026
216.2870, 277.3356
216.7691, 277.0956
217.2513, 270.3694
217.7334, 252.4775
218.2155, 231.4938
218.6976, 216.8552
219.1797, 211.6439
219.6618, 212.7416
220.1440, 215.4082
220.6261, 221.8743
221.1082, 226.3589
221.5903, 231.9907
222.0724, 234.1835
222.5546, 226.2875
223.0367, 206.8480
223.5188, 181.1698
224.0009, 155.3081
224.4830, 127.7987
224.9651, 105.7598
225.4473, 95.08862
225.9294, 86.13159
226.4115, 68.00537
226.8936, 40.91675
227.3757, 17.08423
227.8578, 10.65686
228.3400, 27.28687
228.8221, 38.38440
229.3042, 42.90027
229.7863, 43.14014
230.2684, 39.67505
230.7505, 33.01953
231.2327, 24.92493
231.7148, 16.97131
232.1969, 9.130493
232.6790, 2.012939
233.1611, 3.576050
233.6432, 8.963501
234.1254, 15.08630
234.6075, 21.94019
235.0896, 29.63098
235.5717, 39.15613
236.0538, 50.23425
236.5359, 51.68884
237.0181, 34.00403
237.5002, 18.71082
237.9823, 12.66077
238.4644, 13.73291
238.9465, 9.930542
239.4286, 7.180664
239.9108, 4.211426
240.3929, 4.121216
240.8750, 21.01599
241.3571, 39.36304
241.8392, 65.02844
242.3213, 89.80444
242.8035, 100.8256
243.2856, 92.23792
243.7677, 72.53491
244.2498, 63.67517
244.7319, 80.68713
245.2140, 88.63599
245.6962, 77.27332
246.1783, 61.72620
246.6604, 56.78284
247.1425, 66.71143
247.6246, 83.91711
248.1067, 95.86804
248.5889, 97.67944
249.0710, 103.8052
249.5531, 116.5110
250.0352, 131.0186
250.5173, 142.5365
250.9994, 151.4636
251.4816, 163.9856
251.9637, 188.7007
252.4458, 231.4379
252.9279, 263.7971
253.4100, 283.9443
253.8921, 296.8690
254.3743, 304.5742
254.8564, 307.0393
255.3385, 302.6708
255.8206, 288.8302
256.3027, 265.1786
256.7849, 246.6613
257.2670, 234.6261
257.7491, 227.0639
258.2312, 227.7459
258.7133, 232.5061
259.1954, 233.3734
259.6776, 224.2130
260.1597, 208.6107
260.6418, 205.4633
261.1239, 231.3527
261.6060, 247.1365
262.0881, 237.3640
262.5703, 216.9841
263.0524, 203.2632
263.5345, 204.2441
264.0166, 214.0592
264.4987, 219.5721
264.9808, 217.3262
265.4630, 218.1570
265.9451, 226.3967
266.4272, 236.3651
266.9093, 243.8052
267.3914, 247.6440
267.8735, 249.6557
268.3557, 252.0383
268.8378, 254.9839
269.3199, 257.2322
269.8020, 255.5214
270.2841, 255.7400
270.7662, 263.9760
271.2484, 278.9507
271.7305, 291.4518
272.2126, 291.8492
272.6947, 280.6279
273.1768, 271.3481
273.6589, 263.8832
274.1411, 259.4120
274.6232, 260.2549
275.1053, 264.3356
275.5874, 266.1483
276.0695, 260.1215
276.5516, 249.8768
277.0338, 247.9222
277.5159, 259.1336
277.9980, 267.3209
278.4801, 260.3304
278.9622, 246.1966
279.4443, 236.0258
279.9265, 234.4491
280.4086, 236.7746
280.8907, 237.4623
281.3728, 236.4768
281.8549, 233.7789
282.3370, 226.8835
282.8192, 219.5272
283.3013, 217.6719
283.7834, 224.1476
284.2655, 228.2537
284.7476, 217.8185
285.2297, 195.9727
285.7119, 181.6611
286.1940, 182.1125
286.6761, 190.6531
287.1582, 201.8381
287.6403, 216.2620
288.1224, 223.0857
288.6046, 212.7188
289.0867, 192.9977
289.5688, 177.2643
290.0509, 167.5400
290.5330, 161.4362
291.0151, 156.4384
291.4973, 152.7925
291.9794, 154.0585
292.4615, 169.4646
292.9436, 183.9023
293.4257, 180.3257
293.9078, 159.7394
294.3900, 141.1219
294.8721, 138.8137
295.3542, 150.3034
295.8363, 157.0812
296.3184, 157.1486
296.8005, 154.4901
297.2827, 147.3088
297.7648, 138.5029
298.2469, 135.6967
298.7290, 142.9470
299.2111, 155.4598
299.6932, 161.2908
300.1754, 154.1994
300.6575, 150.0128
301.1396, 149.2834
301.6217, 152.4185
302.1038, 162.6565
302.5859, 180.1616
303.0680, 197.3052
303.5501, 203.7078
304.0323, 195.2253
304.5144, 188.0314
304.9965, 181.0842
305.4786, 176.6938
305.9607, 176.6910
306.4428, 180.1729
306.9250, 184.8849
307.4071, 189.3074
307.8892, 193.3806
308.3713, 195.8319
308.8534, 195.0680
309.3355, 194.3951
309.8177, 195.1442
310.2998, 196.5582
310.7819, 197.8281
311.2640, 198.5917
311.7461, 197.1257
312.2282, 187.1930
312.7104, 160.5851
313.1925, 142.2420
313.6746, 138.5752
314.1567, 141.2544
314.6388, 145.7305
315.1209, 150.5060
315.6031, 153.4722
316.0852, 150.7321
316.5673, 141.3217
317.0494, 136.1356
317.5315, 139.6776
318.0136, 144.0613
318.4958, 146.7164
318.9779, 147.1115
319.4600, 143.7035
319.9421, 133.0290
320.4242, 117.7556
320.9063, 106.5027
321.3885, 100.1163
321.8706, 96.03473
322.3527, 94.10651
322.8348, 93.24805
323.3169, 91.92511
323.7990, 89.23737
324.2812, 86.81543
324.7633, 85.95587
325.2454, 86.67407
325.7275, 90.13196
326.2096, 99.46344
326.6917, 109.1083
327.1739, 110.2682
327.6560, 101.3269
328.1381, 91.85852
328.6202, 84.77789
329.1023, 80.30847
329.5844, 80.12610
330.0666, 85.19550
330.5487, 89.89996
331.0308, 87.51404
331.5129, 77.47491
331.9950, 69.29504
332.4771, 61.22351
332.9593, 57.05969
333.4414, 62.48407
333.9235, 75.46783
334.4056, 86.64044
334.8877, 89.45703
335.3698, 85.53998
335.8520, 85.21387
336.3341, 93.36395
336.8162, 98.60107
337.2983, 93.29724
337.7804, 85.51947
338.2625, 88.18640
338.7447, 105.5730
339.2268, 127.7655
339.7089, 137.6613
340.1910, 128.9440
340.6731, 120.3190
341.1552, 108.0000
341.6374, 98.91010
342.1195, 98.06335
342.6016, 104.8383
343.0837, 115.2852
343.5658, 127.3709
344.0479, 140.8689
344.5301, 148.0960
345.0122, 144.7579
345.4943, 140.0517
345.9764, 136.5253
346.4585, 133.9550
346.9406, 131.1405
347.4228, 129.7816
347.9049, 128.1837
348.3870, 122.2924
348.8691, 110.9828
349.3512, 100.3885
349.8333, 90.06293
350.3155, 82.72467
350.7976, 81.90936
351.2797, 87.66077
351.7618, 93.33337
352.2439, 94.01971
352.7260, 90.85822
353.2082, 87.97241
353.6903, 86.28424
354.1724, 83.55585
354.6545, 77.58972
355.1366, 69.08545
355.6187, 59.53101
356.1009, 45.21881
356.5830, 32.96082
357.0651, 31.55487
357.5472, 39.30969
358.0293, 43.91064
358.5114, 38.50177
358.9936, 27.01764
359.4757, 20.46808
359.9578, 21.46771
360.4399, 21.30212
360.9220, 17.53522
361.4041, 11.42249
361.8863, 3.412231
362.3684, 6.122559
362.8505, 14.24365
363.3326, 17.24756
363.8147, 13.88867
364.2968, 11.30713
364.7790, 10.62781
365.2611, 9.537048
365.7432, 5.525696
366.2253, 0.2327270
366.7074, 1.900574
367.1895, 2.298706
367.6717, 10.12506
368.1538, 10.89563
368.6359, 1.398254
369.1180, 11.30170
369.6001, 14.43225
370.0822, 16.12732
370.5644, 21.89172
371.0465, 32.50818
371.5286, 43.02197
372.0107, 46.93646
372.4928, 43.80682
372.9749, 43.79218
373.4571, 52.74261
373.9392, 57.94525
374.4213, 46.88824
374.9034, 27.24115
375.3855, 18.09692
375.8676, 35.42004
376.3498, 62.05267
376.8319, 68.61353
377.3140, 53.52228
377.7961, 40.00269
378.2782, 37.83801
378.7603, 42.73358
379.2425, 47.48889
379.7246, 52.07819
380.2067, 56.97632
380.6888, 65.15582
381.1709, 73.45715
381.6530, 74.01611
382.1352, 64.65924
382.6173, 54.36420
383.0994, 52.52679
383.5815, 60.31171
384.0636, 66.44238
384.5457, 70.62518
385.0279, 73.39996
385.5100, 75.95703
385.9921, 77.17944
386.4742, 73.62494
386.9563, 63.29633
387.4384, 49.80756
387.9206, 42.75970
388.4027, 46.85516
388.8848, 49.25940
389.3669, 48.84888
389.8490, 47.74860
390.3311, 47.07288
390.8133, 47.20648
391.2954, 48.58716
391.7775, 52.42426
392.2596, 58.67474
392.7417, 61.21655
393.2238, 59.26489
393.7060, 54.30847
394.1881, 45.13513
394.6702, 34.13824
395.1523, 22.38129
395.6344, 7.277893
396.1165, 0.7149660
396.5987, 30.71948
397.0808, 97.67279
397.5629, 132.9274
398.0450, 104.8755
398.5271, 54.20331
399.0092, 21.88409
399.4914, 7.422302
399.9735, 1.457642
400.4556, 4.918213
400.9377, 12.65936
401.4198, 20.65021
401.9019, 28.20209
402.3841, 27.29767
402.8662, 8.231628
403.3483, 22.79578
403.8304, 33.39398
404.3125, 4.907837
404.7946, 18.49377
405.2768, 21.04834
405.7589, 13.79321
406.2410, 10.31897
406.7231, 14.65088
407.2052, 24.03412
407.6873, 36.07697
408.1695, 53.53229
408.6516, 61.66479
409.1337, 55.26050
409.6158, 45.68744
410.0979, 32.69214
410.5800, 20.34894
411.0622, 16.39331
411.5443, 26.24573
412.0264, 43.13074
412.5085, 50.46924
412.9906, 45.23724
413.4727, 40.17670
413.9549, 37.47284
414.4370, 36.47601
414.9191, 37.15344
415.4012, 39.46820
415.8833, 42.82532
416.3654, 48.00391
416.8476, 53.72961
417.3297, 57.42169
417.8118, 59.29553
418.2939, 58.11041
418.7760, 49.32611
419.2581, 36.66217
419.7403, 31.35608
420.2224, 38.89514
420.7045, 46.72418
421.1866, 50.34662
421.6687, 50.28296
422.1508, 45.31250
422.6330, 34.90527
423.1151, 25.26337
423.5972, 25.36188
424.0793, 39.13165
424.5614, 45.86810
425.0435, 40.53546
425.5257, 33.52728
426.0078, 29.32867
426.4899, 27.83960
426.9720, 26.75201
427.4541, 24.76062
427.9362, 22.86444
428.4184, 23.77985
428.9005, 28.42004
429.3826, 33.63251
429.8647, 43.97748
430.3468, 50.91150
430.8289, 46.65735
431.3111, 32.32477
431.7932, 17.67761
432.2753, 9.464478
432.7574, 6.074341
433.2395, 3.149292
433.7216, 0.7426760
434.2038, 1.404968
434.6859, 4.160339
435.1680, 6.304199
435.6501, 5.261292
436.1322, 1.009399
436.6143, 6.111511
437.0965, 6.797363
437.5786, 4.312561
438.0607, 8.5083000E-02
438.5428, 6.151855
439.0249, 11.62695
439.5070, 14.14319
439.9892, 13.53015
440.4713, 11.77673
440.9534, 9.957275
441.4355, 5.490540
441.9176, 7.245544
442.3997, 21.83746
442.8819, 27.98627
443.3640, 21.73438
443.8461, 9.012390
444.3282, 1.256470
444.8103, 9.830872
445.2924, 13.05054
445.7746, 6.858948
446.2567, 1.452026
446.7388, 9.892273
447.2209, 17.91138
447.7030, 24.80365
448.1852, 30.86078
448.6673, 34.99707
449.1494, 34.81934
449.6315, 30.20941
450.1136, 24.75989
450.5957, 18.13171
451.0779, 13.18066
451.5600, 15.21362
452.0421, 25.48889
452.5242, 32.32129
453.0063, 28.83929
453.4884, 22.46985
453.9706, 21.80542
454.4527, 26.64032
454.9348, 29.98206
455.4169, 26.63019
455.8990, 18.87390
456.3811, 17.36902
456.8633, 32.54449
457.3454, 40.76318
457.8275, 33.67694
458.3096, 23.84052
458.7917, 23.44318
459.2738, 33.00739
459.7560, 42.96606
460.2381, 43.67065
460.7202, 36.07166
461.2023, 30.71729
461.6844, 30.22150
462.1665, 30.15234
462.6487, 25.62311
463.1308, 19.60785
463.6129, 15.65967
464.0950, 14.59570
464.5771, 15.11707
465.0592, 17.10254
465.5414, 19.83966
466.0235, 19.74011
466.5056, 15.17773
466.9877, 14.94482
467.4698, 29.94818
467.9519, 58.49524
468.4341, 73.76422
468.9162, 68.39246
469.3983, 58.62073
469.8804, 48.24896
470.3625, 38.13531
470.8446, 29.26862
471.3268, 22.04846
471.8089, 17.06934
472.2910, 15.41418
472.7731, 17.69806
473.2552, 20.13214
473.7373, 26.95294
474.2195, 29.39081
474.7016, 19.28864
475.1837, 4.372925
475.6658, 2.165833
476.1479, 5.957336
476.6300, 19.03650
477.1122, 24.79510
477.5943, 23.51886
478.0764, 20.93652
478.5585, 17.52051
479.0406, 14.01105
479.5227, 11.14191
480.0049, 8.775940
480.4870, 6.542969
480.9691, 3.999939
481.4512, 1.704346
481.9333, 0.9570920
482.4154, 2.855347
482.8976, 0.2991940
483.3797, 8.427246
483.8618, 18.97302
484.3439, 24.13239
484.8260, 21.30713
485.3081, 20.65369
485.7903, 24.88635
486.2724, 28.30396
486.7545, 27.82086
487.2366, 24.58423
487.7187, 20.96320
488.2008, 18.02832
488.6830, 15.92969
489.1651, 15.18079
489.6472, 15.94531
490.1293, 16.26031
490.6114, 13.55170
491.0935, 13.05237
491.5757, 20.89124
492.0578, 35.74579
492.5399, 47.97131
493.0220, 50.74689
493.5041, 50.13483
493.9862, 54.81232
494.4684, 62.24561
494.9505, 62.62695
495.4326, 51.45886
495.9147, 34.26184
496.3968, 19.48254
496.8789, 5.657898
497.3611, 4.7545999E-02
497.8432, 8.856812
498.3253, 19.30615
498.8074, 26.99677
499.2895, 31.16327
499.7716, 30.57214
500.2538, 23.61981
500.7359, 14.63062
501.2180, 12.51263
501.7001, 18.45282
502.1822, 23.92145
502.6643, 26.78186
503.1465, 29.96570
503.6286, 38.63287
504.1107, 50.27100
504.5928, 55.12317
505.0749, 44.53101
505.5570, 30.26099
506.0392, 24.29688
506.5213, 24.52875
507.0034, 21.98340
507.4855, 12.92572
507.9676, 3.211975
508.4497, 1.255981
508.9319, 9.327209
509.4140, 16.75769
509.8961, 25.92871
510.3782, 32.08966
510.8603, 31.18994
511.3424, 26.17505
511.8246, 22.42920
512.3067, 22.28741
512.7888, 23.11969
513.2709, 19.81769
513.7531, 11.44019
514.2352, 7.191467
514.7173, 10.22461
515.1994, 14.41583
515.6815, 15.17267
516.1636, 14.26953
516.6458, 16.03851
517.1279, 23.58673
517.6100, 31.31946
518.0921, 35.59467
518.5742, 36.88251
519.0563, 34.85687
519.5385, 28.28607
520.0206, 21.26056
520.5027, 18.29388
520.9848, 19.75549
521.4669, 23.70764
521.9490, 35.04395
522.4312, 42.94165
522.9133, 43.64868
523.3954, 39.47064
523.8775, 31.61505
524.3596, 21.01794
524.8417, 12.19611
525.3239, 12.16968
525.8060, 20.32745
526.2881, 22.16089
526.7702, 12.68073
527.2523, 7.303772
527.7344, 21.33124
528.2166, 42.39740
528.6987, 51.38177
529.1808, 42.40411
529.6629, 31.99658
530.1450, 29.24261
530.6271, 29.93549
531.1093, 26.91449
531.5914, 19.73828
532.0735, 13.75940
532.5556, 13.11346
533.0377, 17.06586
533.5198, 22.10156
534.0020, 33.94879
534.4841, 40.05884
534.9662, 34.61279
535.4483, 26.64551
535.9304, 24.11835
536.4125, 26.70831
536.8947, 27.60388
537.3768, 20.01221
537.8589, 8.360718
538.3410, 4.515930
538.8231, 9.263367
539.3052, 13.32562
539.7874, 13.02686
540.2695, 10.81183
540.7516, 10.23761
541.2337, 11.48840
541.7158, 13.42102
542.1979, 17.64178
542.6801, 20.78156
543.1622, 18.64679
543.6443, 13.36304
544.1264, 10.50537
544.6085, 12.64581
545.0906, 17.96637
545.5728, 23.64941
546.0549, 30.66321
546.5370, 34.81525
547.0191, 36.29730
547.5012, 34.43829
547.9833, 27.80347
548.4655, 17.88525
548.9476, 5.913269
549.4297, 10.33728
549.9117, 20.64832
550.3939, 9.403198
550.8760, 15.94263
551.3581, 31.25122
551.8402, 31.54633
552.3223, 26.82202
552.8044, 25.39252
553.2866, 26.79303
553.7687, 24.02637
554.2508, 10.67926
554.7329, 1.818726
555.2150, 2.754211
555.6971, 8.692444
556.1793, 14.67346
556.6614, 19.68445
557.1435, 25.03503
557.6256, 33.06702
558.1077, 41.88672
558.5898, 41.76300
559.0720, 29.00818
559.5541, 22.43842
560.0362, 34.71124
560.5183, 50.74463
561.0004, 50.97119
561.4825, 34.78693
561.9647, 23.82684
562.4468, 27.90930
562.9289, 35.91986
563.4110, 41.11487
563.8931, 42.76318
564.3752, 39.22766
564.8574, 29.61279
565.3395, 18.45447
565.8216, 13.92432
566.3037, 18.58850
566.7858, 20.62610
567.2679, 12.89429
567.7501, 9.929932
568.2322, 23.07568
568.7143, 42.08087
569.1964, 49.85864
569.6785, 39.83594
570.1606, 27.36292
570.6428, 27.10504
571.1249, 34.98212
571.6070, 39.82117
572.0891, 40.13110
572.5712, 39.69067
573.0533, 41.08899
573.5355, 43.68762
574.0176, 44.75604
574.4997, 49.31537
574.9818, 45.47137
575.4639, 22.50525
575.9460, 1.456909
576.4282, 12.50787
576.9103, 11.29034
577.3924, 5.654236
577.8745, 0.1901860
578.3566, 5.935852
578.8387, 15.92841
579.3209, 30.38580
579.8030, 40.01575
580.2851, 42.27142
580.7672, 40.10773
581.2493, 33.70081
581.7314, 24.36304
582.2136, 19.18378
582.6957, 24.06866
583.1778, 27.78949
583.6599, 23.02478
584.1420, 14.34058
584.6241, 8.573486
585.1063, 7.194031
585.5884, 7.225525
586.0705, 4.813110
586.5526, 0.6461180
587.0347, 3.342163
587.5168, 16.90063
587.9990, 29.20496
588.4811, 37.77472
588.9632, 42.95978
589.4453, 44.20367
589.9274, 41.62939
590.4095, 37.88660
590.8917, 31.77661
591.3738, 26.84174
591.8559, 28.79443
592.3380, 35.61584
592.8201, 39.55750
593.3022, 37.60712
593.7844, 32.25372
594.2665, 26.61194
594.7486, 19.71075
595.2307, 17.98199
595.7128, 25.44672
596.1949, 31.83734
596.6771, 34.18311
597.1592, 34.94452
597.6413, 37.53827
598.1234, 42.78046
598.6055, 48.23474
599.0876, 52.93988
599.5698, 56.18463
600.0519, 56.04572
600.5340, 52.46661
601.0161, 46.82855
601.4982, 38.44153
601.9803, 30.80243
602.4625, 32.24280
602.9446, 51.37732
603.4267, 59.76562
603.9088, 48.42426
604.3909, 35.60492
604.8730, 30.03119
605.3552, 29.85260
605.8373, 31.30261
606.3194, 33.03882
606.8015, 33.26910
607.2836, 26.73468
607.7657, 15.52167
608.2479, 13.10376
608.7300, 22.08594
609.2121, 32.26172
609.6942, 39.18951
610.1763, 43.07910
610.6584, 43.41486
611.1406, 38.83087
611.6227, 32.20099
612.1048, 18.81799
612.5869, 7.568909
613.0690, 7.050659
613.5511, 14.69128
614.0333, 22.39105
614.5154, 26.04980
614.9975, 27.61829
615.4796, 30.83600
615.9617, 35.71777
616.4438, 38.01624
616.9260, 37.57764
617.4081, 33.63257
617.8902, 23.09259
618.3723, 8.857544
618.8544, 0.7461550
619.3365, 7.251587
619.8187, 5.869324
620.3008, 14.46497
620.7829, 36.55243
621.2650, 42.17365
621.7471, 33.13654
622.2292, 22.68658
622.7114, 18.79816
623.1935, 18.64539
623.6756, 14.95197
624.1577, 6.466003
624.6398, 5.122314
625.1219, 17.96826
625.6041, 29.54510
626.0862, 25.09131
626.5683, 11.60962
627.0504, 5.697815
627.5325, 13.83533
628.0146, 21.71625
628.4968, 21.08594
628.9789, 18.60950
629.4610, 23.28070
629.9431, 34.46277
630.4252, 44.63818
630.9073, 48.96533
631.3895, 48.76624
631.8716, 46.55487
632.3537, 41.36749
632.8358, 39.33112
633.3179, 41.94525
633.8000, 45.72131
634.2822, 49.49634
634.7643, 52.95728
635.2464, 53.23431
635.7285, 46.80383
636.2106, 42.54266
636.6927, 46.98700
637.1749, 54.43427
637.6570, 59.11975
638.1391, 59.79370
638.6212, 55.08594
639.1033, 43.30554
639.5854, 28.80579
640.0676, 22.63855
640.5497, 28.11755
641.0318, 29.53925
641.5139, 20.89392
641.9960, 13.40784
642.4781, 16.89807
642.9603, 26.41309
643.4424, 30.17438
643.9245, 23.19171
644.4066, 16.12305
644.8887, 14.76483
645.3708, 16.11377
645.8530, 15.86841
646.3351, 14.26355
646.8172, 14.94098
647.2993, 20.43719
647.7814, 28.58917
648.2635, 34.58667
648.7457, 38.50555
649.2278, 39.79718
649.7099, 37.53485
650.1920, 33.79297
650.6741, 30.56525
651.1563, 26.65234
651.6384, 18.53711
652.1205, 1.968750
652.6026, 9.610046
653.0847, 7.585938
653.5668, 0.3923340
654.0490, 6.082947
654.5311, 9.637878
655.0132, 16.60120
655.4953, 30.50763
655.9774, 45.17810
656.4595, 46.44897
656.9417, 31.69336
657.4238, 24.68420
657.9059, 31.80310
658.3880, 38.04309
658.8701, 33.12817
659.3522, 22.26691
659.8344, 13.53906
660.3165, 6.674561
660.7986, 4.757874
661.2807, 11.82947
661.7628, 21.88330
662.2449, 32.24457
662.7271, 40.82312
663.2092, 43.48883
663.6913, 38.32977
664.1734, 28.74164
664.6555, 17.85791
665.1376, 5.584534
665.6198, 2.409180
666.1019, 13.14734
666.5840, 20.02032
667.0661, 10.11542
667.5482, 6.625977
668.0303, 10.63824
668.5125, 0.4962770
668.9946, 12.03766
669.4767, 24.47650
669.9588, 33.37036
670.4409, 33.25690
670.9230, 28.14789
671.4052, 26.53241
671.8873, 30.91327
672.3694, 35.88324
672.8515, 34.93378
673.3336, 29.18719
673.8157, 24.47308
674.2979, 20.78522
674.7800, 18.22742
675.2621, 17.17639
675.7442, 16.78754
676.2263, 15.53571
676.7084, 12.88062
677.1906, 12.36102
677.6727, 18.08185
678.1548, 22.67896
678.6369, 22.33105
679.1190, 19.16583
679.6011, 14.27466
680.0833, 8.779663
680.5654, 6.543091
681.0475, 12.74316
681.5296, 22.44458
682.0117, 24.97614
682.4938, 20.98187
682.9760, 18.48322
683.4581, 19.96832
683.9402, 21.91058
684.4223, 20.43542
684.9044, 15.73883
685.3865, 13.31915
685.8687, 16.22662
686.3508, 17.35620
686.8329, 12.42621
687.3150, 8.338928
687.7971, 13.87708
688.2792, 25.48541
688.7614, 29.21002
689.2435, 14.75671
689.7256, 2.417664
690.2077, 6.106262
690.6898, 0.2197270
691.1719, 7.654602
691.6541, 15.80707
692.1362, 18.89673
692.6183, 11.89001
693.1004, 0.5700680
693.5825, 3.177307
694.0646, 8.727051
694.5468, 18.94086
695.0289, 31.34241
695.5110, 36.53821
695.9931, 23.12506
696.4752, 1.764160
696.9573, 7.984131
697.4395, 0.1078490
697.9216, 10.34424
698.4037, 16.05396
698.8858, 19.00488
699.3679, 19.92578
699.8500, 19.76135
700.3322, 20.69940
700.8143, 23.69464
701.2964, 27.97418
701.7785, 33.80750
702.2606, 41.26465
702.7427, 40.28503
703.2249, 26.71973
703.7070, 16.92480
704.1891, 20.39520
704.6712, 28.36890
705.1533, 27.15576
705.6354, 15.86865
706.1176, 10.78864
706.5997, 20.55444
707.0818, 29.68701
707.5639, 28.71863
708.0460, 24.11389
708.5281, 25.53607
709.0103, 33.66919
709.4924, 40.23309
709.9745, 37.64111
710.4566, 30.11853
710.9387, 29.43085
711.4208, 34.95575
711.9030, 35.14319
712.3851, 26.38702
712.8672, 18.03735
713.3493, 19.40015
713.8314, 28.29163
714.3135, 29.66785
714.7957, 10.29517
715.2778, 3.421082
715.7599, 23.19476
716.2420, 43.63031
716.7241, 47.98389
717.2062, 40.90283
717.6884, 35.63171
718.1705, 37.51654
718.6526, 38.09113
719.1347, 27.39038
719.6168, 13.32001
720.0989, 8.820618
720.5811, 13.41199
721.0632, 19.77979
721.5453, 24.52692
722.0274, 26.87317
722.5095, 25.19946
722.9916, 19.20770
723.4738, 11.58173
723.9559, 1.374146
724.4380, 7.425415
724.9201, 4.362732
725.4022, 21.00500
725.8843, 26.43707
726.3665, 21.26648
726.8486, 14.99670
727.3307, 2.339355
727.8128, 3.806885
728.2949, 8.141052
728.7770, 27.09003
729.2592, 38.26178
729.7413, 39.34540
730.2234, 36.11401
730.7055, 31.51941
731.1876, 27.42157
731.6697, 26.10590
732.1519, 27.58679
732.6340, 29.55060
733.1161, 31.82697
733.5982, 31.76599
734.0803, 25.95618
734.5624, 17.25867
735.0446, 17.89423
735.5267, 40.42511
736.0088, 49.07733
736.4909, 27.64014
736.9730, 9.321472
737.4551, 13.63855
737.9373, 29.78656
738.4194, 38.22168
738.9015, 33.20312
739.3836, 28.61047
739.8657, 33.89612
740.3478, 41.71356
740.8300, 44.71771
741.3121, 43.71521
741.7942, 41.69739
742.2763, 39.73584
742.7584, 37.60449
743.2405, 34.94879
743.7227, 31.91095
744.2048, 29.28998
744.6869, 27.13025
745.1690, 24.68646
745.6511, 20.58527
746.1332, 18.40265
746.6154, 22.85962
747.0975, 33.31775
747.5796, 40.21350
748.0617, 42.12793
748.5438, 42.74957
749.0259, 41.84296
749.5081, 39.90277
749.9902, 37.76233
750.4723, 34.83734
750.9544, 28.95404
751.4365, 18.24597
751.9186, 9.004822
752.4008, 6.769226
752.8829, 9.224609
753.3650, 13.56201
753.8471, 18.98486
754.3292, 23.18707
754.8113, 24.98279
755.2935, 26.96313
755.7756, 32.10699
756.2577, 40.95166
756.7398, 39.91357
757.2219, 23.65808
757.7040, 12.44507
758.1862, 14.26794
758.6683, 22.11957
759.1504, 29.74469
759.6325, 37.02661
760.1146, 42.57660
760.5967, 48.39917
761.0789, 49.70227
761.5610, 40.86609
762.0431, 30.20758
762.5252, 25.79242
763.0073, 26.49988
763.4894, 26.19867
763.9716, 21.81360
764.4537, 16.34155
764.9358, 10.82935
765.4179, 7.182190
765.9000, 7.980774
766.3821, 14.25696
766.8643, 36.17542
767.3464, 81.07507
767.8285, 123.6307
768.3106, 119.0963
768.7927, 63.25964
769.2748, 30.72119
769.7570, 30.75458
770.2391, 33.31482
770.7212, 29.83508
771.2033, 24.11615
771.6854, 18.86127
772.1675, 14.29883
772.6497, 14.23523
773.1318, 24.92383
773.6139, 32.62531
774.0960, 28.95673
774.5781, 23.75153
775.0602, 28.51208
775.5424, 40.06860
776.0245, 45.57690
776.5066, 38.29980
776.9887, 27.85016
777.4708, 25.21606
777.9529, 26.31274
778.4351, 20.34735
778.9172, 8.407410
779.3993, 3.280823
779.8814, 11.10675
780.3635, 23.28833
780.8456, 27.34821
781.3278, 23.30176
781.8099, 20.07446
782.2920, 18.35315
782.7741, 14.93280
783.2562, 7.044250
783.7383, 1.797974
784.2205, 10.30920
784.7026, 17.64099
785.1847, 16.48578
785.6668, 2.289429
786.1489, 17.29089
786.6310, 25.64935
787.1132, 27.45813
787.5953, 17.30127
788.0774, 1.651306
788.5595, 5.572144
789.0416, 1.299194
789.5237, 12.37775
790.0059, 23.00714
790.4880, 30.95038
790.9701, 32.06030
791.4522, 27.33618
791.9343, 18.61725
792.4164, 6.970215
792.8986, 0.7717290
793.3807, 12.38513
793.8628, 36.19934
794.3449, 38.60321
794.8270, 15.65076
795.3091, 0.9119870
795.7913, 3.686340
796.2734, 0.1586910
796.7555, 4.520325
797.2376, 10.48560
797.7197, 18.43530
798.2018, 34.03577
798.6840, 42.40283
799.1661, 39.46899
799.6482, 33.64557
800.1303, 26.60852
800.6124, 20.27673
801.0945, 17.94122
801.5767, 20.33746
802.0588, 20.87152
802.5409, 11.26044
803.0230, 3.354553
803.5051, 10.47955
803.9872, 24.81519
804.4694, 32.48645
804.9515, 31.36481
805.4336, 28.08643
805.9157, 27.21808
806.3978, 27.71411
806.8799, 27.11737
807.3621, 25.89740
807.8442, 28.35840
808.3263, 35.28595
808.8084, 38.49463
809.2905, 32.08447
809.7726, 22.93170
810.2548, 26.17645
810.7369, 46.68243
811.2190, 49.19830
811.7011, 19.52264
812.1832, 3.627930
812.6653, 6.793457
813.1475, 0.3071290
813.6296, 12.46252
814.1117, 28.24005
814.5938, 35.59631
815.0759, 25.19592
815.5580, 16.63843
816.0402, 15.34900
816.5223, 18.24573
817.0044, 25.68524
817.4865, 34.62024
817.9686, 37.86279
818.4507, 32.17285
818.9329, 28.24548
819.4150, 40.90729
819.8971, 56.88959
820.3792, 55.43127
820.8613, 40.32770
821.3434, 23.26721
821.8256, 8.606812
822.3077, 1.325562
822.7898, 8.526733
823.2719, 23.92639
823.7540, 23.49213
824.2361, 6.243896
824.7183, 3.899597
825.2004, 25.28583
825.6825, 44.91718
826.1646, 45.25604
826.6467, 33.59155
827.1288, 28.58887
827.6110, 34.73889
828.0931, 33.51257
828.5752, 15.30878
829.0573, 2.133118
829.5394, 2.973450
830.0215, 10.14807
830.5037, 17.62671
830.9858, 24.76025
831.4679, 29.07379
831.9500, 29.34857
832.4321, 27.87476
832.9142, 25.50098
833.3964, 21.80066
833.8785, 13.76044
834.3606, 4.282410
834.8427, 1.158569
835.3248, 7.829773
835.8069, 16.70337
836.2891, 21.53021
836.7712, 23.91016
837.2533, 27.05273
837.7354, 30.02734
838.2175, 27.64270
838.6996, 19.04504
839.1818, 13.33551
839.6639, 20.43555
840.1460, 34.57825
840.6281, 37.20599
841.1102, 28.19995
841.5923, 18.49005
842.0745, 8.627502
842.5566, 1.178772
843.0387, 1.556885
843.5208, 3.9795000E-02
844.0029, 1.298706
844.4850, 0.3243410
844.9672, 8.731689
845.4493, 38.12866
845.9314, 57.60669
846.4135, 52.04034
846.8956, 38.50195
847.3777, 26.97760
847.8599, 18.62372
848.3420, 19.69434
848.8241, 45.07538
849.3062, 59.64465
849.7883, 45.99237
850.2704, 27.22302
850.7526, 18.98871
851.2347, 18.75427
851.7168, 18.93658
852.1989, 17.44769
852.6810, 18.01086
853.1631, 28.73450
853.6453, 37.30829
854.1274, 30.66016
854.6095, 15.99066
855.0916, 5.817322
855.5737, 2.456909
856.0558, 2.053711
856.5380, 1.983154
857.0201, 3.626709
857.5022, 10.45508
857.9843, 21.07611
858.4664, 30.96521
858.9485, 39.45654
859.4307, 40.06494
859.9128, 29.24609
860.3949, 15.72607
860.8770, 11.34143
861.3591, 15.18469
861.8412, 13.41370
862.3234, 2.195862
862.8055, 2.761292
863.2876, 25.21796
863.7697, 48.19458
864.2518, 57.90796
864.7339, 56.10498
865.2161, 46.19830
865.6982, 17.55695
866.1803, 6.663696
866.6624, 32.56610
867.1445, 52.25171
867.6266, 46.48126
868.1088, 31.97290
868.5909, 26.00891
869.0730, 28.90344
869.5551, 31.81934
870.0372, 36.36975
870.5193, 35.01416
871.0015, 16.59772
871.4836, 0.7022710
871.9657, 2.702332
872.4478, 18.89417
872.9299, 28.21881
873.4120, 24.50287
873.8942, 19.91522
874.3763, 24.90784
874.8584, 31.81470
875.3405, 30.12109
875.8226, 24.63342
876.3047, 28.18768
876.7869, 40.33923
877.2690, 44.37585
877.7511, 27.73132
878.2332, 6.728027
878.7153, 11.47345
879.1974, 33.18463
879.6796, 38.50281
880.1617, 27.00372
880.6438, 19.05090
881.1259, 22.42853
881.6080, 31.03778
882.0901, 39.04224
882.5723, 45.73029
883.0544, 46.26807
883.5365, 39.69763
884.0186, 34.52814
884.5007, 32.12415
884.9828, 31.00494
885.4650, 31.20563
885.9471, 30.90118
886.4292, 25.81989
886.9113, 14.36200
887.3934, 5.974243
887.8755, 0.2162480
888.3577, 1.824951
888.8398, 4.314087
889.3219, 12.96881
889.8040, 21.65137
890.2861, 29.34851
890.7682, 31.69330
891.2504, 25.86639
891.7325, 19.58569
892.2146, 12.06775
892.6967, 6.286194
893.1788, 2.618103
893.6609, 2.319763
894.1431, 8.928284
894.6252, 22.29639
895.1073, 32.44556
895.5894, 34.29749
896.0715, 33.81335
896.5536, 32.31464
897.0358, 31.24670
897.5179, 33.15967
898.0000, 36.60712
898.4821, 38.23828
898.9642, 36.87598
899.4464, 32.65582
899.9285, 22.98737
900.4106, 12.73798
900.8927, 8.823242
901.3748, 8.625000
901.8569, 3.716492
902.3391, 5.209534
902.8212, 5.591736
903.3033, 11.57452
903.7854, 33.19458
904.2675, 42.07501
904.7496, 39.91052
905.2318, 27.35303
905.7139, 7.213013
906.1960, 0.5924070
906.6781, 10.21350
907.1602, 22.76556
907.6423, 19.78210
908.1245, 7.609985
908.6066, 9.786743
909.0887, 26.45825
909.5708, 25.10107
910.0529, 0.9219360
910.5350, 17.80560
911.0172, 6.707397
911.4993, 15.11816
911.9814, 22.08563
912.4635, 14.62439
912.9456, 14.04639
913.4277, 24.53625
913.9099, 27.86658
914.3920, 16.91583
914.8741, 5.650940
915.3562, 3.112000
915.8383, 6.977722
916.3204, 12.28967
916.8026, 20.30994
917.2847, 25.05090
917.7668, 23.16327
918.2489, 22.76202
918.7310, 27.09351
919.2131, 32.60065
919.6953, 39.46454
920.1774, 45.41815
920.6595, 41.05249
921.1416, 17.27075
921.6237, 0.7922970
922.1058, 0.9496460
922.5880, 0.9940190
923.0701, 2.144409
923.5522, 4.301941
924.0343, 10.28027
924.5164, 19.81750
924.9985, 24.27277
925.4807, 17.51025
925.9628, 10.70001
926.4449, 6.165588
926.9270, 5.308350
927.4091, 13.94312
927.8912, 25.30646
928.3734, 25.64417
928.8555, 12.74164
929.3376, 2.635803
929.8197, 5.349792
930.3018, 11.69031
930.7839, 17.60480
931.2661, 22.81653
931.7482, 27.01581
932.2303, 30.20996
932.7124, 32.69775
933.1945, 34.57471
933.6766, 35.11658
934.1588, 33.77081
934.6409, 30.67303
935.1230, 22.96869
935.6051, 14.63708
936.0872, 17.16370
936.5693, 29.10760
937.0515, 34.04852
937.5336, 22.21039
938.0157, 7.216309
938.4978, 8.225952
938.9799, 18.10779
939.4620, 19.40991
939.9442, 14.34851
940.4263, 14.75757
940.9084, 23.05890
941.3905, 32.33112
941.8726, 37.84857
942.3547, 39.42664
942.8369, 34.71643
943.3190, 25.44934
943.8011, 21.08807
944.2832, 21.71240
944.7653, 22.07184
945.2474, 20.38318
945.7296, 18.94165
946.2117, 20.28546
946.6938, 23.08984
947.1759, 21.10315
947.6580, 14.35699
948.1401, 12.75958
948.6223, 17.32465
949.1044, 26.07611
949.5865, 39.82544
950.0686, 49.04895
950.5507, 40.41254
951.0328, 17.41974
951.5150, 2.635925
951.9971, 3.836975
952.4792, 1.451172
952.9613, 12.38647
953.4434, 26.32355
953.9255, 35.76202
954.4077, 39.63550
954.8898, 34.72943
955.3719, 21.12573
955.8540, 16.49152
956.3361, 23.78320
956.8182, 31.14941
957.3004, 37.21552
957.7825, 42.49524
958.2646, 49.23706
958.7467, 53.30884
959.2288, 44.81329
959.7109, 20.44855
960.1931, 9.398193
960.6752, 17.95282
961.1573, 29.42755
961.6394, 46.62506
962.1215, 57.07758
962.6036, 47.48474
963.0858, 26.90430
963.5679, 17.13306
964.0500, 20.55951
964.5321, 25.31372
965.0142, 32.97498
965.4963, 39.54993
965.9785, 48.39972
966.4606, 51.99988
966.9427, 40.65997
967.4248, 20.07013
967.9069, 6.011780
968.3890, 2.656860
968.8712, 2.481567
969.3533, 13.89032
969.8354, 28.76215
970.3175, 37.01495
970.7996, 41.84839
971.2817, 47.59680
971.7639, 52.38159
972.2460, 48.26691
972.7281, 28.11206
973.2102, 15.83801
973.6923, 22.33502
974.1744, 27.80603
974.6566, 20.26025
975.1387, 11.29352
975.6208, 13.56232
976.1029, 24.85486
976.5850, 35.68170
977.0671, 47.44647
977.5493, 52.09808
978.0314, 40.50348
978.5135, 28.52777
978.9956, 26.01105
979.4777, 25.34082
979.9598, 14.58014
980.4420, 3.315369
980.9241, 11.13031
981.4062, 0.3636470
981.8883, 10.93347
982.3704, 19.02655
982.8525, 24.56073
983.3347, 27.71155
983.8168, 28.63544
984.2989, 27.51160
984.7810, 24.32666
985.2631, 18.61877
985.7452, 8.117981
986.2274, 0.4708250
986.7095, 7.402100
987.1916, 8.796997
987.6737, 2.145386
988.1558, 17.56104
988.6379, 28.03033
989.1201, 32.42407
989.6022, 33.19556
990.0843, 29.40460
990.5664, 25.28674
991.0485, 20.55927
991.5306, 18.15735
992.0128, 24.48260
992.4949, 31.96606
992.9770, 26.56927
993.4591, 9.757080
993.9412, 2.333862
994.4233, 19.70947
994.9055, 32.36731
995.3876, 19.97711
995.8697, 5.439880
996.3518, 6.884216
996.8339, 15.72986
997.3160, 18.60168
997.7982, 14.34180
998.2803, 11.06964
998.7624, 12.63470
999.2445, 14.10999
999.7266, 13.72650
1000.209, 11.85522
1000.691, 5.602295
1001.173, 0.2195430
1001.655, 3.563843
1002.137, 16.07513
1002.619, 23.86871
1003.101, 20.32556
1003.584, 14.15002
1004.066, 5.666260
1004.548, 6.6284001E-02
1005.030, 1.377747
1005.512, 7.828857
1005.994, 18.50610
1006.476, 31.46185
1006.958, 38.04187
1007.440, 31.60754
1007.923, 25.43311
1008.405, 28.15271
1008.887, 31.07867
1009.369, 24.00763
1009.851, 15.02271
1010.333, 20.08325
1010.815, 37.63123
1011.297, 47.02155
1011.780, 37.36591
1012.262, 26.97052
1012.744, 24.16064
1013.226, 22.88776
1013.708, 16.48090
1014.190, 10.70288
1014.672, 17.40399
1015.154, 33.73621
1015.636, 38.79669
1016.119, 18.37567
1016.601, 4.489258
1017.083, 18.28314
1017.565, 32.64069
1018.047, 28.64301
1018.529, 17.21405
1019.011, 11.31116
1019.493, 11.78278
1019.976, 14.30664
1020.458, 18.56726
1020.940, 22.60181
1021.422, 28.71716
1021.904, 31.05920
1022.386, 21.87207
1022.868, 10.59692
1023.350, 8.155884
1023.832, 13.33124
1024.315, 18.08807
1024.797, 21.85962
1025.279, 21.83344
1025.761, 9.488342
1026.243, 2.576172
1026.725, 16.59027
1027.207, 34.40649
1027.689, 35.82446
1028.172, 26.20642
1028.654, 27.90289
1029.136, 50.60809
1029.618, 62.04803
1030.100, 46.73615
1030.582, 31.85156
1031.064, 29.76379
1031.546, 29.30823
1032.028, 17.31165
1032.511, 0.2020870
1032.993, 4.818298
1033.475, 9.912781
1033.957, 16.61554
1034.439, 1.154724
1034.921, 8.120300
1035.403, 16.47504
1035.885, 42.72345
1036.368, 46.81787
1036.850, 38.07715
1037.332, 37.24945
1037.814, 46.40210
1038.296, 54.11896
1038.778, 64.16425
1039.260, 67.33063
1039.742, 56.80231
1040.224, 43.96185
1040.707, 33.09418
1041.189, 25.47272
1041.671, 23.97064
1042.153, 28.98633
1042.635, 33.39252
1043.117, 37.47742
1043.599, 40.27869
1044.081, 41.19092
1044.563, 41.49402
1045.046, 44.69104
1045.528, 45.64124
1046.010, 33.41290
1046.492, 9.465210
1046.974, 1.979614
1047.456, 2.559509
1047.938, 9.179382
1048.420, 19.04364
1048.902, 23.61108
1049.385, 16.51636
1049.867, 9.355835
1050.349, 16.28436
1050.831, 33.66632
1051.313, 45.03986
1051.795, 51.24146
1052.277, 42.23553
1052.759, 13.32574
1053.242, 5.923401
1053.724, 4.956360
1054.206, 5.421753
1054.688, 17.04462
1055.170, 27.90857
1055.652, 32.58649
1056.134, 31.11011
1056.616, 23.71362
1057.099, 10.29413
1057.581, 3.827820
1058.063, 7.820740
1058.545, 12.32526
1059.027, 10.02014
1059.509, 5.539307
1059.991, 6.995605
1060.473, 13.49695
1060.955, 22.79486
1061.438, 33.47614
1061.920, 36.28772
1062.402, 30.13086
1062.884, 22.08716
1063.366, 15.90460
1063.848, 10.47931
1064.330, 2.780640
1064.812, 3.940796
1065.294, 1.500366
1065.777, 7.643677
1066.259, 19.22260
1066.741, 31.10339
1067.223, 39.76147
1067.705, 44.01196
1068.187, 44.60571
1068.669, 42.10651
1069.151, 36.76001
1069.634, 21.68518
1070.116, 7.466309
1070.598, 16.47119
1071.080, 39.12152
1071.562, 48.59674
1072.044, 39.77161
1072.526, 29.64282
1073.008, 27.72821
1073.490, 28.06348
1073.973, 28.44519
1074.455, 26.64703
1074.937, 16.37952
1075.419, 4.815918
1075.901, 4.434570
1076.383, 14.20514
1076.865, 22.26813
1077.347, 24.42188
1077.829, 24.72479
1078.312, 24.99200
1078.794, 23.85138
1079.276, 16.37634
1079.758, 10.58002
1080.240, 18.61450
1080.722, 34.09747
1081.204, 38.18768
1081.686, 25.81744
1082.169, 16.34796
1082.651, 15.06580
1083.133, 14.39850
1083.615, 10.84100
1084.097, 8.995972
1084.579, 14.39606
1085.061, 22.14081
1085.543, 21.44196
1086.026, 11.89026
1086.508, 16.16406
1086.990, 46.25769
1087.472, 65.55255
1087.954, 69.56793
1088.436, 65.86688
1088.918, 54.54230
1089.400, 41.40350
1089.882, 32.33679
1090.365, 26.76746
1090.847, 21.81708
1091.329, 17.93225
1091.811, 15.51172
1092.293, 15.00397
1092.775, 12.35913
1093.257, 6.987610
1093.739, 2.124756
1094.221, 0.3262940
1094.704, 1.220459
1095.186, 4.706177
1095.668, 10.86023
1096.150, 15.73560
1096.632, 19.30212
1097.114, 22.05182
1097.596, 24.43445
1098.078, 32.66406
1098.561, 49.75745
1099.043, 61.42505
1099.525, 48.34552
1100.007, 24.05487
1100.489, 13.19861
1100.971, 12.22595
1101.453, 14.68671
1101.935, 19.11029
1102.417, 25.12903
1102.900, 31.80804
1103.382, 34.38873
1103.864, 29.07007
1104.346, 20.81299
1104.828, 10.46643
1105.310, 2.889771
1105.792, 5.025879
1106.274, 12.23248
1106.756, 17.43524
1107.239, 20.37335
1107.721, 24.64276
1108.203, 31.53918
1108.685, 38.86035
1109.167, 53.00287
1109.649, 57.87463
1110.131, 32.99347
1110.613, 7.747131
1111.096, 12.43597
1111.578, 32.24500
1112.060, 34.52057
1112.542, 15.24127
1113.024, 4.302979
1113.506, 11.42572
1113.988, 16.13049
1114.470, 15.57599
1114.953, 14.12799
1115.435, 12.30280
1115.917, 11.72571
1116.399, 14.03772
1116.881, 19.01062
1117.363, 27.16278
1117.845, 41.41333
1118.327, 43.74078
1118.809, 31.04395
1119.292, 22.27081
1119.774, 22.64020
1120.256, 22.68860
1120.738, 15.30859
1121.220, 8.867004
1121.702, 20.90814
1122.184, 43.92883
1122.666, 38.65033
1123.148, 10.80109
1123.631, 5.967957
1124.113, 8.733704
1124.595, 9.833191
1125.077, 13.47705
1125.559, 9.784607
1126.041, 13.42676
1126.523, 38.11670
1127.005, 36.60327
1127.488, 22.70239
1127.970, 14.49023
1128.452, 12.86597
1128.934, 19.79980
1129.416, 32.40863
1129.898, 39.38940
1130.380, 34.42792
1130.862, 31.16425
1131.344, 43.10718
1131.827, 52.80743
1132.309, 44.52289
1132.791, 33.44769
1133.273, 30.19763
1133.755, 36.29608
1134.237, 58.84558
1134.719, 97.98474
1135.201, 114.7546
1135.683, 90.06134
1136.166, 64.10333
1136.648, 32.24530
1137.130, 11.33759
1137.612, 13.00616
1138.094, 20.73389
1138.576, 19.26093
1139.058, 12.25244
1139.540, 11.11029
1140.023, 16.56750
1140.505, 23.23792
1140.987, 32.07172
1141.469, 31.51245
1141.951, 18.00085
1142.433, 14.51703
1142.915, 34.66278
1143.397, 56.67737
1143.880, 52.07324
1144.362, 31.13568
1144.844, 20.31720
1145.326, 17.70862
1145.808, 17.46606
1146.290, 18.82880
1146.772, 21.52313
1147.254, 25.26215
1147.736, 29.20532
1148.219, 33.08698
1148.701, 35.72522
1149.183, 34.54883
1149.665, 33.09473
1150.147, 35.85748
1150.629, 39.78839
1151.111, 43.64178
1151.593, 44.42987
1152.075, 33.60205
1152.558, 9.783508
1153.040, 5.617126
1153.522, 2.952698
1154.004, 4.852356
1154.486, 22.89099
1154.968, 35.19922
1155.450, 29.46002
1155.932, 17.59607
1156.415, 9.618652
1156.897, 6.091248
1157.379, 9.322449
1157.861, 20.39990
1158.343, 33.18164
1158.825, 49.68542
1159.307, 60.18231
1159.789, 63.39398
1160.271, 56.39539
1160.754, 35.80255
1161.236, 14.99286
1161.718, 10.54919
1162.200, 17.68945
1162.682, 24.34583
1163.164, 29.98114
1163.646, 31.37103
1164.128, 29.91235
1164.610, 33.46661
1165.093, 42.25299
1165.575, 45.24542
1166.057, 35.79712
1166.539, 26.88055
1167.021, 36.10876
1167.503, 44.96777
1167.985, 30.35388
1168.467, 10.53345
1168.950, 6.067566
1169.432, 13.22406
1169.914, 23.00500
1170.396, 33.05450
1170.878, 37.70587
1171.360, 30.65051
1171.842, 27.29114
1172.324, 37.97522
1172.807, 42.09167
1173.289, 23.41644
1173.771, 7.211670
1174.253, 15.52454
1174.735, 36.46301
1175.217, 45.90643
1175.699, 43.93860
1176.181, 38.68762
1176.663, 29.20624
1177.146, 26.93463
1177.628, 33.47699
1178.110, 41.13928
1178.592, 47.25909
1179.074, 48.85986
1179.556, 42.48102
1180.038, 34.41272
1180.520, 37.53247
1181.002, 44.75421
1181.485, 38.92548
1181.967, 26.53839
1182.449, 20.54510
1182.931, 22.10034
1183.413, 30.40295
1183.895, 44.95984
1184.377, 52.66083
1184.859, 42.98688
1185.342, 31.45129
1185.824, 26.51758
1186.306, 21.04559
1186.788, 6.637390
1187.270, 7.672424
1187.752, 12.19238
1188.234, 7.716370
1188.716, 2.195068
1189.198, 20.05035
1189.681, 27.01733
1190.163, 18.13770
1190.645, 13.22021
1191.127, 15.33295
1191.609, 20.56622
1192.091, 28.05023
1192.573, 34.11774
1193.055, 35.23022
1193.537, 31.86707
1194.020, 21.14062
1194.502, 7.565735
1194.984, 10.35242
1195.466, 25.31860
1195.948, 41.30206
1196.430, 53.21082
1196.912, 47.81744
1197.394, 21.09833
1197.877, 3.182495
1198.359, 5.822449
1198.841, 1.340149
1199.323, 20.96057
1199.805, 36.44733
1200.287, 28.67896
1200.769, 13.76239
1201.251, 10.78827
1201.734, 19.35699
1202.216, 33.40570
1202.698, 56.85187
1203.180, 64.89447
1203.662, 49.95166
1204.144, 36.57758
1204.626, 27.15222
1205.108, 21.23132
1205.590, 18.58020
1206.073, 19.70300
1206.555, 25.78766
1207.037, 33.28772
1207.519, 33.01019
1208.001, 26.88647
1208.483, 22.84027
1208.965, 21.18488
1209.447, 25.41907
1209.929, 33.07745
1210.412, 30.96210
1210.894, 15.45703
1211.376, 3.640381
1211.858, 8.062744
1212.340, 17.01373
1212.822, 24.91272
1213.304, 31.51733
1213.786, 36.98785
1214.269, 40.80121
1214.751, 40.50891
1215.233, 36.29242
1215.715, 34.50903
1216.197, 32.01971
1216.679, 33.48615
1217.161, 43.49622
1217.643, 44.51611
1218.125, 32.79138
1218.608, 19.61029
1219.090, 8.368225
1219.572, 1.514771
1220.054, 0.2221070
1220.536, 4.223877
1221.018, 18.95850
1221.500, 37.27148
1221.982, 39.69501
1222.464, 33.24310
1222.947, 37.53754
1223.429, 49.15833
1223.911, 50.88776
1224.393, 39.90942
1224.875, 28.86646
1225.357, 23.14661
1225.839, 20.37262
1226.321, 18.27332
1226.804, 19.95361
1227.286, 33.81329
1227.768, 46.20050
1228.250, 43.52106
1228.732, 33.96735
1229.214, 29.51025
1229.696, 29.59399
1230.178, 30.85651
1230.661, 34.03137
1231.143, 31.58942
1231.625, 23.90265
1232.107, 20.95685
1232.589, 24.85736
1233.071, 31.94275
1233.553, 40.48077
1234.035, 41.84827
1234.517, 21.62665
1235.000, 0.9248660
1235.482, 3.176086
1235.964, 20.57159
1236.446, 39.79822
1236.928, 54.67572
1237.410, 53.70288
1237.892, 41.12689
1238.374, 34.91638
1238.856, 37.79871
1239.339, 36.07458
1239.821, 10.95166
1240.303, 0.3499760
1240.785, 17.24347
1241.267, 15.72955
1241.749, 0.0000000E+00
##END=



