##NAMES=Richterite
##RRUFFID=R100069
##IDEAL CHEMISTRY=Na(CaNa)Mg_5_Si_8_O_22_(OH)_2_
##LOCALITY=La Ceila, near Jumilla, Murcia Province, Spain
##OWNER=RRUFF
##SOURCE=Bob Jenkins 
##DESCRIPTION=Yellow transparent bladed crystals associated with yuanfuliite R100067 and black tabular hematite
##STATUS=The identification of this mineral has been confirmed only by single crystal X-ray diffraction.
##URL=rruff.info/R100069
91.53320, 21664.38
92.01532, 21352.78
92.49744, 21181.13
92.97955, 21531.31
93.46167, 22045.12
93.94379, 22336.62
94.42590, 22517.05
94.90802, 22643.70
95.39014, 22729.20
95.87225, 22776.35
96.35437, 22785.87
96.83649, 22772.59
97.31860, 22747.01
97.80072, 22712.58
98.28284, 22639.72
98.76495, 22519.56
99.24707, 22422.60
99.72919, 22373.16
100.2113, 22330.68
100.6934, 22278.22
101.1755, 22219.72
101.6577, 22167.07
102.1398, 22129.58
102.6219, 22106.51
103.1040, 22097.19
103.5861, 22103.84
104.0682, 22113.88
104.5504, 22117.20
105.0325, 22112.72
105.5146, 22108.56
105.9967, 22114.06
106.4788, 22132.63
106.9609, 22146.50
107.4431, 22148.24
107.9252, 22145.28
108.4073, 22148.21
108.8894, 22160.96
109.3715, 22178.17
109.8536, 22190.09
110.3358, 22195.28
110.8179, 22201.34
111.3000, 22214.33
111.7821, 22233.27
112.2642, 22248.44
112.7463, 22252.67
113.2285, 22253.38
113.7106, 22257.91
114.1927, 22267.86
114.6748, 22280.45
115.1569, 22291.28
115.6390, 22298.41
116.1212, 22308.78
116.6033, 22326.36
117.0854, 22346.73
117.5675, 22366.05
118.0496, 22382.67
118.5317, 22396.35
119.0139, 22406.17
119.4960, 22408.45
119.9781, 22409.88
120.4602, 22409.38
120.9423, 22408.84
121.4244, 22410.97
121.9066, 22417.80
122.3887, 22429.40
122.8708, 22445.28
123.3529, 22467.59
123.8350, 22491.10
124.3171, 22515.00
124.7993, 22538.49
125.2814, 22558.72
125.7635, 22571.73
126.2456, 22574.99
126.7277, 22584.87
127.2098, 22606.17
127.6920, 22631.97
128.1741, 22655.49
128.6562, 22675.18
129.1383, 22692.54
129.6204, 22708.92
130.1025, 22724.41
130.5847, 22738.81
131.0668, 22750.99
131.5489, 22761.75
132.0310, 22774.18
132.5131, 22790.54
132.9952, 22807.28
133.4774, 22820.13
133.9595, 22829.21
134.4416, 22840.34
134.9237, 22861.34
135.4058, 22894.77
135.8879, 22922.11
136.3701, 22937.77
136.8522, 22948.00
137.3343, 22952.12
137.8164, 22950.76
138.2985, 22951.81
138.7806, 22970.77
139.2628, 23023.91
139.7449, 23065.76
140.2270, 23088.61
140.7091, 23101.93
141.1912, 23111.89
141.6733, 23121.19
142.1555, 23131.89
142.6376, 23151.23
143.1197, 23188.85
143.6018, 23224.50
144.0839, 23255.19
144.5660, 23282.40
145.0482, 23309.38
145.5303, 23338.39
146.0124, 23368.15
146.4945, 23390.42
146.9766, 23396.77
147.4587, 23405.31
147.9409, 23428.10
148.4230, 23461.76
148.9051, 23489.90
149.3872, 23499.07
149.8693, 23492.21
150.3514, 23492.71
150.8336, 23502.20
151.3157, 23518.49
151.7978, 23542.33
152.2799, 23575.11
152.7620, 23606.74
153.2441, 23627.54
153.7263, 23642.07
154.2084, 23657.81
154.6905, 23678.67
155.1726, 23702.07
155.6547, 23721.72
156.1368, 23734.61
156.6190, 23749.14
157.1011, 23770.67
157.5832, 23796.80
158.0653, 23823.50
158.5474, 23850.07
159.0295, 23875.93
159.5117, 23893.44
159.9938, 23893.22
160.4759, 23893.20
160.9580, 23897.22
161.4401, 23906.32
161.9222, 23921.66
162.4044, 23945.79
162.8865, 23981.25
163.3686, 24010.82
163.8507, 24036.34
164.3328, 24055.17
164.8149, 24060.71
165.2971, 24055.76
165.7792, 24051.88
166.2613, 24064.06
166.7434, 24103.36
167.2255, 24125.91
167.7076, 24121.24
168.1898, 24109.91
168.6719, 24105.11
169.1540, 24109.89
169.6361, 24120.55
170.1182, 24132.31
170.6003, 24145.90
171.0825, 24159.22
171.5646, 24169.06
172.0467, 24179.86
172.5288, 24199.43
173.0109, 24231.25
173.4930, 24264.72
173.9752, 24279.84
174.4573, 24275.14
174.9394, 24271.12
175.4215, 24269.98
175.9036, 24273.74
176.3857, 24288.91
176.8679, 24322.25
177.3500, 24360.27
177.8321, 24385.99
178.3142, 24399.61
178.7963, 24406.01
179.2784, 24401.66
179.7606, 24388.92
180.2427, 24388.21
180.7248, 24413.09
181.2069, 24445.66
181.6890, 24469.49
182.1711, 24483.27
182.6533, 24494.98
183.1354, 24512.97
183.6175, 24538.32
184.0996, 24561.86
184.5817, 24577.43
185.0638, 24593.22
185.5460, 24613.81
186.0281, 24640.23
186.5102, 24670.76
186.9923, 24705.94
187.4744, 24753.12
187.9565, 24784.09
188.4387, 24782.14
188.9208, 24772.97
189.4029, 24776.03
189.8850, 24796.94
190.3671, 24825.43
190.8492, 24841.63
191.3314, 24833.64
191.8135, 24832.02
192.2956, 24838.73
192.7777, 24851.63
193.2598, 24871.12
193.7419, 24896.97
194.2241, 24924.99
194.7062, 24945.00
195.1883, 24944.50
195.6704, 24950.18
196.1525, 24968.29
196.6346, 24990.99
197.1168, 25008.63
197.5989, 25016.88
198.0810, 25019.30
198.5631, 25026.04
199.0452, 25037.41
199.5273, 25052.18
200.0095, 25074.88
200.4916, 25100.21
200.9737, 25118.21
201.4558, 25123.04
201.9379, 25120.82
202.4200, 25130.29
202.9022, 25157.31
203.3843, 25182.96
203.8664, 25198.34
204.3485, 25206.98
204.8306, 25217.32
205.3127, 25230.72
205.7949, 25251.15
206.2770, 25287.89
206.7591, 25352.49
207.2412, 25408.06
207.7233, 25428.20
208.2054, 25417.82
208.6876, 25406.15
209.1697, 25402.40
209.6518, 25405.59
210.1339, 25412.50
210.6160, 25422.71
211.0981, 25437.44
211.5803, 25461.56
212.0624, 25495.08
212.5445, 25521.76
213.0266, 25529.26
213.5087, 25530.96
213.9908, 25540.66
214.4730, 25561.69
214.9551, 25583.44
215.4372, 25590.75
215.9193, 25580.00
216.4014, 25578.09
216.8836, 25602.41
217.3657, 25633.33
217.8478, 25657.82
218.3299, 25672.56
218.8120, 25684.44
219.2941, 25703.43
219.7763, 25732.36
220.2584, 25758.61
220.7405, 25781.05
221.2226, 25799.40
221.7047, 25810.71
222.1868, 25814.61
222.6690, 25817.63
223.1511, 25830.21
223.6332, 25855.00
224.1153, 25884.26
224.5974, 25928.81
225.0795, 25969.72
225.5617, 25989.77
226.0438, 25985.31
226.5259, 25970.08
227.0080, 25968.33
227.4901, 25989.97
227.9722, 26008.13
228.4544, 26017.68
228.9365, 26026.63
229.4186, 26042.46
229.9007, 26066.76
230.3828, 26094.14
230.8649, 26115.01
231.3471, 26126.28
231.8292, 26135.12
232.3113, 26137.81
232.7934, 26140.23
233.2755, 26147.44
233.7576, 26160.65
234.2398, 26177.37
234.7219, 26193.46
235.2040, 26209.44
235.6861, 26223.24
236.1682, 26230.51
236.6503, 26237.83
237.1325, 26252.31
237.6146, 26275.52
238.0967, 26302.12
238.5788, 26324.75
239.0609, 26343.60
239.5430, 26356.12
240.0252, 26356.74
240.5073, 26353.55
240.9894, 26352.84
241.4715, 26356.17
241.9536, 26365.40
242.4357, 26384.80
242.9179, 26417.38
243.4000, 26446.99
243.8821, 26473.97
244.3642, 26496.42
244.8463, 26509.59
245.3284, 26512.15
245.8106, 26513.62
246.2927, 26525.11
246.7748, 26546.78
247.2569, 26572.37
247.7390, 26610.10
248.2211, 26647.50
248.7033, 26666.94
249.1854, 26664.24
249.6675, 26655.88
250.1496, 26657.73
250.6317, 26668.45
251.1138, 26680.36
251.5960, 26692.09
252.0781, 26704.12
252.5602, 26719.74
253.0423, 26740.86
253.5244, 26755.99
254.0065, 26744.31
254.4887, 26716.85
254.9708, 26705.77
255.4529, 26733.04
255.9350, 26775.68
256.4171, 26798.94
256.8992, 26797.55
257.3813, 26796.58
257.8635, 26816.44
258.3456, 26848.82
258.8277, 26881.56
259.3098, 26912.41
259.7919, 26940.69
260.2740, 26965.16
260.7562, 26985.44
261.2383, 27002.78
261.7204, 27015.84
262.2025, 27026.63
262.6846, 27037.09
263.1667, 27046.04
263.6489, 27056.81
264.1310, 27077.42
264.6131, 27111.79
265.0952, 27138.83
265.5773, 27137.60
266.0594, 27128.87
266.5416, 27133.94
267.0237, 27161.85
267.5058, 27196.90
267.9879, 27216.75
268.4700, 27217.74
268.9521, 27221.24
269.4343, 27239.64
269.9164, 27261.13
270.3985, 27276.17
270.8806, 27282.16
271.3627, 27285.10
271.8448, 27292.29
272.3270, 27304.43
272.8091, 27316.91
273.2912, 27328.68
273.7733, 27340.13
274.2554, 27350.10
274.7375, 27358.59
275.2197, 27369.50
275.7018, 27388.87
276.1839, 27418.22
276.6660, 27444.69
277.1481, 27464.74
277.6302, 27482.37
278.1124, 27497.73
278.5945, 27511.65
279.0766, 27526.86
279.5587, 27547.97
280.0408, 27576.48
280.5229, 27598.79
281.0051, 27600.98
281.4872, 27608.76
281.9693, 27642.03
282.4514, 27693.34
282.9335, 27736.63
283.4156, 27745.38
283.8978, 27718.63
284.3799, 27702.29
284.8620, 27701.79
285.3441, 27707.28
285.8262, 27717.16
286.3083, 27730.19
286.7905, 27744.33
287.2726, 27757.19
287.7547, 27769.49
288.2368, 27788.81
288.7189, 27818.27
289.2010, 27851.82
289.6832, 27893.23
290.1653, 27936.28
290.6474, 27972.49
291.1295, 27996.78
291.6116, 28010.71
292.0938, 28019.96
292.5759, 28023.48
293.0580, 28023.35
293.5401, 28013.37
294.0222, 28002.97
294.5043, 28003.93
294.9865, 28021.83
295.4686, 28049.91
295.9507, 28071.90
296.4328, 28085.00
296.9149, 28096.50
297.3970, 28104.10
297.8792, 28112.41
298.3613, 28126.83
298.8434, 28148.57
299.3255, 28172.18
299.8076, 28188.16
300.2897, 28192.60
300.7719, 28197.74
301.2540, 28201.41
301.7361, 28207.59
302.2182, 28218.19
302.7003, 28233.81
303.1824, 28254.85
303.6646, 28283.84
304.1467, 28325.20
304.6288, 28357.72
305.1109, 28377.96
305.5930, 28393.15
306.0751, 28402.82
306.5573, 28409.43
307.0394, 28419.14
307.5215, 28439.12
308.0036, 28470.83
308.4857, 28492.33
308.9678, 28486.72
309.4500, 28487.24
309.9321, 28509.19
310.4142, 28544.69
310.8963, 28576.47
311.3784, 28592.54
311.8605, 28595.08
312.3427, 28600.98
312.8248, 28613.95
313.3069, 28626.34
313.7890, 28631.44
314.2711, 28636.81
314.7532, 28655.11
315.2354, 28693.26
315.7175, 28741.56
316.1996, 28770.38
316.6817, 28762.62
317.1638, 28762.26
317.6459, 28777.27
318.1281, 28799.38
318.6102, 28822.97
319.0923, 28845.78
319.5744, 28865.96
320.0565, 28878.26
320.5386, 28873.07
321.0208, 28882.75
321.5029, 28922.99
321.9850, 28964.96
322.4671, 28989.38
322.9492, 28995.00
323.4313, 28994.52
323.9135, 29001.73
324.3956, 29018.13
324.8777, 29034.15
325.3598, 29043.04
325.8419, 29057.60
326.3240, 29084.84
326.8062, 29122.50
327.2883, 29164.95
327.7704, 29211.07
328.2525, 29259.50
328.7346, 29286.85
329.2167, 29275.99
329.6989, 29262.06
330.1810, 29246.65
330.6631, 29235.43
331.1452, 29237.40
331.6273, 29258.65
332.1094, 29292.27
332.5916, 29315.87
333.0737, 29320.85
333.5558, 29330.67
334.0379, 29350.55
334.5200, 29375.77
335.0021, 29401.12
335.4843, 29425.04
335.9664, 29450.93
336.4485, 29486.86
336.9306, 29540.94
337.4127, 29580.34
337.8948, 29591.54
338.3770, 29595.63
338.8591, 29602.16
339.3412, 29613.19
339.8233, 29628.06
340.3055, 29649.20
340.7876, 29678.14
341.2697, 29696.31
341.7518, 29691.58
342.2339, 29687.26
342.7160, 29692.30
343.1982, 29705.09
343.6803, 29720.34
344.1624, 29734.56
344.6445, 29748.45
345.1266, 29765.78
345.6087, 29789.25
346.0909, 29812.05
346.5730, 29830.63
347.0551, 29847.92
347.5372, 29868.87
348.0193, 29897.02
348.5014, 29925.23
348.9836, 29938.83
349.4657, 29932.61
349.9478, 29929.17
350.4299, 29935.11
350.9120, 29945.63
351.3941, 29959.24
351.8763, 29975.38
352.3584, 29990.23
352.8405, 29997.48
353.3226, 29996.77
353.8047, 30002.13
354.2868, 30018.43
354.7690, 30038.44
355.2511, 30055.53
355.7332, 30071.35
356.2153, 30093.12
356.6974, 30131.92
357.1795, 30181.51
357.6617, 30217.09
358.1438, 30235.29
358.6259, 30245.09
359.1080, 30243.64
359.5901, 30238.95
360.0722, 30244.79
360.5544, 30269.11
361.0365, 30302.43
361.5186, 30334.13
362.0007, 30364.66
362.4828, 30388.23
362.9649, 30399.38
363.4471, 30403.55
363.9292, 30406.32
364.4113, 30407.74
364.8934, 30409.80
365.3755, 30412.96
365.8576, 30417.62
366.3398, 30425.93
366.8219, 30437.49
367.3040, 30454.65
367.7861, 30482.21
368.2682, 30519.06
368.7503, 30553.76
369.2325, 30584.83
369.7146, 30610.19
370.1967, 30625.16
370.6788, 30628.63
371.1609, 30626.69
371.6430, 30621.62
372.1252, 30614.62
372.6073, 30609.94
373.0894, 30606.61
373.5715, 30607.01
374.0536, 30615.58
374.5357, 30630.80
375.0179, 30643.43
375.5000, 30647.64
375.9821, 30647.62
376.4642, 30654.18
376.9463, 30671.41
377.4284, 30685.02
377.9106, 30683.90
378.3927, 30677.02
378.8748, 30681.29
379.3569, 30701.98
379.8390, 30728.55
380.3211, 30747.16
380.8033, 30755.74
381.2854, 30769.05
381.7675, 30794.87
382.2496, 30820.88
382.7317, 30835.67
383.2138, 30839.71
383.6960, 30842.10
384.1781, 30848.24
384.6602, 30858.49
385.1423, 30879.64
385.6244, 30920.98
386.1065, 30960.24
386.5887, 30992.21
387.0708, 31016.47
387.5529, 31030.80
388.0350, 31033.71
388.5171, 31031.65
388.9992, 31039.16
389.4814, 31067.52
389.9635, 31088.41
390.4456, 31097.71
390.9277, 31102.62
391.4098, 31106.80
391.8919, 31112.06
392.3741, 31121.09
392.8562, 31136.40
393.3383, 31158.08
393.8204, 31187.53
394.3025, 31234.08
394.7846, 31278.49
395.2668, 31317.76
395.7489, 31349.88
396.2310, 31370.84
396.7131, 31377.35
397.1952, 31374.58
397.6773, 31381.13
398.1595, 31404.96
398.6416, 31425.01
399.1237, 31436.46
399.6058, 31444.64
400.0879, 31452.49
400.5700, 31461.28
401.0522, 31473.34
401.5343, 31493.80
402.0164, 31525.03
402.4985, 31549.45
402.9806, 31553.60
403.4627, 31562.98
403.9449, 31593.73
404.4270, 31638.93
404.9091, 31680.15
405.3912, 31705.49
405.8733, 31718.72
406.3554, 31730.78
406.8376, 31740.60
407.3197, 31751.90
407.8018, 31766.37
408.2839, 31782.92
408.7660, 31800.39
409.2481, 31818.54
409.7303, 31838.50
410.2124, 31864.21
410.6945, 31894.98
411.1766, 31919.81
411.6587, 31936.87
412.1408, 31946.61
412.6230, 31945.10
413.1051, 31934.72
413.5872, 31933.52
414.0693, 31958.66
414.5514, 31994.17
415.0335, 32012.60
415.5157, 32011.07
415.9978, 32007.51
416.4799, 32014.38
416.9620, 32027.63
417.4441, 32033.75
417.9262, 32020.44
418.4084, 32015.51
418.8905, 32044.34
419.3726, 32094.10
419.8547, 32130.39
420.3368, 32140.09
420.8189, 32136.72
421.3011, 32140.42
421.7832, 32151.41
422.2653, 32168.58
422.7474, 32198.04
423.2295, 32229.74
423.7116, 32256.07
424.1938, 32276.25
424.6759, 32291.67
425.1580, 32302.20
425.6401, 32308.48
426.1222, 32323.45
426.6043, 32354.42
427.0865, 32383.83
427.5686, 32406.87
428.0507, 32425.68
428.5328, 32441.78
429.0149, 32455.91
429.4970, 32472.04
429.9792, 32498.75
430.4613, 32547.76
430.9434, 32581.27
431.4255, 32594.45
431.9076, 32599.56
432.3897, 32599.05
432.8719, 32596.26
433.3540, 32597.49
433.8361, 32608.22
434.3182, 32627.26
434.8003, 32645.32
435.2824, 32659.74
435.7646, 32677.88
436.2467, 32705.31
436.7288, 32735.21
437.2109, 32760.68
437.6930, 32779.61
438.1751, 32793.23
438.6573, 32802.01
439.1394, 32805.52
439.6215, 32808.68
440.1036, 32809.03
440.5857, 32812.68
441.0678, 32818.85
441.5500, 32830.12
442.0321, 32855.62
442.5142, 32914.81
442.9963, 32985.34
443.4784, 33025.28
443.9605, 33031.95
444.4427, 33027.95
444.9248, 33015.84
445.4069, 33004.25
445.8890, 33008.99
446.3711, 33036.61
446.8532, 33064.27
447.3354, 33076.30
447.8175, 33079.63
448.2996, 33089.27
448.7817, 33108.75
449.2638, 33133.54
449.7459, 33160.83
450.2281, 33190.80
450.7102, 33213.50
451.1923, 33221.76
451.6744, 33228.58
452.1565, 33240.69
452.6386, 33258.02
453.1208, 33281.32
453.6029, 33312.71
454.0850, 33344.84
454.5671, 33356.96
455.0492, 33318.59
455.5313, 33301.87
456.0135, 33320.84
456.4956, 33352.92
456.9777, 33384.64
457.4598, 33411.67
457.9419, 33430.81
458.4240, 33436.80
458.9062, 33429.38
459.3883, 33437.01
459.8704, 33479.43
460.3525, 33515.47
460.8346, 33529.45
461.3167, 33534.56
461.7989, 33550.19
462.2810, 33583.96
462.7631, 33621.36
463.2452, 33635.71
463.7273, 33620.59
464.2094, 33620.33
464.6916, 33655.57
465.1737, 33692.47
465.6558, 33710.61
466.1379, 33712.80
466.6200, 33712.67
467.1021, 33711.53
467.5843, 33715.39
468.0664, 33742.20
468.5485, 33796.41
469.0306, 33841.83
469.5127, 33861.21
469.9948, 33862.27
470.4770, 33854.02
470.9591, 33830.73
471.4412, 33822.00
471.9233, 33853.05
472.4054, 33906.44
472.8875, 33949.69
473.3697, 33976.84
473.8518, 34000.30
474.3339, 34032.99
474.8160, 34074.29
475.2981, 34101.95
475.7802, 34113.16
476.2624, 34113.95
476.7445, 34097.73
477.2266, 34074.22
477.7087, 34061.57
478.1908, 34066.84
478.6729, 34083.10
479.1551, 34098.13
479.6372, 34110.25
480.1193, 34124.66
480.6014, 34141.32
481.0835, 34159.79
481.5656, 34181.02
482.0478, 34203.90
482.5299, 34226.11
483.0120, 34246.25
483.4941, 34264.51
483.9762, 34280.74
484.4583, 34294.67
484.9405, 34307.56
485.4226, 34322.30
485.9047, 34334.85
486.3868, 34338.13
486.8689, 34332.87
487.3510, 34332.69
487.8332, 34355.34
488.3153, 34394.48
488.7974, 34418.23
489.2795, 34420.96
489.7616, 34419.08
490.2437, 34413.66
490.7259, 34412.05
491.2080, 34430.02
491.6901, 34481.63
492.1722, 34530.39
492.6543, 34539.82
493.1364, 34524.71
493.6186, 34532.07
494.1007, 34578.09
494.5828, 34630.83
495.0649, 34651.66
495.5470, 34636.68
496.0291, 34632.45
496.5113, 34652.61
496.9934, 34672.72
497.4755, 34675.12
497.9576, 34666.05
498.4397, 34662.86
498.9218, 34674.14
499.4040, 34692.98
499.8861, 34703.49
500.3682, 34698.70
500.8503, 34698.20
501.3324, 34700.04
501.8145, 34707.15
502.2967, 34722.48
502.7788, 34744.81
503.2609, 34771.09
503.7430, 34800.65
504.2251, 34830.96
504.7072, 34851.75
505.1894, 34860.12
505.6715, 34865.53
506.1536, 34864.56
506.6357, 34865.55
507.1178, 34877.90
507.5999, 34902.07
508.0821, 34925.00
508.5642, 34933.60
509.0463, 34933.76
509.5284, 34943.61
510.0105, 34965.80
510.4926, 34991.51
510.9748, 35022.07
511.4569, 35050.10
511.9390, 35057.31
512.4211, 35027.37
512.9032, 35004.48
513.3853, 35014.57
513.8674, 35044.84
514.3495, 35075.85
514.8317, 35103.33
515.3138, 35125.01
515.7959, 35137.43
516.2780, 35139.58
516.7601, 35146.63
517.2422, 35162.81
517.7244, 35178.19
518.2065, 35189.46
518.6886, 35197.91
519.1707, 35204.27
519.6528, 35209.22
520.1349, 35216.28
520.6171, 35231.73
521.0992, 35258.38
521.5813, 35282.94
522.0634, 35309.05
522.5455, 35329.51
523.0276, 35337.38
523.5098, 35338.46
523.9919, 35343.96
524.4740, 35360.11
524.9561, 35379.10
525.4382, 35385.11
525.9203, 35377.55
526.4025, 35388.28
526.8846, 35439.05
527.3667, 35490.61
527.8488, 35495.09
528.3309, 35461.18
528.8130, 35447.26
529.2952, 35487.48
529.7773, 35541.59
530.2594, 35571.21
530.7415, 35580.80
531.2236, 35596.29
531.7057, 35630.83
532.1879, 35672.45
532.6700, 35697.80
533.1521, 35698.99
533.6342, 35701.26
534.1163, 35699.21
534.5984, 35703.42
535.0806, 35728.86
535.5627, 35767.20
536.0448, 35792.89
536.5269, 35788.44
537.0090, 35767.36
537.4911, 35773.21
537.9733, 35824.63
538.4554, 35861.79
538.9375, 35864.21
539.4196, 35862.00
539.9017, 35875.37
540.3839, 35902.33
540.8660, 35926.88
541.3481, 35939.17
541.8302, 35942.06
542.3123, 35938.20
542.7944, 35925.93
543.2766, 35923.55
543.7587, 35943.28
544.2408, 35973.21
544.7229, 35995.92
545.2050, 36011.02
545.6871, 36024.56
546.1693, 36036.98
546.6514, 36049.81
547.1335, 36065.00
547.6156, 36082.36
548.0977, 36100.57
548.5798, 36119.04
549.0620, 36137.07
549.5441, 36152.50
550.0262, 36153.75
550.5083, 36167.63
550.9904, 36202.67
551.4725, 36243.50
551.9547, 36280.68
552.4368, 36312.55
552.9189, 36340.43
553.4010, 36364.79
553.8831, 36386.35
554.3652, 36407.96
554.8474, 36430.85
555.3295, 36450.99
555.8116, 36466.96
556.2937, 36480.49
556.7758, 36489.95
557.2579, 36496.38
557.7401, 36508.45
558.2222, 36537.36
558.7043, 36572.79
559.1864, 36595.69
559.6685, 36605.35
560.1506, 36614.34
560.6328, 36627.62
561.1149, 36644.57
561.5970, 36666.04
562.0791, 36695.39
562.5612, 36716.64
563.0433, 36714.70
563.5255, 36712.15
564.0076, 36731.02
564.4897, 36768.45
564.9718, 36807.42
565.4539, 36837.89
565.9360, 36859.57
566.4182, 36869.55
566.9003, 36854.83
567.3824, 36854.09
567.8645, 36880.52
568.3466, 36911.67
568.8287, 36935.57
569.3109, 36951.69
569.7930, 36963.20
570.2751, 36972.07
570.7572, 36977.87
571.2393, 36977.73
571.7214, 36970.86
572.2036, 36967.76
572.6857, 36972.21
573.1678, 36981.32
573.6499, 36989.05
574.1320, 36995.30
574.6141, 37012.54
575.0963, 37054.63
575.5784, 37100.49
576.0605, 37129.81
576.5426, 37146.52
577.0247, 37168.89
577.5068, 37206.31
577.9890, 37245.79
578.4711, 37261.26
578.9532, 37236.60
579.4353, 37229.45
579.9174, 37252.39
580.3995, 37278.20
580.8817, 37293.28
581.3638, 37301.59
581.8459, 37313.04
582.3280, 37332.67
582.8101, 37354.74
583.2922, 37367.49
583.7744, 37369.54
584.2565, 37382.06
584.7386, 37411.73
585.2207, 37447.02
585.7029, 37487.05
586.1850, 37526.23
586.6671, 37548.49
587.1492, 37540.02
587.6313, 37526.91
588.1135, 37523.28
588.5956, 37529.76
589.0777, 37551.96
589.5598, 37591.66
590.0419, 37632.48
590.5240, 37656.21
591.0062, 37661.85
591.4883, 37672.43
591.9704, 37699.57
592.4525, 37717.40
592.9346, 37709.54
593.4167, 37694.39
593.8989, 37694.94
594.3810, 37715.25
594.8631, 37739.04
595.3452, 37745.43
595.8273, 37737.63
596.3094, 37753.96
596.7916, 37805.24
597.2737, 37856.69
597.7558, 37904.58
598.2379, 37939.38
598.7200, 37942.54
599.2021, 37908.05
599.6843, 37880.96
600.1664, 37888.70
600.6485, 37914.93
601.1306, 37937.54
601.6127, 37954.94
602.0948, 37974.12
602.5770, 37999.71
603.0591, 38028.27
603.5412, 38050.34
604.0233, 38056.88
604.5054, 38071.49
604.9875, 38105.81
605.4697, 38137.86
605.9518, 38151.14
606.4339, 38150.26
606.9160, 38149.40
607.3981, 38156.50
607.8802, 38168.17
608.3624, 38173.24
608.8445, 38168.19
609.3266, 38188.25
609.8087, 38256.34
610.2908, 38328.72
610.7729, 38375.38
611.2551, 38400.95
611.7372, 38418.09
612.2193, 38426.93
612.7014, 38432.12
613.1835, 38431.94
613.6656, 38431.20
614.1478, 38443.26
614.6299, 38471.10
615.1120, 38500.29
615.5941, 38514.82
616.0762, 38514.45
616.5583, 38525.32
617.0405, 38559.16
617.5226, 38589.13
618.0047, 38612.00
618.4868, 38628.31
618.9689, 38635.51
619.4510, 38635.31
619.9332, 38637.50
620.4153, 38654.78
620.8974, 38680.38
621.3795, 38684.18
621.8616, 38660.00
622.3438, 38649.49
622.8259, 38673.81
623.3080, 38715.34
623.7901, 38752.14
624.2722, 38784.64
624.7543, 38811.21
625.2365, 38827.30
625.7186, 38841.14
626.2007, 38857.14
626.6828, 38876.29
627.1649, 38900.42
627.6470, 38930.33
628.1292, 38963.33
628.6113, 38995.18
629.0934, 39024.51
629.5755, 39056.92
630.0576, 39108.86
630.5397, 39144.81
631.0219, 39138.06
631.5040, 39114.77
631.9861, 39111.25
632.4682, 39138.21
632.9503, 39177.27
633.4324, 39215.87
633.9146, 39253.28
634.3967, 39287.82
634.8788, 39319.90
635.3609, 39343.80
635.8430, 39353.24
636.3251, 39354.12
636.8073, 39363.16
637.2894, 39383.67
637.7715, 39403.52
638.2536, 39418.43
638.7357, 39434.05
639.2178, 39459.38
639.7000, 39489.36
640.1821, 39507.04
640.6642, 39502.11
641.1463, 39489.53
641.6284, 39503.05
642.1105, 39549.32
642.5927, 39585.09
643.0748, 39605.95
643.5569, 39615.77
644.0390, 39608.63
644.5211, 39594.61
645.0032, 39596.23
645.4854, 39626.29
645.9675, 39654.85
646.4496, 39656.98
646.9317, 39645.67
647.4138, 39647.46
647.8959, 39665.45
648.3781, 39679.45
648.8602, 39672.24
649.3423, 39651.13
649.8244, 39650.68
650.3065, 39692.82
650.7886, 39723.34
651.2708, 39727.25
651.7529, 39730.90
652.2350, 39756.00
652.7171, 39796.26
653.1992, 39830.32
653.6813, 39847.06
654.1635, 39851.61
654.6456, 39846.87
655.1277, 39834.08
655.6098, 39830.00
656.0919, 39836.54
656.5740, 39855.61
657.0562, 39894.23
657.5383, 39948.82
658.0204, 39992.24
658.5025, 40012.88
658.9846, 40036.46
659.4667, 40077.73
659.9489, 40120.83
660.4310, 40147.09
660.9131, 40156.38
661.3952, 40161.97
661.8773, 40173.01
662.3594, 40189.26
662.8416, 40211.16
663.3237, 40241.57
663.8058, 40267.95
664.2879, 40290.11
664.7700, 40305.49
665.2521, 40305.31
665.7343, 40296.50
666.2164, 40302.76
666.6985, 40338.50
667.1806, 40381.00
667.6627, 40415.81
668.1448, 40445.64
668.6270, 40479.25
669.1091, 40517.06
669.5912, 40542.04
670.0733, 40534.61
670.5554, 40502.85
671.0375, 40507.23
671.5197, 40583.08
672.0018, 40636.82
672.4839, 40638.02
672.9660, 40633.00
673.4481, 40655.16
673.9302, 40699.70
674.4124, 40741.64
674.8945, 40767.21
675.3766, 40785.81
675.8587, 40811.19
676.3408, 40840.48
676.8229, 40857.98
677.3051, 40858.57
677.7872, 40859.00
678.2693, 40874.02
678.7514, 40902.71
679.2335, 40933.69
679.7156, 40974.26
680.1978, 41007.75
680.6799, 41034.02
681.1620, 41051.13
681.6441, 41050.82
682.1262, 41038.75
682.6083, 41033.29
683.0905, 41046.30
683.5726, 41071.20
684.0547, 41101.33
684.5368, 41136.43
685.0189, 41149.20
685.5010, 41123.81
685.9832, 41099.01
686.4653, 41111.24
686.9474, 41153.05
687.4295, 41184.00
687.9116, 41201.86
688.3937, 41210.58
688.8759, 41204.85
689.3580, 41195.08
689.8401, 41189.38
690.3222, 41190.05
690.8043, 41198.29
691.2864, 41214.91
691.7686, 41239.97
692.2507, 41278.15
692.7328, 41334.67
693.2149, 41370.64
693.6970, 41367.88
694.1791, 41362.29
694.6613, 41380.40
695.1434, 41413.64
695.6255, 41444.26
696.1076, 41470.14
696.5897, 41491.42
697.0718, 41507.07
697.5540, 41518.57
698.0361, 41520.65
698.5182, 41518.10
699.0003, 41533.48
699.4824, 41582.36
699.9645, 41648.24
700.4467, 41689.16
700.9288, 41697.10
701.4109, 41710.21
701.8930, 41741.36
702.3751, 41764.71
702.8572, 41760.58
703.3394, 41743.13
703.8215, 41737.03
704.3036, 41749.70
704.7857, 41764.50
705.2678, 41765.45
705.7499, 41766.42
706.2321, 41790.41
706.7142, 41834.86
707.1963, 41878.15
707.6784, 41909.57
708.1605, 41932.17
708.6426, 41950.98
709.1248, 41962.74
709.6069, 41982.70
710.0890, 42025.64
710.5711, 42059.12
711.0532, 42062.26
711.5353, 42054.24
712.0175, 42060.30
712.4996, 42085.75
712.9817, 42116.39
713.4638, 42143.46
713.9459, 42170.59
714.4280, 42206.41
714.9102, 42248.05
715.3923, 42280.82
715.8744, 42298.22
716.3565, 42304.30
716.8386, 42302.40
717.3207, 42288.73
717.8029, 42294.18
718.2850, 42341.75
718.7671, 42380.01
719.2492, 42388.40
719.7313, 42387.98
720.2134, 42401.02
720.6956, 42429.26
721.1777, 42456.68
721.6598, 42470.11
722.1419, 42480.17
722.6240, 42500.20
723.1061, 42528.79
723.5883, 42563.33
724.0704, 42603.84
724.5525, 42637.25
725.0346, 42647.67
725.5167, 42635.99
725.9988, 42636.60
726.4810, 42655.13
726.9631, 42678.30
727.4452, 42713.82
727.9273, 42745.82
728.4094, 42760.77
728.8915, 42760.99
729.3737, 42757.43
729.8558, 42750.52
730.3379, 42750.12
730.8200, 42774.63
731.3021, 42813.62
731.7842, 42834.50
732.2664, 42832.02
732.7485, 42831.86
733.2306, 42855.00
733.7127, 42893.86
734.1948, 42917.30
734.6769, 42908.52
735.1591, 42915.40
735.6412, 42948.98
736.1233, 42987.55
736.6054, 43027.43
737.0875, 43062.51
737.5696, 43080.74
738.0518, 43075.92
738.5339, 43068.30
739.0160, 43073.29
739.4981, 43086.57
739.9802, 43100.36
740.4623, 43114.20
740.9445, 43130.89
741.4266, 43151.66
741.9087, 43176.05
742.3908, 43203.92
742.8729, 43236.89
743.3550, 43266.04
743.8372, 43287.60
744.3193, 43309.44
744.8014, 43339.08
745.2835, 43366.89
745.7656, 43380.87
746.2477, 43380.01
746.7299, 43376.55
747.2120, 43366.81
747.6941, 43366.08
748.1762, 43402.15
748.6583, 43462.91
749.1404, 43509.18
749.6226, 43529.98
750.1047, 43540.71
750.5868, 43556.96
751.0689, 43577.70
751.5510, 43589.83
752.0331, 43581.32
752.5153, 43587.33
752.9974, 43632.10
753.4795, 43676.64
753.9616, 43690.87
754.4437, 43683.68
754.9258, 43686.50
755.4080, 43712.45
755.8901, 43742.92
756.3722, 43764.63
756.8543, 43782.73
757.3364, 43806.00
757.8185, 43834.06
758.3007, 43859.42
758.7828, 43877.10
759.2649, 43891.82
759.7470, 43914.71
760.2291, 43948.52
760.7112, 43978.82
761.1934, 44005.90
761.6755, 44029.14
762.1576, 44046.52
762.6397, 44061.02
763.1218, 44078.29
763.6039, 44100.33
764.0861, 44112.26
764.5682, 44095.71
765.0503, 44079.57
765.5324, 44088.06
766.0145, 44113.65
766.4966, 44141.36
766.9788, 44166.23
767.4609, 44189.62
767.9430, 44214.80
768.4251, 44238.86
768.9072, 44242.61
769.3893, 44219.42
769.8715, 44209.92
770.3536, 44226.24
770.8357, 44255.99
771.3178, 44293.96
771.7999, 44336.97
772.2820, 44368.68
772.7642, 44380.89
773.2463, 44391.33
773.7284, 44399.10
774.2105, 44411.40
774.6926, 44440.80
775.1747, 44480.66
775.6569, 44510.62
776.1390, 44520.16
776.6211, 44520.64
777.1032, 44523.68
777.5853, 44530.63
778.0674, 44551.84
778.5496, 44590.05
779.0317, 44625.64
779.5138, 44647.48
779.9959, 44664.23
780.4780, 44692.83
780.9601, 44740.34
781.4423, 44771.02
781.9244, 44770.93
782.4065, 44771.83
782.8886, 44784.71
783.3707, 44803.00
783.8528, 44815.96
784.3350, 44824.52
784.8171, 44844.39
785.2992, 44895.37
785.7813, 44951.07
786.2634, 44969.63
786.7455, 44963.72
787.2277, 44976.17
787.7098, 45015.27
788.1919, 45063.68
788.6740, 45110.30
789.1561, 45151.03
789.6382, 45167.25
790.1204, 45137.77
790.6025, 45134.76
791.0846, 45184.07
791.5667, 45236.09
792.0488, 45268.69
792.5309, 45290.36
793.0131, 45314.15
793.4952, 45342.05
793.9773, 45374.33
794.4594, 45420.79
794.9415, 45463.75
795.4236, 45486.55
795.9058, 45492.42
796.3879, 45485.99
796.8700, 45470.61
797.3521, 45461.05
797.8342, 45474.46
798.3163, 45505.98
798.7985, 45530.30
799.2806, 45546.01
799.7627, 45561.64
800.2448, 45578.81
800.7269, 45596.57
801.2090, 45619.16
801.6912, 45642.15
802.1733, 45644.89
802.6554, 45602.56
803.1375, 45578.68
803.6196, 45587.21
804.1017, 45615.86
804.5839, 45658.87
805.0660, 45714.50
805.5481, 45790.63
806.0302, 45891.00
806.5123, 45972.07
806.9944, 45973.48
807.4766, 45928.42
807.9587, 45918.25
808.4408, 45943.04
808.9229, 45966.92
809.4050, 45977.36
809.8871, 45980.88
810.3693, 45984.98
810.8514, 45989.82
811.3335, 45991.46
811.8156, 45986.30
812.2977, 45984.20
812.7798, 45978.30
813.2620, 45982.87
813.7441, 46010.82
814.2262, 46056.52
814.7083, 46104.02
815.1904, 46148.39
815.6725, 46194.78
816.1547, 46253.64
816.6368, 46310.63
817.1189, 46348.92
817.6010, 46369.96
818.0831, 46380.00
818.5652, 46381.99
819.0474, 46384.44
819.5295, 46397.48
820.0116, 46420.81
820.4937, 46456.41
820.9758, 46507.68
821.4579, 46549.11
821.9401, 46569.07
822.4222, 46582.49
822.9043, 46606.59
823.3864, 46640.64
823.8685, 46666.66
824.3506, 46678.16
824.8328, 46691.48
825.3149, 46719.20
825.7970, 46740.91
826.2791, 46727.83
826.7612, 46699.25
827.2433, 46705.55
827.7255, 46769.59
828.2076, 46835.50
828.6897, 46852.82
829.1718, 46843.11
829.6539, 46835.32
830.1360, 46833.32
830.6182, 46846.45
831.1003, 46878.37
831.5824, 46914.36
832.0645, 46936.79
832.5466, 46946.51
833.0287, 46952.09
833.5109, 46948.96
833.9930, 46954.20
834.4751, 46970.11
834.9572, 46996.12
835.4393, 47040.53
835.9214, 47094.35
836.4036, 47130.60
836.8857, 47136.57
837.3678, 47145.90
837.8499, 47165.79
838.3320, 47192.70
838.8141, 47231.89
839.2963, 47273.96
839.7784, 47301.05
840.2605, 47308.44
840.7426, 47312.75
841.2247, 47332.05
841.7068, 47357.41
842.1890, 47367.10
842.6711, 47365.21
843.1532, 47374.49
843.6353, 47401.04
844.1174, 47434.07
844.5995, 47463.68
845.0817, 47491.74
845.5638, 47527.73
846.0459, 47577.99
846.5280, 47616.59
847.0101, 47631.12
847.4922, 47646.50
847.9744, 47684.61
848.4565, 47727.58
848.9386, 47745.79
849.4207, 47733.43
849.9028, 47722.84
850.3849, 47716.33
850.8671, 47721.36
851.3492, 47753.46
851.8313, 47794.38
852.3134, 47816.25
852.7955, 47818.23
853.2776, 47826.00
853.7598, 47860.55
854.2419, 47901.50
854.7240, 47908.85
855.2061, 47894.82
855.6882, 47916.70
856.1703, 47980.31
856.6525, 48029.95
857.1346, 48031.43
857.6167, 48010.34
858.0988, 48015.98
858.5809, 48053.27
859.0630, 48083.56
859.5452, 48106.45
860.0273, 48122.99
860.5094, 48127.14
860.9915, 48130.52
861.4736, 48143.83
861.9557, 48166.34
862.4379, 48191.21
862.9200, 48227.04
863.4021, 48252.37
863.8842, 48254.62
864.3663, 48248.13
864.8484, 48238.45
865.3306, 48231.89
865.8127, 48241.21
866.2948, 48271.00
866.7769, 48303.75
867.2590, 48319.44
867.7411, 48326.30
868.2233, 48337.76
868.7054, 48355.25
869.1875, 48390.85
869.6696, 48448.23
870.1517, 48499.94
870.6339, 48518.50
871.1160, 48511.48
871.5981, 48512.89
872.0802, 48524.06
872.5623, 48539.70
873.0444, 48562.10
873.5266, 48584.68
874.0087, 48600.29
874.4908, 48615.74
874.9729, 48646.48
875.4550, 48698.20
875.9371, 48733.32
876.4193, 48735.73
876.9014, 48733.77
877.3835, 48735.04
877.8656, 48740.42
878.3477, 48745.14
878.8298, 48753.18
879.3120, 48782.73
879.7941, 48851.60
880.2762, 48920.65
880.7583, 48943.33
881.2404, 48943.64
881.7225, 48965.37
882.2047, 49007.80
882.6868, 49049.45
883.1689, 49081.04
883.6510, 49101.15
884.1331, 49105.01
884.6152, 49095.89
885.0974, 49098.67
885.5795, 49114.80
886.0616, 49135.39
886.5437, 49164.12
887.0258, 49182.54
887.5079, 49171.41
887.9901, 49139.04
888.4722, 49118.24
888.9543, 49113.72
889.4364, 49112.60
889.9185, 49113.02
890.4006, 49119.32
890.8828, 49133.94
891.3649, 49155.22
891.8470, 49180.90
892.3291, 49210.94
892.8112, 49247.83
893.2933, 49294.11
893.7755, 49345.98
894.2576, 49418.49
894.7397, 49484.42
895.2218, 49501.32
895.7039, 49477.28
896.1860, 49451.55
896.6682, 49442.24
897.1503, 49447.18
897.6324, 49467.82
898.1145, 49499.39
898.5966, 49529.98
899.0787, 49558.65
899.5609, 49584.52
900.0430, 49607.42
900.5251, 49621.04
901.0072, 49615.96
901.4893, 49599.58
901.9714, 49613.89
902.4536, 49676.03
902.9357, 49702.54
903.4178, 49663.73
903.8999, 49629.09
904.3820, 49636.90
904.8641, 49670.77
905.3463, 49706.47
905.8284, 49745.89
906.3105, 49774.16
906.7926, 49782.90
907.2747, 49790.80
907.7568, 49803.77
908.2390, 49818.96
908.7211, 49836.76
909.2032, 49854.62
909.6853, 49864.14
910.1674, 49858.59
910.6495, 49860.18
911.1317, 49887.34
911.6138, 49926.41
912.0959, 49962.84
912.5780, 49997.68
913.0601, 50037.83
913.5422, 50084.05
914.0244, 50126.99
914.5065, 50158.46
914.9886, 50181.20
915.4707, 50198.54
915.9528, 50211.77
916.4349, 50227.89
916.9171, 50247.30
917.3992, 50289.32
917.8813, 50369.85
918.3634, 50457.03
918.8455, 50494.39
919.3276, 50478.17
919.8098, 50483.24
920.2919, 50523.91
920.7740, 50549.43
921.2561, 50538.01
921.7382, 50521.48
922.2203, 50528.90
922.7025, 50553.32
923.1846, 50564.91
923.6667, 50550.00
924.1488, 50553.46
924.6309, 50607.50
925.1130, 50649.20
925.5952, 50634.34
926.0773, 50600.76
926.5594, 50591.26
927.0415, 50611.35
927.5236, 50649.23
928.0057, 50711.82
928.4879, 50772.94
928.9700, 50816.37
929.4521, 50848.11
929.9342, 50870.56
930.4163, 50888.35
930.8984, 50911.80
931.3806, 50944.55
931.8627, 50978.80
932.3448, 51008.36
932.8269, 51032.99
933.3090, 51052.67
933.7911, 51067.05
934.2733, 51070.40
934.7554, 51062.71
935.2375, 51062.46
935.7196, 51082.48
936.2017, 51115.81
936.6838, 51149.07
937.1660, 51182.60
937.6481, 51214.39
938.1302, 51246.85
938.6123, 51266.45
939.0944, 51265.26
939.5765, 51256.49
940.0587, 51249.31
940.5408, 51246.20
941.0229, 51265.74
941.5050, 51328.80
941.9871, 51376.27
942.4692, 51394.25
942.9514, 51409.80
943.4335, 51427.83
943.9156, 51452.06
944.3977, 51491.20
944.8798, 51544.87
945.3619, 51588.42
945.8441, 51605.47
946.3262, 51625.40
946.8083, 51663.71
947.2904, 51704.27
947.7725, 51740.30
948.2546, 51765.98
948.7368, 51764.43
949.2189, 51729.70
949.7010, 51712.45
950.1831, 51761.21
950.6652, 51829.96
951.1473, 51878.27
951.6295, 51910.72
952.1116, 51938.42
952.5937, 51961.63
953.0758, 51967.25
953.5579, 51945.79
954.0400, 51922.71
954.5222, 51936.05
955.0043, 51974.81
955.4864, 52010.55
955.9685, 52041.05
956.4506, 52059.62
956.9327, 52064.09
957.4149, 52064.25
957.8970, 52066.32
958.3791, 52075.52
958.8612, 52112.22
959.3433, 52178.37
959.8254, 52242.29
960.3076, 52307.10
960.7897, 52342.37
961.2718, 52324.90
961.7539, 52292.84
962.2360, 52295.12
962.7181, 52330.21
963.2003, 52360.53
963.6824, 52388.93
964.1645, 52406.78
964.6466, 52399.68
965.1287, 52399.32
965.6108, 52427.71
966.0930, 52471.19
966.5751, 52513.45
967.0572, 52555.47
967.5393, 52580.59
968.0214, 52564.36
968.5035, 52560.98
968.9857, 52589.76
969.4678, 52632.20
969.9499, 52679.97
970.4320, 52728.42
970.9141, 52772.60
971.3962, 52811.62
971.8784, 52840.93
972.3605, 52847.90
972.8426, 52855.11
973.3247, 52885.95
973.8068, 52921.14
974.2889, 52928.41
974.7711, 52914.26
975.2532, 52918.73
975.7353, 52963.48
976.2174, 53008.66
976.6995, 53009.22
977.1816, 52994.76
977.6638, 53013.94
978.1459, 53051.99
978.6280, 53059.98
979.1101, 53033.57
979.5922, 53020.70
980.0743, 53057.01
980.5565, 53116.08
981.0386, 53158.40
981.5207, 53186.98
982.0028, 53209.63
982.4849, 53227.58
982.9670, 53245.36
983.4492, 53264.38
983.9313, 53289.18
984.4134, 53325.49
984.8955, 53368.22
985.3776, 53401.96
985.8597, 53426.39
986.3419, 53443.38
986.8240, 53450.87
987.3061, 53462.46
987.7882, 53482.42
988.2703, 53513.47
988.7524, 53561.13
989.2346, 53623.47
989.7167, 53680.25
990.1988, 53734.70
990.6809, 53774.52
991.1630, 53800.09
991.6451, 53807.27
992.1273, 53779.29
992.6094, 53744.88
993.0915, 53747.50
993.5736, 53788.70
994.0557, 53837.31
994.5378, 53909.70
995.0200, 53964.84
995.5021, 53990.21
995.9842, 54006.52
996.4663, 54013.43
996.9484, 54023.39
997.4305, 54065.19
997.9127, 54145.30
998.3948, 54192.86
998.8769, 54158.38
999.3590, 54140.34
999.8411, 54192.79
1000.323, 54250.83
1000.805, 54258.46
1001.287, 54233.92
1001.770, 54217.90
1002.252, 54218.77
1002.734, 54235.28
1003.216, 54285.89
1003.698, 54330.10
1004.180, 54336.78
1004.662, 54330.21
1005.144, 54331.32
1005.627, 54344.43
1006.109, 54375.41
1006.591, 54427.68
1007.073, 54470.55
1007.555, 54472.61
1008.037, 54465.18
1008.519, 54475.13
1009.001, 54497.92
1009.483, 54530.44
1009.966, 54567.29
1010.448, 54594.05
1010.930, 54603.24
1011.412, 54610.35
1011.894, 54633.41
1012.376, 54662.20
1012.858, 54676.86
1013.340, 54685.05
1013.823, 54710.86
1014.305, 54754.61
1014.787, 54790.67
1015.269, 54803.23
1015.751, 54816.74
1016.233, 54874.69
1016.715, 54956.82
1017.197, 55005.41
1017.679, 55024.37
1018.162, 55033.92
1018.644, 55039.70
1019.126, 55049.84
1019.608, 55069.64
1020.090, 55097.08
1020.572, 55131.32
1021.054, 55170.61
1021.536, 55203.57
1022.018, 55230.14
1022.501, 55255.39
1022.983, 55280.46
1023.465, 55305.19
1023.947, 55327.13
1024.429, 55357.20
1024.911, 55433.62
1025.393, 55558.77
1025.875, 55597.30
1026.358, 55535.48
1026.840, 55505.15
1027.322, 55547.82
1027.804, 55594.59
1028.286, 55589.25
1028.768, 55555.97
1029.250, 55557.57
1029.732, 55600.38
1030.214, 55627.24
1030.697, 55628.75
1031.179, 55650.01
1031.661, 55712.88
1032.143, 55774.99
1032.625, 55800.65
1033.107, 55802.82
1033.589, 55818.98
1034.071, 55854.29
1034.553, 55876.41
1035.036, 55863.95
1035.518, 55887.40
1036.000, 55990.56
1036.482, 56096.99
1036.964, 56145.95
1037.446, 56152.71
1037.928, 56161.54
1038.410, 56177.36
1038.893, 56178.54
1039.375, 56147.35
1039.857, 56130.80
1040.339, 56145.96
1040.821, 56173.93
1041.303, 56204.59
1041.785, 56236.64
1042.267, 56263.91
1042.750, 56281.20
1043.232, 56310.59
1043.714, 56361.20
1044.196, 56410.94
1044.678, 56458.56
1045.160, 56498.96
1045.642, 56524.58
1046.124, 56539.96
1046.606, 56555.27
1047.089, 56568.38
1047.571, 56591.06
1048.053, 56631.70
1048.535, 56671.60
1049.017, 56712.05
1049.499, 56744.27
1049.981, 56759.29
1050.463, 56762.07
1050.945, 56763.39
1051.428, 56764.89
1051.910, 56764.33
1052.392, 56755.13
1052.874, 56753.13
1053.356, 56762.65
1053.838, 56782.62
1054.320, 56825.63
1054.802, 56874.11
1055.285, 56890.05
1055.767, 56864.73
1056.249, 56847.31
1056.731, 56858.07
1057.213, 56868.83
1057.695, 56866.63
1058.177, 56863.02
1058.659, 56860.01
1059.141, 56865.04
1059.624, 56893.27
1060.106, 56947.25
1060.588, 57000.51
1061.070, 57052.26
1061.552, 57091.90
1062.034, 57111.07
1062.516, 57120.63
1062.998, 57122.13
1063.480, 57123.02
1063.963, 57131.86
1064.445, 57150.64
1064.927, 57184.14
1065.409, 57249.22
1065.891, 57308.51
1066.373, 57339.04
1066.855, 57365.07
1067.337, 57416.39
1067.820, 57470.15
1068.302, 57481.74
1068.784, 57450.49
1069.266, 57432.19
1069.748, 57454.77
1070.230, 57481.56
1070.712, 57494.30
1071.194, 57507.20
1071.677, 57532.38
1072.159, 57563.90
1072.641, 57593.09
1073.123, 57618.95
1073.605, 57643.54
1074.087, 57666.48
1074.569, 57690.99
1075.051, 57713.29
1075.533, 57743.43
1076.016, 57803.74
1076.498, 57866.68
1076.980, 57892.62
1077.462, 57885.33
1077.944, 57878.07
1078.426, 57878.75
1078.908, 57892.76
1079.390, 57922.55
1079.873, 57966.89
1080.355, 58043.23
1080.837, 58120.42
1081.319, 58163.06
1081.801, 58173.20
1082.283, 58165.43
1082.765, 58139.11
1083.247, 58126.86
1083.729, 58146.28
1084.212, 58180.35
1084.694, 58234.74
1085.176, 58286.01
1085.658, 58301.38
1086.140, 58295.98
1086.622, 58312.03
1087.104, 58360.49
1087.586, 58405.80
1088.068, 58435.48
1088.551, 58455.37
1089.033, 58460.81
1089.515, 58464.80
1089.997, 58484.43
1090.479, 58509.10
1090.961, 58512.36
1091.443, 58491.54
1091.925, 58486.00
1092.408, 58523.36
1092.890, 58561.62
1093.372, 58594.34
1093.854, 58611.85
1094.336, 58595.02
1094.818, 58565.45
1095.300, 58551.29
1095.782, 58556.63
1096.265, 58577.08
1096.747, 58617.01
1097.229, 58661.25
1097.711, 58715.50
1098.193, 58760.62
1098.675, 58772.88
1099.157, 58778.54
1099.639, 58814.75
1100.121, 58874.26
1100.604, 58912.57
1101.086, 58909.96
1101.568, 58917.89
1102.050, 58955.61
1102.532, 58998.56
1103.014, 59043.42
1103.496, 59081.99
1103.978, 59098.79
1104.460, 59105.05
1104.943, 59132.80
1105.425, 59191.07
1105.907, 59241.35
1106.389, 59270.49
1106.871, 59299.12
1107.353, 59326.05
1107.835, 59361.54
1108.317, 59428.39
1108.800, 59501.52
1109.282, 59529.98
1109.764, 59508.27
1110.246, 59509.35
1110.728, 59559.97
1111.210, 59604.34
1111.692, 59647.52
1112.174, 59668.95
1112.656, 59636.44
1113.139, 59592.02
1113.621, 59590.59
1114.103, 59628.58
1114.585, 59658.70
1115.067, 59672.88
1115.549, 59693.21
1116.031, 59724.04
1116.513, 59754.70
1116.995, 59778.10
1117.478, 59804.46
1117.960, 59853.01
1118.442, 59909.18
1118.924, 59921.87
1119.406, 59868.93
1119.888, 59862.95
1120.370, 59934.96
1120.852, 59987.70
1121.335, 59985.37
1121.817, 59986.73
1122.299, 60033.64
1122.781, 60103.83
1123.263, 60158.14
1123.745, 60196.14
1124.227, 60228.52
1124.709, 60257.91
1125.192, 60266.54
1125.674, 60238.00
1126.156, 60233.13
1126.638, 60287.43
1127.120, 60358.26
1127.602, 60394.72
1128.084, 60404.25
1128.566, 60426.46
1129.048, 60464.89
1129.531, 60480.98
1130.013, 60469.45
1130.495, 60464.29
1130.977, 60476.64
1131.459, 60496.07
1131.941, 60513.63
1132.423, 60534.48
1132.905, 60576.75
1133.387, 60637.36
1133.870, 60655.85
1134.352, 60634.57
1134.834, 60637.34
1135.316, 60676.01
1135.798, 60705.43
1136.280, 60699.74
1136.762, 60690.75
1137.244, 60720.88
1137.727, 60778.23
1138.209, 60832.77
1138.691, 60882.40
1139.173, 60912.68
1139.655, 60926.92
1140.137, 60953.69
1140.619, 61002.33
1141.101, 61059.27
1141.583, 61117.55
1142.066, 61165.08
1142.548, 61175.95
1143.030, 61166.21
1143.512, 61166.87
1143.994, 61175.93
1144.476, 61179.09
1144.958, 61177.71
1145.440, 61192.72
1145.922, 61235.54
1146.405, 61285.21
1146.887, 61327.07
1147.369, 61360.80
1147.851, 61389.56
1148.333, 61407.82
1148.815, 61391.70
1149.297, 61360.98
1149.779, 61375.89
1150.262, 61447.46
1150.744, 61499.12
1151.226, 61467.50
1151.708, 61436.70
1152.190, 61467.60
1152.672, 61515.48
1153.154, 61544.48
1153.636, 61564.38
1154.119, 61594.77
1154.601, 61634.59
1155.083, 61665.17
1155.565, 61674.30
1156.047, 61699.25
1156.529, 61784.30
1157.011, 61846.09
1157.493, 61816.48
1157.975, 61777.43
1158.458, 61800.86
1158.940, 61865.77
1159.422, 61925.34
1159.904, 61975.68
1160.386, 62013.92
1160.868, 62030.79
1161.350, 62048.81
1161.832, 62058.18
1162.314, 62085.71
1162.797, 62173.55
1163.279, 62253.79
1163.761, 62240.18
1164.243, 62157.82
1164.725, 62125.21
1165.207, 62155.62
1165.689, 62191.76
1166.171, 62237.23
1166.654, 62279.88
1167.136, 62318.95
1167.618, 62346.78
1168.100, 62353.56
1168.582, 62357.81
1169.064, 62394.20
1169.546, 62457.35
1170.028, 62496.17
1170.510, 62510.09
1170.993, 62510.70
1171.475, 62498.44
1171.957, 62516.38
1172.439, 62581.50
1172.921, 62656.21
1173.403, 62706.96
1173.885, 62743.61
1174.367, 62787.89
1174.849, 62834.17
1175.332, 62864.86
1175.814, 62879.74
1176.296, 62872.15
1176.778, 62847.96
1177.260, 62841.50
1177.742, 62869.43
1178.224, 62913.43
1178.706, 62959.32
1179.189, 63008.54
1179.671, 63074.73
1180.153, 63137.50
1180.635, 63160.54
1181.117, 63156.18
1181.599, 63156.62
1182.081, 63167.13
1182.563, 63168.46
1183.046, 63145.46
1183.528, 63132.92
1184.010, 63157.46
1184.492, 63192.52
1184.974, 63223.62
1185.456, 63252.86
1185.938, 63280.99
1186.420, 63310.57
1186.902, 63349.89
1187.385, 63401.04
1187.867, 63438.48
1188.349, 63434.06
1188.831, 63450.01
1189.313, 63516.17
1189.795, 63582.48
1190.277, 63623.65
1190.759, 63653.51
1191.241, 63686.56
1191.724, 63719.46
1192.206, 63738.95
1192.688, 63738.49
1193.170, 63752.73
1193.652, 63788.61
1194.134, 63818.35
1194.616, 63836.93
1195.098, 63845.88
1195.581, 63841.35
1196.063, 63846.29
1196.545, 63900.16
1197.027, 63982.89
1197.509, 63995.59
1197.991, 63944.70
1198.473, 63927.13
1198.955, 63946.86
1199.438, 63966.25
1199.920, 63975.05
1200.402, 63985.52
1200.884, 64005.44
1201.366, 64031.55
1201.848, 64057.16
1202.330, 64087.29
1202.812, 64146.59
1203.294, 64210.51
1203.776, 64215.37
1204.259, 64179.39
1204.741, 64174.29
1205.223, 64216.88
1205.705, 64262.93
1206.187, 64289.61
1206.669, 64307.44
1207.151, 64314.25
1207.633, 64326.02
1208.116, 64353.48
1208.598, 64394.99
1209.080, 64463.41
1209.562, 64540.27
1210.044, 64574.80
1210.526, 64553.73
1211.008, 64549.05
1211.490, 64578.38
1211.973, 64617.84
1212.455, 64686.56
1212.937, 64732.63
1213.419, 64710.71
1213.901, 64678.79
1214.383, 64695.79
1214.865, 64748.75
1215.347, 64796.86
1215.829, 64841.79
1216.312, 64870.14
1216.794, 64881.45
1217.276, 64878.84
1217.758, 64861.53
1218.240, 64842.41
1218.722, 64826.77
1219.204, 64824.55
1219.686, 64850.91
1220.168, 64890.26
1220.651, 64899.58
1221.133, 64886.68
1221.615, 64870.92
1222.097, 64861.52
1222.579, 64896.01
1223.061, 64973.54
1223.543, 65048.30
1224.025, 65098.29
1224.508, 65146.93
1224.990, 65221.86
1225.472, 65295.19
1225.954, 65332.46
1226.436, 65357.13
1226.918, 65402.19
1227.400, 65450.42
1227.882, 65461.92
1228.365, 65442.46
1228.847, 65445.57
1229.329, 65494.80
1229.811, 65528.90
1230.293, 65512.60
1230.775, 65504.54
1231.257, 65524.29
1231.739, 65558.11
1232.221, 65606.53
1232.703, 65657.76
1233.186, 65697.63
1233.668, 65726.92
1234.150, 65747.45
1234.632, 65752.46
1235.114, 65781.28
1235.596, 65846.23
1236.078, 65872.57
1236.560, 65837.53
1237.043, 65802.88
1237.525, 65804.99
1238.007, 65820.27
1238.489, 65818.42
1238.971, 65805.46
1239.453, 65792.59
1239.935, 65783.47
1240.417, 65791.13
1240.900, 65814.36
1241.382, 65850.52
1241.864, 65895.14
1242.346, 65930.59
1242.828, 65948.03
1243.310, 65963.50
1243.792, 65984.41
1244.274, 66014.88
1244.756, 66059.99
1245.239, 66114.51
1245.721, 66186.44
1246.203, 66256.36
1246.685, 66288.20
1247.167, 66288.42
1247.649, 66309.32
1248.131, 66372.96
1248.613, 66413.30
1249.095, 66407.10
1249.578, 66398.93
1250.060, 66382.39
1250.542, 66388.87
1251.024, 66443.77
1251.506, 66515.43
1251.988, 66570.23
1252.470, 66606.18
1252.952, 66606.21
1253.435, 66568.52
1253.917, 66579.62
1254.399, 66638.98
1254.881, 66693.17
1255.363, 66732.82
1255.845, 66777.57
1256.327, 66836.21
1256.809, 66887.62
1257.292, 66906.01
1257.774, 66919.49
1258.256, 66972.80
1258.738, 67040.63
1259.220, 67094.34
1259.702, 67131.84
1260.184, 67142.97
1260.666, 67140.08
1261.148, 67166.57
1261.630, 67234.53
1262.113, 67272.52
1262.595, 67206.74
1263.077, 67178.96
1263.559, 67264.93
1264.041, 67353.83
1264.523, 67400.77
1265.005, 67417.60
1265.487, 67401.59
1265.970, 67373.13
1266.452, 67381.22
1266.934, 67426.77
1267.416, 67461.66
1267.898, 67486.05
1268.380, 67500.09
1268.862, 67503.89
1269.344, 67495.99
1269.827, 67475.77
1270.309, 67463.47
1270.791, 67472.41
1271.273, 67509.22
1271.755, 67607.80
1272.237, 67722.82
1272.719, 67764.09
1273.201, 67763.68
1273.683, 67766.81
1274.166, 67781.88
1274.648, 67815.12
1275.130, 67865.53
1275.612, 67920.09
1276.094, 67972.11
1276.576, 68034.30
1277.058, 68128.17
1277.540, 68209.29
1278.022, 68262.60
1278.505, 68293.52
1278.987, 68286.63
1279.469, 68274.98
1279.951, 68295.52
1280.433, 68344.04
1280.915, 68410.99
1281.397, 68513.89
1281.879, 68578.52
1282.362, 68601.12
1282.844, 68615.18
1283.326, 68625.68
1283.808, 68656.14
1284.290, 68711.21
1284.772, 68743.98
1285.254, 68681.17
1285.736, 68521.32
##END=



