##NAMES=Rockbridgeite
##RRUFFID=R060858
##IDEAL CHEMISTRY=(Fe^2+^_0.5_Fe^3+^_0.5_)_2_Fe^3+^_3_(PO_4_)_3_(OH)_5_
##LOCALITY=Tip Top mine, Custer County, South Dakota, USA
##OWNER=RRUFF
##SOURCE=Marcus Origlieri
##DESCRIPTION=Dark reddish brown elongated prismatic crystals associated with jahnsite-(CaMnMg), R060213
##STATUS=The identification of this mineral is confirmed by single-crystal X-ray diffraction and chemical analysis.
##URL=rruff.info/R060858
##MEASURED CHEMISTRY=(Fe^2+^_0.62_Mn^2+^_0.33_Mg_0.05_)_Î£=1_Fe^3+^_4.00_(P_1.00_O_4_)_3_(OH)_5_; OH estimated by difference; Fe2+ and Fe3+ by charge balance
165.3335, 0.0000000E+00
165.8156, 1.668991
166.2977, 3.097504
166.7798, 3.672333
167.2620, 3.654800
167.7441, 3.204987
168.2262, 2.341705
168.7083, 1.604462
169.1904, 1.901184
169.6725, 4.588943
170.1547, 6.647583
170.6368, 5.654205
171.1189, 2.128067
171.6010, 0.1659550
172.0831, 0.7930450
172.5652, 3.459686
173.0474, 4.578232
173.5295, 3.534531
174.0116, 1.835953
174.4937, 0.5929110
174.9758, 0.1004330
175.4579, 0.2303920
175.9401, 0.8966220
176.4222, 2.742493
176.9043, 3.664780
177.3864, 3.280807
177.8685, 2.612259
178.3506, 3.052673
178.8328, 5.137985
179.3149, 6.398361
179.7970, 5.142899
180.2791, 3.176086
180.7612, 1.923294
181.2433, 1.792130
181.7255, 2.524261
182.2076, 3.696899
182.6897, 5.910248
183.1718, 7.106216
183.6539, 6.298004
184.1360, 4.916870
184.6181, 4.642624
185.1003, 5.785873
185.5824, 7.836090
186.0645, 8.056824
186.5466, 4.133850
187.0287, 1.341522
187.5108, 0.8344880
187.9930, 3.018967
188.4751, 4.593765
188.9572, 6.234680
189.4393, 8.020523
189.9214, 9.329880
190.4035, 9.882675
190.8857, 10.12543
191.3678, 10.02339
191.8499, 9.693451
192.3320, 9.215622
192.8141, 8.676971
193.2962, 8.075333
193.7784, 7.269196
194.2605, 5.936066
194.7426, 4.789352
195.2247, 3.903976
195.7068, 3.367386
196.1889, 3.540359
196.6711, 4.942062
197.1532, 7.103546
197.6353, 7.763351
198.1174, 5.625824
198.5995, 3.339737
199.0816, 2.526108
199.5638, 2.981125
200.0459, 3.315399
200.5280, 2.622086
201.0101, 1.223083
201.4922, 0.1864780
201.9743, 0.3577420
202.4565, 0.6318210
202.9386, 0.8930660
203.4207, 1.152908
203.9028, 1.027435
204.3849, 4.8370000E-02
204.8670, 1.380569
205.3492, 2.763733
205.8313, 4.271439
206.3134, 5.367706
206.7955, 5.045364
207.2776, 2.912704
207.7597, 1.190933
208.2419, 1.813370
208.7240, 3.025345
209.2061, 2.844498
209.6882, 0.1544340
210.1703, 3.197479
210.6524, 3.670822
211.1346, 1.0483000E-02
211.6167, 3.339310
212.0988, 5.105392
212.5809, 5.797501
213.0630, 5.523560
213.5451, 4.188538
214.0273, 2.564545
214.5094, 2.571259
214.9915, 5.318863
215.4736, 7.405975
215.9557, 8.251785
216.4378, 8.194397
216.9200, 7.324448
217.4021, 5.651184
217.8842, 3.662338
218.3663, 2.758636
218.8484, 3.654510
219.3305, 4.723145
219.8127, 6.181305
220.2948, 7.538574
220.7769, 8.161774
221.2590, 7.761414
221.7411, 6.763702
222.2232, 6.439011
222.7054, 7.894974
223.1875, 8.797714
223.6696, 8.424072
224.1517, 7.515762
224.6338, 6.980957
225.1159, 7.225037
225.5980, 7.922165
226.0802, 8.124741
226.5623, 7.218155
227.0444, 6.534943
227.5265, 5.714966
228.0086, 5.299316
228.4907, 6.331879
228.9729, 9.332138
229.4550, 13.26787
229.9371, 15.41010
230.4192, 14.57634
230.9013, 13.91968
231.3834, 14.02982
231.8656, 14.57553
232.3477, 14.98628
232.8298, 14.99301
233.3119, 14.95746
233.7940, 15.75233
234.2761, 17.36957
234.7583, 19.48230
235.2404, 22.89525
235.7225, 26.61891
236.2046, 28.71928
236.6867, 28.27350
237.1688, 26.71225
237.6510, 26.48523
238.1331, 27.58429
238.6152, 29.18005
239.0973, 31.21623
239.5794, 33.55742
240.0615, 36.14700
240.5437, 39.38121
241.0258, 41.97415
241.5079, 42.09172
241.9900, 39.87358
242.4721, 36.84486
242.9542, 32.91896
243.4364, 28.65453
243.9185, 25.55881
244.4006, 24.14342
244.8827, 23.56197
245.3648, 23.18462
245.8469, 22.99971
246.3290, 22.63095
246.8112, 22.24525
247.2933, 21.56705
247.7754, 19.36057
248.2575, 14.28828
248.7396, 9.723953
249.2217, 8.824875
249.7039, 10.63783
250.1860, 12.19313
250.6681, 11.64612
251.1502, 9.517914
251.6323, 7.725311
252.1144, 6.621918
252.5966, 5.792664
253.0787, 4.523865
253.5608, 3.029556
254.0429, 2.125702
254.5250, 2.485748
255.0071, 3.745255
255.4893, 4.435989
255.9714, 4.160873
256.4535, 3.921371
256.9356, 4.494324
257.4177, 5.376801
257.8998, 5.666031
258.3820, 4.626373
258.8641, 2.723480
259.3462, 1.652771
259.8283, 1.770645
260.3104, 2.236374
260.7925, 3.311829
261.2747, 4.356003
261.7568, 4.357040
262.2389, 2.612152
262.7210, 1.5260000E-03
263.2031, 0.8347020
263.6852, 1.207825
264.1674, 3.231323
264.6495, 4.809647
265.1316, 5.899979
265.6137, 6.238083
266.0958, 5.687363
266.5779, 4.854416
267.0601, 5.355682
267.5422, 8.557480
268.0243, 10.29639
268.5064, 9.026978
268.9885, 7.292572
269.4706, 7.142487
269.9528, 9.275345
270.4349, 12.43800
270.9170, 14.19392
271.3991, 13.60475
271.8812, 13.37280
272.3633, 13.95595
272.8455, 14.75853
273.3276, 15.35719
273.8097, 15.63431
274.2918, 15.67271
274.7739, 15.54193
275.2560, 14.98773
275.7382, 14.82431
276.2202, 14.79855
276.7024, 15.25806
277.1845, 16.58284
277.6666, 18.72903
278.1487, 21.22554
278.6308, 23.57127
279.1129, 25.87625
279.5951, 27.58087
280.0772, 27.58482
280.5593, 28.02853
281.0414, 30.33870
281.5235, 34.31357
282.0056, 38.67052
282.4878, 42.20132
282.9699, 44.83479
283.4520, 47.24155
283.9341, 49.36012
284.4162, 51.36497
284.8983, 53.15244
285.3805, 54.86328
285.8626, 57.01321
286.3447, 60.23442
286.8268, 64.45802
287.3089, 65.81853
287.7910, 61.82526
288.2732, 57.90384
288.7553, 55.71338
289.2374, 54.71715
289.7195, 53.84476
290.2016, 52.51065
290.6837, 50.65816
291.1659, 47.83768
291.6480, 43.34296
292.1301, 38.73277
292.6122, 33.90329
293.0943, 29.19357
293.5764, 24.95753
294.0586, 21.32481
294.5407, 18.41292
295.0228, 16.53310
295.5049, 17.16312
295.9870, 17.04810
296.4691, 15.76630
296.9513, 13.81786
297.4334, 11.36411
297.9155, 8.526077
298.3976, 6.071457
298.8797, 5.376984
299.3618, 7.933975
299.8440, 9.546631
300.3261, 10.19200
300.8082, 9.930923
301.2903, 8.111969
301.7724, 4.895630
302.2545, 2.113434
302.7367, 2.119873
303.2188, 6.066422
303.7009, 8.387939
304.1830, 8.762131
304.6651, 7.971664
305.1472, 5.778732
305.6294, 2.607544
306.1115, 4.9423002E-02
306.5936, 0.8271480
307.0757, 0.4009860
307.5578, 1.251862
308.0399, 2.269958
308.5221, 2.474197
309.0042, 0.3394620
309.4863, 3.086044
309.9684, 4.980103
310.4505, 3.335220
310.9326, 1.219009
311.4148, 4.228378
311.8969, 5.136200
312.3790, 5.441055
312.8611, 4.975357
313.3432, 4.223907
313.8253, 4.050720
314.3075, 4.892319
314.7896, 6.250732
315.2717, 6.850372
315.7538, 6.548599
316.2359, 5.677048
316.7180, 3.079376
317.2001, 0.4328770
317.6823, 4.8859000E-02
318.1644, 2.521408
318.6465, 5.850510
319.1286, 6.978180
319.6107, 4.520111
320.0928, 3.033630
320.5750, 2.769440
321.0571, 3.201370
321.5392, 4.601471
322.0213, 6.667679
322.5034, 8.114258
322.9855, 7.443558
323.4677, 4.149506
323.9498, 2.512405
324.4319, 3.518402
324.9140, 4.980469
325.3961, 5.807663
325.8782, 6.130127
326.3604, 6.708801
326.8425, 8.161102
327.3246, 10.34344
327.8067, 11.61809
328.2888, 11.25587
328.7709, 10.95761
329.2531, 11.17220
329.7352, 11.73210
330.2173, 12.31248
330.6994, 12.75311
331.1815, 13.17511
331.6636, 13.91364
332.1458, 15.13530
332.6279, 16.49701
333.1100, 18.85916
333.5921, 20.92268
334.0742, 20.85658
334.5563, 18.31364
335.0385, 15.33215
335.5206, 15.00142
336.0027, 19.28268
336.4848, 20.75060
336.9669, 17.24142
337.4490, 12.95091
337.9312, 10.55212
338.4133, 10.15317
338.8954, 10.36311
339.3775, 9.896027
339.8596, 8.669861
340.3417, 7.778641
340.8239, 7.945465
341.3060, 7.736298
341.7881, 5.815308
342.2702, 3.016891
342.7523, 1.419479
343.2344, 2.519363
343.7166, 5.551483
344.1987, 6.719940
344.6808, 3.244415
345.1629, 1.001938
345.6450, 1.595505
346.1271, 3.336060
346.6093, 4.091904
347.0914, 3.020218
347.5735, 1.110123
348.0556, 4.7775000E-02
348.5377, 5.4031000E-02
349.0198, 0.6125950
349.5020, 2.619156
349.9841, 4.435242
350.4662, 4.516830
350.9483, 2.968048
351.4304, 1.402390
351.9125, 1.733444
352.3947, 4.417130
352.8768, 6.018982
353.3589, 5.563751
353.8410, 4.791245
354.3231, 4.023453
354.8052, 3.398087
355.2874, 3.101105
355.7695, 3.333145
356.2516, 3.927094
356.7337, 3.868858
357.2158, 2.112625
357.6979, 1.153694
358.1800, 2.337387
358.6621, 4.232162
359.1443, 4.736839
359.6264, 2.984192
360.1085, 0.5584490
360.5906, 0.4393080
361.0727, 4.016045
361.5548, 6.256775
362.0370, 5.498985
362.5191, 4.219383
363.0012, 3.812859
363.4833, 4.450706
363.9654, 5.639488
364.4475, 7.045570
364.9297, 8.766296
365.4118, 9.490349
365.8939, 8.613968
366.3760, 7.312866
366.8581, 5.435539
367.3402, 3.378143
367.8224, 2.282402
368.3045, 3.339165
368.7866, 5.827179
369.2687, 7.174713
369.7508, 6.810051
370.2329, 6.549614
370.7151, 7.013481
371.1972, 7.870636
371.6793, 8.976181
372.1614, 10.34698
372.6435, 11.47179
373.1256, 11.27227
373.6078, 9.570564
374.0899, 9.215141
374.5720, 12.54959
375.0541, 15.84129
375.5362, 15.80211
376.0183, 12.71079
376.5005, 9.931839
376.9826, 10.14717
377.4647, 12.51305
377.9468, 13.98529
378.4289, 14.38896
378.9110, 13.85886
379.3932, 12.01652
379.8753, 9.377266
380.3574, 6.814758
380.8395, 4.105217
381.3216, 2.044945
381.8037, 2.267220
382.2859, 4.837852
382.7680, 6.403938
383.2501, 4.710457
383.7322, 1.673698
384.2143, 0.4416890
384.6964, 1.489616
385.1786, 2.927612
385.6607, 3.696877
386.1428, 4.040161
386.6249, 4.769867
387.1070, 6.324501
387.5891, 7.578346
388.0713, 6.679001
388.5534, 3.858482
389.0355, 1.824409
389.5176, 1.632347
389.9997, 2.157082
390.4818, 2.451637
390.9640, 2.433800
391.4461, 1.992760
391.9282, 0.7703250
392.4103, 0.8974000
392.8924, 1.328186
393.3745, 0.7752230
393.8567, 2.583229
394.3388, 2.572937
394.8209, 1.530945
395.3030, 1.052238
395.7851, 1.770721
396.2672, 3.025490
396.7494, 3.698929
397.2315, 3.774734
397.7136, 3.200966
398.1957, 1.019661
398.6778, 1.181847
399.1599, 1.959930
399.6420, 1.276596
400.1241, 0.1167910
400.6063, 0.6993480
401.0884, 1.170876
401.5705, 1.390068
402.0526, 1.428650
402.5347, 1.182304
403.0168, 5.1024999E-02
403.4990, 1.272064
403.9811, 1.463486
404.4632, 0.1347500
404.9453, 2.584053
405.4274, 3.504295
405.9095, 1.296059
406.3917, 0.2516780
406.8738, 1.194809
407.3559, 2.713020
407.8380, 4.204910
408.3201, 5.356369
408.8022, 5.638084
409.2844, 4.154846
409.7665, 0.7010650
410.2486, 1.070473
410.7307, 0.1858900
411.2128, 1.783607
411.6949, 3.301804
412.1771, 4.558144
412.6592, 5.371628
413.1413, 5.651360
413.6234, 5.446548
414.1055, 4.823776
414.5876, 3.701469
415.0698, 2.391167
415.5519, 7.4051000E-02
416.0340, 1.795197
416.5161, 1.860062
416.9982, 6.5392002E-02
417.4803, 1.995560
417.9625, 2.848640
418.4446, 2.707565
418.9267, 3.275925
419.4088, 5.448212
419.8909, 6.883438
420.3730, 5.162903
420.8552, 1.716911
421.3373, 0.5294570
421.8194, 0.3427960
422.3015, 1.190689
422.7836, 3.351196
423.2657, 6.112274
423.7479, 7.702568
424.2300, 6.837952
424.7121, 4.908455
425.1942, 4.223732
425.6763, 5.043198
426.1584, 5.736305
426.6406, 5.190926
427.1227, 4.183258
427.6048, 4.286949
428.0869, 5.849663
428.5690, 7.315155
429.0511, 7.025604
429.5333, 5.010338
430.0154, 4.389091
430.4975, 7.122017
430.9796, 9.431839
431.4617, 8.535324
431.9438, 5.480499
432.4260, 3.085457
432.9081, 2.716309
433.3902, 3.645248
433.8723, 4.179146
434.3544, 3.938568
434.8365, 3.917465
435.3187, 3.954941
435.8008, 4.350395
436.2829, 5.784630
436.7650, 8.060646
437.2471, 9.900330
437.7292, 10.01152
438.2114, 8.339821
438.6935, 7.191048
439.1756, 7.176537
439.6577, 7.001976
440.1398, 6.425560
440.6219, 5.503014
441.1040, 4.075920
441.5862, 2.091156
442.0683, 0.3058010
442.5504, 0.3756870
443.0325, 3.178429
443.5146, 5.139328
443.9967, 5.553986
444.4789, 5.382401
444.9610, 4.763565
445.4431, 3.916687
445.9252, 3.358696
446.4073, 3.596085
446.8894, 4.392563
447.3716, 4.842270
447.8537, 4.788841
448.3358, 4.776360
448.8179, 5.139915
449.3000, 5.628418
449.7821, 5.880066
450.2643, 5.668854
450.7464, 5.672882
451.2285, 7.009369
451.7106, 9.233101
452.1927, 10.29918
452.6748, 9.420738
453.1570, 8.249313
453.6391, 8.612274
454.1212, 10.03141
454.6033, 10.50387
455.0854, 8.847275
455.5675, 6.687233
456.0497, 5.059090
456.5318, 4.019897
457.0139, 4.209999
457.4960, 6.389832
457.9781, 9.692047
458.4602, 11.57471
458.9424, 11.51151
459.4245, 11.39072
459.9066, 11.86195
460.3887, 12.24791
460.8708, 11.69910
461.3529, 10.10160
461.8351, 8.218285
462.3172, 6.710274
462.7993, 5.485664
463.2814, 5.095192
463.7635, 6.274361
464.2456, 7.362022
464.7278, 7.888680
465.2099, 8.103302
465.6920, 8.386856
466.1741, 8.889435
466.6562, 9.462524
467.1383, 9.976822
467.6205, 10.71561
468.1026, 10.42595
468.5847, 7.845551
469.0668, 5.608902
469.5489, 4.907043
470.0310, 5.489998
470.5132, 6.402809
470.9953, 7.203415
471.4774, 7.795143
471.9595, 7.819916
472.4416, 7.103859
472.9237, 6.584564
473.4059, 6.877892
473.8880, 7.155945
474.3701, 6.561203
474.8522, 5.055389
475.3343, 4.134483
475.8164, 5.627487
476.2986, 8.381477
476.7807, 9.336090
477.2628, 7.895721
477.7449, 6.017792
478.2270, 4.955383
478.7091, 4.671585
479.1913, 4.800598
479.6734, 6.047676
480.1555, 7.044563
480.6376, 6.757874
481.1197, 5.751266
481.6018, 5.068489
482.0839, 5.136566
482.5660, 5.430229
483.0482, 5.112892
483.5303, 3.788246
484.0124, 3.399994
484.4945, 5.520477
484.9766, 7.054611
485.4587, 5.646225
485.9409, 2.285103
486.4230, 0.5128020
486.9051, 1.347328
487.3872, 0.6783680
487.8693, 0.2379610
488.3514, 1.703888
488.8336, 2.848465
489.3157, 3.749321
489.7978, 4.260284
490.2799, 4.022530
490.7620, 3.209373
491.2441, 2.537094
491.7263, 2.650902
492.2084, 3.380882
492.6905, 3.930725
493.1726, 4.355644
493.6547, 4.472031
494.1368, 3.978195
494.6190, 3.246437
495.1011, 2.533936
495.5832, 1.837715
496.0653, 1.541222
496.5474, 2.359154
497.0295, 3.826050
497.5117, 4.385620
497.9938, 3.631073
498.4759, 2.722885
498.9580, 2.658569
499.4401, 3.279106
499.9222, 3.652611
500.4044, 3.267044
500.8865, 3.129189
501.3686, 4.348717
501.8507, 6.103401
502.3328, 6.419754
502.8149, 4.573982
503.2971, 2.157761
503.7792, 1.460899
504.2613, 3.057846
504.7434, 4.401970
505.2255, 5.780754
505.7076, 6.659599
506.1898, 6.329414
506.6719, 5.353905
507.1540, 5.011543
507.6361, 6.016953
508.1182, 7.517761
508.6003, 7.448883
509.0825, 5.221375
509.5646, 2.997017
510.0467, 0.2698970
510.5288, 1.788376
511.0109, 2.403259
511.4930, 1.729225
511.9752, 0.4592510
512.4573, 1.179749
512.9394, 3.000320
513.4215, 4.584267
513.9036, 5.916687
514.3857, 7.180496
514.8679, 8.832695
515.3500, 10.12832
515.8321, 10.06805
516.3142, 8.500259
516.7963, 6.733337
517.2784, 5.144188
517.7606, 3.775192
518.2427, 2.708282
518.7248, 1.943192
519.2069, 1.347450
519.6890, 0.8089070
520.1711, 0.3750760
520.6533, 0.3242570
521.1354, 0.9709850
521.6175, 1.515938
522.0996, 1.570168
522.5817, 1.608658
523.0638, 2.335617
523.5460, 3.721809
524.0281, 4.933754
524.5102, 5.170021
524.9923, 4.451378
525.4744, 3.334167
525.9565, 0.6946180
526.4387, 0.7996830
526.9208, 0.2400740
527.4029, 2.180153
527.8850, 3.538513
528.3671, 3.749580
528.8492, 3.147591
529.3314, 1.847450
529.8135, 3.3904999E-02
530.2956, 0.3106160
530.7777, 1.608040
531.2598, 3.580505
531.7419, 3.956329
532.2241, 3.533913
532.7062, 3.770813
533.1883, 5.280388
533.6704, 6.362083
534.1525, 5.581947
534.6346, 3.737564
535.1168, 2.824089
535.5989, 3.350189
536.0810, 4.223610
536.5631, 4.420715
537.0452, 3.903885
537.5273, 3.082146
538.0095, 0.9018330
538.4916, 0.3855290
538.9737, 0.7548680
539.4558, 3.073975
539.9379, 4.842430
540.4200, 5.461693
540.9022, 5.220375
541.3843, 4.327484
541.8664, 2.515175
542.3485, 1.561775
542.8306, 2.414223
543.3127, 3.134308
543.7948, 2.927246
544.2769, 2.194183
544.7590, 1.638443
545.2411, 1.596352
545.7233, 1.969933
546.2054, 2.721870
546.6875, 3.712814
547.1696, 4.869133
547.6517, 6.632011
548.1339, 7.817184
548.6160, 6.449585
549.0981, 3.582405
549.5802, 2.320183
550.0623, 4.682396
550.5444, 7.265755
551.0266, 7.851349
551.5087, 7.011307
551.9908, 5.726746
552.4729, 4.240074
552.9550, 3.503082
553.4371, 5.064690
553.9193, 9.763062
554.4014, 11.56322
554.8835, 8.191719
555.3656, 4.879845
555.8477, 3.217529
556.3298, 2.916328
556.8120, 3.764511
557.2941, 5.605278
557.7762, 7.388634
558.2583, 7.275169
558.7404, 4.890923
559.2225, 3.832916
559.7047, 5.365433
560.1868, 6.715096
560.6689, 6.225273
561.1510, 4.789780
561.6331, 4.011436
562.1152, 4.603096
562.5974, 5.328369
563.0795, 4.859009
563.5616, 3.548134
564.0437, 2.625160
564.5258, 2.301315
565.0079, 2.565025
565.4901, 3.715752
565.9722, 5.648445
566.4543, 6.550720
566.9364, 5.191986
567.4185, 4.221130
567.9006, 5.451279
568.3828, 7.237007
568.8649, 6.984879
569.3470, 4.292938
569.8291, 1.644058
570.3112, 2.125938
570.7933, 5.972137
571.2755, 7.854530
571.7576, 6.382050
572.2397, 4.595795
572.7218, 2.365494
573.2039, 0.6380080
573.6860, 0.6944430
574.1682, 2.811226
574.6503, 5.475327
575.1324, 7.729813
575.6145, 9.409103
576.0966, 9.451576
576.5787, 7.344650
577.0609, 5.374092
577.5430, 5.072273
578.0251, 5.820641
578.5072, 6.029785
578.9893, 5.397095
579.4714, 4.865219
579.9536, 5.081108
580.4357, 5.444298
580.9178, 5.000870
581.3999, 3.770966
581.8820, 2.802254
582.3641, 2.993294
582.8463, 4.170914
583.3284, 4.770233
583.8105, 4.884239
584.2926, 4.065186
584.7747, 0.8951260
585.2568, 1.953789
585.7390, 1.891212
586.2211, 0.7235790
586.7032, 3.189674
587.1853, 3.353050
587.6674, 2.125038
588.1495, 2.430229
588.6317, 4.806808
589.1138, 5.675575
589.5959, 2.558601
590.0780, 1.297340
590.5601, 1.613953
591.0422, 1.533417
591.5244, 3.724045
592.0065, 2.770302
592.4886, 0.9470520
592.9707, 0.1365280
593.4528, 0.2427900
593.9349, 0.6200180
594.4171, 0.9914320
594.8992, 1.464661
595.3813, 2.288322
595.8634, 3.776062
596.3455, 4.578072
596.8276, 4.781273
597.3098, 4.483238
597.7919, 2.978935
598.2740, 1.189987
598.7561, 0.8916930
599.2382, 2.877258
599.7203, 5.224518
600.2025, 4.885880
600.6846, 1.973900
601.1667, 0.6946330
601.6488, 2.322739
602.1309, 3.884956
602.6130, 2.738655
603.0952, 0.1559750
603.5773, 1.249870
604.0594, 0.6477510
604.5415, 0.2059400
605.0236, 0.3694610
605.5057, 0.2326510
605.9879, 0.3486630
606.4700, 0.8178940
606.9521, 1.590263
607.4342, 2.694626
607.9163, 4.038635
608.3984, 4.885536
608.8806, 4.526833
609.3627, 4.642181
609.8448, 6.529572
610.3269, 8.064835
610.8090, 7.026115
611.2911, 3.796600
611.7733, 0.8927310
612.2554, 0.1339110
612.7375, 0.8076550
613.2196, 1.389969
613.7017, 1.899010
614.1838, 2.088837
614.6660, 1.590965
615.1481, 1.102432
615.6302, 1.621979
616.1123, 3.067444
616.5944, 4.181023
617.0765, 4.598518
617.5587, 4.709549
618.0408, 4.663147
618.5229, 4.524384
619.0050, 4.454758
619.4871, 4.505066
619.9692, 4.428230
620.4514, 3.727608
620.9335, 2.133865
621.4156, 1.986359
621.8977, 5.474579
622.3798, 7.812050
622.8619, 7.170418
623.3441, 5.053749
623.8262, 2.860382
624.3083, 0.9774550
624.7904, 4.7821000E-02
625.2725, 0.6292570
625.7546, 2.486610
626.2367, 4.384811
626.7188, 6.361862
627.2009, 7.159027
627.6830, 5.533188
628.1652, 2.785225
628.6473, 2.159889
629.1294, 4.574112
629.6115, 5.778404
630.0936, 4.007622
630.5757, 1.805878
631.0579, 0.8393940
631.5400, 1.031715
632.0221, 1.940125
632.5042, 3.367760
632.9863, 4.634117
633.4684, 4.140770
633.9506, 1.283188
634.4327, 0.3042450
634.9148, 0.3596880
635.3969, 1.337486
635.8790, 1.678780
636.3611, 1.649132
636.8433, 1.787270
637.3254, 2.316025
637.8075, 2.776894
638.2896, 3.055725
638.7717, 2.975662
639.2538, 1.751854
639.7360, 0.6422810
640.2181, 2.310188
640.7002, 1.769234
641.1823, 0.4174730
641.6644, 1.967255
642.1465, 2.396942
642.6287, 2.809212
643.1108, 2.867805
643.5929, 3.104538
644.0750, 4.323120
644.5571, 5.960114
645.0392, 6.689056
645.5214, 5.562317
646.0035, 3.879158
646.4856, 4.314926
646.9677, 6.855225
647.4498, 7.660805
647.9319, 5.185356
648.4141, 2.456642
648.8962, 2.294724
649.3783, 3.948669
649.8604, 5.012367
650.3425, 4.671005
650.8246, 4.564507
651.3068, 5.955658
651.7889, 7.618065
652.2710, 7.580856
652.7531, 5.913963
653.2352, 4.791542
653.7173, 6.061485
654.1995, 8.986366
654.6816, 10.33908
655.1637, 9.172096
655.6458, 8.693222
656.1279, 9.907936
656.6100, 11.54482
657.0922, 12.98534
657.5743, 14.24924
658.0564, 15.56424
658.5385, 17.21591
659.0206, 18.68226
659.5027, 19.38435
659.9849, 19.60999
660.4670, 19.74127
660.9491, 19.62136
661.4312, 19.71252
661.9133, 20.68236
662.3954, 22.37978
662.8776, 22.55389
663.3597, 18.93224
663.8418, 16.76878
664.3239, 17.86060
664.8060, 19.62186
665.2881, 19.91647
665.7703, 18.78543
666.2524, 17.56116
666.7345, 17.09998
667.2166, 17.00066
667.6987, 16.54470
668.1808, 15.73798
668.6630, 14.77453
669.1451, 13.67766
669.6272, 12.49831
670.1093, 11.30050
670.5914, 10.07584
671.0735, 8.762413
671.5557, 7.279533
672.0378, 5.804924
672.5199, 4.158073
673.0020, 2.701401
673.4841, 1.823158
673.9662, 1.566483
674.4484, 1.832481
674.9305, 2.704842
675.4126, 3.789986
675.8947, 3.516800
676.3768, 1.375679
676.8589, 0.1534500
677.3411, 0.7420040
677.8232, 2.060257
678.3053, 3.718788
678.7874, 5.430237
679.2695, 6.064667
679.7516, 4.666817
680.2338, 3.015831
680.7159, 2.076752
681.1980, 1.593147
681.6801, 1.036781
682.1622, 0.3833690
682.6443, 0.2844160
683.1265, 1.431358
683.6086, 3.397751
684.0907, 4.013336
684.5728, 2.350136
685.0549, 1.364487
685.5370, 2.241356
686.0192, 3.201057
686.5013, 3.011162
686.9834, 2.048981
687.4655, 1.568085
687.9476, 2.276260
688.4297, 3.172127
688.9119, 3.281059
689.3940, 2.915756
689.8761, 2.780144
690.3582, 2.999931
690.8403, 3.484207
691.3224, 4.324005
691.8046, 5.240623
692.2867, 4.831322
692.7688, 1.394318
693.2509, 0.5631560
693.7330, 0.3645550
694.2151, 0.8927610
694.6973, 3.227882
695.1794, 5.889862
695.6615, 6.994545
696.1436, 5.472046
696.6257, 3.324593
697.1078, 2.564636
697.5900, 2.806808
698.0721, 2.861237
698.5542, 2.694481
699.0363, 2.814285
699.5184, 3.534653
700.0005, 4.498108
700.4827, 4.414009
700.9648, 2.112808
701.4469, 0.6744610
701.9290, 0.4985580
702.4111, 0.8532560
702.8932, 1.369614
703.3754, 2.065048
703.8575, 3.308693
704.3396, 5.315903
704.8217, 6.938629
705.3038, 6.237114
705.7859, 3.815384
706.2681, 2.719856
706.7502, 3.355675
707.2323, 4.170372
707.7144, 4.334908
708.1965, 4.106445
708.6786, 4.121017
709.1607, 4.627975
709.6428, 4.637756
710.1249, 3.461807
710.6071, 2.392517
711.0892, 2.337914
711.5713, 2.847229
712.0534, 3.005699
712.5355, 2.528961
713.0176, 2.131912
713.4998, 2.790260
713.9819, 4.223709
714.4640, 5.033852
714.9461, 5.173141
715.4282, 4.876472
715.9103, 4.221748
716.3925, 3.197250
716.8746, 1.326469
717.3567, 1.719017
717.8388, 2.757187
718.3209, 0.3419800
718.8030, 3.474907
719.2852, 4.882416
719.7673, 5.062294
720.2494, 4.638100
720.7315, 3.855270
721.2136, 2.940491
721.6957, 1.944687
722.1779, 1.052910
722.6600, 1.044548
723.1421, 2.015976
723.6242, 3.057220
724.1063, 4.130737
724.5884, 4.988457
725.0706, 5.486420
725.5527, 5.695511
726.0348, 5.413940
726.5169, 3.564751
726.9990, 2.535378
727.4811, 4.323082
727.9633, 6.576736
728.4454, 6.265739
728.9275, 3.616135
729.4096, 1.494263
729.8917, 1.993675
730.3738, 3.854790
730.8560, 4.254883
731.3381, 3.136284
731.8202, 2.695290
732.3023, 3.597366
732.7844, 4.444969
733.2665, 4.022675
733.7487, 2.727188
734.2308, 2.123123
734.7129, 2.689255
735.1950, 3.040131
735.6771, 2.542587
736.1592, 2.026360
736.6414, 2.217812
737.1235, 2.938194
737.6056, 3.638077
738.0877, 4.076408
738.5698, 4.332336
739.0519, 4.477150
739.5341, 4.523842
740.0162, 4.591339
740.4983, 4.685982
740.9804, 4.829475
741.4625, 5.200615
741.9446, 5.480087
742.4268, 4.931862
742.9089, 3.323112
743.3910, 2.166748
743.8731, 1.419601
744.3552, 1.328163
744.8373, 2.483582
745.3195, 4.158310
745.8016, 5.613831
746.2837, 6.547012
746.7658, 6.538109
747.2479, 4.654739
747.7300, 1.839561
748.2122, 0.8117220
748.6943, 1.595367
749.1764, 2.761993
749.6585, 4.248016
750.1406, 5.051491
750.6227, 3.650223
751.1049, 0.1521760
751.5870, 1.280685
752.0691, 1.684517
752.5512, 3.388443
753.0333, 1.841812
753.5154, 0.5760730
753.9976, 2.285271
754.4797, 3.027122
754.9618, 2.822205
755.4439, 1.510025
755.9260, 0.1394960
756.4081, 1.091034
756.8903, 1.502342
757.3724, 1.899963
757.8545, 2.325104
758.3366, 3.337631
758.8187, 5.686829
759.3008, 8.296646
759.7830, 8.298927
760.2651, 3.570480
760.7472, 1.276657
761.2293, 3.783569
761.7114, 5.918419
762.1935, 4.791695
762.6757, 2.405396
763.1578, 1.656853
763.6399, 3.167839
764.1220, 5.058578
764.6041, 6.310226
765.0862, 6.939774
765.5684, 6.864677
766.0505, 6.160461
766.5326, 4.897690
767.0147, 3.030396
767.4968, 1.863564
767.9789, 3.198990
768.4611, 6.837891
768.9432, 7.771851
769.4253, 3.859352
769.9074, 0.8986820
770.3895, 0.1823430
770.8716, 0.1267400
771.3538, 1.203674
771.8359, 3.309952
772.3180, 4.801987
772.8001, 5.121681
773.2822, 4.968697
773.7643, 4.444710
774.2465, 3.927872
774.7286, 4.232292
775.2107, 5.098625
775.6928, 5.315918
776.1749, 4.354866
776.6570, 3.068314
777.1392, 3.843315
777.6213, 7.247963
778.1034, 8.404755
778.5855, 5.964233
779.0676, 3.846344
779.5497, 4.675438
780.0319, 6.206635
780.5140, 5.084145
780.9961, 0.9806060
781.4782, 1.707314
781.9603, 1.378525
782.4424, 6.8374999E-02
782.9246, 2.079948
783.4067, 4.268219
783.8888, 6.440926
784.3709, 8.369965
784.8530, 9.283661
785.3351, 8.397141
785.8173, 6.341240
786.2994, 4.206688
786.7815, 1.997253
787.2636, 2.007782
787.7457, 5.370667
788.2278, 8.631256
788.7100, 8.948929
789.1921, 7.123383
789.6742, 6.330635
790.1563, 7.390045
790.6384, 7.922112
791.1205, 7.646942
791.6026, 6.974548
792.0847, 5.451317
792.5668, 3.920403
793.0490, 3.834229
793.5311, 5.600212
794.0132, 7.848030
794.4953, 9.912140
794.9774, 11.49886
795.4595, 11.74831
795.9417, 10.89507
796.4238, 10.36835
796.9059, 10.64931
797.3880, 11.09336
797.8701, 10.82961
798.3522, 9.994781
798.8344, 10.95067
799.3165, 15.14799
799.7986, 18.34468
800.2807, 19.36890
800.7628, 19.65686
801.2449, 19.52362
801.7271, 19.33242
802.2092, 19.94342
802.6913, 21.89333
803.1734, 23.82336
803.6555, 24.87917
804.1376, 25.69724
804.6198, 26.83871
805.1019, 28.36713
805.5840, 30.15249
806.0661, 32.14539
806.5482, 34.80495
807.0303, 39.09425
807.5125, 44.76488
807.9946, 49.18606
808.4767, 52.09931
808.9588, 55.27943
809.4409, 59.10577
809.9230, 63.70773
810.4052, 69.05906
810.8873, 75.16836
811.3694, 81.41142
811.8515, 87.43642
812.3336, 93.73637
812.8157, 101.0864
813.2979, 108.4275
813.7800, 114.9016
814.2621, 120.3518
814.7442, 125.1141
815.2263, 129.5128
815.7084, 132.3136
816.1906, 132.0231
816.6727, 129.3149
817.1548, 125.0690
817.6369, 119.5880
818.1190, 114.3461
818.6011, 110.0702
819.0833, 105.5876
819.5654, 99.03105
820.0475, 90.28975
820.5296, 82.45136
821.0117, 75.47758
821.4938, 69.22139
821.9760, 64.27954
822.4581, 59.59128
822.9402, 54.14897
823.4223, 48.15849
823.9044, 42.61848
824.3865, 37.08006
824.8687, 33.01797
825.3508, 32.86134
825.8329, 33.00880
826.3150, 28.72766
826.7971, 21.66134
827.2792, 17.38599
827.7614, 18.38280
828.2435, 20.95774
828.7256, 20.53919
829.2077, 17.96527
829.6898, 16.36143
830.1719, 15.81615
830.6541, 15.49486
831.1362, 15.17801
831.6183, 14.64709
832.1004, 13.56986
832.5825, 11.95480
833.0646, 10.61464
833.5468, 9.530960
834.0289, 8.789185
834.5110, 9.005417
834.9931, 8.997505
835.4752, 7.661377
835.9573, 5.516045
836.4395, 3.827194
836.9216, 2.822746
837.4037, 2.602310
837.8858, 3.628502
838.3679, 5.149574
838.8500, 6.629791
839.3322, 7.785805
839.8143, 8.484268
840.2964, 8.712540
840.7785, 8.631607
841.2606, 8.568642
841.7427, 8.387650
842.2249, 7.130699
842.7070, 4.699097
843.1891, 3.959023
843.6712, 6.118515
844.1533, 8.464348
844.6354, 8.663132
845.1176, 7.164291
845.5997, 6.007683
846.0818, 5.285324
846.5639, 4.703987
847.0460, 4.619545
847.5281, 4.287170
848.0103, 2.872665
848.4924, 1.195259
848.9745, 0.4563830
849.4566, 0.8919070
849.9387, 1.893997
850.4208, 3.848114
850.9030, 5.598015
851.3851, 5.994888
851.8672, 5.447220
852.3493, 4.606445
852.8314, 3.701492
853.3135, 2.932648
853.7957, 2.451256
854.2778, 2.243523
854.7599, 2.368439
855.2420, 2.815727
855.7241, 3.134964
856.2062, 3.343094
856.6884, 2.984024
857.1705, 1.453064
857.6526, 0.3060610
858.1347, 0.3640590
858.6168, 1.950401
859.0989, 2.927162
859.5811, 1.094337
860.0632, 0.1428530
860.5453, 0.6392290
861.0274, 1.838943
861.5095, 1.863136
861.9916, 0.9070890
862.4738, 0.3922120
862.9559, 1.051712
863.4380, 1.799011
863.9201, 1.884171
864.4022, 1.768044
864.8843, 1.911781
865.3665, 2.181168
865.8486, 2.157822
866.3307, 1.654915
866.8128, 1.160843
867.2949, 1.643684
867.7770, 2.648804
868.2592, 1.579338
868.7413, 1.614723
869.2234, 3.188629
869.7055, 1.824196
870.1876, 0.1807170
870.6697, 0.5413670
871.1519, 2.391243
871.6340, 0.5324400
872.1161, 4.631386
872.5981, 7.084213
873.0803, 6.938736
873.5624, 5.870247
874.0445, 3.706512
874.5266, 1.424522
875.0087, 0.5193330
875.4908, 1.256218
875.9730, 1.955261
876.4551, 2.318863
876.9372, 2.174309
877.4193, 0.7853320
877.9014, 0.6493910
878.3835, 1.008850
878.8657, 0.3018720
879.3478, 1.146919
879.8299, 3.255722
880.3120, 5.235847
880.7941, 5.969246
881.2762, 5.685410
881.7584, 4.838997
882.2405, 3.557373
882.7226, 3.091148
883.2047, 4.079346
883.6868, 5.351990
884.1689, 5.142845
884.6511, 3.517952
885.1332, 2.607178
885.6153, 2.676285
886.0974, 2.712257
886.5795, 2.360687
887.0616, 2.127899
887.5438, 2.728073
888.0259, 3.729614
888.5080, 3.732254
888.9901, 1.961258
889.4722, 0.9778440
889.9543, 2.054047
890.4365, 3.010780
890.9186, 2.420586
891.4007, 1.159134
891.8828, 0.2756810
892.3649, 2.1515001E-02
892.8470, 0.5100860
893.3292, 2.415489
893.8113, 4.320580
894.2934, 4.837814
894.7755, 4.417610
895.2576, 3.428131
895.7397, 2.209770
896.2219, 1.903954
896.7040, 3.140221
897.1861, 4.737572
897.6682, 4.582825
898.1503, 5.538879
898.6324, 6.406219
899.1146, 5.772636
899.5967, 7.119827
900.0788, 6.337097
900.5609, 4.560509
901.0430, 2.696091
901.5251, 0.8471830
902.0073, 0.3848720
902.4894, 1.369148
902.9715, 0.9527360
903.4536, 2.739632
903.9357, 5.717583
904.4178, 5.426895
904.9000, 3.787727
905.3821, 3.650131
905.8642, 5.344429
906.3463, 6.158165
906.8284, 4.016487
907.3105, 2.571426
907.7927, 4.867004
908.2748, 7.715622
908.7569, 7.318146
909.2390, 4.283813
909.7211, 1.715576
910.2032, 0.9214250
910.6854, 1.369659
911.1675, 3.751740
911.6496, 6.399399
912.1317, 6.054665
912.6138, 3.444542
913.0959, 1.420380
913.5781, 0.8718640
914.0602, 1.199753
914.5423, 2.014877
915.0244, 3.000145
915.5065, 3.056831
915.9886, 2.193054
916.4708, 1.599976
916.9529, 1.391289
917.4350, 1.455200
917.9171, 1.752586
918.3992, 2.239944
918.8813, 2.786362
919.3635, 3.380638
919.8456, 4.199471
920.3277, 6.353905
920.8098, 6.908287
921.2919, 3.105492
921.7740, 0.5841600
922.2562, 0.5119480
922.7383, 2.184311
923.2204, 4.059196
923.7025, 4.722557
924.1846, 4.536438
924.6667, 2.463585
925.1489, 0.7431720
925.6310, 1.194427
926.1131, 2.583900
926.5952, 2.899254
927.0773, 2.017578
927.5594, 1.677856
928.0416, 3.248535
928.5237, 4.814804
929.0058, 4.398941
929.4879, 3.082199
929.9700, 2.433075
930.4521, 2.579247
930.9343, 3.388290
931.4164, 4.769806
931.8985, 6.043701
932.3806, 6.354485
932.8627, 5.937653
933.3448, 5.810333
933.8270, 5.852898
934.3091, 4.182983
934.7912, 0.2600860
935.2733, 2.703491
935.7554, 2.316406
936.2375, 0.1431430
936.7197, 1.703934
937.2018, 2.297112
937.6839, 2.235748
938.1660, 1.249001
938.6481, 0.2398380
939.1302, 0.7654340
939.6124, 1.351898
940.0945, 1.008308
940.5766, 0.1836780
941.0587, 1.479858
941.5408, 3.517982
942.0229, 4.687042
942.5051, 4.060532
942.9872, 3.484032
943.4693, 4.304245
943.9514, 5.534019
944.4335, 5.548813
944.9156, 3.981117
945.3978, 2.867218
945.8799, 2.981499
946.3620, 3.653008
946.8441, 5.126068
947.3262, 6.535011
947.8083, 6.818726
948.2905, 6.286011
948.7726, 6.007820
949.2547, 6.377220
949.7368, 6.648582
950.2189, 6.169136
950.7010, 5.287933
951.1832, 4.055206
951.6653, 2.829254
952.1474, 2.463852
952.6295, 3.085823
953.1116, 4.546806
953.5938, 6.917137
954.0759, 8.990456
954.5580, 8.113274
955.0400, 4.873215
955.5222, 2.776039
956.0043, 1.943542
956.4864, 2.380592
956.9685, 4.247559
957.4506, 5.758690
957.9327, 4.925247
958.4149, 2.595451
958.8970, 2.686836
959.3791, 5.945221
959.8612, 7.718361
960.3433, 7.316772
960.8254, 6.397163
961.3076, 5.358452
961.7897, 4.623146
962.2718, 5.069412
962.7539, 6.731209
963.2360, 7.753998
963.7181, 8.485977
964.2003, 8.009407
964.6824, 4.656357
965.1645, 1.787521
965.6466, 1.544128
966.1287, 2.815437
966.6108, 3.796425
967.0930, 4.339264
967.5751, 4.462418
968.0572, 3.649940
968.5393, 3.080055
969.0214, 3.382820
969.5035, 3.997368
969.9857, 4.448334
970.4678, 4.754593
970.9499, 5.294594
971.4320, 6.330788
971.9141, 6.475105
972.3962, 3.639938
972.8784, 0.8002090
973.3605, 0.6379390
973.8426, 2.227943
974.3247, 4.465584
974.8068, 6.818695
975.2889, 8.470551
975.7711, 8.921440
976.2532, 8.759308
976.7353, 8.495102
977.2174, 8.135811
977.6995, 7.717628
978.1816, 7.214478
978.6638, 6.475700
979.1459, 5.499542
979.6280, 4.540756
980.1101, 3.972649
980.5922, 3.614288
981.0743, 2.540764
981.5565, 1.071373
982.0386, 1.446098
982.5207, 3.771927
983.0028, 6.216110
983.4849, 8.122246
983.9670, 9.479973
984.4492, 10.27557
984.9313, 10.49715
985.4134, 9.835175
985.8955, 8.034935
986.3776, 7.328720
986.8597, 8.035110
987.3419, 9.501091
987.8240, 11.53707
988.3061, 13.98267
988.7882, 16.54715
989.2703, 19.15276
989.7524, 22.19273
990.2346, 25.47024
990.7167, 29.79605
991.1988, 37.09277
991.6809, 42.90941
992.1630, 44.54038
992.6451, 43.21265
993.1273, 40.61308
993.6094, 36.78090
994.0915, 33.24509
994.5736, 29.78426
995.0557, 26.57938
995.5378, 24.08173
996.0200, 21.45816
996.5021, 17.98042
996.9842, 13.97851
997.4663, 9.912949
997.9484, 5.635109
998.4305, 3.515366
998.9127, 6.144066
999.3948, 8.412476
999.8769, 8.364159
1000.359, 6.778221
1000.841, 3.198997
1001.323, 1.044609
1001.805, 2.781380
1002.287, 0.8393020
1002.770, 1.611954
1003.252, 3.543404
1003.734, 4.767227
1004.216, 4.952972
1004.698, 4.477371
1005.180, 3.518303
1005.662, 2.388008
1006.144, 1.843674
1006.627, 2.257034
1007.109, 2.953835
1007.591, 3.407463
1008.073, 3.816666
1008.555, 4.528008
1009.037, 5.331429
1009.519, 6.121033
1010.001, 6.623566
1010.483, 5.659988
1010.966, 2.316658
1011.448, 1.003922
1011.930, 1.297195
1012.412, 0.3828810
1012.894, 2.670494
1013.376, 5.021370
1013.858, 5.749176
1014.340, 4.660263
1014.823, 3.382256
1015.305, 3.019165
1015.787, 3.276100
1016.269, 4.062622
1016.751, 5.033966
1017.233, 4.351952
1017.715, 2.307014
1018.197, 1.864182
1018.679, 3.821465
1019.162, 5.921944
1019.644, 6.447021
1020.126, 5.903114
1020.608, 4.607536
1021.090, 2.513710
1021.572, 2.544609
1022.054, 4.867065
1022.536, 7.261642
1023.018, 9.117455
1023.501, 9.963631
1023.983, 9.222832
1024.465, 7.457306
1024.947, 6.414688
1025.429, 6.144524
1025.911, 6.129547
1026.393, 6.439957
1026.875, 6.466614
1027.358, 5.924278
1027.840, 5.303856
1028.322, 5.169136
1028.804, 5.278725
1029.286, 4.380135
1029.768, 4.928658
1030.250, 1.524681
1030.732, 5.207970
1031.214, 7.831642
1031.697, 7.435745
1032.179, 5.672928
1032.661, 3.858589
1033.143, 2.177353
1033.625, 1.612595
1034.107, 2.645958
1034.589, 3.668167
1035.071, 5.373871
1035.553, 5.980392
1036.036, 3.202812
1036.518, 0.2899630
1037.000, 1.310242
1037.482, 5.440292
1037.964, 7.788521
1038.446, 7.583679
1038.928, 7.055206
1039.410, 5.327751
1039.893, 4.472305
1040.375, 6.356064
1040.857, 8.479790
1041.339, 8.043427
1041.821, 5.587799
1042.303, 4.067711
1042.785, 4.010635
1043.267, 3.949272
1043.750, 4.182404
1044.232, 3.957520
1044.714, 2.466682
1045.196, 0.8174060
1045.678, 0.2547680
1046.160, 0.5727460
1046.642, 0.5825420
1047.124, 4.568390
1047.606, 7.095116
1048.089, 6.175758
1048.571, 5.444633
1049.053, 6.901634
1049.535, 8.808350
1050.017, 9.391899
1050.499, 8.847603
1050.981, 8.485298
1051.463, 8.905006
1051.945, 8.443245
1052.428, 5.081436
1052.910, 2.787209
1053.392, 4.806999
1053.874, 7.613747
1054.356, 7.213509
1054.838, 4.406380
1055.320, 2.859734
1055.802, 3.575378
1056.285, 4.645271
1056.767, 6.124199
1057.249, 7.114685
1057.731, 7.143257
1058.213, 6.492348
1058.695, 4.735138
1059.177, 2.576324
1059.659, 2.191277
1060.141, 4.825302
1060.624, 6.981583
1061.106, 7.191788
1061.588, 6.904076
1062.070, 6.763466
1062.552, 6.563141
1063.034, 5.831512
1063.516, 4.873466
1063.998, 4.668701
1064.480, 5.609673
1064.963, 6.018677
1065.445, 4.628357
1065.927, 3.297081
1066.409, 2.954773
1066.891, 3.280144
1067.373, 4.255875
1067.855, 5.469620
1068.337, 5.859421
1068.820, 5.176178
1069.302, 4.090279
1069.784, 2.198441
1070.266, 1.008926
1070.748, 1.309021
1071.230, 2.494301
1071.712, 4.829247
1072.194, 7.331825
1072.677, 7.994080
1073.159, 6.413986
1073.641, 4.863373
1074.123, 4.234108
1074.605, 3.994987
1075.087, 4.495148
1075.569, 4.706261
1076.051, 3.452446
1076.533, 1.333366
1077.016, 1.163132
1077.498, 3.651772
1077.980, 3.381645
1078.462, 3.644226
1078.944, 9.559540
1079.426, 9.653572
1079.908, 8.030251
1080.390, 7.830177
1080.872, 8.323463
1081.354, 7.935699
1081.837, 6.504097
1082.319, 4.956024
1082.801, 3.301376
1083.283, 2.242393
1083.765, 2.644264
1084.247, 3.380875
1084.729, 3.408211
1085.211, 3.389236
1085.694, 4.736015
1086.176, 7.117317
1086.658, 8.258766
1087.140, 7.030792
1087.622, 5.578033
1088.104, 4.324684
1088.586, 3.671753
1089.068, 4.510376
1089.551, 5.633560
1090.033, 5.516853
1090.515, 4.379562
1090.997, 3.618362
1091.479, 3.871834
1091.961, 3.270615
1092.443, 0.5896910
1092.925, 3.417496
1093.407, 2.308853
1093.890, 0.3757480
1094.372, 2.897110
1094.854, 4.829430
1095.336, 5.831955
1095.818, 5.707008
1096.300, 5.781471
1096.782, 6.796371
1097.264, 7.671547
1097.746, 8.291771
1098.229, 8.315292
1098.711, 6.982140
1099.193, 5.069618
1099.675, 4.033279
1100.157, 4.077492
1100.639, 4.065201
1101.121, 2.969994
1101.603, 2.852158
1102.086, 5.606567
1102.568, 8.076073
1103.050, 7.800522
1103.532, 6.231827
1104.014, 5.828308
1104.496, 6.704346
1104.978, 7.150238
1105.460, 6.787399
1105.943, 6.107826
1106.425, 4.422676
1106.907, 3.436981
1107.389, 4.558273
1107.871, 6.270882
1108.353, 7.129517
1108.835, 7.141609
1109.317, 6.603386
1109.799, 5.081551
1110.281, 4.140198
1110.764, 4.086060
1111.246, 4.369080
1111.728, 5.026321
1112.210, 5.785210
1112.692, 6.675850
1113.174, 7.456581
1113.656, 7.389702
1114.138, 6.142426
1114.621, 5.561081
1115.103, 5.988441
1115.585, 6.545860
1116.067, 7.511589
1116.549, 8.004517
1117.031, 7.134918
1117.513, 5.782021
1117.995, 5.504723
1118.478, 4.935654
1118.960, 4.352783
1119.442, 4.719078
1119.924, 3.876122
1120.406, 4.300301
1120.888, 4.709984
1121.370, 4.710388
1121.852, 4.131149
1122.334, 2.373123
1122.817, 3.6316000E-02
1123.299, 0.1743390
1123.781, 0.2428590
1124.263, 0.8725590
1124.745, 1.817291
1125.227, 0.2059400
1125.709, 2.948456
1126.191, 6.445389
1126.673, 7.780556
1127.156, 7.646713
1127.638, 7.796753
1128.120, 8.273697
1128.602, 7.332077
1129.084, 4.755463
1129.566, 2.941719
1130.048, 2.310448
1130.530, 3.468300
1131.013, 7.168694
1131.495, 10.61243
1131.977, 9.190666
1132.459, 4.160782
1132.941, 1.624458
1133.423, 1.447037
1133.905, 2.444389
1134.387, 4.384430
1134.870, 5.002907
1135.352, 3.272858
1135.834, 1.552628
1136.316, 2.178925
1136.798, 3.965767
1137.280, 5.215073
1137.762, 5.869263
1138.244, 5.634109
1138.726, 4.590515
1139.208, 2.641586
1139.691, 8.2520001E-02
1140.173, 0.6257020
1140.655, 2.265617
1141.137, 5.624168
1141.619, 4.861290
1142.101, 2.294434
1142.583, 2.309570
1143.065, 3.722588
1143.548, 3.450417
1144.030, 1.657516
1144.512, 0.8087840
1144.994, 1.809738
1145.476, 2.884193
1145.958, 2.412491
1146.440, 1.612358
1146.922, 1.381233
1147.405, 1.800369
1147.887, 3.719627
1148.369, 6.095909
1148.851, 6.715645
1149.333, 5.372025
1149.815, 3.856529
1150.297, 2.944717
1150.779, 1.979828
1151.261, 0.2007830
1151.744, 0.5864720
1152.226, 2.076515
1152.708, 5.270325
1153.190, 5.018051
1153.672, 2.165558
1154.154, 0.2568050
1154.636, 7.6903999E-02
1155.118, 0.8105160
1155.600, 3.166069
1156.083, 5.096146
1156.565, 5.967163
1157.047, 6.114151
1157.529, 5.294975
1158.011, 4.140556
1158.493, 3.846451
1158.975, 4.430992
1159.457, 4.001503
1159.940, 1.5876999E-02
1160.422, 0.9335100
1160.904, 4.957092
1161.386, 8.569000
1161.868, 4.819740
1162.350, 8.4311999E-02
1162.832, 0.4650270
1163.314, 2.389603
1163.796, 4.542328
1164.279, 5.889008
1164.761, 7.213104
1165.243, 9.007843
1165.725, 9.007767
1166.207, 6.264168
1166.689, 4.028130
1167.171, 4.319611
1167.653, 5.632919
1168.135, 5.786659
1168.618, 5.061211
1169.100, 5.180038
1169.582, 6.123039
1170.064, 6.269432
1170.546, 5.503906
1171.028, 5.045570
1171.510, 5.300087
1171.992, 5.744690
1172.474, 5.960014
1172.957, 6.110275
1173.439, 6.969307
1173.921, 7.841507
1174.403, 6.123459
1174.885, 2.650551
1175.367, 0.4136960
1175.849, 7.6530002E-02
1176.331, 1.631866
1176.814, 4.972336
1177.296, 7.706688
1177.778, 7.274063
1178.260, 5.748253
1178.742, 5.618187
1179.224, 5.820923
1179.706, 4.332802
1180.188, 2.228401
1180.671, 2.181602
1181.153, 4.300232
1181.635, 5.979698
1182.117, 6.075569
1182.599, 5.770081
1183.081, 4.880363
1183.563, 4.481750
1184.045, 5.859123
1184.527, 7.459671
1185.010, 7.608788
1185.492, 6.773834
1185.974, 6.292534
1186.456, 6.372017
1186.938, 6.353798
1187.420, 6.285141
1187.902, 5.875481
1188.384, 4.667183
1188.866, 3.623085
1189.349, 3.234688
1189.831, 3.144104
1190.313, 3.184219
1190.795, 3.171837
1191.277, 2.232018
1191.759, 0.2062610
1192.241, 0.8614040
1192.723, 0.8550110
1193.206, 2.270103
1193.688, 2.778839
1194.170, 3.189606
1194.652, 4.003670
1195.134, 4.702805
1195.616, 5.116676
1196.098, 5.118835
1196.580, 3.466133
1197.063, 4.511353
1197.545, 1.076256
1198.027, 4.842079
1198.509, 7.105919
1198.991, 6.470154
1199.473, 4.617287
1199.955, 2.539581
1200.437, 1.182610
1200.919, 2.399284
1201.401, 4.726357
1201.884, 5.844513
1202.366, 6.014351
1202.848, 5.299576
1203.330, 4.286819
1203.812, 4.725410
1204.294, 6.926048
1204.776, 8.454926
1205.258, 7.575005
1205.741, 6.277527
1206.223, 6.215744
1206.705, 5.809067
1207.187, 2.532410
1207.669, 0.8504330
1208.151, 0.4955900
1208.633, 2.811722
1209.115, 5.707436
1209.598, 7.670525
1210.080, 8.317375
1210.562, 5.773033
1211.044, 4.487221
1211.526, 6.668518
1212.008, 8.649834
1212.490, 9.029350
1212.972, 8.027061
1213.454, 5.337334
1213.937, 1.597534
1214.419, 2.3491001E-02
1214.901, 1.038925
1215.383, 2.141052
1215.865, 3.343063
1216.347, 4.490799
1216.829, 5.535469
1217.311, 6.698196
1217.793, 8.163582
1218.276, 9.265358
1218.758, 9.258102
1219.240, 8.342117
1219.722, 6.862503
1220.204, 5.151489
1220.686, 4.961296
1221.168, 5.797607
1221.650, 4.473808
1222.133, 0.8012160
1222.615, 1.388351
1223.097, 0.1220170
1223.579, 3.032043
1224.061, 6.803360
1224.543, 9.335640
1225.025, 7.399948
1225.507, 3.967285
1225.990, 2.261765
1226.472, 2.031097
1226.954, 2.162140
1227.436, 2.402008
1227.918, 2.787773
1228.400, 3.475632
1228.882, 3.944992
1229.364, 3.950294
1229.846, 3.879265
1230.328, 4.489616
1230.811, 4.408310
1231.293, 1.532143
1231.775, 1.999847
1232.257, 1.850357
1232.739, 1.946419
1233.221, 4.292343
1233.703, 4.900391
1234.185, 5.369835
1234.668, 5.860039
1235.150, 5.886909
1235.632, 5.224762
1236.114, 4.655144
1236.596, 4.817055
1237.078, 5.274040
1237.560, 5.246262
1238.042, 4.899231
1238.525, 4.924835
1239.007, 5.020477
1239.489, 4.191551
1239.971, 2.612236
1240.453, 1.324860
1240.935, 0.8123700
1241.417, 2.043388
1241.899, 6.331055
1242.381, 10.05112
1242.864, 9.930717
1243.346, 8.505440
1243.828, 6.962959
1244.310, 6.042671
1244.792, 7.369064
1245.274, 9.580452
1245.756, 9.203445
1246.238, 5.771309
1246.720, 3.772232
1247.203, 6.124283
1247.685, 7.021538
1248.167, 4.739403
1248.649, 2.981682
1249.131, 2.866585
1249.613, 3.765678
1250.095, 5.881958
1250.577, 7.651413
1251.059, 5.329117
1251.542, 0.4773480
1252.024, 1.958870
1252.506, 0.8442460
1252.988, 2.550980
1253.470, 2.729988
1253.952, 3.173424
1254.434, 4.802765
1254.916, 6.373528
1255.399, 7.134804
1255.881, 7.261475
1256.363, 6.821785
1256.845, 6.004425
1257.327, 4.743019
1257.809, 3.527237
1258.291, 2.963829
1258.773, 2.535889
1259.255, 3.839058
1259.738, 6.009010
1260.220, 6.777908
1260.702, 4.755714
1261.184, 2.915802
1261.666, 1.904724
1262.148, 1.658623
1262.630, 2.993294
1263.112, 4.184303
1263.594, 3.538704
1264.077, 2.413979
1264.559, 3.202393
1265.041, 5.446167
1265.523, 4.680145
1266.005, 0.2392430
1266.487, 0.7993090
1266.969, 3.825401
1267.451, 6.967438
1267.934, 7.023842
1268.416, 6.369904
1268.898, 6.233330
1269.380, 7.058601
1269.862, 8.167351
1270.344, 8.965683
1270.826, 7.871857
1271.308, 5.993118
1271.791, 5.831039
1272.273, 6.456474
1272.755, 4.750069
1273.237, 1.358032
1273.719, 0.9761580
1274.201, 5.446175
1274.683, 8.583527
1275.165, 6.053467
1275.647, 3.810249
1276.130, 4.897240
1276.612, 6.377350
1277.094, 5.469398
1277.576, 3.912628
1278.058, 3.597626
1278.540, 4.143211
1279.022, 4.591072
1279.504, 4.996429
1279.986, 4.334503
1280.469, 2.316772
1280.951, 1.371971
1281.433, 1.770668
1281.915, 3.100296
1282.397, 5.243721
1282.879, 6.110237
1283.361, 3.847969
1283.843, 0.8495860
1284.326, 2.9991001E-02
1284.808, 0.0000000E+00
##END=



