##NAMES=Rockbridgeite
##RRUFFID=R070594
##IDEAL CHEMISTRY=(Fe^2+^_0.5_Fe^3+^_0.5_)_2_Fe^3+^_3_(PO_4_)_3_(OH)_5_
##LOCALITY=Llallagua, Bustillos, Potosi, Bolivia
##OWNER=RRUFF
##SOURCE=James Shigley
##DESCRIPTION=Radiating aggregate of black bladed crystals associated with pyrite
##STATUS=The identification of this mineral has been confirmed only by X-ray diffraction
##URL=rruff.info/R070594
145.0305, 0.0000000E+00
145.5126, 7.239258
145.9948, 23.58997
146.4769, 53.84363
146.9590, 80.74390
147.4411, 91.54175
147.9232, 61.74780
148.4053, 44.74634
148.8875, 52.92236
149.3696, 93.20911
149.8517, 118.0656
150.3338, 118.2260
150.8159, 106.2026
151.2980, 96.58386
151.7802, 93.16846
152.2623, 89.42822
152.7444, 82.42480
153.2265, 63.29016
153.7086, 56.84045
154.1908, 81.46704
154.6729, 128.4806
155.1550, 149.0306
155.6371, 130.0353
156.1192, 101.4998
156.6013, 76.08081
157.0834, 53.82568
157.5656, 37.70020
158.0477, 32.71094
158.5298, 37.31470
159.0119, 38.78540
159.4940, 27.08203
159.9761, 13.09155
160.4583, 5.229126
160.9404, 14.53723
161.4225, 25.26721
161.9046, 30.42126
162.3867, 28.59265
162.8688, 23.13989
163.3510, 8.705688
163.8331, 7.522949
164.3152, 13.48914
164.7973, 8.841309
165.2794, 33.40039
165.7615, 41.18420
166.2437, 26.69385
166.7258, 12.00073
167.2079, 10.62671
167.6900, 20.44312
168.1721, 30.78137
168.6542, 37.43811
169.1364, 45.01050
169.6185, 53.21033
170.1006, 66.69824
170.5827, 80.22131
171.0648, 83.95032
171.5469, 85.50354
172.0291, 85.00696
172.5112, 86.22266
172.9933, 93.41553
173.4754, 93.34973
173.9575, 82.89563
174.4396, 73.40979
174.9218, 84.11499
175.4039, 113.7885
175.8860, 141.4727
176.3681, 142.9558
176.8502, 120.6088
177.3323, 99.27405
177.8144, 87.66077
178.2966, 87.87012
178.7787, 99.07153
179.2608, 120.7435
179.7429, 141.1122
180.2250, 139.6062
180.7071, 119.5168
181.1893, 100.2520
181.6714, 96.71411
182.1535, 102.7988
182.6356, 100.4866
183.1177, 85.19556
183.5998, 65.57104
184.0820, 54.95654
184.5641, 53.08020
185.0462, 56.93506
185.5283, 70.25659
186.0104, 89.47107
186.4925, 97.11499
186.9747, 84.86951
187.4568, 61.90002
187.9389, 52.95349
188.4210, 59.12146
188.9031, 67.37048
189.3852, 61.96240
189.8674, 44.63660
190.3495, 34.42236
190.8316, 42.75366
191.3137, 63.60046
191.7958, 66.16858
192.2779, 46.87305
192.7601, 21.86560
193.2422, 12.94336
193.7243, 20.88379
194.2064, 27.58569
194.6885, 23.90759
195.1706, 10.22827
195.6528, 2.365967
196.1349, 2.133423
196.6170, 4.716675
197.0991, 0.8267820
197.5812, 16.26697
198.0633, 28.03149
198.5455, 25.84827
199.0276, 8.493652
199.5097, 0.6484380
199.9918, 3.136353
200.4739, 13.72571
200.9560, 12.80884
201.4381, 2.596558
201.9203, 18.45203
202.4024, 25.93506
202.8845, 26.48828
203.3666, 22.04797
203.8487, 11.28674
204.3308, 4.002930
204.8130, 14.67676
205.2951, 19.94495
205.7772, 22.40356
206.2593, 25.18652
206.7414, 29.63379
207.2235, 28.38306
207.7057, 18.17615
208.1878, 0.5184330
208.6699, 16.47705
209.1520, 31.48364
209.6341, 41.10828
210.1162, 38.23706
210.5984, 17.55090
211.0805, 0.2036130
211.5626, 8.410400
212.0447, 8.040649
212.5268, 6.2134001E-02
213.0089, 19.67273
213.4911, 43.12720
213.9732, 55.81323
214.4553, 52.36389
214.9374, 50.59314
215.4195, 58.07690
215.9016, 78.20447
216.3838, 95.20166
216.8659, 110.6027
217.3480, 122.0413
217.8301, 122.3815
218.3122, 104.2637
218.7943, 88.51355
219.2765, 85.49304
219.7586, 100.5490
220.2407, 114.7159
220.7228, 128.9639
221.2049, 141.7140
221.6870, 145.7750
222.1691, 134.7804
222.6513, 125.9894
223.1334, 129.6101
223.6155, 152.8214
224.0976, 171.8834
224.5797, 185.0551
225.0618, 192.4669
225.5440, 194.6235
226.0261, 188.1661
226.5082, 180.5508
226.9903, 177.5046
227.4724, 180.7460
227.9545, 184.9645
228.4367, 188.7623
228.9188, 192.1846
229.4009, 200.1622
229.8830, 217.2122
230.3651, 234.1251
230.8472, 241.4878
231.3294, 236.1742
231.8115, 226.7614
232.2936, 212.1287
232.7757, 190.6515
233.2578, 181.9725
233.7399, 194.4398
234.2221, 213.0714
234.7042, 219.6361
235.1863, 209.1384
235.6684, 195.0084
236.1505, 179.4758
236.6326, 160.9653
237.1148, 149.2280
237.5969, 148.7343
238.0790, 152.3063
238.5611, 147.8033
239.0432, 128.3397
239.5253, 111.3159
240.0075, 102.8267
240.4896, 105.5765
240.9717, 108.8781
241.4538, 114.1560
241.9359, 119.3191
242.4180, 119.3898
242.9002, 109.4897
243.3823, 101.8055
243.8644, 102.8690
244.3465, 122.4767
244.8286, 128.1091
245.3107, 113.4395
245.7928, 85.82324
246.2750, 66.79956
246.7571, 60.06067
247.2392, 56.33618
247.7213, 50.00891
248.2034, 35.24170
248.6855, 32.20642
249.1677, 47.73303
249.6498, 75.83386
250.1319, 90.93726
250.6140, 85.96289
251.0961, 77.92847
251.5782, 78.57520
252.0604, 96.80579
252.5425, 102.2607
253.0246, 86.03137
253.5067, 53.33850
253.9888, 34.42078
254.4709, 33.59326
254.9531, 40.65015
255.4352, 50.52466
255.9173, 69.82556
256.3994, 77.16052
256.8815, 65.76282
257.3636, 37.92529
257.8458, 22.87231
258.3279, 23.41663
258.8100, 32.33191
259.2921, 46.14062
259.7742, 69.42249
260.2563, 83.54919
260.7385, 82.94910
261.2206, 68.38220
261.7027, 57.87378
262.1848, 51.78174
262.6669, 47.97766
263.1490, 45.40088
263.6312, 45.32288
264.1133, 43.42151
264.5954, 37.98682
265.0775, 29.53064
265.5596, 23.88013
266.0417, 21.53735
266.5239, 22.04297
267.0060, 26.92468
267.4881, 39.16223
267.9702, 44.81628
268.4523, 35.34790
268.9344, 10.32678
269.4166, 7.888062
269.8987, 37.00989
270.3808, 75.80334
270.8629, 97.62305
271.3450, 99.21033
271.8271, 94.93188
272.3093, 85.79065
272.7914, 71.75293
273.2735, 69.85022
273.7556, 85.01624
274.2377, 103.6576
274.7198, 104.0372
275.2020, 81.83582
275.6841, 66.68958
276.1662, 70.88281
276.6483, 94.20618
277.1304, 113.4188
277.6125, 128.8818
278.0946, 139.7683
278.5768, 144.1902
279.0589, 141.8365
279.5410, 136.5067
280.0231, 128.4454
280.5052, 117.8977
280.9873, 109.0907
281.4695, 101.9164
281.9516, 96.79358
282.4337, 95.08374
282.9158, 96.89221
283.3979, 98.98291
283.8800, 100.3606
284.3622, 100.9642
284.8443, 99.71277
285.3264, 95.99341
285.8085, 92.10522
286.2906, 91.35376
286.7727, 93.71045
287.2549, 97.61194
287.7370, 104.0054
288.2191, 111.9481
288.7012, 116.7732
289.1833, 118.7069
289.6654, 116.3075
290.1476, 101.9570
290.6297, 77.61890
291.1118, 61.84167
291.5939, 72.30981
292.0760, 99.57544
292.5581, 111.0126
293.0403, 102.8119
293.5224, 87.66040
294.0045, 82.23999
294.4866, 84.95056
294.9687, 86.39185
295.4508, 80.46729
295.9330, 69.90759
296.4151, 60.19043
296.8972, 51.34717
297.3793, 45.04028
297.8614, 44.03516
298.3435, 47.55786
298.8257, 52.83862
299.3078, 61.57715
299.7899, 70.32947
300.2720, 71.84265
300.7541, 64.34009
301.2362, 55.60303
301.7184, 54.06531
302.2005, 57.79785
302.6826, 61.28174
303.1647, 63.10242
303.6468, 62.47620
304.1289, 58.03503
304.6111, 49.28040
305.0932, 38.48242
305.5753, 23.73572
306.0574, 7.998291
306.5395, 1.548218
307.0216, 2.457520
307.5038, 12.07227
307.9859, 21.18945
308.4680, 30.09387
308.9501, 34.40698
309.4322, 26.33411
309.9143, 11.61877
310.3965, 1.523071
310.8786, 2.971436
311.3607, 9.593628
311.8428, 18.48303
312.3249, 30.55310
312.8070, 38.74438
313.2892, 33.75159
313.7713, 23.05554
314.2534, 18.98926
314.7355, 38.11707
315.2176, 56.42737
315.6997, 59.32434
316.1819, 42.21826
316.6640, 24.74805
317.1461, 9.878662
317.6282, 0.1943360
318.1103, 0.6365970
318.5924, 21.04285
319.0746, 41.28503
319.5567, 48.84277
320.0388, 40.02722
320.5209, 32.13037
321.0030, 28.92456
321.4851, 28.95740
321.9673, 30.41357
322.4494, 35.69177
322.9315, 39.80933
323.4136, 40.76355
323.8957, 37.55872
324.3778, 35.44141
324.8599, 32.34607
325.3420, 31.51123
325.8242, 36.64294
326.3063, 59.92029
326.7884, 77.28589
327.2705, 80.75684
327.7526, 66.36829
328.2347, 60.77490
328.7169, 69.47607
329.1990, 84.05017
329.6811, 96.16858
330.1632, 108.4795
330.6453, 114.5410
331.1274, 111.2111
331.6096, 97.38428
332.0917, 87.55457
332.5738, 82.64648
333.0559, 80.91846
333.5380, 81.67114
334.0201, 88.39197
334.5023, 89.72278
334.9844, 80.85693
335.4665, 62.55762
335.9486, 52.63757
336.4307, 53.23181
336.9128, 59.11487
337.3950, 66.95923
337.8771, 78.74390
338.3592, 86.01367
338.8413, 85.02271
339.3234, 77.78992
339.8055, 75.40393
340.2877, 79.28516
340.7698, 82.97937
341.2519, 79.42310
341.7340, 69.78162
342.2161, 59.80396
342.6982, 49.06714
343.1804, 39.54919
343.6625, 39.69482
344.1446, 50.68030
344.6267, 61.82532
345.1088, 62.76184
345.5909, 54.91833
346.0731, 49.84888
346.5552, 50.72437
347.0373, 55.20459
347.5194, 58.25024
348.0015, 59.83313
348.4836, 59.76660
348.9658, 55.59729
349.4479, 49.68970
349.9300, 48.93372
350.4121, 56.81152
350.8942, 65.89417
351.3763, 65.09619
351.8585, 56.11584
352.3406, 47.61719
352.8227, 49.32153
353.3048, 54.62097
353.7869, 52.63074
354.2690, 38.27771
354.7512, 26.62463
355.2333, 34.71167
355.7154, 55.95959
356.1975, 73.63184
356.6796, 77.75183
357.1617, 75.67004
357.6439, 71.96765
358.1260, 65.80359
358.6081, 62.22302
359.0902, 66.28345
359.5723, 74.82996
360.0544, 82.56750
360.5366, 92.82312
361.0187, 97.57385
361.5008, 89.34045
361.9829, 63.69714
362.4650, 44.98096
362.9471, 44.85071
363.4293, 54.12769
363.9114, 61.51807
364.3935, 63.44409
364.8756, 64.31689
365.3577, 66.17346
365.8398, 69.76611
366.3220, 69.46851
366.8041, 56.80859
367.2862, 43.62183
367.7683, 41.28162
368.2504, 61.55908
368.7325, 79.18335
369.2146, 91.36035
369.6967, 98.05408
370.1789, 99.46765
370.6610, 92.25476
371.1431, 82.92139
371.6252, 76.54749
372.1073, 74.71680
372.5894, 72.27637
373.0716, 67.38745
373.5537, 61.08154
374.0358, 60.98474
374.5179, 70.26135
375.0000, 79.05481
375.4821, 78.16809
375.9643, 64.54480
376.4464, 61.48413
376.9285, 75.02063
377.4106, 97.60596
377.8927, 108.3151
378.3748, 106.0200
378.8570, 100.6277
379.3391, 98.20996
379.8212, 98.29675
380.3033, 95.27002
380.7854, 87.59790
381.2675, 79.26221
381.7497, 77.02148
382.2318, 80.38904
382.7139, 85.22412
383.1960, 90.27930
383.6781, 95.12463
384.1602, 99.51306
384.6424, 103.9006
385.1245, 105.1002
385.6066, 97.37378
386.0887, 83.51831
386.5708, 71.11877
387.0529, 64.59900
387.5351, 60.50610
388.0172, 54.32800
388.4993, 45.85352
388.9814, 40.48511
389.4635, 45.60583
389.9456, 55.01465
390.4278, 60.42297
390.9099, 59.49695
391.3920, 53.37756
391.8741, 37.37366
392.3562, 13.17542
392.8383, 1.797485
393.3205, 11.57776
393.8026, 30.45544
394.2847, 36.97742
394.7668, 10.55603
395.2489, 10.29126
395.7310, 12.83398
396.2132, 1.728027
396.6953, 3.076416
397.1774, 13.31177
397.6595, 27.39209
398.1416, 27.33679
398.6237, 4.012207
399.1059, 23.28552
399.5880, 26.47400
400.0701, 18.29944
400.5522, 8.498047
401.0343, 5.550659
401.5164, 17.57361
401.9986, 26.20251
402.4807, 32.39404
402.9628, 29.86047
403.4449, 15.19641
403.9270, 4.342529
404.4091, 19.52307
404.8913, 30.65747
405.3734, 35.28137
405.8555, 30.69385
406.3376, 17.86914
406.8197, 7.707764
407.3018, 0.3972170
407.7840, 4.873413
408.2661, 10.47693
408.7482, 15.82629
409.2303, 13.36963
409.7124, 3.856079
410.1945, 26.25073
410.6767, 29.50378
411.1588, 14.67822
411.6409, 0.2301030
412.1230, 1.358887
412.6051, 12.35486
413.0872, 18.01611
413.5693, 13.74084
414.0515, 6.453247
414.5336, 0.5989990
415.0157, 2.997681
415.4978, 1.914063
415.9799, 8.315186
416.4620, 22.04907
416.9442, 34.24341
417.4263, 43.48840
417.9084, 53.61938
418.3905, 73.17822
418.8726, 93.65662
419.3547, 101.5511
419.8369, 74.92908
420.3190, 50.31140
420.8011, 43.55554
421.2832, 57.42395
421.7653, 74.04407
422.2474, 96.57922
422.7296, 117.1246
423.2117, 128.8580
423.6938, 119.6794
424.1759, 114.5852
424.6580, 118.1395
425.1401, 129.4099
425.6223, 138.4940
426.1044, 144.5504
426.5865, 149.5024
427.0686, 154.4307
427.5507, 159.2146
428.0328, 164.1472
428.5150, 168.8147
428.9971, 173.8157
429.4792, 180.1719
429.9613, 187.4236
430.4434, 198.0236
430.9255, 218.2457
431.4077, 247.4962
431.8898, 257.6450
432.3719, 245.0298
432.8540, 223.3824
433.3361, 209.0135
433.8182, 201.6533
434.3004, 199.4591
434.7825, 203.3679
435.2646, 211.3287
435.7467, 220.4803
436.2288, 230.8348
436.7109, 239.2091
437.1931, 240.1193
437.6752, 237.7803
438.1573, 239.9149
438.6394, 253.5444
439.1215, 266.2456
439.6036, 265.1294
440.0858, 253.6299
440.5679, 245.1731
441.0500, 250.6718
441.5321, 259.2704
442.0142, 262.2942
442.4963, 255.0388
442.9785, 249.7799
443.4606, 254.0165
443.9427, 262.1434
444.4248, 264.4899
444.9069, 241.3308
445.3890, 229.3857
445.8712, 245.7737
446.3533, 300.0155
446.8354, 334.1002
447.3175, 336.9521
447.7996, 327.3203
448.2817, 321.4618
448.7639, 321.2534
449.2460, 321.1149
449.7281, 319.4904
450.2102, 317.1409
450.6923, 319.9707
451.1744, 331.2981
451.6566, 339.5543
452.1387, 333.2136
452.6208, 311.3798
453.1029, 301.1730
453.5850, 309.6414
454.0671, 324.5757
454.5493, 317.9904
455.0314, 291.0688
455.5135, 271.1322
455.9956, 279.6567
456.4777, 306.4186
456.9598, 323.5300
457.4420, 329.7843
457.9240, 331.2698
458.4062, 332.5619
458.8883, 332.7583
459.3704, 330.5546
459.8525, 322.4241
460.3346, 314.7329
460.8167, 314.8611
461.2989, 322.0320
461.7810, 326.9006
462.2631, 319.3412
462.7452, 309.7852
463.2273, 306.8683
463.7094, 320.3717
464.1916, 326.9290
464.6737, 313.7184
465.1558, 289.6969
465.6379, 274.5059
466.1200, 274.5594
466.6021, 280.0970
467.0843, 292.4547
467.5664, 318.0259
468.0485, 323.1664
468.5306, 295.9021
469.0127, 258.8800
469.4948, 234.9939
469.9770, 226.4530
470.4591, 226.3652
470.9412, 236.8770
471.4233, 255.2571
471.9054, 264.4419
472.3875, 262.9225
472.8697, 256.0444
473.3518, 246.5503
473.8339, 235.3138
474.3160, 223.9452
474.7981, 212.3070
475.2802, 202.1501
475.7624, 197.1547
476.2445, 196.0327
476.7266, 193.9930
477.2087, 187.2938
477.6908, 179.2736
478.1729, 173.3066
478.6551, 169.5669
479.1372, 167.9167
479.6193, 170.5300
480.1014, 174.3506
480.5835, 175.8385
481.0656, 174.0652
481.5478, 169.5217
482.0299, 159.3057
482.5120, 145.1832
482.9941, 136.1311
483.4762, 139.6639
483.9583, 145.0616
484.4405, 147.9707
484.9226, 151.1168
485.4047, 144.8329
485.8868, 118.0439
486.3689, 87.07739
486.8510, 77.17053
487.3332, 103.5389
487.8153, 120.1943
488.2974, 111.3226
488.7795, 79.17798
489.2616, 64.65857
489.7437, 72.16321
490.2259, 83.32263
490.7080, 81.39124
491.1901, 67.08057
491.6722, 55.11914
492.1543, 47.15857
492.6364, 43.21484
493.1186, 46.32507
493.6007, 54.92419
494.0828, 59.57935
494.5649, 47.29834
495.0470, 31.02234
495.5291, 33.29321
496.0113, 57.25000
496.4934, 77.24756
496.9755, 68.13501
497.4576, 46.04541
497.9397, 31.48572
498.4218, 37.89478
498.9040, 47.26379
499.3861, 53.94177
499.8682, 57.79553
500.3503, 58.38306
500.8324, 56.80652
501.3145, 51.03674
501.7967, 38.99768
502.2788, 13.25574
502.7609, 4.191772
503.2430, 12.52808
503.7251, 13.11780
504.2072, 6.913940
504.6893, 9.987427
505.1714, 24.87805
505.6536, 34.86145
506.1357, 40.03357
506.6178, 39.83850
507.0999, 32.58008
507.5820, 26.83765
508.0641, 33.76074
508.5463, 50.94543
509.0284, 56.57495
509.5105, 44.58411
509.9926, 26.27625
510.4747, 16.83289
510.9568, 14.97180
511.4390, 15.69006
511.9211, 19.56885
512.4032, 22.92834
512.8853, 19.44080
513.3674, 8.605347
513.8495, 1.765015
514.3317, 10.78821
514.8138, 24.92554
515.2959, 33.42578
515.7780, 27.44165
516.2601, 21.93323
516.7422, 21.53125
517.2244, 24.89551
517.7065, 27.05493
518.1886, 25.74683
518.6707, 24.74402
519.1528, 25.52783
519.6349, 28.80640
520.1171, 31.11963
520.5992, 32.20862
521.0813, 32.64319
521.5634, 33.57947
522.0455, 35.62952
522.5276, 34.53735
523.0098, 27.75134
523.4919, 18.05029
523.9740, 14.89673
524.4561, 18.35486
524.9382, 23.42639
525.4203, 27.13770
525.9025, 29.88379
526.3846, 34.14160
526.8667, 41.27502
527.3488, 43.93005
527.8309, 30.73743
528.3130, 8.604492
528.7952, 9.822876
529.2773, 21.30017
529.7594, 26.23621
530.2415, 21.17993
530.7236, 7.781616
531.2057, 1.501221
531.6879, 0.8807370
532.1700, 6.372925
532.6521, 10.10620
533.1342, 12.14917
533.6163, 11.44324
534.0984, 6.442627
534.5806, 0.5828860
535.0627, 6.554932
535.5448, 11.93860
536.0269, 15.11719
536.5090, 15.11121
536.9911, 12.35034
537.4733, 10.25769
537.9554, 9.018066
538.4375, 7.722046
538.9196, 3.606689
539.4017, 2.036865
539.8839, 0.3503420
540.3660, 14.49438
540.8481, 29.57959
541.3302, 30.10559
541.8123, 20.23962
542.2944, 11.39636
542.7766, 9.170166
543.2587, 10.19080
543.7408, 12.53442
544.2229, 15.98730
544.7050, 18.54065
545.1871, 17.11438
545.6693, 15.67480
546.1514, 17.14465
546.6335, 22.55273
547.1156, 30.01111
547.5977, 43.86157
548.0798, 58.85376
548.5620, 64.68359
549.0441, 55.73230
549.5262, 46.18970
550.0083, 38.59094
550.4904, 33.01074
550.9725, 32.99255
551.4547, 40.06006
551.9368, 48.38818
552.4189, 52.68433
552.9010, 53.34705
553.3831, 56.88550
553.8652, 65.64246
554.3474, 73.52209
554.8295, 68.32263
555.3116, 53.82288
555.7937, 43.20471
556.2758, 44.56470
556.7579, 51.75537
557.2401, 59.75098
557.7222, 68.43079
558.2043, 76.91833
558.6864, 84.03760
559.1685, 91.28381
559.6506, 100.3219
560.1328, 114.9408
560.6149, 124.3770
561.0970, 124.0762
561.5791, 118.5548
562.0612, 115.4886
562.5433, 116.6377
563.0255, 117.9694
563.5076, 118.5011
563.9897, 118.3499
564.4718, 119.6709
564.9539, 123.1943
565.4360, 126.1277
565.9182, 124.2809
566.4003, 118.3652
566.8824, 120.8970
567.3645, 135.0356
567.8466, 151.7555
568.3287, 157.3835
568.8109, 155.2092
569.2930, 155.5068
569.7750, 166.7550
570.2571, 179.5914
570.7393, 182.7928
571.2214, 178.0590
571.7035, 176.5509
572.1856, 189.7656
572.6677, 204.5764
573.1498, 211.4606
573.6320, 204.2770
574.1141, 200.5382
574.5962, 208.8228
575.0783, 219.7217
575.5604, 220.7887
576.0425, 203.5590
576.5247, 191.4956
577.0068, 190.2234
577.4889, 197.2709
577.9710, 201.2607
578.4531, 202.1593
578.9352, 200.1909
579.4174, 194.4438
579.8995, 185.5901
580.3816, 176.3978
580.8637, 166.5760
581.3458, 159.8685
581.8279, 164.1348
582.3101, 174.0869
582.7922, 177.6903
583.2743, 164.5055
583.7564, 152.2638
584.2385, 159.1002
584.7206, 178.1554
585.2028, 188.3909
585.6849, 171.2451
586.1670, 152.0870
586.6491, 143.8608
587.1312, 151.3372
587.6133, 151.1121
588.0955, 136.3361
588.5776, 120.1021
589.0597, 112.2122
589.5418, 115.1205
590.0239, 116.2386
590.5060, 113.6505
590.9882, 109.8920
591.4703, 111.5858
591.9524, 119.2065
592.4345, 124.9281
592.9166, 124.1945
593.3987, 119.0197
593.8809, 113.5397
594.3630, 107.7773
594.8451, 102.9403
595.3272, 99.24023
595.8093, 97.20972
596.2914, 97.82056
596.7736, 101.9824
597.2557, 106.2759
597.7378, 113.0126
598.2199, 118.5671
598.7020, 117.2537
599.1841, 100.0387
599.6663, 86.18372
600.1484, 79.57471
600.6305, 79.74011
601.1126, 77.92896
601.5947, 73.94507
602.0768, 68.42444
602.5590, 60.17053
603.0411, 49.16919
603.5232, 45.61938
604.0053, 49.79102
604.4874, 57.05792
604.9695, 65.08441
605.4517, 74.14618
605.9338, 80.00653
606.4159, 81.25592
606.8980, 79.22949
607.3801, 72.54364
607.8622, 63.41724
608.3444, 58.18054
608.8265, 64.58447
609.3086, 71.78210
609.7907, 72.11029
610.2728, 64.54700
610.7549, 61.22339
611.2371, 72.48187
611.7192, 83.34503
612.2013, 83.77533
612.6834, 66.76111
613.1655, 55.22662
613.6476, 49.38757
614.1298, 49.06305
614.6119, 56.00562
615.0940, 71.30817
615.5761, 82.64990
616.0582, 85.51831
616.5403, 82.67712
617.0225, 80.70996
617.5046, 79.34497
617.9867, 75.99774
618.4688, 65.25513
618.9509, 53.56012
619.4330, 49.28607
619.9152, 53.99121
620.3973, 59.04932
620.8794, 59.64832
621.3615, 58.44958
621.8436, 58.03638
622.3257, 60.72632
622.8079, 62.40259
623.2900, 61.48364
623.7721, 58.56622
624.2542, 57.09894
624.7363, 58.85114
625.2184, 58.16406
625.7006, 51.51160
626.1827, 40.33484
626.6648, 38.53210
627.1469, 47.25098
627.6290, 54.35370
628.1111, 45.99310
628.5933, 28.98132
629.0754, 23.41156
629.5575, 32.93494
630.0396, 44.20905
630.5217, 47.91235
631.0038, 45.47192
631.4860, 38.91455
631.9681, 21.09784
632.4502, 7.663025
632.9323, 4.245544
633.4144, 9.627563
633.8965, 20.38403
634.3787, 48.45227
634.8608, 67.61035
635.3429, 67.90540
635.8250, 48.68024
636.3071, 36.40332
636.7892, 33.42645
637.2714, 31.43231
637.7535, 20.98395
638.2356, 3.929443
638.7177, 1.857178
639.1998, 7.331055
639.6819, 20.34216
640.1641, 24.69128
640.6462, 22.90332
641.1283, 20.48224
641.6104, 17.49304
642.0925, 16.62183
642.5746, 20.83356
643.0568, 28.76215
643.5389, 36.06177
644.0210, 44.33472
644.5031, 48.95886
644.9852, 46.21460
645.4673, 35.04852
645.9495, 28.04364
646.4316, 27.40540
646.9137, 27.43146
647.3958, 22.35431
647.8779, 11.14850
648.3600, 7.902832
648.8422, 15.07770
649.3243, 26.48108
649.8064, 36.48523
650.2885, 44.05981
650.7706, 44.92511
651.2527, 32.48480
651.7349, 18.77155
652.2170, 17.18750
652.6991, 24.46185
653.1812, 30.09351
653.6633, 27.15765
654.1454, 23.59772
654.6276, 25.72479
655.1097, 35.69196
655.5918, 33.62750
656.0739, 5.369995
656.5560, 21.10602
657.0381, 26.48444
657.5203, 4.673401
658.0024, 13.53119
658.4845, 28.43591
658.9666, 36.67206
659.4487, 30.37347
659.9308, 11.66113
660.4129, 6.754822
660.8950, 24.54871
661.3771, 35.19495
661.8593, 23.87024
662.3414, 2.366333
662.8235, 22.44037
663.3056, 20.16650
663.7877, 13.81641
664.2698, 13.62195
664.7520, 20.23273
665.2341, 25.82849
665.7162, 28.07147
666.1983, 29.94659
666.6804, 34.20398
667.1625, 45.16461
667.6447, 41.78046
668.1268, 17.22943
668.6089, 8.967957
669.0910, 9.043274
669.5731, 14.11823
670.0552, 28.30817
670.5374, 24.38721
671.0195, 13.19171
671.5016, 7.189331
671.9837, 5.563171
672.4658, 6.117065
672.9479, 9.719055
673.4301, 13.46796
673.9122, 14.46667
674.3943, 13.29822
674.8764, 15.28656
675.3585, 27.57861
675.8406, 37.92102
676.3228, 40.32867
676.8049, 33.08173
677.2870, 27.40100
677.7691, 23.95471
678.2512, 20.63672
678.7333, 14.95892
679.2155, 7.083008
679.6976, 0.1941530
680.1797, 6.190369
680.6618, 8.817688
681.1439, 0.6194460
681.6260, 16.69861
682.1082, 27.28052
682.5903, 20.65485
683.0724, 13.66882
683.5545, 19.95203
684.0366, 34.66370
684.5187, 42.02643
685.0009, 29.76343
685.4830, 17.99390
685.9651, 14.31873
686.4472, 18.94684
686.9293, 18.52057
687.4114, 10.33600
687.8936, 3.251221
688.3757, 4.231323
688.8578, 12.60608
689.3399, 21.17847
689.8220, 30.08459
690.3041, 36.36993
690.7863, 35.59357
691.2684, 30.37036
691.7505, 25.41443
692.2326, 22.30634
692.7147, 19.03473
693.1968, 13.60919
693.6790, 7.418396
694.1611, 2.796021
694.6432, 0.2614750
695.1253, 0.5537720
695.6074, 0.7172240
696.0895, 0.5119020
696.5717, 8.502991
697.0538, 27.13733
697.5359, 41.23859
698.0180, 40.81445
698.5001, 29.23309
698.9822, 26.10138
699.4644, 31.55457
699.9465, 38.11145
700.4286, 42.48077
700.9107, 43.26782
701.3928, 36.20636
701.8749, 18.20959
702.3571, 5.421753
702.8392, 11.00421
703.3213, 23.52972
703.8034, 31.43945
704.2855, 27.33325
704.7676, 26.13397
705.2498, 30.76898
705.7319, 37.24121
706.2140, 37.64862
706.6961, 30.72174
707.1782, 24.64960
707.6603, 20.70605
708.1425, 19.80414
708.6246, 27.39136
709.1067, 41.67499
709.5888, 51.32648
710.0709, 44.48853
710.5530, 33.19714
711.0352, 29.33801
711.5173, 33.09039
711.9994, 37.13483
712.4815, 39.28180
712.9636, 40.57111
713.4457, 41.65387
713.9279, 42.71533
714.4100, 41.56158
714.8921, 39.13245
715.3742, 37.34259
715.8563, 34.09174
716.3384, 28.94238
716.8206, 29.79266
717.3027, 39.37732
717.7848, 49.82550
718.2669, 48.37164
718.7490, 38.38489
719.2311, 29.95428
719.7133, 30.15826
720.1954, 32.38373
720.6775, 28.21027
721.1596, 20.96588
721.6417, 19.13470
722.1238, 35.29095
722.6060, 45.41803
723.0881, 39.00623
723.5702, 19.25903
724.0523, 15.95453
724.5344, 34.64191
725.0165, 51.82245
725.4987, 50.87891
725.9808, 36.23865
726.4629, 34.26984
726.9450, 45.95612
727.4271, 58.23096
727.9092, 60.34814
728.3914, 55.73279
728.8735, 47.33380
729.3556, 34.12598
729.8377, 23.50342
730.3198, 19.67047
730.8019, 19.32281
731.2841, 19.23468
731.7662, 17.06665
732.2483, 19.44830
732.7304, 29.80316
733.2125, 41.75964
733.6946, 43.15033
734.1768, 33.63220
734.6589, 26.62537
735.1410, 26.44794
735.6231, 29.58478
736.1052, 30.31158
736.5873, 29.53461
737.0695, 30.17114
737.5516, 36.28418
738.0337, 41.62183
738.5158, 41.01544
738.9979, 36.15039
739.4800, 35.72144
739.9622, 49.73840
740.4443, 59.76636
740.9264, 58.18597
741.4085, 43.05255
741.8906, 33.69452
742.3727, 31.48157
742.8549, 32.88672
743.3370, 38.52789
743.8191, 45.75519
744.3012, 42.87842
744.7833, 27.96350
745.2654, 14.62006
745.7476, 15.86206
746.2297, 24.30804
746.7118, 32.38300
747.1939, 40.98273
747.6760, 43.99463
748.1581, 33.37195
748.6403, 19.27991
749.1224, 14.95325
749.6044, 25.45300
750.0865, 32.12000
750.5687, 30.89325
751.0508, 26.43414
751.5329, 30.17017
752.0150, 40.75104
752.4971, 46.34747
752.9792, 38.88544
753.4614, 27.86627
753.9435, 23.55298
754.4256, 24.23889
754.9077, 25.83087
755.3898, 29.84723
755.8719, 31.46698
756.3541, 24.33148
756.8362, 9.052612
757.3183, 9.003723
757.8004, 33.76343
758.2825, 56.71509
758.7646, 64.78815
759.2468, 58.70203
759.7289, 51.94611
760.2110, 44.33380
760.6931, 37.57410
761.1752, 33.04291
761.6573, 30.32812
762.1395, 30.23480
762.6216, 33.57220
763.1037, 33.30212
763.5858, 20.29248
764.0679, 5.083923
764.5500, 3.095581
765.0322, 1.020874
765.5143, 5.771973
765.9964, 21.38049
766.4785, 37.31335
766.9606, 42.93951
767.4427, 37.96527
767.9249, 27.94794
768.4070, 10.96710
768.8891, 3.646118
769.3712, 1.786926
769.8533, 19.97119
770.3354, 33.51953
770.8176, 33.55389
771.2997, 29.48022
771.7818, 11.71643
772.2639, 25.04047
772.7460, 32.50659
773.2281, 34.42432
773.7103, 14.22144
774.1924, 23.03491
774.6745, 21.28003
775.1566, 19.32141
775.6387, 32.21442
776.1208, 15.19135
776.6030, 27.34863
777.0851, 27.86560
777.5672, 33.72009
778.0493, 28.02911
778.5314, 25.90308
779.0135, 35.32440
779.4957, 38.39410
779.9778, 31.43976
780.4599, 37.62848
780.9420, 20.20990
781.4241, 23.50671
781.9063, 35.74237
782.3884, 29.34698
782.8705, 35.75464
783.3526, 37.26392
783.8347, 16.54291
784.3168, 34.48248
784.7990, 35.70477
785.2811, 19.80652
785.7632, 36.50879
786.2453, 22.96509
786.7274, 20.16193
787.2095, 25.46832
787.6917, 22.35370
788.1738, 32.64532
788.6559, 30.27618
789.1380, 26.90179
789.6201, 28.24384
790.1022, 15.27441
790.5844, 28.60046
791.0665, 23.94952
791.5486, 28.25513
792.0307, 34.60938
792.5128, 27.27692
792.9949, 26.29852
793.4771, 24.08673
793.9592, 23.66876
794.4413, 30.34161
794.9234, 33.88715
795.4055, 25.20337
795.8876, 9.997559
796.3698, 1.251465
796.8519, 6.844543
797.3340, 7.992554
797.8161, 2.105530
798.2982, 17.13245
798.7803, 14.67633
799.2625, 5.384338
799.7446, 21.94043
800.2267, 24.16992
800.7088, 19.49707
801.1909, 19.76447
801.6730, 23.39996
802.1552, 24.25415
802.6373, 12.06024
803.1194, 3.047363
803.6015, 8.569153
804.0836, 28.15692
804.5657, 38.83173
805.0479, 37.09729
805.5300, 32.84467
806.0121, 28.69958
806.4942, 24.85260
806.9763, 26.51678
807.4584, 33.65918
807.9406, 39.81824
808.4227, 41.54547
808.9048, 38.88159
809.3869, 29.73700
809.8690, 14.01617
810.3511, 1.450012
810.8333, 4.659607
811.3154, 5.899231
811.7975, 1.860962
812.2796, 9.263916
812.7617, 14.59900
813.2438, 11.89972
813.7260, 8.479858
814.2081, 11.41199
814.6902, 19.21893
815.1723, 24.63416
815.6544, 27.12543
816.1365, 27.13580
816.6187, 21.71381
817.1008, 15.71521
817.5829, 14.66766
818.0650, 21.15430
818.5471, 28.36157
819.0292, 40.22095
819.5114, 48.40833
819.9935, 43.38062
820.4756, 19.91327
820.9577, 8.286499
821.4398, 12.20068
821.9219, 22.48254
822.4041, 30.13959
822.8862, 35.07281
823.3683, 36.55908
823.8504, 34.04828
824.3325, 29.44531
824.8146, 19.85779
825.2968, 10.27643
825.7789, 6.915222
826.2610, 17.14911
826.7431, 25.87030
827.2252, 33.98322
827.7073, 39.22681
828.1895, 35.79126
828.6716, 24.17963
829.1537, 20.38568
829.6358, 30.44171
830.1179, 41.56250
830.6000, 33.84680
831.0822, 14.53815
831.5643, 2.121155
832.0464, 16.49902
832.5285, 20.70642
833.0106, 2.789307
833.4927, 25.43988
833.9749, 40.34680
834.4570, 35.90350
834.9391, 32.46655
835.4212, 34.66785
835.9033, 38.52185
836.3854, 31.80298
836.8676, 17.35632
837.3497, 12.43219
837.8318, 32.38843
838.3139, 53.22467
838.7960, 49.03052
839.2781, 29.74005
839.7602, 17.67719
840.2423, 27.16589
840.7244, 35.91479
841.2065, 39.12164
841.6887, 37.74225
842.1708, 31.26019
842.6529, 18.47479
843.1350, 12.06757
843.6171, 20.81732
844.0992, 34.72668
844.5814, 33.65253
845.0635, 21.77875
845.5456, 10.37103
846.0277, 2.263245
846.5098, 0.3449710
846.9919, 7.856689
847.4741, 23.48431
847.9562, 31.50372
848.4383, 28.41034
848.9204, 23.63617
849.4025, 17.79846
849.8846, 13.30450
850.3668, 22.07056
850.8489, 42.22955
851.3310, 55.52142
851.8131, 44.59308
852.2952, 28.22827
852.7773, 25.59314
853.2595, 33.92999
853.7416, 39.72034
854.2237, 37.86792
854.7058, 32.52258
855.1879, 23.44708
855.6700, 12.26160
856.1522, 7.753418
856.6343, 12.29242
857.1164, 21.94403
857.5985, 38.23828
858.0806, 54.21240
858.5627, 54.15009
859.0449, 41.46381
859.5270, 29.91376
860.0091, 25.67084
860.4912, 25.38580
860.9733, 31.16547
861.4554, 41.28113
861.9376, 40.10431
862.4197, 20.36523
862.9018, 5.064026
863.3839, 4.037048
863.8660, 13.44305
864.3481, 21.58740
864.8303, 28.55524
865.3124, 35.34851
865.7945, 45.49768
866.2766, 53.49524
866.7587, 53.23755
867.2408, 45.63922
867.7230, 37.19110
868.2051, 27.21356
868.6872, 18.72955
869.1693, 12.74762
869.6514, 9.549438
870.1335, 8.242676
870.6157, 8.599792
871.0978, 12.43024
871.5799, 24.62445
872.0620, 38.40717
872.5441, 43.06610
873.0262, 40.13171
873.5084, 37.25854
873.9905, 37.82819
874.4726, 36.36804
874.9547, 32.40277
875.4368, 26.39032
875.9189, 19.74780
876.4011, 11.17285
876.8832, 6.766785
877.3653, 10.96869
877.8474, 19.77252
878.3295, 22.37512
878.8116, 19.99774
879.2938, 18.73553
879.7759, 25.68933
880.2580, 31.14355
880.7401, 27.14478
881.2222, 15.75140
881.7043, 8.647888
882.1865, 6.370605
882.6686, 8.864014
883.1507, 18.37299
883.6328, 31.43561
884.1149, 37.56702
884.5970, 36.80267
885.0792, 30.14038
885.5613, 8.774902
886.0434, 10.41498
886.5255, 8.665955
887.0076, 7.952271
887.4897, 20.53564
887.9719, 21.28979
888.4540, 20.68738
888.9361, 20.34131
889.4182, 19.99597
889.9003, 19.00940
890.3824, 17.96295
890.8646, 20.53137
891.3467, 29.41107
891.8288, 38.01166
892.3109, 36.87714
892.7930, 28.81250
893.2751, 20.63092
893.7573, 13.17993
894.2394, 8.205566
894.7215, 8.155762
895.2036, 10.34723
895.6857, 8.556763
896.1678, 1.331055
896.6500, 2.341187
897.1321, 0.7693480
897.6142, 6.823303
898.0963, 0.1940310
898.5784, 13.16028
899.0605, 20.64606
899.5427, 22.57788
900.0248, 2.334229
900.5069, 10.66956
900.9890, 7.486023
901.4711, 3.878967
901.9532, 16.27759
902.4354, 0.7630620
902.9175, 11.33783
903.3996, 11.70941
903.8817, 17.22650
904.3638, 11.05182
904.8459, 8.728088
905.3281, 18.07208
905.8102, 21.04309
906.2923, 13.95728
906.7744, 20.06122
907.2565, 2.530029
907.7386, 5.677795
908.2208, 17.81073
908.7029, 19.67157
909.1850, 31.53638
909.6671, 26.39709
910.1492, 8.094177
910.6313, 4.570374
911.1135, 8.381470
911.5956, 5.940308
912.0777, 9.293945
912.5598, 25.06842
913.0419, 27.44940
913.5240, 3.822876
914.0062, 11.44196
914.4883, 15.14410
914.9704, 12.89697
915.4525, 8.004211
915.9346, 0.8611450
916.4167, 3.536865
916.8989, 4.710449
917.3810, 4.475586
917.8631, 2.721924
918.3452, 1.360168
918.8273, 3.342529
919.3094, 10.25140
919.7916, 12.93823
920.2737, 3.941101
920.7558, 2.328491
921.2379, 6.187622
921.7200, 29.52881
922.2021, 34.84778
922.6843, 21.57751
923.1664, 5.557129
923.6485, 3.465088
924.1306, 7.534180
924.6127, 8.680908
925.0948, 7.008850
925.5770, 1.750732
926.0591, 13.65869
926.5412, 25.64209
927.0233, 26.88782
927.5054, 19.47266
927.9875, 24.63354
928.4697, 42.71582
928.9517, 54.91968
929.4338, 47.49829
929.9160, 30.17639
930.3981, 7.628174
930.8802, 15.97131
931.3623, 25.29199
931.8444, 1.3184000E-02
932.3265, 23.06311
932.8087, 34.45496
933.2908, 36.24011
933.7729, 31.12109
934.2550, 18.24316
934.7371, 15.21167
935.2192, 33.22546
935.7014, 56.53357
936.1835, 64.01660
936.6656, 61.20923
937.1477, 59.97693
937.6298, 63.14636
938.1119, 70.27930
938.5941, 84.23352
939.0762, 100.0056
939.5583, 109.6549
940.0404, 112.7699
940.5225, 116.8071
941.0046, 123.6290
941.4868, 129.7792
941.9689, 129.1824
942.4510, 125.8654
942.9331, 126.2273
943.4152, 133.2555
943.8973, 139.2308
944.3795, 140.5106
944.8616, 144.6455
945.3437, 158.7625
945.8258, 184.6960
946.3079, 199.4747
946.7900, 200.8860
947.2722, 199.7577
947.7543, 206.6487
948.2364, 216.7670
948.7185, 223.3850
949.2006, 225.1626
949.6827, 229.1348
950.1649, 239.5000
950.6470, 250.6488
951.1291, 260.1547
951.6112, 268.0042
952.0933, 274.0189
952.5754, 278.0725
953.0576, 284.4888
953.5397, 298.6949
954.0218, 314.7190
954.5039, 327.3212
954.9860, 336.3999
955.4681, 340.2615
955.9503, 327.4410
956.4324, 322.0912
956.9145, 334.5452
957.3966, 357.9158
957.8787, 365.4722
958.3608, 357.9285
958.8430, 348.7205
959.3251, 340.1023
959.8072, 336.7108
960.2893, 351.8031
960.7714, 374.9504
961.2535, 382.7599
961.7357, 354.4497
962.2178, 329.1425
962.6999, 309.5410
963.1820, 297.2921
963.6641, 298.9541
964.1462, 313.3085
964.6284, 318.7607
965.1105, 309.0739
965.5926, 299.9690
966.0747, 313.8834
966.5568, 332.5950
967.0389, 333.3572
967.5211, 300.1475
968.0032, 279.8483
968.4853, 282.6813
968.9674, 286.9827
969.4495, 273.7300
969.9316, 245.8324
970.4138, 224.5341
970.8959, 210.6024
971.3780, 205.5470
971.8601, 221.7941
972.3422, 238.0127
972.8243, 233.7108
973.3065, 207.4513
973.7886, 190.4922
974.2707, 188.0775
974.7528, 186.3722
975.2349, 180.3505
975.7170, 170.8328
976.1992, 158.5824
976.6813, 144.6559
977.1634, 134.0789
977.6455, 134.6812
978.1276, 134.0643
978.6097, 118.4072
979.0919, 97.20630
979.5740, 94.90332
980.0561, 120.9435
980.5382, 141.1531
981.0203, 150.3977
981.5024, 150.5209
981.9846, 138.9861
982.4667, 121.3989
982.9488, 112.7061
983.4309, 119.9884
983.9130, 127.7484
984.3951, 128.8258
984.8773, 126.6307
985.3594, 124.1805
985.8415, 120.7854
986.3236, 120.9493
986.8057, 125.7710
987.2878, 128.8231
987.7700, 119.8994
988.2521, 107.4211
988.7342, 106.1143
989.2163, 116.8914
989.6984, 126.9105
990.1805, 128.2539
990.6627, 126.9729
991.1448, 125.5288
991.6269, 123.7963
992.1090, 119.3622
992.5911, 112.1233
993.0732, 109.9458
993.5554, 122.8242
994.0375, 136.3995
994.5196, 129.9568
995.0017, 111.4631
995.4838, 99.86133
995.9659, 109.6115
996.4481, 113.6154
996.9302, 104.3057
997.4123, 92.39172
997.8944, 99.21216
998.3765, 121.5864
998.8586, 134.7777
999.3408, 133.3601
999.8229, 125.2545
1000.305, 111.2161
1000.787, 97.04858
1001.269, 88.81714
1001.751, 89.46802
1002.233, 90.00867
1002.716, 91.00342
1003.198, 90.42542
1003.680, 83.60474
1004.162, 74.29749
1004.644, 77.52258
1005.126, 80.75195
1005.608, 92.32068
1006.090, 98.02979
1006.573, 98.19226
1007.055, 76.18994
1007.537, 82.82397
1008.019, 77.98938
1008.501, 72.68896
1008.983, 83.36902
1009.465, 64.61865
1009.947, 75.05603
1010.429, 73.84998
1010.912, 77.97974
1011.394, 70.57117
1011.876, 66.73621
1012.358, 74.45825
1012.840, 75.79102
1013.322, 67.08167
1013.804, 71.59265
1014.286, 52.50195
1014.768, 54.36182
1015.251, 64.93237
1015.733, 56.83313
1016.215, 61.58362
1016.697, 61.44763
1017.179, 39.08887
1017.661, 55.39478
1018.143, 54.98865
1018.625, 37.42200
1019.107, 52.42090
1019.590, 37.44739
1020.072, 33.58948
1020.554, 37.77832
1021.036, 33.03857
1021.518, 41.63513
1022.000, 37.39551
1022.482, 32.01306
1022.964, 28.50073
1023.447, 19.01746
1023.929, 10.95105
1024.411, 3.078125
1024.893, 3.933105
1025.375, 16.83459
1025.857, 32.09753
1026.339, 36.23120
1026.821, 32.82019
1027.303, 28.40173
1027.786, 24.37195
1028.268, 21.15173
1028.750, 18.85950
1029.232, 16.55469
1029.714, 13.84119
1030.196, 10.76257
1030.678, 7.761353
1031.160, 4.908936
1031.643, 3.182007
1032.125, 0.7664790
1032.607, 1.943848
1033.089, 13.99792
1033.571, 33.09021
1034.053, 43.45984
1034.535, 40.43762
1035.017, 38.48389
1035.500, 41.29028
1035.982, 44.98877
1036.464, 38.92212
1036.946, 28.71021
1037.428, 30.98743
1037.910, 56.64099
1038.392, 75.72961
1038.874, 72.96826
1039.356, 59.88525
1039.839, 42.60144
1040.321, 18.90576
1040.803, 13.37585
1041.285, 27.12695
1041.767, 41.47095
1042.249, 40.31616
1042.731, 34.03699
1043.213, 33.88330
1043.695, 39.16455
1044.178, 42.70703
1044.660, 42.77979
1045.142, 41.77551
1045.624, 39.39197
1046.106, 37.21069
1046.588, 40.85291
1047.070, 47.89209
1047.552, 49.25842
1048.035, 39.16943
1048.517, 30.28296
1048.999, 30.61609
1049.481, 34.84521
1049.963, 37.62512
1050.445, 38.52686
1050.927, 39.63538
1051.409, 41.05090
1051.891, 41.87500
1052.374, 41.42114
1052.856, 39.90479
1053.338, 36.00122
1053.820, 30.43420
1054.302, 29.42505
1054.784, 42.40247
1055.266, 48.02039
1055.748, 37.25378
1056.230, 19.67017
1056.713, 21.66394
1057.195, 38.45715
1057.677, 47.35193
1058.159, 38.28101
1058.641, 27.82385
1059.123, 25.17126
1059.605, 26.84448
1060.087, 28.79431
1060.570, 29.86621
1061.052, 36.90186
1061.534, 51.51965
1062.016, 62.66162
1062.498, 59.17261
1062.980, 48.42603
1063.462, 38.22913
1063.944, 29.41479
1064.426, 24.49548
1064.909, 27.48730
1065.391, 30.24597
1065.873, 30.54187
1066.355, 29.96790
1066.837, 34.84973
1067.319, 42.84155
1067.801, 41.90930
1068.283, 24.36499
1068.766, 8.389526
1069.248, 6.097900
1069.730, 10.82898
1070.212, 17.44800
1070.694, 28.26160
1071.176, 25.50183
1071.658, 6.797852
1072.140, 8.119507
1072.622, 2.808472
1073.104, 21.80347
1073.587, 24.90063
1074.069, 14.63049
1074.551, 8.545776
1075.033, 16.80261
1075.515, 20.33960
1075.997, 14.24817
1076.479, 3.128052
1076.961, 7.120972
1077.444, 14.92932
1077.926, 13.34851
1078.408, 2.617310
1078.890, 16.07825
1079.372, 17.16614
1079.854, 12.44604
1080.336, 6.070557
1080.818, 2.607178
1081.301, 6.6284001E-02
1081.783, 14.71289
1082.265, 23.52515
1082.747, 5.700684
1083.229, 17.10010
1083.711, 20.55493
1084.193, 9.972778
1084.675, 4.799194
1085.157, 13.20447
1085.640, 15.27710
1086.122, 6.117310
1086.604, 6.147827
1087.086, 11.06299
1087.568, 10.90186
1088.050, 9.545776
1088.532, 7.013184
1089.014, 7.604736
1089.496, 20.42297
1089.979, 29.54041
1090.461, 23.98816
1090.943, 6.502197
1091.425, 5.185425
1091.907, 18.65637
1092.389, 27.36963
1092.871, 13.91809
1093.353, 0.7873540
1093.836, 1.480591
1094.318, 7.465088
1094.800, 18.39050
1095.282, 34.52063
1095.764, 39.67334
1096.246, 30.59070
1096.728, 18.72571
1097.210, 15.92224
1097.693, 18.37537
1098.175, 21.79907
1098.657, 25.68811
1099.139, 25.28125
1099.621, 12.37524
1100.103, 5.397095
1100.585, 13.27612
1101.067, 29.00439
1101.549, 35.40186
1102.031, 35.05200
1102.514, 35.78210
1102.996, 40.23010
1103.478, 46.57532
1103.960, 57.09460
1104.442, 66.84875
1104.924, 70.41003
1105.406, 64.81824
1105.888, 69.31970
1106.371, 85.32629
1106.853, 98.11694
1107.335, 91.16589
1107.817, 80.08447
1108.299, 81.18762
1108.781, 91.78918
1109.263, 93.91882
1109.745, 82.78040
1110.228, 74.58130
1110.710, 73.27856
1111.192, 74.91260
1111.674, 72.97498
1112.156, 70.04480
1112.638, 71.28577
1113.120, 78.96875
1113.602, 85.55627
1114.084, 91.08472
1114.567, 92.90527
1115.049, 89.07690
1115.531, 80.35376
1116.013, 65.88342
1116.495, 48.33508
1116.977, 42.31079
1117.459, 68.59192
1117.941, 90.88452
1118.423, 89.26880
1118.906, 76.61511
1119.388, 68.94495
1119.870, 66.56860
1120.352, 70.33337
1120.834, 80.25647
1121.316, 85.64355
1121.798, 72.21362
1122.280, 54.99707
1122.763, 47.96094
1123.245, 51.70422
1123.727, 52.45398
1124.209, 50.31860
1124.691, 43.60291
1125.173, 29.53528
1125.655, 14.88586
1126.137, 10.13489
1126.620, 12.19177
1127.102, 16.06567
1127.584, 21.60779
1128.066, 26.43408
1128.548, 30.93933
1129.030, 33.63281
1129.512, 30.67297
1129.994, 24.89185
1130.476, 31.71960
1130.958, 48.27344
1131.441, 59.79114
1131.923, 58.29163
1132.405, 51.48499
1132.887, 37.67200
1133.369, 23.33777
1133.851, 19.21838
1134.333, 24.67468
1134.815, 29.58240
1135.298, 32.47888
1135.780, 34.77576
1136.262, 38.26099
1136.744, 41.17249
1137.226, 40.69226
1137.708, 37.12781
1138.190, 38.19373
1138.672, 44.59082
1139.155, 48.88928
1139.637, 48.35425
1140.119, 43.99939
1140.601, 33.58972
1141.083, 20.84509
1141.565, 13.51672
1142.047, 18.65674
1142.529, 14.73047
1143.011, 2.478027
1143.494, 16.84717
1143.976, 13.47180
1144.458, 0.3576660
1144.940, 11.86768
1145.422, 21.69263
1145.904, 23.77539
1146.386, 5.167725
1146.868, 5.267212
1147.350, 1.756348
1147.833, 8.082153
1148.315, 15.26270
1148.797, 19.74268
1149.279, 19.95105
1149.761, 15.25513
1150.243, 11.81750
1150.725, 12.19080
1151.207, 15.22571
1151.690, 21.96301
1152.172, 30.52271
1152.654, 30.73157
1153.136, 24.18713
1153.618, 22.88867
1154.100, 35.11804
1154.582, 44.49817
1155.064, 36.54517
1155.546, 24.23743
1156.029, 22.35339
1156.511, 33.86743
1156.993, 28.52612
1157.475, 6.677734
1157.957, 10.06226
1158.439, 3.423706
1158.921, 9.998047
1159.403, 19.14465
1159.885, 24.62695
1160.368, 30.01074
1160.850, 37.76025
1161.332, 33.15320
1161.814, 11.71655
1162.296, 7.852783
1162.778, 3.962402
1163.260, 11.45129
1163.742, 28.03198
1164.224, 44.49915
1164.707, 49.72668
1165.189, 39.54883
1165.671, 28.55640
1166.153, 19.41626
1166.635, 14.50159
1167.117, 21.92358
1167.599, 35.10278
1168.081, 41.60608
1168.564, 35.13306
1169.046, 33.50513
1169.528, 42.28308
1170.010, 48.91272
1170.492, 43.99353
1170.974, 32.01770
1171.456, 25.75415
1171.938, 23.96033
1172.421, 21.99841
1172.903, 19.02051
1173.385, 13.94958
1173.867, 4.131714
1174.349, 4.530518
1174.831, 4.812500
1175.313, 1.897827
1175.795, 11.19214
1176.277, 22.34094
1176.760, 26.86609
1177.242, 9.099243
1177.724, 4.485352
1178.206, 1.293457
1178.688, 11.93848
1179.170, 20.50647
1179.652, 25.16187
1180.134, 31.84460
1180.616, 42.39575
1181.099, 50.50879
1181.581, 50.83093
1182.063, 47.76807
1182.545, 43.75793
1183.027, 39.32776
1183.509, 38.16309
1183.991, 40.08228
1184.473, 40.18787
1184.956, 35.10974
1185.438, 30.24670
1185.920, 31.82043
1186.402, 34.65588
1186.884, 31.41260
1187.366, 19.49768
1187.848, 19.23389
1188.330, 31.43799
1188.813, 41.80200
1189.295, 37.34387
1189.777, 29.77307
1190.259, 31.02344
1190.741, 36.79492
1191.223, 35.52271
1191.705, 23.61560
1192.187, 19.72485
1192.669, 27.02380
1193.151, 32.83630
1193.634, 18.75220
1194.116, 1.379150
1194.598, 0.6492920
1195.080, 15.55273
1195.562, 22.03625
1196.044, 16.07727
1196.526, 12.52783
1197.008, 15.29309
1197.491, 20.49854
1197.973, 23.68872
1198.455, 25.99023
1198.937, 28.96729
1199.419, 33.05298
1199.901, 36.67578
1200.383, 40.46802
1200.865, 40.96741
1201.348, 34.51843
1201.830, 27.36584
1202.312, 32.86609
1202.794, 42.93054
1203.276, 42.73987
1203.758, 18.17810
1204.240, 6.349609
1204.722, 12.31104
1205.204, 19.89917
1205.687, 14.67297
1206.169, 3.789551
1206.651, 2.997192
1207.133, 9.485229
1207.615, 14.08899
1208.097, 10.11475
1208.579, 10.22864
1209.061, 16.84900
1209.543, 24.95483
1210.026, 29.72083
1210.508, 31.70300
1210.990, 31.52380
1211.472, 29.42188
1211.954, 26.85669
1212.436, 26.90918
1212.918, 21.12109
1213.400, 3.274780
1213.883, 13.29297
1214.365, 0.2569580
1214.847, 29.51440
1215.329, 46.37891
1215.811, 43.65515
1216.293, 43.56421
1216.775, 56.89050
1217.257, 65.97131
1217.740, 63.73755
1218.222, 54.28296
1218.704, 46.48157
1219.186, 39.57666
1219.668, 29.91406
1220.150, 10.75049
1220.632, 5.129761
1221.114, 27.49756
1221.596, 49.51514
1222.078, 54.81897
1222.561, 48.08215
1223.043, 43.53613
1223.525, 40.41675
1224.007, 36.37952
1224.489, 29.49292
1224.971, 22.74902
1225.453, 14.29236
1225.935, 9.493774
1226.418, 17.22668
1226.900, 31.66333
1227.382, 32.71936
1227.864, 22.82886
1228.346, 17.57935
1228.828, 32.82104
1229.310, 40.79956
1229.792, 32.33008
1230.275, 18.81885
1230.757, 12.97705
1231.239, 15.89905
1231.721, 27.78735
1232.203, 46.04602
1232.685, 52.62268
1233.167, 25.14270
1233.649, 2.851196
1234.131, 4.494507
1234.614, 0.7437740
1235.096, 12.40576
1235.578, 30.02710
1236.060, 38.12000
1236.542, 33.35425
1237.024, 28.08704
1237.506, 28.93860
1237.988, 26.49292
1238.470, 13.99609
1238.953, 0.5550540
1239.435, 6.974854
1239.917, 28.64905
1240.399, 43.27722
1240.881, 45.58289
1241.363, 41.56274
1241.845, 26.08691
1242.327, 13.48901
1242.810, 9.839355
1243.292, 14.91821
1243.774, 37.60840
1244.256, 68.43530
1244.738, 80.00073
1245.220, 44.96204
1245.702, 21.48718
1246.184, 20.99219
1246.666, 25.60413
1247.149, 22.23486
1247.631, 14.66626
1248.113, 16.09021
1248.595, 24.07617
1249.077, 30.54858
1249.559, 33.64343
1250.041, 32.21729
1250.523, 22.58862
1251.005, 15.33777
1251.488, 15.32104
1251.970, 19.97974
1252.452, 26.17688
1252.934, 32.79602
1253.416, 34.49817
1253.898, 23.88293
1254.380, 18.97754
1254.862, 23.97375
1255.344, 30.74927
1255.827, 26.58386
1256.309, 17.83484
1256.791, 15.87817
1257.273, 21.43762
1257.755, 27.77271
1258.237, 35.44568
1258.719, 40.04871
1259.201, 40.47205
1259.684, 38.01355
1260.166, 32.59998
1260.648, 25.22534
1261.130, 20.58899
1261.612, 18.01123
1262.094, 16.57520
1262.576, 16.05420
1263.058, 16.83215
1263.541, 21.56763
1264.023, 25.45752
1264.505, 19.88757
1264.987, 10.93835
1265.469, 7.809204
1265.951, 13.61963
1266.433, 14.17505
1266.915, 8.115601
1267.397, 4.395020
1267.880, 7.772217
1268.362, 14.70837
1268.844, 26.03455
1269.326, 36.05786
1269.808, 33.85303
1270.290, 14.95789
1270.772, 7.450195
1271.254, 12.09509
1271.736, 18.94556
1272.219, 24.41284
1272.701, 27.06458
1273.183, 22.24255
1273.665, 15.47192
1274.147, 15.92175
1274.629, 25.15454
1275.111, 32.79822
1275.593, 38.74878
1276.076, 40.66431
1276.558, 34.33008
1277.040, 26.40540
1277.522, 20.27954
1278.004, 16.76355
1278.486, 17.41528
1278.968, 22.13123
1279.450, 27.43433
1279.932, 32.89929
1280.415, 34.34521
1280.897, 21.31519
1281.379, 12.55164
1281.861, 24.36267
1282.343, 41.48645
1282.825, 33.94312
1283.307, 6.964722
1283.789, 1.567261
1284.271, 12.02539
1284.754, 27.92749
1285.236, 17.38562
1285.718, 7.826904
1286.200, 0.0000000E+00
##END=



