##NAMES=Romarchite
##RRUFFID=R080006
##IDEAL CHEMISTRY=SnO
##LOCALITY=Boundary Falls, Winnipeg River, Ontario, Canada
##OWNER=RRUFF
##SOURCE=Royal Ontario Museum
##DESCRIPTION=Incrusted lustrous black crystals, reported to be fine-grained psuedomorphs of an unknown phase. Co-type material.
##STATUS=The identification of this mineral has been confirmed by X-ray diffraction and chemical analysis
##URL=rruff.info/R080006
##MEASURED CHEMISTRY=Sn_1.00_O
125.3655, 0.0000000E+00
125.8476, 1.097229
126.3298, 1.436249
126.8119, 0.6300050
127.2940, 4.3304000E-02
127.7761, 0.9432370
128.2582, 1.353821
128.7404, 1.300110
129.2225, 0.6050420
129.7046, 9.4177000E-02
130.1867, 6.8207003E-02
130.6688, 2.024719
131.1509, 3.466766
131.6331, 3.795898
132.1152, 3.508484
132.5973, 3.028778
133.0794, 2.553070
133.5615, 1.884460
134.0436, 1.568787
134.5258, 2.287781
135.0079, 2.723663
135.4900, 2.286011
135.9721, 1.387238
136.4542, 0.8542480
136.9363, 1.445679
137.4185, 3.627502
137.9006, 4.654022
138.3827, 4.806580
138.8648, 4.637177
139.3469, 3.818054
139.8290, 2.462402
140.3112, 1.359344
140.7933, 1.328979
141.2754, 2.273895
141.7575, 2.732666
142.2396, 2.264008
142.7217, 1.458282
143.2039, 0.8927000
143.6860, 0.6206670
144.1681, 0.5025940
144.6502, 0.4777830
145.1323, 0.5211790
145.6144, 0.5907590
146.0966, 0.7335510
146.5787, 0.8969420
147.0608, 0.9132690
147.5429, 0.7510070
148.0250, 0.4466250
148.5071, 0.2199400
148.9893, 1.050720
149.4714, 1.506165
149.9535, 0.8607790
150.4356, 1.023193
150.9177, 2.157013
151.3998, 1.656860
151.8820, 1.046204
152.3641, 0.7917790
152.8462, 0.9511720
153.3283, 1.376801
153.8104, 1.956879
154.2925, 2.852386
154.7747, 3.432251
155.2568, 3.692322
155.7389, 3.721985
156.2210, 3.403748
156.7031, 2.787872
157.1852, 2.206909
157.6673, 2.190094
158.1495, 3.134796
158.6316, 4.047821
159.1137, 4.967346
159.5958, 5.840576
160.0779, 6.621521
160.5600, 7.296326
161.0422, 7.864197
161.5243, 8.281616
162.0064, 8.413849
162.4885, 8.716095
162.9706, 9.552063
163.4527, 10.61417
163.9349, 11.19696
164.4170, 10.83627
164.8991, 10.16589
165.3812, 10.41229
165.8633, 11.78488
166.3454, 13.29025
166.8276, 14.51617
167.3097, 15.45453
167.7918, 15.98688
168.2739, 15.57629
168.7560, 15.09259
169.2381, 15.65405
169.7203, 17.60065
170.2024, 19.84070
170.6845, 21.18073
171.1666, 21.43951
171.6487, 21.84576
172.1308, 22.91132
172.6130, 24.25925
173.0951, 25.62976
173.5772, 26.93738
174.0593, 28.27054
174.5414, 29.83737
175.0235, 31.83084
175.5057, 33.63220
175.9878, 35.08081
176.4699, 36.32318
176.9520, 37.40646
177.4341, 38.32507
177.9162, 39.26440
178.3984, 40.86151
178.8805, 44.11810
179.3626, 46.75168
179.8447, 47.99487
180.3268, 48.62558
180.8089, 49.64633
181.2911, 51.62994
181.7732, 54.38007
182.2553, 56.80334
182.7374, 58.61542
183.2195, 60.49246
183.7016, 62.52335
184.1838, 64.63403
184.6659, 66.65350
185.1480, 68.45795
185.6301, 70.09534
186.1122, 71.98529
186.5943, 74.19983
187.0765, 76.50601
187.5586, 78.94391
188.0407, 81.44067
188.5228, 83.72946
189.0049, 85.56683
189.4870, 87.00159
189.9692, 88.54465
190.4513, 90.31097
190.9334, 92.06656
191.4155, 93.66083
191.8976, 95.09680
192.3797, 96.50754
192.8619, 97.87064
193.3440, 99.29163
193.8261, 101.0372
194.3082, 103.5498
194.7903, 106.1224
195.2724, 107.9386
195.7546, 108.9200
196.2367, 109.6928
196.7188, 110.6757
197.2009, 111.7028
197.6830, 112.4679
198.1651, 112.7567
198.6473, 112.8572
199.1294, 113.3115
199.6115, 114.3298
200.0936, 115.0694
200.5757, 115.0993
201.0578, 114.6821
201.5400, 114.1274
202.0221, 113.6368
202.5042, 113.0643
202.9863, 111.8809
203.4684, 109.5761
203.9505, 107.4911
204.4327, 106.1359
204.9148, 105.2047
205.3969, 104.3044
205.8790, 103.2453
206.3611, 101.9750
206.8432, 100.3730
207.3254, 98.31155
207.8075, 96.15390
208.2896, 94.13870
208.7717, 92.02795
209.2538, 89.50433
209.7359, 86.35071
210.2181, 82.63852
210.7002, 79.16351
211.1823, 75.82410
211.6644, 72.87061
212.1465, 70.82178
212.6286, 69.17044
213.1108, 66.96515
213.5929, 63.51883
214.0750, 58.96622
214.5571, 55.39713
215.0392, 53.66797
215.5213, 51.88150
216.0035, 49.35727
216.4856, 46.36981
216.9677, 43.64017
217.4498, 41.66409
217.9319, 40.44339
218.4140, 38.87494
218.8962, 36.81418
219.3783, 34.74985
219.8604, 32.85092
220.3425, 31.04068
220.8246, 29.41422
221.3067, 28.02209
221.7889, 26.76883
222.2710, 25.54263
222.7531, 24.06683
223.2352, 22.65591
223.7173, 21.43839
224.1994, 20.39902
224.6816, 19.42209
225.1637, 18.39609
225.6458, 17.36023
226.1279, 16.38144
226.6100, 15.44330
227.0921, 14.56790
227.5743, 13.69794
228.0564, 12.86017
228.5385, 12.31180
229.0206, 12.47171
229.5027, 12.89249
229.9848, 12.59814
230.4670, 11.09317
230.9491, 9.444641
231.4312, 8.605957
231.9133, 8.580505
232.3954, 8.673157
232.8775, 8.737579
233.3597, 8.645020
233.8418, 8.213226
234.3239, 7.359039
234.8060, 6.359619
235.2881, 5.330231
235.7702, 4.193848
236.2524, 3.383606
236.7345, 3.379456
237.2166, 3.711487
237.6987, 4.077026
238.1808, 4.460938
238.6629, 4.665131
239.1451, 4.297668
239.6272, 3.190826
240.1093, 2.399109
240.5914, 2.550110
241.0735, 2.968262
241.5556, 3.243927
242.0378, 3.279449
242.5199, 3.146484
243.0020, 2.864258
243.4841, 2.345917
243.9662, 2.000641
244.4483, 2.089630
244.9305, 2.245087
245.4126, 2.251556
245.8947, 2.055298
246.3768, 1.704987
246.8589, 1.160156
247.3410, 0.1939390
247.8232, 0.2283940
248.3053, 0.4107970
248.7874, 1.269318
249.2695, 1.946533
249.7516, 2.332886
250.2337, 2.440155
250.7159, 2.181427
251.1980, 1.259827
251.6801, 0.8026120
252.1622, 1.362061
252.6443, 1.935883
253.1264, 1.858063
253.6086, 1.098267
254.0907, 0.1511840
254.5728, 0.3538510
255.0549, 0.2427060
255.5370, 0.2130130
256.0191, 0.4178470
256.5013, 0.5724490
256.9834, 0.4812010
257.4655, 0.1546020
257.9476, 0.2445980
258.4297, 0.5471800
258.9118, 0.7479250
259.3940, 0.8490910
259.8761, 0.7012330
260.3582, 0.5974430
260.8403, 0.8112180
261.3224, 1.262024
261.8045, 1.566162
262.2867, 1.297882
262.7688, 0.2969060
263.2509, 0.1240540
263.7330, 0.5220030
264.2151, 1.174347
264.6972, 1.281403
265.1794, 0.9163510
265.6615, 0.4873050
266.1436, 0.3154910
266.6257, 0.4108280
267.1078, 0.6729430
267.5899, 1.550751
268.0721, 2.150848
268.5542, 1.827423
269.0363, 0.8296200
269.5184, 2.7557001E-02
270.0005, 0.1555480
270.4826, 0.3858640
270.9648, 0.7083740
271.4469, 0.6269840
271.9290, 0.5697330
272.4111, 0.7431340
272.8932, 1.067871
273.3753, 1.367371
273.8575, 1.565796
274.3396, 1.633850
274.8217, 1.399078
275.3038, 0.8033750
275.7859, 0.5881960
276.2680, 1.351196
276.7502, 1.519775
277.2323, 0.6843260
277.7144, 0.1741640
278.1965, 0.1954040
278.6786, 0.6159360
279.1607, 0.6720280
279.6429, 1.187347
280.1250, 7.9865001E-02
280.6071, 0.1257320
281.0892, 0.7243040
281.5713, 7.6782003E-02
282.0534, 0.1928410
282.5356, 0.7705690
283.0177, 1.048553
283.4998, 0.6982420
283.9819, 1.385956
284.4640, 1.819183
284.9461, 1.873718
285.4283, 1.466095
285.9104, 0.9337160
286.3925, 0.7558590
286.8746, 0.9358830
287.3567, 1.214020
287.8388, 1.722290
288.3210, 2.227753
288.8031, 2.407745
289.2852, 2.192230
289.7673, 1.779724
290.2494, 1.349121
290.7315, 0.8971860
291.2137, 0.4282230
291.6958, 0.2894900
292.1779, 0.9021910
292.6600, 1.009491
293.1421, 0.5685120
293.6242, 0.2230830
294.1064, 1.490265
294.5885, 3.038605
295.0706, 3.869965
295.5527, 3.360840
296.0348, 2.463501
296.5169, 1.884613
296.9991, 1.640717
297.4812, 1.737640
297.9633, 2.447845
298.4454, 3.443390
298.9275, 3.746674
299.4096, 2.863800
299.8918, 1.792999
300.3739, 1.196716
300.8560, 1.031128
301.3381, 0.9939580
301.8202, 0.9358520
302.3023, 0.9515990
302.7845, 1.214264
303.2666, 1.820679
303.7487, 2.441254
304.2308, 2.979950
304.7129, 3.418762
305.1950, 3.599518
305.6772, 3.460907
306.1593, 3.106110
306.6414, 2.538727
307.1235, 1.697815
307.6056, 1.120422
308.0877, 1.293182
308.5699, 1.884460
309.0520, 2.040527
309.5341, 1.441010
310.0162, 0.7571110
310.4983, 0.8773800
310.9804, 1.664459
311.4626, 2.286560
311.9447, 2.322144
312.4268, 2.065491
312.9089, 2.060791
313.3910, 2.403503
313.8731, 2.716644
314.3553, 2.640991
314.8374, 2.292145
315.3195, 2.004028
315.8016, 1.802063
316.2837, 1.688995
316.7658, 1.711517
317.2480, 1.873718
317.7301, 2.018494
318.2122, 1.975525
318.6943, 1.876343
319.1764, 2.062103
319.6585, 2.910522
320.1407, 3.675232
320.6228, 3.488953
321.1049, 2.415283
321.5870, 1.506989
322.0691, 1.282867
322.5512, 1.566528
323.0334, 2.074524
323.5155, 3.016663
323.9976, 3.538696
324.4797, 2.802490
324.9618, 1.234985
325.4439, 0.1697690
325.9261, 4.3427002E-02
326.4082, 0.3917850
326.8903, 0.6427310
327.3724, 0.7931210
327.8545, 0.9600830
328.3366, 1.211090
328.8188, 1.512634
329.3009, 1.870697
329.7830, 2.269165
330.2651, 2.573303
330.7472, 2.552765
331.2293, 2.276642
331.7115, 2.113892
332.1936, 2.172577
332.6757, 2.340576
333.1578, 2.485657
333.6399, 2.716858
334.1220, 2.948975
334.6042, 3.213104
335.0863, 3.394745
335.5684, 3.417114
336.0505, 3.221222
336.5326, 2.774231
337.0147, 1.860474
337.4969, 0.5380550
337.9790, 0.1919860
338.4611, 9.0240002E-02
338.9432, 1.012146
339.4253, 1.730316
339.9074, 2.218170
340.3896, 2.600708
340.8717, 2.962341
341.3538, 3.245941
341.8359, 3.191711
342.3180, 2.607483
342.8001, 1.878876
343.2823, 1.487732
343.7644, 1.436218
344.2465, 1.506348
344.7286, 1.751404
345.2107, 2.053741
345.6928, 2.344238
346.1750, 2.610291
346.6571, 2.682007
347.1392, 2.299072
347.6213, 1.451538
348.1034, 1.023254
348.5855, 1.350525
349.0677, 1.811554
349.5498, 2.042084
350.0319, 2.021576
350.5140, 1.796906
350.9961, 1.333313
351.4782, 0.7652890
351.9604, 0.6219180
352.4425, 1.344635
352.9246, 1.876892
353.4067, 1.675842
353.8888, 1.099457
354.3709, 0.8552250
354.8531, 1.249115
355.3352, 1.885345
355.8173, 1.972809
356.2994, 1.148041
356.7815, 0.6206670
357.2636, 0.6690670
357.7458, 0.9604190
358.2279, 1.192261
358.7100, 1.309814
359.1921, 1.439941
359.6742, 1.782318
360.1563, 2.454590
360.6385, 2.485840
361.1206, 1.194489
361.6027, 5.0597999E-02
362.0848, 0.4472350
362.5669, 0.1304630
363.0490, 0.2917180
363.5312, 0.3967290
364.0133, 0.2479860
364.4954, 0.3765260
364.9775, 1.152924
365.4596, 1.743530
365.9417, 1.959808
366.4239, 1.904175
366.9060, 1.665375
367.3881, 1.277679
367.8702, 0.8455510
368.3523, 0.5762940
368.8344, 0.4081730
369.3166, 0.5531310
369.7987, 1.492340
370.2808, 2.380676
370.7629, 2.372803
371.2450, 1.495239
371.7271, 0.6237490
372.2093, 0.7973940
372.6914, 2.289490
373.1735, 3.043304
373.6556, 2.367493
374.1377, 1.694702
374.6198, 1.661591
375.1020, 2.025604
375.5841, 2.213837
376.0662, 1.851593
376.5483, 1.036224
377.0304, 0.1975710
377.5125, 1.106049
377.9947, 1.736328
378.4768, 1.056427
378.9589, 0.1006770
379.4410, 0.9324340
379.9231, 1.173950
380.4052, 1.073578
380.8874, 0.9577640
381.3695, 0.7715760
381.8516, 0.7553100
382.3337, 0.9542540
382.8158, 1.297089
383.2979, 1.957916
383.7801, 2.806488
384.2622, 3.379974
384.7443, 3.177002
385.2264, 2.261810
385.7085, 1.389923
386.1906, 0.3092960
386.6728, 0.3177190
387.1549, 0.1060180
387.6370, 1.011261
388.1191, 1.495361
388.6012, 1.075958
389.0833, 0.2481990
389.5655, 8.9722000E-02
390.0476, 0.1616820
390.5297, 0.4566960
391.0118, 0.7705690
391.4939, 0.9614870
391.9760, 0.8276670
392.4582, 0.3345950
392.9403, 0.1459960
393.4224, 0.3139650
393.9045, 0.2050170
394.3866, 7.3239999E-03
394.8687, 0.3264160
395.3509, 0.6081540
395.8330, 0.6452640
396.3151, 0.5307310
396.7972, 0.4097600
397.2793, 0.3739320
397.7614, 0.3384090
398.2436, 2.1149000E-02
398.7257, 0.6271060
399.2078, 0.8212890
399.6899, 0.2540280
400.1720, 1.949066
400.6541, 2.825623
401.1363, 2.515320
401.6184, 1.972443
402.1005, 1.751038
402.5826, 1.738434
403.0647, 1.558655
403.5468, 1.028351
404.0290, 0.4862670
404.5111, 0.4987180
404.9932, 1.105682
405.4753, 1.608002
405.9574, 1.794128
406.4395, 1.876984
406.9217, 2.053223
407.4038, 2.336823
407.8859, 2.679443
408.3680, 3.125519
408.8501, 3.615417
409.3322, 3.503296
409.8144, 1.396820
410.2965, 2.814423
410.7786, 3.606812
411.2607, 3.804352
411.7428, 1.626923
412.2249, 2.512024
412.7071, 2.170837
413.1892, 1.782013
413.6713, 3.102600
414.1534, 1.270142
414.6355, 2.557953
415.1176, 2.599335
415.5998, 3.212433
416.0819, 2.591064
416.5640, 2.351837
417.0461, 3.348724
417.5282, 3.662842
418.0103, 2.485016
418.4925, 1.733551
418.9746, 1.217651
419.4567, 1.463501
419.9388, 2.076660
420.4209, 2.554840
420.9030, 2.642365
421.3852, 2.501312
421.8673, 2.521118
422.3494, 2.869293
422.8315, 2.947266
423.3136, 2.332031
423.7957, 1.726227
424.2779, 1.637421
424.7600, 2.027863
425.2421, 2.437531
425.7242, 2.429901
426.2063, 2.061737
426.6884, 1.878479
427.1706, 1.921967
427.6527, 2.101563
428.1348, 2.575867
428.6169, 3.085052
429.0990, 3.218536
429.5811, 2.759338
430.0633, 2.070190
430.5454, 1.519196
431.0275, 1.099854
431.5096, 0.9744570
431.9917, 1.336334
432.4738, 1.879547
432.9560, 2.239441
433.4381, 2.418549
433.9202, 2.681000
434.4023, 3.384766
434.8844, 4.180237
435.3665, 4.298187
435.8487, 3.660278
436.3308, 2.915955
436.8129, 2.434448
437.2950, 2.147858
437.7771, 1.975769
438.2592, 1.908539
438.7414, 1.957184
439.2235, 2.282684
439.7056, 2.729065
440.1877, 2.852753
440.6698, 2.446320
441.1519, 1.869019
441.6341, 1.733154
442.1162, 2.274567
442.5983, 2.567352
443.0804, 2.293579
443.5625, 1.964355
444.0446, 2.044220
444.5268, 2.462463
445.0089, 2.811310
445.4910, 2.716248
445.9731, 2.235474
446.4552, 1.949799
446.9373, 1.869385
447.4195, 1.968384
447.9016, 2.471710
448.3837, 3.061554
448.8658, 3.414978
449.3479, 3.429108
449.8300, 3.184875
450.3122, 2.731140
450.7943, 1.930725
451.2764, 1.406403
451.7585, 1.254333
452.2406, 1.333069
452.7227, 1.840759
453.2049, 2.529968
453.6870, 2.844727
454.1691, 2.335663
454.6512, 1.411377
455.1333, 1.206879
455.6154, 2.023102
456.0976, 2.658875
456.5797, 2.418945
457.0618, 2.007721
457.5439, 2.035431
458.0260, 2.534393
458.5081, 3.102142
458.9903, 3.554657
459.4724, 3.846283
459.9545, 3.741455
460.4366, 3.048248
460.9187, 2.333130
461.4008, 2.049561
461.8830, 2.068390
462.3651, 2.103912
462.8472, 2.046051
463.3293, 2.058136
463.8114, 2.391510
464.2935, 2.927582
464.7756, 3.207184
465.2578, 3.024353
465.7399, 2.607483
466.2220, 2.314178
466.7041, 2.132996
467.1862, 2.099548
467.6683, 2.364075
468.1505, 2.672516
468.6326, 2.786469
469.1147, 2.721924
469.5968, 2.667175
470.0789, 2.760284
470.5610, 2.974152
471.0432, 3.132202
471.5253, 3.144745
472.0074, 3.211090
472.4895, 3.640167
472.9716, 3.979523
473.4537, 3.641602
473.9359, 2.564728
474.4180, 1.316589
474.9001, 0.5461120
475.3822, 0.2770690
475.8643, 0.3421940
476.3464, 1.170105
476.8286, 1.902069
477.3107, 2.151520
477.7928, 2.117920
478.2749, 2.149963
478.7570, 2.432861
479.2391, 2.725891
479.7213, 2.559875
480.2034, 1.903503
480.6855, 1.418701
481.1676, 1.198425
481.6497, 1.151855
482.1318, 1.261017
482.6140, 1.519592
483.0961, 1.765472
483.5782, 1.915436
484.0603, 2.009766
484.5424, 2.145844
485.0245, 2.326172
485.5067, 2.398407
485.9888, 2.250885
486.4709, 1.965149
486.9530, 1.729126
487.4351, 1.478210
487.9172, 1.411896
488.3994, 1.837280
488.8815, 2.405151
489.3636, 2.588348
489.8457, 2.336975
490.3278, 1.957153
490.8099, 1.717010
491.2921, 1.619751
491.7742, 1.630737
492.2563, 1.762421
492.7384, 1.967651
493.2205, 2.411316
493.7026, 2.866730
494.1848, 2.950623
494.6669, 2.533417
495.1490, 1.933136
495.6311, 1.617218
496.1132, 1.576477
496.5953, 1.746277
497.0775, 2.559296
497.5596, 3.202087
498.0417, 3.322296
498.5238, 3.007172
499.0059, 2.440125
499.4880, 1.609375
499.9702, 0.7824400
500.4523, 0.5793150
500.9344, 1.107422
501.4165, 1.564240
501.8986, 1.687286
502.3807, 1.684845
502.8629, 1.789063
503.3450, 1.994263
503.8271, 2.059937
504.3092, 1.722137
504.7913, 1.237762
505.2734, 1.011658
505.7556, 1.067627
506.2377, 1.221741
506.7198, 1.382202
507.2019, 1.562164
507.6840, 1.827240
508.1661, 2.386993
508.6483, 2.636719
509.1304, 2.168976
509.6125, 1.438568
510.0946, 0.9453130
510.5767, 0.7747190
511.0588, 0.7652890
511.5410, 0.7741700
512.0231, 0.8016360
512.5052, 0.9228210
512.9873, 1.307861
513.4694, 1.589996
513.9515, 1.571228
514.4337, 1.440857
514.9158, 1.550415
515.3979, 1.967072
515.8800, 2.290710
516.3621, 1.822418
516.8442, 0.4212340
517.3264, 0.2308650
517.8085, 0.3254090
518.2906, 1.082001
518.7727, 1.751404
519.2548, 2.260193
519.7369, 2.448700
520.2191, 2.173828
520.7012, 1.792084
521.1833, 1.787109
521.6654, 2.088409
522.1475, 2.077362
522.6296, 1.463196
523.1118, 0.7919920
523.5939, 0.8182070
524.0760, 1.424591
524.5581, 1.700043
525.0402, 1.161072
525.5223, 0.5337520
526.0045, 0.3255920
526.4866, 0.4645690
526.9687, 0.7237550
527.4508, 1.017944
527.9329, 1.295502
528.4150, 1.468658
528.8972, 1.525391
529.3793, 1.488892
529.8614, 1.331726
530.3435, 1.112061
530.8256, 0.8165280
531.3077, 0.5378110
531.7899, 0.5191960
532.2720, 0.9453430
532.7541, 1.542542
533.2362, 1.499390
533.7183, 0.4389950
534.2004, 0.1940920
534.6826, 0.2222900
535.1647, 0.8418270
535.6468, 1.347290
536.1289, 1.652710
536.6110, 1.567078
537.0931, 0.6478880
537.5753, 0.5709840
538.0574, 1.034729
538.5395, 0.7175900
539.0216, 0.2402950
539.5037, 0.2709660
539.9858, 0.6895140
540.4680, 0.7644040
540.9501, 0.4312440
541.4322, 0.1300960
541.9143, 5.4290999E-02
542.3964, 0.1252440
542.8785, 1.8828999E-02
543.3607, 0.2246700
543.8428, 0.4162290
544.3249, 0.4358830
544.8070, 0.3126220
545.2891, 0.1472470
545.7712, 0.3386540
546.2534, 0.4638370
546.7355, 0.1248780
547.2176, 0.8186950
547.6997, 1.209656
548.1818, 1.273926
548.6639, 1.200714
549.1461, 1.129761
549.6282, 1.039734
550.1103, 0.8190920
550.5924, 0.3737790
551.0745, 3.4210000E-02
551.5566, 4.1565001E-02
552.0388, 0.1015320
552.5209, 0.1222530
553.0030, 0.6353760
553.4851, 0.9046330
553.9672, 0.3961490
554.4493, 0.4768980
554.9315, 1.001038
555.4136, 1.122681
555.8957, 1.028900
556.3778, 0.7383120
556.8599, 0.3594360
557.3420, 0.2074890
557.8242, 0.3717040
558.3063, 0.5090940
558.7884, 0.5508120
559.2705, 0.5417180
559.7526, 0.5050050
560.2347, 0.4525760
560.7169, 0.3954160
561.1990, 0.2958370
561.6811, 0.2098080
562.1632, 0.4043270
562.6453, 1.249878
563.1274, 1.718628
563.6096, 1.360870
564.0917, 0.8939820
564.5738, 0.8673100
565.0559, 1.264008
565.5380, 1.678192
566.0201, 1.839600
566.5023, 1.805695
566.9844, 1.731079
567.4665, 1.626953
567.9486, 1.403320
568.4307, 0.9288940
568.9128, 0.4068600
569.3950, 0.1255190
569.8771, 0.1027220
570.3592, 9.7747996E-02
570.8413, 8.0840997E-02
571.3234, 0.2021480
571.8055, 6.8207003E-02
572.2877, 0.6601560
572.7698, 1.171143
573.2519, 1.379120
573.7340, 1.363403
574.2161, 1.322632
574.6982, 1.251251
575.1804, 1.139648
575.6625, 1.008514
576.1446, 0.8535770
576.6267, 0.5701290
577.1088, 0.2622680
577.5909, 0.2053530
578.0731, 0.6032710
578.5552, 1.216766
579.0373, 1.495514
579.5194, 1.375153
580.0015, 1.281586
580.4836, 1.392426
580.9658, 1.448822
581.4479, 1.124359
581.9300, 0.5434270
582.4121, 0.2486570
582.8942, 0.7765200
583.3763, 1.398071
583.8585, 1.199371
584.3406, 0.4457700
584.8227, 0.2546390
585.3048, 1.109222
585.7869, 2.138580
586.2690, 2.049866
586.7512, 0.4603580
587.2333, 0.3343510
587.7154, 0.1763000
588.1975, 0.8691710
588.6796, 1.420837
589.1617, 1.791473
589.6439, 1.941132
590.1260, 1.865326
590.6081, 1.705658
591.0902, 1.615997
591.5723, 1.575653
592.0544, 1.820099
592.5366, 2.813751
593.0187, 3.461182
593.5008, 3.030853
593.9829, 2.039307
594.4650, 1.223785
594.9471, 0.7552800
595.4293, 0.4494020
595.9114, 0.3086850
596.3935, 0.3035580
596.8756, 0.1964720
597.3577, 7.0189998E-02
597.8398, 0.1376040
598.3220, 0.3961180
598.8041, 1.383179
599.2862, 1.802704
599.7683, 1.029602
600.2504, 0.6019900
600.7325, 1.062042
601.2147, 1.792450
601.6968, 2.347778
602.1789, 2.598419
602.6610, 2.423065
603.1431, 1.622223
603.6252, 0.3949890
604.1074, 0.1878360
604.5895, 0.1528930
605.0716, 0.5262150
605.5537, 0.6742250
606.0358, 0.8085630
606.5179, 1.165771
607.0001, 1.702393
607.4822, 2.045532
607.9643, 1.859650
608.4464, 1.484314
608.9285, 1.333099
609.4106, 1.381653
609.8928, 1.464111
610.3749, 1.531708
610.8570, 1.459412
611.3391, 1.041534
611.8212, 0.1381840
612.3033, 0.2686460
612.7855, 0.1820070
613.2676, 0.6609190
613.7497, 0.8272090
614.2318, 0.7643130
614.7139, 0.6024170
615.1960, 0.3997190
615.6782, 0.2482300
616.1603, 0.3505250
616.6424, 0.7294310
617.1245, 0.7583010
617.6066, 0.1346740
618.0887, 0.3253170
618.5709, 7.9681002E-02
619.0530, 0.5182190
619.5351, 1.046875
620.0172, 1.486206
620.4993, 1.681915
620.9814, 1.330261
621.4636, 0.7676700
621.9457, 0.5692140
622.4278, 0.7659910
622.9099, 0.9346620
623.3920, 0.7594910
623.8741, 0.4084170
624.3563, 0.4848630
624.8384, 1.677734
625.3205, 2.284637
625.8026, 1.734253
626.2847, 1.104004
626.7668, 1.125946
627.2490, 1.676178
627.7311, 2.240143
628.2132, 2.540253
628.6953, 2.671234
629.1774, 2.883179
629.6595, 3.226135
630.1417, 3.200500
630.6238, 2.540314
631.1059, 1.810272
631.5880, 1.519135
632.0701, 1.553894
632.5522, 1.612213
633.0344, 1.603485
633.5165, 1.663635
633.9986, 2.002991
634.4807, 2.394196
634.9628, 2.488159
635.4449, 2.238342
635.9271, 1.938721
636.4092, 1.864319
636.8913, 1.986816
637.3734, 2.015839
637.8555, 1.840912
638.3376, 1.752960
638.8198, 1.839600
639.3019, 1.987030
639.7840, 2.085693
640.2661, 2.147461
640.7482, 2.297821
641.2303, 2.693878
641.7125, 3.154358
642.1946, 3.455750
642.6767, 3.585663
643.1588, 3.319427
643.6409, 2.438019
644.1230, 1.522736
644.6052, 1.360382
645.0873, 2.057709
645.5694, 2.436676
646.0515, 2.253662
646.5336, 1.978027
647.0157, 1.753784
647.4979, 1.566833
647.9800, 1.291565
648.4621, 0.9433590
648.9442, 0.8483580
649.4263, 1.476379
649.9084, 2.704498
650.3906, 3.447144
650.8727, 3.626923
651.3548, 3.528870
651.8369, 3.093353
652.3190, 2.522644
652.8011, 1.942383
653.2833, 1.354919
653.7654, 1.054291
654.2475, 1.390594
654.7296, 1.848419
655.2117, 1.858215
655.6938, 1.549347
656.1760, 1.441711
656.6581, 1.733124
657.1402, 2.084778
657.6223, 1.946564
658.1044, 1.155212
658.5865, 0.8541560
659.0687, 1.757690
659.5508, 2.346680
660.0329, 1.946564
660.5150, 1.191010
660.9971, 0.7616580
661.4792, 0.8160100
661.9614, 1.175354
662.4435, 2.034241
662.9256, 3.033295
663.4077, 3.196136
663.8898, 2.497681
664.3719, 2.007324
664.8541, 2.325165
665.3362, 2.909271
665.8183, 2.735779
666.3004, 1.438446
666.7825, 0.7006530
667.2646, 0.9973750
667.7468, 1.397003
668.2289, 1.354340
668.7110, 1.129150
669.1931, 1.262817
669.6752, 1.904724
670.1573, 2.566986
670.6395, 2.618256
671.1216, 2.106842
671.6037, 1.782471
672.0858, 1.726379
672.5679, 1.613708
673.0500, 1.156281
673.5322, 0.6536870
674.0143, 0.5725400
674.4964, 0.9840700
674.9785, 1.327545
675.4606, 1.263550
675.9427, 1.206970
676.4249, 1.734863
676.9070, 2.554962
677.3891, 2.840729
677.8712, 2.269531
678.3533, 1.442719
678.8354, 1.283813
679.3176, 1.896179
679.7997, 2.162109
680.2818, 1.809540
680.7639, 1.520660
681.2460, 1.745209
681.7281, 2.033051
682.2103, 1.786682
682.6924, 0.9136350
683.1745, 0.2348020
683.6566, 0.3695370
684.1387, 0.8310550
684.6208, 1.045776
685.1030, 1.024139
685.5851, 0.9372860
686.0672, 0.8534850
686.5493, 0.7550050
687.0314, 0.4375000
687.5135, 0.9983220
687.9957, 1.806458
688.4778, 2.020721
688.9599, 0.1372990
689.4420, 0.7682800
689.9241, 0.4460450
690.4063, 7.3517002E-02
690.8884, 1.410217
691.3705, 0.4010930
691.8526, 0.9239500
692.3347, 1.029388
692.8168, 1.702789
693.2990, 1.123993
693.7811, 0.9204710
694.2632, 1.956116
694.7453, 2.298645
695.2274, 1.557159
695.7095, 2.227539
696.1917, 0.3712770
696.6738, 0.7316590
697.1559, 2.048370
697.6380, 1.366425
698.1201, 2.058746
698.6022, 2.227570
699.0844, 1.7914001E-02
699.5665, 1.944794
700.0486, 0.3620610
700.5307, 3.1525001E-02
701.0128, 6.5734997E-02
701.4949, 0.6705020
701.9771, 1.371216
702.4592, 2.194672
702.9413, 2.754974
703.4234, 2.418152
703.9055, 1.118195
704.3876, 0.3705750
704.8698, 0.5139470
705.3519, 0.8538820
705.8340, 1.369873
706.3161, 1.795532
706.7982, 0.1457820
707.2803, 1.285370
707.7625, 2.088959
708.2446, 2.299347
708.7267, 0.1366880
709.2088, 1.036774
709.6909, 0.7091980
710.1730, 0.3311160
710.6552, 1.662292
711.1373, 0.1560360
711.6194, 1.150818
712.1015, 1.219971
712.5836, 1.865814
713.0657, 1.269928
713.5479, 1.047302
714.0300, 2.059082
714.5121, 2.387085
714.9942, 1.686188
715.4763, 2.417389
715.9584, 0.5581360
716.4406, 0.9125670
716.9227, 2.223297
717.4048, 1.535400
717.8869, 1.332275
718.3690, 1.114014
718.8511, 1.386047
719.3333, 1.779327
719.8154, 2.080109
720.2975, 2.299744
720.7796, 2.459351
721.2617, 2.546509
721.7438, 2.601868
722.2260, 2.788055
722.7081, 2.836426
723.1902, 2.195251
723.6723, 1.158447
724.1544, 0.7758180
724.6365, 1.625793
725.1187, 2.883484
725.6008, 2.981720
726.0829, 1.763458
726.5650, 0.1166690
727.0471, 1.537933
727.5292, 2.331558
728.0114, 2.531281
728.4935, 0.3585360
728.9756, 1.249176
729.4577, 0.9121400
729.9398, 0.5245210
730.4219, 1.846207
730.9041, 1.8371999E-02
731.3862, 1.314941
731.8683, 1.365219
732.3504, 1.984894
732.8325, 1.369370
733.3146, 1.138412
733.7968, 2.148865
734.2789, 2.465240
734.7610, 1.705582
735.2431, 2.359619
735.7252, 0.4895170
736.2073, 0.8424380
736.6895, 2.144531
737.1716, 1.446548
737.6537, 2.122787
738.1358, 2.275528
738.6179, 4.9605999E-02
739.1000, 1.960251
739.5822, 2.083130
740.0643, 0.3695220
740.5464, 0.7038730
741.0285, 0.9494630
741.5106, 1.177048
741.9927, 1.059036
742.4749, 0.7156680
742.9570, 0.5475920
743.4391, 0.5732120
743.9212, 0.6526490
744.4033, 0.7582700
744.8854, 0.9007420
745.3676, 1.216904
745.8497, 1.608917
746.3318, 1.788193
746.8139, 1.575577
747.2960, 1.324371
747.7781, 1.201965
748.2603, 1.040878
748.7424, 0.5660860
749.2245, 0.1099850
749.7066, 0.5357210
750.1887, 0.4955900
750.6708, 0.2253110
751.1530, 0.1227110
751.6351, 0.1780550
752.1172, 3.4499999E-02
752.5993, 0.3709720
753.0814, 0.8402400
753.5635, 1.344208
754.0457, 1.798965
754.5278, 2.022629
755.0099, 1.978912
755.4920, 1.909515
755.9741, 1.932297
756.4562, 1.836166
756.9384, 1.293594
757.4205, 0.6407010
757.9026, 0.4865720
758.3847, 0.9200740
758.8668, 1.325699
759.3489, 1.011978
759.8311, 0.2812500
760.3132, 0.1125790
760.7953, 0.5259860
761.2774, 0.6972660
761.7595, 0.3094020
762.2416, 0.2039490
762.7238, 0.4349980
763.2059, 0.3845060
763.6880, 0.1652070
764.1701, 0.4826200
764.6522, 0.9279790
765.1343, 0.8962710
765.6165, 0.7679600
766.0986, 0.8838500
766.5807, 1.190536
767.0628, 1.447205
767.5449, 1.555695
768.0270, 1.481247
768.5092, 1.046722
768.9913, 0.3832090
769.4734, 2.3300000E-02
769.9555, 0.1233830
770.4376, 2.1392999E-02
770.9197, 0.2952880
771.4019, 0.6311190
771.8840, 0.4766240
772.3661, 0.6149900
772.8482, 0.9076540
773.3303, 0.4373630
773.8124, 1.573776
774.2946, 1.800385
774.7767, 1.516571
775.2588, 1.137177
775.7409, 0.7559810
776.2230, 0.5225520
776.7051, 0.6433260
777.1873, 0.8730620
777.6694, 0.9163820
778.1515, 0.8163910
778.6336, 0.6799160
779.1157, 0.5414890
779.5978, 0.5279540
780.0800, 0.7994230
780.5621, 1.285248
781.0442, 1.525085
781.5263, 1.498306
782.0084, 1.257843
782.4905, 0.4104460
782.9727, 0.2384490
783.4548, 4.5761000E-02
783.9369, 0.6971890
784.4190, 1.271210
784.9011, 1.537155
785.3832, 1.626480
785.8654, 1.466431
786.3475, 1.254456
786.8296, 1.270432
787.3117, 1.429794
787.7938, 1.397095
788.2759, 1.029617
788.7581, 0.5873720
789.2402, 0.5116730
789.7223, 0.7742610
790.2044, 0.7024380
790.6865, 0.1271820
791.1686, 2.3026001E-02
791.6508, 0.9548800
792.1329, 2.108078
792.6150, 2.010208
793.0971, 0.6510010
793.5792, 6.3629998E-03
794.0613, 0.8026580
794.5435, 1.563171
795.0256, 1.903885
795.5077, 1.937637
795.9898, 1.644730
796.4719, 1.145065
796.9540, 0.7707210
797.4362, 0.6768490
797.9183, 0.8537450
798.4004, 1.528824
798.8825, 2.493393
799.3646, 2.803268
799.8467, 2.331146
800.3289, 1.890747
800.8110, 1.971527
801.2931, 2.328293
801.7752, 2.451477
802.2573, 2.351105
802.7394, 1.979630
803.2216, 0.5947570
803.7037, 0.1911470
804.1858, 0.6153720
804.6679, 1.907898
805.1500, 2.449326
805.6321, 2.143265
806.1143, 1.760208
806.5964, 1.580643
807.0785, 1.538803
807.5606, 1.670700
808.0427, 1.897003
808.5248, 2.004349
809.0070, 1.959732
809.4891, 1.942886
809.9712, 2.129730
810.4533, 2.388992
810.9354, 2.302338
811.4175, 1.799988
811.8997, 1.500504
812.3818, 1.471985
812.8639, 0.5646670
813.3460, 1.978775
813.8281, 2.765289
814.3102, 2.957840
814.7924, 0.7777860
815.2745, 1.659790
815.7566, 1.313156
816.2387, 0.9180150
816.7208, 2.232330
817.2029, 0.3970030
817.6851, 1.680878
818.1672, 1.716629
818.6493, 2.325363
819.1314, 1.699509
819.6135, 1.453430
820.0956, 2.423126
820.5778, 2.693863
821.0599, 1.892410
821.5420, 2.520630
822.0241, 0.6389310
822.5062, 0.9755550
822.9883, 2.268372
823.4705, 1.561935
823.9526, 0.6665340
824.4347, 0.6114200
824.9168, 1.351013
825.3989, 1.890762
825.8810, 1.644745
826.3632, 1.072021
826.8453, 0.7906190
827.3274, 0.8798680
827.8095, 0.9707640
828.2916, 0.8425900
828.7737, 0.7794650
829.2559, 1.020264
829.7380, 1.442169
830.2201, 1.895950
830.7022, 2.334366
831.1843, 2.583755
831.6664, 2.404419
832.1486, 2.021713
832.6307, 1.964157
833.1128, 2.212250
833.5949, 2.285049
834.0770, 2.045898
834.5591, 2.040283
835.0413, 2.756561
835.5233, 3.765167
836.0054, 3.998566
836.4875, 3.066833
836.9697, 2.465073
837.4518, 2.330170
837.9339, 2.331421
838.4160, 2.534897
838.8981, 2.712326
839.3802, 2.564270
839.8624, 2.104584
840.3445, 1.696121
840.8266, 1.365723
841.3087, 1.320358
841.7908, 1.995972
842.2729, 2.930298
842.7551, 3.323349
843.2372, 3.124664
843.7193, 2.772141
844.2014, 2.525345
844.6835, 2.335175
845.1656, 2.146332
845.6478, 1.962357
846.1299, 1.534607
846.6120, 0.6650850
847.0941, 0.2080380
847.5762, 0.6739810
848.0583, 1.587219
848.5405, 2.224411
849.0226, 2.511185
849.5047, 2.709427
849.9868, 2.823410
850.4689, 2.827240
850.9510, 2.726151
851.4332, 2.500977
851.9153, 2.018234
852.3974, 1.389343
852.8795, 0.9360200
853.3616, 0.7637790
853.8438, 0.8711700
854.3259, 1.583939
854.8080, 2.385178
855.2901, 2.333832
855.7722, 1.642151
856.2543, 1.402542
856.7365, 1.977036
857.2186, 2.660706
857.7007, 2.475601
858.1828, 1.589615
858.6649, 1.326294
859.1470, 1.813934
859.6292, 2.073288
860.1113, 1.704681
860.5934, 1.467957
861.0755, 2.131958
861.5576, 3.382950
862.0397, 3.860809
862.5219, 2.981689
863.0040, 2.296600
863.4861, 1.981232
863.9682, 1.752289
864.4503, 1.351181
864.9324, 0.9972840
865.4146, 1.100098
865.8967, 1.722931
866.3788, 2.284851
866.8609, 2.419373
867.3430, 2.370041
867.8251, 2.354294
868.3073, 2.329941
868.7894, 2.116318
869.2715, 1.742737
869.7536, 1.590836
870.2357, 1.952179
870.7178, 2.567413
871.2000, 2.955826
871.6821, 3.116959
872.1642, 3.004105
872.6463, 2.542450
873.1284, 2.213257
873.6105, 2.307114
874.0927, 2.542923
874.5748, 2.477005
875.0569, 2.061371
875.5390, 1.748932
876.0211, 1.423187
876.5032, 1.355148
876.9854, 2.034302
877.4675, 2.599960
877.9496, 2.119659
878.4317, 0.9813230
878.9138, 0.4691010
879.3959, 1.154770
879.8781, 1.832413
880.3602, 1.855728
880.8423, 1.599899
881.3244, 1.249710
881.8065, 0.9819180
882.2886, 1.134064
882.7708, 1.737381
883.2529, 2.272934
883.7350, 2.269379
884.2171, 1.906967
884.6992, 1.489838
885.1813, 1.055237
885.6635, 1.035324
886.1456, 1.549759
886.6277, 1.770691
887.1098, 1.020584
887.5919, 0.1819920
888.0740, 0.4544980
888.5562, 0.4757840
889.0383, 1.337082
889.5204, 2.333359
890.0025, 2.907516
890.4846, 2.519775
890.9667, 1.847534
891.4489, 1.604858
891.9310, 1.767715
892.4131, 1.913086
892.8952, 2.015457
893.3773, 2.046555
893.8594, 1.945557
894.3416, 1.815811
894.8237, 1.665176
895.3058, 1.571243
895.7879, 1.782745
896.2700, 2.404648
896.7521, 2.790527
897.2343, 2.070541
897.7164, 1.041367
898.1985, 0.9009860
898.6806, 1.417603
899.1627, 1.931946
899.6448, 2.236801
900.1270, 2.165497
900.6091, 1.514145
901.0912, 0.5771790
901.5733, 0.1796260
902.0554, 0.3312840
902.5375, 0.3105930
903.0197, 2.2580000E-03
903.5018, 0.1922450
903.9839, 1.8890001E-02
904.4660, 0.3320920
904.9481, 0.1967770
905.4302, 0.4862210
905.9124, 0.5594940
906.3945, 0.6253660
906.8766, 1.381866
907.3587, 1.229492
907.8408, 0.7990880
908.3229, 0.3255310
908.8051, 5.2567001E-02
909.2872, 7.1870000E-03
909.7693, 0.6767430
910.2514, 1.298370
910.7335, 1.650650
911.2156, 1.795547
911.6978, 1.810974
912.1799, 1.657730
912.6620, 1.071899
913.1441, 0.1407930
913.6262, 0.3564450
914.1083, 0.3004300
914.5905, 1.308487
915.0726, 1.652817
915.5547, 1.515533
916.0368, 1.317810
916.5189, 1.112808
917.0010, 0.6972050
917.4832, 2.8945999E-02
917.9653, 0.6424410
918.4474, 0.4651790
918.9295, 0.4260250
919.4116, 1.297745
919.8937, 2.196320
920.3759, 2.689377
920.8580, 2.621460
921.3401, 2.203049
921.8222, 1.450424
922.3043, 0.5526890
922.7864, 0.2461550
923.2686, 0.9249730
923.7507, 1.323853
924.2328, 1.127441
924.7149, 1.022369
925.1970, 1.457367
925.6791, 1.944748
926.1613, 1.862335
926.6434, 1.238708
927.1255, 0.7789310
927.6076, 0.6250610
928.0897, 0.6965330
928.5718, 1.212692
929.0540, 1.731934
929.5361, 1.781586
930.0182, 1.542160
930.5003, 1.518433
930.9824, 1.862640
931.4645, 2.105881
931.9467, 1.784592
932.4288, 1.239212
932.9109, 0.6777340
933.3930, 0.2834010
933.8751, 0.6414640
934.3572, 1.713089
934.8394, 2.678986
935.3215, 3.027206
935.8036, 2.891510
936.2857, 2.323303
936.7678, 1.412460
937.2499, 0.9907990
937.7321, 1.103683
938.2142, 1.000381
938.6963, 0.3714290
939.1784, 0.2969670
939.6605, 0.5026860
940.1426, 0.2852480
940.6248, 0.1583100
941.1069, 0.9769440
941.5890, 1.583359
942.0711, 1.977875
942.5532, 2.057739
943.0353, 1.349930
943.5175, 0.5563660
943.9996, 1.113846
944.4817, 3.225830
944.9638, 4.160706
945.4459, 2.805939
945.9280, 1.609253
946.4102, 1.290146
946.8923, 1.214630
947.3744, 0.8503880
947.8565, 0.3963170
948.3386, 0.3635560
948.8207, 0.8986970
949.3029, 1.484985
949.7850, 1.995178
950.2671, 2.350159
950.7492, 2.417358
951.2313, 2.335678
951.7134, 2.312424
952.1956, 2.354401
952.6777, 2.316208
953.1598, 2.102341
953.6419, 1.847824
954.1240, 1.726852
954.6061, 1.654755
955.0883, 1.476181
955.5704, 1.200058
956.0525, 0.8251190
956.5346, 0.3795930
957.0167, 0.1596070
957.4988, 0.5155180
957.9810, 1.138367
958.4631, 1.124512
958.9452, 0.5434880
959.4273, 0.4113920
959.9094, 0.8691100
960.3915, 1.307922
960.8737, 1.450974
961.3558, 1.329849
961.8379, 0.9802090
962.3200, 0.4061280
962.8021, 1.8010000E-03
963.2842, 0.3836210
963.7664, 0.1468960
964.2485, 1.375259
964.7306, 2.562088
965.2127, 2.107803
965.6948, 0.7892150
966.1769, 0.4340360
966.6591, 1.457306
967.1412, 1.785477
967.6233, 0.6696930
968.1054, 0.1106410
968.5875, 5.1941000E-02
969.0696, 0.4956970
969.5518, 0.7467650
970.0339, 0.8411250
970.5160, 0.9816590
970.9981, 1.239334
971.4802, 1.379410
971.9623, 1.472244
972.4445, 1.374756
972.9266, 0.7704010
973.4087, 8.2641996E-02
973.8908, 0.1530150
974.3729, 6.9016002E-02
974.8550, 0.4137270
975.3372, 0.7903140
975.8193, 1.051285
976.3014, 1.234787
976.7835, 1.276123
977.2656, 0.7777860
977.7477, 9.0851001E-02
978.2299, 0.1099240
978.7120, 0.9612580
979.1941, 1.728241
979.6762, 1.746140
980.1583, 1.367355
980.6404, 1.001129
981.1226, 0.6721500
981.6047, 0.4262540
982.0868, 0.2672880
982.5689, 0.1833040
983.0510, 0.1720430
983.5331, 0.2907410
984.0153, 0.6687320
984.4974, 1.158844
984.9795, 1.227829
985.4616, 0.9102330
985.9437, 0.6923520
986.4258, 0.6455840
986.9080, 0.6334230
987.3901, 0.5748900
987.8722, 0.5532840
988.3543, 0.7298280
988.8364, 1.088074
989.3185, 1.206772
989.8007, 1.005188
990.2828, 0.9563290
990.7649, 1.202393
991.2470, 1.480637
991.7291, 1.693329
992.2112, 1.748413
992.6934, 1.372681
993.1755, 0.4057920
993.6576, 5.7769999E-02
994.1397, 0.3216550
994.6218, 0.6055150
995.1039, 0.5067600
995.5861, 0.3403630
996.0682, 0.3465420
996.5503, 0.4627230
997.0324, 0.5052340
997.5145, 0.4846040
997.9966, 0.4281460
998.4788, 0.2841030
998.9609, 0.1659700
999.4430, 9.4650000E-02
999.9251, 9.9472001E-02
1000.407, 0.2509160
1000.889, 0.5000000
1001.371, 0.6894230
1001.854, 0.8009190
1002.336, 0.8369290
1002.818, 0.7560730
1003.300, 0.6466060
1003.782, 0.6098940
1004.264, 0.5450440
1004.746, 0.1952360
1005.228, 0.3257600
1005.711, 0.4395750
1006.193, 0.2483520
1006.675, 0.8533780
1007.157, 0.7413790
1007.639, 0.4017490
1008.121, 0.1716000
1008.603, 8.2275003E-02
1009.085, 0.1936190
1009.567, 0.4654540
1010.050, 0.6608280
1010.532, 0.5763850
1011.014, 0.5639800
1011.496, 1.207840
1011.978, 1.971390
1012.460, 2.050674
1012.942, 1.594330
1013.424, 0.9728240
1013.906, 0.3575130
1014.389, 2.4352999E-02
1014.871, 0.2107240
1015.353, 0.7024230
1015.835, 1.435806
1016.317, 2.153229
1016.799, 2.064911
1017.281, 1.321014
1017.763, 0.7716520
1018.246, 0.6900630
1018.728, 0.8372650
1019.210, 1.047714
1019.692, 1.237152
1020.174, 1.158432
1020.656, 0.8827820
1021.138, 0.7857510
1021.620, 0.9195400
1022.102, 0.9555050
1022.585, 0.7481080
1023.067, 0.7264400
1023.549, 1.428574
1024.031, 2.506027
1024.513, 2.779221
1024.995, 2.262711
1025.477, 1.727798
1025.959, 1.218399
1026.442, 0.9090270
1026.924, 0.8717800
1027.406, 1.002731
1027.888, 1.208038
1028.370, 1.461807
1028.852, 1.566772
1029.334, 1.439926
1029.816, 1.728333
1030.298, 2.678925
1030.781, 3.161575
1031.263, 2.499603
1031.745, 1.583389
1032.227, 1.619095
1032.709, 2.430191
1033.191, 2.477127
1033.673, 1.456116
1034.155, 0.7020110
1034.638, 0.3825680
1035.120, 0.1727910
1035.602, 0.1283110
1036.084, 0.3080290
1036.566, 1.2268000E-02
1037.048, 0.7081450
1037.530, 1.024048
1038.012, 0.5952610
1038.495, 0.5453030
1038.977, 1.205780
1039.459, 1.845795
1039.941, 2.175903
1040.423, 2.290604
1040.905, 2.248672
1041.387, 2.061890
1041.869, 1.992157
1042.351, 2.223923
1042.833, 2.256485
1043.316, 1.828751
1043.798, 1.480377
1044.280, 1.599670
1044.762, 1.808243
1045.244, 1.519653
1045.726, 0.7863160
1046.208, 0.5542600
1046.690, 1.330353
1047.173, 1.882767
1047.655, 2.100739
1048.137, 2.097260
1048.619, 1.812531
1049.101, 1.408875
1049.583, 0.9569240
1050.065, 0.5458070
1050.547, 0.5369420
1051.030, 1.429764
1051.512, 2.014557
1051.994, 1.879807
1052.476, 1.695282
1052.958, 1.857346
1053.440, 2.088364
1053.922, 2.069687
1054.404, 1.789124
1054.886, 1.323593
1055.369, 0.2856290
1055.851, 0.1801760
1056.333, 0.7542570
1056.815, 1.674713
1057.297, 1.876221
1057.779, 1.666046
1058.261, 1.143295
1058.743, 0.4560390
1059.225, 3.0334000E-02
1059.708, 1.4420000E-02
1060.190, 0.1996920
1060.672, 0.7430270
1061.154, 1.186630
1061.636, 1.017319
1062.118, 0.7697750
1062.600, 1.188400
1063.082, 2.076035
1063.565, 2.393066
1064.047, 1.644897
1064.529, 1.099228
1065.011, 1.459061
1065.493, 1.838745
1065.975, 1.694748
1066.457, 1.289886
1066.939, 0.6871490
1067.422, 0.1290740
1067.904, 0.3682710
1068.386, 1.866028
1068.868, 3.100983
1069.350, 3.442368
1069.832, 3.353104
1070.314, 2.799911
1070.796, 2.185318
1071.278, 1.914154
1071.760, 1.952942
1072.243, 2.132401
1072.725, 2.459229
1073.207, 2.550537
1073.689, 2.100372
1074.171, 1.531006
1074.653, 0.8934630
1075.135, 0.4077450
1075.617, 0.3574070
1076.100, 0.6226500
1076.582, 0.8730930
1077.064, 1.019150
1077.546, 1.263809
1078.028, 1.959000
1078.510, 2.457031
1078.992, 2.296982
1079.474, 1.867325
1079.957, 1.380417
1080.439, 0.9747470
1080.921, 0.9044800
1081.403, 1.215256
1081.885, 1.463028
1082.367, 1.237686
1082.849, 1.182678
1083.331, 1.925980
1083.813, 2.694321
1084.296, 2.897995
1084.778, 2.606491
1085.260, 1.797775
1085.742, 0.5852810
1086.224, 3.2333001E-02
1086.706, 0.7303620
1087.188, 1.568832
1087.670, 2.083817
1088.152, 2.259232
1088.635, 1.744415
1089.117, 1.072144
1089.599, 1.169220
1090.081, 1.979630
1090.563, 2.358536
1091.045, 1.613449
1091.527, 1.044662
1092.009, 1.498306
1092.491, 1.972687
1092.974, 1.560303
1093.456, 0.9486390
1093.938, 1.227249
1094.420, 2.208710
1094.902, 2.580093
1095.384, 1.766861
1095.866, 1.041824
1096.348, 0.9617000
1096.831, 0.9841920
1097.313, 0.6936800
1097.795, 0.4600680
1098.277, 0.8308410
1098.759, 1.576035
1099.241, 1.945526
1099.723, 1.716629
1100.205, 1.546432
1100.688, 1.699966
1101.170, 1.867981
1101.652, 1.986618
1102.134, 2.013016
1102.616, 1.852463
1103.098, 1.599625
1103.580, 1.440063
1104.062, 1.405136
1104.544, 1.377899
1105.026, 1.375381
1105.509, 1.315567
1105.991, 1.237244
1106.473, 1.028458
1106.955, 0.2800450
1107.437, 0.4619750
1107.919, 0.1510160
1108.401, 1.183838
1108.883, 1.803543
1109.366, 0.7493440
1109.848, 4.4555999E-02
1110.330, 0.2183070
1110.812, 0.5015410
1111.294, 0.6098630
1111.776, 0.5997770
1112.258, 0.4116970
1112.740, 0.1400600
1113.223, 0.3267060
1113.705, 1.601089
1114.187, 2.017441
1114.669, 0.4553220
1115.151, 0.6454320
1115.633, 9.0590999E-02
1116.115, 0.7387080
1116.597, 0.7230830
1117.079, 0.1303860
1117.562, 0.3855290
1118.044, 0.9330290
1118.526, 0.9110410
1119.008, 0.1923830
1119.490, 0.9783630
1119.972, 1.158585
1120.454, 1.023209
1120.936, 0.6232150
1121.418, 0.1062320
1121.901, 0.3157960
1122.383, 0.6479800
1122.865, 0.6830900
1123.347, 0.2504270
1123.829, 1.8844999E-02
1124.311, 3.2561999E-02
1124.793, 2.0142000E-02
1125.275, 0.2976230
1125.758, 0.6148530
1126.240, 0.5171810
1126.722, 0.1205750
1127.204, 9.4665997E-02
1127.686, 0.5238490
1128.168, 0.8840330
1128.650, 1.092697
1129.132, 1.603516
1129.615, 2.739624
1130.097, 3.476471
1130.579, 2.837128
1131.061, 1.502426
1131.543, 1.175934
1132.025, 1.872650
1132.507, 2.284698
1132.989, 2.415649
1133.471, 2.131577
1133.953, 1.358231
1134.436, 0.8492740
1134.918, 1.068024
1135.400, 1.541504
1135.882, 1.613419
1136.364, 1.356735
1136.846, 0.9179990
1137.328, 0.3815920
1137.810, 0.7067720
1138.293, 1.895752
1138.775, 2.532745
1139.257, 2.089722
1139.739, 1.561508
1140.221, 1.906540
1140.703, 2.604492
1141.185, 2.542679
1141.667, 2.013123
1142.150, 1.922882
1142.632, 2.200577
1143.114, 2.385300
1143.596, 2.368927
1144.078, 2.249237
1144.560, 2.095108
1145.042, 2.024261
1145.524, 2.276672
1146.006, 2.637100
1146.489, 2.784561
1146.971, 2.776840
1147.453, 2.712585
1147.935, 2.620987
1148.417, 2.488998
1148.899, 2.323563
1149.381, 2.296478
1149.863, 2.693726
1150.345, 3.057037
1150.828, 2.837692
1151.310, 2.467285
1151.792, 2.421402
1152.274, 2.616776
1152.756, 2.914001
1153.238, 3.223846
1153.720, 3.294891
1154.202, 2.923004
1154.685, 2.596878
1155.167, 2.579666
1155.649, 2.671127
1156.131, 2.862274
1156.613, 3.001282
1157.095, 2.749146
1157.577, 2.344254
1158.059, 2.530518
1158.542, 3.544434
1159.024, 4.236008
1159.506, 4.234222
1159.988, 4.017212
1160.470, 3.481674
1160.952, 3.028137
1161.434, 2.964447
1161.916, 3.099228
1162.398, 3.205032
1162.880, 3.265228
1163.363, 3.133850
1163.845, 2.531448
1164.327, 2.266693
1164.809, 2.570160
1165.291, 2.774689
1165.773, 2.649902
1166.255, 2.556519
1166.737, 2.825989
1167.220, 3.278458
1167.702, 3.454987
1168.184, 3.345535
1168.666, 3.152832
1169.148, 2.807541
1169.630, 2.770584
1170.112, 3.231598
1170.594, 3.365891
1171.077, 2.652359
1171.559, 1.912003
1172.041, 2.257217
1172.523, 3.297302
1173.005, 3.451126
1173.487, 2.879227
1173.969, 2.539276
1174.451, 2.469330
1174.933, 2.489594
1175.416, 2.517975
1175.898, 2.496201
1176.380, 2.418243
1176.862, 2.400696
1177.344, 2.467484
1177.826, 2.588791
1178.308, 2.746063
1178.790, 2.892258
1179.272, 2.973251
1179.755, 2.905914
1180.237, 2.382263
1180.719, 1.371292
1181.201, 0.7293850
1181.683, 1.218185
1182.165, 2.006729
1182.647, 2.514694
1183.129, 2.732285
1183.612, 2.402039
1184.094, 1.886505
1184.576, 1.782883
1185.058, 2.108322
1185.540, 2.512497
1186.022, 2.907623
1186.504, 3.191833
1186.986, 3.173874
1187.469, 3.219452
1187.951, 3.800766
1188.433, 4.234634
1188.915, 3.715332
1189.397, 1.630066
1189.879, 3.068283
1190.361, 3.878937
1190.843, 4.095840
1191.325, 1.940247
1191.807, 2.848282
1192.290, 2.528168
1192.772, 2.158157
1193.254, 3.497375
1193.736, 1.687012
1194.218, 2.999298
1194.700, 3.064972
1195.182, 3.698853
1195.664, 3.098938
1196.147, 2.881516
1196.629, 3.899857
1197.111, 3.806213
1197.593, 3.740280
1198.075, 3.153244
1198.557, 2.211685
1199.039, 1.390335
1199.521, 1.262741
1200.004, 1.620667
1200.486, 1.928757
1200.968, 2.192261
1201.450, 2.499435
1201.932, 2.790665
1202.414, 2.626678
1202.896, 1.999817
1203.378, 1.498108
1203.860, 1.444443
1204.343, 1.612717
1204.825, 1.991257
1205.307, 2.233536
1205.789, 1.648590
1206.271, 0.7744750
1206.753, 0.2844090
1207.235, 0.2365110
1207.717, 0.7260740
1208.199, 1.642700
1208.682, 2.313828
1209.164, 2.321487
1209.646, 2.276566
1210.128, 2.738327
1210.610, 2.914948
1211.092, 1.997620
1211.574, 0.8849640
1212.056, 0.2405850
1212.539, 0.1377720
1213.021, 0.8341520
1213.503, 2.444611
1213.985, 3.203629
1214.467, 2.242935
1214.949, 1.680695
1215.431, 1.992615
1215.913, 2.074966
1216.396, 1.370712
1216.878, 0.5419310
1217.360, 0.1256710
1217.842, 0.1316830
1218.324, 0.5046690
1218.806, 1.287582
1219.288, 1.694595
1219.770, 1.692703
1220.252, 1.931229
1220.734, 2.516800
1221.217, 2.516327
1221.699, 1.506210
1222.181, 0.5822140
1222.663, 0.8897400
1223.145, 1.747940
1223.627, 1.827393
1224.109, 1.500290
1224.591, 1.729080
1225.074, 2.286789
1225.556, 2.484268
1226.038, 2.251358
1226.520, 1.796387
1227.002, 1.211151
1227.484, 0.8295290
1227.966, 1.055420
1228.448, 1.354797
1228.931, 1.344604
1229.413, 1.250092
1229.895, 1.218079
1230.377, 1.257980
1230.859, 1.450470
1231.341, 1.718506
1231.823, 1.691193
1232.305, 1.157211
1232.787, 0.8842930
1233.270, 1.319595
1233.752, 1.484390
1234.234, 0.8902130
1234.716, 0.4274290
1235.198, 0.5734560
1235.680, 1.067688
1236.162, 1.690948
1236.644, 2.330994
1237.126, 2.361786
1237.609, 1.678879
1238.091, 1.533386
1238.573, 1.989059
1239.055, 2.264267
1239.537, 2.188263
1240.019, 1.875946
1240.501, 1.381836
1240.983, 0.8884580
1241.466, 0.6100620
1241.948, 0.4748990
1242.430, 0.3436740
1242.912, 0.2527620
1243.394, 0.3526150
1243.876, 0.5371400
1244.358, 0.4509430
1244.840, 0.1435550
1245.323, 0.1433720
1245.805, 0.7016300
1246.287, 1.185791
1246.769, 1.111679
1247.251, 1.004379
1247.733, 1.216690
1248.215, 1.451126
1248.697, 1.522308
1249.179, 1.434814
1249.661, 1.089722
1250.144, 0.5774690
1250.626, 0.4367070
1251.108, 0.7521670
1251.590, 1.292770
1252.072, 2.477097
1252.554, 2.853348
1253.036, 1.827225
1253.518, 0.8568270
1254.001, 0.7386170
1254.483, 0.8754270
1254.965, 0.5252990
1255.447, 8.9217998E-02
1255.929, 0.3070070
1256.411, 0.1494750
1256.893, 0.3312530
1257.375, 1.059830
1257.858, 1.756546
1258.340, 2.306458
1258.822, 2.388123
1259.304, 1.874451
1259.786, 1.243973
1260.268, 0.8284150
1260.750, 0.5966190
1261.232, 0.5238190
1261.714, 0.6206510
1262.197, 1.143204
1262.679, 1.678680
1263.161, 1.524979
1263.643, 0.8663940
1264.125, 0.5401000
1264.607, 0.7681580
1265.089, 0.7905270
1265.571, 5.0034001E-02
1266.053, 0.2499390
1266.536, 0.3764340
1267.018, 1.022110
1267.500, 1.435898
1267.982, 1.567429
1268.464, 1.238739
1268.946, 0.7699580
1269.428, 1.024399
1269.910, 1.954208
1270.393, 2.405167
1270.875, 2.387939
1271.357, 2.047211
1271.839, 1.465240
1272.321, 1.323654
1272.803, 1.941925
1273.285, 2.442947
1273.767, 2.177002
1274.250, 1.513474
1274.732, 0.4126590
1275.214, 0.4018400
1275.696, 0.2380830
1276.178, 1.491379
1276.660, 2.453537
1277.142, 2.966339
1277.624, 2.835068
1278.106, 2.316513
1278.589, 1.794846
1279.071, 1.379868
1279.553, 1.016617
1280.035, 0.4848330
1280.517, 0.3302460
1280.999, 1.007828
1281.481, 1.628326
1281.963, 1.337982
1282.445, 1.010727
1282.928, 0.7293240
1283.410, 0.4923710
1283.892, 0.3235780
1284.374, 0.2152710
1284.856, 0.3259890
1285.338, 0.6835170
1285.820, 0.7045590
1286.302, 0.3031010
1286.785, 5.5240002E-03
1287.267, 3.6224000E-02
1287.749, 7.2250001E-02
1288.231, 0.0000000E+00
##END=



