##NAMES=Rosasite
##RRUFFID=R100077
##IDEAL CHEMISTRY=Cu^2+^Zn^2+^CO_3_(OH)_2_
##LOCALITY=79 mine, Hayden, Gila County, Arizona, USA
##OWNER=RRUFF
##SOURCE=Mark Ascher
##DESCRIPTION=Elongated, prismatic but curved, aqua blue crystals, associated with colorless hemimorphite and white granular smithsonite
##STATUS=The identification of this mineral has been confirmed by single-crystal X-ray diffraction.
##URL=rruff.info/R100077
157.5832, 0.0000000E+00
158.0653, 0.7743000
158.5474, 1.267979
159.0295, 1.392502
159.5117, 1.562187
159.9938, 0.7541960
160.4759, 8.8264003E-02
160.9580, 0.1595880
161.4401, 5.2834000E-02
161.9222, 0.2107320
162.4044, 0.4775160
162.8865, 0.7591780
163.3686, 0.9663850
163.8507, 1.100269
164.3328, 1.166599
164.8149, 1.097996
165.2971, 0.9303400
165.7792, 0.7920610
166.2613, 0.8154450
166.7434, 0.9717640
167.2255, 1.446751
167.7076, 2.578064
168.1898, 3.754517
168.6719, 4.506409
169.1540, 4.755234
169.6361, 4.790215
170.1182, 5.006054
170.6003, 5.467075
171.0825, 5.977459
171.5646, 6.592117
172.0467, 7.227268
172.5288, 7.780025
173.0109, 8.216385
173.4930, 8.593906
173.9752, 8.994385
174.4573, 9.410473
174.9394, 9.863529
175.4215, 10.43062
175.9036, 11.04001
176.3857, 11.53624
176.8679, 11.88865
177.3500, 12.08207
177.8321, 12.03125
178.3142, 11.69550
178.7963, 11.51764
179.2784, 11.92775
179.7606, 12.83513
180.2427, 13.47070
180.7248, 13.46347
181.2069, 13.24432
181.6890, 13.14112
182.1711, 13.17846
182.6533, 13.37680
183.1354, 13.84859
183.6175, 14.65306
184.0996, 15.25131
184.5817, 15.38821
185.0638, 15.34829
185.5460, 15.24715
186.0281, 15.11292
186.5102, 14.96426
186.9923, 14.84309
187.4744, 14.79551
187.9565, 14.64571
188.4387, 14.34651
188.9208, 13.96723
189.4029, 13.55970
189.8850, 13.13616
190.3671, 12.67620
190.8492, 12.10365
191.3314, 11.20329
191.8135, 10.57191
192.2956, 10.54002
192.7777, 10.61622
193.2598, 10.26374
193.7419, 9.289227
194.2241, 8.047058
194.7062, 7.393742
195.1883, 8.273308
195.6704, 8.672073
196.1525, 8.123543
196.6346, 7.210327
197.1168, 6.646568
197.5989, 6.755226
198.0810, 7.284218
198.5631, 7.471752
199.0452, 7.063770
199.5273, 6.667252
200.0095, 6.293270
200.4916, 6.020374
200.9737, 5.976536
201.4558, 6.261417
201.9379, 6.755024
202.4200, 7.080166
202.9022, 7.347050
203.3843, 7.360344
203.8664, 6.744415
204.3485, 5.889320
204.8306, 5.484856
205.3127, 6.270096
205.7949, 7.615910
206.2770, 8.071545
206.7591, 7.097218
207.2412, 6.103539
207.7233, 5.980495
208.2054, 6.270359
208.6876, 6.541771
209.1697, 6.619442
209.6518, 6.578003
210.1339, 6.401466
210.6160, 6.078854
211.0981, 5.652855
211.5803, 5.017136
212.0624, 4.202671
212.5445, 3.688759
213.0266, 3.835583
213.5087, 4.200867
213.9908, 4.353867
214.4730, 4.211506
214.9551, 4.062809
215.4372, 4.362671
215.9193, 5.226906
216.4014, 5.755524
216.8836, 5.245972
217.3657, 4.532505
217.8478, 4.170845
218.3299, 4.299294
218.8120, 4.660362
219.2941, 5.012089
219.7763, 5.418209
220.2584, 5.569328
220.7405, 5.228390
221.2226, 4.731541
221.7047, 4.226463
222.1868, 3.769428
222.6690, 3.472523
223.1511, 3.585232
223.6332, 4.414989
224.1153, 4.956928
224.5974, 5.065990
225.0795, 4.937645
225.5617, 4.652298
226.0438, 4.248039
226.5259, 3.795425
227.0080, 3.384476
227.4901, 2.844532
227.9722, 2.709393
228.4544, 3.384445
228.9365, 4.176598
229.4186, 4.488758
229.9007, 4.176659
230.3828, 3.592983
230.8649, 3.356407
231.3471, 3.821606
231.8292, 4.065617
232.3113, 3.931492
232.7934, 3.688595
233.2755, 3.582565
233.7576, 3.674038
234.2398, 3.807606
234.7219, 3.717743
235.2040, 3.145859
235.6861, 2.816227
236.1682, 2.967182
236.6503, 3.225811
237.1325, 3.214920
237.6146, 2.844364
238.0967, 2.355118
238.5788, 2.102695
239.0609, 2.181801
239.5430, 2.320675
240.0252, 2.520199
240.5073, 2.773155
240.9894, 3.182634
241.4715, 3.771420
241.9536, 4.204248
242.4357, 3.899513
242.9179, 2.575380
243.4000, 1.803293
243.8821, 2.212421
244.3642, 3.024097
244.8463, 3.341331
245.3284, 2.969631
245.8106, 2.429962
246.2927, 2.383141
246.7748, 2.854019
247.2569, 3.136002
247.7390, 3.137409
248.2211, 2.891594
248.7033, 2.358229
249.1854, 1.496895
249.6675, 0.5978150
250.1496, 0.1537460
250.6317, 0.7488400
251.1138, 0.9230840
251.5960, 0.2492050
252.0781, 0.7189560
252.5602, 1.293116
253.0423, 1.394701
253.5244, 1.194143
254.0065, 0.5817150
254.4887, 0.2610440
254.9708, 0.7962680
255.4529, 0.5786480
255.9350, 0.1018490
256.4171, 0.1984140
256.8992, 1.061356
257.3813, 1.719362
257.8635, 1.093534
258.3456, 0.1912750
258.8277, 1.105616
259.3098, 1.230217
259.7919, 0.9004670
260.2740, 0.5101950
260.7562, 1.4679000E-02
261.2383, 0.3478110
261.7204, 0.3951970
262.2025, 0.2378430
262.6846, 4.2635001E-02
263.1667, 0.5067460
263.6489, 0.9824140
264.1310, 1.232689
264.6131, 1.238903
265.0952, 1.099571
265.5773, 0.6808550
266.0594, 0.2089690
266.5416, 9.8279998E-02
267.0237, 0.1687470
267.5058, 9.5650002E-02
267.9879, 4.5679999E-03
268.4700, 9.2133000E-02
268.9521, 0.2678740
269.4343, 0.6703680
269.9164, 1.099953
270.3985, 1.395409
270.8806, 1.513512
271.3627, 1.546234
271.8448, 1.650469
272.3270, 1.881695
272.8091, 1.893402
273.2912, 1.177107
273.7733, 0.4820840
274.2554, 0.2799990
274.7375, 0.6493170
275.2197, 1.347956
275.7018, 2.360201
276.1839, 3.861317
276.6660, 4.509180
277.1481, 2.964821
277.6302, 1.324305
278.1124, 0.6591380
278.5945, 1.014439
279.0766, 1.747574
279.5587, 2.344919
280.0408, 2.829721
280.5229, 2.984810
281.0051, 2.445646
281.4872, 1.856745
281.9693, 1.392910
282.4514, 1.099411
282.9335, 1.016670
283.4156, 1.218842
283.8978, 1.711283
284.3799, 2.240187
284.8620, 2.972265
285.3441, 3.562828
285.8262, 3.915493
286.3083, 4.042652
286.7905, 3.938286
287.2726, 3.474218
287.7547, 2.742243
288.2368, 2.600521
288.7189, 3.816160
289.2010, 4.720751
289.6832, 4.680166
290.1653, 4.084433
290.6474, 3.524521
291.1295, 3.336304
291.6116, 3.441265
292.0938, 3.520023
292.5759, 3.435799
293.0580, 3.543457
293.5401, 4.101494
294.0222, 4.797264
294.5043, 5.284500
294.9865, 5.409204
295.4686, 5.259220
295.9507, 5.004862
296.4328, 4.422785
296.9149, 4.165461
297.3970, 4.502146
297.8792, 5.036350
298.3613, 5.457878
298.8434, 5.667824
299.3255, 5.719864
299.8076, 5.681540
300.2897, 5.467155
300.7719, 5.365547
301.2540, 5.416040
301.7361, 5.536587
302.2182, 5.683983
302.7003, 5.845871
303.1824, 6.023979
303.6646, 6.201284
304.1467, 6.330694
304.6288, 6.651455
305.1109, 7.527386
305.5930, 8.304928
306.0751, 8.521435
306.5573, 8.240307
307.0394, 7.907406
307.5215, 8.041965
308.0036, 8.675806
308.4857, 9.084499
308.9678, 9.175699
309.4500, 9.229610
309.9321, 9.247126
310.4142, 9.238312
310.8963, 9.290129
311.3784, 9.503269
311.8605, 9.808674
312.3427, 9.636738
312.8248, 8.053148
313.3069, 7.136057
313.7890, 7.741022
314.2711, 9.058908
314.7532, 10.04542
315.2354, 10.21291
315.7175, 9.883142
316.1996, 9.796852
316.6817, 10.17491
317.1638, 10.24749
317.6459, 9.633854
318.1281, 8.867517
318.6102, 8.464544
319.0923, 8.566231
319.5744, 8.890444
320.0565, 8.935959
320.5386, 8.523466
321.0208, 8.265614
321.5029, 8.314623
321.9850, 8.389896
322.4671, 8.233110
322.9492, 7.863583
323.4313, 7.573523
323.9135, 7.742105
324.3956, 8.507299
324.8777, 8.994425
325.3598, 9.142971
325.8419, 9.088608
326.3240, 8.737404
326.8062, 8.203981
327.2883, 7.761404
327.7704, 7.660292
328.2525, 7.865646
328.7346, 7.766336
329.2167, 6.951672
329.6989, 6.286360
330.1810, 6.060005
330.6631, 6.094944
331.1452, 6.146702
331.6273, 6.097309
332.1094, 5.930990
332.5916, 5.562199
333.0737, 4.739527
333.5558, 4.153143
334.0379, 4.050690
334.5200, 4.128447
335.0021, 4.081964
335.4843, 3.812523
335.9664, 3.504269
336.4485, 3.556316
336.9306, 4.262247
337.4127, 4.439533
337.8948, 3.457724
338.3770, 2.331516
338.8591, 1.538916
339.3412, 1.174576
339.8233, 1.189455
340.3055, 1.691214
340.7876, 2.765270
341.2697, 3.460087
341.7518, 3.796930
342.2339, 3.670294
342.7160, 2.652342
343.1982, 1.118439
343.6803, 7.5498998E-02
344.1624, 0.2629130
344.6445, 0.3420430
345.1266, 0.6550140
345.6087, 0.4839380
346.0909, 0.3176360
346.5730, 0.3256320
347.0551, 0.4297540
347.5372, 0.5238900
348.0193, 0.5529190
348.5014, 0.5966970
348.9836, 0.8690360
349.4657, 1.509565
349.9478, 1.904236
350.4299, 1.608126
350.9120, 1.179617
351.3941, 1.057917
351.8763, 1.319620
352.3584, 1.641623
352.8405, 1.684172
353.3226, 1.439877
353.8047, 1.175997
354.2868, 0.8157670
354.7690, 0.5683420
355.2511, 0.6827810
355.7332, 1.060568
356.2153, 1.289713
356.6974, 0.9514140
357.1795, 0.2245250
357.6617, 0.1931300
358.1438, 0.2460310
358.6259, 7.3987998E-02
359.1080, 0.4022640
359.5901, 1.007385
360.0722, 1.475931
360.5544, 1.759832
361.0365, 1.811985
361.5186, 1.480726
362.0007, 0.7140850
362.4828, 3.3092000E-02
362.9649, 0.8096450
363.4471, 1.316938
363.9292, 1.095692
364.4113, 6.2582001E-02
364.8934, 1.224133
365.3755, 1.657412
365.8576, 1.458487
366.3398, 1.113367
366.8219, 0.6082360
367.3040, 0.1755160
367.7861, 0.1408940
368.2682, 0.4598430
368.7503, 0.6589010
369.2325, 0.3916680
369.7146, 6.8783000E-02
370.1967, 0.2331540
370.6788, 2.9638000E-02
371.1609, 0.2873460
371.6430, 0.5978680
372.1252, 0.8697570
372.6073, 0.9904730
373.0894, 0.7588810
373.5715, 0.5188480
374.0536, 0.6407870
374.5357, 1.049286
375.0179, 1.242300
375.5000, 0.8377250
375.9821, 0.1989080
376.4642, 0.2478940
376.9463, 1.355038
377.4284, 2.203699
377.9106, 2.097641
378.3927, 1.460793
378.8748, 0.9788000
379.3569, 0.8245470
379.8390, 0.9313720
380.3211, 1.326958
380.8033, 2.127748
381.2854, 2.471197
381.7675, 1.725561
382.2496, 0.9076960
382.7317, 0.9442210
383.2138, 1.801252
383.6960, 2.695509
384.1781, 3.026808
384.6602, 2.843023
385.1423, 2.894104
385.6244, 3.679419
386.1065, 4.102982
386.5887, 3.455488
387.0708, 2.265923
387.5529, 1.440790
388.0350, 1.382080
388.5171, 1.820475
388.9992, 2.171915
389.4814, 2.469378
389.9635, 2.605701
390.4456, 2.442278
390.9277, 2.213533
391.4098, 2.067488
391.8919, 2.046432
392.3741, 2.165319
392.8562, 2.465179
393.3383, 2.984747
393.8204, 3.396746
394.3025, 3.815701
394.7846, 4.042015
395.2668, 3.878624
395.7489, 3.485170
396.2310, 3.163664
396.7131, 3.160234
397.1952, 3.363224
397.6773, 3.495504
398.1595, 3.799675
398.6416, 3.923834
399.1237, 3.576605
399.6058, 3.207275
400.0879, 3.232092
400.5700, 3.745872
401.0522, 4.437252
401.5343, 4.997551
402.0164, 5.454609
402.4985, 5.600660
402.9806, 5.138073
403.4627, 4.601559
403.9449, 4.067459
404.4270, 3.637188
404.9091, 3.550205
405.3912, 4.156092
405.8733, 5.110409
406.3554, 5.178328
406.8376, 3.843519
407.3197, 2.923021
407.8018, 3.668255
408.2839, 4.942543
408.7660, 5.571566
409.2481, 5.222612
409.7303, 4.549360
410.2124, 4.196903
410.6945, 4.141590
411.1766, 3.990046
411.6587, 3.602743
412.1408, 3.164579
412.6230, 2.739826
413.1051, 2.360865
413.5872, 2.310806
414.0693, 3.034273
414.5514, 4.036406
415.0335, 4.489389
415.5157, 4.311165
415.9978, 3.937368
416.4799, 3.519430
416.9620, 3.146084
417.4441, 3.069632
417.9262, 3.566326
418.4084, 4.000465
418.8905, 3.937538
419.3726, 3.530401
419.8547, 3.189322
420.3368, 3.071165
420.8189, 2.965879
421.3011, 2.515978
421.7832, 1.595764
422.2653, 1.161716
422.7474, 1.657351
423.2295, 2.357279
423.7116, 2.607859
424.1938, 2.394461
424.6759, 2.142879
425.1580, 2.205889
425.6401, 2.555157
426.1222, 2.627045
426.6043, 2.093014
427.0865, 1.705050
427.5686, 1.703241
428.0507, 1.937162
428.5328, 2.215328
429.0149, 2.454472
429.4970, 2.688063
429.9792, 3.008030
430.4613, 3.636330
430.9434, 3.841822
431.4255, 3.306950
431.9076, 2.706518
432.3897, 2.445841
432.8719, 2.478216
433.3540, 2.494766
433.8361, 2.222116
434.3182, 1.729988
434.8003, 1.532269
435.2824, 1.885834
435.7646, 2.142334
436.2467, 2.078297
436.7288, 1.878023
437.2109, 1.730553
437.6930, 1.695005
438.1751, 1.713451
438.6573, 1.769968
439.1394, 1.881670
439.6215, 1.748144
440.1036, 1.006815
440.5857, 0.3756940
441.0678, 0.4210850
441.5500, 0.9895940
442.0321, 1.480106
442.5142, 1.511309
442.9963, 1.304731
443.4784, 1.284113
443.9605, 1.477667
444.4427, 1.642963
444.9248, 1.698881
445.4069, 1.623783
445.8890, 1.346062
446.3711, 0.7266710
446.8532, 0.2837070
447.3354, 0.4897770
447.8175, 1.058102
448.2996, 1.358917
448.7817, 1.240690
449.2638, 0.9119300
449.7459, 0.4996800
450.2281, 3.7769999E-03
450.7102, 0.1429200
451.1923, 0.4702950
451.6744, 1.122633
452.1565, 1.526756
452.6386, 1.608953
453.1208, 1.074091
453.6029, 0.3462730
454.0850, 2.103930
454.5671, 2.666316
455.0492, 0.5158700
455.5313, 0.7899570
456.0135, 0.5317960
456.4956, 0.1278880
456.9777, 0.1963020
457.4598, 0.4027330
457.9419, 1.038849
458.4240, 1.068678
458.9062, 0.4786070
459.3883, 0.2675300
459.8704, 0.9611950
460.3525, 1.453190
460.8346, 1.379244
461.3167, 1.010801
461.7989, 0.6711160
462.2810, 0.4795340
462.7631, 0.4235690
463.2452, 0.5179060
463.7273, 0.7958660
464.2094, 1.028292
464.6916, 1.181690
465.1737, 1.278708
465.6558, 1.321003
466.1379, 1.318127
466.6200, 1.292622
467.1021, 1.222300
467.5843, 1.152456
468.0664, 1.182483
468.5485, 1.322268
469.0306, 1.497694
469.5127, 1.734222
469.9948, 1.965568
470.4770, 2.061424
470.9591, 1.949821
471.4412, 1.795996
471.9233, 1.694230
472.4054, 1.612123
472.8875, 1.452652
473.3697, 1.189398
473.8518, 1.004453
474.3339, 1.094552
474.8160, 1.461123
475.2981, 1.724962
475.7802, 1.850904
476.2624, 1.914653
476.7445, 1.979499
477.2266, 2.001358
477.7087, 1.856979
478.1908, 1.493948
478.6729, 1.065959
479.1551, 0.8573690
479.6372, 1.000764
480.1193, 1.056459
480.6014, 0.8241040
481.0835, 0.6941750
481.5656, 0.9767130
482.0478, 1.560353
482.5299, 2.112617
483.0120, 2.418221
483.4941, 2.521019
483.9762, 2.557835
484.4583, 2.496450
484.9405, 2.433805
485.4226, 2.342423
485.9047, 2.291636
486.3868, 2.338236
486.8689, 2.487415
487.3510, 2.684977
487.8332, 2.932283
488.3153, 3.200009
488.7974, 3.352533
489.2795, 3.382766
489.7616, 3.300825
490.2437, 2.985040
490.7259, 2.589033
491.2080, 2.356874
491.6901, 2.381506
492.1722, 2.481400
492.6543, 2.496674
493.1364, 2.481757
493.6186, 2.651623
494.1007, 3.112720
494.5828, 3.547123
495.0649, 3.553209
495.5470, 3.079547
496.0291, 2.713281
496.5113, 2.362143
496.9934, 2.224778
497.4755, 2.676128
497.9576, 3.431028
498.4397, 3.749853
498.9218, 3.258910
499.4040, 2.354733
499.8861, 1.947998
500.3682, 2.531868
500.8503, 2.710939
501.3324, 2.144318
501.8145, 1.510939
502.2967, 1.217914
502.7788, 1.241017
503.2609, 1.347609
503.7430, 1.395240
504.2251, 1.418286
504.7072, 1.451007
505.1894, 1.525418
505.6715, 1.584785
506.1536, 1.423388
506.6357, 1.303409
507.1178, 1.542633
507.5999, 2.184922
508.0821, 2.863245
508.5642, 3.412057
509.0463, 3.804243
509.5284, 3.844663
510.0105, 3.462373
510.4926, 2.983513
510.9748, 2.518769
511.4569, 2.104161
511.9390, 1.791177
512.4211, 1.785981
512.9032, 1.903549
513.3853, 1.847571
513.8674, 1.669843
514.3495, 1.496102
514.8317, 1.365809
515.3138, 1.291639
515.7959, 1.277598
516.2780, 1.336605
516.7601, 1.217687
517.2422, 0.5900480
517.7244, 0.1855690
518.2065, 0.3859210
518.6886, 0.9491040
519.1707, 1.625481
519.6528, 2.296419
520.1349, 2.729177
520.6171, 2.449464
521.0992, 1.172336
521.5813, 0.3449070
522.0634, 0.1586990
522.5455, 0.2688150
523.0276, 0.7482080
523.5098, 1.409066
523.9919, 1.939030
524.4740, 2.208036
524.9561, 2.275219
525.4382, 2.245435
525.9203, 2.120772
526.4025, 1.718915
526.8846, 0.7582180
527.3667, 0.1684280
527.8488, 0.4343740
528.3309, 0.1307640
528.8130, 0.1891460
529.2952, 0.4043930
529.7773, 0.5382920
530.2594, 0.5002720
530.7415, 0.3646160
531.2236, 0.5338800
531.7057, 1.271630
532.1879, 2.154288
532.6700, 2.331183
533.1521, 1.353914
533.6342, 0.6697020
534.1163, 0.3403910
534.5984, 0.2808960
535.0806, 0.6054170
535.5627, 1.166834
536.0448, 1.616127
536.5269, 1.733118
537.0090, 1.607041
537.4911, 1.513374
537.9733, 1.525163
538.4554, 1.384477
538.9375, 0.7378480
539.4196, 0.2072660
539.9017, 0.2717660
540.3839, 0.8485220
540.8660, 1.457594
541.3481, 1.899725
541.8302, 2.107714
542.3123, 1.743601
542.7944, 0.6967950
543.2766, 8.1449002E-02
543.7587, 0.5695230
544.2408, 1.532363
544.7229, 2.069518
545.2050, 2.157908
545.6871, 2.087575
546.1693, 1.779986
546.6514, 1.470953
547.1335, 1.476684
547.6156, 1.769513
548.0977, 2.046620
548.5798, 2.130805
549.0620, 2.068233
549.5441, 1.988418
550.0262, 1.802710
550.5083, 1.669984
550.9904, 1.672194
551.4725, 1.676996
551.9547, 1.564726
552.4368, 1.354587
552.9189, 1.155519
553.4010, 1.045586
553.8831, 0.9989110
554.3652, 0.8923510
554.8474, 0.6207160
555.3295, 0.5651430
555.8116, 1.179427
556.2937, 1.798350
556.7758, 1.859879
557.2579, 1.368082
557.7401, 0.8824770
558.2222, 0.7215780
558.7043, 0.7845300
559.1864, 1.014381
559.6685, 1.417223
560.1506, 1.504577
560.6328, 0.8976100
561.1149, 3.9340999E-02
561.5970, 0.4800220
562.0791, 0.2822650
562.5612, 0.1541420
563.0433, 0.4981200
563.5255, 0.7597500
564.0076, 0.2730120
564.4897, 0.7961430
564.9718, 1.648659
565.4539, 1.756654
565.9360, 1.333005
566.4182, 1.091862
566.9003, 1.127817
567.3824, 1.170424
567.8645, 1.166019
568.3466, 1.190394
568.8287, 1.385009
569.3109, 1.669887
569.7930, 1.749961
570.2751, 1.327788
570.7572, 0.7056960
571.2393, 0.5909510
571.7214, 1.032281
572.2036, 1.402733
572.6857, 1.568555
573.1678, 1.502187
573.6499, 1.029559
574.1320, 0.1647590
574.6141, 0.3534360
575.0963, 6.1020002E-02
575.5784, 0.4499690
576.0605, 0.7012830
576.5426, 0.7291690
577.0247, 0.7082740
577.5068, 0.7326240
577.9890, 0.8540570
578.4711, 1.123690
578.9532, 1.824159
579.4353, 2.114006
579.9174, 1.612267
580.3995, 1.137077
580.8817, 1.107377
581.3638, 1.392852
581.8459, 1.742949
582.3280, 2.058671
582.8101, 2.235204
583.2922, 1.973672
583.7744, 1.219341
584.2565, 0.8827250
584.7386, 1.356573
585.2207, 1.862853
585.7029, 1.835073
586.1850, 1.458872
586.6671, 1.083237
587.1492, 0.7074330
587.6313, 0.4477540
588.1135, 0.3709550
588.5956, 0.4745590
589.0777, 0.8769120
589.5598, 1.621242
590.0419, 2.209250
590.5240, 2.025556
591.0062, 1.015429
591.4883, 0.5310800
591.9704, 1.031095
592.4525, 1.433451
592.9346, 1.468045
593.4167, 1.268272
593.8989, 0.9096480
594.3810, 0.4561880
594.8631, 0.1001190
595.3452, 2.7245000E-02
595.8273, 0.2321710
596.3094, 0.7299470
596.7916, 1.793593
597.2737, 2.527953
597.7558, 2.207934
598.2379, 1.533382
598.7200, 1.206411
599.2021, 1.316753
599.6843, 1.609436
600.1664, 2.233179
600.6485, 2.824954
601.1306, 2.691629
601.6127, 1.884110
602.0948, 1.265598
602.5770, 1.371367
603.0591, 1.934036
603.5412, 2.221909
604.0233, 2.134193
604.5054, 1.907370
604.9875, 1.450760
605.4697, 0.9849580
605.9518, 0.4585810
606.4339, 4.3130000E-03
606.9160, 0.1547300
607.3981, 0.1478620
607.8802, 0.6330620
608.3624, 0.7742080
608.8445, 0.5235570
609.3266, 0.2934990
609.8087, 9.7961001E-02
610.2908, 5.3229998E-03
610.7729, 6.2321998E-02
611.2551, 0.2531300
611.7372, 0.5442550
612.2193, 1.005086
612.7014, 1.464848
613.1835, 1.956583
613.6656, 2.338219
614.1478, 2.168487
614.6299, 1.362648
615.1120, 0.4437270
615.5941, 4.6464000E-02
616.0762, 0.1077000
616.5583, 0.2106230
617.0405, 1.490197
617.5226, 2.422156
618.0047, 2.594179
618.4868, 2.445957
618.9689, 2.372308
619.4510, 2.429304
619.9332, 2.511566
620.4153, 2.478819
620.8974, 2.342877
621.3795, 2.305665
621.8616, 2.471544
622.3438, 2.451291
622.8259, 1.898221
623.3080, 1.221153
623.7901, 1.012537
624.2722, 1.297893
624.7543, 1.498350
625.2365, 1.388050
625.7186, 1.193432
626.2007, 1.059247
626.6828, 0.9972870
627.1649, 1.036691
627.6470, 1.192705
628.1292, 1.359019
628.6113, 1.333590
629.0934, 1.013601
629.5755, 0.9395520
630.0576, 1.510563
630.5397, 1.898684
631.0219, 1.687646
631.5040, 1.214316
631.9861, 0.9653540
632.4682, 1.066670
632.9503, 1.249813
633.4324, 1.282378
633.9146, 1.149021
634.3967, 0.6516570
634.8788, 0.3115740
635.3609, 0.7350340
635.8430, 0.2680370
636.3251, 2.060504
636.8073, 2.713171
637.2894, 1.736095
637.7715, 0.9960190
638.2536, 0.9064920
638.7357, 1.044417
639.2178, 1.091663
639.7000, 1.075401
640.1821, 1.231361
640.6642, 1.709702
641.1463, 2.238018
641.6284, 2.192567
642.1105, 1.428549
642.5927, 0.8451490
643.0748, 0.4075370
643.5569, 0.3210800
644.0390, 1.052110
644.5211, 2.122447
645.0032, 2.498692
645.4854, 1.690422
645.9675, 0.7641300
646.4496, 0.4135070
646.9317, 0.4423020
647.4138, 0.5362060
647.8959, 0.6361530
648.3781, 0.6773410
648.8602, 0.5874330
649.3423, 0.4198130
649.8244, 0.4474090
650.3065, 0.9356860
650.7886, 1.214984
651.2708, 0.9761170
651.7529, 0.7773980
652.2350, 1.124457
652.7171, 1.837292
653.1992, 2.340168
653.6813, 2.311187
654.1635, 1.994960
654.6456, 1.700279
655.1277, 1.432541
655.6098, 1.348291
656.0919, 1.445239
656.5740, 1.517017
657.0562, 1.428165
657.5383, 1.220039
658.0204, 1.168552
658.5025, 1.472220
658.9846, 1.684525
659.4667, 1.543586
659.9489, 1.328407
660.4310, 1.492619
660.9131, 1.955181
661.3952, 2.047496
661.8773, 1.177671
662.3594, 0.2364990
662.8416, 0.7263530
663.3237, 1.8492000E-02
663.8058, 0.5239630
664.2879, 0.2378650
664.7700, 6.6676997E-02
665.2521, 0.2599550
665.7343, 1.047848
666.2164, 1.741768
666.6985, 2.324246
667.1806, 2.587041
667.6627, 2.111443
668.1448, 1.282226
668.6270, 0.8861760
669.1091, 1.062949
669.5912, 1.385611
670.0733, 1.507499
670.5554, 1.430441
671.0375, 1.142421
671.5197, 0.1632600
672.0018, 0.2151040
672.4839, 0.6489060
672.9660, 1.688886
673.4481, 2.171804
673.9302, 2.144630
674.4124, 1.916139
674.8945, 1.544291
675.3766, 1.153585
675.8587, 0.8748430
676.3408, 0.7068150
676.8229, 0.6801200
677.3051, 0.8193930
677.7872, 0.9750030
678.2693, 0.9959880
678.7514, 0.9034190
679.2335, 0.9426130
679.7156, 1.170275
680.1978, 1.439503
680.6799, 1.895190
681.1620, 2.262190
681.6441, 2.190304
682.1262, 1.785699
682.6083, 1.514770
683.0905, 1.705203
683.5726, 2.107420
684.0547, 2.276588
684.5368, 2.212273
685.0189, 1.956884
685.5010, 1.396933
685.9832, 0.9272790
686.4653, 0.9429780
686.9474, 1.353595
687.4295, 1.656301
687.9116, 1.771867
688.3937, 1.870483
688.8759, 1.973331
689.3580, 2.101261
689.8401, 2.399735
690.3222, 2.773672
690.8043, 2.798874
691.2864, 2.137442
691.7686, 1.182890
692.2507, 0.9517560
692.7328, 1.550126
693.2149, 2.004173
693.6970, 2.219242
694.1791, 2.357023
694.6613, 2.614434
695.1434, 2.898421
695.6255, 2.966921
696.1076, 2.619523
696.5897, 2.388633
697.0718, 2.696347
697.5540, 3.147819
698.0361, 3.267055
698.5182, 3.037828
699.0003, 2.648251
699.4824, 2.191767
699.9645, 1.773042
700.4467, 1.723565
700.9288, 2.238775
701.4109, 2.371130
701.8930, 1.619984
702.3751, 1.034027
702.8572, 1.337607
703.3394, 2.074049
703.8215, 2.454117
704.3036, 2.253714
704.7857, 1.952499
705.2678, 1.820867
705.7499, 1.754930
706.2321, 1.593407
706.7142, 1.361281
707.1963, 1.161207
707.6784, 1.068089
708.1605, 1.075477
708.6426, 1.208251
709.1248, 1.586513
709.6069, 1.649525
710.0890, 0.8710840
710.5711, 0.4043050
711.0532, 1.178419
711.5353, 2.236993
712.0175, 2.124190
712.4996, 0.5010120
712.9817, 0.9134370
713.4638, 0.8073530
713.9459, 1.3984000E-02
714.4280, 0.3225830
714.9102, 0.2375530
715.3923, 0.2260780
715.8744, 0.5124400
716.3565, 0.8370340
716.8386, 0.7896150
717.3207, 0.2634020
717.8029, 0.1419740
718.2850, 0.8154560
718.7671, 1.421026
719.2492, 1.942297
719.7313, 2.215361
720.2134, 1.958632
720.6956, 1.242733
721.1777, 0.6932920
721.6598, 0.6983690
722.1419, 0.9257160
722.6240, 0.9607230
723.1061, 0.8593400
723.5883, 0.7561030
724.0704, 0.6946330
724.5525, 0.6611650
725.0346, 0.6673400
725.5167, 0.7093320
725.9988, 0.6440380
726.4810, 0.1705960
726.9631, 3.3566002E-02
727.4452, 0.7222900
727.9273, 1.439354
728.4094, 1.552895
728.8915, 1.131039
729.3737, 0.5986930
729.8558, 1.8464001E-02
730.3379, 0.3864560
730.8200, 8.5428998E-02
731.3021, 1.022491
731.7842, 1.262105
732.2664, 0.6142610
732.7485, 4.0036999E-02
733.2306, 1.8933000E-02
733.7127, 0.4986000
734.1948, 0.8050700
734.6769, 0.7757880
735.1591, 0.7588340
735.6412, 0.8268970
736.1233, 0.8456100
736.6054, 0.6593300
737.0875, 0.3957790
737.5696, 0.3289460
738.0518, 0.5823620
738.5339, 0.8108780
739.0160, 0.5690840
739.4981, 0.1816220
739.9802, 0.3687610
740.4623, 1.097202
740.9445, 1.654461
741.4266, 1.674538
741.9087, 1.377937
742.3908, 1.208459
742.8729, 1.200384
743.3550, 1.169584
743.8372, 1.160588
744.3193, 1.071289
744.8014, 0.7563610
745.2835, 0.4163430
745.7656, 0.2995000
746.2477, 0.4283040
746.7299, 0.5604750
747.2120, 0.5571570
747.6941, 0.4929550
748.1762, 0.3818790
748.6583, 0.2807930
749.1404, 0.3917680
749.6226, 0.7689290
750.1047, 1.237300
750.5868, 1.645348
751.0689, 1.978950
751.5510, 2.091297
752.0331, 1.928445
752.5153, 1.644956
752.9974, 1.044879
753.4795, 0.5230050
753.9616, 0.3197830
754.4437, 0.4050870
754.9258, 0.6734530
755.4080, 1.232783
755.8901, 1.696999
756.3722, 1.675890
756.8543, 1.464829
757.3364, 1.588011
757.8185, 1.983375
758.3007, 2.118704
758.7828, 1.645612
759.2649, 0.8595250
759.7470, 0.4002730
760.2291, 0.3310100
760.7112, 0.2617330
761.1934, 0.1011930
761.6755, 6.9940001E-02
762.1576, 0.5190450
762.6397, 1.038568
763.1218, 0.9873100
763.6039, 0.2220400
764.0861, 0.2480000
764.5682, 0.2813780
765.0503, 0.9067340
765.5324, 0.7918140
766.0145, 0.2710620
766.4966, 7.9241998E-02
766.9788, 0.4088620
767.4609, 0.8870660
767.9430, 1.159490
768.4251, 1.248109
768.9072, 1.195589
769.3893, 0.9193820
769.8715, 0.9891290
770.3536, 1.860808
770.8357, 2.615387
771.3178, 2.349512
771.7999, 1.310476
772.2820, 0.5360520
772.7642, 2.7450001E-02
773.2463, 0.1345890
773.7284, 0.3560280
774.2105, 0.9818800
774.6926, 1.426726
775.1747, 1.582569
775.6569, 1.189445
776.1390, 5.2926999E-02
776.6211, 1.039186
777.1032, 0.8462490
777.5853, 0.4011800
778.0674, 1.499929
778.5496, 2.409918
779.0317, 2.740782
779.5138, 2.148182
779.9959, 1.097279
780.4780, 0.3662300
780.9601, 2.6201000E-02
781.4423, 0.1372760
781.9244, 0.2902160
782.4065, 0.6730290
782.8886, 0.8115620
783.3707, 0.8200930
783.8528, 0.8372820
784.3350, 0.8731120
784.8171, 0.8221190
785.2992, 0.4771080
785.7813, 0.1751290
786.2634, 0.5683900
786.7455, 1.380713
787.2277, 1.626940
787.7098, 1.116516
788.1919, 0.4709590
788.6740, 0.2101800
789.1561, 0.2560900
789.6382, 0.4197390
790.1204, 0.7540040
790.6025, 1.074558
791.0846, 1.489716
791.5667, 1.765255
792.0488, 1.798265
792.5309, 1.626600
793.0131, 1.215786
793.4952, 0.4899350
793.9773, 6.3065000E-02
794.4594, 0.4539890
794.9415, 1.073833
795.4236, 1.436201
795.9058, 1.567577
796.3879, 1.638029
796.8700, 1.688421
797.3521, 1.532179
797.8342, 0.8598670
798.3163, 0.1386900
798.7985, 0.3772400
799.2806, 0.3037010
799.7627, 0.8018990
800.2448, 0.7962380
800.7269, 0.6628840
801.2090, 0.6831490
801.6912, 0.8512340
802.1733, 1.107977
802.6554, 1.575958
803.1375, 1.937151
803.6196, 2.233852
804.1017, 2.312956
804.5839, 1.727488
805.0660, 0.9059520
805.5481, 0.8645780
806.0302, 1.984934
806.5123, 3.132458
806.9944, 3.076916
807.4766, 2.227512
807.9587, 1.352180
808.4408, 0.5323890
808.9229, 0.4467470
809.4050, 1.439095
809.8871, 2.650770
810.3693, 3.066597
810.8514, 2.691254
811.3335, 2.161089
811.8156, 1.209122
812.2977, 0.5491410
812.7798, 0.5493660
813.2620, 0.6230740
813.7441, 0.2598510
814.2262, 0.3426200
814.7083, 0.5733590
815.1904, 0.1789320
815.6725, 0.3780820
816.1547, 0.9516700
816.6368, 1.475138
817.1189, 1.885056
817.6010, 2.175695
818.0831, 2.357935
818.5652, 2.435804
819.0474, 2.371986
819.5295, 1.981380
820.0116, 1.351374
820.4937, 1.435057
820.9758, 2.411234
821.4579, 2.978529
821.9401, 2.516094
822.4222, 1.862043
822.9043, 1.991829
823.3864, 2.850285
823.8685, 3.021702
824.3506, 1.509431
824.8328, 0.7366690
825.3149, 1.824739
825.7970, 3.097969
826.2791, 3.277887
826.7612, 2.659559
827.2433, 2.134719
827.7255, 2.009520
828.2076, 2.133940
828.6897, 2.559112
829.1718, 3.060600
829.6539, 3.199142
830.1360, 3.038948
830.6182, 3.018950
831.1003, 3.302407
831.5824, 3.543347
832.0645, 3.258966
832.5466, 2.513422
833.0287, 2.131557
833.5109, 2.190651
833.9930, 2.409280
834.4751, 2.893963
834.9572, 3.273194
835.4393, 3.051093
835.9214, 2.429043
836.4036, 2.124693
836.8857, 2.365821
837.3678, 2.572200
837.8499, 2.497128
838.3320, 2.437872
838.8141, 2.735480
839.2963, 3.167148
839.7784, 3.278151
840.2605, 2.935812
840.7426, 2.521650
841.2247, 2.366060
841.7068, 2.373272
842.1890, 2.454786
842.6711, 2.577463
843.1532, 2.459613
843.6353, 2.014357
844.1174, 1.760066
844.5995, 2.218488
845.0817, 3.178583
845.5638, 3.663943
846.0459, 3.527048
846.5280, 3.316431
847.0101, 2.956314
847.4922, 2.677179
847.9744, 2.588966
848.4565, 2.655940
848.9386, 2.915379
849.4207, 3.420235
849.9028, 3.661503
850.3849, 3.243360
850.8671, 2.791321
851.3492, 2.703321
851.8313, 2.814039
852.3134, 2.911451
852.7955, 2.923523
853.2776, 2.811821
853.7598, 2.506264
854.2419, 2.202873
854.7240, 2.189681
855.2061, 2.432854
855.6882, 2.839313
856.1703, 3.382126
856.6525, 3.647964
857.1346, 3.406606
857.6167, 2.845902
858.0988, 2.288742
858.5809, 1.663713
859.0630, 1.550398
859.5452, 2.266434
860.0273, 2.931364
860.5094, 3.409261
860.9915, 3.619836
861.4736, 3.302036
861.9557, 2.583877
862.4379, 2.229625
862.9200, 2.669250
863.4021, 3.076024
863.8842, 3.118344
864.3663, 3.046452
864.8484, 3.103424
865.3306, 3.228672
865.8127, 3.220004
866.2948, 3.001521
866.7769, 2.704140
867.2590, 2.366803
867.7411, 2.080758
868.2233, 2.155184
868.7054, 2.500815
869.1875, 2.595901
869.6696, 2.289479
870.1517, 1.776017
870.6339, 1.175943
871.1160, 0.5962560
871.5981, 0.5923460
872.0802, 1.382470
872.5623, 1.904606
873.0444, 1.988341
873.5266, 1.964424
874.0087, 1.931935
874.4908, 1.947247
874.9729, 2.139923
875.4550, 2.559719
875.9371, 2.871425
876.4193, 3.076194
876.9014, 3.109364
877.3835, 2.852767
877.8656, 2.470170
878.3477, 1.993645
878.8298, 1.542050
879.3120, 1.502943
879.7941, 2.249256
880.2762, 2.994589
880.7583, 2.791323
881.2404, 2.146742
881.7225, 1.966937
882.2047, 2.248519
882.6868, 2.613714
883.1689, 2.897491
883.6510, 2.975525
884.1331, 2.625429
884.6152, 1.922795
885.0974, 1.446444
885.5795, 1.211493
886.0616, 1.113299
886.5437, 1.190986
887.0258, 1.366338
887.5079, 1.575076
887.9901, 1.857664
888.4722, 2.195200
888.9543, 2.835819
889.4364, 3.051553
889.9185, 2.537895
890.4006, 1.963223
890.8828, 1.510905
891.3649, 1.187901
891.8470, 0.9326500
892.3291, 0.7600900
892.8112, 0.8916950
893.2933, 1.832960
893.7755, 2.631837
894.2576, 2.556393
894.7397, 2.083610
895.2218, 1.717113
895.7039, 1.539657
896.1860, 1.602115
896.6682, 1.965230
897.1503, 2.149175
897.6324, 1.477021
898.1145, 0.3291150
898.5966, 0.1699590
899.0787, 3.7827998E-02
899.5609, 0.2549370
900.0430, 0.5711470
900.5251, 0.9199210
901.0072, 1.318233
901.4893, 1.760738
901.9714, 2.276339
902.4536, 3.025514
902.9357, 3.197865
903.4178, 2.316736
903.8999, 1.598842
904.3820, 2.029796
904.8641, 2.827680
905.3463, 2.487732
905.8284, 0.8179540
906.3105, 0.2814250
906.7926, 0.4100090
907.2747, 0.3634410
907.7568, 0.1928580
908.2390, 3.7532002E-02
908.7211, 5.6010999E-02
909.2032, 0.1917860
909.6853, 0.2377720
910.1674, 9.7177997E-02
910.6495, 3.6100999E-02
911.1317, 0.1034980
911.6138, 0.2108680
912.0959, 0.2222650
912.5780, 0.9430920
913.0601, 1.254426
913.5422, 1.021284
914.0244, 0.8557340
914.5065, 1.364825
914.9886, 2.148891
915.4707, 2.376228
915.9528, 2.101389
916.4349, 1.552900
916.9171, 0.7565830
917.3992, 0.2230310
917.8813, 0.2838110
918.3634, 0.6591900
918.8455, 0.9533460
919.3276, 1.185066
919.8098, 1.358612
920.2919, 1.474490
920.7740, 1.538742
921.2561, 1.610286
921.7382, 1.552041
922.2203, 1.048579
922.7025, 0.3152670
923.1846, 0.2175050
923.6667, 1.231284
924.1488, 1.835914
924.6309, 1.572989
925.1130, 1.235995
925.5952, 1.241160
926.0773, 1.370014
926.5594, 1.147462
927.0415, 0.6009820
927.5236, 0.4561550
928.0057, 1.431351
928.4879, 2.261238
928.9700, 1.935529
929.4521, 1.142231
929.9342, 0.5704510
930.4163, 0.2820940
930.8984, 0.1832990
931.3806, 0.2335070
931.8627, 0.3755940
932.3448, 0.5875400
932.8269, 0.8564650
933.3090, 1.106519
933.7911, 1.297585
934.2733, 1.416295
934.7554, 1.460779
935.2375, 1.501145
935.7196, 1.601648
936.2017, 1.644023
936.6838, 1.222651
937.1660, 0.2757920
937.6481, 0.2531000
938.1302, 1.439824
938.6123, 2.285109
939.0944, 2.216742
939.5765, 1.738909
940.0587, 1.279224
940.5408, 0.8577310
941.0229, 0.6498370
941.5050, 0.8033000
941.9871, 0.8999430
942.4692, 1.075915
942.9514, 1.021366
943.4335, 0.2124530
943.9156, 0.6702180
944.3977, 0.6889380
944.8798, 0.1960580
945.3619, 1.091407
945.8441, 2.237512
946.3262, 2.809760
946.8083, 1.911236
947.2904, 0.8240990
947.7725, 0.7054860
948.2546, 1.263221
948.7368, 1.655549
949.2189, 1.628753
949.7010, 1.462083
950.1831, 1.168655
950.6652, 0.9771110
951.1473, 1.313929
951.6295, 1.838731
952.1116, 1.937245
952.5937, 1.553350
953.0758, 0.8837200
953.5579, 1.9819001E-02
954.0400, 0.6437540
954.5222, 7.9988003E-02
955.0043, 1.569155
955.4864, 2.023756
955.9685, 1.503962
956.4506, 0.8678790
956.9327, 0.3900360
957.4149, 0.2299080
957.8970, 0.5899330
958.3791, 1.250834
958.8612, 1.554303
959.3433, 1.485274
959.8254, 1.201203
960.3076, 0.6419960
960.7897, 0.3022010
961.2718, 0.4018450
961.7539, 0.6600560
962.2360, 0.7035660
962.7181, 0.5393680
963.2003, 0.3098130
963.6824, 0.1773590
964.1645, 0.3385770
964.6466, 0.1872450
965.1287, 0.6971470
965.6108, 0.7893840
966.0930, 0.6502550
966.5751, 0.4817960
967.0572, 0.2582380
967.5393, 0.2780300
968.0214, 1.002916
968.5035, 1.421327
968.9857, 0.8214450
969.4678, 0.1879390
969.9499, 0.3794320
970.4320, 1.123046
970.9141, 1.808931
971.3962, 2.329180
971.8784, 2.455300
972.3605, 1.668083
972.8426, 0.8925590
973.3247, 0.9802180
973.8068, 1.325338
974.2889, 1.004452
974.7711, 0.1273390
975.2532, 0.4565960
975.7353, 0.3392720
976.2174, 3.7985001E-02
976.6995, 0.3833110
977.1816, 0.6730520
977.6638, 0.8778670
978.1459, 0.9983460
978.6280, 0.9902700
979.1101, 0.8775680
979.5922, 0.8418710
980.0743, 1.015918
980.5565, 1.309591
981.0386, 1.734209
981.5207, 2.144822
982.0028, 1.871171
982.4849, 0.9696460
982.9670, 0.1487780
983.4492, 0.3533930
983.9313, 0.2840360
984.4134, 0.7481250
984.8955, 2.249464
985.3776, 2.502019
985.8597, 1.458053
986.3419, 0.7132530
986.8240, 0.4012410
987.3061, 0.3471680
987.7882, 0.5454900
988.2703, 0.7639120
988.7524, 0.7133390
989.2346, 0.4185390
989.7167, 0.1070050
990.1988, 0.3389030
990.6809, 0.4269530
991.1630, 3.0859999E-02
991.6451, 0.5875020
992.1273, 1.075064
992.6094, 1.488545
993.0915, 1.821389
993.5736, 2.072571
994.0557, 2.252834
994.5378, 2.526872
995.0200, 2.479703
995.5021, 1.733014
995.9842, 1.018468
996.4663, 0.5753340
996.9484, 0.4829230
997.4305, 1.057275
997.9127, 2.413911
998.3948, 3.115159
998.8769, 2.406424
999.3590, 1.710241
999.8411, 1.472296
1000.323, 1.399664
1000.805, 1.233817
1001.287, 1.056917
1001.770, 1.132750
1002.252, 1.612732
1002.734, 1.785739
1003.216, 0.7468810
1003.698, 0.1122180
1004.180, 0.2839170
1004.662, 1.096936
1005.144, 1.424947
1005.627, 1.322572
1006.109, 1.281061
1006.591, 1.480628
1007.073, 1.547839
1007.555, 0.8942170
1008.037, 0.3044530
1008.519, 0.8284980
1009.001, 1.787370
1009.483, 1.979119
1009.966, 1.466567
1010.448, 1.154503
1010.930, 1.476076
1011.412, 1.921180
1011.894, 1.870627
1012.376, 1.747835
1012.858, 2.230809
1013.340, 2.996583
1013.823, 3.146636
1014.305, 2.622855
1014.787, 2.078114
1015.269, 1.885909
1015.751, 1.826654
1016.233, 1.680142
1016.715, 1.403619
1017.197, 0.6530610
1017.679, 0.3812800
1018.162, 0.7162670
1018.644, 0.1773490
1019.126, 0.5839180
1019.608, 1.145475
1020.090, 1.564881
1020.572, 1.972083
1021.054, 2.334940
1021.536, 2.392725
1022.018, 2.165280
1022.501, 1.897695
1022.983, 1.598453
1023.465, 1.545340
1023.947, 2.005049
1024.429, 2.613557
1024.911, 2.496235
1025.393, 1.630700
1025.875, 1.179729
1026.358, 1.166777
1026.840, 1.451255
1027.322, 2.101611
1027.804, 2.513460
1028.286, 2.104384
1028.768, 1.323198
1029.250, 1.382884
1029.732, 2.454746
1030.214, 2.994618
1030.697, 2.823038
1031.179, 2.775886
1031.661, 3.222562
1032.143, 3.478156
1032.625, 2.892990
1033.107, 1.768192
1033.589, 1.072634
1034.071, 0.8426770
1034.553, 1.002293
1035.036, 1.906113
1035.518, 2.380848
1036.000, 1.800656
1036.482, 1.197178
1036.964, 1.542024
1037.446, 2.422345
1037.928, 2.565492
1038.410, 1.625241
1038.893, 1.172203
1039.375, 1.489190
1039.857, 1.842802
1040.339, 2.014819
1040.821, 2.217913
1041.303, 2.770829
1041.785, 3.461656
1042.267, 3.581724
1042.750, 2.948909
1043.232, 2.257586
1043.714, 1.084651
1044.196, 0.4385460
1044.678, 0.8500400
1045.160, 1.586226
1045.642, 2.333380
1046.124, 2.949936
1046.606, 3.089630
1047.089, 2.607064
1047.571, 2.194462
1048.053, 1.629738
1048.535, 1.465716
1049.017, 2.303101
1049.499, 3.225220
1049.981, 3.612949
1050.463, 3.578070
1050.945, 3.328080
1051.428, 2.817782
1051.910, 2.547825
1052.392, 2.905546
1052.874, 3.127160
1053.356, 2.666581
1053.838, 2.256804
1054.320, 2.838025
1054.802, 3.778666
1055.285, 3.549999
1055.767, 1.785981
1056.249, 0.7395540
1056.731, 1.527781
1057.213, 2.430646
1057.695, 2.951044
1058.177, 3.224284
1058.659, 3.257274
1059.141, 3.171224
1059.624, 3.214102
1060.106, 3.428083
1060.588, 3.412178
1061.070, 2.624468
1061.552, 2.131426
1062.034, 2.510067
1062.516, 3.235437
1062.998, 4.136409
1063.480, 4.968353
1063.963, 5.259565
1064.445, 4.969353
1064.927, 4.787139
1065.409, 5.055924
1065.891, 5.362276
1066.373, 5.500610
1066.855, 5.666981
1067.337, 6.006284
1067.820, 6.477116
1068.302, 7.026918
1068.784, 7.633514
1069.266, 8.240656
1069.748, 8.993475
1070.230, 9.571484
1070.712, 9.619837
1071.194, 9.597919
1071.677, 9.947607
1072.159, 10.43921
1072.641, 10.68995
1073.123, 10.68637
1073.605, 10.67047
1074.087, 10.64678
1074.569, 10.82321
1075.051, 11.48364
1075.533, 12.16412
1076.016, 12.78745
1076.498, 13.13073
1076.980, 12.56279
1077.462, 11.35995
1077.944, 10.85044
1078.426, 11.73312
1078.908, 12.42448
1079.390, 11.85569
1079.873, 11.22592
1080.355, 11.38598
1080.837, 11.88159
1081.319, 12.37811
1081.801, 12.66785
1082.283, 12.28886
1082.765, 10.98477
1083.247, 9.802430
1083.729, 9.091752
1084.212, 8.786673
1084.694, 9.325378
1085.176, 9.868937
1085.658, 9.451684
1086.140, 8.349776
1086.622, 7.528462
1087.104, 7.276478
1087.586, 6.917507
1088.068, 5.879498
1088.551, 5.031210
1089.033, 4.949279
1089.515, 5.111088
1089.997, 5.215520
1090.479, 5.145734
1090.961, 4.724344
1091.443, 3.955386
1091.925, 3.400541
1092.408, 3.334632
1092.890, 3.433769
1093.372, 3.872692
1093.854, 4.119190
1094.336, 3.420833
1094.818, 2.478872
1095.300, 2.611087
1095.782, 3.738216
1096.265, 4.057740
1096.747, 2.470988
1097.229, 1.135793
1097.711, 0.8116110
1098.193, 0.8956820
1098.675, 1.350698
1099.157, 1.796770
1099.639, 1.717236
1100.121, 1.229443
1100.604, 0.9978170
1101.086, 1.280537
1101.568, 1.452929
1102.050, 1.150603
1102.532, 0.9575100
1103.014, 1.443097
1103.496, 1.879505
1103.978, 1.416446
1104.460, 0.3938250
1104.943, 0.2078110
1105.425, 0.1911610
1105.907, 0.1237830
1106.389, 0.3853510
1106.871, 0.2271990
1107.353, 1.156238
1107.835, 2.439161
1108.317, 2.678603
1108.800, 2.207834
1109.282, 1.489272
1109.764, 0.5331810
1110.246, 4.1742999E-02
1110.728, 0.2481340
1111.210, 0.6667240
1111.692, 1.646568
1112.174, 2.338408
1112.656, 2.114913
1113.139, 1.533353
1113.621, 1.230499
1114.103, 1.200981
1114.585, 1.271688
1115.067, 1.460600
1115.549, 1.719427
1116.031, 2.352230
1116.513, 2.610447
1116.995, 1.958427
1117.478, 1.165993
1117.960, 0.9781400
1118.442, 1.162771
1118.924, 0.8967530
1119.406, 0.1466270
1119.888, 0.2865690
1120.370, 1.144814
1120.852, 2.079030
1121.335, 1.964027
1121.817, 1.425663
1122.299, 0.6285920
1122.781, 6.9082998E-02
1123.263, 4.5255002E-02
1123.745, 0.9929260
1124.227, 1.872040
1124.709, 2.844809
1125.192, 3.131214
1125.674, 2.510219
1126.156, 1.493295
1126.638, 0.1117460
1127.120, 1.046635
1127.602, 1.234794
1128.084, 0.6331400
1128.566, 0.1012840
1129.048, 0.3565440
1129.531, 0.8408520
1130.013, 1.406726
1130.495, 1.575527
1130.977, 1.140516
1131.459, 0.6970060
1131.941, 0.7387960
1132.423, 0.9914900
1132.905, 0.6839620
1133.387, 0.1014700
1133.870, 0.1642680
1134.352, 1.420029
1134.834, 1.855379
1135.316, 1.134065
1135.798, 0.4747430
1136.280, 0.5396370
1136.762, 0.9923900
1137.244, 1.489658
1137.727, 1.946517
1138.209, 2.039327
1138.691, 1.858388
1139.173, 1.820230
1139.655, 1.925555
1140.137, 1.872940
1140.619, 1.570518
1141.101, 1.280560
1141.583, 1.263274
1142.066, 1.217577
1142.548, 0.3849200
1143.030, 0.6564430
1143.512, 0.5144560
1143.994, 0.4071740
1144.476, 0.8271580
1144.958, 0.6211160
1145.440, 0.6545140
1145.922, 1.398630
1146.405, 1.951963
1146.887, 1.045442
1147.369, 9.2238002E-02
1147.851, 6.5509997E-02
1148.333, 0.8314880
1148.815, 1.220778
1149.297, 1.253319
1149.779, 1.320825
1150.262, 1.530110
1150.744, 1.726033
1151.226, 1.845747
1151.708, 1.882913
1152.190, 1.885004
1152.672, 1.751050
1153.154, 1.035619
1153.636, 0.3431740
1154.119, 0.8046630
1154.601, 2.189144
1155.083, 2.952853
1155.565, 2.557978
1156.047, 1.935346
1156.529, 1.064975
1157.011, 0.4470470
1157.493, 0.3883460
1157.975, 0.5907590
1158.458, 0.8304830
1158.940, 1.130823
1159.422, 1.733186
1159.904, 2.724028
1160.386, 2.944326
1160.868, 1.205721
1161.350, 0.3783040
1161.832, 1.613687
1162.314, 2.699080
1162.797, 2.538744
1163.279, 1.977504
1163.761, 1.956720
1164.243, 2.276560
1164.725, 2.071411
1165.207, 1.046663
1165.689, 0.5709530
1166.171, 0.8451740
1166.654, 1.084025
1167.136, 1.131458
1167.618, 0.9825160
1168.100, 0.5455340
1168.582, 0.1197980
1169.064, 0.2498420
1169.546, 0.8620280
1170.028, 1.297608
1170.510, 1.554103
1170.993, 1.770501
1171.475, 1.963491
1171.957, 2.030567
1172.439, 1.932786
1172.921, 1.689598
1173.403, 1.278099
1173.885, 0.8847610
1174.367, 0.9948990
1174.849, 1.411325
1175.332, 1.440117
1175.814, 1.151453
1176.296, 1.093419
1176.778, 1.369772
1177.260, 1.526727
1177.742, 1.357265
1178.224, 1.219209
1178.706, 1.530727
1179.189, 1.883183
1179.671, 1.717195
1180.153, 1.271017
1180.635, 0.6880180
1181.117, 0.1977560
1181.599, 0.2792910
1182.081, 0.9210110
1182.563, 1.520385
1183.046, 1.839765
1183.528, 1.915265
1184.010, 1.494045
1184.492, 1.144217
1184.974, 1.340508
1185.456, 1.689037
1185.938, 1.819958
1186.420, 1.727467
1186.902, 1.466337
1187.385, 1.030243
1187.867, 0.6334400
1188.349, 3.6579999E-03
1188.831, 0.1106940
1189.313, 1.156032
1189.795, 2.097511
1190.277, 1.503567
1190.759, 0.5114000
1191.241, 0.1866440
1191.724, 0.4416450
1192.206, 0.8915360
1192.688, 1.734670
1193.170, 1.843074
1193.652, 0.8453110
1194.134, 0.2685690
1194.616, 0.4738410
1195.098, 0.9800820
1195.581, 1.605091
1196.063, 2.114244
1196.545, 2.157866
1197.027, 1.840391
1197.509, 1.599656
1197.991, 1.430615
1198.473, 1.293809
1198.955, 1.177570
1199.438, 0.9445630
1199.920, 0.5716700
1200.402, 0.2220070
1200.884, 5.8063999E-02
1201.366, 4.4712000E-02
1201.848, 0.7872230
1202.330, 1.876698
1202.812, 2.281071
1203.294, 2.150207
1203.776, 1.550828
1204.259, 0.7547660
1204.741, 0.4476210
1205.223, 0.7485220
1205.705, 1.062352
1206.187, 0.9977320
1206.669, 0.9344970
1207.151, 1.082940
1207.633, 1.398163
1208.116, 2.163617
1208.598, 2.839936
1209.080, 2.583781
1209.562, 1.718291
1210.044, 1.379640
1210.526, 1.823975
1211.008, 1.915778
1211.490, 0.9759030
1211.973, 0.3638190
1212.455, 0.4492360
1212.937, 0.7679630
1213.419, 1.362164
1213.901, 1.829777
1214.383, 1.637548
1214.865, 1.045248
1215.347, 1.003343
1215.829, 1.673919
1216.312, 1.701491
1216.794, 0.8766870
1217.276, 0.5138980
1217.758, 0.9140560
1218.240, 1.305568
1218.722, 1.308417
1219.204, 1.180618
1219.686, 1.229645
1220.168, 1.338667
1220.651, 1.155215
1221.133, 0.7979050
1221.615, 0.8373120
1222.097, 1.160332
1222.579, 1.163703
1223.061, 0.7976920
1223.543, 0.4653110
1224.025, 0.3600280
1224.508, 0.5247730
1224.990, 1.254636
1225.472, 1.953611
1225.954, 1.870310
1226.436, 1.552490
1226.918, 1.641386
1227.400, 1.957926
1227.882, 2.225350
1228.365, 2.330981
1228.847, 2.061109
1229.329, 1.200723
1229.811, 0.5965620
1230.293, 0.4432920
1230.775, 0.6331010
1231.257, 1.880885
1231.739, 2.642463
1232.221, 1.155629
1232.703, 0.8126990
1233.186, 0.8241320
1233.668, 0.7765670
1234.150, 1.719295
1234.632, 1.878796
1235.114, 1.787141
1235.596, 1.313846
1236.078, 1.310174
1236.560, 2.052619
1237.043, 2.714590
1237.525, 2.806184
1238.007, 2.566726
1238.489, 2.192905
1238.971, 1.757889
1239.453, 1.530334
1239.935, 1.403686
1240.417, 0.8780450
1240.900, 0.1369860
1241.382, 3.3133999E-02
1241.864, 0.4267880
1242.346, 0.9104840
1242.828, 1.129158
1243.310, 1.183073
1243.792, 0.9323200
1244.274, 0.8177390
1244.756, 1.332805
1245.239, 1.957772
1245.721, 2.229884
1246.203, 2.242112
1246.685, 2.132345
1247.167, 1.956326
1247.649, 1.868929
1248.131, 1.975147
1248.613, 1.907013
1249.095, 1.289721
1249.578, 1.020122
1250.060, 1.573489
1250.542, 1.966303
1251.024, 1.548753
1251.506, 0.9814720
1251.988, 1.082642
1252.470, 1.668693
1252.952, 2.057949
1253.435, 2.251204
1253.917, 2.241898
1254.399, 2.034831
1254.881, 1.709671
1255.363, 1.302104
1255.845, 1.078663
1256.327, 1.158800
1256.809, 1.310541
1257.292, 1.300175
1257.774, 1.276751
1258.256, 1.533032
1258.738, 1.835381
1259.220, 1.739328
1259.702, 1.270777
1260.184, 1.466926
1260.666, 1.971101
1261.148, 2.128156
1261.630, 1.756543
1262.113, 1.590907
1262.595, 2.402028
1263.077, 2.699544
1263.559, 1.335826
1264.041, 0.2456630
1264.523, 0.9404260
1265.005, 1.805245
1265.487, 1.185218
1265.970, 0.1339390
1266.452, 0.2764530
1266.934, 0.7813020
1267.416, 1.374909
1267.898, 1.454913
1268.380, 1.403084
1268.862, 1.241895
1269.344, 1.270092
1269.827, 1.588253
1270.309, 1.726639
1270.791, 1.320740
1271.273, 0.7728890
1271.755, 0.6243080
1272.237, 0.7434680
1272.719, 0.9602370
1273.201, 1.235870
1273.683, 1.567983
1274.166, 1.844244
1274.648, 1.800061
1275.130, 1.434074
1275.612, 1.002433
1276.094, 0.4894700
1276.576, 6.0585000E-02
1277.058, 6.3955002E-02
1277.540, 1.4000000E-05
1278.022, 0.3871710
1278.505, 0.8151520
1278.987, 1.046962
1279.469, 1.269429
1279.951, 1.830200
1280.433, 2.530763
1280.915, 2.442376
1281.397, 1.369162
1281.879, 1.172286
1282.362, 2.096762
1282.844, 2.582553
1283.326, 2.386693
1283.808, 1.750181
1284.290, 0.7972380
1284.772, 6.4903997E-02
1285.254, 4.0400000E-03
1285.736, 0.0000000E+00
##END=



