##NAMES=Roxbyite
##RRUFFID=R070676
##IDEAL CHEMISTRY=Cu_1.78_S
##LOCALITY=Olympic Dam mine, Roxby Downs, South Australia, Australia
##OWNER=RRUFF
##SOURCE=Michael Scott
##DESCRIPTION=Microscopic black-blue metallic massive associated with hematite, co-type sample
##STATUS=The identification of this mineral is not yet confirmed.
##URL=rruff.info/R070676
133.7534, 0.0000000E+00
134.2355, 22.34961
134.7176, 32.50647
135.1998, 28.41089
135.6819, 21.62805
136.1640, 10.21936
136.6461, 1.888550
137.1282, 1.171387
137.6103, 2.614014
138.0925, 13.48120
138.5746, 25.01831
139.0567, 38.34521
139.5388, 50.51685
140.0209, 57.47900
140.5030, 59.04175
140.9852, 56.81421
141.4673, 49.97595
141.9494, 36.93347
142.4315, 32.70203
142.9136, 43.48755
143.3957, 64.41577
143.8779, 75.13733
144.3600, 72.27777
144.8421, 64.08826
145.3242, 54.80920
145.8063, 41.21808
146.2884, 32.06787
146.7705, 30.71271
147.2527, 36.46625
147.7348, 37.18494
148.2169, 31.27344
148.6990, 24.64575
149.1811, 16.99878
149.6632, 4.045532
150.1454, 1.963989
150.6275, 3.181519
151.1096, 23.75830
151.5917, 39.63892
152.0738, 49.56439
152.5559, 56.41895
153.0381, 63.01257
153.5202, 69.18311
154.0023, 72.69305
154.4844, 73.39166
154.9665, 70.96179
155.4486, 66.81781
155.9308, 58.23059
156.4129, 48.04608
156.8950, 45.99786
157.3771, 56.49030
157.8592, 64.96729
158.3413, 66.80646
158.8235, 53.23706
159.3056, 41.81177
159.7877, 35.06708
160.2698, 37.69867
160.7519, 44.47357
161.2340, 57.46210
161.7162, 69.62506
162.1983, 71.39191
162.6804, 41.35803
163.1625, 14.15167
163.6446, 13.48315
164.1267, 37.89203
164.6089, 59.15082
165.0910, 67.85632
165.5731, 67.18298
166.0552, 62.81647
166.5373, 52.90753
167.0194, 42.44287
167.5016, 35.14502
167.9837, 30.30817
168.4658, 28.95062
168.9479, 36.21539
169.4300, 48.74365
169.9121, 55.85443
170.3943, 47.67255
170.8764, 33.41632
171.3585, 21.37695
171.8406, 13.72382
172.3227, 10.51416
172.8048, 13.36456
173.2870, 21.73413
173.7691, 30.18756
174.2512, 35.61871
174.7333, 38.43158
175.2154, 39.32117
175.6975, 37.80255
176.1797, 34.82727
176.6618, 31.40973
177.1439, 27.53455
177.6260, 23.09125
178.1081, 17.43951
178.5902, 10.98273
179.0724, 4.949524
179.5545, 2.611328
180.0366, 8.913147
180.5187, 7.722107
181.0008, 2.783081
181.4829, 15.13062
181.9651, 21.33527
182.4472, 21.85297
182.9293, 19.16595
183.4114, 11.07587
183.8935, 0.6996460
184.3756, 2.268066
184.8578, 6.660278
185.3399, 18.60187
185.8220, 15.99591
186.3041, 0.5845950
186.7862, 15.76154
187.2683, 17.31488
187.7504, 7.208008
188.2326, 6.135315
188.7147, 24.35498
189.1968, 42.34760
189.6789, 44.69324
190.1610, 30.15167
190.6431, 12.52325
191.1253, 7.501404
191.6074, 14.94373
192.0895, 18.17523
192.5716, 8.691589
193.0537, 9.563293
193.5358, 17.24438
194.0180, 12.54700
194.5001, 2.930664
194.9822, 2.174988
195.4643, 2.901611
195.9464, 3.536011
196.4285, 6.749207
196.9107, 12.28259
197.3928, 14.37805
197.8749, 12.09442
198.3570, 7.922852
198.8391, 6.706665
199.3212, 8.945801
199.8034, 10.59766
200.2855, 8.016418
200.7676, 0.7543950
201.2497, 1.215576
201.7318, 4.626404
202.2139, 14.71008
202.6961, 19.14709
203.1782, 16.96472
203.6603, 12.61658
204.1424, 7.795349
204.6245, 1.747864
205.1066, 0.9219360
205.5888, 8.605896
206.0709, 22.00549
206.5530, 25.36218
207.0351, 14.46820
207.5172, 3.523010
207.9993, 7.995911
208.4815, 34.19110
208.9636, 51.62439
209.4457, 50.93268
209.9278, 33.28119
210.4099, 25.31592
210.8920, 30.13184
211.3742, 39.72705
211.8563, 45.49579
212.3384, 46.67010
212.8205, 46.20746
213.3026, 43.81146
213.7847, 38.95929
214.2669, 39.21478
214.7490, 47.38782
215.2311, 57.73376
215.7132, 60.11011
216.1953, 50.20581
216.6774, 42.54694
217.1596, 43.61237
217.6417, 56.63403
218.1238, 64.45062
218.6059, 64.86963
219.0880, 61.49384
219.5701, 62.01794
220.0523, 68.45953
220.5344, 74.98120
221.0165, 79.15430
221.4986, 81.27881
221.9807, 80.70111
222.4628, 75.47406
222.9450, 67.64813
223.4271, 64.19202
223.9092, 66.65656
224.3913, 71.04932
224.8734, 75.72522
225.3555, 82.31818
225.8377, 85.15186
226.3198, 82.90198
226.8019, 76.40466
227.2840, 69.97522
227.7661, 62.86353
228.2482, 56.75085
228.7303, 52.84485
229.2125, 51.19940
229.6946, 51.87158
230.1767, 56.35358
230.6588, 64.39453
231.1409, 67.75873
231.6230, 63.49249
232.1052, 57.70062
232.5873, 55.77631
233.0694, 58.90082
233.5515, 63.62402
234.0336, 69.91901
234.5157, 77.95581
234.9979, 85.13037
235.4800, 95.24249
235.9621, 101.2614
236.4442, 93.34882
236.9263, 58.79016
237.4084, 32.45770
237.8906, 24.07037
238.3727, 37.36633
238.8548, 49.14020
239.3369, 60.68524
239.8190, 68.93829
240.3011, 68.99719
240.7833, 54.82214
241.2654, 42.03156
241.7475, 34.50665
242.2296, 32.67535
242.7117, 35.82825
243.1938, 46.51685
243.6760, 60.29651
244.1581, 69.82898
244.6402, 76.38708
245.1223, 75.87109
245.6044, 64.66064
246.0865, 33.85150
246.5687, 18.02222
247.0508, 24.42438
247.5329, 42.95154
248.0150, 51.05884
248.4971, 44.25238
248.9792, 33.65021
249.4614, 22.46558
249.9435, 4.688843
250.4256, 0.9779050
250.9077, 17.60400
251.3898, 46.57062
251.8719, 64.79852
252.3541, 70.59723
252.8362, 68.65082
253.3183, 59.24103
253.8004, 35.35889
254.2825, 21.72504
254.7646, 24.26245
255.2468, 37.55920
255.7289, 40.56824
256.2110, 27.18921
256.6931, 12.78424
257.1752, 6.229858
257.6573, 10.09882
258.1395, 15.68182
258.6216, 23.74426
259.1037, 33.12579
259.5858, 37.36023
260.0679, 33.55933
260.5500, 28.97815
261.0322, 29.67957
261.5143, 39.55804
261.9964, 43.16736
262.4785, 35.77637
262.9606, 20.01605
263.4427, 13.46918
263.9249, 20.81598
264.4070, 29.63293
264.8891, 29.18695
265.3712, 14.95325
265.8533, 5.537292
266.3354, 5.385498
266.8176, 12.92670
267.2997, 14.76874
267.7818, 7.961914
268.2639, 0.6833500
268.7460, 1.263367
269.2281, 12.52826
269.7103, 21.02386
270.1924, 23.18707
270.6745, 19.86670
271.1566, 21.04077
271.6387, 29.47278
272.1208, 36.73334
272.6030, 31.62628
273.0851, 9.807129
273.5672, 3.790710
274.0493, 1.286377
274.5314, 15.45135
275.0135, 26.85657
275.4957, 31.83844
275.9778, 34.06012
276.4599, 38.11737
276.9420, 44.92255
277.4241, 47.37750
277.9063, 42.36932
278.3884, 30.80792
278.8705, 21.27740
279.3526, 13.52155
279.8347, 8.490112
280.3168, 7.257385
280.7990, 9.881714
281.2811, 15.92218
281.7632, 27.28192
282.2453, 42.56390
282.7274, 51.12048
283.2095, 51.95502
283.6917, 49.59601
284.1738, 50.06567
284.6559, 53.44556
285.1380, 53.03937
285.6201, 43.96228
286.1022, 28.81470
286.5844, 20.57043
287.0665, 19.45642
287.5486, 24.21265
288.0307, 37.07446
288.5128, 57.32849
288.9949, 72.21979
289.4771, 73.50751
289.9591, 65.47083
290.4413, 67.34100
290.9234, 80.72632
291.4055, 94.53687
291.8876, 94.04663
292.3697, 81.18640
292.8518, 69.85248
293.3340, 69.32355
293.8161, 74.10852
294.2982, 64.58990
294.7803, 38.70673
295.2624, 14.33380
295.7445, 14.13287
296.2267, 33.26990
296.7088, 50.63812
297.1909, 56.85272
297.6730, 55.82397
298.1551, 56.23083
298.6372, 58.33008
299.1194, 58.90955
299.6015, 53.51886
300.0836, 43.79047
300.5657, 34.37903
301.0478, 23.68896
301.5299, 15.84552
302.0121, 20.99823
302.4942, 40.08173
302.9763, 56.93152
303.4584, 53.10583
303.9405, 36.22528
304.4226, 22.70227
304.9048, 23.29584
305.3869, 29.10028
305.8690, 28.04913
306.3511, 19.62054
306.8332, 14.25970
307.3153, 24.93134
307.7975, 43.76923
308.2796, 57.23572
308.7617, 55.27228
309.2438, 48.52148
309.7259, 47.10382
310.2080, 51.30035
310.6902, 53.69983
311.1723, 47.98688
311.6544, 37.81274
312.1365, 28.22290
312.6186, 17.99268
313.1007, 11.32983
313.5829, 13.30646
314.0650, 24.07306
314.5471, 33.43011
315.0292, 36.35968
315.5113, 35.00726
315.9934, 31.85626
316.4756, 25.22418
316.9577, 19.13708
317.4398, 16.34082
317.9219, 17.21069
318.4040, 18.95770
318.8861, 19.10614
319.3683, 18.95050
319.8504, 20.13074
320.3325, 23.79572
320.8146, 29.30951
321.2967, 39.09424
321.7788, 52.86499
322.2610, 60.49365
322.7431, 55.20715
323.2252, 45.06116
323.7073, 36.49939
324.1894, 27.56012
324.6715, 24.24353
325.1537, 29.91278
325.6358, 44.92194
326.1179, 56.05670
326.6000, 60.62775
327.0821, 61.75653
327.5642, 61.61224
328.0464, 60.33386
328.5285, 57.69904
329.0106, 52.03589
329.4927, 43.83698
329.9748, 39.44891
330.4569, 40.93311
330.9391, 45.40009
331.4212, 50.08832
331.9033, 58.38416
332.3854, 64.74243
332.8675, 70.31329
333.3496, 74.24658
333.8318, 68.98407
334.3139, 45.73254
334.7960, 24.74402
335.2781, 19.47571
335.7602, 36.80011
336.2423, 53.83533
336.7245, 72.90918
337.2066, 89.92999
337.6887, 85.97241
338.1708, 50.23065
338.6529, 17.22882
339.1350, 9.609436
339.6172, 33.18225
340.0993, 51.85327
340.5814, 62.99414
341.0635, 67.99243
341.5456, 69.21783
342.0277, 65.80176
342.5099, 60.48151
342.9920, 53.30249
343.4741, 44.23987
343.9562, 41.67413
344.4383, 48.60913
344.9204, 57.94543
345.4026, 54.50189
345.8847, 37.92889
346.3668, 23.01929
346.8489, 16.70630
347.3310, 18.39471
347.8131, 27.48865
348.2953, 46.32910
348.7774, 64.61163
349.2595, 65.73889
349.7416, 52.14978
350.2237, 39.34155
350.7058, 37.42639
351.1880, 41.01849
351.6701, 36.97919
352.1522, 23.49829
352.6343, 11.51263
353.1164, 15.62219
353.5985, 30.62860
354.0807, 42.87274
354.5628, 44.94269
355.0449, 41.98309
355.5270, 39.98456
356.0091, 39.24524
356.4912, 37.18469
356.9734, 30.66248
357.4555, 21.71771
357.9376, 13.72864
358.4197, 5.857178
358.9018, 0.8912960
359.3839, 2.059998
359.8661, 9.251038
360.3482, 16.59082
360.8303, 20.57892
361.3124, 23.33423
361.7945, 27.05121
362.2766, 36.22650
362.7588, 42.74817
363.2409, 43.09320
363.7230, 37.73175
364.2051, 30.70605
364.6872, 17.70093
365.1693, 6.684631
365.6515, 3.182800
366.1336, 19.63898
366.6157, 31.25281
367.0978, 31.35413
367.5799, 22.18219
368.0620, 15.22253
368.5442, 12.25458
369.0263, 11.33472
369.5084, 11.64844
369.9905, 16.26831
370.4726, 17.87775
370.9547, 14.79370
371.4369, 8.711182
371.9190, 4.450745
372.4011, 2.826660
372.8832, 2.149719
373.3653, 2.458557
373.8474, 6.080200
374.3295, 3.442322
374.8116, 9.865906
375.2938, 26.26898
375.7759, 31.05402
376.2580, 21.50079
376.7401, 8.314209
377.2222, 6.573181
377.7043, 23.88910
378.1865, 32.39111
378.6686, 30.35004
379.1507, 23.49768
379.6328, 19.73816
380.1149, 19.36914
380.5970, 16.50659
381.0792, 5.805481
381.5613, 9.326782
382.0434, 11.07080
382.5255, 2.009399
383.0076, 18.17145
383.4897, 26.70447
383.9719, 28.28253
384.4540, 25.90479
384.9361, 16.96948
385.4182, 5.987244
385.9003, 6.649292
386.3824, 18.47815
386.8646, 27.39258
387.3467, 13.92682
387.8288, 8.304932
388.3109, 13.55951
388.7930, 13.78412
389.2751, 44.84686
389.7573, 47.97827
390.2394, 29.91327
390.7215, 14.48004
391.2036, 18.88538
391.6857, 29.74255
392.1678, 34.74127
392.6500, 29.83069
393.1321, 23.71265
393.6142, 17.42291
394.0963, 13.24530
394.5784, 15.68427
395.0605, 37.93591
395.5427, 57.87122
396.0248, 63.88440
396.5069, 51.47211
396.9890, 37.59656
397.4711, 22.17328
397.9532, 8.559753
398.4354, 0.7797850
398.9175, 1.374756
399.3996, 3.072021
399.8817, 18.86230
400.3638, 48.41302
400.8459, 65.25793
401.3281, 60.22327
401.8102, 49.05865
402.2923, 44.97418
402.7744, 51.05548
403.2565, 58.94672
403.7386, 70.61798
404.2208, 84.16412
404.7029, 84.31750
405.1850, 64.94592
405.6671, 43.78735
406.1492, 32.76178
406.6313, 32.40771
407.1135, 39.15479
407.5956, 57.03162
408.0777, 77.52325
408.5598, 76.20105
409.0419, 50.45319
409.5240, 27.47876
410.0062, 24.89032
410.4883, 39.48260
410.9704, 53.06879
411.4525, 65.44135
411.9346, 74.20923
412.4167, 74.76782
412.8989, 68.35352
413.3810, 60.62537
413.8631, 54.41766
414.3452, 48.49542
414.8273, 38.89435
415.3094, 25.27753
415.7916, 15.63635
416.2737, 19.76147
416.7558, 31.47656
417.2379, 41.23413
417.7200, 47.96252
418.2021, 49.46777
418.6843, 39.18958
419.1664, 19.78503
419.6485, 7.100098
420.1306, 13.90350
420.6127, 28.01208
421.0948, 40.41351
421.5770, 53.00964
422.0591, 58.19940
422.5412, 48.76636
423.0233, 29.80963
423.5054, 15.62604
423.9875, 8.735901
424.4697, 7.190674
424.9518, 11.40747
425.4339, 26.63666
425.9160, 35.59711
426.3981, 35.62994
426.8802, 30.46442
427.3624, 24.71625
427.8445, 14.73175
428.3266, 10.14978
428.8087, 15.86481
429.2908, 32.41534
429.7729, 40.01782
430.2551, 36.01984
430.7372, 27.44843
431.2193, 19.95789
431.7014, 13.30292
432.1835, 8.974182
432.6656, 6.338440
433.1478, 5.311035
433.6299, 9.378723
434.1120, 19.94165
434.5941, 29.11566
435.0762, 29.47168
435.5583, 22.46948
436.0405, 16.96790
436.5226, 14.09619
437.0047, 12.87787
437.4868, 12.07629
437.9689, 11.82190
438.4510, 12.58423
438.9332, 15.21906
439.4153, 18.77008
439.8974, 23.40308
440.3795, 30.00110
440.8616, 31.65283
441.3438, 16.01221
441.8259, 5.719543
442.3080, 18.58398
442.7901, 10.28040
443.2722, 1.926636
443.7543, 11.18359
444.2365, 17.64001
444.7186, 22.43469
445.2007, 24.01471
445.6828, 23.16827
446.1649, 21.44672
446.6470, 20.32867
447.1292, 18.88153
447.6113, 15.63348
448.0934, 11.95026
448.5755, 11.64093
449.0576, 19.33380
449.5397, 25.13934
450.0219, 24.38239
450.5040, 13.85095
450.9861, 10.68622
451.4682, 18.38220
451.9503, 29.51025
452.4324, 34.36017
452.9146, 31.95691
453.3967, 27.49744
453.8788, 20.74915
454.3609, 13.04199
454.8430, 13.62592
455.3251, 23.72119
455.8072, 33.20770
456.2893, 31.67212
456.7715, 21.26520
457.2536, 12.63446
457.7357, 6.985107
458.2178, 4.568970
458.6999, 8.355530
459.1820, 16.76239
459.6642, 22.98413
460.1463, 18.64307
460.6284, 11.80872
461.1105, 13.64197
461.5926, 26.29779
462.0747, 39.39307
462.5569, 47.60083
463.0390, 51.45081
463.5211, 51.52972
464.0032, 47.08337
464.4853, 39.83337
464.9674, 26.68890
465.4496, 8.832031
465.9317, 0.4088750
466.4138, 11.43677
466.8959, 27.16882
467.3780, 36.19287
467.8601, 31.41895
468.3423, 27.15454
468.8244, 22.51263
469.3065, 18.69336
469.7886, 19.09039
470.2707, 25.69324
470.7528, 33.40161
471.2350, 41.24030
471.7171, 49.79034
472.1992, 53.74902
472.6813, 52.41498
473.1634, 47.56604
473.6455, 39.01227
474.1277, 26.23450
474.6098, 20.68103
475.0919, 28.75745
475.5740, 43.94543
476.0561, 47.40454
476.5382, 39.23370
477.0204, 28.13965
477.5025, 17.48273
477.9846, 9.221741
478.4667, 8.735168
478.9488, 19.07410
479.4309, 30.23975
479.9131, 30.41284
480.3952, 23.78857
480.8773, 20.01868
481.3594, 29.17474
481.8415, 38.77667
482.3236, 37.94025
482.8058, 25.59760
483.2879, 17.21674
483.7700, 22.36658
484.2521, 32.47345
484.7342, 39.94196
485.2163, 39.80072
485.6985, 40.56177
486.1806, 46.84930
486.6627, 56.24445
487.1448, 56.73169
487.6269, 39.90021
488.1090, 23.63062
488.5912, 15.69299
489.0733, 19.07648
489.5554, 20.66852
490.0375, 19.97003
490.5196, 18.12805
491.0017, 15.95636
491.4839, 12.93219
491.9660, 14.06738
492.4481, 23.32599
492.9302, 37.38538
493.4123, 41.41187
493.8944, 35.14221
494.3766, 26.79626
494.8587, 24.25848
495.3408, 24.74780
495.8229, 19.14429
496.3050, 2.521423
496.7871, 12.22247
497.2693, 10.11761
497.7514, 4.687500
498.2335, 21.66370
498.7156, 43.80359
499.1977, 60.45160
499.6798, 61.26715
500.1620, 44.70557
500.6441, 26.93274
501.1262, 9.214966
501.6083, 4.753235
502.0904, 11.42169
502.5725, 4.492859
503.0547, 3.493713
503.5368, 12.89526
504.0189, 22.46185
504.5010, 28.39563
504.9831, 25.79071
505.4652, 21.98193
505.9474, 22.15167
506.4295, 28.57465
506.9116, 31.52179
507.3937, 29.91498
507.8758, 26.45898
508.3579, 25.07416
508.8401, 26.08423
509.3222, 24.52307
509.8043, 16.95337
510.2864, 7.119751
510.7685, 7.546448
511.2506, 17.97107
511.7328, 28.49915
512.2148, 32.05206
512.6970, 30.68243
513.1791, 27.00391
513.6612, 20.05750
514.1433, 16.28296
514.6254, 27.55347
515.1075, 45.24603
515.5897, 53.77429
516.0718, 33.84161
516.5539, 14.12396
517.0360, 12.63727
517.5181, 28.80450
518.0002, 41.55487
518.4824, 42.74768
518.9645, 40.17188
519.4466, 38.75629
519.9287, 41.21460
520.4108, 41.50824
520.8929, 35.96661
521.3751, 29.47870
521.8572, 33.04443
522.3393, 53.47125
522.8214, 69.18408
523.3035, 72.30035
523.7856, 63.12787
524.2678, 54.91302
524.7499, 47.65887
525.2320, 40.74323
525.7141, 31.59058
526.1962, 21.32013
526.6783, 18.87268
527.1605, 28.16675
527.6426, 41.41345
528.1247, 49.58606
528.6068, 52.46875
529.0889, 49.87866
529.5710, 32.41272
530.0532, 14.93066
530.5353, 14.96112
531.0174, 34.35010
531.4995, 51.57727
531.9816, 53.13281
532.4637, 48.07654
532.9459, 45.00085
533.4280, 48.55206
533.9101, 51.38171
534.3922, 52.49030
534.8743, 51.88007
535.3564, 49.30420
535.8386, 39.71100
536.3207, 34.33392
536.8028, 39.95758
537.2849, 60.08185
537.7670, 64.23236
538.2491, 46.71680
538.7313, 23.39716
539.2134, 9.770691
539.6955, 6.235046
540.1776, 6.967163
540.6597, 11.23523
541.1418, 18.68744
541.6240, 32.14117
542.1061, 50.41010
542.5882, 62.18060
543.0703, 54.87903
543.5524, 39.16541
544.0345, 31.53088
544.5167, 33.51642
544.9988, 36.17340
545.4809, 31.16443
545.9630, 24.02393
546.4451, 21.17957
546.9272, 31.03772
547.4094, 38.66156
547.8915, 37.84973
548.3736, 30.60242
548.8557, 23.84845
549.3378, 14.66656
549.8199, 9.942749
550.3021, 13.70490
550.7842, 29.12445
551.2663, 38.00488
551.7484, 37.92621
552.2305, 34.34100
552.7126, 33.39056
553.1948, 36.08844
553.6769, 34.22778
554.1590, 24.53687
554.6411, 10.70935
555.1232, 3.516785
555.6053, 3.354614
556.0875, 7.425293
556.5696, 18.99658
557.0517, 32.59906
557.5338, 37.38513
558.0159, 32.58392
558.4980, 25.76776
558.9802, 21.91785
559.4623, 19.51923
559.9444, 17.07404
560.4265, 18.33990
560.9086, 15.76953
561.3907, 1.473022
561.8729, 25.57837
562.3550, 35.31049
562.8371, 12.06915
563.3192, 12.37378
563.8013, 27.71661
564.2834, 33.43170
564.7656, 35.24500
565.2477, 32.33752
565.7298, 26.52966
566.2119, 17.86066
566.6940, 4.885132
567.1761, 2.191284
567.6583, 1.053650
568.1404, 4.899109
568.6225, 10.92786
569.1046, 16.76184
569.5867, 18.96844
570.0688, 12.28735
570.5510, 2.268616
571.0331, 0.6566770
571.5152, 3.397827
571.9973, 7.491943
572.4794, 4.824829
572.9615, 0.5684200
573.4437, 0.1687620
573.9258, 5.630371
574.4079, 13.48132
574.8900, 26.81464
575.3721, 41.07373
575.8542, 47.79388
576.3364, 38.60358
576.8185, 29.47675
577.3006, 23.71759
577.7827, 21.19366
578.2648, 19.71753
578.7469, 19.74109
579.2291, 19.97559
579.7112, 18.85571
580.1933, 16.06433
580.6754, 17.52075
581.1575, 24.73724
581.6396, 32.95111
582.1218, 35.25055
582.6039, 32.58929
583.0860, 29.29211
583.5681, 25.80377
584.0502, 23.45886
584.5323, 24.72137
585.0145, 28.91913
585.4966, 32.92517
585.9787, 37.91010
586.4608, 40.08997
586.9429, 34.75586
587.4250, 18.58313
587.9072, 7.467590
588.3893, 8.163452
588.8714, 14.64197
589.3535, 20.95782
589.8356, 29.33350
590.3177, 33.57587
590.7999, 30.99634
591.2820, 24.43237
591.7641, 22.37518
592.2462, 25.40942
592.7283, 30.91315
593.2104, 41.03516
593.6926, 53.85254
594.1747, 52.52124
594.6568, 35.84009
595.1389, 17.72571
595.6210, 7.893860
596.1031, 6.796814
596.5853, 17.03125
597.0674, 45.42169
597.5495, 71.42938
598.0316, 74.18665
598.5137, 62.88428
598.9958, 54.48260
599.4780, 57.96478
599.9601, 62.82092
600.4422, 65.28949
600.9243, 65.30536
601.4064, 64.99237
601.8885, 67.01556
602.3707, 66.29028
602.8528, 58.42535
603.3349, 38.14410
603.8170, 30.88458
604.2991, 41.13977
604.7813, 56.85352
605.2634, 61.66180
605.7455, 55.78424
606.2276, 52.70972
606.7097, 56.84039
607.1918, 64.30743
607.6740, 71.86237
608.1561, 78.03357
608.6382, 76.21014
609.1203, 51.93640
609.6024, 24.49091
610.0845, 12.58325
610.5667, 17.75385
611.0488, 28.58063
611.5309, 50.21533
612.0130, 69.61102
612.4951, 76.18317
612.9772, 52.75281
613.4594, 38.63397
613.9415, 40.81580
614.4236, 50.85651
614.9057, 54.17517
615.3878, 48.83209
615.8699, 41.84796
616.3521, 33.76129
616.8342, 25.62073
617.3163, 24.19641
617.7984, 29.88708
618.2805, 34.67847
618.7626, 29.69421
619.2448, 20.30475
619.7269, 17.93359
620.2090, 24.86829
620.6911, 36.68958
621.1732, 51.90887
621.6553, 64.57983
622.1375, 69.04944
622.6196, 59.93353
623.1017, 48.37634
623.5838, 33.56030
624.0659, 18.90533
624.5480, 13.29657
625.0302, 25.55261
625.5123, 29.80646
625.9944, 39.24390
626.4765, 44.34552
626.9586, 45.34442
627.4407, 29.95001
627.9229, 35.72583
628.4050, 33.01880
628.8871, 29.94873
629.3692, 38.70673
629.8513, 25.70068
630.3334, 34.27301
630.8156, 34.23260
631.2977, 38.13348
631.7798, 33.50061
632.2619, 31.50500
632.7440, 38.04919
633.2261, 39.86615
633.7083, 34.46967
634.1904, 39.11627
634.6725, 25.95966
635.1546, 27.98077
635.6367, 36.61115
636.1188, 31.43140
636.6010, 35.75153
637.0831, 36.45996
637.5652, 20.73456
638.0473, 25.46051
638.5294, 22.13562
639.0115, 24.79822
639.4937, 35.69128
639.9758, 48.01746
640.4579, 53.03552
640.9400, 51.43170
641.4221, 46.18866
641.9042, 35.80334
642.3864, 25.30341
642.8685, 21.05157
643.3506, 21.73651
643.8327, 23.28394
644.3148, 24.67407
644.7969, 25.55438
645.2791, 26.45349
645.7612, 27.58246
646.2433, 25.31250
646.7254, 10.75531
647.2075, 0.5935670
647.6896, 1.419922
648.1718, 24.86554
648.6539, 39.61279
649.1360, 43.99298
649.6181, 41.80896
650.1002, 37.28687
650.5823, 30.49658
651.0645, 24.25555
651.5466, 19.91455
652.0287, 15.56201
652.5108, 4.910889
652.9929, 9.427734
653.4750, 17.03143
653.9572, 7.172302
654.4393, 7.326660
654.9214, 17.52502
655.4035, 22.99963
655.8856, 28.82898
656.3677, 41.30225
656.8499, 51.18805
657.3320, 51.24683
657.8141, 34.79297
658.2962, 26.09625
658.7783, 27.74200
659.2604, 33.40363
659.7426, 35.48224
660.2246, 33.69006
660.7067, 31.73401
661.1888, 30.52423
661.6710, 29.21136
662.1531, 24.69116
662.6352, 18.17999
663.1173, 14.86713
663.5994, 19.22473
664.0815, 26.64716
664.5637, 34.92957
665.0458, 43.37329
665.5279, 47.51056
666.0100, 41.99597
666.4921, 34.12213
666.9742, 27.59546
667.4564, 22.36102
667.9385, 19.92938
668.4206, 21.10284
668.9027, 24.29315
669.3848, 29.04120
669.8669, 36.27155
670.3491, 38.68494
670.8312, 34.26385
671.3133, 26.95142
671.7954, 22.67102
672.2775, 21.18567
672.7596, 21.42212
673.2418, 23.78455
673.7239, 26.87268
674.2060, 30.33783
674.6881, 33.54529
675.1702, 34.10809
675.6523, 29.25110
676.1345, 22.83032
676.6166, 16.86951
677.0987, 11.61249
677.5808, 5.208313
678.0629, 8.433044
678.5450, 16.90839
679.0272, 8.614868
679.5093, 23.10321
679.9914, 37.09888
680.4735, 27.39240
680.9556, 10.45465
681.4377, 8.710999
681.9199, 18.99823
682.4020, 26.40680
682.8841, 25.93799
683.3662, 22.78229
683.8483, 21.41534
684.3304, 21.73651
684.8126, 23.39923
685.2947, 31.11407
685.7768, 35.53125
686.2589, 27.45258
686.7410, 8.348572
687.2231, 2.937012
687.7053, 25.87848
688.1874, 46.13257
688.6695, 49.00116
689.1516, 32.59863
689.6337, 19.60913
690.1158, 10.09137
690.5980, 3.380005
691.0801, 2.846252
691.5622, 7.164917
692.0443, 1.584351
692.5264, 17.63196
693.0085, 36.37457
693.4907, 39.75751
693.9728, 34.78711
694.4549, 31.11725
694.9370, 31.67120
695.4191, 33.25433
695.9012, 37.48712
696.3834, 42.48456
696.8655, 42.21997
697.3476, 32.17255
697.8297, 23.38629
698.3118, 18.40808
698.7939, 17.11438
699.2761, 19.69830
699.7582, 26.91241
700.2403, 32.98236
700.7224, 34.50153
701.2045, 32.16119
701.6866, 25.83215
702.1688, 15.39819
702.6509, 8.322571
703.1330, 13.94244
703.6151, 24.14380
704.0972, 30.77539
704.5793, 32.24078
705.0615, 29.97546
705.5436, 19.03906
706.0257, 6.950439
706.5078, 3.300354
706.9899, 14.08594
707.4720, 21.09558
707.9542, 20.84985
708.4363, 16.82117
708.9184, 16.83942
709.4005, 20.91815
709.8826, 24.85687
710.3647, 28.47156
710.8469, 29.39984
711.3290, 21.92389
711.8111, 8.989563
712.2932, 1.130615
712.7753, 4.145813
713.2574, 2.831360
713.7396, 3.194397
714.2217, 14.51532
714.7038, 20.14459
715.1859, 8.456116
715.6680, 1.505310
716.1501, 1.489136
716.6323, 23.26123
717.1144, 36.49390
717.5965, 40.32770
718.0786, 37.87213
718.5607, 29.77020
719.0428, 17.42670
719.5250, 9.179565
720.0071, 7.028687
720.4892, 8.071533
720.9713, 11.81873
721.4534, 16.18701
721.9355, 17.35339
722.4177, 7.752686
722.8998, 1.261658
723.3819, 4.462341
723.8640, 14.92285
724.3461, 25.01489
724.8282, 39.08380
725.3104, 45.37872
725.7925, 38.16064
726.2746, 19.89795
726.7567, 8.626953
727.2388, 4.699341
727.7209, 5.342651
728.2031, 10.68036
728.6852, 18.90826
729.1673, 27.24811
729.6494, 35.45905
730.1315, 40.14758
730.6136, 35.60565
731.0958, 28.39148
731.5779, 23.89935
732.0600, 23.15179
732.5421, 24.60760
733.0242, 32.75305
733.5063, 39.90454
733.9885, 38.19562
734.4706, 22.61646
734.9527, 15.75513
735.4348, 21.39233
735.9169, 32.47479
736.3990, 41.56128
736.8812, 48.95093
737.3633, 49.40259
737.8454, 36.04224
738.3275, 21.67371
738.8096, 23.58807
739.2917, 35.01508
739.7739, 39.95227
740.2560, 20.51733
740.7381, 4.957703
741.2202, 8.138245
741.7023, 27.46820
742.1844, 37.67340
742.6666, 34.66479
743.1487, 30.03094
743.6308, 28.50305
744.1129, 29.56506
744.5950, 27.09064
745.0771, 20.83105
745.5593, 15.25317
746.0414, 14.73645
746.5235, 16.86536
747.0056, 17.55414
747.4877, 16.33752
747.9698, 15.91852
748.4520, 19.47021
748.9341, 23.32275
749.4162, 24.79309
749.8983, 25.31744
750.3804, 20.66150
750.8625, 5.671692
751.3447, 9.822693
751.8268, 13.43243
752.3089, 5.053162
752.7910, 3.142029
753.2731, 11.35284
753.7552, 18.39832
754.2374, 21.90515
754.7195, 22.61743
755.2016, 22.66479
755.6837, 22.33490
756.1658, 22.16595
756.6479, 20.06506
757.1301, 18.43628
757.6122, 23.02808
758.0943, 50.17853
758.5764, 66.23853
759.0585, 58.16455
759.5406, 32.35327
760.0228, 19.54736
760.5049, 21.62000
760.9870, 29.09100
761.4691, 41.87244
761.9512, 55.91827
762.4333, 55.21722
762.9155, 41.00281
763.3976, 25.42767
763.8797, 13.39215
764.3618, 6.169495
764.8439, 7.416870
765.3260, 17.99390
765.8082, 24.58911
766.2903, 17.30511
766.7724, 9.851196
767.2545, 11.60645
767.7366, 27.64679
768.2188, 31.62146
768.7009, 19.37115
769.1830, 5.154541
769.6651, 3.944702
770.1472, 13.01270
770.6293, 19.74323
771.1115, 22.35498
771.5936, 24.93988
772.0757, 34.98816
772.5578, 45.70880
773.0399, 47.17426
773.5220, 26.19989
774.0042, 11.20886
774.4863, 13.64331
774.9684, 24.51862
775.4505, 30.58447
775.9326, 29.81201
776.4147, 29.43597
776.8969, 30.64319
777.3790, 32.86255
777.8611, 36.53510
778.3432, 40.80176
778.8253, 39.94336
779.3074, 26.45392
779.7896, 12.18835
780.2717, 13.04614
780.7538, 23.85785
781.2359, 29.83313
781.7180, 21.15271
782.2001, 10.94867
782.6823, 2.768250
783.1644, 3.097717
783.6465, 4.936890
784.1286, 1.574219
784.6107, 2.909363
785.0928, 6.915894
785.5750, 10.59247
786.0571, 14.52899
786.5392, 18.63232
787.0213, 22.78070
787.5034, 28.69250
787.9855, 33.46570
788.4677, 31.99536
788.9498, 23.91632
789.4319, 20.95294
789.9140, 38.63934
790.3961, 53.27960
790.8782, 46.84198
791.3604, 10.21411
791.8425, 1.362427
792.3246, 30.18561
792.8067, 62.17267
793.2888, 62.93518
793.7709, 39.38330
794.2531, 26.68939
794.7352, 28.53955
795.2173, 34.97205
795.6994, 31.00745
796.1815, 41.06824
796.6636, 46.79163
797.1458, 48.41077
797.6279, 33.63458
798.1100, 40.02728
798.5921, 37.95197
799.0742, 36.37964
799.5563, 46.07141
800.0385, 33.69550
800.5206, 42.87646
801.0027, 43.44293
801.4848, 47.95081
801.9669, 43.92145
802.4490, 42.52765
802.9312, 49.67212
803.4133, 52.08746
803.8954, 47.07178
804.3775, 51.82483
804.8596, 39.12189
805.3417, 41.73773
805.8239, 50.97668
806.3060, 46.38586
806.7881, 51.29144
807.2702, 52.58173
807.7523, 37.43500
808.2344, 50.87244
808.7166, 18.65576
809.1987, 16.11346
809.6808, 15.90253
810.1629, 11.16162
810.6450, 34.14691
811.1271, 34.52460
811.6093, 28.58746
812.0914, 23.54712
812.5735, 19.87714
813.0556, 18.99493
813.5377, 25.68854
814.0198, 28.80145
814.5020, 23.92566
814.9841, 13.30609
815.4662, 7.606873
815.9483, 7.069275
816.4304, 8.272339
816.9125, 10.77954
817.3947, 13.26501
817.8768, 12.67328
818.3589, 9.658081
818.8410, 7.703613
819.3231, 9.001038
819.8052, 11.48462
820.2874, 14.55859
820.7695, 18.18250
821.2516, 20.39343
821.7337, 20.49866
822.2158, 20.46509
822.6979, 21.97333
823.1801, 24.47607
823.6622, 22.17468
824.1443, 15.11279
824.6263, 9.329529
825.1085, 9.780579
825.5906, 13.48950
826.0727, 16.76776
826.5548, 19.38318
827.0369, 24.12720
827.5190, 38.38580
828.0012, 49.45923
828.4833, 50.07642
828.9654, 38.94305
829.4475, 26.16626
829.9296, 9.555481
830.4117, 1.251038
830.8939, 6.484924
831.3760, 25.81659
831.8581, 34.29150
832.3402, 30.37677
832.8223, 23.94794
833.3044, 22.05011
833.7866, 21.00446
834.2687, 16.26233
834.7508, 4.196838
835.2329, 0.9230960
835.7150, 13.36481
836.1971, 27.93982
836.6793, 35.66559
837.1614, 36.29010
837.6435, 31.78455
838.1256, 20.95471
838.6077, 13.53455
839.0898, 25.28882
839.5720, 44.56171
840.0541, 51.37415
840.5362, 40.27588
841.0183, 28.70282
841.5004, 27.22784
841.9825, 28.13177
842.4647, 23.94086
842.9468, 9.576477
843.4289, 2.905640
843.9110, 6.137207
844.3931, 12.41638
844.8752, 15.13788
845.3574, 14.75677
845.8395, 13.69501
846.3216, 12.28802
846.8037, 10.02393
847.2858, 3.797424
847.7679, 2.231873
848.2501, 2.882751
848.7322, 5.924255
849.2143, 13.68414
849.6964, 20.44873
850.1785, 23.83704
850.6606, 19.75940
851.1428, 6.512878
851.6249, 1.049683
852.1070, 5.760437
852.5891, 13.98120
853.0712, 17.50787
853.5533, 19.20801
854.0355, 26.48676
854.5176, 45.59845
854.9997, 54.99176
855.4818, 32.93695
855.9639, 2.151367
856.4460, 12.87476
856.9282, 4.176819
857.4103, 3.941589
857.8924, 11.51642
858.3745, 17.32672
858.8566, 19.65405
859.3387, 18.94696
859.8209, 16.90668
860.3030, 13.38348
860.7851, 10.77808
861.2672, 12.99854
861.7493, 16.38776
862.2314, 16.40668
862.7136, 7.774597
863.1957, 4.039551
863.6778, 9.656616
864.1599, 17.14801
864.6420, 18.86145
865.1241, 14.41333
865.6063, 9.722900
866.0884, 5.132629
866.5705, 1.652405
867.0526, 1.084167
867.5347, 1.818604
868.0168, 1.417419
868.4990, 9.774841
868.9811, 14.80676
869.4632, 9.934692
869.9453, 2.252563
870.4274, 0.9976810
870.9095, 2.203491
871.3917, 3.345093
871.8738, 0.8540650
872.3559, 0.1994020
872.8380, 10.04633
873.3201, 26.44598
873.8022, 31.72314
874.2844, 20.85510
874.7665, 11.05310
875.2486, 18.14362
875.7307, 30.31940
876.2128, 36.08954
876.6949, 30.70697
877.1771, 24.02850
877.6592, 14.01166
878.1413, 5.512878
878.6234, 4.391235
879.1055, 9.968262
879.5876, 13.84021
880.0698, 15.27252
880.5519, 15.12421
881.0340, 13.53748
881.5161, 11.16144
881.9982, 8.362854
882.4803, 4.466431
882.9625, 2.810913
883.4446, 4.544800
883.9267, 8.273804
884.4088, 14.19153
884.8909, 12.21692
885.3730, 21.97369
885.8552, 27.39374
886.3373, 28.70978
886.8194, 13.63116
887.3015, 19.72198
887.7836, 17.32599
888.2657, 14.41479
888.7479, 23.46912
889.2300, 10.77338
889.7121, 19.65491
890.1942, 19.92285
890.6763, 24.13251
891.1584, 20.13965
891.6406, 19.31622
892.1227, 27.09155
892.6048, 29.87726
893.0869, 12.09753
893.5690, 12.79633
894.0511, 26.48285
894.5333, 36.00171
895.0154, 23.06158
895.4975, 8.599670
895.9796, 9.480042
896.4617, 30.19202
896.9438, 37.44440
897.4260, 25.45728
897.9081, 12.31061
898.3902, 8.423157
898.8723, 12.17664
899.3544, 17.15210
899.8365, 23.03284
900.3187, 26.14636
900.8008, 20.22614
901.2829, 13.40399
901.7650, 13.35541
902.2471, 20.04498
902.7292, 23.37158
903.2114, 19.59558
903.6935, 16.86621
904.1756, 19.73334
904.6577, 26.13196
905.1398, 22.86249
905.6219, 10.33923
906.1041, 0.6475830
906.5862, 4.231445
907.0683, 2.903931
907.5504, 4.389648
908.0325, 15.44006
908.5146, 21.36951
908.9968, 13.50458
909.4789, 7.502258
909.9610, 7.775940
910.4431, 12.43188
910.9252, 14.17468
911.4073, 12.95258
911.8895, 14.70172
912.3716, 25.35455
912.8537, 35.77350
913.3358, 31.04211
913.8179, 16.73126
914.3000, 4.901306
914.7822, 0.5471800
915.2643, 1.125610
915.7464, 15.40381
916.2285, 33.82404
916.7106, 39.47705
917.1927, 31.12164
917.6749, 21.56671
918.1570, 12.28448
918.6391, 4.836487
919.1212, 1.429138
919.6033, 1.326233
920.0854, 3.290283
920.5676, 8.468262
921.0497, 13.17444
921.5318, 15.43896
922.0139, 17.18774
922.4960, 21.37732
922.9781, 29.43311
923.4603, 32.02338
923.9424, 27.03766
924.4245, 20.89307
924.9066, 24.04144
925.3887, 30.95697
925.8708, 29.97369
926.3530, 16.00696
926.8351, 5.819092
927.3172, 7.543762
927.7993, 15.68048
928.2814, 27.33978
928.7635, 47.03912
929.2457, 48.03265
929.7278, 25.78485
930.2099, 3.744202
930.6920, 5.856323
931.1741, 21.86688
931.6563, 31.09387
932.1384, 31.90033
932.6205, 31.15045
933.1026, 33.68475
933.5847, 34.64044
934.0668, 28.79968
934.5490, 16.05127
935.0311, 13.23438
935.5132, 22.85669
935.9953, 32.67975
936.4774, 34.02612
936.9595, 31.21729
937.4417, 37.25690
937.9238, 49.51788
938.4059, 55.05927
938.8880, 40.24457
939.3701, 23.66437
939.8522, 13.39911
940.3344, 9.043762
940.8165, 9.777710
941.2986, 17.66016
941.7807, 22.58807
942.2628, 20.26263
942.7449, 15.56903
943.2271, 17.59979
943.7092, 24.63666
944.1913, 32.18219
944.6734, 42.81848
945.1555, 48.33209
945.6376, 40.73450
946.1198, 27.38770
946.6019, 21.99219
947.0840, 28.92743
947.5661, 27.59418
948.0482, 13.16534
948.5303, 4.388672
949.0125, 12.87781
949.4946, 13.83411
949.9767, 10.05804
950.4588, 1.267517
950.9409, 9.146729
951.4230, 22.84998
951.9052, 35.23792
952.3873, 42.18805
952.8694, 42.28943
953.3515, 42.10303
953.8336, 41.89087
954.3157, 40.34613
954.7979, 35.77625
955.2800, 29.29657
955.7621, 21.83270
956.2442, 13.56873
956.7263, 8.883606
957.2084, 11.56964
957.6906, 17.03198
958.1727, 24.94397
958.6548, 34.66608
959.1369, 32.56873
959.6190, 15.66858
960.1011, 6.353638
960.5833, 24.76855
961.0654, 53.08936
961.5475, 59.36072
962.0296, 48.73566
962.5117, 38.00177
962.9938, 36.03558
963.4760, 34.09650
963.9581, 26.65704
964.4402, 17.80975
964.9223, 19.24774
965.4044, 32.56689
965.8865, 43.64746
966.3687, 50.14972
966.8508, 50.84637
967.3329, 39.16730
967.8150, 22.05133
968.2971, 11.25110
968.7792, 12.26251
969.2614, 16.76703
969.7435, 28.19287
970.2256, 37.93103
970.7077, 35.15302
971.1898, 18.86731
971.6719, 12.75873
972.1541, 19.33038
972.6362, 28.92468
973.1183, 37.32178
973.6004, 41.10345
974.0825, 33.12250
974.5646, 10.42072
975.0468, 3.184631
975.5289, 0.2033690
976.0110, 8.788940
976.4931, 22.25763
976.9752, 38.65747
977.4573, 39.05725
977.9395, 24.66418
978.4216, 14.59125
978.9037, 28.11890
979.3858, 44.36487
979.8679, 42.79706
980.3500, 28.05212
980.8322, 19.95300
981.3143, 25.22949
981.7964, 30.67059
982.2785, 34.71558
982.7606, 36.47736
983.2427, 30.78717
983.7249, 20.30933
984.2070, 18.26648
984.6891, 33.53864
985.1712, 47.01617
985.6533, 41.96124
986.1354, 29.13727
986.6176, 22.54865
987.0997, 28.56628
987.5818, 27.70770
988.0639, 17.35468
988.5460, 6.326233
989.0281, 3.483276
989.5102, 6.570679
989.9923, 7.493958
990.4744, 18.68732
990.9565, 25.54364
991.4387, 28.29675
991.9208, 14.65485
992.4029, 22.18384
992.8850, 21.22748
993.3671, 19.92322
993.8492, 30.43005
994.3314, 19.17255
994.8135, 16.45203
995.2956, 28.60950
995.7777, 35.96094
996.2598, 38.32465
996.7419, 35.24506
997.2241, 20.90546
997.7062, 7.697937
998.1883, 4.124146
998.6704, 11.32727
999.1525, 5.559753
999.6346, 13.22198
1000.117, 29.39062
1000.599, 40.57837
1001.081, 46.25372
1001.563, 42.70221
1002.045, 35.03015
1002.527, 29.86816
1003.009, 26.96979
1003.492, 25.88177
1003.974, 26.87292
1004.456, 28.78369
1004.938, 31.19702
1005.420, 33.91577
1005.902, 37.05151
1006.384, 39.93567
1006.866, 37.65118
1007.349, 21.20502
1007.831, 5.064636
1008.313, 1.283936
1008.795, 1.783875
1009.277, 8.103882
1009.759, 20.68414
1010.241, 25.64569
1010.723, 15.45734
1011.205, 0.9897460
1011.688, 4.432251
1012.170, 19.89563
1012.652, 32.65436
1013.134, 37.37317
1013.616, 39.16339
1014.098, 37.88708
1014.580, 35.84485
1015.062, 35.40948
1015.544, 36.80847
1016.027, 38.59656
1016.509, 41.01349
1016.991, 41.42505
1017.473, 37.04120
1017.955, 29.45178
1018.437, 17.74969
1018.919, 1.890503
1019.401, 4.729126
1019.884, 7.696899
1020.366, 19.77094
1020.848, 24.75964
1021.330, 24.11133
1021.812, 23.58905
1022.294, 22.87720
1022.776, 19.61584
1023.258, 8.381165
1023.740, 0.6323850
1024.223, 0.1526490
1024.705, 7.540955
1025.187, 16.33875
1025.669, 29.31226
1026.151, 33.26794
1026.633, 23.69727
1027.115, 14.45111
1027.597, 29.68341
1028.080, 55.89703
1028.562, 62.14624
1029.044, 42.39337
1029.526, 23.60657
1030.008, 15.60120
1030.490, 13.74664
1030.972, 17.20520
1031.454, 25.31824
1031.937, 25.49957
1032.419, 17.59692
1032.901, 11.26666
1033.383, 14.04443
1033.865, 19.98676
1034.347, 23.79907
1034.829, 26.07703
1035.311, 28.30615
1035.793, 33.01721
1036.276, 33.74384
1036.758, 28.44409
1037.240, 21.05542
1037.722, 16.02130
1038.204, 13.73090
1038.686, 16.96698
1039.168, 27.23230
1039.650, 35.86523
1040.132, 35.18707
1040.615, 32.96759
1041.097, 36.66199
1041.579, 46.96887
1042.061, 45.45374
1042.543, 30.13049
1043.025, 19.48560
1043.507, 29.20587
1043.989, 45.18738
1044.472, 45.19159
1044.954, 34.31036
1045.436, 27.87512
1045.918, 35.35370
1046.400, 41.53198
1046.882, 44.39728
1047.364, 44.52142
1047.846, 42.80042
1048.328, 39.12512
1048.811, 30.70959
1049.293, 15.26740
1049.775, 6.268250
1050.257, 24.20209
1050.739, 45.36493
1051.221, 45.21918
1051.703, 20.03900
1052.185, 12.40747
1052.667, 26.83594
1053.150, 39.76648
1053.632, 33.69971
1054.114, 19.55902
1054.596, 15.96912
1055.078, 19.89319
1055.560, 21.72412
1056.042, 12.76508
1056.524, 7.708435
1057.007, 11.75702
1057.489, 20.04279
1057.971, 26.64136
1058.453, 30.93945
1058.935, 24.37982
1059.417, 3.524719
1059.899, 11.45782
1060.381, 4.383545
1060.864, 26.85059
1061.346, 32.90051
1061.828, 18.95721
1062.310, 16.09845
1062.792, 27.34326
1063.274, 36.48138
1063.756, 34.28760
1064.238, 25.24396
1064.720, 15.49603
1065.203, 6.120239
1065.685, 0.6203610
1066.167, 4.563171
1066.649, 4.511719
1067.131, 0.5175170
1067.613, 8.044067
1068.095, 15.55505
1068.577, 22.83881
1069.059, 27.82880
1069.542, 23.90466
1070.024, 33.18567
1070.506, 38.12976
1070.988, 38.96967
1071.470, 23.41479
1071.952, 29.02924
1072.434, 26.15948
1072.916, 22.94128
1073.398, 31.53430
1073.881, 18.42169
1074.363, 26.86700
1074.845, 26.66034
1075.327, 30.39343
1075.809, 25.63074
1076.291, 23.88269
1076.773, 30.27972
1077.255, 31.62939
1077.738, 25.84015
1078.220, 29.82074
1078.702, 16.34589
1079.184, 18.22632
1079.666, 27.12292
1080.148, 19.85126
1080.630, 20.32172
1081.112, 21.01367
1081.594, 24.92303
1082.077, 30.58624
1082.559, 28.76892
1083.041, 18.29108
1083.523, 10.68665
1084.005, 10.29218
1084.487, 13.27380
1084.969, 15.76599
1085.451, 18.13391
1085.933, 21.09802
1086.416, 27.55804
1086.898, 28.04132
1087.380, 18.86346
1087.862, 10.53943
1088.344, 14.89154
1088.826, 26.38049
1089.308, 24.43011
1089.790, 10.94775
1090.273, 3.564636
1090.755, 19.71283
1091.237, 34.48291
1091.719, 37.60938
1092.201, 33.50330
1092.683, 31.78961
1093.165, 32.40430
1093.647, 31.22363
1094.130, 26.97809
1094.612, 22.45709
1095.094, 20.06543
1095.576, 18.79346
1096.058, 17.39148
1096.540, 15.30688
1097.022, 16.19141
1097.504, 20.95581
1097.986, 25.32404
1098.469, 28.56927
1098.951, 28.71631
1099.433, 17.09204
1099.915, 0.7276000
1100.397, 9.556824
1100.879, 3.888611
1101.361, 16.55072
1101.843, 27.01099
1102.325, 33.00592
1102.808, 27.18781
1103.290, 13.32935
1103.772, 13.62085
1104.254, 30.56213
1104.736, 44.00305
1105.218, 36.94629
1105.700, 26.64862
1106.182, 24.82965
1106.665, 29.21716
1107.147, 24.95520
1107.629, 11.65839
1108.111, 2.756958
1108.593, 5.026978
1109.075, 9.396729
1109.557, 3.976196
1110.039, 4.262695
1110.521, 4.995605
1111.004, 8.591797
1111.486, 15.69470
1111.968, 14.81940
1112.450, 12.25049
1112.932, 12.38342
1113.414, 14.34900
1113.896, 17.59625
1114.378, 21.38940
1114.860, 22.76813
1115.343, 19.51648
1115.825, 14.48730
1116.307, 5.649048
1116.789, 1.783875
1117.271, 3.939392
1117.753, 18.82117
1118.235, 29.30371
1118.717, 32.34857
1119.200, 30.13000
1119.682, 19.74170
1120.164, 8.530151
1120.646, 0.3294680
1121.128, 4.619385
1121.610, 4.289551
1122.092, 1.358154
1122.574, 6.491089
1123.057, 8.357483
1123.539, 8.817444
1124.021, 7.459290
1124.503, 6.652832
1124.985, 10.99506
1125.467, 25.63721
1125.949, 29.75482
1126.431, 20.57776
1126.913, 11.12299
1127.396, 15.36169
1127.878, 24.87299
1128.360, 26.05145
1128.842, 19.80322
1129.324, 15.67981
1129.806, 20.32367
1130.288, 20.49048
1130.770, 11.42230
1131.252, 0.1585690
1131.735, 1.576416
1132.217, 10.89648
1132.699, 12.47375
1133.181, 1.619385
1133.663, 5.552856
1134.145, 2.037354
1134.627, 11.56323
1135.109, 17.44519
1135.592, 19.50323
1136.074, 14.01001
1136.556, 2.218384
1137.038, 6.014709
1137.520, 6.124268
1138.002, 1.370178
1138.484, 11.85748
1138.966, 25.71802
1139.448, 29.86035
1139.931, 22.11597
1140.413, 15.35468
1140.895, 9.737366
1141.377, 6.419006
1141.859, 7.507202
1142.341, 10.30768
1142.823, 12.60217
1143.305, 14.34351
1143.787, 16.03784
1144.270, 17.89844
1144.752, 18.98218
1145.234, 18.72375
1145.716, 18.80792
1146.198, 25.10956
1146.680, 31.61346
1147.162, 26.69757
1147.644, 6.029907
1148.127, 5.148376
1148.609, 0.1430050
1149.091, 7.909546
1149.573, 12.29272
1150.055, 15.34638
1150.537, 24.67816
1151.019, 37.02728
1151.501, 43.33997
1151.984, 38.03711
1152.466, 30.39832
1152.948, 18.53888
1153.430, 9.914978
1153.912, 13.35614
1154.394, 26.92950
1154.876, 30.79388
1155.358, 25.53259
1155.840, 19.36005
1156.323, 12.65234
1156.805, 11.04547
1157.287, 24.31573
1157.769, 41.42267
1158.251, 42.18939
1158.733, 27.68390
1159.215, 14.86774
1159.697, 5.728943
1160.179, 2.360840
1160.662, 11.86261
1161.144, 23.45642
1161.626, 28.62524
1162.108, 27.57306
1162.590, 23.48981
1163.072, 15.26196
1163.554, 15.36749
1164.036, 31.95782
1164.519, 48.79346
1165.001, 44.82794
1165.483, 31.06921
1165.965, 21.36328
1166.447, 18.37433
1166.929, 17.04779
1167.411, 17.82611
1167.893, 17.88983
1168.375, 14.45569
1168.858, 11.48639
1169.340, 15.16699
1169.822, 22.60315
1170.304, 26.02478
1170.786, 19.21411
1171.268, 15.53766
1171.750, 16.78198
1172.232, 18.58148
1172.714, 13.76294
1173.197, 7.464905
1173.679, 12.84253
1174.161, 28.77582
1174.643, 39.57129
1175.125, 40.15186
1175.607, 34.19708
1176.089, 19.43170
1176.571, 2.524841
1177.054, 5.693481
1177.536, 6.426086
1178.018, 1.272949
1178.500, 10.44116
1178.982, 18.73016
1179.464, 16.14978
1179.946, 13.84424
1180.428, 17.20850
1180.911, 23.55054
1181.393, 21.90839
1181.875, 14.26886
1182.357, 9.519348
1182.839, 11.22247
1183.321, 15.30841
1183.803, 23.01202
1184.285, 29.62384
1184.767, 31.83319
1185.250, 29.70605
1185.732, 23.75842
1186.214, 14.56708
1186.696, 7.330994
1187.178, 6.235962
1187.660, 6.740112
1188.142, 7.786438
1188.624, 8.274597
1189.106, 5.356934
1189.589, 1.322266
1190.071, 0.6517330
1190.553, 8.277039
1191.035, 18.91095
1191.517, 31.72009
1191.999, 39.63348
1192.481, 32.37952
1192.963, 15.49737
1193.446, 6.404541
1193.928, 5.547058
1194.410, 7.857056
1194.892, 12.77972
1195.374, 16.52020
1195.856, 12.60663
1196.338, 7.946838
1196.820, 9.186829
1197.302, 16.48981
1197.785, 26.12982
1198.267, 39.24640
1198.749, 44.34845
1199.231, 33.78418
1199.713, 21.92053
1200.195, 29.60901
1200.677, 42.75287
1201.159, 41.35315
1201.641, 4.397888
1202.124, 14.18481
1202.606, 19.63434
1203.088, 20.98029
1203.570, 5.931763
1204.052, 12.05316
1204.534, 9.690369
1205.016, 6.976990
1205.498, 16.05109
1205.981, 3.002075
1206.463, 11.85571
1206.945, 12.13611
1207.427, 16.37384
1207.909, 12.08551
1208.391, 24.25037
1208.873, 27.91028
1209.355, 27.71503
1209.838, 29.44604
1210.320, 37.46277
1210.802, 36.68744
1211.284, 22.98279
1211.766, 7.902649
1212.248, 3.593262
1212.730, 6.468689
1213.212, 15.39551
1213.694, 29.33038
1214.177, 30.46564
1214.659, 10.71143
1215.141, 3.029846
1215.623, 3.640381
1216.105, 2.945801
1216.587, 11.07666
1217.069, 18.83948
1217.551, 23.28320
1218.033, 23.53546
1218.516, 22.21033
1218.998, 18.10938
1219.480, 16.58435
1219.962, 21.06921
1220.444, 27.44318
1220.926, 27.98303
1221.408, 25.34949
1221.890, 24.23840
1222.373, 26.77380
1222.855, 28.13580
1223.337, 27.49518
1223.819, 27.37549
1224.301, 32.27026
1224.783, 36.64844
1225.265, 25.62366
1225.747, 6.174622
1226.229, 5.243347
1226.712, 2.839233
1227.194, 0.3399660
1227.676, 11.46912
1228.158, 18.27753
1228.640, 20.95447
1229.122, 7.237671
1229.604, 14.69165
1230.086, 13.65997
1230.568, 12.27740
1231.051, 22.69568
1231.533, 11.36072
1232.015, 21.60443
1232.497, 23.23529
1232.979, 28.82574
1233.461, 25.86395
1233.943, 25.50549
1234.425, 33.68640
1234.908, 36.81598
1235.390, 29.18921
1235.872, 27.04559
1236.354, 23.83722
1236.836, 20.72522
1237.318, 18.95654
1237.800, 18.63312
1238.282, 20.60400
1238.764, 25.12189
1239.247, 28.41064
1239.729, 30.66125
1240.211, 29.68988
1240.693, 23.50879
1241.175, 16.72150
1241.657, 18.99261
1242.139, 25.05408
1242.621, 11.48169
1243.104, 21.29266
1243.586, 26.76202
1244.068, 28.00500
1244.550, 12.99896
1245.032, 19.17828
1245.514, 16.87421
1245.996, 14.17926
1246.478, 23.32812
1246.960, 10.73248
1247.443, 19.70392
1247.925, 20.07404
1248.407, 24.38654
1248.889, 20.16364
1249.371, 18.57800
1249.853, 25.50287
1250.335, 26.41077
1250.817, 26.51080
1251.299, 26.40784
1251.782, 24.79419
1252.264, 27.74988
1252.746, 37.04614
1253.228, 42.96893
1253.710, 33.13904
1254.192, 19.82928
1254.674, 17.92627
1255.156, 23.72778
1255.639, 24.92633
1256.121, 17.33124
1256.603, 19.09015
1257.085, 33.49969
1257.567, 45.75372
1258.049, 37.57343
1258.531, 23.90125
1259.013, 18.30890
1259.495, 20.05408
1259.978, 21.17139
1260.460, 20.76337
1260.942, 25.61700
1261.424, 37.84967
1261.906, 47.07318
1262.388, 38.61359
1262.870, 26.98273
1263.352, 24.65839
1263.834, 29.40082
1264.317, 27.77258
1264.799, 19.15424
1265.281, 16.05682
1265.763, 21.73737
1266.245, 30.07684
1266.727, 39.80878
1267.209, 46.76453
1267.691, 45.42920
1268.174, 38.17932
1268.656, 37.76605
1269.138, 43.56952
1269.620, 43.94489
1270.102, 34.17151
1270.584, 23.34808
1271.066, 17.01740
1271.548, 12.91077
1272.031, 7.775757
1272.513, 3.076782
1272.995, 12.24896
1273.477, 32.62061
1273.959, 47.80292
1274.441, 51.68225
1274.923, 49.59894
1275.405, 40.48187
1275.887, 29.46460
1276.370, 17.75073
1276.852, 6.971313
1277.334, 6.464417
1277.816, 15.03461
1278.298, 28.05902
1278.780, 51.38086
1279.262, 64.67377
1279.744, 59.03064
1280.226, 47.14917
1280.709, 34.78473
1281.191, 23.77789
1281.673, 21.67804
1282.155, 27.11035
1282.637, 35.18433
1283.119, 57.67615
1283.601, 58.79718
1284.083, 24.86475
1284.566, 8.116760
1285.048, 4.739929
1285.530, 19.16522
1286.012, 33.45813
1286.494, 38.63708
1286.976, 40.78015
1287.458, 34.56726
1287.940, 39.15692
1288.422, 61.40509
1288.905, 78.57635
1289.387, 60.51337
1289.869, 31.28601
1290.351, 25.27283
1290.833, 37.17224
1291.315, 31.38110
1291.797, 6.643188
1292.279, 5.553284
1292.761, 28.80377
1293.244, 49.48987
1293.726, 35.15979
1294.208, 11.71729
1294.690, 6.280273
1295.172, 13.18689
1295.654, 14.18274
1296.136, 5.203796
1296.618, 4.2296998E-02
1297.101, 1.644897
1297.583, 0.0000000E+00
##END=



