##NAMES=Roxbyite
##RRUFFID=R070676
##IDEAL CHEMISTRY=Cu_1.78_S
##LOCALITY=Olympic Dam mine, Roxby Downs, South Australia, Australia
##OWNER=RRUFF
##SOURCE=Michael Scott
##DESCRIPTION=Microscopic black-blue metallic massive associated with hematite, co-type sample
##STATUS=The identification of this mineral is not yet confirmed.
##URL=rruff.info/R070676
126.0631, 0.0000000E+00
126.5452, 9.387207
127.0273, 18.48242
127.5094, 31.99829
127.9915, 25.20532
128.4736, 10.70288
128.9558, 2.338379
129.4379, 1.176514
129.9200, 48.54492
130.4021, 87.89600
130.8842, 104.9739
131.3663, 103.3384
131.8485, 92.52856
132.3306, 81.48975
132.8127, 67.38672
133.2948, 67.58960
133.7769, 101.8804
134.2590, 133.6045
134.7412, 134.6484
135.2233, 102.0356
135.7054, 59.32837
136.1875, 39.67358
136.6696, 52.01074
137.1517, 64.71851
137.6339, 79.97266
138.1160, 94.52417
138.5981, 103.7190
139.0802, 106.4851
139.5623, 104.5613
140.0444, 101.2102
140.5266, 92.92798
141.0087, 90.82056
141.4908, 105.0461
141.9729, 129.1111
142.4550, 142.7480
142.9371, 133.6658
143.4193, 112.1760
143.9014, 94.77783
144.3835, 82.81567
144.8656, 74.78296
145.3477, 66.27075
145.8299, 57.98560
146.3120, 55.95972
146.7941, 68.33105
147.2762, 85.78027
147.7583, 96.78687
148.2404, 94.49829
148.7226, 84.34424
149.2047, 78.46167
149.6868, 78.50732
150.1689, 84.57739
150.6510, 94.71924
151.1331, 110.9734
151.6153, 127.3538
152.0974, 128.3823
152.5795, 121.4900
153.0616, 124.4734
153.5437, 144.7568
154.0258, 156.5979
154.5080, 149.5955
154.9901, 132.7419
155.4722, 115.0950
155.9543, 95.88525
156.4364, 74.23071
156.9185, 64.44312
157.4007, 71.46875
157.8828, 84.85156
158.3649, 103.0691
158.8470, 123.6814
159.3291, 140.1182
159.8112, 141.5894
160.2934, 109.3811
160.7755, 91.11304
161.2576, 96.89502
161.7397, 110.8652
162.2218, 116.7483
162.7039, 108.3821
163.1861, 93.11841
163.6682, 89.56128
164.1503, 116.1702
164.6324, 130.1282
165.1145, 112.2161
165.5966, 77.77344
166.0788, 54.79492
166.5609, 58.59424
167.0430, 82.50708
167.5251, 98.53394
168.0072, 103.8711
168.4893, 103.9199
168.9715, 100.4497
169.4536, 93.80225
169.9357, 85.21265
170.4178, 73.64771
170.8999, 61.16064
171.3820, 53.91748
171.8642, 60.14600
172.3463, 66.91211
172.8284, 57.98022
173.3105, 30.72021
173.7926, 7.970459
174.2747, 16.68726
174.7569, 41.38330
175.2390, 53.56372
175.7211, 31.43384
176.2032, 6.464111
176.6853, 20.89307
177.1674, 0.9875490
177.6496, 20.82983
178.1317, 24.16626
178.6138, 13.94141
179.0959, 0.6794430
179.5780, 12.33765
180.0602, 24.47241
180.5423, 30.83057
181.0244, 28.60767
181.5065, 23.02271
181.9886, 13.75806
182.4707, 2.771729
182.9529, 4.142090
183.4350, 1.014893
183.9171, 18.00122
184.3992, 27.22998
184.8813, 20.27466
185.3634, 10.87622
185.8456, 3.619629
186.3277, 0.7849120
186.8098, 3.307129
187.2919, 5.805664
187.7740, 8.463135
188.2561, 10.44116
188.7383, 10.98999
189.2204, 11.45581
189.7025, 12.18872
190.1846, 13.43970
190.6667, 15.89648
191.1488, 21.10498
191.6310, 32.92432
192.1131, 40.73096
192.5952, 42.23779
193.0773, 41.24341
193.5594, 40.35400
194.0415, 40.55273
194.5237, 41.98511
195.0058, 44.73804
195.4879, 48.36523
195.9700, 54.15723
196.4521, 64.95874
196.9342, 77.06421
197.4164, 86.66357
197.8985, 92.11963
198.3806, 93.36035
198.8627, 89.69849
199.3448, 72.56445
199.8270, 60.73242
200.3091, 62.05029
200.7912, 70.71753
201.2733, 74.53394
201.7554, 65.17676
202.2375, 48.17944
202.7197, 51.26953
203.2018, 96.62476
203.6839, 134.5879
204.1660, 141.4260
204.6481, 124.6873
205.1302, 108.0161
205.6124, 105.5693
206.0945, 114.5266
206.5766, 117.4099
207.0587, 114.0801
207.5408, 105.5315
208.0229, 84.08911
208.5051, 52.77490
208.9872, 35.44019
209.4693, 53.67676
209.9514, 100.4685
210.4335, 136.7578
210.9156, 161.6519
211.3978, 175.3550
211.8799, 171.9299
212.3620, 150.3518
212.8441, 133.1741
213.3262, 141.7786
213.8083, 167.2573
214.2905, 185.2605
214.7726, 191.5293
215.2547, 188.3091
215.7368, 173.6160
216.2189, 143.4968
216.7010, 118.8914
217.1832, 123.9023
217.6653, 145.6372
218.1474, 160.7068
218.6295, 158.0403
219.1116, 144.6882
219.5937, 131.8262
220.0759, 117.1377
220.5580, 109.1670
221.0401, 118.0320
221.5222, 137.3401
222.0043, 154.3708
222.4864, 162.6311
222.9686, 163.8289
223.4507, 163.3848
223.9328, 161.2190
224.4149, 157.6089
224.8970, 149.6562
225.3791, 140.1702
225.8613, 136.0278
226.3434, 145.4788
226.8255, 165.4109
227.3076, 177.4573
227.7897, 177.9670
228.2719, 174.3945
228.7540, 170.5176
229.2361, 166.0574
229.7182, 160.0005
230.2003, 148.1008
230.6824, 131.1409
231.1646, 125.8962
231.6467, 143.5632
232.1288, 162.2148
232.6109, 175.5037
233.0930, 182.0627
233.5751, 179.9153
234.0573, 161.0518
234.5394, 124.7085
235.0215, 106.8181
235.5036, 123.6470
235.9857, 143.8733
236.4678, 159.6069
236.9500, 168.8489
237.4321, 169.8184
237.9142, 157.4905
238.3963, 129.4907
238.8784, 115.2812
239.3605, 125.6597
239.8427, 142.3286
240.3248, 164.6680
240.8069, 188.7480
241.2890, 205.7368
241.7711, 205.0217
242.2532, 183.4194
242.7354, 167.5068
243.2175, 161.3767
243.6996, 157.4788
244.1817, 152.0366
244.6638, 145.3457
245.1459, 140.6140
245.6281, 141.3657
246.1102, 148.5466
246.5923, 156.5171
247.0744, 173.5051
247.5565, 184.2908
248.0386, 177.5388
248.5208, 155.9072
249.0029, 132.4983
249.4850, 121.6016
249.9671, 127.1306
250.4492, 128.4390
250.9313, 124.1519
251.4135, 117.4744
251.8956, 106.4006
252.3777, 93.07886
252.8598, 84.10986
253.3419, 87.65601
253.8240, 107.9905
254.3062, 123.0525
254.7883, 135.2244
255.2704, 141.3394
255.7525, 134.0732
256.2346, 116.6694
256.7167, 102.9187
257.1989, 109.6633
257.6810, 147.2676
258.1631, 161.3516
258.6452, 137.2573
259.1273, 107.4429
259.6094, 83.92139
260.0916, 69.74561
260.5737, 66.70435
261.0558, 79.05566
261.5379, 114.1411
262.0200, 130.7271
262.5021, 116.4744
262.9843, 98.75757
263.4664, 91.29688
263.9485, 94.46362
264.4306, 101.7095
264.9127, 106.7195
265.3948, 109.4238
265.8770, 110.0129
266.3591, 107.5640
266.8412, 103.6067
267.3233, 98.96997
267.8054, 94.27515
268.2875, 90.46484
268.7697, 88.85547
269.2518, 90.34204
269.7339, 88.41479
270.2160, 78.58179
270.6981, 69.96729
271.1802, 68.07788
271.6624, 72.08179
272.1445, 77.13745
272.6266, 79.07715
273.1087, 77.61768
273.5908, 74.91309
274.0729, 68.27344
274.5551, 63.03662
275.0372, 62.24365
275.5193, 65.32495
276.0014, 69.42456
276.4835, 71.77026
276.9656, 71.94116
277.4478, 77.43872
277.9299, 99.51367
278.4120, 115.1733
278.8941, 108.0615
279.3762, 84.64453
279.8583, 65.80176
280.3405, 68.63525
280.8226, 93.71631
281.3047, 107.7744
281.7868, 101.9172
282.2689, 96.28467
282.7510, 100.7869
283.2332, 111.9521
283.7153, 119.7180
284.1974, 116.4868
284.6795, 102.9924
285.1616, 94.61621
285.6437, 98.45898
286.1259, 99.01147
286.6080, 85.40259
287.0901, 64.71851
287.5722, 53.19287
288.0543, 62.09253
288.5364, 88.08472
289.0186, 103.2700
289.5007, 97.30493
289.9828, 92.90576
290.4649, 99.95630
290.9471, 111.7429
291.4292, 115.2358
291.9113, 102.5542
292.3934, 77.88110
292.8755, 61.67651
293.3576, 61.86108
293.8398, 61.34302
294.3219, 55.34229
294.8040, 47.53271
295.2861, 43.20386
295.7682, 44.91284
296.2503, 51.56763
296.7325, 59.58838
297.2146, 78.53638
297.6967, 87.26782
298.1788, 74.55908
298.6609, 54.18823
299.1430, 44.42383
299.6252, 52.77930
300.1073, 69.30396
300.5894, 70.85938
301.0715, 33.11060
301.5536, 13.71753
302.0357, 24.82349
302.5179, 46.51855
303.0000, 59.18945
303.4821, 56.39429
303.9642, 45.42920
304.4463, 39.70605
304.9284, 45.28613
305.4106, 46.44385
305.8927, 39.46875
306.3748, 30.94214
306.8569, 26.02344
307.3390, 26.48730
307.8211, 30.36597
308.3033, 36.90527
308.7854, 52.50317
309.2675, 59.54907
309.7496, 54.52075
310.2317, 45.24414
310.7138, 35.09448
311.1960, 25.29736
311.6781, 16.63184
312.1602, 9.947266
312.6423, 5.444336
313.1244, 2.502197
313.6065, 1.321533
314.0887, 1.739990
314.5708, 3.682373
315.0529, 14.62915
315.5350, 29.92114
316.0171, 50.31714
316.4992, 77.25684
316.9814, 91.10400
317.4635, 83.06445
317.9456, 70.56323
318.4277, 58.15552
318.9098, 46.62402
319.3919, 33.58252
319.8741, 15.99634
320.3562, 4.186768
320.8383, 3.825928
321.3204, 55.15088
321.8025, 93.21436
322.2846, 76.94678
322.7668, 30.77319
323.2489, 6.842529
323.7310, 12.49585
324.2131, 6.253662
324.6952, 18.93530
325.1773, 20.27344
325.6595, 23.46533
326.1416, 32.36768
326.6237, 44.17065
327.1058, 57.00488
327.5879, 70.50098
328.0700, 81.58472
328.5522, 82.86206
329.0343, 69.62451
329.5164, 56.49854
329.9985, 42.20703
330.4806, 31.39453
330.9627, 30.78833
331.4449, 42.42212
331.9270, 56.37476
332.4091, 56.12744
332.8912, 36.46069
333.3733, 25.03589
333.8554, 37.48779
334.3376, 52.72095
334.8197, 56.90063
335.3018, 48.60938
335.7839, 38.30176
336.2660, 37.05786
336.7481, 45.18652
337.2303, 51.55786
337.7124, 52.67798
338.1945, 54.06250
338.6766, 62.59131
339.1587, 76.19189
339.6408, 83.26733
340.1230, 71.49585
340.6051, 44.73633
341.0872, 23.30981
341.5693, 7.480957
342.0514, 1.433350
342.5335, 2.636230
343.0157, 2.761230
343.4978, 12.25195
343.9799, 30.48999
344.4620, 50.95972
344.9441, 58.44849
345.4262, 49.94556
345.9084, 38.31226
346.3905, 29.20898
346.8726, 22.61377
347.3547, 19.44678
347.8368, 21.00806
348.3189, 25.06958
348.8011, 30.31763
349.2832, 36.83643
349.7653, 41.15845
350.2474, 40.07031
350.7295, 36.30078
351.2116, 35.46436
351.6938, 39.76318
352.1759, 43.70874
352.6580, 42.98120
353.1401, 38.57739
353.6222, 35.08496
354.1043, 34.95557
354.5865, 35.51294
355.0686, 30.69409
355.5507, 17.74365
356.0328, 9.386230
356.5149, 18.82788
356.9970, 34.09058
357.4792, 29.47144
357.9613, 4.839111
358.4434, 43.12598
358.9255, 47.98804
359.4076, 11.82617
359.8897, 14.47485
360.3719, 18.07544
360.8540, 13.87476
361.3361, 17.24731
361.8182, 29.54785
362.3003, 40.80615
362.7824, 42.00000
363.2646, 32.01733
363.7467, 18.56860
364.2288, 10.64893
364.7109, 32.05103
365.1930, 26.70972
365.6751, 1.272217
366.1573, 22.65479
366.6394, 30.20337
367.1215, 23.25830
367.6036, 19.04517
368.0857, 17.58667
368.5678, 18.58594
369.0500, 24.08374
369.5321, 31.53003
370.0142, 38.05762
370.4963, 42.39624
370.9784, 43.82935
371.4605, 40.06665
371.9427, 24.96997
372.4248, 13.84644
372.9069, 7.241211
373.3890, 4.392578
373.8712, 7.735840
374.3533, 16.65063
374.8354, 24.05249
375.3175, 17.56055
375.7996, 11.99854
376.2817, 26.73315
376.7639, 16.41309
377.2460, 0.4697270
377.7281, 15.50952
378.2102, 8.667725
378.6923, 35.19287
379.1744, 50.33398
379.6566, 54.91895
380.1387, 17.56567
380.6208, 34.33447
381.1029, 29.16309
381.5850, 22.90088
382.0671, 47.19141
382.5493, 15.87402
383.0314, 39.68286
383.5135, 41.48218
383.9956, 53.37866
384.4777, 43.45117
384.9598, 40.28613
385.4420, 59.02661
385.9241, 66.50415
386.4062, 54.76294
386.8883, 67.30664
387.3704, 35.19043
387.8525, 42.21851
388.3347, 66.13330
388.8168, 54.74146
389.2989, 67.75879
389.7810, 72.78174
390.2631, 35.91772
390.7452, 55.52686
391.2274, 55.65479
391.7095, 50.27344
392.1916, 41.67969
392.6737, 33.62500
393.1558, 26.37183
393.6379, 21.31177
394.1201, 21.07153
394.6022, 25.21045
395.0843, 27.49805
395.5664, 24.43872
396.0485, 21.16260
396.5306, 22.23462
397.0128, 27.43213
397.4949, 33.58496
397.9770, 38.63428
398.4591, 42.94434
398.9412, 48.93408
399.4233, 62.33838
399.9055, 70.62622
400.3876, 65.81274
400.8697, 54.23608
401.3518, 46.02271
401.8339, 45.37988
402.3160, 50.00439
402.7982, 55.31006
403.2803, 65.73730
403.7624, 69.69263
404.2445, 60.57788
404.7266, 49.59448
405.2087, 46.27271
405.6909, 51.52612
406.1730, 59.20996
406.6551, 62.38159
407.1372, 60.20898
407.6193, 59.12939
408.1014, 59.31592
408.5836, 60.43848
409.0657, 61.92627
409.5478, 64.32349
410.0299, 68.90820
410.5120, 76.91211
410.9941, 87.25342
411.4763, 96.78882
411.9584, 109.6331
412.4405, 113.2075
412.9226, 98.67456
413.4047, 76.69727
413.8868, 56.73145
414.3690, 41.25342
414.8511, 31.42578
415.3332, 30.24683
415.8153, 37.60083
416.2974, 42.63892
416.7795, 47.85693
417.2617, 52.28369
417.7438, 48.44165
418.2259, 36.19727
418.7080, 29.96826
419.1901, 46.50000
419.6722, 73.14160
420.1544, 78.95776
420.6365, 56.75757
421.1186, 33.70337
421.6007, 36.38574
422.0828, 56.73071
422.5649, 63.21069
423.0471, 43.45972
423.5292, 22.13086
424.0113, 14.13110
424.4934, 17.46045
424.9755, 24.00220
425.4576, 30.64771
425.9398, 36.75684
426.4219, 39.99585
426.9040, 36.45776
427.3861, 36.63013
427.8682, 49.83789
428.3503, 64.25098
428.8325, 62.48071
429.3146, 41.54614
429.7967, 17.69580
430.2788, 12.30103
430.7609, 31.10205
431.2430, 48.58984
431.7252, 73.06665
432.2073, 89.17017
432.6894, 85.42041
433.1715, 66.60522
433.6536, 44.39160
434.1357, 27.41406
434.6179, 16.57422
435.1000, 8.162842
435.5821, 1.018311
436.0642, 4.123779
436.5463, 5.641357
437.0284, 18.98999
437.5106, 25.87354
437.9927, 23.72412
438.4748, 17.41626
438.9569, 15.59912
439.4390, 18.54297
439.9211, 24.16724
440.4033, 36.91309
440.8854, 46.92651
441.3675, 46.12964
441.8496, 35.47559
442.3317, 22.68408
442.8138, 5.481445
443.2960, 9.604004
443.7781, 6.109619
444.2602, 19.67578
444.7423, 43.64502
445.2244, 50.59692
445.7065, 42.84717
446.1887, 30.18726
446.6708, 3.944824
447.1529, 17.16333
447.6350, 19.26514
448.1171, 8.223145
448.5992, 2.365967
449.0814, 7.429932
449.5635, 8.904785
450.0456, 10.08936
450.5277, 11.15918
451.0098, 11.51880
451.4919, 9.078369
451.9741, 7.391602
452.4562, 10.33252
452.9383, 17.41626
453.4204, 24.61328
453.9025, 28.66553
454.3847, 29.56958
454.8668, 27.82739
455.3489, 16.73193
455.8310, 10.27246
456.3131, 13.63013
456.7953, 22.63867
457.2774, 32.85449
457.7595, 42.72583
458.2416, 49.50146
458.7237, 45.71265
459.2058, 26.50146
459.6880, 16.20996
460.1701, 28.59668
460.6522, 43.94629
461.1343, 51.25732
461.6164, 49.97021
462.0985, 44.28003
462.5807, 31.98071
463.0628, 17.54639
463.5449, 15.04541
464.0270, 27.74438
464.5091, 42.39233
464.9912, 52.79614
465.4734, 58.48438
465.9555, 57.96631
466.4376, 45.05127
466.9197, 32.97705
467.4018, 33.21338
467.8839, 41.23999
468.3661, 43.34644
468.8482, 33.65405
469.3303, 20.04468
469.8124, 16.29956
470.2945, 28.12866
470.7766, 35.23706
471.2588, 34.93091
471.7409, 31.09668
472.2230, 24.40454
472.7051, 16.33032
473.1872, 10.79077
473.6693, 11.04858
474.1515, 16.71045
474.6336, 23.11597
475.1157, 32.86304
475.5978, 39.98730
476.0799, 43.52881
476.5620, 43.94775
477.0442, 41.80737
477.5263, 37.19971
478.0084, 30.27637
478.4905, 15.96240
478.9726, 8.553711
479.4547, 9.994873
479.9369, 38.01807
480.4190, 85.75464
480.9011, 99.94482
481.3832, 86.23047
481.8653, 68.46436
482.3474, 53.71948
482.8296, 43.39160
483.3117, 41.21411
483.7938, 47.38525
484.2759, 54.22656
484.7580, 58.50732
485.2401, 60.48657
485.7223, 61.71216
486.2044, 65.23389
486.6865, 62.11182
487.1686, 41.07715
487.6507, 14.60962
488.1328, 0.4304200
488.6150, 2.430664
489.0971, 13.63037
489.5792, 27.99976
490.0613, 46.96558
490.5434, 58.10645
491.0255, 57.15186
491.5077, 54.20923
491.9898, 52.74146
492.4719, 51.96118
492.9540, 50.69019
493.4361, 48.26123
493.9182, 43.15454
494.4004, 29.71753
494.8825, 0.6857910
495.3646, 16.42114
495.8467, 1.375244
496.3288, 20.94653
496.8109, 40.77490
497.2931, 56.00049
497.7752, 64.36206
498.2573, 57.04126
498.7394, 40.75879
499.2215, 33.72266
499.7036, 38.09912
500.1858, 43.09839
500.6679, 42.80493
501.1500, 37.96704
501.6321, 32.83984
502.1142, 25.28491
502.5963, 23.01514
503.0785, 31.07617
503.5606, 45.06055
504.0427, 54.07422
504.5248, 55.66748
505.0069, 53.60620
505.4890, 58.91748
505.9712, 77.42090
506.4533, 79.91992
506.9354, 51.42432
507.4175, 23.62500
507.8996, 13.75439
508.3817, 17.87769
508.8639, 27.70068
509.3460, 39.41943
509.8281, 50.04590
510.3102, 50.29663
510.7923, 32.58496
511.2744, 24.36646
511.7566, 39.44946
512.2387, 57.38135
512.7208, 66.28809
513.2029, 66.46362
513.6851, 66.37256
514.1672, 74.79517
514.6493, 86.96533
515.1314, 88.77173
515.6135, 78.13306
516.0956, 66.81812
516.5778, 59.16235
517.0599, 56.12231
517.5420, 59.87427
518.0241, 77.19312
518.5062, 88.75293
518.9883, 79.61792
519.4705, 61.38452
519.9526, 53.39136
520.4347, 59.83081
520.9168, 71.06812
521.3989, 77.87061
521.8810, 80.74365
522.3632, 74.95728
522.8453, 49.13232
523.3274, 28.38037
523.8095, 20.54932
524.2916, 23.59863
524.7737, 37.09302
525.2559, 61.10767
525.7380, 84.81152
526.2201, 85.55737
526.7022, 56.35864
527.1843, 37.97510
527.6664, 43.44238
528.1486, 53.03320
528.6307, 55.38428
529.1128, 51.66797
529.5949, 48.04346
530.0770, 46.84692
530.5591, 47.74463
531.0413, 50.48755
531.5234, 55.07080
532.0055, 61.88135
532.4876, 74.18726
532.9697, 85.68335
533.4518, 80.62964
533.9340, 52.82056
534.4161, 30.60522
534.8982, 19.05371
535.3803, 15.59399
535.8624, 21.60425
536.3445, 34.74683
536.8267, 44.77271
537.3088, 44.33716
537.7909, 35.77148
538.2730, 31.23706
538.7551, 34.10034
539.2372, 36.47876
539.7194, 37.29517
540.2015, 37.06226
540.6836, 36.42627
541.1657, 35.46069
541.6478, 33.42432
542.1299, 26.29785
542.6121, 15.96387
543.0942, 18.49292
543.5763, 40.45679
544.0584, 61.24194
544.5405, 67.40381
545.0226, 63.08569
545.5048, 55.47827
545.9869, 43.44995
546.4690, 31.35840
546.9511, 17.99731
547.4332, 6.832520
547.9153, 7.446533
548.3975, 22.62183
548.8796, 41.68359
549.3617, 52.00659
549.8438, 51.58643
550.3259, 54.48438
550.8080, 70.04907
551.2902, 78.42212
551.7723, 65.48145
552.2544, 42.25537
552.7365, 27.46338
553.2186, 28.47681
553.7007, 35.92529
554.1829, 27.46606
554.6650, 1.160889
555.1471, 15.25183
555.6292, 4.326782
556.1113, 14.89722
556.5934, 35.78174
557.0756, 56.00903
557.5577, 68.56396
558.0398, 69.61670
558.5219, 63.00439
559.0040, 48.17188
559.4861, 27.60010
559.9683, 19.89954
560.4504, 17.48486
560.9325, 38.24316
561.4146, 43.26782
561.8967, 14.56189
562.3788, 8.768311
562.8610, 0.4226070
563.3431, 10.93982
563.8252, 23.82764
564.3073, 24.85010
564.7894, 9.188965
565.2715, 10.20679
565.7537, 26.34204
566.2358, 9.750000
566.7179, 3.267334
567.2000, 29.52466
567.6821, 37.65601
568.1642, 17.30029
568.6464, 34.40137
569.1285, 15.41895
569.6106, 6.520264
570.0927, 27.71448
570.5748, 8.998901
571.0569, 26.69336
571.5391, 16.14368
572.0212, 31.70288
572.5033, 39.32300
572.9854, 41.34973
573.4675, 42.03516
573.9496, 40.74536
574.4318, 39.93298
574.9139, 43.64563
575.3960, 44.88818
575.8781, 33.98352
576.3602, 15.17041
576.8423, 3.384277
577.3245, 9.169800
577.8066, 26.51196
578.2887, 35.58411
578.7708, 32.19592
579.2529, 30.91467
579.7350, 36.61182
580.2172, 43.55518
580.6993, 48.77393
581.1814, 51.92834
581.6635, 53.07605
582.1456, 49.36707
582.6277, 45.01465
583.1099, 47.20056
583.5920, 55.72729
584.0741, 66.16370
584.5562, 78.00708
585.0383, 88.43127
585.5204, 90.49451
586.0026, 80.44885
586.4847, 71.62659
586.9668, 63.82727
587.4489, 58.69958
587.9310, 60.06262
588.4131, 65.51550
588.8953, 67.83447
589.3774, 62.16309
589.8595, 50.93774
590.3416, 40.18408
590.8237, 27.47534
591.3058, 22.38013
591.7880, 31.30603
592.2701, 45.12341
592.7522, 61.75562
593.2343, 79.40857
593.7164, 88.70850
594.1985, 78.03101
594.6807, 61.08923
595.1628, 55.19641
595.6449, 59.48865
596.1270, 67.42737
596.6091, 77.73499
597.0912, 86.46521
597.5734, 85.66833
598.0555, 70.39612
598.5376, 56.13770
599.0197, 35.50305
599.5018, 22.82312
599.9839, 31.77405
600.4661, 54.90247
600.9482, 75.29260
601.4303, 84.42700
601.9124, 86.44678
602.3945, 89.14319
602.8766, 94.68958
603.3588, 96.66711
603.8409, 91.37891
604.3230, 85.16602
604.8051, 85.05957
605.2872, 89.02271
605.7693, 87.54517
606.2515, 69.93250
606.7336, 52.64172
607.2157, 52.60535
607.6978, 63.87561
608.1799, 68.86536
608.6620, 61.20227
609.1442, 48.05566
609.6263, 38.55261
610.1084, 30.79980
610.5905, 4.443848
611.0726, 43.44189
611.5547, 65.81580
612.0369, 72.45605
612.5190, 16.21265
613.0011, 40.37634
613.4832, 32.64539
613.9653, 23.73633
614.4474, 60.11157
614.9296, 13.04028
615.4117, 48.69836
615.8938, 51.33276
616.3759, 69.08252
616.8580, 54.10376
617.3401, 49.23425
617.8223, 76.02637
618.3044, 85.76868
618.7865, 67.02429
619.2686, 85.73645
619.7507, 36.78491
620.2328, 47.30078
620.7150, 83.14368
621.1971, 65.52344
621.6792, 84.83545
622.1613, 88.89600
622.6434, 31.36548
623.1255, 84.00244
623.6077, 53.17224
624.0898, 65.61035
624.5719, 82.33887
625.0540, 92.98474
625.5361, 95.86804
626.0182, 91.89246
626.5004, 75.65674
626.9825, 54.53723
627.4646, 45.09875
627.9467, 47.23193
628.4288, 49.69153
628.9109, 46.12646
629.3931, 39.65894
629.8752, 38.55591
630.3573, 50.68799
630.8394, 54.94971
631.3215, 46.23779
631.8036, 34.09106
632.2858, 20.57483
632.7679, 8.857178
633.2500, 5.750610
633.7321, 16.55457
634.2142, 33.73682
634.6964, 42.52820
635.1785, 42.49316
635.6606, 43.07947
636.1427, 47.21008
636.6248, 50.97522
637.1069, 48.93628
637.5891, 42.57385
638.0712, 39.98315
638.5533, 48.14478
639.0354, 55.12817
639.5175, 52.76855
639.9996, 44.97998
640.4818, 38.77661
640.9639, 33.91174
641.4460, 32.25366
641.9281, 35.19153
642.4102, 43.22998
642.8923, 50.89600
643.3745, 62.04419
643.8566, 67.58508
644.3387, 61.45642
644.8208, 50.89661
645.3029, 41.46936
645.7850, 34.51709
646.2672, 31.93384
646.7493, 40.40063
647.2314, 51.79358
647.7135, 49.54260
648.1956, 33.85767
648.6777, 22.03479
649.1599, 25.19519
649.6420, 37.07446
650.1241, 39.76880
650.6062, 24.33215
651.0883, 14.33240
651.5704, 11.92871
652.0526, 12.82715
652.5347, 15.95654
653.0168, 20.20007
653.4989, 24.00024
653.9810, 26.90259
654.4631, 28.00671
654.9453, 25.51111
655.4274, 19.62720
655.9095, 12.52344
656.3916, 3.723511
656.8737, 3.780518
657.3558, 6.179199
657.8380, 3.811035
658.3201, 5.135498
658.8022, 22.03625
659.2843, 28.62476
659.7665, 3.636841
660.2486, 30.04321
660.7307, 42.67493
661.2128, 30.25793
661.6949, 13.23865
662.1771, 11.56006
662.6592, 22.03235
663.1413, 24.33386
663.6234, 15.21130
664.1055, 8.377441
664.5876, 10.27966
665.0698, 15.48877
665.5519, 17.29163
666.0340, 15.36438
666.5161, 14.28894
666.9982, 13.23926
667.4803, 15.42358
667.9625, 27.90454
668.4446, 45.85071
668.9267, 55.70618
669.4088, 51.60962
669.8909, 40.66895
670.3730, 33.70227
670.8552, 30.88074
671.3373, 31.76379
671.8194, 41.80847
672.3015, 48.39111
672.7836, 45.03064
673.2657, 35.80847
673.7479, 24.79639
674.2300, 10.70728
674.7121, 4.437622
675.1942, 21.31970
675.6763, 46.90210
676.1584, 56.58435
676.6406, 49.20117
677.1227, 39.74878
677.6048, 37.95667
678.0869, 40.82703
678.5690, 38.52527
679.0511, 27.90967
679.5333, 17.83997
680.0154, 0.6776120
680.4975, 8.503540
680.9796, 7.172729
681.4617, 37.47449
681.9438, 55.27771
682.4260, 45.22791
682.9081, 26.22583
683.3902, 15.97839
683.8723, 13.39990
684.3544, 16.61621
684.8365, 25.80566
685.3187, 33.00098
685.8008, 29.63892
686.2829, 17.31763
686.7650, 15.52942
687.2471, 39.16638
687.7292, 53.97681
688.2114, 50.87109
688.6935, 41.69226
689.1756, 34.54980
689.6577, 30.53247
690.1398, 29.43152
690.6219, 33.07849
691.1041, 37.48303
691.5862, 32.23413
692.0683, 18.89893
692.5504, 18.24731
693.0325, 39.97302
693.5146, 64.11755
693.9968, 67.91406
694.4789, 49.47681
694.9610, 31.59949
695.4431, 8.565430
695.9252, 7.047852
696.4073, 8.614746
696.8895, 2.512695
697.3716, 5.932251
697.8537, 14.79907
698.3358, 24.14282
698.8179, 46.45642
699.3000, 53.03650
699.7822, 3.238892
700.2643, 21.64734
700.7464, 14.00500
701.2285, 5.029175
701.7106, 42.25586
702.1927, 3.921631
702.6749, 31.66296
703.1570, 34.22424
703.6391, 51.89868
704.1212, 36.84644
704.6033, 31.90637
705.0854, 59.71484
705.5676, 69.39844
706.0497, 50.57935
706.5318, 69.21790
707.0139, 20.93152
707.4960, 31.37073
707.9781, 67.14734
708.4603, 49.97217
708.9424, 69.21606
709.4245, 74.58191
709.9066, 16.93018
710.3887, 39.35352
710.8708, 29.21851
711.3530, 23.63147
711.8351, 27.07019
712.3172, 31.52612
712.7993, 31.42749
713.2814, 29.74890
713.7635, 33.33691
714.2457, 44.35413
714.7278, 54.29297
715.2099, 51.13977
715.6920, 38.35742
716.1741, 34.64795
716.6563, 41.60242
717.1384, 45.15991
717.6205, 37.69580
718.1026, 25.02747
718.5847, 22.56104
719.0668, 35.47009
719.5490, 41.55896
720.0311, 34.04126
720.5132, 24.21985
720.9953, 14.51440
721.4774, 8.147583
721.9595, 12.73730
722.4417, 31.12561
722.9238, 48.44556
723.4059, 43.05518
723.8880, 20.15820
724.3701, 7.945923
724.8522, 8.831299
725.3344, 13.74512
725.8165, 19.51965
726.2986, 24.96265
726.7807, 27.03418
727.2628, 23.77332
727.7449, 22.34717
728.2271, 24.66785
728.7092, 27.36304
729.1913, 29.94885
729.6734, 31.20935
730.1555, 27.12830
730.6376, 16.05591
731.1198, 8.501099
731.6019, 22.55591
732.0840, 50.48901
732.5661, 59.32458
733.0482, 45.59155
733.5303, 29.92981
734.0125, 21.92749
734.4946, 20.18994
734.9767, 22.53198
735.4588, 34.27844
735.9409, 37.44653
736.4230, 19.16223
736.9052, 5.792358
737.3873, 17.99805
737.8694, 40.99609
738.3515, 46.97766
738.8336, 27.68286
739.3157, 6.185669
739.7979, 7.411987
740.2800, 22.89490
740.7621, 31.70715
741.2442, 32.69531
741.7263, 29.68408
742.2084, 23.88623
742.6906, 16.70679
743.1727, 10.25696
743.6548, 1.790527
744.1369, 2.195557
744.6190, 26.08691
745.1011, 41.99976
745.5833, 28.00513
746.0654, 3.300903
746.5475, 2.389771
747.0296, 19.01685
747.5117, 40.82739
747.9938, 39.41443
748.4760, 27.36475
748.9581, 26.35449
749.4402, 35.54456
749.9223, 43.40833
750.4044, 45.08545
750.8865, 41.61096
751.3687, 34.17310
751.8508, 19.63098
752.3329, 13.09485
752.8150, 24.94189
753.2971, 32.87354
753.7792, 24.42200
754.2614, 11.38147
754.7435, 8.495605
755.2256, 17.89038
755.7077, 24.20789
756.1898, 16.94092
756.6719, 9.051392
757.1541, 21.74133
757.6362, 45.07336
758.1183, 47.69958
758.6004, 18.77319
759.0825, 14.24829
759.5646, 14.92444
760.0468, 15.52917
760.5289, 32.47363
761.0110, 31.46973
761.4931, 26.35168
761.9752, 15.69519
762.4573, 5.232910
762.9395, 4.482910
763.4216, 13.52625
763.9037, 20.75415
764.3858, 24.59155
764.8679, 24.86121
765.3500, 17.53247
765.8322, 8.157593
766.3143, 5.077148
766.7964, 9.872681
767.2785, 18.79639
767.7606, 30.43286
768.2427, 41.29712
768.7249, 39.25317
769.2070, 22.75146
769.6891, 12.18030
770.1712, 14.11060
770.6533, 21.39917
771.1354, 29.10120
771.6176, 36.95569
772.0997, 36.20667
772.5818, 15.48267
773.0639, 1.370850
773.5460, 4.055542
774.0281, 12.91333
774.5103, 19.38977
774.9924, 22.64966
775.4745, 25.66309
775.9566, 31.55615
776.4387, 35.40771
776.9208, 27.02466
777.4030, 10.44727
777.8851, 0.8503420
778.3672, 1.077393
778.8493, 8.387695
779.3314, 22.15649
779.8135, 40.07666
780.2957, 51.61987
780.7778, 57.08215
781.2599, 55.38708
781.7420, 34.11560
782.2241, 17.85632
782.7062, 26.67468
783.1884, 48.88245
783.6705, 56.54675
784.1526, 36.66040
784.6347, 18.31873
785.1168, 22.48254
785.5989, 36.64453
786.0811, 46.54138
786.5632, 50.79846
787.0453, 51.95459
787.5274, 51.39673
788.0095, 47.35999
788.4916, 34.09668
788.9738, 10.25476
789.4559, 2.750610
789.9380, 1.368408
790.4201, 3.591553
790.9022, 9.168457
791.3843, 14.02478
791.8665, 15.38049
792.3486, 12.23181
792.8307, 10.78638
793.3128, 13.64551
793.7949, 16.68091
794.2770, 17.53198
794.7592, 17.17798
795.2413, 16.46887
795.7234, 15.94629
796.2055, 17.74402
796.6876, 28.42798
797.1697, 41.01562
797.6519, 35.46460
798.1340, 13.92712
798.6161, 1.001831
799.0982, 4.888672
799.5803, 15.59717
800.0624, 22.25110
800.5446, 24.85205
801.0267, 30.71045
801.5088, 47.61377
801.9909, 55.53845
802.4730, 46.88977
802.9551, 32.88684
803.4373, 19.28125
803.9194, 7.386719
804.4015, 0.6243900
804.8836, 4.843994
805.3657, 3.082642
805.8478, 11.25452
806.3300, 29.95410
806.8121, 44.40100
807.2942, 51.89648
807.7763, 45.90332
808.2584, 20.02344
808.7405, 10.73083
809.2227, 9.595337
809.7048, 24.76953
810.1869, 41.43787
810.6690, 30.30859
811.1511, 17.78284
811.6332, 20.46191
812.1154, 31.63025
812.5975, 34.09436
813.0796, 22.00183
813.5617, 16.77930
814.0438, 25.72412
814.5259, 35.09229
815.0081, 38.32837
815.4902, 37.67712
815.9723, 37.26819
816.4544, 38.09070
816.9365, 36.63147
817.4186, 32.63672
817.9008, 26.59558
818.3829, 10.67114
818.8650, 9.876099
819.3471, 12.70740
819.8292, 9.289429
820.3113, 40.32068
820.7935, 65.75439
821.2756, 84.58972
821.7577, 83.28271
822.2398, 52.75220
822.7219, 27.79150
823.2040, 18.13342
823.6862, 14.13696
824.1683, 6.202637
824.6505, 3.581421
825.1326, 5.587646
825.6147, 6.802002
826.0968, 19.62915
826.5789, 30.77979
827.0610, 39.29309
827.5432, 44.68872
828.0253, 46.55591
828.5074, 42.70764
828.9895, 31.02087
829.4716, 20.25427
829.9537, 23.49658
830.4359, 35.54663
830.9180, 41.02148
831.4001, 39.03027
831.8822, 36.01331
832.3643, 34.73560
832.8464, 35.69336
833.3286, 40.70850
833.8107, 51.53418
834.2928, 54.88037
834.7749, 45.16687
835.2570, 36.92773
835.7391, 39.21741
836.2213, 42.45020
836.7034, 33.56238
837.1855, 12.68933
837.6676, 3.235229
838.1497, 21.49316
838.6318, 40.24255
839.1140, 45.59985
839.5961, 44.15039
840.0782, 45.05859
840.5603, 48.38611
841.0424, 46.52612
841.5245, 32.95764
842.0067, 15.45142
842.4888, 5.126709
842.9709, 1.341187
843.4530, 1.922729
843.9351, 6.628540
844.4172, 13.79688
844.8994, 20.64868
845.3815, 24.94287
845.8636, 28.47974
846.3457, 32.27063
846.8278, 33.50903
847.3099, 26.51306
847.7921, 25.06091
848.2742, 43.54309
848.7563, 65.73804
849.2384, 67.71716
849.7205, 45.27246
850.2026, 30.57800
850.6848, 37.67871
851.1669, 48.93945
851.6490, 57.10754
852.1311, 61.66772
852.6132, 61.02600
853.0953, 55.99963
853.5775, 51.97131
854.0596, 54.27502
854.5417, 57.91296
855.0238, 54.27722
855.5059, 44.71155
855.9880, 33.46497
856.4702, 21.37585
856.9523, 12.62036
857.4344, 9.985229
857.9165, 13.41321
858.3986, 24.83826
858.8807, 49.87256
859.3629, 62.47815
859.8450, 54.34583
860.3271, 44.71179
860.8092, 43.81494
861.2913, 47.01428
861.7734, 46.76770
862.2556, 41.79150
862.7377, 38.04797
863.2198, 36.46277
863.7019, 37.49194
864.1840, 44.02124
864.6661, 51.36450
865.1483, 53.08179
865.6304, 48.58728
866.1125, 42.78516
866.5946, 36.39771
867.0767, 32.38159
867.5588, 34.89014
868.0410, 41.79797
868.5231, 52.42505
869.0052, 65.35645
869.4873, 69.27026
869.9694, 54.83130
870.4515, 30.58960
870.9337, 16.70508
871.4158, 13.56909
871.8979, 19.23950
872.3800, 37.87402
872.8621, 53.98059
873.3442, 60.32642
873.8264, 58.92334
874.3085, 52.37866
874.7906, 38.27234
875.2727, 27.95129
875.7548, 22.87024
876.2369, 19.77319
876.7191, 16.71411
877.2012, 15.05017
877.6833, 18.38013
878.1654, 24.96436
878.6475, 28.37195
879.1296, 24.49097
879.6118, 17.94727
880.0939, 8.738770
880.5760, 0.8336180
881.0581, 2.443115
881.5402, 12.05664
882.0223, 18.78906
882.5045, 15.69617
882.9866, 10.48633
883.4687, 18.78528
883.9508, 36.63757
884.4329, 41.57434
884.9150, 31.70532
885.3972, 22.53577
885.8793, 21.03772
886.3614, 23.01953
886.8435, 22.83826
887.3256, 19.84570
887.8077, 18.62134
888.2899, 15.96240
888.7720, 20.15625
889.2541, 45.50623
889.7362, 67.67065
890.2183, 59.70825
890.7004, 29.60571
891.1826, 16.58643
891.6647, 38.21277
892.1468, 58.52832
892.6289, 68.91821
893.1110, 73.06262
893.5931, 74.94714
894.0753, 72.68030
894.5574, 58.24353
895.0395, 27.97424
895.5216, 3.236572
896.0037, 4.812256
896.4858, 20.25488
896.9680, 37.87598
897.4501, 53.44812
897.9322, 52.31689
898.4143, 31.91272
898.8964, 15.66895
899.3785, 30.23120
899.8607, 62.48401
900.3428, 64.44995
900.8249, 34.92603
901.3070, 5.453613
901.7891, 22.26562
902.2712, 31.73486
902.7534, 3.913330
903.2355, 43.45068
903.7176, 57.99939
904.1997, 20.80798
904.6818, 2.005981
905.1639, 3.894165
905.6461, 0.6999510
906.1282, 11.47034
906.6103, 23.08093
907.0924, 29.49500
907.5745, 30.27124
908.0566, 28.24585
908.5388, 17.13403
909.0209, 11.75537
909.5030, 27.08020
909.9851, 45.61926
910.4672, 46.93677
910.9493, 33.33655
911.4315, 21.31299
911.9136, 18.45361
912.3957, 20.57068
912.8778, 25.22522
913.3599, 31.42200
913.8420, 39.93359
914.3242, 48.96326
914.8063, 13.63525
915.2884, 50.72388
915.7705, 71.19958
916.2526, 75.94043
916.7347, 17.82483
917.2169, 40.87451
917.6990, 31.39575
918.1811, 20.58240
918.6632, 55.05444
919.1453, 6.077759
919.6274, 39.82959
920.1096, 40.55750
920.5917, 56.40161
921.0738, 39.51746
921.5559, 32.74170
922.0380, 58.81433
922.5201, 66.64844
923.0023, 45.99500
923.4844, 62.79700
923.9665, 12.67554
924.4486, 21.28296
924.9307, 55.23059
925.4128, 36.22595
925.8950, 53.62964
926.3771, 57.16699
926.8592, 25.47791
927.3413, 29.89209
927.8234, 39.58081
928.3055, 40.32825
928.7877, 20.80298
929.2698, 2.879395
929.7519, 4.659058
930.2340, 15.19507
930.7161, 23.27576
931.1982, 27.85181
931.6804, 30.31445
932.1625, 31.20093
932.6446, 30.02295
933.1267, 21.21057
933.6088, 11.57349
934.0909, 26.77673
934.5731, 60.24463
935.0552, 70.96448
935.5373, 49.21814
936.0194, 21.92200
936.5015, 10.10669
936.9836, 10.94482
937.4658, 18.59656
937.9479, 35.06030
938.4300, 40.25574
938.9121, 29.52686
939.3942, 18.12305
939.8763, 11.18188
940.3585, 10.55969
940.8406, 21.58582
941.3227, 47.48975
941.8048, 60.58936
942.2869, 56.18848
942.7690, 45.78931
943.2512, 24.84863
943.7333, 4.713013
944.2154, 7.370239
944.6975, 11.67896
945.1796, 9.622437
945.6617, 1.462036
946.1439, 12.69995
946.6260, 27.05566
947.1081, 37.32690
947.5902, 34.82300
948.0723, 27.11975
948.5544, 27.74268
949.0366, 37.31042
949.5187, 45.20984
950.0008, 45.39819
950.4829, 40.89282
950.9650, 27.59241
951.4471, 14.71326
951.9293, 20.33386
952.4114, 42.02222
952.8935, 60.88928
953.3756, 67.03259
953.8577, 63.13538
954.3398, 44.86646
954.8220, 21.08130
955.3041, 19.45886
955.7862, 36.91919
956.2683, 46.19238
956.7504, 38.03833
957.2325, 26.40100
957.7147, 25.66455
958.1968, 33.40002
958.6789, 41.17712
959.1610, 49.24463
959.6431, 49.74963
960.1252, 41.91663
960.6074, 32.78540
961.0895, 21.51611
961.5716, 13.15283
962.0537, 21.82764
962.5358, 54.46436
963.0179, 63.83960
963.5001, 36.06921
963.9822, 13.68665
964.4643, 9.791138
964.9464, 14.86182
965.4285, 22.77881
965.9106, 32.61902
966.3928, 36.70935
966.8749, 29.89783
967.3570, 25.10852
967.8391, 24.75854
968.3212, 25.09668
968.8033, 25.24316
969.2855, 24.30469
969.7676, 20.72766
970.2497, 14.19214
970.7318, 7.688843
971.2139, 1.433472
971.6960, 6.011230
972.1782, 0.5583500
972.6603, 11.24377
973.1424, 18.69495
973.6245, 22.99622
974.1066, 28.73975
974.5887, 39.05359
975.0709, 45.29980
975.5530, 36.80725
976.0351, 23.91199
976.5172, 18.11719
976.9993, 17.91565
977.4814, 19.68237
977.9636, 21.73145
978.4457, 20.24597
978.9278, 8.338745
979.4099, 2.339111
979.8920, 13.77722
980.3741, 44.94092
980.8563, 57.94397
981.3384, 50.49536
981.8205, 35.62708
982.3026, 19.34741
982.7847, 7.098877
983.2668, 7.980713
983.7490, 19.57800
984.2311, 30.80164
984.7132, 41.48657
985.1953, 43.27380
985.6774, 33.46021
986.1595, 21.25635
986.6417, 13.37061
987.1238, 9.311157
987.6059, 8.424805
988.0880, 11.49341
988.5701, 12.10645
989.0523, 9.505981
989.5344, 5.815796
990.0165, 0.2091060
990.4987, 2.728394
990.9808, 4.413574
991.4629, 21.01306
991.9450, 28.74390
992.4271, 23.06335
992.9092, 17.93506
993.3914, 13.62451
993.8735, 11.76392
994.3556, 14.65491
994.8377, 20.12610
995.3198, 23.20496
995.8019, 22.29541
996.2841, 26.66370
996.7662, 49.04358
997.2483, 60.53088
997.7304, 41.18079
998.2125, 18.49512
998.6946, 17.33521
999.1768, 32.42456
999.6589, 41.62537
1000.141, 38.06055
1000.623, 35.85352
1001.105, 47.02600
1001.587, 51.73914
1002.069, 27.33325
1002.552, 4.827271
1003.034, 13.94775
1003.516, 1.707031
1003.998, 15.41626
1004.480, 16.79309
1004.962, 12.22766
1005.444, 4.416016
1005.926, 17.31653
1006.409, 3.238892
1006.891, 26.10742
1007.373, 42.70752
1007.855, 38.40637
1008.337, 28.73096
1008.819, 20.31409
1009.301, 16.02686
1009.783, 23.23450
1010.265, 34.54663
1010.748, 34.45569
1011.230, 25.11780
1011.712, 24.69495
1012.194, 43.02161
1012.676, 62.18787
1013.158, 59.89197
1013.640, 29.02234
1014.122, 45.67090
1014.604, 54.93018
1015.087, 57.19836
1015.569, 31.53015
1016.051, 41.93689
1016.533, 37.88831
1017.015, 33.24817
1017.497, 48.79028
1017.979, 27.20898
1018.461, 42.39807
1018.944, 42.90991
1019.426, 50.14136
1019.908, 42.82654
1020.390, 40.00684
1020.872, 51.74097
1021.354, 55.41943
1021.836, 46.43762
1022.318, 54.10364
1022.800, 32.02747
1023.283, 36.05188
1023.765, 51.33826
1024.247, 43.09119
1024.729, 51.02808
1025.211, 52.80164
1025.693, 26.56799
1026.175, 49.04407
1026.657, 40.55200
1027.140, 35.83862
1027.622, 27.42798
1028.104, 17.54504
1028.586, 6.433960
1029.068, 2.583862
1029.550, 0.7194820
1030.032, 14.82898
1030.514, 21.70508
1030.996, 16.69116
1031.479, 13.98596
1031.961, 16.99951
1032.443, 24.94067
1032.925, 39.88586
1033.407, 57.72668
1033.889, 61.61340
1034.371, 44.50867
1034.853, 34.82996
1035.335, 37.09839
1035.818, 37.80957
1036.300, 31.13660
1036.782, 22.08862
1037.264, 15.47229
1037.746, 11.43372
1038.228, 8.631714
1038.710, 5.602661
1039.192, 6.785400
1039.675, 15.59680
1040.157, 24.36584
1040.639, 31.78772
1041.121, 35.91138
1041.603, 32.29761
1042.085, 20.35400
1042.567, 14.28589
1043.049, 16.20605
1043.531, 19.28613
1044.014, 24.60925
1044.496, 29.07886
1044.978, 32.60046
1045.460, 33.50256
1045.942, 27.56665
1046.424, 13.18347
1046.906, 3.221191
1047.388, 4.000610
1047.870, 2.970825
1048.353, 18.30762
1048.835, 38.05029
1049.317, 38.17456
1049.799, 25.25977
1050.281, 14.51440
1050.763, 6.651733
1051.245, 5.711426
1051.727, 19.41675
1052.210, 28.02087
1052.692, 18.43164
1053.174, 6.347290
1053.656, 4.946167
1054.138, 12.96863
1054.620, 24.38489
1055.102, 41.33179
1055.584, 51.38708
1056.067, 44.97888
1056.549, 38.86133
1057.031, 44.19421
1057.513, 40.24792
1057.995, 56.43689
1058.477, 65.23669
1058.959, 67.04382
1059.441, 40.91541
1059.923, 50.86670
1060.406, 46.19031
1060.888, 40.40881
1061.370, 55.44348
1061.852, 33.39050
1062.334, 48.10815
1062.816, 48.14734
1063.298, 54.76001
1063.780, 46.08423
1064.262, 42.70630
1064.745, 53.96387
1065.227, 57.16479
1065.709, 47.70557
1066.191, 54.89380
1066.673, 32.33875
1067.155, 35.88794
1067.637, 50.85718
1068.119, 42.18726
1068.602, 49.67346
1069.084, 51.02283
1069.566, 24.68091
1070.048, 47.56250
1070.530, 49.96631
1071.012, 30.52759
1071.494, 50.97083
1071.976, 21.45667
1072.458, 28.04468
1072.941, 34.15295
1073.423, 30.59558
1073.905, 22.71924
1074.387, 9.873657
1074.869, 1.508667
1075.351, 0.2883300
1075.833, 17.52820
1076.315, 32.55005
1076.798, 36.16907
1077.280, 37.55823
1077.762, 41.41321
1078.244, 45.01843
1078.726, 47.88367
1079.208, 47.85400
1079.690, 38.23315
1080.172, 17.54639
1080.655, 5.258667
1081.137, 17.25085
1081.619, 30.68909
1082.101, 35.80725
1082.583, 35.00745
1083.065, 28.17554
1083.547, 18.12170
1084.029, 9.087036
1084.511, 1.911011
1084.994, 0.6958010
1085.476, 3.577759
1085.958, 11.32849
1086.440, 26.88000
1086.922, 39.90027
1087.404, 37.54163
1087.886, 25.40308
1088.368, 18.18652
1088.850, 19.81067
1089.333, 20.91699
1089.815, 14.94800
1090.297, 10.85815
1090.779, 16.04895
1091.261, 22.88477
1091.743, 23.05554
1092.225, 19.05444
1092.707, 17.93921
1093.190, 21.23950
1093.672, 27.30176
1094.154, 38.75671
1094.636, 48.91370
1095.118, 57.65576
1095.600, 60.97400
1096.082, 52.31799
1096.564, 35.90686
1097.047, 21.26270
1097.529, 9.903076
1098.011, 3.939331
1098.493, 10.07251
1098.975, 14.10034
1099.457, 3.223999
1099.939, 6.464722
1100.421, 3.797852
1100.903, 25.82019
1101.385, 37.19641
1101.868, 31.94202
1102.350, 28.80566
1102.832, 34.10986
1103.314, 40.11682
1103.796, 46.86963
1104.278, 51.20056
1104.760, 47.32129
1105.242, 38.53015
1105.725, 33.41003
1106.207, 33.82104
1106.689, 35.88403
1107.171, 48.05359
1107.653, 49.55176
1108.135, 17.03931
1108.617, 12.44421
1109.099, 2.588623
1109.582, 29.60632
1110.064, 41.32886
1110.546, 23.73511
1111.028, 15.33154
1111.510, 26.67761
1111.992, 37.59607
1112.474, 44.48218
1112.956, 48.65588
1113.438, 52.52588
1113.921, 53.99817
1114.403, 46.37817
1114.885, 25.46973
1115.367, 16.39563
1115.849, 32.44104
1116.331, 39.67700
1116.813, 23.91260
1117.295, 8.571777
1117.777, 7.450195
1118.260, 16.73291
1118.742, 32.02368
1119.224, 56.17908
1119.706, 61.63281
1120.188, 36.95984
1120.670, 17.66528
1121.152, 9.553589
1121.634, 7.437256
1122.117, 9.693726
1122.599, 14.81335
1123.081, 21.38037
1123.563, 29.76367
1124.045, 27.70447
1124.527, 10.02222
1125.009, 0.6214600
1125.491, 1.447998
1125.974, 4.930420
1126.456, 2.863037
1126.938, 3.253540
1127.420, 11.41357
1127.902, 20.73816
1128.384, 17.31042
1128.866, 1.025269
1129.348, 18.94910
1129.830, 36.24524
1130.313, 42.34546
1130.795, 30.43591
1131.277, 12.07263
1131.759, 0.6712650
1132.241, 3.402100
1132.723, 4.478271
1133.205, 24.27515
1133.687, 35.67639
1134.169, 36.51990
1134.652, 41.67456
1135.134, 57.92346
1135.616, 69.53955
1136.098, 57.13965
1136.580, 32.14600
1137.062, 26.24133
1137.544, 36.69092
1138.026, 52.24182
1138.509, 69.82104
1138.991, 72.57837
1139.473, 55.63489
1139.955, 37.60181
1140.437, 34.50171
1140.919, 39.67737
1141.401, 45.33325
1141.883, 48.76624
1142.365, 37.82727
1142.848, 18.31067
1143.330, 13.95105
1143.812, 28.67163
1144.294, 44.02820
1144.776, 48.33362
1145.258, 45.07910
1145.740, 32.82678
1146.222, 19.50366
1146.704, 16.93164
1147.187, 22.65784
1147.669, 35.01416
1148.151, 49.72876
1148.633, 51.71741
1149.115, 30.78992
1149.597, 9.389526
1150.079, 3.374146
1150.561, 6.026245
1151.044, 15.41296
1151.526, 26.82678
1152.008, 34.63196
1152.490, 38.81812
1152.972, 42.34058
1153.454, 46.32922
1153.936, 48.89294
1154.418, 47.91663
1154.901, 46.85620
1155.383, 49.15491
1155.865, 50.92676
1156.347, 47.51489
1156.829, 40.88684
1157.311, 35.44995
1157.793, 31.27991
1158.275, 31.26123
1158.757, 39.39819
1159.240, 45.68628
1159.722, 51.43701
1160.204, 50.45593
1160.686, 32.39978
1161.168, 7.950439
1161.650, 5.234253
1162.132, 6.467285
1162.614, 3.746216
1163.096, 4.289429
1163.579, 13.54114
1164.061, 21.07031
1164.543, 35.30347
1165.025, 69.49268
1165.507, 99.30652
1165.989, 91.70532
1166.471, 52.82629
1166.953, 32.21411
1167.436, 32.27930
1167.918, 37.37366
1168.400, 48.07715
1168.882, 58.13208
1169.364, 65.53308
1169.846, 71.44031
1170.328, 77.61194
1170.810, 81.24573
1171.292, 71.16968
1171.775, 49.04980
1172.257, 44.82739
1172.739, 57.94299
1173.221, 65.48938
1173.703, 62.25903
1174.185, 54.92761
1174.667, 47.80322
1175.149, 41.48962
1175.631, 33.54529
1176.114, 28.40149
1176.596, 43.51294
1177.078, 69.83752
1177.560, 80.16638
1178.042, 73.13159
1178.524, 61.80115
1179.006, 51.92737
1179.488, 47.52332
1179.971, 57.34595
1180.453, 69.00671
1180.935, 70.79895
1181.417, 64.53955
1181.899, 48.63550
1182.381, 27.89001
1182.863, 7.658203
1183.345, 8.674561
1183.828, 6.700439
1184.310, 41.02612
1184.792, 74.76709
1185.274, 46.71033
1185.756, 12.29907
1186.238, 14.35706
1186.720, 34.83252
1187.202, 47.43140
1187.684, 49.64062
1188.167, 45.77429
1188.649, 29.17554
1189.131, 23.03430
1189.613, 41.29541
1190.095, 55.64417
1190.577, 53.73108
1191.059, 48.51233
1191.541, 52.04138
1192.023, 59.02368
1192.506, 54.48547
1192.988, 34.83472
1193.470, 27.38147
1193.952, 36.19995
1194.434, 45.66394
1194.916, 55.63440
1195.398, 55.41882
1195.880, 35.12476
1196.363, 13.86731
1196.845, 22.30664
1197.327, 52.83447
1197.809, 62.08032
1198.291, 49.83118
1198.773, 47.00757
1199.255, 55.87366
1199.737, 59.12146
1200.219, 50.80396
1200.702, 44.33069
1201.184, 52.70898
1201.666, 65.45435
1202.148, 64.26233
1202.630, 54.71594
1203.112, 51.03418
1203.594, 51.66968
1204.076, 51.13757
1204.558, 48.13086
1205.041, 42.50745
1205.523, 33.19922
1206.005, 28.83374
1206.487, 42.19238
1206.969, 56.54163
1207.451, 57.57153
1207.933, 52.87854
1208.415, 52.86206
1208.898, 54.71545
1209.380, 48.27112
1209.862, 31.10168
1210.344, 17.56165
1210.826, 9.526245
1211.308, 8.591553
1211.790, 22.75403
1212.272, 35.48901
1212.755, 34.63049
1213.237, 29.30334
1213.719, 33.40442
1214.201, 44.31226
1214.683, 42.69897
1215.165, 20.05225
1215.647, 9.864746
1216.129, 16.44312
1216.611, 23.56531
1217.094, 27.19885
1217.576, 28.30090
1218.058, 27.42041
1218.540, 24.84106
1219.022, 19.37732
1219.504, 11.84949
1219.986, 15.96899
1220.468, 30.38330
1220.950, 41.00330
1221.433, 45.34790
1221.915, 45.66626
1222.397, 43.01550
1222.879, 38.50354
1223.361, 32.59546
1223.843, 26.36218
1224.325, 18.34863
1224.807, 12.95081
1225.290, 20.96973
1225.772, 36.64172
1226.254, 48.50964
1226.736, 53.63867
1227.218, 52.33167
1227.700, 43.00452
1228.182, 33.11646
1228.664, 24.97241
1229.146, 19.32654
1229.629, 19.52380
1230.111, 19.90015
1230.593, 10.42957
1231.075, 2.165283
1231.557, 1.473877
1232.039, 26.58704
1232.521, 42.47742
1233.003, 42.08936
1233.485, 42.62280
1233.968, 47.06689
1234.450, 51.46570
1234.932, 56.88611
1235.414, 55.74536
1235.896, 35.60693
1236.378, 5.489258
1236.860, 5.584961
1237.343, 36.18286
1237.825, 45.87659
1238.307, 33.95728
1238.789, 33.19189
1239.271, 50.78235
1239.753, 68.12585
1240.235, 74.42017
1240.717, 68.56885
1241.199, 38.54919
1241.682, 3.467285
1242.164, 0.1341550
1242.646, 14.22949
1243.128, 22.28540
1243.610, 23.15320
1244.092, 21.49963
1244.574, 19.19409
1245.056, 19.73010
1245.538, 26.13489
1246.021, 33.30554
1246.503, 42.80847
1246.985, 47.50366
1247.467, 37.17102
1247.949, 24.29102
1248.431, 24.66028
1248.913, 34.69934
1249.395, 38.08423
1249.878, 32.42212
1250.360, 27.70886
1250.842, 22.10181
1251.324, 22.93640
1251.806, 36.47339
1252.288, 41.79431
1252.770, 25.28101
1253.252, 4.983032
1253.734, 4.747803
1254.217, 17.19495
1254.699, 9.607544
1255.181, 12.66724
1255.663, 0.4744870
1256.145, 40.98438
1256.627, 59.42737
1257.109, 43.96252
1257.591, 24.59961
1258.073, 16.87585
1258.556, 16.23572
1259.038, 18.28516
1259.520, 5.870361
1260.002, 32.69592
1260.484, 54.70618
1260.966, 60.98438
1261.448, 4.407959
1261.930, 28.99951
1262.413, 20.71289
1262.895, 11.43835
1263.377, 47.45142
1263.859, 2.0996001E-02
1264.341, 35.32202
1264.823, 37.60291
1265.305, 55.00391
1265.787, 39.67981
1266.270, 34.47217
1266.752, 62.00500
1267.234, 71.41602
1267.716, 52.34363
1268.198, 70.40308
1268.680, 21.78491
1269.162, 27.31287
1269.644, 62.66028
1270.126, 45.07361
1270.609, 19.51013
1271.091, 0.9025880
1271.573, 5.919800
1272.055, 19.90979
1272.537, 26.98120
1273.019, 28.10950
1273.501, 21.42688
1273.983, 13.35168
1274.465, 11.49365
1274.948, 15.30347
1275.430, 17.32898
1275.912, 14.99536
1276.394, 15.25671
1276.876, 27.51501
1277.358, 33.47705
1277.840, 15.43982
1278.322, 0.5025630
1278.805, 5.403809
1279.287, 20.55078
1279.769, 30.78406
1280.251, 35.56702
1280.733, 27.89160
1281.215, 6.244263
1281.697, 2.7588001E-02
1282.179, 0.0000000E+00
##END=



