##NAMES=Safflorite
##RRUFFID=R070611
##IDEAL CHEMISTRY=(Co^2+^,Fe^2+^,Ni^2+^)As_2_
##LOCALITY=Timiskaming County, Ontario, Canada
##OWNER=RRUFF
##SOURCE=
##DESCRIPTION=Dark gray tarnished metallic prismatic crystals embedded in metalic spherules with native silver. Crystal structure reported in Yang et al (2008). This is the structure type sample.
##STATUS=The identification of this mineral is confirmed by single-crystal X-ray diffraction and chemical analysis.
##URL=rruff.info/R070611
##MEASURED CHEMISTRY=(Co_0.61_Ni_0.22_Fe_0.17_)_Σ=1_(As_1.99_S_0.01_)_Σ=2_
146.3906, 0.0000000E+00
146.8728, 14.66504
147.3549, 35.77930
147.8370, 61.46973
148.3191, 76.93652
148.8012, 117.2021
149.2833, 293.4922
149.7655, 440.8320
150.2476, 464.6641
150.7297, 278.4961
151.2118, 92.92383
151.6939, 10.07031
152.1760, 37.87012
152.6582, 73.52637
153.1403, 134.0254
153.6224, 220.9150
154.1045, 272.2178
154.5866, 239.9062
155.0687, 178.9502
155.5508, 127.7109
156.0330, 99.30957
156.5151, 80.99219
156.9972, 52.98242
157.4793, 10.83398
157.9614, 12.73242
158.4435, 40.70703
158.9257, 131.8838
159.4078, 201.0830
159.8899, 231.3867
160.3720, 240.6191
160.8541, 227.9150
161.3362, 196.7695
161.8184, 194.8877
162.3005, 294.3838
162.7826, 441.7510
163.2647, 530.8604
163.7468, 470.5283
164.2289, 354.0918
164.7111, 248.6934
165.1932, 168.9287
165.6753, 104.6416
166.1574, 62.16504
166.6395, 47.32520
167.1216, 74.91992
167.6038, 85.83691
168.0859, 79.07910
168.5680, 124.9434
169.0501, 291.7344
169.5322, 460.8467
170.0143, 482.8057
170.4965, 360.4316
170.9786, 246.0469
171.4607, 247.8848
171.9428, 317.1797
172.4249, 376.4531
172.9070, 382.7324
173.3892, 374.3223
173.8713, 414.2900
174.3534, 501.6289
174.8355, 553.3369
175.3176, 443.1416
175.7997, 237.5117
176.2818, 86.58203
176.7640, 103.1729
177.2461, 205.3936
177.7282, 251.5244
178.2103, 232.4453
178.6924, 186.1953
179.1745, 149.9502
179.6567, 127.5938
180.1388, 120.2246
180.6209, 141.6650
181.1030, 182.7617
181.5851, 224.8994
182.0672, 278.6006
182.5494, 318.0127
183.0315, 273.8145
183.5136, 151.5225
183.9957, 62.03516
184.4778, 129.7305
184.9599, 310.3379
185.4421, 402.3281
185.9242, 355.2119
186.4063, 225.3867
186.8884, 102.0283
187.3705, 16.35449
187.8526, 98.97363
188.3348, 100.8477
188.8169, 31.56934
189.2990, 23.00879
189.7811, 40.62305
190.2632, 29.94434
190.7453, 17.59375
191.2275, 4.468750
191.7096, 9.794922
192.1917, 30.58984
192.6738, 58.16016
193.1559, 60.18750
193.6380, 10.95117
194.1202, 78.98828
194.6023, 123.5645
195.0844, 114.6855
195.5665, 80.21191
196.0486, 56.46387
196.5307, 44.41113
197.0129, 37.56641
197.4950, 34.15430
197.9771, 34.29395
198.4592, 37.10938
198.9413, 39.89062
199.4234, 44.32324
199.9055, 46.50586
200.3877, 40.18457
200.8698, 61.89551
201.3519, 151.2041
201.8340, 322.5781
202.3161, 428.2979
202.7982, 457.6289
203.2804, 422.3633
203.7625, 335.0039
204.2446, 186.0752
204.7267, 49.98730
205.2088, 19.80859
205.6909, 12.91309
206.1731, 11.81738
206.6552, 59.05762
207.1373, 118.1660
207.6194, 148.0801
208.1015, 143.6387
208.5836, 122.1455
209.0658, 86.40527
209.5479, 22.83301
210.0300, 2.834961
210.5121, 34.94727
210.9942, 122.9082
211.4763, 153.3457
211.9585, 98.25195
212.4406, 31.00684
212.9227, 26.08594
213.4048, 117.5449
213.8869, 170.9658
214.3690, 137.5605
214.8512, 19.66211
215.3333, 2.960449
215.8154, 108.3086
216.2975, 269.9453
216.7796, 398.5229
217.2617, 507.2441
217.7439, 547.7568
218.2260, 484.5547
218.7081, 302.3369
219.1902, 191.3188
219.6723, 169.7549
220.1544, 203.6709
220.6366, 254.7197
221.1187, 343.7554
221.6008, 405.9204
222.0829, 408.8442
222.5650, 328.3364
223.0471, 311.8838
223.5293, 410.0469
224.0114, 539.3535
224.4935, 546.6235
224.9756, 358.7808
225.4577, 173.2583
225.9398, 59.69775
226.4220, 23.62988
226.9041, 50.06104
227.3862, 183.0581
227.8683, 360.2148
228.3504, 431.1377
228.8325, 328.0083
229.3147, 223.6445
229.7968, 197.6533
230.2789, 294.6128
230.7610, 365.5190
231.2431, 404.6470
231.7252, 418.4653
232.2074, 427.2349
232.6895, 433.7959
233.1716, 430.2041
233.6537, 411.3428
234.1358, 373.8267
234.6179, 326.9678
235.1001, 254.9507
235.5822, 172.3706
236.0643, 146.8545
236.5464, 214.0215
237.0285, 292.2388
237.5106, 331.4531
237.9928, 306.7773
238.4749, 296.9292
238.9570, 320.8521
239.4391, 368.9932
239.9212, 376.9004
240.4033, 323.3276
240.8855, 254.5488
241.3676, 201.9424
241.8497, 175.8174
242.3318, 145.1973
242.8139, 95.54053
243.2960, 31.42090
243.7781, 15.11377
244.2603, 71.68408
244.7424, 146.6738
245.2245, 189.7783
245.7066, 161.9243
246.1887, 183.7998
246.6708, 310.5801
247.1530, 532.6914
247.6351, 636.8818
248.1172, 581.3184
248.5993, 453.1499
249.0814, 318.2041
249.5635, 151.0186
250.0457, 31.56885
250.5278, 16.68799
251.0099, 7.645508
251.4920, 33.81494
251.9741, 62.78027
252.4562, 89.43018
252.9384, 108.2935
253.4205, 112.8452
253.9026, 122.1465
254.3847, 134.1235
254.8668, 147.5112
255.3489, 205.0513
255.8311, 337.9976
256.3132, 480.9268
256.7953, 557.5981
257.2774, 549.6562
257.7595, 518.5703
258.2416, 473.7178
258.7238, 413.2983
259.2059, 360.9805
259.6880, 306.9326
260.1701, 271.6514
260.6522, 290.3965
261.1343, 392.0029
261.6165, 471.7886
262.0986, 493.7207
262.5807, 452.4722
263.0628, 421.5195
263.5449, 402.8315
264.0270, 397.0283
264.5092, 410.0083
264.9913, 453.8711
265.4734, 479.3213
265.9555, 463.5742
266.4376, 403.1025
266.9197, 362.5195
267.4019, 347.0303
267.8840, 344.1792
268.3661, 335.0776
268.8482, 315.1748
269.3303, 304.6592
269.8124, 302.5342
270.2946, 306.2627
270.7767, 370.9688
271.2588, 524.9590
271.7409, 698.0830
272.2230, 788.7349
272.7051, 788.6348
273.1873, 742.3345
273.6694, 644.7686
274.1515, 491.6040
274.6336, 404.8838
275.1157, 395.5859
275.5978, 429.2896
276.0800, 465.1909
276.5620, 506.8262
277.0442, 525.1118
277.5263, 500.3569
278.0084, 433.1011
278.4905, 374.6641
278.9726, 320.4927
279.4547, 290.9678
279.9369, 316.2432
280.4190, 388.9214
280.9011, 449.9297
281.3832, 476.7876
281.8653, 470.2891
282.3474, 431.3770
282.8296, 350.2993
283.3117, 264.2080
283.7938, 236.8564
284.2759, 268.0469
284.7580, 294.2456
285.2401, 274.0225
285.7223, 218.4160
286.2044, 202.4336
286.6865, 232.7983
287.1686, 283.0107
287.6507, 323.6367
288.1328, 355.0796
288.6150, 373.4878
289.0971, 370.0752
289.5792, 350.9814
290.0613, 344.0532
290.5434, 353.9941
291.0255, 358.9746
291.5077, 320.4346
291.9898, 245.9761
292.4719, 183.6167
292.9540, 143.7129
293.4361, 131.9380
293.9182, 177.7041
294.4004, 291.3281
294.8825, 413.2832
295.3646, 480.6763
295.8467, 500.4165
296.3288, 495.5688
296.8109, 474.4341
297.2931, 436.4111
297.7752, 371.7090
298.2573, 276.4292
298.7394, 186.0425
299.2215, 140.1328
299.7036, 132.5044
300.1858, 133.5112
300.6679, 127.9937
301.1500, 124.4351
301.6321, 131.6279
302.1142, 151.2998
302.5963, 170.5337
303.0785, 169.5352
303.5606, 159.7427
304.0427, 164.5234
304.5248, 219.6162
305.0069, 279.4316
305.4890, 300.3877
305.9712, 280.0645
306.4533, 233.4932
306.9354, 141.4766
307.4175, 34.43457
307.8996, 39.16748
308.3817, 42.85059
308.8639, 16.51123
309.3460, 15.80859
309.8281, 53.25977
310.3102, 90.60547
310.7923, 125.5469
311.2744, 158.4048
311.7566, 189.6802
312.2387, 224.8701
312.7208, 254.3569
313.2029, 261.9858
313.6850, 246.9014
314.1671, 255.4844
314.6493, 349.7080
315.1314, 461.7505
315.6135, 521.8096
316.0956, 473.3320
316.5777, 401.8872
317.0598, 331.6343
317.5420, 263.6494
318.0241, 204.4956
318.5062, 134.0728
318.9883, 84.59229
319.4704, 83.25342
319.9525, 193.4644
320.4347, 293.5269
320.9168, 349.1045
321.3989, 361.7368
321.8810, 378.2520
322.3631, 433.2134
322.8452, 487.7031
323.3273, 499.3369
323.8094, 405.0283
324.2916, 336.0190
324.7737, 324.2695
325.2558, 364.3535
325.7379, 375.1392
326.2200, 344.2412
326.7021, 294.7134
327.1843, 232.4146
327.6664, 120.1294
328.1485, 52.92432
328.6306, 44.88916
329.1127, 90.97949
329.5948, 158.5947
330.0770, 295.2847
330.5591, 405.4761
331.0412, 423.2046
331.5233, 275.3940
332.0054, 196.3091
332.4875, 233.9590
332.9697, 345.3823
333.4518, 375.2354
333.9339, 281.3706
334.4160, 181.2305
334.8981, 151.8569
335.3802, 230.0454
335.8624, 223.9209
336.3445, 80.85254
336.8266, 120.0239
337.3087, 173.8818
337.7908, 44.62598
338.2729, 98.54736
338.7551, 166.6699
339.2372, 154.0347
339.7193, 144.6562
340.2014, 141.0308
340.6835, 142.6992
341.1656, 149.0547
341.6478, 160.2056
342.1299, 176.0234
342.6120, 203.9463
343.0941, 240.0542
343.5762, 255.8198
344.0583, 249.8823
344.5405, 227.4473
345.0226, 176.7021
345.5047, 104.7256
345.9868, 67.96680
346.4689, 129.6396
346.9510, 241.9194
347.4332, 272.3418
347.9153, 212.9199
348.3974, 137.5381
348.8795, 112.8013
349.3616, 132.1943
349.8438, 178.3438
350.3259, 295.1929
350.8080, 411.3481
351.2901, 415.3315
351.7722, 311.6978
352.2543, 196.2402
352.7365, 120.6636
353.2186, 79.31885
353.7007, 72.12695
354.1828, 136.9473
354.6649, 203.6611
355.1470, 217.7993
355.6292, 182.7749
356.1113, 131.3149
356.5934, 25.56104
357.0755, 62.84668
357.5576, 58.52490
358.0397, 153.6094
358.5219, 355.0303
359.0040, 430.2334
359.4861, 403.2441
359.9682, 372.1123
360.4503, 392.1562
360.9324, 408.4639
361.4146, 380.6841
361.8967, 242.4878
362.3788, 147.4062
362.8609, 167.5781
363.3430, 262.0039
363.8251, 317.7227
364.3073, 260.7290
364.7894, 204.1494
365.2715, 199.8037
365.7536, 299.1880
366.2357, 359.4282
366.7178, 348.2036
367.1999, 299.2334
367.6820, 271.6113
368.1642, 276.1792
368.6463, 289.7974
369.1284, 313.6084
369.6105, 361.7261
370.0926, 359.8340
370.5747, 272.4775
371.0569, 161.6240
371.5390, 112.0796
372.0211, 155.6499
372.5032, 187.1270
372.9853, 168.6045
373.4674, 99.04834
373.9496, 75.84424
374.4317, 110.0322
374.9138, 168.4785
375.3959, 226.1152
375.8780, 287.0771
376.3601, 312.9307
376.8423, 279.9736
377.3244, 208.3887
377.8065, 201.8467
378.2886, 272.8081
378.7707, 321.1401
379.2528, 214.5825
379.7350, 13.49463
380.2171, 134.5552
380.6992, 73.06299
381.1813, 74.94189
381.6634, 152.6479
382.1455, 162.6499
382.6277, 136.8813
383.1098, 62.34668
383.5919, 26.98682
384.0740, 56.52588
384.5561, 0.7460940
385.0382, 73.37500
385.5204, 70.41943
386.0025, 18.20557
386.4846, 8.850586
386.9667, 43.32666
387.4488, 131.3672
387.9309, 222.8682
388.4131, 319.7534
388.8952, 393.2705
389.3773, 406.6367
389.8594, 385.5747
390.3415, 373.5664
390.8236, 404.3589
391.3058, 433.8408
391.7879, 441.4482
392.2700, 423.5127
392.7521, 395.5908
393.2342, 345.0869
393.7163, 296.3989
394.1985, 273.6128
394.6806, 302.9648
395.1627, 316.5254
395.6448, 307.5010
396.1269, 273.5088
396.6090, 239.6782
397.0912, 190.6089
397.5733, 154.4751
398.0554, 146.3184
398.5375, 175.0220
399.0196, 220.2930
399.5017, 302.4634
399.9839, 399.3154
400.4660, 439.4443
400.9481, 397.3032
401.4302, 340.8716
401.9123, 298.2969
402.3944, 271.9072
402.8766, 247.5610
403.3587, 215.1768
403.8408, 195.9492
404.3229, 236.4653
404.8050, 348.5664
405.2871, 447.7261
405.7693, 502.1748
406.2514, 514.8662
406.7335, 521.6934
407.2156, 528.4702
407.6977, 501.1128
408.1798, 363.9829
408.6620, 141.2085
409.1441, 22.37061
409.6262, 75.65820
410.1083, 48.83594
410.5904, 24.17676
411.0725, 140.0498
411.5546, 241.3818
412.0367, 273.6250
412.5189, 264.9272
413.0010, 263.4473
413.4831, 284.1030
413.9652, 307.7310
414.4473, 312.7964
414.9294, 302.0356
415.4116, 300.1841
415.8937, 324.0850
416.3758, 359.4473
416.8579, 402.8130
417.3400, 458.9204
417.8221, 503.5405
418.3043, 526.7334
418.7864, 531.4194
419.2685, 521.9229
419.7506, 516.3145
420.2327, 481.2432
420.7148, 382.0605
421.1970, 201.8828
421.6791, 84.80811
422.1612, 88.92285
422.6433, 141.2983
423.1254, 180.4321
423.6075, 208.8774
424.0897, 219.7603
424.5718, 201.6636
425.0539, 161.0747
425.5360, 147.2251
426.0181, 180.3164
426.5002, 210.6055
426.9824, 202.4604
427.4645, 139.4175
427.9466, 103.5054
428.4287, 103.1533
428.9108, 127.9927
429.3929, 166.4878
429.8751, 223.4492
430.3572, 258.5928
430.8393, 230.2642
431.3214, 152.0884
431.8035, 142.8389
432.2856, 215.1860
432.7678, 297.8916
433.2499, 288.6465
433.7320, 210.9702
434.2141, 165.3608
434.6962, 210.2793
435.1783, 293.9160
435.6605, 340.1509
436.1426, 351.1890
436.6247, 353.5215
437.1068, 378.4243
437.5889, 400.2212
438.0710, 377.0674
438.5532, 283.3091
439.0353, 202.3076
439.5174, 173.6968
439.9995, 192.3711
440.4816, 244.5859
440.9637, 383.1816
441.4459, 506.6118
441.9280, 557.5825
442.4101, 519.2153
442.8922, 459.2227
443.3743, 372.6992
443.8564, 276.9590
444.3386, 195.6982
444.8207, 142.0156
445.3028, 95.79297
445.7849, 45.80371
446.2670, 9.189941
446.7491, 21.80713
447.2313, 44.48535
447.7134, 114.0264
448.1955, 122.1982
448.6776, 36.09033
449.1597, 14.25146
449.6418, 0.7075200
450.1240, 53.70654
450.6061, 52.98975
451.0882, 13.12793
451.5703, 73.69385
452.0524, 86.91406
452.5345, 55.97852
453.0167, 12.81885
453.4988, 44.48535
453.9809, 101.0186
454.4630, 116.6846
454.9451, 105.6777
455.4272, 136.4160
455.9094, 298.4116
456.3914, 491.2432
456.8736, 541.5088
457.3557, 454.7163
457.8378, 356.3950
458.3199, 374.9502
458.8020, 426.8271
459.2841, 399.5537
459.7663, 181.3672
460.2484, 5.437012
460.7305, 10.98242
461.2126, 168.4688
461.6947, 289.8193
462.1768, 288.0830
462.6590, 246.5000
463.1411, 202.4302
463.6232, 154.3599
464.1053, 121.9536
464.5874, 121.1787
465.0695, 133.1655
465.5517, 133.0737
466.0338, 89.56055
466.5159, 76.69141
466.9980, 111.1504
467.4801, 187.8364
467.9622, 255.5850
468.4444, 317.5835
468.9265, 371.7031
469.4086, 424.9697
469.8907, 483.9893
470.3728, 503.5601
470.8549, 473.8130
471.3371, 409.4639
471.8192, 333.9507
472.3013, 246.7695
472.7834, 169.1206
473.2655, 105.2769
473.7477, 59.26123
474.2298, 50.67285
474.7119, 82.85059
475.1940, 128.1167
475.6761, 165.0884
476.1582, 194.3188
476.6404, 217.2407
477.1225, 239.5420
477.6046, 251.0967
478.0867, 223.5278
478.5688, 168.4185
479.0509, 146.6616
479.5331, 243.5112
480.0152, 353.6670
480.4973, 396.1401
480.9794, 331.0933
481.4615, 251.9165
481.9436, 146.5776
482.4258, 49.79346
482.9079, 21.40527
483.3900, 145.7935
483.8721, 261.7202
484.3542, 332.1484
484.8363, 355.3608
485.3185, 352.2505
485.8006, 300.4648
486.2827, 248.6919
486.7648, 242.8169
487.2469, 305.2979
487.7290, 333.3755
488.2112, 302.8154
488.6933, 238.0005
489.1754, 206.6792
489.6575, 211.0654
490.1396, 225.9551
490.6217, 246.6274
491.1039, 268.3125
491.5860, 260.9004
492.0681, 218.4761
492.5502, 177.0708
493.0323, 194.4214
493.5144, 243.8599
493.9966, 193.8940
494.4787, 260.8687
494.9608, 293.8955
495.4429, 294.8555
495.9250, 164.9033
496.4071, 206.2256
496.8893, 180.2339
497.3714, 152.4614
497.8535, 221.1411
498.3356, 115.1187
498.8177, 183.6016
499.2998, 183.7417
499.7820, 216.5557
500.2641, 181.6392
500.7462, 168.8745
501.2283, 225.7456
501.7104, 245.5264
502.1925, 206.4956
502.6746, 247.0107
503.1567, 148.0415
503.6389, 173.2373
504.1210, 251.5889
504.6031, 219.0361
505.0852, 265.5054
505.5673, 283.8184
506.0494, 170.8389
506.5316, 288.7646
507.0137, 306.9609
507.4958, 224.8618
507.9779, 270.4380
508.4600, 248.1392
508.9421, 232.1621
509.4243, 221.2637
509.9064, 207.1060
510.3885, 174.6475
510.8706, 136.2866
511.3527, 109.6704
511.8348, 89.70215
512.3170, 94.57080
512.7991, 163.2158
513.2812, 273.7183
513.7633, 351.1157
514.2454, 354.6367
514.7275, 324.4810
515.2097, 276.0337
515.6918, 201.2710
516.1739, 141.6587
516.6560, 112.9341
517.1381, 98.75000
517.6202, 79.22363
518.1024, 34.63281
518.5845, 15.26807
519.0666, 35.48145
519.5487, 88.25244
520.0308, 134.3652
520.5129, 180.7471
520.9951, 202.9658
521.4772, 178.6201
521.9593, 107.4517
522.4414, 41.88428
522.9235, 27.85254
523.4056, 83.03760
523.8878, 103.9170
524.3699, 89.48340
524.8520, 32.35938
525.3341, 123.0200
525.8162, 285.3716
526.2983, 304.7910
526.7805, 199.3228
527.2626, 108.8813
527.7447, 139.6704
528.2268, 218.1138
528.7089, 279.8818
529.1910, 317.2734
529.6732, 326.2192
530.1553, 275.2363
530.6374, 201.8354
531.1195, 164.0312
531.6016, 218.9902
532.0837, 263.6890
532.5659, 260.9902
533.0480, 211.7402
533.5301, 200.5396
534.0122, 254.8945
534.4943, 311.2319
534.9764, 325.9077
535.4586, 288.2646
535.9407, 256.5098
536.4228, 233.7754
536.9049, 218.5024
537.3870, 210.2437
537.8691, 208.8857
538.3513, 205.3564
538.8334, 192.3809
539.3155, 176.1646
539.7976, 179.9453
540.2797, 202.2090
540.7618, 205.2314
541.2440, 115.5674
541.7261, 5.487305
542.2082, 25.09668
542.6903, 67.48926
543.1724, 187.0767
543.6545, 332.9731
544.1367, 462.1274
544.6188, 498.1333
545.1009, 285.2466
545.5830, 101.7368
546.0651, 59.93848
546.5472, 173.3848
547.0294, 261.3179
547.5115, 339.9346
547.9936, 373.8521
548.4757, 329.0293
548.9578, 155.8984
549.4399, 39.61816
549.9221, 7.758789
550.4042, 0.8583980
550.8863, 56.83447
551.3684, 171.9106
551.8505, 239.5454
552.3326, 194.1738
552.8148, 76.52246
553.2969, 13.34521
553.7790, 2.555176
554.2611, 7.926758
554.7432, 3.119141
555.2253, 15.10107
555.7075, 0.4047850
556.1896, 56.17090
556.6717, 112.5073
557.1538, 139.5083
557.6359, 146.3130
558.1180, 147.3188
558.6002, 143.1899
559.0823, 139.6597
559.5644, 141.4937
560.0465, 145.3960
560.5286, 135.2422
561.0107, 67.45801
561.4929, 29.04443
561.9750, 73.93994
562.4571, 246.5996
562.9392, 392.5854
563.4213, 523.4854
563.9034, 611.7490
564.3856, 597.0771
564.8677, 472.3579
565.3498, 352.2310
565.8319, 263.5312
566.3140, 208.2773
566.7961, 200.1045
567.2783, 236.5825
567.7604, 280.8799
568.2424, 332.1440
568.7245, 364.6465
569.2067, 332.0454
569.6888, 213.2764
570.1709, 106.0342
570.6530, 49.45361
571.1351, 49.41309
571.6172, 113.5986
572.0994, 390.7314
572.5815, 583.8521
573.0636, 533.6001
573.5457, 284.9458
574.0278, 159.6055
574.5099, 269.0850
574.9921, 379.7246
575.4742, 387.2104
575.9563, 265.5166
576.4384, 170.2925
576.9205, 102.9155
577.4026, 62.60596
577.8848, 66.36230
578.3669, 110.7109
578.8490, 112.5420
579.3311, 27.12305
579.8132, 70.94775
580.2953, 20.32959
580.7775, 146.9893
581.2596, 280.8955
581.7417, 263.8813
582.2238, 196.1011
582.7059, 178.0083
583.1880, 215.4966
583.6702, 259.8618
584.1523, 290.6035
584.6344, 315.5498
585.1165, 342.0688
585.5986, 390.6968
586.0807, 416.8511
586.5629, 402.7749
587.0450, 365.2544
587.5271, 332.9795
588.0092, 290.5103
588.4913, 284.9697
588.9734, 352.9502
589.4556, 483.0298
589.9377, 513.6650
590.4198, 429.7407
590.9019, 320.2812
591.3840, 249.6147
591.8661, 213.1831
592.3483, 192.9521
592.8304, 190.0869
593.3125, 188.8379
593.7946, 163.5352
594.2767, 127.4561
594.7589, 107.6094
595.2410, 140.4683
595.7231, 175.3442
596.2052, 170.3286
596.6873, 130.9067
597.1694, 98.01416
597.6516, 57.79932
598.1337, 51.70703
598.6158, 114.1699
599.0979, 288.9805
599.5800, 385.5825
600.0621, 363.0332
600.5443, 302.6016
601.0264, 286.8940
601.5085, 328.2988
601.9906, 356.0527
602.4727, 362.0977
602.9548, 344.9824
603.4370, 281.8848
603.9191, 177.4067
604.4012, 104.2861
604.8833, 119.4478
605.3654, 179.5264
605.8475, 219.3604
606.3297, 237.8496
606.8118, 252.7803
607.2939, 281.3975
607.7760, 308.7739
608.2581, 322.0923
608.7402, 318.6504
609.2224, 300.9512
609.7045, 224.0708
610.1866, 144.4995
610.6687, 161.2500
611.1508, 393.9263
611.6329, 547.6030
612.1151, 552.8774
612.5972, 432.7271
613.0793, 307.9268
613.5614, 167.2500
614.0435, 69.60352
614.5256, 83.12695
615.0078, 183.9653
615.4899, 193.2612
615.9720, 97.06641
616.4541, 12.53857
616.9362, 44.90088
617.4183, 24.46680
617.9005, 4.907227
618.3826, 34.90137
618.8647, 65.13037
619.3468, 72.87256
619.8289, 81.34668
620.3110, 140.6948
620.7932, 371.8350
621.2753, 554.0728
621.7574, 593.2910
622.2395, 486.2119
622.7216, 384.4878
623.2037, 285.2183
623.6859, 196.2310
624.1680, 118.7285
624.6501, 50.49512
625.1322, 7.722168
625.6143, 9.268066
626.0964, 0.5678710
626.5786, 50.20459
627.0607, 132.6353
627.5428, 195.5010
628.0249, 231.5708
628.5070, 231.7227
628.9891, 146.7441
629.4713, 9.256348
629.9534, 76.79150
630.4355, 23.36475
630.9176, 69.83545
631.3997, 154.2173
631.8818, 228.4238
632.3640, 264.8833
632.8461, 236.9121
633.3282, 183.9912
633.8103, 128.7178
634.2924, 58.98438
634.7745, 12.25977
635.2567, 12.27637
635.7388, 11.48584
636.2209, 37.59570
636.7030, 138.4263
637.1851, 193.0513
637.6672, 149.8232
638.1494, 68.06592
638.6315, 46.41748
639.1136, 76.12451
639.5957, 122.7031
640.0778, 196.7261
640.5599, 259.0825
641.0421, 255.6953
641.5242, 179.7915
642.0063, 130.7769
642.4884, 171.3760
642.9705, 240.5674
643.4526, 293.5884
643.9348, 324.4814
644.4169, 337.1143
644.8990, 316.7964
645.3811, 287.6211
645.8632, 297.0181
646.3453, 364.5972
646.8275, 381.2886
647.3096, 298.0801
647.7917, 164.2378
648.2738, 125.6489
648.7559, 175.1855
649.2380, 230.1396
649.7202, 235.2510
650.2023, 218.1851
650.6844, 228.1143
651.1665, 267.5645
651.6486, 272.5806
652.1307, 168.7739
652.6129, 35.98486
653.0950, 60.05859
653.5771, 109.1064
654.0592, 117.4292
654.5413, 61.30225
655.0234, 24.41016
655.5056, 96.94434
655.9877, 152.2598
656.4698, 203.9512
656.9519, 253.3975
657.4340, 302.1323
657.9161, 363.0098
658.3982, 436.6646
658.8803, 490.1909
659.3624, 494.0493
659.8445, 469.9492
660.3267, 464.9985
660.8088, 478.9292
661.2909, 473.2310
661.7730, 394.8877
662.2551, 299.8179
662.7372, 234.5020
663.2194, 202.9204
663.7015, 212.2622
664.1836, 321.1372
664.6657, 447.5483
665.1478, 487.7505
665.6299, 380.7842
666.1121, 302.9678
666.5942, 281.4526
667.0763, 300.8667
667.5584, 321.3936
668.0405, 342.5518
668.5226, 372.7158
669.0048, 429.4307
669.4869, 493.9990
669.9690, 524.6978
670.4511, 522.3813
670.9332, 491.2935
671.4153, 378.5303
671.8975, 264.0356
672.3796, 238.7593
672.8617, 344.0332
673.3438, 416.4541
673.8259, 367.5825
674.3080, 278.6670
674.7902, 230.8125
675.2723, 264.6938
675.7544, 279.5464
676.2365, 262.6909
676.7186, 225.6377
677.2007, 188.5254
677.6829, 150.1797
678.1650, 120.6094
678.6471, 103.0269
679.1292, 96.18457
679.6113, 101.8540
680.0934, 118.2222
680.5756, 133.6763
681.0577, 141.5771
681.5398, 145.1372
682.0219, 136.5225
682.5040, 112.9697
682.9861, 126.0034
683.4683, 226.8496
683.9504, 349.2070
684.4325, 447.9761
684.9146, 536.8540
685.3967, 566.6606
685.8788, 521.9644
686.3610, 436.1992
686.8431, 338.4858
687.3252, 223.9043
687.8073, 156.0596
688.2894, 176.1094
688.7715, 230.7534
689.2537, 216.9473
689.7358, 151.5859
690.2179, 97.30371
690.7000, 63.84814
691.1821, 70.29541
691.6642, 175.2041
692.1464, 358.6846
692.6285, 460.8828
693.1106, 340.9785
693.5927, 198.4185
694.0748, 129.5010
694.5569, 138.5659
695.0391, 205.6152
695.5212, 376.7505
696.0033, 532.6523
696.4854, 544.5298
696.9675, 411.2065
697.4496, 329.7715
697.9318, 329.4854
698.4139, 356.0039
698.8960, 344.1255
699.3781, 304.6558
699.8602, 262.1929
700.3423, 212.2119
700.8245, 178.1484
701.3066, 181.7856
701.7887, 212.1133
702.2708, 239.9116
702.7529, 255.3125
703.2350, 269.3008
703.7172, 284.8306
704.1993, 301.8657
704.6814, 318.6631
705.1635, 334.6406
705.6456, 351.8032
706.1277, 381.6235
706.6099, 418.1313
707.0920, 405.9546
707.5741, 340.5742
708.0562, 276.3486
708.5383, 268.2544
709.0204, 292.8960
709.5026, 321.9526
709.9847, 358.3467
710.4668, 370.7422
710.9489, 308.1494
711.4310, 220.4136
711.9131, 170.1533
712.3953, 220.6436
712.8774, 252.5356
713.3595, 248.2988
713.8416, 216.5542
714.3237, 170.9736
714.8058, 104.7495
715.2880, 61.75000
715.7701, 55.72021
716.2522, 80.58740
716.7343, 129.3193
717.2164, 198.5327
717.6985, 253.2852
718.1807, 256.6436
718.6628, 247.7275
719.1449, 278.5708
719.6270, 354.0513
720.1091, 382.1553
720.5912, 274.7925
721.0734, 151.9678
721.5555, 91.50537
722.0376, 113.8853
722.5197, 140.6338
723.0018, 170.7715
723.4839, 206.3833
723.9661, 271.0068
724.4482, 361.3896
724.9303, 364.4531
725.4124, 238.1816
725.8945, 83.18945
726.3766, 44.14111
726.8588, 78.90479
727.3409, 93.43750
727.8230, 15.01904
728.3051, 59.82031
728.7872, 85.06641
729.2693, 67.33643
729.7515, 30.43750
730.2336, 67.44238
730.7157, 134.3252
731.1978, 136.7383
731.6799, 83.28564
732.1620, 55.49023
732.6442, 57.66504
733.1263, 65.32568
733.6084, 59.44727
734.0905, 47.34277
734.5726, 52.10986
735.0547, 74.54883
735.5369, 113.9209
736.0190, 204.6636
736.5011, 288.4351
736.9832, 297.8467
737.4653, 192.1577
737.9474, 110.8579
738.4296, 110.1836
738.9117, 142.4800
739.3938, 162.3149
739.8759, 173.3813
740.3580, 157.0889
740.8401, 94.30273
741.3223, 28.86475
741.8044, 53.86865
742.2865, 158.9663
742.7686, 225.4268
743.2507, 200.3394
743.7328, 141.7329
744.2150, 118.6494
744.6971, 119.9214
745.1792, 115.9014
745.6613, 63.17969
746.1434, 31.35010
746.6255, 76.00293
747.1077, 185.4194
747.5898, 236.0215
748.0718, 184.1597
748.5540, 136.0850
749.0361, 136.9546
749.5182, 183.6626
750.0003, 220.3384
750.4824, 247.7720
750.9645, 254.6357
751.4467, 219.0405
751.9288, 160.1465
752.4109, 105.4756
752.8930, 56.26074
753.3751, 36.45361
753.8572, 91.35840
754.3394, 166.5835
754.8215, 208.1812
755.3036, 164.6924
755.7857, 175.9966
756.2678, 318.1392
756.7499, 459.6924
757.2321, 417.3442
757.7142, 148.2510
758.1963, 13.37646
758.6784, 3.014648
759.1605, 107.1875
759.6426, 261.1450
760.1248, 427.2026
760.6069, 504.9741
761.0890, 403.5474
761.5711, 257.1978
762.0532, 139.8271
762.5353, 52.52588
763.0175, 1.758789
763.4996, 14.78613
763.9817, 1.001465
764.4638, 44.94678
764.9459, 116.0840
765.4280, 168.2378
765.9102, 198.8843
766.3923, 220.3120
766.8744, 241.1738
767.3565, 257.4497
767.8386, 253.2036
768.3207, 229.3433
768.8029, 199.0830
769.2850, 149.2646
769.7671, 111.8174
770.2492, 137.3379
770.7313, 243.3481
771.2134, 289.9458
771.6956, 170.6738
772.1777, 34.11035
772.6598, 22.93945
773.1419, 33.66553
773.6240, 50.80176
774.1061, 12.49902
774.5883, 25.12354
775.0704, 4.292480
775.5525, 68.19287
776.0346, 186.2451
776.5167, 376.1206
776.9988, 505.0854
777.4810, 381.3052
777.9631, 142.8960
778.4452, 22.83643
778.9273, 19.30225
779.4094, 10.49121
779.8915, 56.04590
780.3737, 105.6685
780.8558, 141.9102
781.3379, 157.9253
781.8200, 182.1577
782.3021, 228.8374
782.7842, 272.6797
783.2664, 248.7329
783.7485, 170.9170
784.2306, 111.7334
784.7127, 134.3452
785.1948, 167.2041
785.6769, 129.4614
786.1591, 40.96924
786.6412, 12.31348
787.1233, 49.63770
787.6054, 103.7832
788.0875, 91.68945
788.5696, 21.76074
789.0518, 6.977051
789.5339, 63.38770
790.0160, 121.1445
790.4981, 145.7793
790.9802, 140.5361
791.4623, 108.0850
791.9445, 49.68652
792.4266, 0.8657230
792.9087, 25.28320
793.3908, 25.91309
793.8729, 8.762207
794.3550, 77.23730
794.8372, 129.1191
795.3193, 136.1938
795.8014, 139.6172
796.2835, 172.6904
796.7656, 260.4580
797.2477, 256.1406
797.7299, 131.9575
798.2120, 6.926270
798.6941, 16.87793
799.1762, 124.8540
799.6583, 237.4150
800.1404, 352.7812
800.6226, 404.8950
801.1047, 192.4253
801.5868, 279.8857
802.0689, 324.9917
802.5510, 330.0420
803.0331, 173.8975
803.5153, 226.7939
803.9974, 196.4629
804.4795, 163.0933
804.9616, 246.5288
805.4437, 115.8335
805.9258, 198.2021
806.4080, 196.0630
806.8901, 233.1704
807.3722, 186.5352
807.8543, 166.2769
808.3364, 230.5703
808.8185, 248.6533
809.3007, 193.8882
809.7828, 235.8062
810.2649, 106.0703
810.7470, 127.6948
811.2291, 214.8438
811.7112, 166.2573
812.1934, 211.6582
812.6755, 221.8154
813.1576, 70.36084
813.6397, 201.0361
814.1218, 210.2568
814.6039, 94.75830
815.0861, 216.9478
815.5682, 119.4746
816.0503, 110.1958
816.5324, 82.03760
817.0145, 61.87402
817.4966, 57.33252
817.9788, 67.62061
818.4609, 78.34424
818.9430, 87.54736
819.4251, 101.9111
819.9072, 131.4937
820.3893, 168.9521
820.8715, 170.2378
821.3536, 137.0454
821.8357, 101.5938
822.3178, 66.76074
822.7999, 46.00244
823.2820, 64.20312
823.7642, 121.1812
824.2463, 165.6636
824.7284, 169.4399
825.2105, 165.7905
825.6926, 172.4810
826.1747, 191.0801
826.6569, 200.8496
827.1390, 200.1289
827.6211, 194.6650
828.1032, 184.4902
828.5853, 172.8564
829.0674, 173.1313
829.5496, 186.1045
830.0317, 195.6719
830.5138, 180.6377
830.9959, 163.4316
831.4780, 164.2979
831.9601, 195.5391
832.4423, 208.3130
832.9244, 195.1626
833.4065, 172.3398
833.8886, 148.4736
834.3707, 122.6299
834.8528, 115.0054
835.3350, 129.7495
835.8171, 144.3145
836.2992, 137.6763
836.7813, 114.9663
837.2634, 78.52734
837.7455, 22.24414
838.2276, 24.24609
838.7097, 51.43115
839.1918, 59.09131
839.6740, 44.82861
840.1561, 4.341797
840.6382, 44.15674
841.1203, 72.63525
841.6024, 94.59131
842.0845, 106.2583
842.5667, 113.1885
843.0488, 157.2217
843.5309, 255.8999
844.0130, 344.5542
844.4951, 353.5537
844.9772, 322.1953
845.4594, 296.9097
845.9415, 287.5269
846.4236, 289.1206
846.9057, 318.7866
847.3878, 344.9351
847.8699, 321.5776
848.3521, 237.4478
848.8342, 197.1865
849.3163, 231.9321
849.7984, 271.3301
850.2805, 182.8623
850.7626, 27.72607
851.2448, 62.01221
851.7269, 21.92920
852.2090, 45.78418
852.6911, 121.8403
853.1732, 187.0776
853.6553, 206.4639
854.1375, 132.5356
854.6196, 119.2964
855.1017, 203.9800
855.5838, 321.8516
856.0659, 371.0137
856.5480, 357.4199
857.0302, 312.3296
857.5123, 225.3018
857.9944, 151.8179
858.4765, 147.8511
858.9586, 190.0791
859.4407, 241.0117
859.9229, 340.7983
860.4050, 377.8169
860.8871, 290.0962
861.3692, 164.6094
861.8513, 164.6953
862.3334, 306.6978
862.8156, 393.5332
863.2977, 371.2202
863.7798, 302.4800
864.2619, 255.1880
864.7440, 234.2671
865.2261, 246.2119
865.7083, 322.1846
866.1904, 398.5244
866.6725, 477.3569
867.1546, 533.3877
867.6367, 517.0981
868.1188, 384.6514
868.6010, 294.9644
869.0831, 284.7397
869.5652, 311.7285
870.0473, 297.0532
870.5294, 247.8027
871.0115, 220.4028
871.4937, 244.4717
871.9758, 279.7520
872.4579, 294.2158
872.9400, 299.2310
873.4221, 315.3125
873.9042, 353.9365
874.3864, 397.9546
874.8685, 465.6694
875.3506, 521.4097
875.8327, 477.5537
876.3148, 336.5181
876.7969, 214.6396
877.2791, 145.0781
877.7612, 100.6943
878.2433, 49.02637
878.7254, 0.3544920
879.2075, 29.94385
879.6896, 24.01709
880.1718, 9.169434
880.6539, 11.34033
881.1360, 36.27930
881.6181, 68.37891
882.1002, 113.4746
882.5823, 128.7021
883.0645, 93.80371
883.5466, 45.90527
884.0287, 39.37500
884.5108, 62.32422
884.9929, 89.04150
885.4750, 122.4048
885.9572, 140.5098
886.4393, 123.8286
886.9214, 88.36816
887.4035, 56.47900
887.8856, 9.365234
888.3677, 22.54980
888.8499, 129.4336
889.3320, 255.9756
889.8141, 261.5981
890.2962, 179.4951
890.7783, 137.4673
891.2604, 194.5298
891.7426, 247.6841
892.2247, 205.4077
892.7068, 119.9863
893.1889, 63.58545
893.6710, 41.32861
894.1531, 64.33740
894.6353, 149.3975
895.1174, 260.1787
895.5995, 365.5576
896.0816, 456.8120
896.5637, 473.0215
897.0458, 385.5889
897.5280, 287.8618
898.0101, 285.8228
898.4922, 324.5205
898.9743, 331.7031
899.4564, 243.1621
899.9385, 205.7061
900.4207, 278.3926
900.9028, 365.7515
901.3849, 355.2451
901.8670, 240.5342
902.3491, 141.6572
902.8312, 69.60840
903.3134, 24.10156
903.7955, 11.62500
904.2776, 22.84521
904.7597, 51.07227
905.2418, 112.3438
905.7239, 139.7954
906.2061, 69.08154
906.6882, 14.78271
907.1703, 42.09570
907.6524, 5.2733999E-02
908.1345, 31.37646
908.6166, 47.38965
909.0988, 60.15137
909.5809, 107.6050
910.0630, 166.4980
910.5451, 183.8711
911.0272, 146.6196
911.5093, 117.9761
911.9915, 141.6450
912.4736, 173.8315
912.9557, 175.6895
913.4378, 130.0547
913.9199, 148.6572
914.4020, 253.2617
914.8842, 345.0376
915.3663, 302.7314
915.8484, 196.1655
916.3305, 217.6782
916.8126, 376.4888
917.2947, 502.0850
917.7769, 485.3242
918.2590, 409.0659
918.7411, 307.1436
919.2232, 177.2783
919.7053, 119.8125
920.1874, 163.3193
920.6696, 199.9307
921.1517, 141.6953
921.6338, 24.92334
922.1159, 10.55566
922.5980, 26.41162
923.0801, 68.79199
923.5623, 43.13232
924.0444, 38.06006
924.5265, 150.8159
925.0086, 372.4370
925.4907, 451.8828
925.9728, 335.9609
926.4550, 191.3447
926.9371, 56.21875
927.4191, 46.25146
927.9012, 4.378906
928.3834, 155.9629
928.8655, 291.4717
929.3476, 303.8628
929.8297, 280.9243
930.3118, 277.6909
930.7939, 285.2368
931.2761, 259.3462
931.7582, 169.1206
932.2403, 106.7432
932.7224, 104.6548
933.2045, 133.1675
933.6866, 110.1753
934.1688, 48.71387
934.6509, 14.88770
935.1330, 43.71533
935.6151, 95.99072
936.0972, 177.4170
936.5793, 255.2856
937.0615, 260.7075
937.5436, 132.4463
938.0257, 36.32471
938.5078, 7.498047
938.9899, 17.34326
939.4720, 28.38574
939.9542, 33.28320
940.4363, 16.07324
940.9184, 146.5645
941.4005, 278.6025
941.8826, 371.4346
942.3647, 418.9912
942.8469, 410.4199
943.3290, 283.8032
943.8111, 208.8374
944.2932, 207.5356
944.7753, 224.5469
945.2574, 193.2383
945.7396, 130.8203
946.2217, 154.2749
946.7038, 284.2700
947.1859, 384.7227
947.6680, 305.8013
948.1501, 178.5430
948.6323, 121.8184
949.1144, 175.6982
949.5965, 195.9722
950.0786, 170.4575
950.5607, 134.5918
951.0428, 110.5762
951.5250, 97.99951
952.0071, 80.02881
952.4892, 57.51416
952.9713, 45.87646
953.4534, 76.18018
953.9355, 104.1411
954.4177, 81.24756
954.8998, 9.401855
955.3819, 1.225586
955.8640, 94.54346
956.3461, 175.0176
956.8282, 192.6714
957.3104, 170.3794
957.7925, 188.1406
958.2746, 235.9385
958.7567, 263.3540
959.2388, 237.1348
959.7209, 189.5649
960.2031, 120.4062
960.6852, 45.15576
961.1673, 10.12891
961.6494, 39.42041
962.1315, 52.20850
962.6136, 24.20996
963.0958, 15.35791
963.5779, 5.089355
964.0600, 39.15723
964.5421, 65.74512
965.0242, 53.02539
965.5063, 35.36768
965.9885, 18.86914
966.4706, 8.418457
966.9527, 11.81836
967.4348, 34.81104
967.9169, 56.25879
968.3990, 76.75098
968.8812, 91.07666
969.3633, 84.17041
969.8454, 68.43896
970.3275, 81.43359
970.8096, 133.0757
971.2917, 164.2910
971.7739, 111.3184
972.2560, 52.00391
972.7381, 43.95361
973.2202, 94.18994
973.7023, 140.0986
974.1844, 186.6411
974.6666, 207.5498
975.1487, 150.3618
975.6308, 70.88428
976.1129, 92.39258
976.5950, 200.8149
977.0771, 273.2964
977.5593, 223.8013
978.0414, 158.2812
978.5235, 118.5674
979.0056, 98.92529
979.4877, 71.42969
979.9698, 32.93896
980.4520, 11.20605
980.9341, 10.68311
981.4162, 36.55664
981.8983, 133.8472
982.3804, 259.3848
982.8625, 319.4678
983.3447, 206.1763
983.8268, 123.2676
984.3089, 125.2417
984.7910, 158.0908
985.2731, 126.6899
985.7552, 37.34277
986.2374, 11.56152
986.7195, 79.45117
987.2016, 153.8784
987.6837, 137.9731
988.1658, 82.05615
988.6479, 41.64160
989.1301, 26.53320
989.6122, 31.22363
990.0943, 62.68311
990.5764, 100.2520
991.0585, 138.6416
991.5406, 173.3535
992.0228, 151.3394
992.5049, 74.23828
992.9870, 27.44043
993.4691, 95.09863
993.9512, 194.7583
994.4333, 282.5464
994.9155, 352.1133
995.3976, 370.8247
995.8797, 325.6494
996.3618, 259.6133
996.8439, 176.9390
997.3260, 93.98779
997.8082, 58.79736
998.2903, 62.24072
998.7724, 60.87842
999.2545, 23.45068
999.7366, 9.290527
1000.219, 15.10156
1000.701, 5.917480
1001.183, 12.18164
1001.665, 51.45654
1002.147, 14.19238
1002.629, 136.6938
1003.111, 294.4849
1003.594, 307.1763
1004.076, 235.3076
1004.558, 180.3696
1005.040, 166.8271
1005.522, 155.0190
1006.004, 143.7471
1006.486, 119.7690
1006.968, 55.68066
1007.451, 54.44531
1007.933, 45.88965
1008.415, 84.87207
1008.897, 236.9238
1009.379, 386.7930
1009.861, 485.4795
1010.343, 448.5469
1010.825, 292.6196
1011.307, 185.8618
1011.790, 169.9106
1012.272, 181.5205
1012.754, 223.9629
1013.236, 274.5303
1013.718, 257.3003
1014.200, 186.2754
1014.682, 134.6392
1015.164, 151.9111
1015.646, 164.7969
1016.129, 90.39795
1016.611, 2.196777
1017.093, 4.834473
1017.575, 184.5356
1018.057, 247.5215
1018.539, 148.8784
1019.021, 14.09521
1019.503, 11.54736
1019.985, 30.34570
1020.468, 64.09521
1020.950, 78.03857
1021.432, 91.30664
1021.914, 112.5649
1022.396, 133.3545
1022.878, 152.3848
1023.360, 169.0151
1023.842, 161.9546
1024.325, 130.3887
1024.807, 105.3638
1025.289, 76.78711
1025.771, 86.36035
1026.253, 158.9492
1026.735, 285.3745
1027.217, 366.2456
1027.699, 403.8892
1028.182, 275.0010
1028.664, 356.4907
1029.146, 350.8105
1029.628, 339.6201
1030.110, 444.9517
1030.592, 329.8145
1031.074, 429.1904
1031.556, 440.0854
1032.038, 488.5034
1032.521, 449.2148
1033.003, 434.3418
1033.485, 503.1289
1033.967, 522.4258
1034.449, 465.1143
1034.931, 503.8096
1035.413, 365.2891
1035.895, 378.4497
1036.377, 455.9014
1036.860, 392.6660
1037.342, 422.7310
1037.824, 414.4688
1038.306, 239.2007
1038.788, 348.7842
1039.270, 332.2622
1039.752, 186.3428
1040.234, 280.0083
1040.717, 147.4990
1041.199, 93.00439
1041.681, 96.64844
1042.163, 35.52100
1042.645, 71.26611
1043.127, 9.697754
1043.609, 15.42969
1044.091, 3.299316
1044.573, 33.76709
1045.056, 66.71289
1045.538, 95.69824
1046.020, 119.2324
1046.502, 127.8203
1046.984, 121.1094
1047.466, 127.2769
1047.948, 176.5420
1048.430, 226.5542
1048.912, 262.6011
1049.395, 282.6250
1049.877, 260.8604
1050.359, 196.0020
1050.841, 148.1533
1051.323, 143.0615
1051.805, 169.8750
1052.287, 241.4336
1052.769, 331.5913
1053.252, 387.4404
1053.734, 389.2295
1054.216, 364.0962
1054.698, 298.6694
1055.180, 233.8564
1055.662, 227.3472
1056.144, 262.0615
1056.626, 286.7739
1057.109, 295.6509
1057.591, 291.1548
1058.073, 235.1997
1058.555, 204.3540
1059.037, 264.2041
1059.519, 403.8931
1060.001, 462.7324
1060.483, 434.4727
1060.965, 387.9443
1061.448, 363.1167
1061.930, 333.4878
1062.412, 255.8848
1062.894, 154.3008
1063.376, 70.52490
1063.858, 15.54395
1064.340, 1.575684
1064.822, 50.05420
1065.304, 104.8384
1065.786, 75.66309
1066.269, 3.561523
1066.751, 5.941895
1067.233, 98.96631
1067.715, 169.7295
1068.197, 75.42334
1068.679, 37.43408
1069.161, 66.19531
1069.643, 12.85889
1070.126, 10.81641
1070.608, 2.562988
1071.090, 1.368164
1071.572, 25.38818
1072.054, 60.62891
1072.536, 64.79102
1073.018, 58.91846
1073.500, 97.31738
1073.983, 259.6182
1074.465, 349.8379
1074.947, 324.9766
1075.429, 262.8340
1075.911, 282.5176
1076.393, 349.6758
1076.875, 357.0020
1077.357, 282.1709
1077.839, 202.1885
1078.322, 143.4141
1078.804, 104.6602
1079.286, 79.36426
1079.768, 68.71729
1080.250, 109.1377
1080.732, 201.9717
1081.214, 280.1035
1081.696, 312.7129
1082.178, 308.9995
1082.661, 251.5811
1083.143, 167.7295
1083.625, 122.6528
1084.107, 140.3213
1084.589, 166.6240
1085.071, 205.2339
1085.553, 231.3540
1086.035, 201.0835
1086.518, 76.72754
1087.000, 151.2563
1087.482, 192.4980
1087.964, 197.1396
1088.446, 72.16895
1088.928, 116.7339
1089.410, 94.89551
1089.892, 71.39111
1090.375, 142.9561
1090.857, 42.45850
1091.339, 114.7388
1091.821, 119.5884
1092.303, 156.9111
1092.785, 127.4375
1093.267, 120.0542
1093.749, 181.7109
1094.231, 206.8462
1094.714, 173.9834
1095.196, 219.9336
1095.678, 128.1040
1096.160, 159.3472
1096.642, 245.8281
1097.124, 227.2329
1097.606, 280.7969
1098.088, 305.8081
1098.570, 201.1396
1099.053, 325.0400
1099.535, 330.0068
1100.017, 344.6455
1100.499, 319.2173
1100.981, 263.0308
1101.463, 214.2158
1101.945, 176.0117
1102.427, 168.2227
1102.910, 240.4536
1103.392, 325.0752
1103.874, 341.9185
1104.356, 281.2173
1104.838, 224.4282
1105.320, 173.5991
1105.802, 129.7866
1106.284, 92.89990
1106.766, 63.34570
1107.249, 43.51709
1107.731, 32.58447
1108.213, 16.27295
1108.695, 18.02344
1109.177, 24.06543
1109.659, 21.93457
1110.141, 83.49365
1110.623, 81.94873
1111.105, 50.57666
1111.588, 65.02734
1112.070, 179.1548
1112.552, 260.0488
1113.034, 273.8574
1113.516, 252.7173
1113.998, 197.8154
1114.480, 118.7319
1114.962, 121.4668
1115.445, 196.7075
1115.927, 256.3564
1116.409, 226.8086
1116.891, 185.9023
1117.373, 182.4634
1117.855, 197.4287
1118.337, 185.6821
1118.819, 145.3037
1119.302, 81.28174
1119.784, 18.46289
1120.266, 85.21240
1120.748, 9.482910
1121.230, 117.7148
1121.712, 200.4277
1122.194, 219.3765
1122.676, 199.9404
1123.158, 121.9116
1123.641, 69.09912
1124.123, 105.7241
1124.605, 181.8931
1125.087, 197.1226
1125.569, 166.0273
1126.051, 130.3208
1126.533, 86.72119
1127.015, 63.17041
1127.497, 74.41650
1127.980, 98.94434
1128.462, 113.4565
1128.944, 120.7173
1129.426, 135.3271
1129.908, 158.6089
1130.390, 183.1484
1130.872, 207.7993
1131.354, 229.7334
1131.837, 255.2578
1132.319, 277.1685
1132.801, 248.5972
1133.283, 169.4189
1133.765, 111.4126
1134.247, 104.9375
1134.729, 115.0737
1135.211, 98.83936
1135.693, 86.31738
1136.176, 129.1543
1136.658, 273.6670
1137.140, 301.0405
1137.622, 185.4341
1138.104, 75.55615
1138.586, 105.2949
1139.068, 192.7944
1139.550, 219.9922
1140.032, 201.7207
1140.515, 215.1670
1140.997, 327.3442
1141.479, 389.3560
1141.961, 376.4697
1142.443, 311.6660
1142.925, 202.9136
1143.407, 74.63672
1143.889, 18.11768
1144.372, 68.51855
1144.854, 70.31006
1145.336, 23.92188
1145.818, 121.2515
1146.300, 181.9624
1146.782, 211.4775
1147.264, 239.5552
1147.746, 262.7617
1148.229, 260.8560
1148.711, 199.3574
1149.193, 145.0898
1149.675, 128.7490
1150.157, 144.8604
1150.639, 190.7827
1151.121, 272.1392
1151.603, 297.2612
1152.085, 260.5210
1152.568, 201.0166
1153.050, 130.5615
1153.532, 65.66064
1154.014, 7.157227
1154.496, 66.16504
1154.978, 6.166992
1155.460, 259.3193
1155.942, 410.6191
1156.424, 378.5068
1156.906, 271.5430
1157.389, 189.4653
1157.871, 129.5425
1158.353, 88.55176
1158.835, 66.85547
1159.317, 70.19336
1159.799, 110.3711
1160.281, 144.3232
1160.763, 143.7212
1161.246, 126.4121
1161.728, 129.0845
1162.210, 144.9458
1162.692, 156.0269
1163.174, 144.3799
1163.656, 143.9131
1164.138, 156.7358
1164.620, 183.5303
1165.103, 250.7529
1165.585, 331.4272
1166.067, 310.0449
1166.549, 184.4424
1167.031, 91.66699
1167.513, 143.6494
1167.995, 189.2471
1168.477, 155.0737
1168.959, 89.17920
1169.442, 147.7588
1169.924, 301.6509
1170.406, 353.7144
1170.888, 230.5493
1171.370, 96.44189
1171.852, 21.19482
1172.334, 8.180664
1172.816, 73.56934
1173.298, 214.0864
1173.781, 276.7876
1174.263, 263.6177
1174.745, 231.2446
1175.227, 191.3184
1175.709, 163.3145
1176.191, 162.7192
1176.673, 183.3770
1177.155, 214.6841
1177.638, 258.6919
1178.120, 292.3633
1178.602, 325.5537
1179.084, 340.8647
1179.566, 310.1694
1180.048, 265.5107
1180.530, 241.2275
1181.012, 234.1538
1181.495, 202.8213
1181.977, 126.3999
1182.459, 103.7305
1182.941, 170.8779
1183.423, 257.6567
1183.905, 276.8706
1184.387, 258.1724
1184.869, 238.4741
1185.351, 222.1392
1185.833, 220.6592
1186.316, 245.1968
1186.798, 253.0205
1187.280, 211.0518
1187.762, 151.3296
1188.244, 137.5620
1188.726, 154.8296
1189.208, 169.4775
1189.690, 143.6758
1190.173, 164.6279
1190.655, 261.1870
1191.137, 355.1445
1191.619, 366.5571
1192.101, 323.9150
1192.583, 303.5513
1193.065, 300.7090
1193.547, 279.8989
1194.030, 186.6357
1194.512, 134.7119
1194.994, 158.8755
1195.476, 219.4326
1195.958, 262.6626
1196.440, 287.0034
1196.922, 282.7656
1197.404, 245.5703
1197.886, 213.7500
1198.369, 221.2622
1198.851, 216.3936
1199.333, 165.6982
1199.815, 92.57422
1200.297, 90.09619
1200.779, 142.2734
1201.261, 180.1792
1201.743, 177.3506
1202.225, 157.6812
1202.708, 120.3379
1203.190, 92.07080
1203.672, 86.37842
1204.154, 101.2041
1204.636, 114.2192
1205.118, 124.3242
1205.600, 119.2627
1206.082, 84.34180
1206.565, 43.12354
1207.047, 20.45947
1207.529, 69.21289
1208.011, 38.72070
1208.493, 68.09033
1208.975, 132.5020
1209.457, 142.3721
1209.939, 136.8413
1210.422, 102.7744
1210.904, 78.67041
1211.386, 87.44043
1211.868, 124.9136
1212.350, 208.6064
1212.832, 335.0889
1213.314, 351.2969
1213.796, 195.7446
1214.278, 40.33203
1214.760, 37.86719
1215.243, 83.13525
1215.725, 87.85303
1216.207, 52.88281
1216.689, 19.59473
1217.171, 11.85791
1217.653, 4.804688
1218.135, 75.97607
1218.617, 167.4692
1219.100, 202.4565
1219.582, 225.9966
1220.064, 310.5176
1220.546, 489.6011
1221.028, 524.7500
1221.510, 410.1865
1221.992, 283.8521
1222.474, 240.3140
1222.957, 220.0547
1223.439, 177.7646
1223.921, 124.1694
1224.403, 84.08008
1224.885, 56.26807
1225.367, 52.76221
1225.849, 75.93652
1226.331, 112.7007
1226.813, 170.5249
1227.296, 221.2583
1227.778, 244.6841
1228.260, 237.6226
1228.742, 185.6367
1229.224, 76.90918
1229.706, 26.09473
1230.188, 71.60547
1230.670, 136.4619
1231.152, 143.0356
1231.635, 128.4297
1232.117, 133.3926
1232.599, 161.2822
1233.081, 162.5303
1233.563, 130.0830
1234.045, 151.7495
1234.527, 308.0498
1235.009, 461.5273
1235.492, 457.8740
1235.974, 355.3906
1236.456, 267.4395
1236.938, 175.1416
1237.420, 131.2598
1237.902, 139.5391
1238.384, 156.8965
1238.866, 152.4814
1239.349, 145.3159
1239.831, 152.5239
1240.313, 171.0952
1240.795, 196.4531
1241.277, 246.8350
1241.759, 268.7070
1242.241, 257.6445
1242.723, 225.9565
1243.205, 152.6816
1243.688, 90.33691
1244.170, 98.82764
1244.652, 162.1367
1245.134, 194.8223
1245.616, 189.7222
1246.098, 207.1602
1246.580, 267.8154
1247.062, 305.0146
1247.544, 230.6606
1248.026, 124.5947
1248.509, 62.01416
1248.991, 43.21094
1249.473, 15.77783
1249.955, 23.44434
1250.437, 15.78076
1250.919, 78.16309
1251.401, 172.8726
1251.883, 183.3462
1252.366, 158.4639
1252.848, 150.3257
1253.330, 161.8130
1253.812, 176.3247
1254.294, 194.2217
1254.776, 201.1006
1255.258, 173.0254
1255.740, 153.1367
1256.223, 207.6504
1256.705, 268.5518
1257.187, 210.0103
1257.669, 60.29150
1258.151, 14.17773
1258.633, 75.03809
1259.115, 139.0879
1259.597, 130.6694
1260.079, 108.6401
1260.562, 123.9019
1261.044, 145.7998
1261.526, 115.7021
1262.008, 30.09180
1262.490, 0.6416020
1262.972, 31.72607
1263.454, 0.0000000E+00
##END=



