##NAMES=Safflorite
##RRUFFID=R070611
##IDEAL CHEMISTRY=(Co^2+^,Fe^2+^,Ni^2+^)As_2_
##LOCALITY=Timiskaming County, Ontario, Canada
##OWNER=RRUFF
##SOURCE=
##DESCRIPTION=Dark gray tarnished metallic prismatic crystals embedded in metalic spherules with native silver. Crystal structure reported in Yang et al (2008). This is the structure type sample.
##STATUS=The identification of this mineral is confirmed by single-crystal X-ray diffraction and chemical analysis.
##URL=rruff.info/R070611
##MEASURED CHEMISTRY=(Co_0.61_Ni_0.22_Fe_0.17_)_Σ=1_(As_1.99_S_0.01_)_Σ=2_
140.9453, 0.0000000E+00
141.4274, 32.99634
141.9095, 56.61450
142.3917, 31.39563
142.8738, 0.1673580
143.3559, 0.1185300
143.8380, 29.61707
144.3201, 61.63745
144.8022, 70.27771
145.2844, 52.51306
145.7665, 46.63306
146.2486, 67.88721
146.7307, 93.71960
147.2128, 109.5790
147.6949, 104.9695
148.1771, 92.61682
148.6592, 90.90564
149.1413, 91.60999
149.6234, 85.74133
150.1055, 60.54700
150.5877, 24.52588
151.0698, 2.686768
151.5519, 6.881958
152.0340, 19.67261
152.5161, 19.40112
152.9982, 6.765137
153.4804, 3.570435
153.9625, 0.8353270
154.4446, 21.73804
154.9267, 33.87085
155.4088, 15.85864
155.8909, 3.382935
156.3731, 2.485474
156.8552, 24.26514
157.3373, 58.57922
157.8194, 74.42969
158.3015, 65.14868
158.7836, 54.09143
159.2658, 42.61511
159.7479, 33.23767
160.2300, 29.86731
160.7121, 34.57605
161.1942, 43.01941
161.6763, 41.43494
162.1585, 13.11157
162.6406, 2.371216
163.1227, 13.05273
163.6048, 41.47546
164.0869, 58.62292
164.5690, 48.42529
165.0512, 14.51599
165.5333, 4.009033
166.0154, 5.184204
166.4975, 17.04041
166.9796, 28.53760
167.4617, 37.16211
167.9439, 43.72241
168.4260, 48.50818
168.9081, 51.75928
169.3902, 47.65820
169.8723, 25.73218
170.3544, 6.828369
170.8366, 5.049072
171.3187, 19.09888
171.8008, 34.64429
172.2829, 36.96143
172.7650, 21.77429
173.2471, 14.86157
173.7293, 20.83167
174.2114, 32.35461
174.6935, 45.56213
175.1756, 59.94946
175.6577, 70.53369
176.1398, 67.89783
176.6220, 50.82190
177.1041, 39.72900
177.5862, 43.76697
178.0683, 55.25220
178.5504, 61.97485
179.0325, 61.24146
179.5147, 54.95398
179.9968, 43.67688
180.4789, 26.97644
180.9610, 13.95251
181.4431, 10.20154
181.9252, 13.98425
182.4074, 18.43945
182.8895, 21.07263
183.3716, 24.82678
183.8537, 35.02258
184.3358, 53.04407
184.8179, 66.34558
185.3001, 60.27478
185.7822, 34.57019
186.2643, 16.49927
186.7464, 19.47314
187.2285, 30.17554
187.7106, 39.33960
188.1928, 45.45764
188.6749, 49.58472
189.1570, 54.00171
189.6391, 60.31433
190.1212, 60.45764
190.6033, 47.12646
191.0855, 29.80566
191.5676, 13.58435
192.0497, 0.2197270
192.5318, 8.879883
193.0139, 5.293335
193.4960, 19.33459
193.9782, 38.75366
194.4603, 45.62256
194.9424, 46.33630
195.4245, 47.65991
195.9066, 53.00598
196.3887, 59.76086
196.8709, 58.65527
197.3530, 36.53247
197.8351, 24.01868
198.3172, 34.86548
198.7993, 55.83960
199.2814, 68.25854
199.7636, 60.59241
200.2457, 36.78296
200.7278, 22.66125
201.2099, 29.21924
201.6920, 35.89490
202.1741, 37.75537
202.6563, 36.99475
203.1384, 38.93713
203.6205, 48.02161
204.1026, 63.75500
204.5847, 68.26892
205.0668, 48.98413
205.5490, 32.38342
206.0311, 27.53784
206.5132, 32.52026
206.9953, 41.40344
207.4774, 50.33765
207.9595, 59.53076
208.4417, 62.78979
208.9238, 56.09973
209.4059, 48.40491
209.8880, 44.21191
210.3701, 43.12170
210.8522, 41.24646
211.3344, 33.33887
211.8165, 18.84216
212.2986, 20.29028
212.7807, 53.94202
213.2628, 89.56665
213.7449, 108.8120
214.2271, 110.2933
214.7092, 99.86853
215.1913, 79.52087
215.6734, 47.47156
216.1555, 24.02295
216.6376, 4.531738
217.1198, 3.265137
217.6019, 15.49463
218.0840, 62.77112
218.5661, 110.1440
219.0482, 126.1680
219.5303, 111.0453
220.0125, 101.3260
220.4946, 107.8816
220.9767, 119.6333
221.4588, 122.8558
221.9409, 114.9498
222.4230, 102.7424
222.9052, 90.87793
223.3873, 79.38000
223.8694, 73.06921
224.3515, 74.46692
224.8336, 81.14893
225.3158, 90.75293
225.7979, 104.6626
226.2800, 116.6885
226.7621, 119.9441
227.2442, 115.8751
227.7263, 109.1815
228.2085, 100.4314
228.6906, 90.39893
229.1727, 78.91931
229.6548, 62.03271
230.1369, 52.06140
230.6190, 66.54712
231.1012, 100.4227
231.5833, 126.5897
232.0654, 123.1112
232.5475, 99.93872
233.0296, 92.09558
233.5117, 111.9297
233.9939, 136.3140
234.4760, 147.5592
234.9581, 147.3488
235.4402, 143.6744
235.9223, 139.0299
236.4044, 133.1707
236.8866, 125.7139
237.3687, 112.0784
237.8508, 103.1733
238.3329, 108.7449
238.8150, 126.4189
239.2971, 143.1720
239.7793, 148.4279
240.2614, 143.4817
240.7435, 142.1555
241.2256, 148.6329
241.7077, 153.2924
242.1898, 149.5837
242.6720, 139.2325
243.1541, 130.8871
243.6362, 133.6881
244.1183, 147.2363
244.6004, 155.2570
245.0825, 152.9791
245.5647, 148.7775
246.0468, 145.7744
246.5289, 143.2070
247.0110, 142.1980
247.4931, 146.7013
247.9752, 157.1471
248.4574, 161.0372
248.9395, 152.6079
249.4216, 141.8256
249.9037, 132.3145
250.3858, 123.9529
250.8679, 117.0105
251.3501, 111.7535
251.8322, 108.2422
252.3143, 104.1578
252.7964, 96.50952
253.2785, 91.08069
253.7606, 88.74414
254.2428, 90.31018
254.7249, 97.75623
255.2070, 118.9398
255.6891, 157.5750
256.1712, 173.7057
256.6534, 137.5642
257.1355, 102.6411
257.6176, 91.31433
258.0997, 100.6558
258.5818, 113.6591
259.0639, 113.6788
259.5461, 98.84448
260.0282, 91.31128
260.5103, 97.76147
260.9924, 106.5648
261.4745, 116.2493
261.9566, 125.1241
262.4388, 130.3334
262.9209, 128.2472
263.4030, 118.0643
263.8851, 111.1317
264.3672, 110.8247
264.8493, 110.9409
265.3315, 111.7477
265.8136, 111.9635
266.2957, 108.4358
266.7778, 93.65161
267.2599, 65.57434
267.7420, 53.46838
268.2242, 80.12451
268.7063, 103.8503
269.1884, 112.6217
269.6705, 107.8197
270.1526, 95.66455
270.6347, 79.75232
271.1169, 59.90295
271.5990, 44.37549
272.0811, 35.01721
272.5632, 28.66284
273.0453, 25.31885
273.5274, 24.36169
274.0096, 24.90491
274.4917, 26.95007
274.9738, 30.61133
275.4559, 34.29480
275.9380, 35.96704
276.4201, 41.35779
276.9023, 57.84180
277.3844, 78.83203
277.8665, 91.95667
278.3486, 87.88599
278.8307, 68.19165
279.3128, 51.54651
279.7950, 39.19641
280.2771, 29.01306
280.7592, 18.36304
281.2413, 9.834473
281.7234, 8.427490
282.2055, 18.11963
282.6877, 36.71265
283.1698, 50.38257
283.6519, 61.17224
284.1340, 63.39172
284.6161, 48.18884
285.0982, 25.74866
285.5804, 9.851807
286.0625, 8.399048
286.5446, 18.35095
287.0267, 27.88403
287.5088, 42.97498
287.9909, 48.90662
288.4731, 35.92908
288.9552, 15.48425
289.4373, 1.109619
289.9194, 0.4460450
290.4015, 6.756592
290.8836, 11.06348
291.3658, 12.10852
291.8479, 10.32715
292.3300, 1.805176
292.8121, 11.73669
293.2942, 7.389526
293.7763, 18.16455
294.2585, 52.99451
294.7406, 70.21985
295.2227, 60.39380
295.7048, 48.86914
296.1869, 37.35522
296.6690, 26.01172
297.1512, 13.51062
297.6333, 0.3265380
298.1154, 11.59448
298.5975, 12.06152
299.0796, 6.069580
299.5617, 17.45081
300.0439, 15.39697
300.5260, 10.33594
301.0081, 10.86646
301.4902, 18.27197
301.9723, 25.46973
302.4544, 20.39758
302.9366, 4.589600
303.4187, 17.88965
303.9008, 8.974487
304.3829, 4.149170
304.8650, 13.20020
305.3471, 16.65552
305.8293, 16.31665
306.3114, 12.31494
306.7935, 2.483765
307.2756, 0.4442140
307.7577, 12.27563
308.2398, 24.86108
308.7220, 31.14697
309.2041, 31.10730
309.6862, 27.63354
310.1683, 21.43298
310.6504, 12.10156
311.1325, 9.336670
311.6147, 16.57056
312.0968, 28.11218
312.5789, 46.49255
313.0610, 67.67542
313.5431, 81.84277
314.0252, 80.14758
314.5074, 64.62109
314.9895, 51.68066
315.4716, 41.21277
315.9537, 34.05688
316.4358, 33.13892
316.9179, 35.02771
317.4001, 33.31323
317.8822, 22.07288
318.3643, 6.528320
318.8464, 5.485596
319.3285, 29.68787
319.8106, 47.74463
320.2928, 45.17859
320.7749, 32.77356
321.2570, 24.11816
321.7391, 25.84839
322.2212, 31.11218
322.7033, 24.60535
323.1855, 2.8809000E-02
323.6676, 17.24329
324.1497, 16.54187
324.6318, 5.989990
325.1139, 10.39734
325.5960, 32.70557
326.0782, 53.97791
326.5603, 65.86499
327.0424, 67.74487
327.5245, 64.74072
328.0066, 53.68237
328.4887, 41.04077
328.9709, 31.82861
329.4530, 26.76099
329.9351, 23.50098
330.4172, 21.28687
330.8993, 19.87488
331.3814, 14.27502
331.8636, 6.011230
332.3457, 19.44788
332.8278, 2.656616
333.3099, 42.44470
333.7920, 80.96790
334.2741, 86.00488
334.7563, 66.84143
335.2384, 56.67871
335.7205, 62.05872
336.2026, 71.80322
336.6847, 77.03259
337.1668, 78.71973
337.6490, 80.42151
338.1311, 88.11060
338.6132, 95.28015
339.0953, 88.05359
339.5774, 62.66479
340.0595, 37.09253
340.5417, 24.72949
341.0238, 22.54614
341.5059, 24.56226
341.9880, 27.34094
342.4701, 31.09167
342.9522, 42.11475
343.4344, 60.08960
343.9165, 71.23083
344.3986, 63.72693
344.8807, 43.83069
345.3628, 34.99390
345.8449, 44.10730
346.3271, 56.05432
346.8092, 63.49597
347.2913, 66.75720
347.7734, 67.49121
348.2555, 67.33264
348.7376, 63.90991
349.2198, 48.43335
349.7019, 8.070557
350.1840, 15.40015
350.6661, 7.131348
351.1482, 51.71680
351.6303, 75.71875
352.1125, 64.53650
352.5946, 38.26184
353.0767, 27.89661
353.5588, 39.96143
354.0409, 47.55444
354.5230, 43.85925
355.0052, 37.23706
355.4873, 36.56824
355.9694, 42.26636
356.4515, 48.38184
356.9336, 48.06519
357.4157, 38.02673
357.8979, 35.67017
358.3800, 51.19080
358.8621, 64.97888
359.3442, 62.95386
359.8263, 47.37720
360.3084, 33.99524
360.7906, 34.57166
361.2727, 47.73132
361.7548, 53.99854
362.2369, 44.83276
362.7190, 38.51990
363.2011, 43.56592
363.6833, 53.68115
364.1654, 57.84375
364.6475, 50.04468
365.1296, 35.21191
365.6117, 29.68005
366.0938, 42.91223
366.5760, 52.11255
367.0581, 57.43689
367.5402, 57.12061
368.0223, 45.38513
368.5044, 21.84277
368.9865, 1.542114
369.4687, 4.561401
369.9508, 21.64783
370.4329, 43.52075
370.9150, 61.74182
371.3971, 73.96289
371.8792, 76.41138
372.3614, 70.21399
372.8435, 61.50244
373.3256, 55.97156
373.8077, 53.71240
374.2898, 49.32385
374.7719, 40.95605
375.2541, 32.53552
375.7362, 19.67725
376.2183, 7.977051
376.7004, 10.39380
377.1825, 42.34680
377.6646, 88.85132
378.1468, 107.5260
378.6289, 89.86841
379.1110, 65.64014
379.5931, 38.75293
380.0752, 15.83545
380.5573, 6.831665
381.0395, 17.70496
381.5216, 33.47620
382.0037, 37.74097
382.4858, 31.02209
382.9679, 30.41956
383.4500, 46.40466
383.9322, 65.60413
384.4143, 71.00952
384.8964, 60.61951
385.3785, 48.52124
385.8606, 42.07947
386.3427, 39.80688
386.8249, 37.64331
387.3070, 34.29370
387.7891, 32.55933
388.2712, 38.16919
388.7533, 50.33167
389.2354, 56.87939
389.7176, 49.85950
390.1997, 38.16064
390.6818, 32.29419
391.1639, 32.40869
391.6460, 35.13171
392.1281, 38.18237
392.6103, 42.09119
393.0924, 50.63513
393.5745, 76.64612
394.0566, 93.69836
394.5387, 82.50183
395.0208, 54.04761
395.5030, 33.46375
395.9851, 33.42090
396.4672, 45.94421
396.9493, 49.63342
397.4314, 39.61511
397.9135, 26.60303
398.3957, 0.3768310
398.8778, 24.04956
399.3599, 21.39453
399.8420, 10.07556
400.3241, 46.00684
400.8062, 52.18860
401.2884, 14.95227
401.7705, 4.600098
402.2526, 3.331909
402.7347, 17.31067
403.2168, 31.26123
403.6989, 42.88623
404.1811, 49.63538
404.6632, 49.11365
405.1453, 41.99597
405.6274, 33.60339
406.1095, 17.59998
406.5916, 9.801147
407.0738, 22.43481
407.5559, 41.55017
408.0380, 47.85645
408.5201, 35.51416
409.0022, 15.34827
409.4843, 7.335327
409.9665, 14.20288
410.4486, 19.04041
410.9307, 12.92944
411.4128, 6.881714
411.8949, 11.44788
412.3770, 27.19397
412.8592, 40.42493
413.3413, 37.81909
413.8234, 23.77759
414.3055, 17.22034
414.7876, 23.93726
415.2697, 30.41882
415.7519, 19.35205
416.2340, 2.695190
416.7161, 12.81653
417.1982, 6.311890
417.6803, 33.12305
418.1624, 44.99597
418.6446, 42.16833
419.1267, 33.76135
419.6088, 21.30225
420.0909, 8.580688
420.5730, 9.334595
421.0551, 35.69739
421.5373, 55.67102
422.0194, 56.79614
422.5015, 46.77979
422.9836, 33.25293
423.4657, 18.41858
423.9478, 6.231445
424.4300, 3.124023
424.9121, 13.68542
425.3942, 23.01733
425.8763, 30.69543
426.3584, 37.45105
426.8405, 45.74292
427.3227, 54.29224
427.8048, 57.04236
428.2869, 45.80237
428.7690, 21.31665
429.2511, 11.76868
429.7332, 37.69751
430.2154, 57.33264
430.6975, 58.38538
431.1796, 50.05420
431.6617, 45.53088
432.1438, 50.68396
432.6259, 59.62183
433.1081, 60.32849
433.5902, 49.25720
434.0723, 41.19812
434.5544, 40.12000
435.0365, 41.90491
435.5186, 44.69299
436.0008, 48.08374
436.4829, 51.48230
436.9650, 53.48889
437.4471, 54.81787
437.9292, 60.16296
438.4113, 72.93286
438.8935, 83.25378
439.3756, 81.06116
439.8577, 71.75977
440.3398, 66.45886
440.8219, 72.67920
441.3040, 80.08594
441.7862, 76.96851
442.2683, 64.69397
442.7504, 53.22607
443.2325, 45.43231
443.7146, 42.68933
444.1967, 49.98926
444.6789, 73.59430
445.1610, 89.16394
445.6431, 84.27966
446.1252, 69.85406
446.6073, 59.74365
447.0894, 56.76678
447.5716, 58.48248
448.0537, 63.73120
448.5358, 74.26263
449.0179, 74.85455
449.5000, 50.85626
449.9821, 32.10394
450.4643, 35.99976
450.9464, 54.47552
451.4285, 69.53754
451.9106, 70.78467
452.3927, 63.60889
452.8748, 65.01758
453.3570, 82.86212
453.8391, 95.24731
454.3212, 98.73022
454.8033, 97.43732
455.2854, 93.58459
455.7675, 87.89459
456.2497, 81.26453
456.7318, 73.95367
457.2139, 67.53052
457.6960, 59.46893
458.1782, 43.57550
458.6603, 31.65375
459.1424, 32.58307
459.6245, 41.20520
460.1066, 47.53589
460.5887, 41.97626
461.0709, 37.34552
461.5530, 56.62689
462.0351, 98.83398
462.5172, 127.0885
462.9993, 122.0084
463.4814, 98.58679
463.9636, 84.80273
464.4457, 83.72754
464.9278, 80.36163
465.4099, 64.36395
465.8920, 45.27264
466.3741, 37.77094
466.8563, 44.10022
467.3384, 53.44873
467.8205, 53.81989
468.3026, 43.37988
468.7847, 44.21094
469.2668, 72.45087
469.7490, 93.68512
470.2311, 90.27350
470.7132, 71.61377
471.1953, 52.80103
471.6774, 40.70630
472.1595, 36.20337
472.6417, 43.46649
473.1238, 74.51105
473.6059, 91.17480
474.0880, 82.79932
474.5701, 66.82587
475.0522, 53.33978
475.5344, 43.38171
476.0165, 36.71777
476.4986, 37.41492
476.9807, 42.36554
477.4628, 28.92639
477.9449, 18.00470
478.4271, 50.46570
478.9092, 27.90424
479.3913, 19.05939
479.8734, 49.51758
480.3555, 49.78284
480.8376, 41.63373
481.3198, 42.25000
481.8019, 49.70282
482.2840, 56.53717
482.7661, 61.31885
483.2482, 63.56714
483.7303, 61.57581
484.2125, 54.79541
484.6946, 49.87164
485.1767, 46.13184
485.6588, 45.69659
486.1409, 53.86035
486.6230, 67.80646
487.1052, 76.81006
487.5873, 73.57214
488.0694, 60.56830
488.5515, 49.76752
489.0336, 42.08685
489.5157, 35.64246
489.9979, 27.88519
490.4800, 22.74500
490.9621, 24.77234
491.4442, 34.35419
491.9263, 46.94086
492.4084, 58.55444
492.8906, 69.26825
493.3727, 76.89520
493.8548, 81.03046
494.3369, 82.29797
494.8190, 80.88660
495.3011, 77.16864
495.7833, 71.73138
496.2654, 64.67023
496.7475, 56.20471
497.2296, 43.08252
497.7117, 26.05273
498.1938, 20.75824
498.6760, 37.21320
499.1581, 60.54926
499.6402, 71.28381
500.1223, 69.79944
500.6044, 62.90735
501.0865, 48.73407
501.5687, 32.33044
502.0508, 15.60840
502.5329, 0.1938480
503.0150, 6.513306
503.4971, 2.281433
503.9792, 22.98798
504.4614, 34.39703
504.9435, 31.54242
505.4256, 25.68024
505.9077, 8.531189
506.3898, 5.866394
506.8719, 0.1344600
507.3541, 28.37036
507.8362, 61.92120
508.3183, 84.29852
508.8004, 95.78503
509.2825, 89.60687
509.7646, 42.39124
510.2468, 7.540649
510.7289, 14.80920
511.2110, 45.16400
511.6931, 67.01086
512.1752, 67.65509
512.6573, 57.70667
513.1395, 45.69067
513.6216, 32.22626
514.1037, 28.44165
514.5858, 41.09192
515.0679, 58.69757
515.5500, 66.93060
516.0322, 66.30811
516.5143, 64.58173
516.9964, 64.40759
517.4785, 63.08813
517.9606, 58.31873
518.4427, 50.39020
518.9249, 39.15601
519.4070, 24.01996
519.8891, 7.565674
520.3712, 1.261658
520.8533, 1.552307
521.3354, 7.411987
521.8176, 23.22192
522.2997, 37.08099
522.7818, 37.52386
523.2639, 24.79980
523.7460, 8.581055
524.2281, 3.792847
524.7103, 12.05377
525.1924, 12.99567
525.6745, 3.960144
526.1566, 7.680664
526.6387, 22.97992
527.1208, 37.53564
527.6030, 45.42328
528.0851, 44.43958
528.5672, 40.73114
529.0493, 37.52130
529.5314, 35.44708
530.0135, 38.16553
530.4957, 47.79767
530.9778, 55.52722
531.4599, 51.20752
531.9420, 34.76764
532.4241, 25.41101
532.9063, 32.31195
533.3884, 37.28412
533.8705, 27.80847
534.3526, 10.81128
534.8347, 1.642334
535.3168, 4.700195
535.7990, 0.1333010
536.2811, 13.00128
536.7632, 49.30573
537.2453, 68.09930
537.7274, 50.46313
538.2095, 30.67877
538.6917, 24.35394
539.1738, 28.19659
539.6559, 31.08344
540.1380, 25.27936
540.6201, 17.94012
541.1022, 26.75201
541.5844, 54.31171
542.0665, 70.30786
542.5486, 59.95990
543.0307, 39.58191
543.5128, 27.07855
543.9949, 22.49591
544.4771, 22.52106
544.9592, 32.33411
545.4413, 42.26050
545.9234, 39.29388
546.4055, 24.93628
546.8876, 12.79712
547.3698, 10.95337
547.8519, 16.92242
548.3340, 22.04388
548.8161, 27.70630
549.2982, 30.54285
549.7803, 28.27209
550.2625, 24.74603
550.7446, 21.75195
551.2267, 20.23676
551.7088, 22.32867
552.1909, 32.00134
552.6730, 46.53320
553.1552, 48.00677
553.6373, 28.15210
554.1194, 14.22949
554.6015, 24.94324
555.0836, 42.10419
555.5657, 47.00482
556.0479, 35.69202
556.5300, 23.56140
557.0121, 19.71655
557.4942, 21.56091
557.9763, 25.45990
558.4584, 31.05353
558.9406, 35.08307
559.4227, 34.32861
559.9048, 29.13715
560.3869, 23.84326
560.8690, 10.44434
561.3511, 7.007507
561.8333, 28.30042
562.3154, 54.96307
562.7975, 64.21198
563.2796, 53.18854
563.7617, 36.16827
564.2438, 27.79968
564.7260, 29.29535
565.2081, 30.35339
565.6902, 29.17926
566.1723, 30.22272
566.6544, 40.37103
567.1365, 51.15692
567.6187, 49.57336
568.1008, 29.37103
568.5829, 11.32635
569.0650, 18.52271
569.5471, 42.19287
570.0292, 57.00073
570.5114, 58.83905
570.9935, 53.53217
571.4756, 43.82996
571.9577, 30.35040
572.4398, 21.80310
572.9219, 19.01471
573.4041, 20.90381
573.8862, 33.49841
574.3683, 46.35162
574.8504, 41.79755
575.3325, 18.05420
575.8146, 2.383118
576.2968, 12.55365
576.7789, 66.75726
577.2610, 90.14771
577.7431, 58.54407
578.2252, 28.53870
578.7073, 20.57068
579.1895, 25.88910
579.6716, 34.57520
580.1537, 43.14490
580.6358, 50.95184
581.1179, 57.49402
581.6000, 62.35956
582.0822, 64.45776
582.5643, 63.65344
583.0464, 58.04700
583.5285, 43.39496
584.0106, 20.92523
584.4927, 9.805420
584.9749, 19.58203
585.4570, 28.39056
585.9391, 28.44873
586.4212, 24.35553
586.9033, 21.13104
587.3854, 20.38348
587.8676, 22.58112
588.3497, 29.82318
588.8318, 42.34473
589.3139, 45.97455
589.7960, 33.74896
590.2781, 23.33917
590.7603, 22.55249
591.2424, 26.20477
591.7245, 28.63434
592.2066, 28.82385
592.6887, 26.23163
593.1708, 17.01599
593.6530, 5.765381
594.1351, 2.911377
594.6172, 10.09467
595.0993, 19.26013
595.5814, 25.19379
596.0635, 27.89734
596.5457, 27.09979
597.0278, 17.65924
597.5099, 11.85059
597.9920, 15.90015
598.4741, 22.16638
598.9562, 21.95007
599.4384, 14.80432
599.9205, 7.886414
600.4026, 7.908508
600.8847, 13.98126
601.3668, 20.26215
601.8489, 27.42993
602.3311, 33.24518
602.8132, 36.96271
603.2953, 38.81689
603.7774, 37.86810
604.2595, 33.51941
604.7416, 31.63892
605.2238, 37.10028
605.7059, 45.69843
606.1880, 53.10693
606.6701, 58.60205
607.1522, 59.97156
607.6343, 55.27667
608.1165, 46.46179
608.5986, 39.80151
609.0807, 33.37134
609.5628, 32.30627
610.0449, 39.33313
610.5270, 49.32526
611.0092, 62.40735
611.4913, 75.79510
611.9734, 82.23364
612.4555, 76.01788
612.9376, 61.50458
613.4197, 47.14227
613.9019, 32.71387
614.3840, 20.61945
614.8661, 11.60504
615.3482, 5.164063
615.8303, 0.3154910
616.3124, 4.957642
616.7946, 3.782471
617.2767, 8.988037
617.7588, 23.61072
618.2409, 37.49634
618.7230, 47.46143
619.2051, 44.63281
619.6873, 25.26074
620.1694, 0.4786380
620.6515, 12.41693
621.1336, 12.98242
621.6157, 2.329346
622.0978, 39.40918
622.5800, 71.03357
623.0621, 73.51312
623.5442, 56.54132
624.0263, 35.26495
624.5084, 11.82184
624.9905, 5.580078
625.4727, 7.538696
625.9548, 2.700928
626.4369, 18.27661
626.9190, 39.24725
627.4011, 52.66553
627.8832, 44.86407
628.3654, 17.97205
628.8475, 1.084900
629.3296, 1.201355
629.8117, 0.6497190
630.2938, 8.270203
630.7759, 16.97339
631.2581, 15.93604
631.7402, 4.493835
632.2223, 10.72101
632.7044, 26.16687
633.1865, 40.22351
633.6686, 43.47839
634.1508, 32.61115
634.6329, 25.60706
635.1150, 35.13824
635.5971, 47.01862
636.0792, 39.45258
636.5613, 9.334045
637.0435, 8.517212
637.5256, 6.819092
638.0077, 30.87109
638.4898, 43.48352
638.9719, 45.44513
639.4540, 43.23944
639.9362, 39.79462
640.4183, 36.25049
640.9004, 35.50372
641.3825, 40.15106
641.8646, 40.19672
642.3467, 28.53625
642.8289, 19.26154
643.3110, 19.64227
643.7931, 26.31708
644.2752, 32.34955
644.7573, 35.48932
645.2394, 37.96301
645.7216, 46.46887
646.2037, 57.14807
646.6858, 54.95697
647.1679, 36.07062
647.6500, 22.51935
648.1321, 36.77356
648.6143, 74.81732
649.0964, 90.06146
649.5785, 58.21875
650.0606, 36.28448
650.5427, 39.43677
651.0248, 50.96875
651.5070, 55.47540
651.9891, 51.90265
652.4712, 49.43567
652.9533, 57.43469
653.4354, 70.21124
653.9175, 70.04602
654.3997, 55.34558
654.8818, 44.70227
655.3639, 46.65082
655.8460, 52.42072
656.3281, 47.65814
656.8102, 31.41901
657.2924, 23.53442
657.7745, 34.38306
658.2566, 46.93738
658.7387, 50.05402
659.2208, 46.78265
659.7029, 48.57062
660.1851, 61.03528
660.6672, 74.61438
661.1493, 73.33972
661.6314, 55.44543
662.1135, 49.93500
662.5956, 64.58405
663.0778, 77.82025
663.5599, 79.70740
664.0420, 73.82520
664.5241, 62.33124
665.0062, 42.55475
665.4883, 28.81238
665.9705, 33.40698
666.4526, 44.46460
666.9347, 45.36688
667.4168, 37.21094
667.8989, 35.13055
668.3810, 49.41595
668.8632, 71.67059
669.3453, 77.54181
669.8274, 56.81476
670.3095, 44.27863
670.7916, 47.58740
671.2737, 54.46393
671.7559, 62.56982
672.2380, 69.53906
672.7201, 70.10144
673.2022, 59.25995
673.6843, 47.48889
674.1664, 45.22351
674.6486, 49.46204
675.1307, 53.26312
675.6128, 54.98187
676.0949, 50.82117
676.5770, 35.16138
677.0591, 10.39368
677.5413, 0.3424070
678.0234, 23.24182
678.5055, 35.52246
678.9876, 22.70410
679.4697, 7.807556
679.9518, 11.14594
680.4340, 30.28412
680.9161, 45.01562
681.3982, 39.13818
681.8803, 25.17383
682.3624, 23.08917
682.8445, 31.23901
683.3267, 41.28137
683.8088, 52.66827
684.2909, 60.05420
684.7730, 56.11847
685.2551, 39.15887
685.7372, 29.44202
686.2194, 29.97308
686.7015, 33.32312
687.1836, 41.57806
687.6657, 49.32825
688.1478, 49.86267
688.6299, 42.23883
689.1121, 31.26544
689.5942, 17.84113
690.0763, 4.815674
690.5584, 3.024658
691.0405, 13.18060
691.5226, 23.19263
692.0048, 28.31097
692.4869, 31.36578
692.9690, 37.80481
693.4511, 50.04010
693.9332, 53.63220
694.4153, 36.27380
694.8975, 22.06726
695.3796, 28.36328
695.8617, 44.61322
696.3438, 56.37537
696.8259, 59.48499
697.3080, 57.71771
697.7902, 55.68976
698.2723, 53.12573
698.7544, 43.03790
699.2365, 20.53680
699.7186, 5.730286
700.2007, 12.56702
700.6829, 28.82361
701.1650, 28.73901
701.6471, 5.887146
702.1292, 5.987366
702.6113, 7.153259
703.0934, 23.37415
703.5756, 27.73181
704.0577, 24.99207
704.5398, 27.54163
705.0219, 40.34088
705.5040, 54.81439
705.9861, 59.56274
706.4683, 55.11731
706.9504, 47.79388
707.4325, 35.31866
707.9146, 29.19452
708.3967, 41.06158
708.8788, 60.66302
709.3610, 63.88397
709.8431, 44.14648
710.3252, 28.55994
710.8073, 20.72919
711.2894, 19.97821
711.7715, 29.41150
712.2537, 45.19598
712.7358, 60.90277
713.2179, 73.81024
713.7000, 80.63220
714.1821, 75.90918
714.6642, 59.86432
715.1464, 35.56189
715.6285, 3.660950
716.1106, 30.14069
716.5927, 21.18896
717.0748, 9.675354
717.5569, 26.74005
718.0391, 24.63727
718.5212, 22.81329
719.0033, 24.97437
719.4854, 28.83276
719.9675, 35.40723
720.4496, 41.99976
720.9318, 41.61523
721.4139, 30.49939
721.8960, 16.80127
722.3781, 13.46539
722.8602, 20.01294
723.3423, 26.98315
723.8245, 35.43750
724.3066, 38.07819
724.7887, 25.23346
725.2708, 5.240601
725.7529, 2.054321
726.2350, 24.34277
726.7172, 42.25140
727.1993, 48.31177
727.6814, 50.50452
728.1635, 53.72943
728.6456, 57.91101
729.1277, 62.01263
729.6099, 65.72656
730.0920, 66.98425
730.5741, 60.53333
731.0562, 47.71753
731.5383, 41.72284
732.0204, 45.32031
732.5026, 47.96185
732.9847, 42.63342
733.4668, 32.42761
733.9489, 25.69092
734.4310, 22.63257
734.9131, 22.19781
735.3953, 25.76123
735.8774, 30.59644
736.3595, 34.72742
736.8416, 38.41351
737.3237, 43.19409
737.8058, 49.93420
738.2880, 55.08411
738.7701, 53.29535
739.2522, 46.22101
739.7343, 40.24139
740.2164, 35.67053
740.6985, 34.71710
741.1807, 39.96332
741.6628, 47.99420
742.1449, 50.39392
742.6270, 41.69012
743.1091, 39.45972
743.5912, 55.90247
744.0734, 66.02277
744.5555, 48.58441
745.0376, 19.72791
745.5197, 7.334473
746.0018, 20.79950
746.4839, 41.62018
746.9661, 58.29150
747.4482, 70.42859
747.9303, 76.95221
748.4124, 77.81726
748.8945, 71.28052
749.3766, 54.50488
749.8588, 36.06219
750.3409, 34.10925
750.8230, 58.79346
751.3051, 64.76648
751.7872, 31.86688
752.2693, 4.085815
752.7515, 7.188416
753.2336, 4.990967
753.7157, 13.09814
754.1978, 47.73804
754.6799, 68.09235
755.1620, 38.75854
755.6442, 5.002258
756.1263, 15.72375
756.6084, 0.9597780
757.0905, 15.31335
757.5726, 15.71405
758.0547, 13.71149
758.5369, 27.71570
759.0190, 59.91998
759.5011, 70.02356
759.9832, 40.89203
760.4653, 18.73621
760.9474, 25.12085
761.4296, 39.48352
761.9117, 42.60425
762.3938, 33.47192
762.8759, 24.79401
763.3580, 18.52515
763.8401, 16.41339
764.3223, 22.26416
764.8044, 32.52600
765.2865, 42.23700
765.7686, 49.52448
766.2507, 51.57330
766.7328, 43.75891
767.2150, 29.12585
767.6971, 24.22980
768.1792, 31.75220
768.6613, 34.50897
769.1434, 23.52466
769.6255, 12.39886
770.1077, 18.67352
770.5898, 40.22687
771.0719, 51.12750
771.5540, 42.49420
772.0361, 32.37384
772.5182, 25.79828
773.0004, 20.80664
773.4825, 12.64221
773.9646, 1.630188
774.4467, 1.349792
774.9288, 12.61523
775.4109, 31.88367
775.8931, 37.88190
776.3752, 32.81226
776.8573, 32.18622
777.3394, 39.51221
777.8215, 46.05481
778.3036, 44.88361
778.7858, 37.66266
779.2679, 31.95782
779.7500, 25.48401
780.2321, 24.33380
780.7142, 33.79480
781.1964, 43.33081
781.6785, 47.69781
782.1606, 47.55670
782.6427, 44.81866
783.1248, 39.59497
783.6069, 33.91827
784.0891, 27.99896
784.5712, 23.23047
785.0533, 24.03168
785.5354, 29.04596
786.0175, 28.91827
786.4996, 18.39941
786.9818, 4.697937
787.4639, 1.720886
787.9460, 11.44165
788.4281, 19.49353
788.9102, 26.37366
789.3923, 30.67621
789.8745, 30.95099
790.3566, 28.67694
790.8387, 25.11615
791.3208, 19.94922
791.8029, 16.66571
792.2850, 19.36243
792.7672, 20.95801
793.2493, 12.24921
793.7314, 1.265442
794.2135, 4.184509
794.6956, 23.27252
795.1777, 40.38715
795.6599, 35.57556
796.1420, 17.68701
796.6241, 12.37720
797.1062, 19.52838
797.5883, 29.17902
798.0704, 39.96936
798.5526, 47.22888
799.0347, 45.04327
799.5168, 33.83350
799.9989, 25.93719
800.4810, 23.45398
800.9631, 21.60028
801.4453, 22.78790
801.9274, 22.05170
802.4095, 11.63892
802.8916, 4.194031
803.3737, 11.16974
803.8558, 1.336426
804.3380, 13.71997
804.8201, 27.33673
805.3022, 38.81067
805.7843, 49.66180
806.2664, 58.24042
806.7485, 53.69812
807.2307, 28.04840
807.7128, 5.552185
808.1949, 18.05438
808.6770, 6.577881
809.1591, 0.9783940
809.6412, 1.595215
810.1234, 2.161926
810.6055, 5.527527
811.0876, 11.22784
811.5697, 18.21472
812.0518, 28.42365
812.5339, 33.60840
813.0161, 24.63599
813.4982, 17.24536
813.9803, 23.01373
814.4624, 35.28387
814.9445, 40.80292
815.4266, 36.77136
815.9088, 29.52063
816.3909, 23.00677
816.8730, 17.14966
817.3551, 10.87408
817.8372, 4.826416
818.3193, 3.469177
818.8015, 8.255737
819.2836, 12.88831
819.7657, 10.49792
820.2478, 2.458008
820.7299, 9.2651002E-02
821.2120, 4.261169
821.6942, 11.10645
822.1763, 25.15112
822.6584, 36.07831
823.1405, 34.65320
823.6226, 25.03345
824.1047, 19.28174
824.5869, 22.18634
825.0690, 23.71533
825.5511, 15.40814
826.0332, 7.668091
826.5153, 13.62152
826.9974, 28.25519
827.4796, 35.88208
827.9617, 29.55487
828.4438, 19.86560
828.9260, 19.67902
829.4081, 26.92218
829.8902, 35.98096
830.3723, 46.65051
830.8544, 48.35181
831.3365, 34.86774
831.8187, 16.63770
832.3008, 8.434937
832.7829, 11.07159
833.2650, 17.28210
833.7471, 36.98303
834.2292, 45.58142
834.7114, 24.73865
835.1935, 1.530640
835.6756, 2.305237
836.1577, 23.99225
836.6398, 39.72693
837.1219, 35.25598
837.6041, 29.77325
838.0862, 38.02905
838.5683, 48.79321
839.0504, 45.53381
839.5325, 29.89307
840.0146, 17.04944
840.4968, 16.12604
840.9789, 20.08716
841.4610, 15.18475
841.9431, 3.997742
842.4252, 6.428162
842.9073, 25.54224
843.3895, 41.70142
843.8716, 44.31628
844.3537, 38.89294
844.8358, 35.78741
845.3179, 35.85077
845.8000, 34.63446
846.2822, 29.37805
846.7643, 26.32501
847.2464, 30.97058
847.7285, 36.05536
848.2106, 31.99091
848.6927, 19.05707
849.1749, 11.07825
849.6570, 15.30383
850.1391, 23.04065
850.6212, 34.60645
851.1033, 43.61517
851.5854, 37.08765
852.0676, 17.55786
852.5497, 3.139465
853.0318, 6.052795
853.5139, 18.47113
853.9960, 31.06671
854.4781, 42.44214
854.9603, 41.95392
855.4424, 27.63690
855.9245, 17.83551
856.4066, 24.54791
856.8887, 38.60553
857.3708, 39.78351
857.8530, 23.24182
858.3351, 13.29749
858.8172, 14.60895
859.2993, 17.04675
859.7814, 16.11157
860.2635, 13.85980
860.7457, 12.84680
861.2278, 12.98035
861.7099, 15.30823
862.1920, 19.01044
862.6741, 24.62463
863.1563, 35.84790
863.6384, 47.05408
864.1205, 52.54370
864.6026, 51.25641
865.0847, 42.38867
865.5668, 22.11371
866.0490, 2.085876
866.5311, 4.185181
867.0132, 20.56628
867.4953, 28.88275
867.9774, 26.78754
868.4595, 17.13995
868.9417, 9.7351000E-02
869.4238, 16.78394
869.9059, 18.24878
870.3880, 1.913757
870.8701, 10.44031
871.3522, 18.48541
871.8344, 23.31793
872.3165, 23.98474
872.7986, 22.75519
873.2807, 22.06909
873.7628, 21.90521
874.2449, 22.42249
874.7271, 23.28375
875.2092, 25.29602
875.6913, 29.18689
876.1734, 33.91559
876.6555, 40.70050
877.1376, 47.53418
877.6198, 48.14661
878.1019, 37.72626
878.5840, 27.25775
879.0661, 28.22137
879.5482, 33.59320
880.0303, 32.81927
880.5125, 26.27429
880.9946, 17.42334
881.4767, 7.799622
881.9588, 3.437866
882.4409, 16.80029
882.9230, 43.66321
883.4052, 53.65729
883.8873, 45.39392
884.3694, 33.89624
884.8515, 22.03003
885.3336, 13.50519
885.8157, 13.39862
886.2979, 20.64899
886.7800, 22.37140
887.2621, 11.89258
887.7442, 7.325806
888.2263, 11.76532
888.7084, 20.85376
889.1906, 39.18689
889.6727, 59.27783
890.1548, 62.89709
890.6369, 40.28204
891.1190, 24.28082
891.6011, 32.60138
892.0833, 44.96771
892.5654, 48.39691
893.0475, 45.12158
893.5296, 39.56519
894.0117, 33.16156
894.4938, 26.38586
894.9760, 17.24561
895.4581, 10.19013
895.9402, 16.14783
896.4223, 29.73602
896.9044, 33.15680
897.3865, 23.81378
897.8687, 12.07330
898.3508, 4.389771
898.8329, 1.752197
899.3150, 8.407104
899.7971, 25.31598
900.2792, 37.80225
900.7614, 45.96246
901.2435, 45.73285
901.7256, 30.18945
902.2077, 11.51196
902.6898, 10.14661
903.1719, 29.62714
903.6541, 43.54413
904.1362, 51.84125
904.6183, 54.62695
905.1004, 44.32892
905.5825, 34.58008
906.0646, 40.79156
906.5468, 58.39514
907.0289, 66.08893
907.5110, 52.04779
907.9931, 38.92548
908.4752, 39.62988
908.9573, 43.36334
909.4395, 38.58313
909.9216, 28.64081
910.4037, 22.90021
910.8858, 24.67822
911.3679, 27.99988
911.8500, 25.13452
912.3322, 23.71680
912.8143, 35.17194
913.2964, 54.90588
913.7785, 64.65643
914.2606, 59.58099
914.7427, 45.08276
915.2249, 23.82617
915.7070, 0.2293090
916.1891, 13.89624
916.6712, 18.69025
917.1533, 8.896790
917.6354, 20.64386
918.1176, 47.30890
918.5997, 59.11603
919.0818, 59.37866
919.5639, 53.60767
920.0460, 40.04895
920.5281, 28.12714
921.0103, 13.48645
921.4924, 6.776306
921.9745, 16.67474
922.4566, 30.63245
922.9387, 38.06726
923.4208, 39.41125
923.9030, 40.10364
924.3851, 39.83435
924.8672, 40.88873
925.3493, 41.42432
925.8314, 45.78925
926.3135, 65.59003
926.7957, 89.96759
927.2778, 93.59839
927.7599, 69.08563
928.2420, 42.12347
928.7241, 23.86914
929.2062, 15.78717
929.6884, 28.79779
930.1705, 51.25299
930.6526, 54.61053
931.1347, 34.78522
931.6168, 12.60278
932.0989, 3.032776
932.5811, 3.542847
933.0632, 12.87866
933.5453, 28.83392
934.0274, 37.32306
934.5095, 36.79132
934.9916, 35.53870
935.4738, 37.83759
935.9559, 42.00098
936.4380, 46.44489
936.9201, 51.57166
937.4022, 45.22687
937.8843, 20.80994
938.3665, 6.133362
938.8486, 14.63043
939.3307, 26.98157
939.8128, 23.62329
940.2949, 7.836426
940.7770, 2.308899
941.2592, 18.02441
941.7413, 27.29041
942.2234, 20.38409
942.7055, 17.24573
943.1876, 37.05548
943.6697, 62.10309
944.1519, 61.52356
944.6340, 29.76428
945.1161, 8.629211
945.5982, 24.14734
946.0803, 37.58118
946.5624, 21.08636
947.0446, 2.217529
947.5267, 5.470215
948.0088, 10.45435
948.4909, 29.97815
948.9730, 48.67780
949.4551, 60.25391
949.9373, 53.94098
950.4194, 40.89850
950.9015, 37.09180
951.3836, 40.39099
951.8657, 41.99548
952.3478, 38.85431
952.8300, 32.35883
953.3121, 20.57513
953.7942, 9.458130
954.2763, 18.88074
954.7584, 43.32642
955.2405, 48.80676
955.7227, 30.09399
956.2048, 10.39197
956.6869, 3.761902
957.1690, 7.782593
957.6511, 21.15381
958.1332, 45.29938
958.6154, 51.25916
959.0975, 33.27582
959.5796, 24.17273
960.0617, 38.35303
960.5438, 58.43445
961.0259, 66.35107
961.5081, 62.87256
961.9902, 55.90564
962.4723, 43.24896
962.9544, 31.42950
963.4365, 15.91687
963.9186, 7.550293
964.4008, 21.84344
964.8829, 43.49347
965.3650, 42.99298
965.8471, 12.50360
966.3292, 0.7677610
966.8113, 28.73444
967.2935, 55.86487
967.7756, 80.60785
968.2577, 89.64429
968.7398, 56.34406
969.2219, 4.495728
969.7040, 36.63934
970.1862, 12.47009
970.6683, 13.62854
971.1504, 13.70544
971.6325, 8.387512
972.1146, 15.30042
972.5967, 29.14355
973.0789, 37.93335
973.5610, 39.31628
974.0431, 41.16895
974.5252, 54.23596
975.0073, 66.82477
975.4894, 64.55865
975.9716, 52.64777
976.4537, 36.75055
976.9358, 20.93304
977.4179, 17.07983
977.9000, 31.34723
978.3821, 47.69629
978.8643, 41.14490
979.3464, 22.24255
979.8285, 21.68964
980.3106, 35.66675
980.7927, 39.68762
981.2748, 28.13049
981.7570, 19.72827
982.2391, 31.29675
982.7212, 52.11975
983.2033, 53.06708
983.6854, 34.99805
984.1675, 26.70819
984.6497, 31.16125
985.1318, 35.03522
985.6139, 32.90894
986.0960, 29.73553
986.5781, 30.68164
987.0602, 36.19812
987.5424, 33.44489
988.0245, 18.80493
988.5066, 8.683167
988.9887, 5.434021
989.4708, 7.933472
989.9529, 18.82025
990.4351, 32.40002
990.9172, 34.38611
991.3993, 19.19318
991.8814, 14.66541
992.3635, 31.35364
992.8456, 43.02423
993.3278, 41.84686
993.8099, 33.85730
994.2920, 18.33722
994.7741, 0.7426760
995.2562, 4.859802
995.7383, 21.01208
996.2205, 36.56006
996.7026, 27.74872
997.1847, 18.22644
997.6668, 18.92743
998.1489, 25.75000
998.6310, 33.86139
999.1132, 42.55042
999.5953, 49.59271
1000.077, 60.44464
1000.560, 61.71045
1001.042, 37.13641
1001.524, 10.43677
1002.006, 1.524658
1002.488, 6.809509
1002.970, 17.79749
1003.452, 32.59381
1003.934, 39.87244
1004.416, 25.06177
1004.899, 8.542603
1005.381, 7.899353
1005.863, 15.85376
1006.345, 22.20142
1006.827, 25.00702
1007.309, 23.43164
1007.791, 15.45636
1008.273, 12.10022
1008.755, 30.81586
1009.238, 54.65344
1009.720, 58.00720
1010.202, 47.91229
1010.684, 44.89288
1011.166, 52.56354
1011.648, 57.90027
1012.130, 51.11023
1012.612, 38.03534
1013.095, 22.82214
1013.577, 9.191345
1014.059, 7.717468
1014.541, 17.22150
1015.023, 30.08734
1015.505, 43.02020
1015.987, 51.57202
1016.469, 50.29858
1016.951, 41.99097
1017.434, 30.02155
1017.916, 16.66705
1018.398, 18.48004
1018.880, 36.69360
1019.362, 50.52850
1019.844, 48.39661
1020.326, 40.14630
1020.808, 42.36023
1021.291, 52.56195
1021.773, 48.37476
1022.255, 29.58380
1022.737, 21.69403
1023.219, 31.29437
1023.701, 43.59821
1024.183, 48.28906
1024.665, 47.61493
1025.147, 45.56940
1025.630, 41.89130
1026.112, 40.69562
1026.594, 42.83563
1027.076, 42.41150
1027.558, 35.92450
1028.040, 28.59467
1028.522, 19.97003
1029.004, 11.33478
1029.486, 13.97119
1029.969, 33.25024
1030.451, 41.08398
1030.933, 32.36462
1031.415, 22.38470
1031.897, 16.32996
1032.379, 13.61566
1032.861, 14.40619
1033.343, 18.29120
1033.826, 19.10999
1034.308, 16.38507
1034.790, 11.26086
1035.272, 9.6557997E-02
1035.754, 7.305176
1036.236, 4.078064
1036.718, 5.557495
1037.200, 16.54797
1037.682, 29.49786
1038.165, 36.78204
1038.647, 37.38300
1039.129, 33.86816
1039.611, 19.75555
1040.093, 9.201233
1040.575, 15.48175
1041.057, 29.71216
1041.539, 33.43860
1042.021, 24.76654
1042.504, 14.08398
1042.986, 9.857361
1043.468, 20.70844
1043.950, 2.612183
1044.432, 27.71869
1044.914, 25.71082
1045.396, 7.164368
1045.878, 3.461975
1046.361, 23.58179
1046.843, 37.27118
1047.325, 35.04584
1047.807, 33.70892
1048.289, 43.76202
1048.771, 53.30743
1049.253, 48.91223
1049.735, 33.93536
1050.218, 23.02698
1050.700, 17.02289
1051.182, 17.93579
1051.664, 38.25671
1052.146, 51.39087
1052.628, 35.33270
1053.110, 11.87115
1053.592, 8.800293
1054.074, 23.61035
1054.557, 30.70770
1055.039, 15.75189
1055.521, 8.741272
1056.003, 31.42450
1056.485, 49.51324
1056.967, 33.18939
1057.449, 5.615601
1057.931, 6.9945998E-02
1058.413, 18.20538
1058.896, 32.00671
1059.378, 28.32574
1059.860, 25.83899
1060.342, 37.34937
1060.824, 45.39099
1061.306, 27.72620
1061.788, 3.260681
1062.270, 6.158386
1062.753, 39.36328
1063.235, 62.53918
1063.717, 56.29279
1064.199, 44.70892
1064.681, 33.03778
1065.163, 22.97894
1065.645, 13.94330
1066.127, 7.651733
1066.609, 8.256104
1067.092, 16.28809
1067.574, 22.75049
1068.056, 24.50067
1068.538, 23.22369
1069.020, 13.38977
1069.502, 6.503601
1069.984, 17.39667
1070.466, 37.72900
1070.948, 49.14069
1071.431, 47.44281
1071.913, 45.75616
1072.395, 52.51727
1072.877, 57.35956
1073.359, 53.94226
1073.841, 46.82056
1074.323, 38.66254
1074.805, 30.88263
1075.288, 24.37231
1075.770, 19.09473
1076.252, 20.08325
1076.734, 39.72510
1077.216, 54.10046
1077.698, 43.07208
1078.180, 25.36371
1078.662, 19.54596
1079.145, 23.40796
1079.627, 26.44348
1080.109, 25.64966
1080.591, 26.16577
1081.073, 33.45947
1081.555, 38.89923
1082.037, 35.25189
1082.519, 28.99536
1083.001, 27.30902
1083.484, 28.95691
1083.966, 27.69385
1084.448, 20.83075
1084.930, 19.03833
1085.412, 34.35895
1085.894, 47.29315
1086.376, 44.39899
1086.858, 35.57355
1087.341, 28.18665
1087.823, 24.72333
1088.305, 30.73090
1088.787, 50.83289
1089.269, 61.15424
1089.751, 41.40100
1090.233, 21.93506
1090.715, 21.76996
1091.198, 28.05206
1091.680, 25.87103
1092.162, 18.22076
1092.644, 19.22644
1093.126, 35.46918
1093.608, 43.87317
1094.090, 28.39270
1094.572, 13.93860
1095.054, 14.44318
1095.536, 20.40509
1096.019, 24.26172
1096.501, 24.86102
1096.983, 20.20453
1097.465, 6.686462
1097.947, 2.627869
1098.429, 29.28961
1098.911, 47.07831
1099.393, 25.81952
1099.876, 2.001465
1100.358, 4.594421
1100.840, 11.59387
1101.322, 22.52747
1101.804, 24.77673
1102.286, 27.98828
1102.768, 41.53070
1103.250, 47.60779
1103.733, 26.22168
1104.215, 5.858398
1104.697, 18.46381
1105.179, 51.61700
1105.661, 66.62866
1106.143, 53.00507
1106.625, 44.44708
1107.107, 54.75311
1107.589, 58.90106
1108.072, 39.15442
1108.554, 19.48505
1109.036, 25.19952
1109.518, 45.03186
1110.000, 47.32532
1110.482, 24.11401
1110.964, 7.146301
1111.446, 0.3903200
1111.928, 3.039124
1112.411, 5.477783
1112.893, 4.344543
1113.375, 7.316589
1113.857, 22.63464
1114.339, 24.67926
1114.821, 9.508057
1115.303, 1.516174
1115.785, 11.42218
1116.268, 11.80200
1116.750, 5.523438
1117.232, 24.11127
1117.714, 33.30231
1118.196, 36.37292
1118.678, 40.68311
1119.160, 47.52698
1119.642, 44.71118
1120.125, 27.06580
1120.607, 10.83563
1121.089, 6.583679
1121.571, 10.09827
1122.053, 17.66113
1122.535, 54.79279
1123.017, 60.60852
1123.499, 33.94568
1123.981, 15.66547
1124.464, 6.712585
1124.946, 3.115601
1125.428, 6.070679
1125.910, 8.149902
1126.392, 4.760193
1126.874, 0.4287110
1127.356, 2.226318
1127.838, 0.6732180
1128.320, 4.684998
1128.803, 14.41705
1129.285, 21.89227
1129.767, 26.36169
1130.249, 26.51709
1130.731, 21.02368
1131.213, 15.15753
1131.695, 16.01709
1132.177, 20.81708
1132.660, 22.32043
1133.142, 21.14630
1133.624, 30.02203
1134.106, 49.55701
1134.588, 56.17212
1135.070, 40.05658
1135.552, 24.48956
1136.034, 36.42590
1136.516, 59.72601
1136.999, 49.16211
1137.481, 15.41974
1137.963, 2.135803
1138.445, 9.887146
1138.927, 21.90723
1139.409, 32.19061
1139.891, 38.87714
1140.373, 40.67365
1140.855, 37.80023
1141.338, 19.89758
1141.820, 1.790100
1142.302, 27.68518
1142.784, 79.24347
1143.266, 94.02722
1143.748, 62.69861
1144.230, 28.01044
1144.712, 14.23712
1145.195, 15.93311
1145.677, 40.07849
1146.159, 66.28766
1146.641, 66.86407
1147.123, 51.29523
1147.605, 35.10101
1148.087, 22.60724
1148.569, 15.17902
1149.052, 13.42444
1149.534, 16.83148
1150.016, 33.53467
1150.498, 46.13556
1150.980, 33.97192
1151.462, 14.88953
1151.944, 10.77484
1152.426, 19.77704
1152.908, 30.53430
1153.391, 41.23389
1153.873, 43.83429
1154.355, 23.32532
1154.837, 9.464478
1155.319, 22.15295
1155.801, 40.73627
1156.283, 50.43549
1156.765, 52.18109
1157.247, 49.80536
1157.730, 43.37994
1158.212, 35.22571
1158.694, 19.59540
1159.176, 11.94635
1159.658, 20.24030
1160.140, 31.28955
1160.622, 42.72693
1161.104, 49.61365
1161.587, 41.49542
1162.069, 19.14618
1162.551, 11.50183
1163.033, 26.24622
1163.515, 38.86670
1163.997, 50.70032
1164.479, 52.63751
1164.961, 35.91394
1165.443, 17.67712
1165.926, 17.33466
1166.408, 29.84277
1166.890, 33.46631
1167.372, 26.52692
1167.854, 26.05487
1168.336, 34.08783
1168.818, 33.81226
1169.300, 18.41882
1169.782, 7.621216
1170.265, 19.04999
1170.747, 38.72748
1171.229, 35.21387
1171.711, 13.22998
1172.193, 3.421570
1172.675, 5.366577
1173.157, 15.24835
1173.639, 30.79822
1174.122, 46.92590
1174.604, 61.65228
1175.086, 67.13055
1175.568, 43.19867
1176.050, 12.11987
1176.532, 24.64008
1177.014, 57.96942
1177.496, 61.01233
1177.979, 37.42072
1178.461, 21.69379
1178.943, 25.00861
1179.425, 31.63452
1179.907, 32.31628
1180.389, 30.10712
1180.871, 25.56769
1181.353, 21.98236
1181.835, 24.99500
1182.318, 30.66614
1182.800, 30.28424
1183.282, 24.01685
1183.764, 22.22852
1184.246, 33.77441
1184.728, 40.86749
1185.210, 31.49811
1185.692, 22.61798
1186.174, 26.18182
1186.657, 32.84564
1187.139, 33.41901
1187.621, 27.88177
1188.103, 17.79712
1188.585, 2.206604
1189.067, 11.19104
1189.549, 0.3406980
1190.031, 7.649292
1190.514, 3.950317
1190.996, 2.652771
1191.478, 15.70435
1191.960, 34.23389
1192.442, 41.81165
1192.924, 38.33484
1193.406, 33.86011
1193.888, 27.68591
1194.370, 24.52716
1194.853, 25.10278
1195.335, 28.12708
1195.817, 33.52063
1196.299, 38.15222
1196.781, 38.94281
1197.263, 35.60681
1197.745, 19.43237
1198.227, 2.672363
1198.709, 19.69714
1199.192, 77.89954
1199.674, 98.24182
1200.156, 65.24890
1200.638, 36.43652
1201.120, 52.51855
1201.602, 78.45679
1202.084, 66.60907
1202.566, 41.70428
1203.049, 40.97931
1203.531, 53.58252
1204.013, 59.42847
1204.495, 56.92780
1204.977, 52.93866
1205.459, 49.86597
1205.941, 45.78375
1206.423, 35.09521
1206.906, 28.78058
1207.388, 40.09680
1207.870, 51.75116
1208.352, 45.72113
1208.834, 31.25690
1209.316, 26.55743
1209.798, 33.01251
1210.280, 35.81781
1210.762, 28.22131
1211.245, 24.16119
1211.727, 23.99408
1212.209, 28.83313
1212.691, 42.21246
1213.173, 57.40692
1213.655, 71.82239
1214.137, 81.15344
1214.619, 68.94830
1215.101, 29.78809
1215.584, 10.54578
1216.066, 14.21960
1216.548, 20.92645
1217.030, 27.11847
1217.512, 27.89404
1217.994, 23.42493
1218.476, 17.51965
1218.958, 18.91364
1219.441, 23.45038
1219.923, 14.27240
1220.405, 2.534668
1220.887, 1.904846
1221.369, 14.34009
1221.851, 27.58209
1222.333, 33.34229
1222.815, 35.55365
1223.297, 36.70483
1223.780, 37.53424
1224.262, 42.47900
1224.744, 44.06647
1225.226, 28.93677
1225.708, 8.143494
1226.190, 1.819153
1226.672, 1.341248
1227.154, 0.2589720
1227.636, 0.4359130
1228.119, 1.533752
1228.601, 3.324219
1229.083, 7.543884
1229.565, 17.87744
1230.047, 27.58209
1230.529, 27.39484
1231.011, 26.78625
1231.493, 45.27893
1231.976, 80.35223
1232.458, 87.77759
1232.940, 51.39496
1233.422, 34.24805
1233.904, 46.25952
1234.386, 54.52991
1234.868, 48.23529
1235.350, 38.44501
1235.833, 31.39038
1236.315, 28.97913
1236.797, 38.19763
1237.279, 55.46149
1237.761, 56.87952
1238.243, 44.86572
1238.725, 35.74469
1239.207, 31.18707
1239.689, 22.78754
1240.172, 7.418823
1240.654, 2.322266
1241.136, 8.557007
1241.618, 23.96875
1242.100, 25.13770
1242.582, 22.24591
1243.064, 21.55389
1243.546, 29.87115
1244.028, 22.56635
1244.511, 4.600891
1244.993, 0.0000000E+00
##END=



