##NAMES=Sampleite
##RRUFFID=R090072
##IDEAL CHEMISTRY=NaCaCu^2+^_5_(P^5+^O_4_)_4_Cl&#183;5H_2_O
##LOCALITY=Engaño Feliz mine, Las Pintadas dist., Tierra Amarilla, Copiapó Province, Chile
##OWNER=RRUFF
##SOURCE=Bob Jenkins
##DESCRIPTION=Blue bladed crystals in radial aggregates associated with elongated, forest-green libethenite and dark-green atacamite. This is the polymorph or polytype described in Giester et al (2007)
##STATUS=The identification of this mineral has been confirmed by single-crystal X-ray diffraction.
##URL=rruff.info/R090072
132.3250, 0.0000000E+00
132.8071, 8.8459000E-02
133.2892, 0.5928570
133.7713, 1.872185
134.2534, 3.549381
134.7355, 4.371346
135.2177, 3.806564
135.6998, 2.980145
136.1819, 2.275909
136.6640, 1.796127
137.1461, 1.545670
137.6282, 1.842720
138.1104, 3.159306
138.5925, 3.772968
139.0746, 3.412483
139.5567, 3.253742
140.0388, 2.521048
140.5209, 1.761683
141.0031, 1.424093
141.4852, 2.149727
141.9673, 3.940281
142.4494, 4.502769
142.9315, 3.093353
143.4136, 1.237648
143.8958, 0.2786540
144.3779, 0.8718340
144.8600, 2.142296
145.3421, 2.433456
145.8242, 0.6742500
146.3063, 0.3076530
146.7885, 0.1798970
147.2706, 1.336529
147.7527, 2.353823
148.2348, 2.808990
148.7169, 2.767288
149.1990, 2.062790
149.6812, 0.7875370
150.1633, 0.1053470
150.6454, 0.4366190
151.1275, 2.161819
151.6096, 3.152775
152.0917, 2.437435
152.5739, 0.9184700
153.0560, 2.5653999E-02
153.5381, 0.3441310
154.0202, 0.2500040
154.5023, 0.3335820
154.9844, 1.412203
155.4665, 2.138296
155.9487, 1.847845
156.4308, 1.215406
156.9129, 0.6899640
157.3950, 0.3508800
157.8771, 0.2499980
158.3592, 0.5884380
158.8414, 1.694466
159.3235, 2.386776
159.8056, 2.158602
160.2877, 1.559132
160.7698, 1.030420
161.2519, 0.7451630
161.7341, 0.6473330
162.2162, 0.5226710
162.6983, 0.1250840
163.1804, 6.0148001E-02
163.6625, 0.6720660
164.1446, 1.571280
164.6268, 2.354862
165.1089, 2.819841
165.5910, 2.950235
166.0731, 2.515472
166.5552, 0.1245540
167.0373, 1.408024
167.5195, 0.8161490
168.0016, 1.118391
168.4837, 2.713747
168.9658, 2.825636
169.4479, 1.590279
169.9300, 1.134863
170.4122, 1.901943
170.8943, 2.890038
171.3764, 3.809710
171.8585, 4.581427
172.3406, 5.104168
172.8227, 5.244566
173.3049, 5.100100
173.7870, 5.037333
174.2691, 5.286118
174.7512, 5.451166
175.2333, 4.919603
175.7154, 3.640974
176.1976, 2.747116
176.6797, 3.509510
177.1618, 5.282726
177.6439, 6.514423
178.1260, 6.689030
178.6081, 6.236176
179.0903, 5.543257
179.5724, 4.338108
180.0545, 3.748270
180.5366, 5.125528
181.0187, 7.442753
181.5008, 9.052502
181.9830, 8.731445
182.4651, 7.211073
182.9472, 6.908289
183.4293, 8.866789
183.9114, 10.43134
184.3935, 10.25614
184.8757, 8.990803
185.3578, 7.774338
185.8399, 7.449739
186.3220, 7.884186
186.8041, 7.607973
187.2862, 5.684551
187.7684, 4.003296
188.2505, 3.040157
188.7326, 2.720640
189.2147, 2.889395
189.6968, 3.532543
190.1789, 4.780968
190.6611, 5.391359
191.1432, 4.727566
191.6253, 4.086184
192.1074, 3.887192
192.5895, 4.057264
193.0716, 4.258080
193.5538, 4.172810
194.0359, 3.747473
194.5180, 3.481318
195.0001, 3.277008
195.4822, 3.269789
195.9643, 3.767862
196.4465, 4.619049
196.9286, 5.238754
197.4107, 5.045788
197.8928, 3.905117
198.3749, 2.890875
198.8570, 1.816858
199.3392, 0.9968190
199.8213, 0.6014130
200.3034, 0.6452480
200.7855, 1.176035
201.2676, 2.544353
201.7497, 4.767529
202.2319, 5.705439
202.7140, 4.130341
203.1961, 1.893154
203.6782, 0.7678900
204.1603, 0.9488330
204.6424, 1.479059
205.1246, 1.334605
205.6067, 0.7048220
206.0888, 0.5512800
206.5709, 1.445292
207.0530, 2.768269
207.5351, 3.762943
208.0173, 4.405943
208.4994, 4.604845
208.9815, 3.625368
209.4636, 2.055241
209.9457, 1.221385
210.4278, 2.400130
210.9100, 4.530632
211.3921, 5.155449
211.8742, 3.706656
212.3563, 1.959995
212.8384, 0.7543310
213.3205, 8.5300002E-03
213.8027, 0.4546990
214.2848, 0.6557990
214.7669, 0.5891440
215.2490, 0.1398900
215.7311, 0.8575260
216.2132, 2.036138
216.6954, 3.685517
217.1775, 5.340300
217.6596, 6.166592
218.1417, 5.444140
218.6238, 3.478844
219.1059, 2.100318
219.5881, 1.639172
220.0702, 1.441023
220.5523, 1.299845
221.0344, 1.263731
221.5165, 1.479587
221.9986, 2.099567
222.4808, 3.037759
222.9629, 3.516096
223.4450, 3.134877
223.9271, 2.657149
224.4092, 1.911695
224.8913, 1.115852
225.3735, 0.9802450
225.8556, 2.043621
226.3377, 4.044298
226.8198, 4.675887
227.3019, 1.836387
227.7840, 0.2172290
228.2662, 2.1801000E-02
228.7483, 1.571393
229.2304, 2.976441
229.7125, 3.146297
230.1946, 2.224121
230.6767, 1.780638
231.1589, 2.308699
231.6410, 2.733636
232.1231, 2.748252
232.6052, 2.469364
233.0873, 2.097398
233.5694, 1.712487
234.0516, 1.368921
234.5337, 1.533912
235.0158, 2.826366
235.4979, 3.844762
235.9800, 4.103031
236.4621, 3.775928
236.9443, 3.214638
237.4264, 2.553794
237.9085, 1.865628
238.3906, 1.489465
238.8727, 1.654308
239.3548, 1.806799
239.8370, 1.643739
240.3191, 1.316330
240.8012, 1.266305
241.2833, 1.827833
241.7654, 2.671145
242.2475, 2.797984
242.7297, 1.779833
243.2118, 0.8671020
243.6939, 0.6741770
244.1760, 1.026692
244.6581, 1.414685
245.1402, 1.648238
245.6224, 1.779029
246.1045, 1.981647
246.5866, 2.413467
247.0687, 2.513325
247.5508, 1.626324
248.0329, 9.4171003E-02
248.5151, 0.9304410
248.9972, 1.099036
249.4793, 0.4818680
249.9614, 0.8680220
250.4435, 3.098841
250.9256, 5.098557
251.4078, 6.401455
251.8899, 7.002678
252.3720, 6.819409
252.8541, 5.439573
253.3362, 3.723996
253.8183, 2.573999
254.3005, 1.977808
254.7826, 1.653865
255.2647, 1.545804
255.7468, 1.604450
256.2289, 1.519593
256.7110, 0.9832980
257.1931, 0.6528660
257.6753, 1.238192
258.1574, 2.588421
258.6395, 3.722853
259.1216, 3.699779
259.6037, 2.799931
260.0858, 2.725557
260.5680, 4.400273
261.0501, 5.849245
261.5322, 5.571573
262.0143, 4.049739
262.4964, 2.741449
262.9785, 2.866581
263.4607, 4.111587
263.9428, 4.564157
264.4249, 3.627123
264.9070, 2.741281
265.3891, 2.732486
265.8712, 3.268556
266.3534, 3.661260
266.8355, 3.389862
267.3176, 2.735496
267.7997, 2.576504
268.2818, 3.267878
268.7639, 3.908328
269.2461, 4.026132
269.7282, 3.932753
270.2103, 4.077106
270.6924, 4.739103
271.1745, 5.767902
271.6566, 6.676662
272.1388, 7.648205
272.6209, 8.183238
273.1030, 7.978024
273.5851, 7.421360
274.0672, 6.943396
274.5493, 6.729095
275.0315, 6.723492
275.5136, 6.823797
275.9957, 7.183889
276.4778, 7.346958
276.9599, 7.181723
277.4420, 6.845511
277.9242, 6.355616
278.4063, 5.727824
278.8884, 5.300704
279.3705, 5.616819
279.8526, 7.282085
280.3347, 8.555631
280.8169, 9.229532
281.2990, 9.542973
281.7811, 9.518284
282.2632, 9.214121
282.7453, 8.909028
283.2274, 9.153372
283.7096, 10.54105
284.1917, 10.95997
284.6738, 9.655496
285.1559, 8.056349
285.6380, 6.876158
286.1201, 6.277442
286.6023, 6.058895
287.0844, 6.050491
287.5665, 6.305077
288.0486, 6.415093
288.5307, 6.214248
289.0128, 6.036802
289.4950, 6.110057
289.9771, 6.368732
290.4592, 6.557631
290.9413, 6.443540
291.4234, 6.009384
291.9055, 5.481236
292.3877, 4.585938
292.8698, 3.873237
293.3519, 3.617598
293.8340, 3.687949
294.3161, 3.782861
294.7982, 3.683594
295.2804, 3.412210
295.7625, 3.261470
296.2446, 3.435573
296.7267, 3.514204
297.2088, 3.297855
297.6909, 2.963165
298.1731, 2.762787
298.6552, 2.839350
299.1373, 3.182382
299.6194, 3.646983
300.1015, 4.978986
300.5836, 5.518851
301.0658, 4.547280
301.5479, 2.963716
302.0300, 1.682014
302.5121, 1.069560
302.9942, 0.9318340
303.4763, 0.8868850
303.9585, 1.159376
304.4406, 1.166469
304.9227, 0.4524910
305.4048, 0.2332240
305.8869, 0.1435000
306.3690, 0.7865860
306.8512, 1.946385
307.3333, 2.452567
307.8154, 1.871358
308.2975, 1.695243
308.7796, 2.301394
309.2617, 2.932380
309.7439, 3.171845
310.2260, 2.979830
310.7081, 2.480548
311.1902, 1.729199
311.6723, 0.6076810
312.1544, 0.1136900
312.6366, 0.6466970
313.1187, 1.302343
313.6008, 1.860055
314.0829, 2.259295
314.5650, 2.439657
315.0471, 2.333979
315.5293, 1.972917
316.0114, 1.789114
316.4935, 1.835679
316.9756, 2.004357
317.4577, 2.539669
317.9398, 3.128575
318.4220, 3.156256
318.9041, 2.273876
319.3862, 0.9707160
319.8683, 0.8309910
320.3504, 3.851134
320.8326, 5.515512
321.3147, 4.573187
321.7968, 2.706829
322.2789, 1.678320
322.7610, 1.976714
323.2431, 2.758788
323.7253, 2.479080
324.2074, 2.220965
324.6895, 1.290289
325.1716, 1.087121
325.6537, 0.4455400
326.1358, 0.1104720
326.6180, 0.1788670
327.1001, 0.3146780
327.5822, 0.1586900
328.0643, 0.3277270
328.5464, 0.9230850
329.0285, 1.903114
329.5107, 2.718010
329.9928, 3.204091
330.4749, 3.333896
330.9570, 3.040697
331.4391, 2.199735
331.9212, 0.8828760
332.4034, 0.1691410
332.8855, 0.4119420
333.3676, 0.9134180
333.8497, 2.091018
334.3318, 3.314333
334.8139, 3.552550
335.2961, 2.260875
335.7782, 0.1135170
336.2603, 0.8691970
336.7424, 0.1572560
337.2245, 1.174033
337.7066, 2.296921
338.1888, 3.278145
338.6709, 3.749344
339.1530, 3.582616
339.6351, 3.075402
340.1172, 2.731800
340.5993, 2.624410
341.0815, 2.505085
341.5636, 2.479577
342.0457, 2.359155
342.5278, 1.947495
343.0099, 1.305916
343.4920, 0.6734070
343.9742, 0.1939420
344.4563, 0.1611340
344.9384, 0.1672010
345.4205, 2.401522
345.9026, 4.141037
346.3847, 4.495392
346.8669, 3.921402
347.3490, 3.277558
347.8311, 3.079182
348.3132, 3.208331
348.7953, 3.185147
349.2774, 2.809095
349.7596, 2.598927
350.2417, 2.739594
350.7238, 3.026398
351.2059, 3.378737
351.6880, 3.717413
352.1701, 3.829295
352.6523, 3.213918
353.1344, 1.319969
353.6165, 0.4237040
354.0986, 2.065979
354.5807, 3.739634
355.0628, 3.740460
355.5450, 2.112043
356.0271, 0.3203000
356.5092, 0.2260460
356.9913, 0.5124250
357.4734, 1.399144
357.9555, 2.994699
358.4377, 4.159334
358.9198, 3.941190
359.4019, 2.807055
359.8840, 1.799500
360.3661, 1.450847
360.8482, 1.699432
361.3304, 2.319993
361.8125, 3.657960
362.2946, 4.477948
362.7767, 3.719731
363.2588, 2.530034
363.7409, 2.289589
364.2231, 3.535582
364.7052, 5.021446
365.1873, 4.871285
365.6694, 2.830199
366.1515, 1.541867
366.6336, 2.388372
367.1158, 3.566458
367.5979, 3.724639
368.0800, 2.844563
368.5621, 1.784709
369.0442, 0.9822370
369.5263, 0.4723980
370.0085, 0.5801670
370.4906, 1.780691
370.9727, 2.781649
371.4548, 2.382314
371.9369, 1.140836
372.4190, 0.3096780
372.9012, 0.5930940
373.3833, 1.394896
373.8654, 1.832397
374.3475, 1.862266
374.8296, 1.906727
375.3117, 2.323489
375.7939, 2.791492
376.2760, 2.783920
376.7581, 2.075971
377.2402, 1.356593
377.7223, 1.241336
378.2044, 1.573763
378.6866, 1.550862
379.1687, 0.6563330
379.6508, 0.1600300
380.1329, 0.5496180
380.6150, 2.722716
381.0971, 4.616301
381.5793, 5.797418
382.0614, 6.329678
382.5435, 6.101229
383.0256, 5.170131
383.5077, 4.025710
383.9898, 2.692037
384.4720, 1.365643
384.9541, 1.127341
385.4362, 3.282125
385.9183, 5.408416
386.4004, 5.912699
386.8825, 5.117583
387.3647, 4.134970
387.8468, 3.418771
388.3289, 2.949498
388.8110, 2.738601
389.2931, 2.951968
389.7752, 3.014083
390.2574, 2.670018
390.7395, 2.172685
391.2216, 1.783958
391.7037, 1.565887
392.1858, 1.528881
392.6679, 1.754754
393.1501, 2.374979
393.6322, 2.476052
394.1143, 1.703415
394.5964, 0.7937560
395.0785, 0.2854550
395.5606, 0.1157258
396.0428, 5.6660529E-02
396.5249, 0.7368100
397.0070, 1.055978
397.4891, 2.606495
397.9712, 4.255115
398.4533, 5.207128
398.9355, 4.988619
399.4176, 4.208035
399.8997, 3.373207
400.3818, 2.687769
400.8639, 2.296789
401.3460, 2.527824
401.8282, 3.893898
402.3103, 4.414153
402.7924, 3.449559
403.2745, 2.379363
403.7566, 1.749457
404.2387, 1.615821
404.7209, 1.896982
405.2030, 2.596640
405.6851, 3.641643
406.1672, 4.497972
406.6493, 5.648289
407.1314, 5.820479
407.6136, 3.862157
408.0957, 1.271356
408.5778, 0.2997930
409.0599, 0.2569520
409.5420, 0.6858420
410.0241, 1.708831
410.5063, 2.945827
410.9884, 3.503968
411.4705, 2.314486
411.9526, 1.189626
412.4347, 1.322021
412.9168, 2.539290
413.3990, 3.766749
413.8811, 4.508311
414.3632, 4.669942
414.8453, 3.709379
415.3274, 0.9007900
415.8095, 1.298614
416.2917, 0.7735800
416.7738, 0.9308190
417.2559, 0.7926527
417.7380, 0.7183080
418.2201, 0.5550390
418.7022, 0.5638990
419.1844, 0.5673940
419.6665, 1.675161
420.1486, 2.476195
420.6307, 3.030122
421.1128, 3.397950
421.5949, 3.590230
422.0771, 3.683567
422.5592, 3.555908
423.0413, 3.411549
423.5234, 3.630922
424.0055, 4.256089
424.4876, 4.778305
424.9698, 4.767790
425.4519, 4.305008
425.9340, 4.025126
426.4161, 4.305581
426.8982, 4.364867
427.3803, 3.512727
427.8625, 2.215788
428.3446, 1.534166
428.8267, 1.894415
429.3088, 2.733582
429.7909, 3.104534
430.2730, 2.831417
430.7552, 2.410530
431.2373, 1.479741
431.7194, 0.6782590
432.2015, 0.4805960
432.6836, 0.8842290
433.1657, 1.685659
433.6479, 2.814610
434.1300, 4.194793
434.6121, 4.802183
435.0942, 3.619389
435.5763, 2.825742
436.0584, 3.211329
436.5406, 3.976138
437.0227, 3.959663
437.5048, 2.799810
437.9869, 1.546466
438.4690, 2.045299
438.9511, 5.334599
439.4333, 6.969249
439.9154, 5.265381
440.3975, 3.327615
440.8796, 2.349863
441.3617, 2.298859
441.8438, 2.774172
442.3260, 3.697748
442.8081, 4.829269
443.2902, 5.294170
443.7723, 4.800196
444.2544, 4.257633
444.7365, 3.821507
445.2187, 3.560656
445.7008, 3.597989
446.1829, 3.967288
446.6650, 4.512885
447.1471, 5.212536
447.6292, 5.885592
448.1114, 5.856697
448.5935, 4.556536
449.0756, 3.455339
449.5577, 4.393621
450.0398, 6.633046
450.5219, 7.930614
451.0041, 6.825149
451.4862, 5.148618
451.9683, 4.662316
452.4504, 5.236231
452.9325, 6.059088
453.4146, 6.988421
453.8968, 7.675347
454.3789, 7.100983
454.8610, 4.806726
455.3431, 2.988521
455.8252, 2.290590
456.3073, 2.247031
456.7895, 2.556882
457.2716, 3.099280
457.7537, 3.458983
458.2358, 3.227702
458.7179, 2.442906
459.2000, 1.957643
459.6822, 1.677841
460.1643, 1.627542
460.6464, 1.780950
461.1285, 2.162507
461.6106, 3.086724
462.0927, 4.619156
462.5748, 5.943264
463.0569, 5.452233
463.5391, 1.938278
464.0212, 8.6915001E-02
464.5033, 0.3929100
464.9854, 1.310534
465.4675, 1.910204
465.9496, 2.142098
466.4318, 2.109396
466.9139, 1.874794
467.3960, 1.564646
467.8781, 1.512883
468.3602, 1.852829
468.8423, 2.095140
469.3245, 2.006817
469.8066, 1.859574
470.2887, 1.816686
470.7708, 1.841335
471.2529, 1.863040
471.7350, 1.637872
472.2172, 1.312832
472.6993, 1.538026
473.1814, 2.540373
473.6635, 3.502607
474.1456, 4.158470
474.6277, 4.549690
475.1099, 4.585286
475.5920, 4.099960
476.0741, 3.366662
476.5562, 2.377851
477.0383, 1.420791
477.5204, 1.352081
478.0026, 2.638213
478.4847, 4.228531
478.9668, 4.565536
479.4489, 3.332169
479.9310, 2.360752
480.4131, 1.554988
480.8953, 1.199782
481.3774, 1.796389
481.8595, 3.061566
482.3416, 4.183978
482.8237, 4.707609
483.3058, 4.686962
483.7880, 4.301604
484.2701, 3.202669
484.7522, 2.224270
485.2343, 1.104788
485.7164, 0.3086360
486.1985, 0.3462750
486.6807, 1.155751
487.1628, 2.140836
487.6449, 2.767764
488.1270, 3.069992
488.6091, 3.604903
489.0912, 4.997061
489.5734, 5.581497
490.0555, 4.192860
490.5376, 2.161743
491.0197, 1.036275
491.5018, 1.267955
491.9839, 1.946289
492.4661, 2.048891
492.9482, 1.685048
493.4303, 1.988319
493.9124, 3.611775
494.3945, 4.966757
494.8766, 4.229043
495.3588, 2.169697
495.8409, 0.8489840
496.3230, 1.251273
496.8051, 2.107259
497.2872, 2.444466
497.7693, 2.357436
498.2515, 2.201291
498.7336, 2.120150
499.2157, 1.975245
499.6978, 1.406052
500.1799, 6.5931000E-02
500.6620, 0.3157260
501.1442, 1.439401
501.6263, 3.297962
502.1084, 3.876107
502.5905, 3.282888
503.0726, 2.116976
503.5547, 0.6409100
504.0369, 0.8100840
504.5190, 1.029732
505.0011, 1.135835
505.4832, 2.737374
505.9653, 3.568081
506.4474, 3.884677
506.9296, 3.763446
507.4117, 3.279929
507.8938, 2.614857
508.3759, 1.858180
508.8580, 1.076159
509.3401, 0.6780880
509.8223, 0.7032990
510.3044, 1.031813
510.7865, 2.184001
511.2686, 3.315417
511.7507, 3.357890
512.2328, 2.036539
512.7150, 0.8581030
513.1971, 1.267051
513.6792, 2.694816
514.1613, 3.525315
514.6434, 3.554094
515.1255, 2.994783
515.6077, 1.439150
516.0898, 0.5958630
516.5719, 0.9853130
517.0540, 2.017245
517.5361, 4.650045
518.0182, 4.852979
518.5004, 3.661172
518.9825, 2.721174
519.4646, 2.488901
519.9467, 2.686364
520.4288, 3.055058
520.9109, 3.689769
521.3931, 3.834009
521.8752, 3.051888
522.3573, 2.337357
522.8394, 2.029158
523.3215, 2.003252
523.8036, 2.047876
524.2858, 2.077711
524.7679, 2.155585
525.2500, 2.550932
525.7321, 2.011435
526.2142, 1.745737
526.6964, 1.315907
527.1785, 0.5580660
527.6606, 0.7712820
528.1427, 0.2265300
528.6248, 1.458229
529.1069, 2.771993
529.5891, 3.690471
530.0712, 3.298104
530.5533, 1.715703
531.0354, 0.4128320
531.5175, 0.2945790
531.9996, 0.5794060
532.4818, 0.6232830
532.9639, 0.4431550
533.4460, 0.2334910
533.9281, 2.118484
534.4102, 3.929232
534.8923, 4.741580
535.3745, 4.678986
535.8566, 4.237543
536.3387, 3.614019
536.8208, 2.917083
537.3029, 2.365526
537.7850, 1.912981
538.2672, 1.800630
538.7493, 2.012667
539.2314, 2.338957
539.7135, 3.089399
540.1956, 4.019440
540.6777, 4.562523
541.1599, 4.354928
541.6420, 3.643672
542.1241, 3.017291
542.6062, 2.455028
543.0883, 2.034595
543.5704, 1.731297
544.0526, 1.621261
544.5347, 1.783602
545.0168, 2.197234
545.4989, 2.753732
545.9810, 3.547936
546.4631, 4.369373
546.9453, 5.016293
547.4274, 5.480073
547.9095, 5.262658
548.3916, 3.893789
548.8737, 2.066557
549.3558, 0.9948740
549.8380, 0.6956820
550.3201, 0.6794210
550.8022, 1.154087
551.2843, 1.652564
551.7664, 1.596531
552.2485, 1.176318
552.7307, 1.194319
553.2128, 2.156346
553.6949, 3.648475
554.1770, 4.514541
554.6591, 4.506045
555.1412, 4.274694
555.6234, 3.447358
556.1055, 2.768479
556.5876, 2.834474
557.0697, 3.463380
557.5518, 3.996023
558.0339, 3.978714
558.5161, 3.667638
558.9982, 3.872501
559.4803, 4.747819
559.9624, 5.019319
560.4445, 3.870472
560.9266, 2.442414
561.4088, 1.911599
561.8909, 2.150093
562.3730, 2.216631
562.8551, 1.663003
563.3372, 0.8943510
563.8193, 0.2814950
564.3015, 0.1302030
564.7836, 0.1319460
565.2657, 0.4359910
565.7478, 1.253460
566.2299, 1.711946
566.7120, 1.538044
567.1942, 1.677603
567.6763, 2.764267
568.1584, 3.574509
568.6405, 3.025251
569.1226, 1.658336
569.6047, 0.8225840
570.0869, 1.248501
570.5690, 2.304227
571.0511, 2.671113
571.5332, 2.174022
572.0153, 1.655708
572.4974, 0.8499660
572.9796, 0.4071740
573.4617, 0.8714930
573.9438, 1.925294
574.4259, 2.873036
574.9080, 3.606197
575.3901, 4.005064
575.8723, 3.881413
576.3544, 3.318357
576.8365, 2.760206
577.3186, 2.307736
577.8007, 1.953790
578.2828, 1.661350
578.7650, 1.432530
579.2471, 1.478497
579.7292, 1.987792
580.2113, 2.582211
580.6934, 3.193949
581.1755, 3.738500
581.6577, 4.084578
582.1398, 4.190671
582.6219, 4.167562
583.1040, 4.176726
583.5861, 4.246772
584.0682, 4.121085
584.5504, 3.667558
585.0325, 3.127115
585.5146, 2.626624
585.9967, 2.168041
586.4788, 1.583041
586.9609, 0.8249900
587.4431, 0.1169670
587.9252, 0.5013870
588.4073, 0.9181530
588.8894, 0.4487810
589.3715, 1.218591
589.8536, 2.444752
590.3358, 1.710936
590.8179, 0.1965100
591.3000, 0.4788730
591.7821, 2.153585
592.2642, 3.978760
592.7463, 3.051554
593.2285, 1.166194
593.7106, 0.4388280
594.1927, 0.9791110
594.6748, 1.412814
595.1569, 0.5629250
595.6390, 1.174769
596.1212, 1.638738
596.6033, 1.1984000E-02
597.0854, 1.496015
597.5675, 2.504717
598.0496, 3.402057
598.5317, 4.825538
599.0139, 6.514209
599.4960, 7.249365
599.9781, 5.737224
600.4602, 3.179313
600.9423, 1.906464
601.4244, 1.948245
601.9066, 2.018528
602.3887, 1.514718
602.8708, 0.9986160
603.3529, 1.509947
603.8350, 3.067620
604.3171, 4.023482
604.7993, 3.594306
605.2814, 3.033030
605.7635, 3.136398
606.2456, 3.717714
606.7277, 4.397907
607.2098, 5.018858
607.6920, 5.411559
608.1741, 5.262808
608.6562, 4.449379
609.1383, 3.771339
609.6204, 3.360093
610.1025, 2.937269
610.5847, 2.224190
611.0668, 1.526772
611.5489, 1.254798
612.0310, 1.523024
612.5131, 2.143458
612.9952, 3.362150
613.4774, 4.836548
613.9595, 5.269001
614.4416, 4.538782
614.9237, 3.948082
615.4058, 4.545733
615.8879, 5.782755
616.3701, 5.792347
616.8522, 3.592490
617.3343, 2.298685
617.8164, 3.369277
618.2985, 4.993958
618.7806, 5.567009
619.2628, 5.118696
619.7449, 4.507577
620.2270, 4.272212
620.7091, 4.295183
621.1912, 4.175294
621.6733, 3.661283
622.1555, 3.750055
622.6376, 5.433300
623.1197, 6.986281
623.6018, 7.192308
624.0839, 6.465714
624.5660, 6.052438
625.0482, 6.672701
625.5303, 7.390361
626.0124, 7.104001
626.4945, 6.111320
626.9766, 5.414332
627.4587, 5.241751
627.9409, 5.427757
628.4230, 5.984941
628.9051, 6.890165
629.3872, 6.884543
629.8693, 5.137014
630.3514, 3.682728
630.8336, 2.774124
631.3157, 2.462702
631.7978, 3.067655
632.2799, 4.428298
632.7620, 5.726831
633.2441, 6.299169
633.7263, 6.179932
634.2084, 5.408330
634.6905, 3.598948
635.1726, 2.728703
635.6547, 4.186434
636.1368, 6.104681
636.6190, 6.440149
637.1011, 5.307305
637.5832, 4.488247
638.0653, 4.833490
638.5474, 5.442991
639.0295, 5.520188
639.5117, 5.263913
639.9938, 5.308023
640.4759, 5.867543
640.9580, 6.502616
641.4401, 6.605433
641.9222, 6.090359
642.4044, 5.846313
642.8865, 6.469366
643.3686, 6.653456
643.8507, 5.471074
644.3328, 4.074504
644.8149, 3.906177
645.2971, 5.141250
645.7792, 6.365333
646.2613, 6.373956
646.7434, 5.625500
647.2255, 5.056997
647.7076, 4.653772
648.1898, 4.413506
648.6719, 4.410723
649.1540, 4.434123
649.6361, 4.099132
650.1182, 3.228241
650.6003, 2.744548
651.0825, 3.097766
651.5646, 3.479056
652.0467, 3.226301
652.5288, 2.722226
653.0109, 2.711307
653.4930, 3.378098
653.9752, 4.396970
654.4573, 5.638260
654.9394, 7.030278
655.4215, 7.245486
655.9036, 5.652369
656.3857, 4.128973
656.8679, 3.913521
657.3500, 4.037012
657.8321, 3.244039
658.3142, 1.278731
658.7963, 0.2613210
659.2784, 0.6207600
659.7606, 0.3569490
660.2427, 0.3513130
660.7248, 1.298582
661.2069, 1.753194
661.6890, 1.320213
662.1711, 0.6148920
662.6533, 0.8198470
663.1354, 2.381767
663.6175, 3.283026
664.0996, 3.020818
664.5817, 2.647171
665.0638, 2.413285
665.5460, 2.295829
666.0281, 2.270355
666.5102, 2.331615
666.9923, 2.356860
667.4744, 2.100614
667.9565, 1.758308
668.4387, 2.074525
668.9208, 1.610339
669.4029, 3.279206
669.8850, 1.405777
670.3671, 1.218055
670.8492, 1.817482
671.3314, 0.5618790
671.8135, 2.498554
672.2956, 4.109080
672.7777, 5.085832
673.2598, 4.873852
673.7419, 4.022371
674.2241, 3.448887
674.7062, 3.489835
675.1883, 3.679726
675.6704, 3.345750
676.1525, 2.573456
676.6346, 2.246187
677.1168, 2.469337
677.5989, 2.866397
678.0810, 3.375137
678.5631, 3.875760
679.0452, 4.221504
679.5273, 4.471064
680.0095, 4.302002
680.4916, 3.075005
680.9737, 1.896089
681.4558, 1.752335
681.9379, 2.319647
682.4200, 2.698604
682.9022, 2.528222
683.3843, 2.288591
683.8664, 2.900239
684.3485, 4.508035
684.8306, 4.644108
685.3127, 2.272484
685.7949, 0.2725770
686.2770, 5.3936999E-02
686.7591, 0.6960010
687.2412, 1.409720
687.7233, 2.135759
688.2054, 2.514162
688.6876, 2.259321
689.1697, 1.675222
689.6518, 0.7741490
690.1339, 0.1999110
690.6160, 0.3671350
691.0981, 0.7035050
691.5803, 0.5382997
692.0624, 0.4597593
692.5445, 0.9094070
693.0266, 0.2812800
693.5087, 0.7610210
693.9908, 1.466747
694.4730, 2.731670
694.9551, 3.753917
695.4372, 3.377367
695.9193, 1.567940
696.4014, 0.1647880
696.8835, 0.5862410
697.3657, 1.795683
697.8478, 2.550021
698.3299, 2.923482
698.8120, 2.992934
699.2941, 2.787322
699.7762, 2.669052
700.2584, 3.152661
700.7405, 4.356455
701.2226, 4.663579
701.7047, 2.958747
702.1868, 1.720302
702.6689, 1.543823
703.1511, 1.921458
703.6332, 2.654322
704.1153, 3.538302
704.5974, 3.905576
705.0795, 3.007234
705.5616, 1.602610
706.0438, 0.7204540
706.5259, 0.3707810
707.0080, 0.8241830
707.4901, 2.328645
707.9722, 3.731989
708.4543, 3.684790
708.9365, 2.232067
709.4186, 1.733601
709.9007, 3.473210
710.3828, 4.414203
710.8649, 3.388443
711.3470, 1.975650
711.8292, 1.384855
712.3113, 1.689866
712.7934, 2.540495
713.2755, 3.957877
713.7576, 5.363277
714.2397, 6.000415
714.7219, 5.865815
715.2040, 4.622917
715.6861, 1.918362
716.1682, 0.3916720
716.6503, 0.6669780
717.1324, 0.6963290
717.6146, 1.571042
718.0967, 1.809953
718.5788, 1.799716
719.0609, 1.349216
719.5430, 0.8551520
720.0251, 0.4470250
720.5073, 0.2441060
720.9894, 0.5033780
721.4715, 1.395251
721.9536, 2.457430
722.4357, 3.004627
722.9178, 3.152919
723.4000, 3.716270
723.8821, 4.905709
724.3642, 5.619994
724.8463, 5.025152
725.3284, 3.650174
725.8105, 2.835322
726.2927, 2.711323
726.7748, 2.792105
727.2569, 3.369189
727.7390, 3.826036
728.2211, 3.650658
728.7032, 3.110593
729.1854, 2.656750
729.6675, 2.303323
730.1496, 2.280216
730.6317, 3.271064
731.1138, 4.857072
731.5959, 5.335300
732.0781, 4.602150
732.5602, 3.852195
733.0423, 3.527076
733.5244, 3.471294
734.0065, 3.466198
734.4886, 3.502807
734.9708, 3.678738
735.4529, 4.609726
735.9350, 4.947603
736.4171, 3.517954
736.8992, 1.670616
737.3813, 0.9940680
737.8635, 1.638993
738.3456, 2.520017
738.8277, 2.899053
739.3098, 2.931854
739.7919, 2.929113
740.2740, 2.884666
740.7562, 2.616781
741.2383, 1.972790
741.7204, 1.518988
742.2025, 1.877620
742.6846, 2.946263
743.1667, 3.616371
743.6489, 3.511068
744.1310, 3.564720
744.6131, 4.318100
745.0952, 4.895552
745.5773, 4.443762
746.0594, 3.257103
746.5416, 2.281766
747.0237, 2.017232
747.5058, 1.854228
747.9879, 0.7850310
748.4700, 0.8265390
748.9521, 1.580426
749.4343, 1.347443
749.9164, 1.890370
750.3985, 0.8593740
750.8806, 2.390700
751.3627, 3.129121
751.8448, 2.816387
752.3270, 2.334013
752.8091, 1.261964
753.2912, 0.5003720
753.7733, 0.8326450
754.2554, 1.482664
754.7375, 1.186892
755.2197, 0.2596810
755.7018, 1.349289
756.1839, 0.6549120
756.6660, 0.9453050
757.1481, 2.143191
757.6302, 2.941853
758.1124, 3.379781
758.5945, 3.428526
759.0766, 3.220971
759.5587, 2.825171
760.0408, 2.259964
760.5229, 2.038529
761.0051, 2.419047
761.4872, 2.728226
761.9693, 2.686316
762.4514, 2.704503
762.9335, 3.215669
763.4156, 4.058944
763.8978, 4.666932
764.3799, 4.839301
764.8620, 4.679865
765.3441, 4.243340
765.8262, 3.540369
766.3083, 2.266719
766.7905, 0.5654510
767.2726, 0.3753510
767.7547, 0.2065590
768.2368, 1.789025
768.7189, 3.287296
769.2010, 4.912443
769.6832, 5.640443
770.1653, 4.916059
770.6474, 4.061219
771.1295, 3.734734
771.6116, 3.553729
772.0938, 2.808939
772.5759, 1.336607
773.0580, 0.7155210
773.5401, 2.557017
774.0222, 4.518051
774.5043, 4.370585
774.9865, 3.148106
775.4686, 3.035774
775.9507, 4.504225
776.4328, 5.791109
776.9149, 5.014436
777.3970, 2.741117
777.8792, 1.628256
778.3613, 1.876326
778.8434, 2.177086
779.3255, 2.371008
779.8076, 2.339179
780.2897, 1.660433
780.7719, 0.6210410
781.2540, 0.4973660
781.7361, 2.274733
782.2182, 3.465214
782.7003, 2.858614
783.1824, 1.949508
783.6646, 2.115567
784.1467, 2.993919
784.6288, 3.431593
785.1109, 2.929785
785.5930, 1.975408
786.0751, 0.8926000
786.5573, 0.1612630
787.0394, 0.4726610
787.5215, 6.4440002E-03
788.0036, 0.7858020
788.4857, 1.768353
788.9678, 2.699035
789.4500, 3.204000
789.9321, 3.251247
790.4142, 3.132533
790.8963, 2.642096
791.3784, 2.258654
791.8605, 2.280017
792.3427, 2.299568
792.8248, 1.841164
793.3069, 0.9999700
793.7890, 0.3249030
794.2711, 1.5699999E-02
794.7532, 7.3478997E-02
795.2354, 1.015451
795.7175, 2.368915
796.1996, 3.223851
796.6817, 3.456716
797.1638, 3.185244
797.6459, 2.404366
798.1281, 1.532571
798.6102, 1.700335
799.0923, 3.394565
799.5744, 4.013503
800.0565, 2.842902
800.5386, 1.731005
801.0208, 1.625989
801.5029, 1.928210
801.9850, 1.975836
802.4671, 1.722519
802.9492, 1.498352
803.4313, 1.355507
803.9135, 1.311792
804.3956, 1.442155
804.8777, 1.648748
805.3598, 1.823782
805.8419, 1.930331
806.3240, 1.874629
806.8062, 1.618949
807.2883, 1.303150
807.7704, 1.103702
808.2525, 1.009838
808.7346, 1.125318
809.2167, 1.558016
809.6989, 1.779255
810.1810, 1.338673
810.6631, 0.5171450
811.1452, 0.1031300
811.6273, 0.3354910
812.1094, 0.4406490
812.5916, 0.2880740
813.0737, 0.1370850
813.5558, 0.1398470
814.0379, 0.2315880
814.5200, 6.9614001E-02
815.0021, 0.4001520
815.4843, 0.6044320
815.9664, 0.2432510
816.4485, 1.191938
816.9306, 0.8057760
817.4127, 0.3202590
817.8948, 0.4667150
818.3770, 0.6479610
818.8591, 1.649852
819.3412, 1.365052
819.8233, 2.044902
820.3054, 2.315039
820.7875, 1.788198
821.2697, 2.446023
821.7518, 1.380503
822.2339, 0.3797250
822.7160, 0.4644210
823.1981, 1.273132
823.6802, 2.355257
824.1624, 3.950496
824.6445, 4.591980
825.1266, 2.999643
825.6087, 1.440418
826.0908, 1.202248
826.5729, 1.686489
827.0551, 2.052575
827.5372, 2.114933
828.0193, 2.081537
828.5014, 2.073251
828.9835, 2.099616
829.4656, 2.298981
829.9478, 2.574308
830.4299, 2.318460
830.9120, 1.406710
831.3941, 0.6639640
831.8762, 0.6611940
832.3583, 1.221600
832.8404, 1.957551
833.3225, 3.230226
833.8046, 3.605965
834.2867, 2.064562
834.7689, 0.9593700
835.2510, 1.625846
835.7331, 2.863435
836.2152, 3.249061
836.6973, 2.672586
837.1794, 2.101977
837.6616, 1.633003
838.1437, 1.496308
838.6258, 2.132543
839.1079, 3.024744
839.5900, 3.577258
840.0721, 3.664552
840.5543, 3.196849
841.0364, 1.984302
841.5185, 0.7958870
842.0006, 1.268371
842.4827, 3.066757
842.9648, 3.967325
843.4470, 3.730948
843.9291, 2.986636
844.4112, 1.900661
844.8933, 0.7793480
845.3754, 0.1957800
845.8575, 0.1789880
846.3397, 0.3615080
846.8218, 0.9494390
847.3039, 1.456667
847.7860, 1.763150
848.2681, 1.980109
848.7502, 2.167756
849.2324, 2.346717
849.7145, 2.583923
850.1966, 3.036104
850.6787, 3.299152
851.1608, 2.979493
851.6429, 2.682998
852.1251, 2.951376
852.6072, 3.396101
853.0893, 3.345165
853.5714, 2.512966
854.0535, 1.583786
854.5356, 1.579156
855.0178, 1.326174
855.4999, 1.179711
855.9820, 1.638936
856.4641, 1.374560
856.9462, 1.935656
857.4283, 2.796760
857.9105, 3.518798
858.3926, 4.076692
858.8747, 4.258959
859.3568, 3.633731
859.8389, 3.390383
860.3210, 4.013794
860.8032, 4.577442
861.2853, 4.713682
861.7674, 4.460255
862.2495, 3.751423
862.7316, 2.479002
863.2137, 1.653100
863.6959, 2.213746
864.1780, 2.868203
864.6601, 2.359200
865.1422, 1.357880
865.6243, 0.9696410
866.1064, 1.412091
866.5886, 2.415380
867.0707, 3.987658
867.5528, 5.483564
868.0349, 5.403216
868.5170, 4.056587
868.9991, 3.433604
869.4813, 3.794971
869.9634, 4.399517
870.4455, 4.955523
870.9276, 5.210603
871.4097, 4.579302
871.8918, 2.801040
872.3740, 1.971703
872.8561, 2.861460
873.3382, 3.420119
873.8203, 2.778035
874.3024, 1.896725
874.7845, 1.661965
875.2667, 1.887295
875.7488, 1.609512
876.2309, 0.2005880
876.7130, 1.033703
877.1951, 0.9837350
877.6772, 3.486175
878.1594, 4.546367
878.6415, 4.453158
879.1236, 4.202141
879.6057, 4.117364
880.0878, 3.786593
880.5699, 2.370776
881.0521, 0.7096850
881.5342, 0.5024470
882.0163, 1.448196
882.4984, 2.442221
882.9805, 3.205820
883.4626, 3.497589
883.9448, 3.051460
884.4269, 2.189627
884.9090, 1.889691
885.3911, 2.267020
885.8732, 2.572067
886.3553, 2.833300
886.8375, 2.841340
887.3196, 2.209012
887.8017, 1.510181
888.2838, 1.706414
888.7659, 2.891926
889.2480, 3.771245
889.7302, 4.359747
890.2123, 4.578448
890.6944, 3.923175
891.1765, 3.300047
891.6586, 3.802288
892.1407, 4.935218
892.6229, 5.065542
893.1050, 3.357593
893.5871, 2.035302
894.0692, 3.170266
894.5513, 5.024907
895.0334, 5.772059
895.5156, 5.521498
895.9977, 4.589687
896.4798, 3.197742
896.9619, 2.079155
897.4440, 1.954803
897.9261, 2.451661
898.4083, 2.636966
898.8904, 2.550755
899.3725, 2.710968
899.8546, 3.222359
900.3367, 3.660294
900.8188, 3.767341
901.3010, 3.673598
901.7831, 3.641972
902.2652, 3.713257
902.7473, 3.557744
903.2294, 2.872255
903.7115, 2.496515
904.1937, 2.880699
904.6758, 3.462655
905.1579, 3.866429
905.6400, 4.076531
906.1221, 4.041070
906.6042, 3.725289
907.0864, 3.216939
907.5685, 2.760356
908.0506, 1.899599
908.5327, 0.6882990
909.0148, 0.7028795
909.4969, 3.520408
909.9791, 0.4513470
910.4612, 2.336273
910.9433, 2.438278
911.4254, 1.338980
911.9075, 0.1202400
912.3896, 1.355705
912.8718, 0.8452030
913.3539, 1.275048
913.8360, 3.238179
914.3181, 4.048728
914.8002, 4.196903
915.2823, 4.399736
915.7645, 4.625702
916.2466, 4.630268
916.7287, 4.404928
917.2108, 4.033193
917.6929, 3.489800
918.1750, 3.037615
918.6572, 2.982510
919.1393, 3.225196
919.6214, 3.120743
920.1035, 2.218132
920.5856, 2.128031
921.0677, 3.891073
921.5499, 5.180100
922.0320, 4.060891
922.5141, 2.256086
922.9962, 2.423497
923.4783, 4.804477
923.9604, 5.999107
924.4426, 3.813090
924.9247, 2.043222
925.4068, 2.675342
925.8889, 3.972980
926.3710, 4.327582
926.8531, 4.010786
927.3353, 4.246703
927.8174, 5.564956
928.2995, 6.533320
928.7816, 5.634765
929.2637, 4.345470
929.7458, 4.354910
930.2280, 5.211265
930.7101, 5.946570
931.1922, 6.310026
931.6743, 6.387629
932.1564, 6.203258
932.6385, 5.902700
933.1207, 5.743681
933.6028, 5.690998
934.0849, 5.588068
934.5670, 5.389470
935.0491, 5.133492
935.5313, 4.687304
936.0134, 4.290316
936.4955, 4.261922
936.9776, 4.562238
937.4597, 4.803992
937.9418, 5.000156
938.4240, 5.071134
938.9061, 4.938864
939.3882, 4.818071
939.8703, 4.840216
940.3524, 4.969436
940.8345, 5.163003
941.3167, 5.520520
941.7988, 5.563692
942.2809, 5.115348
942.7630, 4.600224
943.2451, 3.508722
943.7272, 2.895678
944.2094, 4.333005
944.6915, 7.014470
945.1736, 8.050169
945.6557, 5.991955
946.1378, 4.544267
946.6199, 5.602803
947.1021, 7.164355
947.5842, 8.041602
948.0663, 8.370648
948.5484, 8.433592
949.0305, 8.315597
949.5126, 8.054558
949.9948, 7.583628
950.4769, 7.146723
950.9590, 6.619704
951.4411, 6.473384
951.9232, 8.042640
952.4053, 10.76185
952.8875, 12.43375
953.3696, 12.23983
953.8517, 11.23838
954.3338, 10.40669
954.8159, 9.713977
955.2980, 8.997050
955.7802, 8.311688
956.2623, 8.136831
956.7444, 8.555750
957.2265, 9.019394
957.7086, 9.230526
958.1907, 9.159367
958.6729, 8.693315
959.1550, 7.818030
959.6371, 7.027753
960.1192, 6.171418
960.6013, 6.145480
961.0834, 7.630569
961.5656, 8.981432
962.0477, 8.629277
962.5298, 7.171774
963.0119, 6.734526
963.4940, 7.985423
963.9761, 8.559844
964.4583, 7.981071
964.9404, 7.353986
965.4225, 6.802692
965.9046, 6.511554
966.3867, 6.920089
966.8688, 7.687595
967.3510, 7.562836
967.8331, 5.610203
968.3152, 4.458171
968.7973, 5.257851
969.2794, 6.347299
969.7615, 6.941969
970.2437, 6.983757
970.7258, 6.489890
971.2079, 5.586980
971.6900, 4.904589
972.1721, 5.145920
972.6542, 5.177361
973.1364, 3.880335
973.6185, 2.299071
974.1006, 1.566949
974.5827, 1.563921
975.0648, 1.828230
975.5469, 2.212011
976.0291, 2.392943
976.5112, 1.792680
976.9933, 1.082645
977.4754, 1.028464
977.9575, 1.537730
978.4396, 2.810023
978.9218, 4.551349
979.4039, 5.394436
979.8860, 4.654286
980.3681, 2.919311
980.8502, 0.2505190
981.3323, 2.632739
981.8145, 2.675607
982.2966, 0.2276150
982.7787, 2.002889
983.2608, 3.422491
983.7429, 3.894544
984.2250, 3.192813
984.7072, 2.054806
985.1893, 2.236571
985.6714, 1.571480
986.1535, 0.8338910
986.6356, 1.391627
987.1177, 3.6190001E-03
987.5999, 0.5489260
988.0820, 1.559969
988.5641, 1.787484
989.0462, 1.447973
989.5283, 1.135051
990.0104, 0.4814500
990.4926, 1.238912
990.9747, 4.662769
991.4568, 6.927167
991.9389, 6.185102
992.4210, 4.498589
992.9031, 3.780175
993.3853, 3.931252
993.8674, 4.303490
994.3495, 5.844414
994.8316, 5.999276
995.3137, 2.925774
995.7958, 0.5862140
996.2780, 1.161940
996.7601, 2.872682
997.2422, 3.880615
997.7243, 4.122146
998.2064, 4.180067
998.6885, 4.076933
999.1707, 3.934136
999.6528, 4.069687
1000.135, 3.875209
1000.617, 2.392570
1001.099, 0.6257250
1001.581, 0.2372030
1002.063, 1.303046
1002.545, 2.127800
1003.028, 1.791278
1003.510, 1.361568
1003.992, 1.328932
1004.474, 1.548186
1004.956, 2.137917
1005.438, 2.786105
1005.920, 2.866397
1006.402, 2.275501
1006.885, 1.632196
1007.367, 1.146428
1007.849, 1.020635
1008.331, 1.895983
1008.813, 2.969958
1009.295, 2.749225
1009.777, 1.690635
1010.259, 1.657211
1010.741, 3.206697
1011.224, 4.611681
1011.706, 4.199769
1012.188, 2.954772
1012.670, 2.109534
1013.152, 1.566813
1013.634, 1.684342
1014.116, 2.339494
1014.598, 2.608576
1015.081, 2.099039
1015.563, 1.545903
1016.045, 1.942674
1016.527, 2.756913
1017.009, 2.360578
1017.491, 1.129268
1017.973, 1.064135
1018.455, 2.327094
1018.937, 3.264558
1019.420, 3.022139
1019.902, 2.300346
1020.384, 2.038946
1020.866, 2.123097
1021.348, 2.001201
1021.830, 1.678876
1022.312, 1.225904
1022.794, 0.6252640
1023.276, 0.5138270
1023.759, 1.321540
1024.241, 2.466382
1024.723, 3.005805
1025.205, 2.991996
1025.687, 3.236456
1026.169, 3.833027
1026.651, 3.835937
1027.133, 2.968457
1027.616, 1.957021
1028.098, 1.182277
1028.580, 0.6530080
1029.062, 0.3882820
1029.544, 0.3864360
1030.026, 0.7652670
1030.508, 1.739784
1030.990, 2.346142
1031.473, 2.434567
1031.955, 2.009762
1032.437, 0.7714110
1032.919, 0.6237860
1033.401, 0.8551970
1033.883, 0.2289900
1034.365, 0.9437970
1034.847, 1.013623
1035.329, 1.378932
1035.812, 2.696134
1036.294, 3.565397
1036.776, 2.736352
1037.258, 1.118731
1037.740, 0.5342110
1038.222, 1.163215
1038.704, 1.615107
1039.186, 1.465894
1039.668, 1.552884
1040.151, 2.383792
1040.633, 3.222373
1041.115, 3.876733
1041.597, 4.191525
1042.079, 3.739963
1042.561, 2.354606
1043.043, 1.322632
1043.525, 0.4011190
1044.008, 0.2252310
1044.490, 1.992050
1044.972, 3.412110
1045.454, 2.633292
1045.936, 0.7388920
1046.418, 0.2524170
1046.900, 0.1198240
1047.382, 7.6596998E-02
1047.865, 0.6985270
1048.347, 0.7388040
1048.829, 0.4879890
1049.311, 1.791210
1049.793, 2.436636
1050.275, 2.578729
1050.757, 2.494341
1051.239, 2.195768
1051.721, 1.885557
1052.203, 1.452632
1052.686, 1.239312
1053.168, 1.536402
1053.650, 1.891870
1054.132, 1.987781
1054.614, 1.934918
1055.096, 1.990500
1055.578, 2.181559
1056.060, 2.147310
1056.543, 1.365311
1057.025, 0.9382960
1057.507, 1.439723
1057.989, 2.189788
1058.471, 3.040914
1058.953, 3.649446
1059.435, 3.397927
1059.917, 2.269560
1060.400, 1.312354
1060.882, 0.6029750
1061.364, 0.4752780
1061.846, 1.815267
1062.328, 3.001404
1062.810, 2.536608
1063.292, 1.306059
1063.774, 0.6171330
1064.256, 0.6658880
1064.739, 1.164860
1065.221, 2.671166
1065.703, 3.495922
1066.185, 2.305349
1066.667, 0.8513960
1067.149, 0.2515040
1067.631, 0.2720330
1068.113, 0.7782270
1068.595, 1.579326
1069.078, 1.559310
1069.560, 0.4072550
1070.042, 1.757112
1070.524, 0.7508090
1071.006, 0.6951400
1071.488, 1.296336
1071.970, 1.457088
1072.452, 1.867793
1072.935, 2.518018
1073.417, 2.921103
1073.899, 2.953593
1074.381, 2.601301
1074.863, 1.069418
1075.345, 1.0974000E-02
1075.827, 1.113214
1076.309, 2.951769
1076.792, 3.940478
1077.274, 3.939221
1077.756, 3.200475
1078.238, 1.517210
1078.720, 0.4728570
1079.202, 1.469425
1079.684, 2.583075
1080.166, 2.506134
1080.648, 1.978089
1081.130, 1.735111
1081.613, 1.835156
1082.095, 2.168678
1082.577, 2.739154
1083.059, 3.225098
1083.541, 3.515046
1084.023, 3.649731
1084.505, 3.620502
1084.987, 3.475048
1085.469, 3.259532
1085.952, 2.965111
1086.434, 2.420191
1086.916, 1.573341
1087.398, 1.287748
1087.880, 2.670775
1088.362, 3.731328
1088.844, 3.335236
1089.326, 2.376553
1089.809, 1.074390
1090.291, 2.1366000E-02
1090.773, 0.3754980
1091.255, 2.242384
1091.737, 3.597627
1092.219, 3.203175
1092.701, 2.701512
1093.183, 2.762797
1093.666, 2.903879
1094.148, 2.518728
1094.630, 2.132093
1095.112, 2.882397
1095.594, 4.607317
1096.076, 5.281271
1096.558, 3.594483
1097.040, 2.248441
1097.522, 2.494820
1098.005, 2.902041
1098.487, 2.542720
1098.969, 1.957362
1099.451, 1.879037
1099.933, 2.224080
1100.415, 2.339518
1100.897, 1.960882
1101.379, 1.727648
1101.861, 2.155415
1102.344, 2.320323
1102.826, 1.264929
1103.308, 0.2455240
1103.790, 0.9179470
1104.272, 0.3208892
1104.754, 0.3699689
1105.236, 0.3243550
1105.718, 0.9151100
1106.201, 0.5616290
1106.683, 0.6014709
1107.165, 1.156506
1107.647, 0.3243250
1108.129, 0.1718630
1108.611, 0.1570350
1109.093, 0.9190530
1109.575, 3.221014
1110.057, 4.420850
1110.540, 3.533449
1111.022, 2.672520
1111.504, 1.908700
1111.986, 1.496078
1112.468, 1.643921
1112.950, 2.157653
1113.432, 3.023829
1113.914, 4.169933
1114.396, 4.489580
1114.879, 3.309098
1115.361, 2.460782
1115.843, 2.247445
1116.325, 1.948471
1116.807, 0.9694100
1117.289, 0.1810950
1117.771, 0.6885060
1118.253, 2.022206
1118.736, 2.260398
1119.218, 0.7315250
1119.700, 0.4037900
1120.182, 2.195890
1120.664, 3.192104
1121.146, 2.249307
1121.628, 1.128525
1122.110, 1.110322
1122.593, 1.734722
1123.075, 2.053346
1123.557, 2.044045
1124.039, 2.162070
1124.521, 2.636810
1125.003, 2.279244
1125.485, 2.106293
1125.967, 0.8806350
1126.449, 1.184319
1126.932, 0.7878720
1127.414, 0.2582220
1127.896, 0.3360710
1128.378, 1.256424
1128.860, 1.366649
1129.342, 2.948595
1129.824, 1.640409
1130.306, 0.5788200
1130.788, 0.3448500
1131.271, 1.001373
1131.753, 2.834514
1132.235, 4.997038
1132.717, 4.964256
1133.199, 3.057245
1133.681, 2.209256
1134.163, 2.344471
1134.645, 2.781589
1135.128, 3.326826
1135.610, 3.773107
1136.092, 3.990327
1136.574, 4.059680
1137.056, 4.110334
1137.538, 4.111400
1138.020, 3.824368
1138.502, 4.026142
1138.984, 3.507101
1139.467, 4.242040
1139.949, 4.799858
1140.431, 4.773387
1140.913, 4.774286
1141.395, 5.368071
1141.877, 6.142835
1142.359, 6.530698
1142.841, 6.556380
1143.323, 6.094164
1143.806, 5.335454
1144.288, 4.870811
1144.770, 4.761992
1145.252, 4.370585
1145.734, 3.185780
1146.216, 2.275077
1146.698, 2.798679
1147.180, 4.040474
1147.663, 5.735851
1148.145, 7.248346
1148.627, 7.442760
1149.109, 6.575182
1149.591, 5.818091
1150.073, 5.565670
1150.555, 5.432699
1151.037, 5.335247
1151.520, 5.097589
1152.002, 4.116457
1152.484, 3.389403
1152.966, 4.398479
1153.448, 6.104328
1153.930, 6.545747
1154.412, 5.558156
1154.894, 4.618734
1155.376, 4.061160
1155.859, 3.820650
1156.341, 4.004689
1156.823, 4.356665
1157.305, 5.084596
1157.787, 5.654752
1158.269, 5.229172
1158.751, 4.193231
1159.233, 3.879263
1159.715, 4.601810
1160.198, 5.223427
1160.680, 5.648468
1161.162, 6.010927
1161.644, 6.539428
1162.126, 6.741713
1162.608, 5.988951
1163.090, 5.062611
1163.572, 5.265899
1164.055, 6.606619
1164.537, 6.722108
1165.019, 5.060516
1165.501, 3.969002
1165.983, 3.833274
1166.465, 3.325760
1166.947, 1.635666
1167.429, 0.5718240
1167.911, 2.001892
1168.394, 4.740289
1168.876, 5.716381
1169.358, 4.918485
1169.840, 4.344819
1170.322, 4.005497
1170.804, 4.044350
1171.286, 4.509176
1171.768, 4.590369
1172.250, 3.831243
1172.733, 3.059185
1173.215, 3.355957
1173.697, 4.265229
1174.179, 4.810435
1174.661, 4.937016
1175.143, 4.087389
1175.625, 2.602497
1176.107, 2.104071
1176.590, 2.916120
1177.072, 3.777660
1177.554, 3.882366
1178.036, 3.674569
1178.518, 3.775686
1179.000, 3.748093
1179.482, 2.484850
1179.964, 0.9833680
1180.447, 1.138027
1180.929, 2.618276
1181.411, 3.816683
1181.893, 4.227974
1182.375, 4.398245
1182.857, 4.682107
1183.339, 4.748785
1183.821, 4.072196
1184.303, 3.375200
1184.786, 3.760846
1185.268, 4.209053
1185.750, 2.589436
1186.232, 0.5794550
1186.714, 1.661319
1187.196, 1.068404
1187.678, 2.782077
1188.160, 1.390454
1188.642, 0.6074900
1189.125, 2.978903
1189.607, 4.786475
1190.089, 2.320813
1190.571, 1.552503
1191.053, 1.553185
1191.535, 2.264642
1192.017, 1.727503
1192.499, 2.370957
1192.982, 1.762380
1193.464, 2.761278
1193.946, 3.312645
1194.428, 2.525069
1194.910, 1.690235
1195.392, 2.080940
1195.874, 2.886564
1196.356, 1.804210
1196.839, 0.9069350
1197.321, 1.323462
1197.803, 0.4070510
1198.285, 2.416400
1198.767, 4.150493
1199.249, 4.866920
1199.731, 4.218010
1200.213, 3.357120
1200.695, 3.524726
1201.177, 3.971746
1201.660, 3.166711
1202.142, 3.294326
1202.624, 3.106575
1203.106, 2.599038
1203.588, 2.718743
1204.070, 2.128218
1204.552, 1.848143
1205.034, 2.357714
1205.517, 2.943290
1205.999, 3.070426
1206.481, 3.135539
1206.963, 3.761393
1207.445, 4.149730
1207.927, 2.819379
1208.409, 1.029857
1208.891, 1.465449
1209.374, 4.087363
1209.856, 5.419518
1210.338, 4.061085
1210.820, 2.735000
1211.302, 1.687572
1211.784, 0.9666670
1212.266, 0.4590550
1212.748, 0.4535690
1213.230, 1.676769
1213.713, 3.178397
1214.195, 2.873189
1214.677, 0.8161440
1215.159, 0.2553320
1215.641, 1.496757
1216.123, 2.867305
1216.605, 4.369640
1217.087, 5.034565
1217.569, 4.387713
1218.052, 3.658215
1218.534, 3.942654
1219.016, 3.725700
1219.498, 4.748586
1219.980, 4.319588
1220.462, 4.581444
1220.944, 5.318161
1221.426, 5.682318
1221.909, 5.527568
1222.391, 4.708600
1222.873, 3.249331
1223.355, 1.993708
1223.837, 1.540675
1224.319, 1.686533
1224.801, 2.675115
1225.283, 3.737479
1225.766, 4.192446
1226.248, 4.010343
1226.730, 2.715786
1227.212, 0.8776840
1227.694, 0.1813260
1228.176, 1.137532
1228.658, 2.316643
1229.140, 3.822377
1229.622, 4.652870
1230.104, 4.081210
1230.587, 3.236435
1231.069, 2.632667
1231.551, 2.169133
1232.033, 1.588506
1232.515, 1.048883
1232.997, 1.222807
1233.479, 2.353689
1233.961, 2.863803
1234.444, 2.519732
1234.926, 2.536026
1235.408, 3.213658
1235.890, 3.784677
1236.372, 3.904208
1236.854, 3.698740
1237.336, 2.725286
1237.818, 1.696828
1238.301, 2.715011
1238.783, 5.427425
1239.265, 5.968619
1239.747, 4.751094
1240.229, 3.977036
1240.711, 3.937555
1241.193, 3.511297
1241.675, 2.303905
1242.157, 1.320686
1242.640, 1.187269
1243.122, 1.327194
1243.604, 1.309863
1244.086, 1.254206
1244.568, 1.167307
1245.050, 1.190926
1245.532, 1.554324
1246.014, 2.210491
1246.496, 2.928758
1246.979, 3.721108
1247.461, 4.290344
1247.943, 4.528728
1248.425, 4.627976
1248.907, 4.553087
1249.389, 4.445508
1249.871, 4.412594
1250.353, 4.294369
1250.836, 3.924791
1251.318, 3.400372
1251.800, 3.121091
1252.282, 3.094758
1252.764, 3.220369
1253.246, 3.500614
1253.728, 3.977521
1254.210, 4.614896
1254.693, 3.878076
1255.175, 1.102027
1255.657, 0.9430870
1256.139, 0.7505760
1256.621, 3.673569
1257.103, 4.139019
1257.585, 3.357027
1258.067, 3.040928
1258.549, 3.156297
1259.031, 3.656042
1259.514, 4.289105
1259.996, 4.406245
1260.478, 3.819403
1260.960, 3.112156
1261.442, 2.320209
1261.924, 1.769848
1262.406, 1.488901
1262.888, 1.579120
1263.371, 2.327689
1263.853, 3.281510
1264.335, 3.962610
1264.817, 4.517423
1265.299, 5.432543
1265.781, 5.308258
1266.263, 6.856056
1266.745, 5.222435
1267.228, 4.334941
1267.710, 4.553255
1268.192, 4.448844
1268.674, 3.484114
1269.156, 2.810204
1269.638, 3.414529
1270.120, 4.326674
1270.602, 3.731209
1271.084, 2.552765
1271.567, 0.7100960
1272.049, 1.051481
1272.531, 0.6924590
1273.013, 1.090214
1273.495, 1.036886
1273.977, 1.664611
1274.459, 1.277166
1274.941, 1.278539
1275.423, 1.773839
1275.906, 3.586214
1276.388, 4.891866
1276.870, 4.045665
1277.352, 3.144422
1277.834, 4.454632
1278.316, 6.357018
1278.798, 5.073228
1279.280, 2.020802
1279.763, 1.509399
1280.245, 3.672157
1280.727, 4.811465
1281.209, 4.750340
1281.691, 4.660075
1282.173, 4.855227
1282.655, 4.575975
1283.137, 3.228966
1283.620, 1.621927
1284.102, 0.5717480
1284.584, 2.6232000E-02
1285.066, 0.0000000E+00
##END=



