##NAMES=Sampleite
##RRUFFID=R070018
##IDEAL CHEMISTRY=NaCaCu^2+^_5_(P^5+^O_4_)_4_Cl&#183;5H_2_O
##LOCALITY=Endeavour 26 Open Cut, Northparkes mine, Goonumbla, NSW, Australia
##OWNER=RRUFF
##SOURCE=Mark Mauthner
##DESCRIPTION=Electric-blue platy crystals on limonitic matrix
##STATUS=The identification of this mineral has been confirmed by single-crystal X-ray diffraction.
##URL=rruff.info/R070018
186.3955, 0.0000000E+00
186.8776, 37.69727
187.3597, 54.83594
187.8418, 15.97559
188.3239, 6.512695
188.8061, 8.019531
189.2882, 44.50977
189.7703, 74.71484
190.2524, 102.3076
190.7345, 115.6357
191.2166, 92.25977
191.6988, 37.79395
192.1809, 6.408203
192.6630, 31.32812
193.1451, 82.77930
193.6272, 110.6191
194.1093, 105.8125
194.5915, 99.57910
195.0736, 120.5547
195.5557, 163.9600
196.0378, 191.0117
196.5199, 176.4980
197.0020, 149.6875
197.4842, 150.4150
197.9663, 183.6807
198.4484, 222.7100
198.9305, 254.9463
199.4126, 279.4365
199.8947, 284.7080
200.3769, 249.5420
200.8590, 213.5469
201.3411, 227.0791
201.8232, 295.4170
202.3053, 357.9277
202.7874, 370.3008
203.2696, 340.9160
203.7517, 311.2539
204.2338, 282.4521
204.7159, 266.5410
205.1980, 279.9971
205.6801, 322.0186
206.1623, 357.0801
206.6444, 358.5713
207.1265, 334.4062
207.6086, 318.2930
208.0907, 318.9385
208.5728, 323.8818
209.0550, 321.0781
209.5371, 311.8398
210.0192, 304.0996
210.5013, 304.7295
210.9834, 310.3848
211.4656, 309.9385
211.9477, 299.2949
212.4298, 287.7461
212.9119, 282.5713
213.3940, 282.5107
213.8761, 283.6387
214.3583, 280.7471
214.8404, 278.0244
215.3225, 288.6357
215.8046, 320.2412
216.2867, 348.8398
216.7688, 354.0615
217.2510, 343.9297
217.7331, 335.0566
218.2152, 333.9580
218.6973, 338.2578
219.1794, 343.4404
219.6615, 349.0361
220.1437, 357.0361
220.6258, 370.1045
221.1079, 386.3545
221.5900, 403.6338
222.0721, 426.6934
222.5542, 446.6367
223.0364, 447.4932
223.5185, 425.6221
224.0006, 403.9570
224.4827, 396.3672
224.9648, 396.0654
225.4469, 393.8047
225.9291, 384.8193
226.4112, 377.3398
226.8933, 386.8848
227.3754, 415.5762
227.8575, 428.9561
228.3396, 396.4111
228.8218, 348.1602
229.3039, 325.2373
229.7860, 340.3086
230.2681, 360.4961
230.7502, 353.1494
231.2323, 320.0488
231.7145, 294.3809
232.1966, 285.6104
232.6787, 292.1045
233.1608, 314.9434
233.6429, 358.8672
234.1250, 393.5674
234.6072, 391.5215
235.0893, 359.4219
235.5714, 331.9854
236.0535, 319.0410
236.5356, 312.3828
237.0177, 301.8877
237.4999, 287.4336
237.9820, 275.2168
238.4641, 263.3682
238.9462, 255.9473
239.4283, 269.2783
239.9104, 316.8086
240.3926, 362.9512
240.8747, 362.4062
241.3568, 323.6094
241.8389, 298.6133
242.3210, 323.9160
242.8031, 369.7900
243.2853, 379.7725
243.7674, 340.9639
244.2495, 296.7275
244.7316, 297.6973
245.2137, 329.8223
245.6958, 346.3682
246.1780, 327.2842
246.6601, 293.3828
247.1422, 263.8154
247.6243, 239.1064
248.1064, 219.4287
248.5885, 204.4551
249.0707, 195.2295
249.5528, 193.4902
250.0349, 203.1514
250.5170, 217.1211
250.9991, 232.8252
251.4812, 249.4414
251.9634, 261.0762
252.4455, 263.9492
252.9276, 259.7275
253.4097, 253.7979
253.8918, 243.2812
254.3739, 235.6729
254.8561, 236.3750
255.3382, 243.0439
255.8203, 248.6279
256.3024, 249.3975
256.7845, 249.5996
257.2667, 261.2451
257.7488, 292.1807
258.2309, 308.5869
258.7130, 288.7119
259.1951, 251.0859
259.6772, 225.1279
260.1594, 218.8467
260.6415, 222.1211
261.1236, 221.4414
261.6057, 215.1465
262.0878, 213.9287
262.5699, 230.2471
263.0521, 245.5547
263.5342, 233.9131
264.0163, 193.5459
264.4984, 157.7012
264.9805, 162.2363
265.4626, 214.4316
265.9448, 238.5400
266.4269, 208.0264
266.9090, 173.2930
267.3911, 165.4688
267.8732, 182.4648
268.3553, 207.7842
268.8375, 232.9492
269.3196, 256.3594
269.8017, 256.3574
270.2838, 205.3408
270.7659, 166.3525
271.2480, 166.1807
271.7302, 191.8428
272.2123, 219.7539
272.6944, 238.9678
273.1765, 249.5439
273.6586, 251.7227
274.1407, 241.5430
274.6229, 227.3398
275.1050, 200.4824
275.5871, 173.8193
276.0692, 166.5225
276.5513, 183.4609
277.0334, 205.3740
277.5156, 198.5840
277.9977, 136.4824
278.4798, 99.07715
278.9619, 90.21680
279.4440, 99.77051
279.9261, 133.1387
280.4083, 183.6309
280.8904, 225.6582
281.3725, 228.8799
281.8546, 184.6855
282.3367, 159.3711
282.8188, 155.5645
283.3010, 165.6514
283.7831, 196.2578
284.2652, 239.2500
284.7473, 279.2461
285.2294, 306.9834
285.7115, 322.0898
286.1937, 321.2119
286.6758, 293.7480
287.1579, 262.3447
287.6400, 220.3730
288.1221, 181.1533
288.6042, 164.1064
289.0864, 179.9668
289.5685, 214.0879
290.0506, 231.2197
290.5327, 217.3213
291.0148, 217.0176
291.4969, 256.1738
291.9791, 300.8115
292.4612, 328.5693
292.9433, 334.2393
293.4254, 321.0674
293.9075, 283.4248
294.3896, 217.7686
294.8718, 173.6641
295.3539, 173.5420
295.8360, 181.1201
296.3181, 176.7266
296.8002, 161.2305
297.2823, 143.3848
297.7645, 128.3096
298.2466, 115.4971
298.7287, 102.1162
299.2108, 86.74512
299.6929, 73.88672
300.1750, 66.87109
300.6572, 63.88770
301.1393, 62.09961
301.6214, 59.74414
302.1035, 58.84766
302.5856, 61.00684
303.0677, 65.98730
303.5499, 77.99316
304.0320, 106.2793
304.5141, 139.0430
304.9962, 157.0615
305.4783, 154.9990
305.9604, 149.5215
306.4426, 152.5283
306.9247, 161.1602
307.4068, 165.2773
307.8889, 161.3770
308.3710, 153.0703
308.8531, 145.4482
309.3353, 138.8398
309.8174, 129.7041
310.2995, 112.4629
310.7816, 94.32227
311.2637, 84.72461
311.7458, 85.00879
312.2280, 90.13574
312.7101, 98.03320
313.1922, 108.3291
313.6743, 108.3721
314.1564, 88.59473
314.6385, 67.68945
315.1207, 57.99414
315.6028, 56.62109
316.0849, 52.19727
316.5670, 37.23340
317.0491, 15.73145
317.5313, 4.938477
318.0134, 21.73535
318.4955, 27.60254
318.9776, 5.799805
319.4597, 25.23535
319.9418, 45.69238
320.4240, 47.74219
320.9061, 33.92090
321.3882, 8.166992
321.8703, 45.04492
322.3524, 70.34766
322.8345, 39.37598
323.3167, 10.21582
323.7988, 31.76172
324.2809, 93.78418
324.7630, 141.5469
325.2451, 121.7236
325.7272, 36.35254
326.2094, 13.63184
326.6915, 3.896484
327.1736, 23.63379
327.6557, 28.24609
328.1378, 25.16602
328.6199, 27.88184
329.1021, 43.99512
329.5842, 64.60449
330.0663, 66.33887
330.5484, 38.70410
331.0305, 26.76172
331.5126, 56.97754
331.9948, 94.33398
332.4769, 113.6973
332.9590, 111.3066
333.4411, 100.9912
333.9232, 95.38867
334.4053, 93.79199
334.8875, 86.37012
335.3696, 64.93359
335.8517, 47.93066
336.3338, 56.93262
336.8159, 83.30859
337.2980, 97.14941
337.7802, 77.50391
338.2623, 41.52148
338.7444, 11.28418
339.2265, 13.85059
339.7086, 24.61426
340.1907, 8.389648
340.6729, 24.09473
341.1550, 46.62402
341.6371, 58.36523
342.1192, 60.87695
342.6013, 47.34473
343.0834, 24.56543
343.5656, 13.36621
344.0477, 23.46582
344.5298, 41.04785
345.0119, 43.48242
345.4940, 28.67969
345.9761, 8.477539
346.4583, 29.98145
346.9404, 64.14746
347.4225, 71.77344
347.9046, 52.74023
348.3867, 23.06152
348.8688, 6.463867
349.3510, 36.11523
349.8331, 48.86035
350.3152, 30.65625
350.7973, 13.47168
351.2794, 1.109375
351.7615, 3.002930
352.2437, 8.213867
352.7258, 38.48730
353.2079, 78.19141
353.6900, 108.1426
354.1721, 133.1650
354.6542, 138.4229
355.1364, 108.1045
355.6185, 73.21094
356.1006, 55.41797
356.5827, 55.58105
357.0648, 58.53125
357.5469, 47.39160
358.0291, 23.05664
358.5112, 13.54492
358.9933, 28.75684
359.4754, 43.00391
359.9575, 44.90332
360.4396, 40.61328
360.9218, 41.41211
361.4039, 54.69922
361.8860, 69.95605
362.3681, 69.04395
362.8502, 49.76660
363.3323, 32.24609
363.8145, 17.57324
364.2966, 12.50977
364.7787, 29.67188
365.2608, 72.44043
365.7430, 103.8770
366.2251, 93.84180
366.7072, 60.38477
367.1893, 42.47656
367.6714, 47.40820
368.1535, 55.76855
368.6357, 49.25488
369.1178, 29.32617
369.5999, 15.85449
370.0820, 6.522461
370.5641, 6.906250
371.0462, 29.65039
371.5284, 66.00586
372.0105, 89.90625
372.4926, 87.61133
372.9747, 69.16309
373.4568, 59.89746
373.9389, 71.55762
374.4211, 74.88184
374.9032, 59.14160
375.3853, 40.84473
375.8674, 38.80273
376.3495, 52.66504
376.8316, 61.81055
377.3138, 41.84863
377.7959, 10.93164
378.2780, 40.49902
378.7601, 34.41211
379.2422, 15.41992
379.7243, 24.94043
380.2065, 70.77539
380.6886, 99.81348
381.1707, 101.8154
381.6528, 84.42285
382.1349, 56.99316
382.6170, 12.43555
383.0992, 14.36133
383.5813, 4.255859
384.0634, 17.61133
384.5455, 39.50879
385.0276, 59.10449
385.5097, 74.20117
385.9919, 87.90039
386.4740, 95.70996
386.9561, 79.08398
387.4382, 29.00781
387.9203, 15.00488
388.4024, 23.01953
388.8846, 6.088867
389.3667, 9.208984
389.8488, 20.80957
390.3309, 29.00293
390.8130, 34.12891
391.2951, 35.95605
391.7773, 30.67480
392.2594, 14.63379
392.7415, 0.7333980
393.2236, 12.39648
393.7057, 65.32617
394.1878, 94.27734
394.6700, 74.87695
395.1521, 47.78711
395.6342, 45.05859
396.1163, 63.53906
396.5984, 79.29004
397.0805, 74.31934
397.5627, 52.04199
398.0448, 36.95996
398.5269, 38.54004
399.0090, 34.57324
399.4911, 10.89062
399.9732, 13.17383
400.4554, 17.13477
400.9375, 3.625977
401.4196, 35.79590
401.9017, 68.47461
402.3838, 102.6885
402.8659, 115.0273
403.3481, 85.29590
403.8302, 56.59570
404.3123, 54.54395
404.7944, 67.93164
405.2765, 73.00684
405.7586, 55.85156
406.2408, 31.67188
406.7229, 18.84082
407.2050, 16.61621
407.6871, 26.70117
408.1692, 61.38086
408.6513, 97.45703
409.1335, 95.44824
409.6156, 48.03125
410.0977, 10.90918
410.5798, 12.80078
411.0619, 30.46582
411.5440, 34.23730
412.0262, 21.12695
412.5083, 5.750977
412.9904, 0.6230470
413.4725, 1.454102
413.9546, 2.150391
414.4367, 0.6367190
414.9189, 1.019531
415.4010, 9.788086
415.8831, 15.58301
416.3652, 0.2382810
416.8473, 41.09277
417.3294, 88.29785
417.8116, 110.2207
418.2937, 101.5342
418.7758, 88.15625
419.2579, 50.23047
419.7400, 26.99609
420.2221, 46.85059
420.7043, 92.94922
421.1864, 127.2656
421.6685, 126.8379
422.1506, 106.8477
422.6327, 99.40137
423.1148, 107.9824
423.5970, 107.4922
424.0791, 74.36328
424.5612, 41.77344
425.0433, 51.82812
425.5254, 107.5449
426.0075, 147.8320
426.4897, 128.9551
426.9718, 81.63965
427.4539, 52.91504
427.9360, 47.43848
428.4181, 52.82812
428.9002, 63.85059
429.3824, 79.20117
429.8645, 88.98633
430.3466, 88.16602
430.8287, 88.54004
431.3108, 94.23926
431.7929, 102.6025
432.2751, 111.5303
432.7572, 120.0205
433.2393, 125.1768
433.7214, 122.1855
434.2035, 108.2900
434.6856, 102.1055
435.1678, 107.2197
435.6499, 115.4180
436.1320, 129.5117
436.6141, 145.3311
437.0962, 155.0459
437.5783, 155.3818
438.0605, 145.9102
438.5426, 120.3633
439.0247, 73.56250
439.5068, 53.96191
439.9889, 98.43652
440.4710, 145.1035
440.9532, 131.7324
441.4353, 70.80566
441.9174, 33.56348
442.3995, 72.24512
442.8816, 137.2490
443.3637, 161.2773
443.8459, 146.0791
444.3280, 136.8750
444.8101, 159.3730
445.2922, 199.3652
445.7743, 216.8516
446.2564, 204.4229
446.7386, 195.2266
447.2207, 200.5879
447.7028, 205.8691
448.1849, 195.9014
448.6670, 171.2842
449.1491, 143.6230
449.6313, 120.8564
450.1134, 103.4043
450.5955, 102.8301
451.0776, 147.1309
451.5597, 172.4648
452.0418, 150.3037
452.5240, 114.8535
453.0061, 101.9951
453.4882, 119.4600
453.9703, 144.7764
454.4524, 157.4072
454.9345, 157.9619
455.4167, 149.2715
455.8988, 123.3721
456.3809, 105.9814
456.8630, 134.9385
457.3451, 178.7500
457.8272, 179.4941
458.3094, 102.9492
458.7915, 28.34961
459.2736, 15.08594
459.7557, 42.84961
460.2378, 63.54590
460.7199, 63.53418
461.2021, 57.38379
461.6842, 62.73633
462.1663, 82.47656
462.6484, 96.83691
463.1305, 103.9717
463.6126, 108.1504
464.0948, 109.3701
464.5769, 109.5684
465.0590, 113.6455
465.5411, 122.0449
466.0232, 131.8154
466.5053, 140.7842
466.9875, 149.7422
467.4696, 156.5674
467.9517, 166.5869
468.4338, 168.3574
468.9159, 147.8223
469.3980, 113.6982
469.8802, 90.87402
470.3623, 95.37402
470.8444, 112.2100
471.3265, 121.6328
471.8086, 123.3555
472.2907, 119.2100
472.7729, 109.8662
473.2550, 94.50684
473.7371, 66.98340
474.2192, 25.41797
474.7013, 3.222656
475.1834, 21.23340
475.6656, 47.07129
476.1477, 49.12207
476.6298, 34.52246
477.1119, 37.16113
477.5940, 78.44922
478.0761, 139.0000
478.5583, 161.3477
479.0404, 117.9033
479.5225, 83.14258
480.0046, 62.86230
480.4867, 48.58301
480.9688, 33.92383
481.4510, 19.85547
481.9331, 12.39453
482.4152, 18.69141
482.8973, 31.66797
483.3794, 42.01660
483.8615, 50.53418
484.3437, 51.28320
484.8258, 31.37305
485.3079, 11.50879
485.7900, 20.19141
486.2721, 60.52734
486.7542, 96.70996
487.2364, 119.2246
487.7185, 128.4609
488.2006, 117.0879
488.6827, 89.06641
489.1649, 68.61719
489.6470, 70.91895
490.1291, 90.24023
490.6112, 107.7148
491.0933, 135.9102
491.5754, 143.7578
492.0576, 113.8848
492.5397, 76.67480
493.0218, 51.50488
493.5039, 40.45215
493.9860, 38.10938
494.4681, 42.73926
494.9503, 51.34082
495.4324, 50.16406
495.9145, 32.11816
496.3966, 28.64062
496.8787, 67.81348
497.3608, 113.2656
497.8430, 128.6211
498.3251, 111.4746
498.8072, 89.83398
499.2893, 70.15918
499.7714, 56.36035
500.2535, 58.27930
500.7357, 74.19922
501.2178, 88.86914
501.6999, 94.91211
502.1820, 92.30566
502.6641, 80.71191
503.1462, 49.61816
503.6284, 25.64355
504.1105, 6.835938
504.5926, 2.862305
505.0747, 5.073242
505.5568, 25.65430
506.0389, 42.21289
506.5211, 41.59277
507.0032, 31.39551
507.4853, 38.66699
507.9674, 72.13965
508.4495, 92.09863
508.9316, 74.03125
509.4138, 50.28418
509.8959, 50.73047
510.3780, 74.09766
510.8601, 91.37598
511.3422, 85.65723
511.8243, 69.99121
512.3065, 61.47559
512.7886, 58.51172
513.2707, 42.51953
513.7528, 1.459961
514.2349, 46.05566
514.7170, 32.34082
515.1992, 91.06543
515.6813, 162.2412
516.1634, 142.5361
516.6455, 106.3711
517.1276, 94.45703
517.6097, 102.8604
518.0919, 110.6885
518.5740, 107.0889
519.0561, 94.60742
519.5382, 75.66309
520.0203, 47.90039
520.5024, 29.36133
520.9846, 33.27246
521.4667, 35.39551
521.9488, 8.700195
522.4309, 37.07617
522.9130, 62.97168
523.3951, 53.06348
523.8773, 21.96289
524.3594, 37.16113
524.8415, 108.3477
525.3236, 143.2588
525.8057, 124.2920
526.2878, 80.55078
526.7700, 49.02246
527.2521, 31.02832
527.7342, 18.60547
528.2163, 7.878906
528.6984, 6.286133
529.1805, 25.72852
529.6627, 52.47656
530.1448, 67.43164
530.6269, 63.85547
531.1090, 52.00977
531.5911, 39.55371
532.0732, 26.90723
532.5554, 31.20605
533.0375, 62.94824
533.5196, 94.46777
534.0017, 112.5088
534.4838, 116.3076
534.9659, 101.6357
535.4481, 53.43555
535.9302, 16.08301
536.4123, 16.69531
536.8944, 40.99121
537.3765, 81.22168
537.8586, 130.1846
538.3408, 153.3506
538.8229, 114.9062
539.3050, 26.50195
539.7871, 16.25391
540.2692, 14.62012
540.7513, 52.08984
541.2335, 100.6973
541.7156, 141.9092
542.1977, 158.1797
542.6798, 150.0156
543.1619, 133.7471
543.6440, 118.9814
544.1262, 105.8994
544.6083, 90.50684
545.0904, 72.51074
545.5725, 69.58789
546.0546, 96.10059
546.5367, 131.6143
547.0189, 140.5664
547.5010, 118.3018
547.9831, 98.21191
548.4652, 83.59766
548.9473, 72.17578
549.4294, 65.08301
549.9116, 59.76074
550.3937, 50.02441
550.8758, 32.95312
551.3579, 14.66211
551.8400, 6.338867
552.3221, 9.293945
552.8043, 15.62109
553.2864, 27.34473
553.7685, 39.14355
554.2506, 47.07617
554.7327, 54.03613
555.2148, 65.26270
555.6970, 84.93262
556.1791, 102.6787
556.6612, 111.0889
557.1433, 114.3672
557.6254, 126.0186
558.1075, 147.7656
558.5897, 155.5400
559.0718, 123.0391
559.5539, 57.91504
560.0360, 32.68652
560.5181, 90.11230
561.0002, 134.1582
561.4824, 163.3506
561.9645, 170.4189
562.4466, 134.2139
562.9287, 65.44531
563.4108, 10.54688
563.8929, 5.616211
564.3751, 35.34766
564.8572, 70.67383
565.3393, 113.1885
565.8214, 138.8213
566.3035, 137.0674
566.7856, 118.5039
567.2678, 90.75000
567.7499, 52.86719
568.2320, 29.35254
568.7141, 33.73242
569.1962, 42.87012
569.6783, 36.54590
570.1605, 26.54395
570.6426, 40.89062
571.1247, 88.10840
571.6068, 141.2354
572.0889, 160.5342
572.5710, 146.6416
573.0532, 141.3037
573.5353, 148.2822
574.0174, 150.5996
574.4995, 137.2842
574.9816, 117.2793
575.4637, 101.6621
575.9459, 92.50781
576.4280, 85.36328
576.9101, 81.86719
577.3922, 76.82910
577.8743, 53.02148
578.3564, 14.52344
578.8386, 2.233398
579.3207, 44.97266
579.8028, 117.1201
580.2849, 146.0732
580.7670, 105.0664
581.2491, 74.02930
581.7313, 44.11523
582.2134, 34.13867
582.6955, 67.30859
583.1776, 124.5371
583.6597, 162.3652
584.1418, 156.8926
584.6240, 141.2285
585.1061, 167.3691
585.5882, 222.0312
586.0703, 233.1191
586.5524, 182.9648
587.0345, 118.6934
587.5167, 72.73438
587.9988, 45.42969
588.4809, 39.48828
588.9630, 75.76562
589.4451, 103.1426
589.9272, 113.0645
590.4094, 109.8340
590.8915, 94.61719
591.3736, 69.66016
591.8557, 36.38281
592.3378, 12.73535
592.8199, 56.90332
593.3021, 26.00195
593.7842, 93.57227
594.2663, 169.8398
594.7484, 154.7637
595.2305, 108.6191
595.7126, 88.52539
596.1948, 90.91992
596.6769, 95.24414
597.1590, 99.71289
597.6411, 102.8887
598.1232, 108.2754
598.6053, 113.3906
599.0875, 118.4766
599.5696, 122.5410
600.0517, 118.2559
600.5338, 94.37305
601.0159, 54.95312
601.4980, 40.73828
601.9802, 62.87109
602.4623, 84.51367
602.9444, 96.61914
603.4265, 102.3438
603.9086, 101.5371
604.3907, 94.81250
604.8729, 92.42773
605.3550, 111.9746
605.8371, 125.9590
606.3192, 98.02734
606.8013, 44.69336
607.2834, 10.00000
607.7656, 9.257813
608.2477, 29.47852
608.7298, 57.54883
609.2119, 95.55859
609.6940, 113.1602
610.1761, 95.84375
610.6583, 77.54883
611.1404, 72.22461
611.6225, 67.63281
612.1046, 39.77344
612.5867, 12.78516
613.0688, 35.35742
613.5510, 46.01562
614.0331, 151.1992
614.5152, 153.0635
614.9973, 69.13770
615.4794, 17.13379
615.9615, 49.18262
616.4437, 114.7900
616.9258, 134.0693
617.4079, 93.80176
617.8900, 66.78320
618.3721, 61.28613
618.8542, 59.48145
619.3364, 60.84766
619.8185, 60.98047
620.3006, 50.58789
620.7827, 28.06934
621.2648, 14.26465
621.7469, 31.82227
622.2291, 66.52148
622.7112, 96.38281
623.1933, 119.3760
623.6754, 117.2598
624.1575, 73.69531
624.6396, 23.21191
625.1218, 31.45215
625.6039, 130.6621
626.0860, 184.1055
626.5681, 167.3691
627.0502, 136.8525
627.5323, 98.31055
628.0145, 65.34766
628.4966, 56.10938
628.9787, 75.52148
629.4608, 106.7881
629.9429, 143.0918
630.4250, 178.7510
630.9072, 201.6387
631.3893, 211.2793
631.8714, 196.8828
632.3535, 143.4570
632.8356, 81.79395
633.3177, 71.79785
633.7999, 133.6895
634.2820, 188.1992
634.7641, 251.7275
635.2462, 289.1016
635.7283, 263.4658
636.2104, 210.6787
636.6926, 187.5479
637.1747, 210.8955
637.6568, 234.9717
638.1389, 196.6475
638.6210, 126.5527
639.1031, 128.5977
639.5853, 208.7324
640.0674, 273.9561
640.5495, 282.0430
641.0316, 253.1602
641.5137, 219.7891
641.9958, 175.8008
642.4780, 148.1641
642.9601, 144.7070
643.4422, 148.2432
643.9243, 155.1611
644.4064, 164.8643
644.8885, 172.9980
645.3707, 180.2920
645.8528, 182.9170
646.3349, 176.4521
646.8170, 162.5898
647.2991, 142.1729
647.7813, 115.2568
648.2634, 99.45215
648.7455, 104.6494
649.2276, 119.8652
649.7097, 127.6455
650.1918, 124.2139
650.6740, 126.7432
651.1561, 153.9121
651.6382, 171.4863
652.1203, 151.9336
652.6024, 122.7617
653.0845, 124.0205
653.5667, 161.7529
654.0488, 196.9141
654.5309, 191.1260
655.0130, 161.6699
655.4951, 145.8809
655.9772, 143.4521
656.4594, 144.6445
656.9415, 147.1396
657.4236, 148.1650
657.9057, 144.5830
658.3878, 136.7588
658.8699, 121.0674
659.3521, 79.85742
659.8342, 53.10742
660.3163, 58.71875
660.7984, 78.75000
661.2805, 99.59277
661.7626, 116.7969
662.2448, 123.3809
662.7269, 110.6367
663.2090, 87.33203
663.6911, 61.01953
664.1732, 34.70703
664.6553, 28.23926
665.1375, 48.83789
665.6196, 79.32129
666.1017, 103.0498
666.5838, 119.9893
667.0659, 126.7783
667.5480, 109.0781
668.0302, 100.4893
668.5123, 116.1006
668.9944, 133.9922
669.4765, 137.3389
669.9586, 126.2842
670.4407, 109.5693
670.9229, 88.92676
671.4050, 68.44434
671.8871, 44.53125
672.3692, 22.30957
672.8513, 21.53711
673.3335, 45.24512
673.8156, 64.77344
674.2977, 54.15234
674.7798, 21.23047
675.2620, 6.669922
675.7441, 18.30762
676.2262, 32.48535
676.7083, 52.95703
677.1904, 69.77246
677.6725, 77.31152
678.1547, 76.83984
678.6368, 71.74805
679.1189, 61.81641
679.6010, 50.29492
680.0831, 34.73242
680.5652, 21.11035
681.0474, 17.60645
681.5295, 25.24414
682.0116, 45.22070
682.4937, 79.78809
682.9758, 118.3027
683.4579, 135.4580
683.9401, 126.6240
684.4222, 117.5684
684.9043, 104.7217
685.3864, 98.85352
685.8685, 118.6143
686.3506, 144.2354
686.8328, 141.5049
687.3149, 98.56348
687.7970, 65.13086
688.2791, 69.88672
688.7612, 80.51074
689.2433, 71.42480
689.7255, 45.83594
690.2076, 9.807617
690.6897, 33.09277
691.1718, 65.45117
691.6539, 56.30469
692.1360, 11.21191
692.6182, 3.885742
693.1003, 21.26758
693.5824, 28.22949
694.0645, 14.59668
694.5466, 76.30078
695.0287, 114.6758
695.5109, 128.3467
695.9930, 137.6670
696.4751, 139.7939
696.9572, 142.2012
697.4393, 152.8389
697.9214, 162.4346
698.4036, 156.6182
698.8857, 135.9590
699.3678, 119.0469
699.8499, 128.0635
700.3320, 139.4775
700.8141, 92.71973
701.2963, 0.4921880
701.7784, 42.87500
702.2605, 7.268555
702.7426, 51.21289
703.2247, 88.26074
703.7068, 105.1973
704.1890, 112.4990
704.6711, 94.86328
705.1532, 94.23047
705.6353, 129.8594
706.1174, 161.7402
706.5995, 163.4883
707.0817, 140.4648
707.5638, 106.3965
708.0459, 58.81543
708.5280, 23.38477
709.0101, 24.56836
709.4922, 47.44824
709.9744, 76.86426
710.4565, 106.2646
710.9386, 110.3047
711.4207, 72.88086
711.9028, 24.89551
712.3849, 29.87598
712.8671, 101.5205
713.3492, 135.3320
713.8313, 114.7012
714.3134, 85.95312
714.7955, 63.08496
715.2776, 45.90430
715.7598, 33.06641
716.2419, 24.13477
716.7240, 25.13770
717.2061, 46.07715
717.6882, 68.47168
718.1703, 85.21191
718.6525, 94.54688
719.1346, 87.80762
719.6167, 67.43359
720.0988, 59.76270
720.5809, 98.94922
721.0630, 156.3467
721.5452, 143.2930
722.0273, 62.48242
722.5094, 18.14844
722.9915, 41.38574
723.4736, 76.50781
723.9557, 72.36523
724.4379, 36.66699
724.9200, 22.36328
725.4021, 54.29102
725.8842, 73.27441
726.3663, 60.83789
726.8484, 50.80371
727.3306, 72.10938
727.8127, 109.2090
728.2948, 123.0117
728.7769, 96.72266
729.2590, 61.43555
729.7411, 29.94434
730.2233, 9.974609
730.7054, 22.76855
731.1875, 61.61621
731.6696, 90.00586
732.1517, 90.90039
732.6339, 80.75684
733.1160, 87.16504
733.5981, 111.8379
734.0802, 110.0283
734.5623, 64.86035
735.0444, 37.31543
735.5266, 65.01758
736.0087, 110.1924
736.4908, 126.5488
736.9729, 114.9287
737.4550, 105.3701
737.9371, 107.1299
738.4193, 105.8271
738.9014, 89.96484
739.3835, 71.19238
739.8656, 60.19043
740.3477, 58.93164
740.8298, 66.37695
741.3120, 83.90332
741.7941, 105.6289
742.2762, 129.2275
742.7583, 150.3184
743.2404, 144.5596
743.7225, 108.1221
744.2047, 73.53613
744.6868, 60.19141
745.1689, 64.29590
745.6510, 78.65332
746.1331, 112.6611
746.6152, 129.8105
747.0974, 119.2500
747.5795, 104.9541
748.0616, 91.08008
748.5437, 79.05566
749.0258, 78.62891
749.5079, 94.72949
749.9901, 108.8545
750.4722, 115.4951
750.9543, 111.4072
751.4364, 87.94531
751.9185, 57.42090
752.4006, 29.86621
752.8828, 11.35742
753.3649, 19.33301
753.8470, 77.65820
754.3291, 157.1914
754.8112, 185.5049
755.2933, 161.3633
755.7755, 133.6494
756.2576, 113.3252
756.7397, 95.85938
757.2218, 77.58008
757.7039, 59.74023
758.1860, 48.21289
758.6682, 43.65332
759.1503, 44.61230
759.6324, 56.73145
760.1145, 67.52734
760.5966, 73.00684
761.0787, 69.61523
761.5609, 43.45020
762.0430, 9.877930
762.5251, 35.09766
763.0072, 27.28223
763.4893, 102.5107
763.9714, 122.7275
764.4536, 102.6904
764.9357, 64.71680
765.4178, 20.54297
765.8999, 2.146484
766.3820, 48.49609
766.8641, 129.6250
767.3463, 149.2803
767.8284, 105.5049
768.3105, 68.22852
768.7926, 48.52930
769.2747, 42.91602
769.7568, 54.82422
770.2390, 77.94727
770.7211, 89.69531
771.2032, 88.29492
771.6853, 79.54688
772.1674, 43.29297
772.6495, 18.33691
773.1317, 31.19727
773.6138, 63.47559
774.0959, 90.30176
774.5780, 106.7754
775.0601, 114.9160
775.5422, 115.6328
776.0244, 108.8604
776.5065, 89.09570
776.9886, 62.97363
777.4707, 44.60059
777.9528, 36.50195
778.4349, 29.54492
778.9171, 15.49316
779.3992, 1.183594
779.8813, 9.664063
780.3634, 10.00293
780.8455, 1.589844
781.3276, 16.27344
781.8098, 42.12500
782.2919, 82.78027
782.7740, 123.6074
783.2561, 119.9688
783.7382, 29.37891
784.2203, 3.094727
784.7025, 84.54199
785.1846, 156.3535
785.6667, 152.0918
786.1488, 114.9561
786.6309, 97.43555
787.1130, 105.6943
787.5952, 114.3506
788.0773, 117.0215
788.5594, 112.7578
789.0415, 95.75391
789.5236, 73.93164
790.0057, 62.03711
790.4879, 59.06836
790.9700, 45.57422
791.4521, 3.496094
791.9342, 35.88086
792.4163, 7.267578
792.8984, 75.50000
793.3806, 140.5732
793.8627, 181.1719
794.3448, 180.6963
794.8269, 121.2266
795.3090, 41.52344
795.7911, 14.48438
796.2733, 51.49902
796.7554, 66.05859
797.2375, 37.90430
797.7196, 20.13379
798.2017, 37.25879
798.6838, 63.96875
799.1660, 80.15430
799.6481, 86.42480
800.1302, 92.16113
800.6123, 101.0020
801.0944, 107.0781
801.5765, 107.8906
802.0587, 105.3770
802.5408, 101.0283
803.0229, 94.87500
803.5050, 87.44043
803.9871, 79.18848
804.4692, 65.15137
804.9514, 22.61230
805.4335, 21.48633
805.9156, 3.547852
806.3977, 66.28320
806.8798, 132.1309
807.3619, 172.0117
807.8441, 181.6992
808.3262, 148.6416
808.8083, 82.71289
809.2904, 45.02246
809.7725, 39.99805
810.2546, 41.86621
810.7368, 53.04883
811.2189, 54.73730
811.7010, 18.50000
812.1831, 33.95898
812.6652, 26.67676
813.1473, 98.37695
813.6295, 159.3770
814.1116, 85.93555
814.5937, 26.22168
815.0758, 48.03516
815.5579, 107.1094
816.0400, 145.0703
816.5222, 152.6426
817.0043, 145.7520
817.4864, 120.3418
817.9685, 95.12695
818.4506, 91.01562
818.9327, 93.00098
819.4149, 70.62793
819.8970, 27.71680
820.3791, 3.807617
820.8612, 0.5986330
821.3433, 21.72949
821.8254, 46.39551
822.3076, 73.67383
822.7897, 111.9277
823.2718, 160.2354
823.7539, 181.4229
824.2360, 158.6094
824.7181, 112.6992
825.2003, 66.82520
825.6824, 21.81445
826.1645, 9.965820
826.6466, 49.69922
827.1287, 72.77344
827.6108, 57.93164
828.0930, 32.67773
828.5751, 8.787109
829.0572, 8.495117
829.5393, 1.432617
830.0214, 65.61621
830.5035, 101.0332
830.9857, 72.26465
831.4678, 39.28320
831.9499, 35.38477
832.4320, 46.22852
832.9141, 46.41699
833.3962, 32.82910
833.8784, 30.34375
834.3605, 61.42285
834.8426, 99.90527
835.3247, 131.8828
835.8068, 153.3105
836.2889, 153.5371
836.7711, 134.5635
837.2532, 106.9131
837.7353, 75.16992
838.2174, 46.98340
838.6995, 41.30078
839.1816, 52.42188
839.6638, 50.71973
840.1459, 35.67188
840.6280, 37.27832
841.1101, 69.04785
841.5922, 106.8662
842.0743, 122.0820
842.5565, 117.5654
843.0386, 103.4033
843.5207, 71.45703
844.0028, 59.00488
844.4849, 86.68750
844.9670, 110.9746
845.4492, 94.63672
845.9313, 55.48340
846.4134, 46.57422
846.8955, 83.79102
847.3776, 107.0625
847.8597, 103.5791
848.3419, 97.91211
848.8240, 96.50879
849.3061, 99.15430
849.7882, 109.5781
850.2703, 128.9961
850.7524, 134.9033
851.2346, 108.2070
851.7167, 77.70508
852.1988, 54.79883
852.6809, 40.60449
853.1630, 40.48242
853.6451, 49.73242
854.1273, 55.84766
854.6094, 53.17871
855.0915, 54.11914
855.5736, 79.18066
856.0557, 112.3779
856.5378, 120.8525
857.0200, 109.5420
857.5021, 98.86816
857.9842, 94.28027
858.4663, 93.53809
858.9484, 95.30078
859.4305, 98.16016
859.9127, 99.26562
860.3948, 98.70605
860.8769, 89.02734
861.3590, 65.63086
861.8411, 53.78906
862.3232, 71.99414
862.8054, 94.25098
863.2875, 73.28418
863.7696, 6.586914
864.2517, 12.18652
864.7338, 50.78516
865.2159, 96.98340
865.6981, 93.76660
866.1802, 82.63672
866.6623, 98.96289
867.1444, 130.4043
867.6265, 141.7910
868.1086, 125.6611
868.5908, 102.7637
869.0729, 49.58301
869.5550, 19.66992
870.0371, 76.90430
870.5192, 151.3672
871.0013, 133.1729
871.4835, 20.84570
871.9656, 53.51562
872.4477, 1.582031
872.9298, 66.58691
873.4119, 80.10156
873.8940, 65.37402
874.3762, 47.74219
874.8583, 31.69824
875.3404, 14.66113
875.8225, 4.158203
876.3046, 13.05566
876.7867, 10.98438
877.2689, 47.01172
877.7510, 51.50293
878.2331, 32.21191
878.7152, 21.23926
879.1973, 26.00195
879.6794, 39.76855
880.1616, 59.10840
880.6437, 78.58203
881.1258, 86.51562
881.6079, 83.22754
882.0900, 73.45703
882.5721, 56.82520
883.0543, 39.26074
883.5364, 20.70410
884.0185, 10.31445
884.5006, 23.70703
884.9827, 57.43457
885.4648, 69.94336
885.9470, 49.44824
886.4291, 38.33203
886.9112, 48.90039
887.3933, 58.89746
887.8754, 50.25586
888.3575, 32.55273
888.8397, 29.26660
889.3218, 45.47070
889.8039, 57.32227
890.2860, 63.65430
890.7681, 67.32520
891.2502, 74.32227
891.7324, 74.54883
892.2145, 52.26660
892.6966, 15.03320
893.1787, 7.229492
893.6608, 0.9384770
894.1429, 3.331055
894.6251, 14.75000
895.1072, 27.73535
895.5893, 9.010742
896.0714, 23.01074
896.5535, 38.86621
897.0356, 34.74609
897.5178, 29.85840
897.9999, 32.05664
898.4820, 40.59668
898.9641, 64.53125
899.4462, 88.34570
899.9283, 89.61523
900.4105, 71.20410
900.8926, 42.59180
901.3747, 8.388672
901.8568, 10.67285
902.3389, 19.66406
902.8210, 71.39062
903.3032, 95.78027
903.7853, 97.01758
904.2674, 81.18555
904.7495, 53.46484
905.2316, 39.94336
905.7137, 58.11230
906.1959, 93.91211
906.6780, 128.5449
907.1601, 160.0244
907.6422, 175.7324
908.1243, 175.2480
908.6064, 143.7012
909.0886, 71.87305
909.5707, 8.104492
910.0528, 8.3007999E-02
910.5349, 35.45898
911.0170, 75.56445
911.4991, 127.2354
911.9813, 126.3096
912.4634, 43.65430
912.9455, 5.121094
913.4276, 52.14453
913.9097, 137.7900
914.3918, 138.0781
914.8740, 52.35449
915.3561, 14.74219
915.8382, 53.54102
916.3203, 83.16992
916.8024, 96.62891
917.2845, 92.71875
917.7667, 46.12988
918.2488, 9.688477
918.7309, 5.141602
919.2130, 116.1328
919.6951, 177.1738
920.1772, 140.1270
920.6594, 109.8506
921.1415, 127.4561
921.6237, 149.4824
922.1058, 133.2041
922.5879, 94.21777
923.0700, 77.61328
923.5521, 102.2773
924.0342, 114.2842
924.5164, 79.94238
924.9985, 50.61230
925.4806, 58.85254
925.9627, 84.68555
926.4448, 107.3516
926.9269, 122.7939
927.4091, 130.6172
927.8912, 129.4512
928.3733, 123.7871
928.8554, 110.9873
929.3375, 99.39355
929.8196, 98.21484
930.3018, 105.3584
930.7839, 96.73438
931.2660, 70.16211
931.7481, 52.18262
932.2302, 67.65332
932.7123, 85.91602
933.1945, 70.13281
933.6766, 41.79199
934.1587, 34.38086
934.6408, 46.33301
935.1229, 59.44629
935.6050, 66.61230
936.0872, 63.84668
936.5693, 39.89258
937.0514, 10.15625
937.5335, 0.1630860
938.0156, 4.811523
938.4977, 8.702148
938.9799, 12.24512
939.4620, 35.90039
939.9441, 91.11719
940.4262, 143.1377
940.9083, 143.5371
941.3904, 105.2139
941.8726, 56.53906
942.3547, 3.483398
942.8368, 18.09180
943.3189, 1.450195
943.8010, 37.53418
944.2831, 92.36719
944.7653, 139.6992
945.2474, 121.1250
945.7295, 47.26562
946.2116, 30.83887
946.6937, 73.48340
947.1758, 108.3936
947.6580, 116.9316
948.1401, 115.8203
948.6222, 119.1172
949.1043, 122.8770
949.5864, 109.9404
950.0685, 76.99609
950.5507, 86.82422
951.0328, 153.2588
951.5149, 182.1641
951.9970, 130.0020
952.4791, 61.43555
952.9612, 40.28516
953.4434, 62.26074
953.9255, 102.5176
954.4076, 171.0566
954.8897, 208.8594
955.3718, 203.9238
955.8539, 193.7520
956.3361, 197.0137
956.8182, 195.3066
957.3003, 158.8838
957.7824, 93.86230
958.2645, 76.09570
958.7466, 130.9404
959.2288, 168.5986
959.7109, 175.3037
960.1930, 178.4668
960.6751, 188.2061
961.1572, 200.5762
961.6393, 210.3574
962.1215, 217.4912
962.6036, 224.7490
963.0857, 243.0186
963.5678, 241.7988
964.0499, 193.6855
964.5320, 155.2559
965.0142, 161.7344
965.4963, 194.5439
965.9784, 227.3984
966.4605, 262.1650
966.9426, 275.9141
967.4247, 248.0859
967.9069, 228.4736
968.3890, 235.8145
968.8711, 241.7305
969.3532, 227.7314
969.8353, 200.1943
970.3174, 167.1006
970.7996, 123.7217
971.2817, 109.9316
971.7638, 156.0850
972.2459, 195.2295
972.7280, 209.8867
973.2101, 213.9258
973.6923, 213.3164
974.1744, 210.5303
974.6565, 210.3760
975.1386, 214.5557
975.6207, 213.7070
976.1028, 200.6260
976.5850, 189.4307
977.0671, 179.8896
977.5492, 177.7188
978.0313, 200.4619
978.5134, 231.5664
978.9955, 226.6641
979.4777, 168.7842
979.9598, 128.0840
980.4419, 130.5059
980.9240, 143.7285
981.4061, 167.4258
981.8882, 184.8848
982.3704, 170.9951
982.8525, 139.9980
983.3346, 133.7236
983.8167, 166.0225
984.2988, 199.3447
984.7809, 240.5479
985.2631, 253.7080
985.7452, 192.2051
986.2273, 117.5439
986.7094, 88.54688
987.1915, 100.9287
987.6736, 130.2705
988.1558, 178.8750
988.6379, 202.9619
989.1200, 147.9229
989.6021, 108.5039
990.0842, 171.4570
990.5663, 251.3926
991.0485, 249.6699
991.5306, 181.2129
992.0127, 117.2529
992.4948, 72.10449
992.9769, 59.61816
993.4590, 116.5342
993.9412, 171.9932
994.4233, 184.5742
994.9054, 172.4355
995.3875, 143.6670
995.8696, 111.2236
996.3517, 110.0215
996.8339, 159.9912
997.3160, 195.4336
997.7981, 171.6396
998.2802, 141.3164
998.7623, 134.2061
999.2444, 140.4648
999.7266, 153.8584
1000.209, 168.4023
1000.691, 171.9658
1001.173, 162.3799
1001.655, 141.1230
1002.137, 78.16309
1002.619, 37.61328
1003.101, 98.01855
1003.583, 174.5957
1004.066, 155.0762
1004.548, 61.82715
1005.030, 0.5400390
1005.512, 0.6337890
1005.994, 24.83789
1006.476, 88.86230
1006.958, 130.2900
1007.440, 76.57031
1007.923, 5.380859
1008.405, 17.16406
1008.887, 89.60059
1009.369, 126.9971
1009.851, 97.36719
1010.333, 61.01172
1010.815, 27.10547
1011.297, 13.48340
1011.779, 56.38477
1012.262, 104.9746
1012.744, 95.84668
1013.226, 46.49902
1013.708, 18.49316
1014.190, 30.17969
1014.672, 48.42773
1015.154, 76.65723
1015.636, 88.02734
1016.119, 52.84961
1016.601, 7.043945
1017.083, 21.82031
1017.565, 29.84277
1018.047, 10.77051
1018.529, 42.04980
1019.011, 77.41895
1019.493, 70.30957
1019.975, 51.21387
1020.458, 23.30762
1020.940, 1.465820
1021.422, 11.19043
1021.904, 10.17090
1022.386, 12.26465
1022.868, 21.79395
1023.350, 12.93652
1023.832, 54.66602
1024.314, 98.10059
1024.797, 67.25781
1025.279, 19.99512
1025.761, 6.566406
1026.243, 13.70996
1026.725, 9.049805
1027.207, 6.766602
1027.689, 27.06934
1028.171, 64.09277
1028.654, 86.43164
1029.136, 71.74902
1029.618, 54.00098
1030.100, 61.44336
1030.582, 78.18555
1031.064, 71.63086
1031.546, 38.30762
1032.028, 23.77637
1032.510, 50.29688
1032.993, 71.70801
1033.475, 80.32227
1033.957, 81.56738
1034.439, 78.20605
1034.921, 69.36523
1035.403, 45.81738
1035.885, 8.229492
1036.367, 1.494141
1036.849, 62.49902
1037.332, 99.93652
1037.814, 94.71387
1038.296, 80.90527
1038.778, 68.97559
1039.260, 58.12891
1039.742, 48.74414
1040.224, 40.18066
1040.706, 25.95898
1041.189, 4.400391
1041.671, 19.48242
1042.153, 11.01465
1042.635, 0.4707030
1043.117, 3.531250
1043.599, 8.416992
1044.081, 24.92188
1044.563, 48.03125
1045.046, 53.42090
1045.528, 31.51855
1046.010, 21.81641
1046.492, 30.13672
1046.974, 34.67090
1047.456, 22.66406
1047.938, 19.79102
1048.420, 54.55762
1048.902, 106.5967
1049.385, 116.6094
1049.867, 76.01953
1050.349, 59.80469
1050.831, 76.46191
1051.313, 75.80957
1051.795, 40.36816
1052.277, 9.899414
1052.759, 12.98340
1053.242, 33.18750
1053.724, 38.61328
1054.206, 30.36230
1054.688, 36.60254
1055.170, 58.40430
1055.652, 78.70703
1056.134, 95.39258
1056.616, 98.08984
1057.099, 80.11914
1057.581, 52.15039
1058.063, 27.48145
1058.545, 6.198242
1059.027, 13.93262
1059.509, 31.38086
1059.991, 29.65332
1060.473, 8.088867
1060.955, 16.82227
1061.438, 38.28418
1061.920, 56.69922
1062.402, 72.70508
1062.884, 85.45703
1063.366, 93.17285
1063.848, 96.45605
1064.330, 92.11035
1064.812, 84.48730
1065.294, 97.27637
1065.777, 133.9561
1066.259, 161.4287
1066.741, 152.1641
1067.223, 134.0996
1067.705, 153.7393
1068.187, 183.6416
1068.669, 166.4248
1069.151, 123.7051
1069.634, 115.1055
1070.116, 140.9043
1070.598, 152.8857
1071.080, 123.6396
1071.562, 90.10449
1072.044, 81.59277
1072.526, 86.70117
1073.008, 96.61328
1073.490, 110.7666
1073.973, 138.1338
1074.455, 168.5928
1074.937, 166.7178
1075.419, 120.9932
1075.901, 88.88379
1076.383, 117.2412
1076.865, 145.5420
1077.347, 128.7256
1077.829, 105.5518
1078.312, 115.3477
1078.794, 144.0498
1079.276, 160.7500
1079.758, 161.6719
1080.240, 164.4209
1080.722, 182.8936
1081.204, 190.6768
1081.686, 179.5420
1082.169, 157.3203
1082.651, 120.0010
1083.133, 80.11426
1083.615, 45.89746
1084.097, 20.59863
1084.579, 23.49316
1085.061, 79.42676
1085.543, 117.9395
1086.026, 133.6094
1086.508, 141.8838
1086.990, 150.3701
1087.472, 147.7100
1087.954, 115.6416
1088.436, 71.10742
1088.918, 61.56641
1089.400, 93.89648
1089.882, 113.4307
1090.365, 120.0781
1090.847, 109.3477
1091.329, 70.13086
1091.811, 52.79590
1092.293, 93.10547
1092.775, 152.1777
1093.257, 172.0625
1093.739, 158.8311
1094.221, 153.4824
1094.704, 156.0459
1095.186, 137.3232
1095.668, 94.82324
1096.150, 76.70605
1096.632, 101.5723
1097.114, 126.8027
1097.596, 109.3633
1098.078, 75.32031
1098.561, 80.83203
1099.043, 112.1787
1099.525, 130.1074
1100.007, 135.7314
1100.489, 136.8945
1100.971, 134.8828
1101.453, 127.4785
1101.935, 113.3760
1102.417, 93.97656
1102.900, 63.48828
1103.382, 37.05371
1103.864, 34.28516
1104.346, 47.84863
1104.828, 64.47656
1105.310, 81.92871
1105.792, 105.9229
1106.274, 137.1211
1106.756, 148.3115
1107.239, 107.3867
1107.721, 63.66504
1108.203, 28.27637
1108.685, 17.40234
1109.167, 66.90039
1109.649, 136.9424
1110.131, 164.4883
1110.613, 149.0977
1111.096, 145.0000
1111.578, 182.2764
1112.060, 191.4746
1112.542, 131.1084
1113.024, 79.52539
1113.506, 70.46582
1113.988, 77.69043
1114.470, 78.33789
1114.953, 78.61914
1115.435, 96.54395
1115.917, 136.8340
1116.399, 163.0498
1116.881, 173.7490
1117.363, 169.6152
1117.845, 148.5605
1118.327, 122.4023
1118.809, 91.13867
1119.292, 71.48047
1119.774, 92.73535
1120.256, 138.7334
1120.738, 121.1465
1121.220, 43.30859
1121.702, 19.25977
1122.184, 54.33594
1122.666, 95.18652
1123.148, 124.7910
1123.631, 132.6689
1124.113, 108.5527
1124.595, 74.73926
1125.077, 73.77051
1125.559, 84.15625
1126.041, 44.02539
1126.523, 18.83105
1127.005, 32.63086
1127.488, 4.482422
1127.970, 61.22852
1128.452, 123.9971
1128.934, 168.1396
1129.416, 172.0361
1129.898, 154.2451
1130.380, 107.9463
1130.862, 67.23242
1131.344, 68.65430
1131.827, 98.06836
1132.309, 144.1963
1132.791, 195.3545
1133.273, 203.4434
1133.755, 132.9707
1134.237, 76.33984
1134.719, 49.66309
1135.201, 49.07227
1135.683, 106.3252
1136.166, 157.7627
1136.648, 129.5674
1137.130, 67.35938
1137.612, 73.17969
1138.094, 156.1377
1138.576, 181.4961
1139.058, 123.3535
1139.540, 87.19336
1140.023, 92.48828
1140.505, 92.87598
1140.987, 67.71875
1141.469, 31.79883
1141.951, 3.893555
1142.433, 29.28906
1142.915, 6.834961
1143.397, 56.78223
1143.880, 105.3027
1144.362, 135.6875
1144.844, 130.3271
1145.326, 91.58398
1145.808, 70.71094
1146.290, 95.93262
1146.772, 129.4180
1147.254, 127.8877
1147.736, 112.4326
1148.219, 112.1709
1148.701, 118.4131
1149.183, 118.3408
1149.665, 113.1016
1150.147, 112.0967
1150.629, 114.5068
1151.111, 98.63086
1151.593, 36.24902
1152.075, 3.052734
1152.558, 61.30859
1153.040, 125.0410
1153.522, 144.0869
1154.004, 147.2373
1154.486, 173.0020
1154.968, 204.5303
1155.450, 188.4238
1155.932, 112.3945
1156.415, 64.21973
1156.897, 54.46777
1157.379, 49.77441
1157.861, 44.03027
1158.343, 53.71973
1158.825, 98.93457
1159.307, 125.7949
1159.789, 67.88672
1160.271, 33.69824
1160.754, 45.99414
1161.236, 24.33496
1161.718, 48.42773
1162.200, 29.44434
1162.682, 34.61523
1163.164, 73.24219
1163.646, 98.72363
1164.128, 87.79980
1164.610, 65.05078
1165.093, 54.00586
1165.575, 47.99512
1166.057, 34.89062
1166.539, 22.68066
1167.021, 23.44531
1167.503, 34.56641
1167.985, 54.77246
1168.467, 78.78320
1168.950, 85.79004
1169.432, 63.26270
1169.914, 42.48340
1170.396, 30.32812
1170.878, 30.16895
1171.360, 54.93555
1171.842, 81.10938
1172.324, 88.76562
1172.807, 86.16992
1173.289, 90.45215
1173.771, 101.9912
1174.253, 101.7715
1174.735, 86.41309
1175.217, 72.94824
1175.699, 62.65723
1176.181, 49.95605
1176.663, 30.72168
1177.146, 22.93359
1177.628, 41.85156
1178.110, 71.13574
1178.592, 85.21484
1179.074, 85.23145
1179.556, 64.38086
1180.038, 34.51367
1180.520, 35.47559
1181.002, 66.14062
1181.485, 112.3965
1181.967, 163.6787
1182.449, 179.5479
1182.931, 122.8428
1183.413, 58.84863
1183.895, 32.46191
1184.377, 30.67480
1184.859, 58.97656
1185.342, 95.24023
1185.824, 115.6924
1186.306, 118.9209
1186.788, 105.9141
1187.270, 75.86133
1187.752, 46.83887
1188.234, 5.601563
1188.716, 7.199219
1189.198, 28.16504
1189.681, 62.84668
1190.163, 85.86621
1190.645, 86.99219
1191.127, 47.55469
1191.609, 3.055664
1192.091, 11.56348
1192.573, 84.17773
1193.055, 104.4297
1193.537, 77.69727
1194.020, 57.91211
1194.502, 54.27637
1194.984, 52.74219
1195.466, 48.26270
1195.948, 44.20020
1196.430, 42.51758
1196.912, 44.38086
1197.394, 57.42188
1197.877, 68.58887
1198.359, 51.93555
1198.841, 31.66895
1199.323, 55.41797
1199.805, 102.9082
1200.287, 103.5742
1200.769, 41.39258
1201.251, 8.937500
1201.734, 47.95996
1202.216, 87.73145
1202.698, 137.2686
1203.180, 151.6992
1203.662, 107.7422
1204.144, 57.66211
1204.626, 49.55762
1205.108, 70.35156
1205.590, 93.70020
1206.073, 118.7764
1206.555, 124.2100
1207.037, 111.0264
1207.519, 102.3301
1208.001, 99.96094
1208.483, 90.65625
1208.965, 70.76758
1209.447, 54.58496
1209.929, 52.38379
1210.412, 58.96680
1210.894, 78.30469
1211.376, 93.63672
1211.858, 84.36133
1212.340, 60.61035
1212.822, 21.83008
1213.304, 14.45898
1213.786, 8.701172
1214.269, 43.53613
1214.751, 87.88965
1215.233, 118.4326
1215.715, 129.9072
1216.197, 108.2930
1216.679, 89.20215
1217.161, 82.74902
1217.643, 79.42676
1218.125, 69.48047
1218.608, 62.27441
1219.090, 78.41992
1219.572, 110.0918
1220.054, 105.3711
1220.536, 71.11035
1221.018, 60.60840
1221.500, 75.49219
1221.982, 107.4551
1222.464, 147.8750
1222.947, 156.8340
1223.429, 109.1875
1223.911, 63.42773
1224.393, 78.06641
1224.875, 106.6680
1225.357, 123.9561
1225.839, 124.8096
1226.321, 86.96191
1226.804, 40.30762
1227.286, 38.79297
1227.768, 76.69629
1228.250, 85.15137
1228.732, 41.28906
1229.214, 26.70801
1229.696, 56.52832
1230.178, 63.65430
1230.661, 19.49023
1231.143, 10.32422
1231.625, 7.870117
1232.107, 43.28125
1232.589, 64.87988
1233.071, 75.03418
1233.553, 75.85352
1234.035, 70.67871
1234.517, 73.35352
1235.000, 76.13672
1235.482, 46.19336
1235.964, 3.028320
1236.446, 12.14062
1236.928, 34.75684
1237.410, 86.20898
1237.892, 129.4697
1238.374, 143.1377
1238.856, 122.5273
1239.339, 98.71680
1239.821, 78.51172
1240.303, 72.64062
1240.785, 92.19238
1241.267, 109.1650
1241.749, 96.70020
1242.231, 43.37109
1242.713, 26.32617
1243.196, 48.42969
1243.678, 50.27539
1244.160, 25.29297
1244.642, 5.079102
1245.124, 0.0000000E+00
##END=



