##NAMES=Schneiderhohnite
##RRUFFID=R050215
##IDEAL CHEMISTRY=Fe^2+^Fe^3+^_3_As^3+^_5_O_13_
##LOCALITY=Tsumeb mine, Tsumeb, Otavi District, Oshikoto, Namibia
##OWNER=RRUFF
##SOURCE=Marcus Origlieri
##DESCRIPTION=Dark brown flattened single crystal
##STATUS=The identification of this mineral has been confirmed by single-crystal X-ray diffraction.
##URL=rruff.info/R050215
92.35352, 220.8620
92.83563, 221.9731
93.31775, 222.6490
93.79987, 225.1540
94.28198, 224.8899
94.76410, 221.8480
95.24622, 216.4047
95.72833, 209.9897
96.21045, 203.5208
96.69257, 196.6806
97.17468, 191.0201
97.65680, 187.3820
98.13892, 184.7814
98.62103, 182.5746
99.10315, 180.2883
99.58527, 177.8016
100.0674, 175.4471
100.5495, 172.9392
101.0316, 170.9728
101.5137, 169.6363
101.9958, 168.8239
102.4780, 168.4646
102.9601, 168.5698
103.4422, 169.1860
103.9243, 169.1528
104.4064, 167.7497
104.8885, 166.5003
105.3707, 166.5511
105.8528, 167.7513
106.3349, 168.5733
106.8170, 167.1020
107.2991, 162.9002
107.7813, 160.0872
108.2634, 159.9038
108.7455, 160.8686
109.2276, 161.0845
109.7097, 160.0441
110.1918, 158.5896
110.6740, 157.5511
111.1561, 156.8732
111.6382, 156.5462
112.1203, 156.7145
112.6024, 157.3153
113.0845, 157.8883
113.5666, 158.7863
114.0488, 159.1930
114.5309, 158.4447
115.0130, 156.4846
115.4951, 154.0042
115.9772, 151.7585
116.4593, 149.7681
116.9415, 147.9729
117.4236, 146.4370
117.9057, 145.0226
118.3878, 143.6770
118.8699, 142.3816
119.3520, 141.0594
119.8342, 139.5092
120.3163, 136.9554
120.7984, 135.1036
121.2805, 134.2090
121.7626, 134.0444
122.2447, 134.4201
122.7269, 135.2811
123.2090, 136.5233
123.6911, 137.2331
124.1732, 137.2735
124.6553, 137.0785
125.1374, 136.6268
125.6196, 136.0101
126.1017, 135.5641
126.5838, 135.5733
127.0659, 136.0112
127.5480, 136.3854
128.0302, 136.8497
128.5123, 137.1550
128.9944, 136.9173
129.4765, 136.0095
129.9586, 135.1486
130.4407, 134.9657
130.9229, 135.2371
131.4050, 135.6132
131.8871, 136.1010
132.3692, 136.6071
132.8513, 136.7727
133.3334, 136.2962
133.8155, 135.8775
134.2977, 136.0791
134.7798, 136.6685
135.2619, 137.0277
135.7440, 136.4740
136.2261, 134.8526
136.7082, 133.8312
137.1904, 133.7108
137.6725, 133.9760
138.1546, 134.8058
138.6367, 136.0022
139.1188, 136.9485
139.6009, 136.7678
140.0831, 134.6482
140.5652, 133.3932
141.0473, 133.5030
141.5294, 133.9796
142.0115, 134.1910
142.4936, 133.9597
142.9758, 133.4555
143.4579, 132.9592
143.9400, 132.4458
144.4221, 131.9903
144.9042, 131.7443
145.3863, 131.5197
145.8685, 130.9639
146.3506, 129.8703
146.8327, 128.6486
147.3148, 128.3352
147.7969, 129.2253
148.2790, 129.9822
148.7612, 130.0748
149.2433, 129.6068
149.7254, 128.8899
150.2075, 127.8639
150.6896, 126.7996
151.1717, 126.0826
151.6539, 125.7438
152.1360, 125.6812
152.6181, 125.9521
153.1002, 126.6067
153.5823, 127.0591
154.0644, 126.9688
154.5466, 126.5959
155.0287, 126.0579
155.5108, 125.3397
155.9929, 124.6080
156.4750, 124.1798
156.9571, 124.1969
157.4393, 124.2177
157.9214, 124.2347
158.4035, 124.1578
158.8856, 123.8106
159.3677, 123.0670
159.8498, 122.1315
160.3320, 121.7873
160.8141, 122.8503
161.2962, 123.5591
161.7783, 123.5061
162.2604, 122.9601
162.7425, 122.3413
163.2247, 121.9264
163.7068, 121.6661
164.1889, 120.9273
164.6710, 118.6697
165.1531, 117.0432
165.6352, 117.1097
166.1174, 118.3526
166.5995, 119.4516
167.0816, 119.3759
167.5637, 118.1453
168.0458, 117.6260
168.5279, 118.2540
169.0101, 119.0957
169.4922, 119.8775
169.9743, 120.5147
170.4564, 120.6057
170.9385, 119.3824
171.4206, 117.1139
171.9028, 116.4586
172.3849, 119.0422
172.8670, 122.4542
173.3491, 124.2773
173.8312, 124.2225
174.3133, 123.6589
174.7955, 123.6152
175.2776, 123.9139
175.7597, 124.1879
176.2418, 124.4124
176.7239, 124.5247
177.2060, 124.3586
177.6882, 123.7944
178.1703, 123.1784
178.6524, 122.6362
179.1345, 122.1995
179.6166, 121.9675
180.0987, 122.0926
180.5809, 122.5031
181.0630, 122.8024
181.5451, 123.1874
182.0272, 123.1610
182.5093, 122.2834
182.9914, 120.8448
183.4736, 119.5005
183.9557, 118.8797
184.4378, 119.0237
184.9199, 118.6315
185.4020, 116.5918
185.8841, 114.9767
186.3663, 114.7977
186.8484, 115.7189
187.3305, 116.6542
187.8126, 116.5490
188.2947, 115.1705
188.7768, 114.1357
189.2590, 113.5774
189.7411, 113.1978
190.2232, 112.9519
190.7053, 112.7895
191.1874, 112.6078
191.6695, 112.2862
192.1517, 111.7571
192.6338, 111.3764
193.1159, 111.4739
193.5980, 111.4556
194.0801, 110.7028
194.5622, 109.2470
195.0444, 107.9043
195.5265, 107.7027
196.0086, 109.1397
196.4907, 109.6603
196.9728, 108.4806
197.4549, 106.8289
197.9371, 105.8303
198.4192, 105.6870
198.9013, 105.8586
199.3834, 105.8559
199.8655, 105.6885
200.3476, 105.1151
200.8298, 103.6273
201.3119, 101.8662
201.7940, 100.7279
202.2761, 100.4015
202.7582, 100.4893
203.2403, 100.7685
203.7225, 101.1828
204.2046, 101.4122
204.6867, 101.3301
205.1688, 100.9845
205.6509, 100.4243
206.1330, 99.49880
206.6152, 98.65845
207.0973, 98.16436
207.5794, 97.99627
208.0615, 98.18185
208.5436, 99.11730
209.0257, 100.5420
209.5079, 101.1248
209.9900, 100.2397
210.4721, 99.19626
210.9542, 98.64613
211.4363, 98.54894
211.9184, 98.75352
212.4006, 99.37363
212.8827, 100.3690
213.3648, 100.7914
213.8469, 99.92684
214.3290, 99.19576
214.8111, 99.35676
215.2933, 100.1544
215.7754, 100.8528
216.2575, 100.7309
216.7396, 99.72293
217.2217, 99.27866
217.7038, 100.0285
218.1859, 100.8159
218.6681, 101.2960
219.1502, 101.5117
219.6323, 101.6729
220.1144, 101.9306
220.5965, 102.2692
221.0786, 102.8936
221.5608, 104.2734
222.0429, 105.4926
222.5250, 106.1505
223.0071, 106.3338
223.4892, 106.3635
223.9713, 106.4990
224.4535, 106.7375
224.9356, 107.1338
225.4177, 107.9220
225.8998, 108.6216
226.3819, 108.9493
226.8640, 108.9774
227.3462, 108.9938
227.8283, 109.2564
228.3104, 109.7960
228.7925, 110.1644
229.2746, 110.1360
229.7567, 110.1698
230.2389, 110.5488
230.7210, 111.2279
231.2031, 111.9427
231.6852, 112.4912
232.1673, 112.8654
232.6494, 113.2297
233.1316, 113.6316
233.6137, 113.9829
234.0958, 114.2691
234.5779, 114.4748
235.0600, 114.5039
235.5421, 114.1913
236.0243, 113.6157
236.5064, 113.4300
236.9885, 114.0384
237.4706, 114.6983
237.9527, 114.9746
238.4348, 114.8634
238.9170, 114.4497
239.3991, 113.6068
239.8812, 112.5218
240.3633, 111.8581
240.8454, 112.0720
241.3275, 112.3203
241.8097, 111.7503
242.2918, 110.3946
242.7739, 109.3091
243.2560, 109.3106
243.7381, 109.8732
244.2202, 109.9082
244.7024, 108.9297
245.1845, 107.9406
245.6666, 108.1721
246.1487, 109.6677
246.6308, 110.5381
247.1129, 109.4511
247.5951, 107.4779
248.0772, 105.8654
248.5593, 104.7561
249.0414, 104.0901
249.5235, 104.0062
250.0056, 104.5638
250.4878, 104.8917
250.9699, 104.6230
251.4520, 104.0029
251.9341, 103.1383
252.4162, 102.0014
252.8983, 100.9232
253.3805, 100.3403
253.8626, 100.3158
254.3447, 100.1867
254.8268, 99.46757
255.3089, 98.80097
255.7910, 98.67776
256.2732, 99.16181
256.7553, 99.86401
257.2374, 100.4403
257.7195, 100.8995
258.2016, 101.1538
258.6837, 100.8243
259.1659, 100.5415
259.6480, 100.8090
260.1301, 101.5932
260.6122, 102.2733
261.0943, 102.0570
261.5764, 100.7581
262.0586, 99.83247
262.5407, 99.63702
263.0228, 99.63847
263.5049, 99.65363
263.9870, 99.66445
264.4691, 99.72726
264.9513, 99.93085
265.4334, 100.3113
265.9155, 100.5598
266.3976, 100.2866
266.8797, 100.2262
267.3618, 100.8645
267.8440, 101.9946
268.3261, 103.0402
268.8082, 103.5622
269.2903, 103.5628
269.7724, 102.9890
270.2545, 100.5366
270.7367, 98.74761
271.2188, 98.77536
271.7009, 100.0547
272.1830, 101.2917
272.6651, 101.5188
273.1472, 100.8113
273.6294, 100.4818
274.1115, 101.3623
274.5936, 101.7789
275.0757, 101.0018
275.5578, 99.56914
276.0399, 98.38406
276.5221, 98.02051
277.0042, 98.32279
277.4863, 98.36451
277.9684, 97.71233
278.4505, 97.25767
278.9326, 97.24741
279.4148, 97.45783
279.8969, 97.63996
280.3790, 97.67765
280.8611, 97.52079
281.3432, 97.00350
281.8253, 95.52769
282.3075, 94.39832
282.7896, 93.96815
283.2717, 93.80025
283.7538, 93.43991
284.2359, 92.71376
284.7180, 91.73290
285.2002, 90.72708
285.6823, 89.46141
286.1644, 88.52583
286.6465, 88.11541
287.1286, 87.91185
287.6107, 87.73294
288.0929, 87.49836
288.5750, 87.06367
289.0571, 86.13519
289.5392, 84.10300
290.0213, 83.04088
290.5034, 83.84199
290.9856, 84.92645
291.4677, 85.09038
291.9498, 84.20991
292.4319, 82.98740
292.9140, 82.24001
293.3961, 82.15734
293.8783, 81.71377
294.3604, 80.28591
294.8425, 79.05992
295.3246, 79.06264
295.8067, 80.08603
296.2888, 80.90986
296.7710, 80.38772
297.2531, 78.42297
297.7352, 77.33196
298.2173, 77.66022
298.6994, 78.14629
299.1815, 78.23766
299.6637, 78.02930
300.1458, 77.94685
300.6279, 78.33831
301.1100, 79.07132
301.5921, 78.97811
302.0742, 77.47707
302.5564, 75.97485
303.0385, 74.69860
303.5206, 73.70474
304.0027, 73.02426
304.4848, 72.66586
304.9669, 72.67329
305.4491, 73.23252
305.9312, 75.18560
306.4133, 76.52431
306.8954, 76.60897
307.3775, 76.05729
307.8596, 75.70054
308.3418, 75.82698
308.8239, 76.03745
309.3060, 75.55857
309.7881, 73.65627
310.2702, 72.64550
310.7523, 73.50275
311.2345, 74.79617
311.7166, 75.11026
312.1987, 74.19149
312.6808, 72.83085
313.1629, 71.90323
313.6451, 71.50468
314.1272, 71.29994
314.6093, 71.44411
315.0914, 71.65498
315.5735, 71.72571
316.0556, 71.66052
316.5378, 71.62917
317.0199, 71.81483
317.5020, 72.22099
317.9841, 72.24694
318.4662, 71.63219
318.9483, 70.95908
319.4305, 70.26784
319.9126, 69.70531
320.3947, 69.67525
320.8768, 70.50761
321.3589, 71.97346
321.8410, 72.84998
322.3232, 73.10744
322.8053, 72.94474
323.2874, 71.97719
323.7695, 70.70607
324.2516, 69.89143
324.7337, 69.84864
325.2159, 70.40622
325.6980, 71.25623
326.1801, 72.96529
326.6622, 73.95377
327.1443, 73.44715
327.6264, 72.49890
328.1086, 72.34866
328.5907, 73.25879
329.0728, 74.30796
329.5549, 74.23376
330.0370, 72.42732
330.5191, 71.47524
331.0013, 72.09711
331.4834, 72.98596
331.9655, 73.13993
332.4476, 72.58958
332.9297, 72.15147
333.4118, 72.63537
333.8940, 74.12539
334.3761, 74.59780
334.8582, 72.94978
335.3403, 71.62001
335.8224, 71.97417
336.3045, 73.43221
336.7867, 74.52918
337.2688, 74.36360
337.7509, 73.22598
338.2330, 72.49376
338.7151, 72.60219
339.1972, 72.56722
339.6793, 71.85925
340.1614, 71.05710
340.6436, 71.00285
341.1257, 72.00723
341.6078, 73.55495
342.0899, 74.69786
342.5720, 75.63622
343.0541, 75.68305
343.5363, 74.00614
344.0184, 72.02732
344.5005, 70.75499
344.9826, 70.39124
345.4647, 70.70892
345.9468, 71.56924
346.4290, 73.26028
346.9111, 74.07696
347.3932, 73.53083
347.8753, 72.76116
348.3574, 72.16426
348.8395, 71.78587
349.3217, 71.58846
349.8038, 71.56485
350.2859, 71.69221
350.7680, 71.72044
351.2501, 71.51303
351.7322, 71.35828
352.2144, 71.26540
352.6965, 71.26650
353.1786, 71.48621
353.6607, 71.98085
354.1428, 72.51672
354.6249, 72.49841
355.1071, 71.27444
355.5892, 70.55502
356.0713, 70.81525
356.5534, 71.28454
357.0355, 71.34187
357.5176, 70.88900
357.9998, 70.27123
358.4819, 69.89111
358.9640, 69.76686
359.4461, 69.81860
359.9282, 70.35252
360.4103, 70.77000
360.8925, 70.65557
361.3746, 70.18905
361.8567, 69.89258
362.3388, 70.20570
362.8209, 71.03098
363.3030, 71.45338
363.7852, 71.08810
364.2673, 70.78582
364.7494, 70.90955
365.2315, 71.13988
365.7136, 71.02322
366.1957, 70.35147
366.6779, 69.42540
367.1600, 68.86012
367.6421, 68.75026
368.1242, 68.77801
368.6063, 69.13161
369.0884, 69.43298
369.5706, 69.28671
370.0527, 68.70258
370.5348, 68.18079
371.0169, 68.43073
371.4990, 69.54891
371.9811, 70.00871
372.4633, 69.17866
372.9454, 68.28365
373.4275, 67.81975
373.9096, 67.72561
374.3917, 67.81784
374.8738, 68.15279
375.3560, 68.52036
375.8381, 68.09050
376.3202, 66.29848
376.8023, 65.03892
377.2844, 65.53420
377.7665, 66.72971
378.2487, 67.55663
378.7308, 67.71609
379.2129, 67.46906
379.6950, 66.89841
380.1771, 65.96816
380.6592, 65.63079
381.1414, 66.68009
381.6235, 67.89932
382.1056, 68.16174
382.5877, 67.48563
383.0698, 66.79198
383.5519, 66.69734
384.0341, 67.01931
384.5162, 67.20968
384.9983, 67.22452
385.4804, 67.09969
385.9625, 66.71192
386.4446, 66.20284
386.9268, 65.89507
387.4089, 65.95308
387.8910, 66.18787
388.3731, 66.48316
388.8552, 66.83085
389.3373, 66.96193
389.8195, 66.53544
390.3016, 65.97608
390.7837, 66.14585
391.2658, 67.32882
391.7479, 68.39168
392.2300, 68.74432
392.7122, 68.58363
393.1943, 68.22769
393.6764, 67.67551
394.1585, 67.27914
394.6406, 67.64256
395.1227, 68.79626
395.6049, 69.46568
396.0870, 69.03696
396.5691, 68.37283
397.0512, 68.22945
397.5333, 68.60340
398.0154, 69.05901
398.4976, 69.34171
398.9797, 69.45116
399.4618, 69.40632
399.9439, 68.67419
400.4260, 68.42394
400.9081, 69.40458
401.3903, 70.99651
401.8724, 72.23858
402.3545, 72.78460
402.8366, 72.86694
403.3187, 72.85071
403.8008, 72.66765
404.2830, 72.53383
404.7651, 72.41178
405.2472, 72.36528
405.7293, 72.50688
406.2114, 72.79330
406.6935, 73.03454
407.1757, 73.06359
407.6578, 72.88619
408.1399, 72.74231
408.6220, 72.57187
409.1041, 72.50425
409.5862, 72.66475
410.0684, 72.91270
410.5505, 72.99587
411.0326, 72.80838
411.5147, 72.60479
411.9968, 73.03369
412.4789, 74.86697
412.9611, 75.56571
413.4432, 74.04092
413.9253, 72.27363
414.4074, 71.49416
414.8895, 71.69209
415.3716, 72.08784
415.8538, 72.03183
416.3359, 71.54539
416.8180, 70.94386
417.3001, 69.88730
417.7822, 69.22939
418.2643, 69.70599
418.7465, 70.57111
419.2286, 70.68697
419.7107, 69.47177
420.1928, 67.86954
420.6749, 67.42103
421.1570, 68.31087
421.6392, 69.00626
422.1213, 68.99263
422.6034, 68.76649
423.0855, 68.68110
423.5676, 68.75007
424.0497, 68.87707
424.5319, 69.20475
425.0140, 69.53761
425.4961, 69.19706
425.9782, 67.93063
426.4603, 66.71835
426.9424, 66.41954
427.4246, 66.65610
427.9067, 66.68334
428.3888, 66.24026
428.8709, 65.72275
429.3530, 65.50335
429.8351, 65.50465
430.3173, 65.30947
430.7994, 64.65868
431.2815, 63.93437
431.7636, 63.97335
432.2457, 64.94202
432.7278, 65.37382
433.2100, 64.42315
433.6921, 63.06868
434.1742, 62.34903
434.6563, 62.35571
435.1384, 62.59164
435.6205, 62.61565
436.1027, 62.47749
436.5848, 62.98049
437.0669, 65.50924
437.5490, 67.00365
438.0311, 65.57082
438.5132, 62.73832
438.9954, 60.91980
439.4775, 61.01527
439.9596, 62.07162
440.4417, 62.40870
440.9238, 61.42908
441.4059, 61.12933
441.8881, 61.86763
442.3702, 62.86605
442.8523, 63.93429
443.3344, 64.88730
443.8165, 65.39954
444.2986, 65.17741
444.7808, 64.34303
445.2629, 63.64917
445.7450, 63.12731
446.2271, 62.71276
446.7092, 62.38841
447.1913, 62.15304
447.6735, 62.07114
448.1556, 62.14553
448.6377, 62.17044
449.1198, 61.84163
449.6019, 61.13227
450.0840, 60.55174
450.5662, 60.12613
451.0483, 59.86112
451.5304, 59.79033
452.0125, 59.86552
452.4946, 59.97160
452.9767, 60.05647
453.4589, 60.20364
453.9410, 60.29968
454.4231, 60.52150
454.9052, 60.72411
455.3873, 60.90458
455.8694, 61.01815
456.3516, 61.04532
456.8337, 60.99926
457.3158, 60.77645
457.7979, 60.16235
458.2800, 59.38824
458.7621, 58.87203
459.2443, 58.68433
459.7264, 58.58396
460.2085, 58.28974
460.6906, 57.88153
461.1727, 58.00495
461.6548, 59.19329
462.1370, 60.34459
462.6191, 61.08005
463.1012, 61.40487
463.5833, 61.23759
464.0654, 60.52839
464.5475, 59.63002
465.0297, 59.12204
465.5118, 59.09491
465.9939, 59.29670
466.4760, 60.11793
466.9581, 60.81326
467.4402, 60.77099
467.9224, 60.18500
468.4045, 59.73574
468.8866, 59.91437
469.3687, 60.53167
469.8508, 60.69711
470.3329, 60.14047
470.8151, 59.54283
471.2972, 58.94868
471.7793, 58.38790
472.2614, 57.82947
472.7435, 57.29411
473.2256, 56.91513
473.7078, 56.72713
474.1899, 56.73888
474.6720, 57.48386
475.1541, 59.75299
475.6362, 61.49228
476.1183, 61.29388
476.6005, 60.11155
477.0826, 59.41913
477.5647, 59.79603
478.0468, 60.53116
478.5289, 60.86684
479.0110, 60.84394
479.4932, 60.96406
479.9753, 61.62268
480.4574, 62.03778
480.9395, 60.74281
481.4216, 57.95384
481.9037, 56.40595
482.3859, 57.98034
482.8680, 60.29889
483.3501, 61.00806
483.8322, 60.21977
484.3143, 59.35109
484.7964, 59.14541
485.2786, 59.42435
485.7607, 59.66132
486.2428, 59.83171
486.7249, 60.00832
487.2070, 60.35829
487.6891, 60.62188
488.1713, 60.42895
488.6534, 59.81493
489.1355, 59.25275
489.6176, 59.20879
490.0997, 59.66314
490.5818, 59.80745
491.0640, 59.10341
491.5461, 58.70237
492.0282, 58.97919
492.5103, 59.56721
492.9924, 60.08611
493.4745, 60.41294
493.9567, 60.61661
494.4388, 60.76728
494.9209, 60.85999
495.4030, 60.96645
495.8851, 61.24517
496.3672, 61.32858
496.8494, 60.87458
497.3315, 60.13866
497.8136, 59.60641
498.2957, 59.46309
498.7778, 59.60833
499.2599, 60.10843
499.7421, 60.92648
500.2242, 61.27727
500.7063, 60.71272
501.1884, 59.90513
501.6705, 59.81307
502.1526, 60.39442
502.6348, 60.64362
503.1169, 59.94352
503.5990, 59.05206
504.0811, 58.64700
504.5632, 58.72848
505.0453, 59.11889
505.5274, 59.81730
506.0096, 60.59908
506.4917, 60.77793
506.9738, 59.94238
507.4559, 59.18083
507.9380, 58.41010
508.4201, 57.83521
508.9023, 57.65080
509.3844, 57.84755
509.8665, 58.34755
510.3486, 59.20157
510.8307, 60.26941
511.3128, 60.19773
511.7950, 57.54679
512.2771, 55.90424
512.7592, 56.74271
513.2413, 58.24897
513.7234, 58.58758
514.2056, 57.47520
514.6877, 56.27134
515.1698, 56.59916
515.6519, 58.20530
516.1340, 58.67430
516.6161, 57.31670
517.0983, 56.12662
517.5804, 56.71845
518.0625, 58.05813
518.5446, 58.60439
519.0267, 57.78857
519.5089, 56.79431
519.9910, 56.60389
520.4731, 56.90868
520.9552, 56.74691
521.4373, 55.81529
521.9194, 54.94226
522.4016, 55.00964
522.8837, 56.07056
523.3658, 56.91265
523.8479, 57.41371
524.3300, 57.82813
524.8121, 58.47927
525.2943, 59.07586
525.7764, 58.86251
526.2585, 57.59936
526.7406, 56.26949
527.2227, 56.56260
527.7048, 59.26352
528.1870, 60.76810
528.6691, 60.11871
529.1512, 59.32140
529.6333, 59.08258
530.1154, 59.25393
530.5975, 59.47163
531.0797, 59.56585
531.5618, 59.62092
532.0439, 59.78270
532.5260, 60.06195
533.0081, 60.37616
533.4902, 60.81434
533.9724, 61.16293
534.4545, 61.18573
534.9366, 60.98106
535.4187, 60.92098
535.9008, 61.23666
536.3829, 61.69403
536.8651, 62.19868
537.3472, 62.68645
537.8293, 62.59452
538.3114, 61.53738
538.7935, 60.19198
539.2756, 59.65821
539.7578, 60.06392
540.2399, 60.55011
540.7220, 61.34246
541.2041, 61.93114
541.6862, 61.82368
542.1683, 61.20848
542.6505, 60.61693
543.1326, 60.32849
543.6147, 60.27588
544.0968, 60.29233
544.5789, 60.32505
545.0610, 60.54543
545.5432, 61.32389
546.0253, 61.94251
546.5074, 61.90441
546.9895, 61.35537
547.4716, 60.74094
547.9537, 60.29004
548.4359, 60.00558
548.9180, 59.98218
549.4001, 60.28667
549.8822, 60.37819
550.3643, 59.99925
550.8464, 59.45061
551.3286, 58.91202
551.8107, 58.41272
552.2928, 58.28514
552.7749, 59.16884
553.2570, 60.14339
553.7391, 59.95939
554.2213, 58.81347
554.7034, 58.01853
555.1855, 58.20877
555.6676, 59.00400
556.1497, 59.70221
556.6318, 60.48433
557.1140, 60.67894
557.5961, 59.78407
558.0782, 58.72488
558.5603, 57.80787
559.0424, 57.23997
559.5245, 57.50398
560.0067, 58.94618
560.4888, 60.91257
560.9709, 61.68378
561.4530, 60.76843
561.9351, 60.03867
562.4172, 59.82917
562.8994, 59.75277
563.3815, 59.65758
563.8636, 59.53385
564.3457, 59.41337
564.8278, 59.37493
565.3099, 59.27866
565.7921, 58.74253
566.2742, 57.80355
566.7563, 57.33791
567.2384, 57.73408
567.7205, 58.52549
568.2026, 59.17550
568.6848, 59.69390
569.1669, 60.10048
569.6490, 60.60868
570.1311, 60.81451
570.6132, 60.13286
571.0953, 58.94157
571.5775, 58.18676
572.0596, 58.28188
572.5417, 58.83776
573.0238, 59.20613
573.5059, 59.39219
573.9880, 59.36792
574.4702, 58.88423
574.9523, 58.46078
575.4344, 58.31414
575.9165, 58.36998
576.3986, 58.46891
576.8807, 58.53576
577.3629, 58.67116
577.8450, 59.18067
578.3271, 60.05421
578.8092, 60.32875
579.2913, 59.59767
579.7734, 58.71896
580.2556, 58.25964
580.7377, 58.16278
581.2198, 58.36460
581.7019, 59.18856
582.1840, 59.87350
582.6661, 59.76072
583.1483, 59.20837
583.6304, 58.93774
584.1125, 59.12722
584.5946, 59.49883
585.0767, 59.80165
585.5588, 60.04020
586.0409, 60.04574
586.5230, 59.73540
587.0051, 59.30719
587.4872, 58.60877
587.9694, 57.91663
588.4515, 57.53736
588.9336, 57.52626
589.4157, 57.70520
589.8978, 57.92454
590.3799, 58.17986
590.8621, 58.46090
591.3442, 58.82770
591.8263, 59.07484
592.3084, 59.01393
592.7905, 58.83217
593.2726, 58.76713
593.7548, 58.86890
594.2369, 58.85218
594.7190, 58.53805
595.2011, 58.03838
595.6832, 57.40107
596.1653, 56.67640
596.6475, 56.17809
597.1296, 56.11979
597.6117, 56.38542
598.0938, 56.64988
598.5759, 56.99682
599.0580, 57.20028
599.5402, 57.07835
600.0223, 56.96955
600.5044, 57.16391
600.9865, 57.56501
601.4686, 57.91676
601.9507, 58.09718
602.4329, 58.02763
602.9150, 57.39347
603.3971, 56.04159
603.8792, 55.10677
604.3613, 54.82000
604.8434, 54.96973
605.3256, 55.63557
605.8077, 56.60219
606.2898, 57.15432
606.7719, 56.80616
607.2540, 56.31049
607.7361, 56.24766
608.2183, 56.50702
608.7004, 56.98350
609.1825, 57.67205
609.6646, 57.90487
610.1467, 56.74536
610.6288, 54.07623
611.1110, 52.82763
611.5931, 54.46634
612.0752, 55.60030
612.5573, 55.03935
613.0394, 53.83563
613.5215, 53.15335
614.0037, 53.20118
614.4858, 53.37667
614.9679, 53.02979
615.4500, 52.31306
615.9321, 52.18338
616.4142, 52.86414
616.8964, 53.37195
617.3785, 53.15942
617.8606, 52.69481
618.3427, 52.53372
618.8248, 52.70517
619.3069, 52.94811
619.7891, 53.55270
620.2712, 53.90647
620.7533, 52.96971
621.2354, 51.12008
621.7175, 50.01747
622.1996, 50.48958
622.6818, 51.70546
623.1639, 52.09986
623.6460, 51.31948
624.1281, 50.73046
624.6102, 50.46965
625.0923, 50.23281
625.5745, 49.79673
626.0566, 49.33802
626.5387, 49.20934
627.0208, 49.55221
627.5029, 49.93474
627.9850, 49.70887
628.4672, 49.00645
628.9493, 48.81995
629.4314, 49.38627
629.9135, 49.93844
630.3956, 50.01474
630.8777, 49.71328
631.3599, 49.29976
631.8420, 48.49215
632.3241, 48.20454
632.8062, 49.40118
633.2883, 50.80553
633.7704, 51.03025
634.2526, 50.13010
634.7347, 48.95361
635.2168, 47.99154
635.6989, 47.31433
636.1810, 47.20407
636.6631, 48.03004
637.1453, 48.48090
637.6274, 48.23042
638.1095, 47.77576
638.5916, 47.13355
639.0737, 46.48561
639.5558, 46.21891
640.0380, 46.56119
640.5201, 47.15230
641.0022, 47.61763
641.4843, 48.02595
641.9664, 48.79616
642.4485, 50.09531
642.9307, 50.93797
643.4128, 50.28236
643.8949, 48.36418
644.3770, 47.33898
644.8591, 47.82607
645.3412, 48.24690
645.8234, 48.18115
646.3055, 48.06952
646.7876, 48.35511
647.2697, 49.00721
647.7518, 49.73028
648.2339, 50.39276
648.7161, 50.83333
649.1982, 50.47659
649.6803, 49.14978
650.1624, 48.16166
650.6445, 47.97284
651.1266, 47.97729
651.6088, 47.45021
652.0909, 46.61366
652.5730, 46.41579
653.0551, 47.76301
653.5372, 49.02430
654.0193, 48.99752
654.5015, 48.29760
654.9836, 48.05167
655.4657, 48.46980
655.9478, 48.88667
656.4299, 48.61953
656.9120, 47.78584
657.3942, 47.59026
657.8763, 48.59991
658.3584, 49.30567
658.8405, 49.22819
659.3226, 49.00867
659.8047, 49.22167
660.2869, 49.77748
660.7690, 50.06944
661.2511, 49.56958
661.7332, 48.85495
662.2153, 48.76534
662.6974, 49.19226
663.1796, 49.49441
663.6617, 49.47373
664.1438, 49.42384
664.6259, 49.74514
665.1080, 50.44491
665.5901, 50.49493
666.0723, 49.12968
666.5544, 48.15778
667.0365, 48.28297
667.5186, 48.83225
668.0007, 49.08315
668.4828, 48.99282
668.9650, 49.07641
669.4471, 49.88601
669.9292, 51.00382
670.4113, 51.05370
670.8934, 49.86555
671.3755, 49.11845
671.8577, 49.45385
672.3398, 50.11308
672.8219, 50.34454
673.3040, 50.21854
673.7861, 50.06740
674.2682, 49.88045
674.7504, 49.74641
675.2325, 49.63923
675.7146, 49.64186
676.1967, 50.05778
676.6788, 50.83748
677.1609, 51.29660
677.6431, 50.70790
678.1252, 49.35144
678.6073, 48.90409
679.0894, 49.87199
679.5715, 50.50448
680.0536, 50.00265
680.5358, 49.42030
681.0179, 49.61650
681.5000, 50.40247
681.9821, 50.84953
682.4642, 50.23072
682.9464, 49.62242
683.4285, 50.26722
683.9106, 51.53082
684.3927, 51.81240
684.8748, 50.79169
685.3569, 49.68253
685.8391, 49.61418
686.3212, 50.42291
686.8033, 50.69976
687.2854, 49.97982
687.7675, 49.46196
688.2496, 49.41031
688.7318, 49.45671
689.2139, 49.35649
689.6960, 49.13003
690.1781, 48.92578
690.6602, 48.82927
691.1423, 48.75681
691.6245, 48.40410
692.1066, 47.96261
692.5887, 48.38756
693.0708, 49.96130
693.5529, 51.37009
694.0350, 51.49746
694.5172, 50.55144
694.9993, 49.83275
695.4814, 49.28510
695.9635, 49.05135
696.4456, 49.45341
696.9277, 49.90767
697.4099, 49.83584
697.8920, 49.45635
698.3741, 49.55449
698.8562, 50.66413
699.3383, 51.86832
699.8204, 51.57615
700.3026, 50.04448
700.7847, 49.29221
701.2668, 49.72968
701.7489, 50.34348
702.2310, 50.43848
702.7131, 50.16337
703.1953, 50.05291
703.6774, 50.05552
704.1595, 50.29249
704.6416, 51.31947
705.1237, 52.11792
705.6058, 51.71326
706.0880, 50.49778
706.5701, 49.41239
707.0522, 48.89587
707.5343, 48.80841
708.0164, 49.14794
708.4985, 49.85955
708.9807, 50.01440
709.4628, 49.35175
709.9449, 48.81942
710.4270, 48.96889
710.9091, 49.57095
711.3912, 50.19740
711.8734, 50.95097
712.3555, 51.35515
712.8376, 51.10338
713.3197, 50.67812
713.8018, 50.40916
714.2839, 50.21796
714.7661, 49.84832
715.2482, 49.21975
715.7303, 48.61018
716.2124, 48.37690
716.6945, 48.49874
717.1766, 48.69820
717.6588, 49.05094
718.1409, 49.21819
718.6230, 48.92414
719.1051, 48.49066
719.5872, 48.41745
720.0693, 48.72131
720.5515, 48.78511
721.0336, 48.12523
721.5157, 47.55950
721.9978, 47.63671
722.4799, 48.11383
722.9620, 48.71434
723.4442, 49.30076
723.9263, 49.55233
724.4084, 49.01881
724.8905, 47.95750
725.3726, 47.86401
725.8547, 49.11581
726.3369, 49.74089
726.8190, 48.75283
727.3011, 47.52843
727.7832, 47.63469
728.2653, 48.71543
728.7474, 49.05305
729.2296, 47.45622
729.7117, 46.13897
730.1938, 46.37403
730.6759, 47.27696
731.1580, 47.86966
731.6401, 48.00356
732.1223, 47.88921
732.6044, 47.63942
733.0865, 47.35754
733.5686, 47.32246
734.0507, 47.56986
734.5328, 47.83103
735.0150, 48.15247
735.4971, 48.35377
735.9792, 48.11633
736.4613, 47.71351
736.9434, 47.77745
737.4255, 48.69066
737.9077, 49.19299
738.3898, 48.47013
738.8719, 47.47419
739.3540, 47.00201
739.8361, 47.00387
740.3182, 47.19450
740.8004, 47.44365
741.2825, 47.55827
741.7646, 47.10157
742.2467, 46.06702
742.7288, 45.64671
743.2109, 46.04854
743.6931, 46.48513
744.1752, 46.68921
744.6573, 46.70826
745.1394, 46.57140
745.6215, 46.26446
746.1036, 46.04805
746.5858, 45.78802
747.0679, 45.82723
747.5500, 46.74148
748.0321, 47.92035
748.5142, 48.41283
748.9963, 48.05837
749.4785, 47.43324
749.9606, 46.96783
750.4427, 46.69456
750.9248, 46.81020
751.4069, 47.37427
751.8890, 47.79884
752.3712, 47.99552
752.8533, 47.93032
753.3354, 47.38026
753.8175, 46.48774
754.2996, 46.07734
754.7817, 46.57115
755.2639, 46.97289
755.7460, 47.09223
756.2281, 46.98642
756.7102, 46.49837
757.1923, 45.82999
757.6744, 45.50373
758.1566, 45.79195
758.6387, 46.39312
759.1208, 46.95595
759.6029, 47.46859
760.0850, 47.84723
760.5671, 48.12044
761.0493, 47.98289
761.5314, 46.97683
762.0135, 45.78153
762.4956, 45.86855
762.9777, 47.84394
763.4598, 48.92538
763.9420, 48.30724
764.4241, 47.62446
764.9062, 47.56294
765.3883, 47.83344
765.8704, 48.08594
766.3525, 48.22203
766.8347, 48.23405
767.3168, 48.11461
767.7989, 47.86729
768.2810, 47.32395
768.7631, 46.57259
769.2452, 46.44548
769.7274, 47.25323
770.2095, 48.04597
770.6916, 47.82240
771.1737, 46.77074
771.6558, 46.48145
772.1379, 47.81855
772.6201, 48.64134
773.1022, 48.55238
773.5843, 48.19648
774.0664, 47.87665
774.5485, 47.61249
775.0306, 47.34101
775.5128, 47.01021
775.9949, 46.82059
776.4770, 47.06992
776.9591, 47.51202
777.4412, 47.67178
777.9233, 47.56462
778.4055, 47.51202
778.8876, 47.65780
779.3697, 47.98079
779.8518, 48.51902
780.3339, 49.34583
780.8160, 49.64773
781.2982, 49.04651
781.7803, 48.53419
782.2624, 48.24910
782.7445, 48.27544
783.2266, 48.96672
783.7087, 50.19080
784.1909, 50.87953
784.6730, 50.41885
785.1551, 49.58535
785.6372, 48.72034
786.1193, 47.87672
786.6014, 46.97258
787.0836, 46.11283
787.5657, 45.83930
788.0478, 46.59902
788.5299, 47.87697
789.0120, 48.48554
789.4941, 48.37677
789.9763, 48.11698
790.4584, 47.59609
790.9405, 47.31864
791.4226, 47.74329
791.9047, 48.51855
792.3868, 48.95246
792.8690, 49.05178
793.3511, 48.81509
793.8332, 47.79819
794.3153, 46.91859
794.7974, 46.65584
795.2795, 46.84499
795.7617, 47.46617
796.2438, 48.36565
796.7259, 48.76271
797.2080, 47.64839
797.6901, 45.93200
798.1722, 45.53627
798.6544, 46.34028
799.1365, 47.39284
799.6186, 48.54139
800.1007, 49.49641
800.5828, 50.02018
801.0649, 50.14326
801.5471, 49.98829
802.0292, 49.18119
802.5113, 48.73577
802.9934, 49.04140
803.4755, 49.30252
803.9576, 49.05358
804.4398, 48.52598
804.9219, 48.18763
805.4040, 48.17828
805.8861, 47.96783
806.3682, 46.78562
806.8503, 45.55945
807.3325, 45.60082
807.8146, 46.53739
808.2967, 47.24251
808.7788, 47.35161
809.2609, 47.03773
809.7430, 46.36478
810.2252, 45.47810
810.7073, 45.40185
811.1894, 46.44735
811.6715, 47.04034
812.1536, 46.70129
812.6357, 46.08302
813.1179, 45.42770
813.6000, 44.90177
814.0821, 45.06767
814.5642, 46.36874
815.0463, 47.50970
815.5284, 48.41712
816.0106, 48.84598
816.4927, 48.39111
816.9748, 47.38740
817.4569, 46.28119
817.9390, 45.26684
818.4211, 44.82280
818.9033, 45.89080
819.3854, 47.72442
819.8675, 48.47529
820.3496, 48.21410
820.8317, 47.76843
821.3138, 47.36750
821.7960, 46.94286
822.2781, 46.39428
822.7602, 45.75927
823.2423, 45.34076
823.7244, 44.86743
824.2065, 45.12035
824.6887, 47.25286
825.1708, 49.03490
825.6529, 49.10949
826.1350, 48.04684
826.6171, 46.89455
827.0992, 45.75920
827.5814, 45.06727
828.0635, 45.37028
828.5456, 45.91975
829.0277, 45.90974
829.5098, 45.59418
829.9919, 45.80802
830.4741, 46.71706
830.9562, 47.34003
831.4383, 46.53746
831.9204, 44.83161
832.4025, 44.11749
832.8846, 44.45714
833.3668, 44.72822
833.8489, 44.73411
834.3310, 44.49689
834.8131, 43.85801
835.2952, 43.03296
835.7773, 42.89957
836.2595, 43.98852
836.7416, 44.84587
837.2237, 45.32169
837.7058, 45.71296
838.1879, 46.34180
838.6700, 46.89031
839.1522, 46.68344
839.6343, 45.64784
840.1164, 45.04097
840.5985, 46.20963
841.0806, 47.66523
841.5627, 47.61560
842.0449, 46.67565
842.5270, 46.36102
843.0091, 46.91603
843.4912, 47.43017
843.9733, 47.19076
844.4554, 46.48652
844.9376, 46.09058
845.4197, 46.04427
845.9018, 45.85101
846.3839, 45.40517
846.8660, 44.98307
847.3481, 44.69615
847.8303, 44.55152
848.3124, 44.62051
848.7945, 44.98532
849.2766, 45.11696
849.7587, 45.00615
850.2408, 44.64510
850.7230, 43.53615
851.2051, 42.52326
851.6872, 42.63235
852.1693, 43.71386
852.6514, 44.67924
853.1335, 45.00193
853.6157, 45.02639
854.0978, 45.02349
854.5799, 44.97303
855.0620, 44.72757
855.5441, 44.35931
856.0262, 44.40334
856.5084, 45.14080
856.9905, 45.81290
857.4726, 45.09966
857.9547, 43.04948
858.4368, 41.69690
858.9189, 41.05795
859.4011, 41.13662
859.8832, 42.36797
860.3653, 43.67688
860.8474, 43.86634
861.3295, 43.09841
861.8116, 42.87713
862.2938, 44.09422
862.7759, 44.55212
863.2580, 43.17427
863.7401, 41.77864
864.2222, 41.62262
864.7043, 42.21624
865.1865, 42.60643
865.6686, 42.53870
866.1507, 42.24164
866.6328, 41.64427
867.1149, 41.07203
867.5970, 40.94030
868.0792, 41.14526
868.5613, 41.52622
869.0434, 41.99047
869.5255, 42.21557
870.0076, 41.91748
870.4897, 41.27432
870.9719, 40.62019
871.4540, 39.92967
871.9361, 39.97578
872.4182, 41.10075
872.9003, 41.93895
873.3824, 41.58374
873.8646, 40.76768
874.3467, 40.85994
874.8288, 42.18109
875.3109, 42.66678
875.7930, 41.57964
876.2751, 40.68554
876.7573, 40.47325
877.2394, 40.53056
877.7215, 40.63203
878.2036, 40.68628
878.6857, 40.49345
879.1678, 39.85612
879.6500, 39.31173
880.1321, 39.06708
880.6142, 39.17515
881.0963, 40.24732
881.5784, 41.65919
882.0605, 41.52372
882.5427, 39.34090
883.0248, 37.20323
883.5069, 37.40967
883.9890, 39.17857
884.4711, 40.33520
884.9532, 40.89411
885.4354, 40.97942
885.9175, 40.54235
886.3996, 40.29322
886.8817, 40.88846
887.3638, 41.85676
887.8459, 41.75386
888.3281, 39.94352
888.8102, 39.04902
889.2923, 39.90175
889.7744, 40.49596
890.2565, 39.64875
890.7386, 38.54645
891.2208, 38.64201
891.7029, 39.82701
892.1850, 40.24017
892.6671, 38.45727
893.1492, 37.19689
893.6313, 37.99430
894.1135, 39.28545
894.5956, 39.85638
895.0777, 39.66157
895.5598, 38.72414
896.0419, 37.03112
896.5240, 35.91677
897.0062, 37.21013
897.4883, 39.48152
897.9704, 40.44981
898.4525, 40.30728
898.9346, 39.81369
899.4167, 39.19836
899.8989, 38.64064
900.3810, 38.28627
900.8631, 38.09407
901.3452, 38.02339
901.8273, 38.11190
902.3094, 37.76263
902.7916, 36.76098
903.2737, 35.92164
903.7558, 35.68486
904.2379, 35.74674
904.7200, 35.64286
905.2021, 35.34134
905.6843, 35.18653
906.1664, 35.08065
906.6485, 35.25613
907.1306, 36.13301
907.6127, 36.94734
908.0948, 37.04893
908.5770, 36.69102
909.0591, 36.60592
909.5412, 37.10350
910.0233, 37.22365
910.5054, 35.88813
910.9875, 34.65434
911.4697, 35.08799
911.9518, 36.32743
912.4339, 36.76535
912.9160, 36.22944
913.3981, 35.90473
913.8802, 36.70625
914.3624, 37.87690
914.8445, 38.42968
915.3265, 38.46995
915.8087, 38.19535
916.2908, 37.66915
916.7729, 37.19150
917.2550, 36.90416
917.7371, 36.64350
918.2192, 36.13083
918.7014, 36.01752
919.1835, 35.20214
919.6656, 35.61458
920.1477, 35.80779
920.6298, 35.54153
921.1119, 35.14928
921.5941, 34.75588
922.0762, 34.48475
922.5583, 34.78180
923.0404, 36.20293
923.5225, 36.78485
924.0046, 35.65906
924.4868, 34.81502
924.9689, 35.13844
925.4510, 35.81548
925.9331, 36.05349
926.4152, 35.85767
926.8973, 35.63771
927.3795, 35.40056
927.8616, 35.33165
928.3437, 35.85019
928.8258, 36.27712
929.3079, 35.77161
929.7900, 34.77844
930.2722, 34.28740
930.7543, 34.55575
931.2364, 34.90476
931.7185, 34.83722
932.2006, 34.53035
932.6827, 34.02443
933.1649, 33.51490
933.6470, 33.56026
934.1291, 34.17173
934.6112, 34.87767
935.0933, 35.41884
935.5754, 35.78884
936.0576, 35.89309
936.5397, 35.77635
937.0218, 36.06059
937.5039, 36.81114
937.9860, 36.76916
938.4681, 35.40176
938.9503, 33.88177
939.4324, 33.21631
939.9145, 33.27675
940.3966, 33.63585
940.8787, 34.64128
941.3608, 34.95646
941.8430, 34.03631
942.3251, 33.25124
942.8072, 33.06324
943.2893, 33.34387
943.7714, 34.24881
944.2535, 35.69885
944.7357, 36.19297
945.2178, 34.87437
945.6999, 33.63508
946.1820, 32.58900
946.6641, 32.00015
947.1462, 32.38631
947.6284, 33.22182
948.1105, 33.58115
948.5926, 33.26886
949.0747, 32.92593
949.5568, 32.61080
950.0389, 32.65257
950.5211, 33.85138
951.0032, 35.21885
951.4853, 35.25432
951.9674, 34.13565
952.4495, 33.09179
952.9316, 32.70234
953.4138, 32.49980
953.8959, 31.75015
954.3780, 30.96641
954.8601, 31.44029
955.3422, 32.79282
955.8243, 33.40977
956.3065, 32.97096
956.7886, 32.61084
957.2707, 33.24808
957.7528, 32.79462
958.2349, 32.59024
958.7170, 32.71454
959.1992, 32.01326
959.6813, 32.04805
960.1634, 32.19545
960.6455, 32.20177
961.1276, 32.38647
961.6097, 33.23857
962.0919, 34.53856
962.5740, 34.65754
963.0561, 33.02868
963.5382, 31.91474
964.0203, 31.49888
964.5024, 31.59678
964.9846, 32.57028
965.4667, 33.67055
965.9488, 33.59736
966.4309, 32.22057
966.9130, 31.72428
967.3951, 32.70625
967.8773, 33.72538
968.3594, 35.10437
968.8415, 35.93092
969.3236, 35.05252
969.8057, 33.45013
970.2878, 33.05317
970.7700, 34.25956
971.2521, 35.02571
971.7342, 34.37699
972.2163, 33.50391
972.6984, 32.74944
973.1805, 32.28081
973.6627, 32.39827
974.1448, 32.92238
974.6269, 33.39727
975.1090, 33.67590
975.5911, 33.66850
976.0732, 33.14318
976.5554, 32.44393
977.0375, 31.88980
977.5196, 31.46393
978.0017, 31.11120
978.4838, 30.82364
978.9659, 30.57734
979.4481, 30.33520
979.9302, 30.31255
980.4123, 30.99727
980.8944, 32.04001
981.3765, 32.64946
981.8586, 32.81529
982.3408, 32.50203
982.8229, 31.74807
983.3050, 31.18850
983.7871, 31.39108
984.2692, 31.95276
984.7513, 31.89548
985.2335, 31.27120
985.7156, 30.77179
986.1977, 30.41891
986.6798, 30.54913
987.1619, 31.36487
987.6440, 32.29137
988.1262, 31.51139
988.6083, 32.90023
989.0904, 33.64078
989.5725, 33.76787
990.0546, 31.44414
990.5367, 32.28515
991.0189, 31.85785
991.5010, 31.37857
991.9831, 32.66499
992.4652, 30.69773
992.9473, 31.95614
993.4294, 31.92694
993.9116, 32.48702
994.3937, 31.77102
994.8758, 31.44916
995.3579, 32.40382
995.8400, 32.65167
996.3221, 31.78877
996.8043, 32.38631
997.2864, 30.37448
997.7685, 30.65243
998.2506, 31.91832
998.7327, 31.11957
999.2148, 31.73089
999.6970, 32.60526
1000.179, 32.44920
1000.661, 31.79503
1001.143, 31.62888
1001.625, 32.10552
1002.108, 32.44283
1002.590, 32.46660
1003.072, 32.19283
1003.554, 31.31658
1004.036, 30.41049
1004.518, 29.85864
1005.000, 29.73494
1005.482, 30.17889
1005.964, 31.22363
1006.447, 32.20603
1006.929, 33.02080
1007.411, 33.32196
1007.893, 32.32203
1008.375, 30.97764
1008.857, 30.58704
1009.339, 31.04733
1009.821, 31.61286
1010.304, 31.99770
1010.786, 32.23318
1011.268, 32.41290
1011.750, 32.40783
1012.232, 31.80788
1012.714, 30.99088
1013.196, 30.85509
1013.678, 31.33481
1014.160, 31.48250
1014.643, 30.84008
1015.125, 30.23217
1015.607, 30.88564
1016.089, 32.12988
1016.571, 32.36740
1017.053, 31.88853
1017.535, 31.76623
1018.017, 32.13420
1018.500, 32.37866
1018.982, 32.14572
1019.464, 31.72741
1019.946, 31.57045
1020.428, 31.58547
1020.910, 31.28438
1021.392, 30.72619
1021.874, 30.52400
1022.356, 30.79870
1022.839, 31.42548
1023.321, 32.40427
1023.803, 33.21897
1024.285, 32.79375
1024.767, 31.26327
1025.249, 30.49080
1025.731, 30.51819
1026.213, 30.66150
1026.696, 30.78665
1027.178, 30.95991
1027.660, 31.27198
1028.142, 31.52955
1028.624, 31.25196
1029.106, 30.39354
1029.588, 30.21183
1030.070, 30.86185
1030.552, 31.51129
1031.035, 32.06594
1031.517, 32.30074
1031.999, 31.97552
1032.481, 31.33342
1032.963, 30.88356
1033.445, 30.61990
1033.927, 30.60476
1034.409, 30.92477
1034.891, 31.29082
1035.374, 31.77789
1035.856, 32.04917
1036.338, 31.82605
1036.820, 31.25504
1037.302, 30.59397
1037.784, 29.72109
1038.266, 29.46524
1038.748, 30.18996
1039.231, 30.87255
1039.713, 31.30694
1040.195, 31.66534
1040.677, 32.29560
1041.159, 32.83531
1041.641, 32.29683
1042.123, 30.20396
1042.605, 29.29002
1043.088, 30.58613
1043.570, 31.59251
1044.052, 31.91348
1044.534, 31.83549
1045.016, 31.32863
1045.498, 30.61965
1045.980, 30.14498
1046.462, 29.94669
1046.944, 29.78617
1047.427, 29.57092
1047.909, 29.49861
1048.391, 29.80582
1048.873, 30.07254
1049.355, 29.87818
1049.837, 29.50834
1050.319, 29.46887
1050.801, 29.80782
1051.283, 30.41587
1051.766, 31.82641
1052.248, 32.73911
1052.730, 32.54858
1053.212, 32.03147
1053.694, 31.77528
1054.176, 31.52771
1054.658, 30.48335
1055.140, 28.53637
1055.623, 27.84025
1056.105, 30.38202
1056.587, 32.16851
1057.069, 31.27579
1057.551, 29.95301
1058.033, 29.70942
1058.515, 30.11905
1058.997, 30.33175
1059.479, 30.24966
1059.962, 30.40755
1060.444, 31.29738
1060.926, 31.98438
1061.408, 32.06892
1061.890, 31.92286
1062.372, 31.80835
1062.854, 31.63305
1063.336, 31.26082
1063.818, 30.66363
1064.301, 29.78530
1064.783, 27.96372
1065.265, 26.95585
1065.747, 28.06573
1066.229, 29.55361
1066.711, 30.35801
1067.193, 30.66368
1067.675, 30.73443
1068.158, 30.67034
1068.640, 30.69140
1069.122, 30.89573
1069.604, 31.14196
1070.086, 31.71463
1070.568, 31.94088
1071.050, 30.98780
1071.532, 29.63856
1072.015, 28.86435
1072.497, 28.71616
1072.979, 28.80038
1073.461, 29.02740
1073.943, 29.34040
1074.425, 29.89377
1074.907, 30.32423
1075.389, 30.46704
1075.871, 30.29388
1076.354, 29.50714
1076.836, 28.39722
1077.318, 27.86620
1077.800, 28.25324
1078.282, 28.87414
1078.764, 29.68516
1079.246, 30.31873
1079.728, 30.41267
1080.210, 30.32277
1080.693, 30.42391
1081.175, 30.68567
1081.657, 31.00587
1082.139, 31.39702
1082.621, 31.30639
1083.103, 29.77048
1083.585, 28.57020
1084.067, 29.04186
1084.549, 29.99071
1085.032, 30.40966
1085.514, 30.33132
1085.996, 29.96832
1086.478, 29.38191
1086.960, 28.99884
1087.442, 28.96753
1087.924, 29.22711
1088.406, 30.29735
1088.889, 31.12168
1089.371, 30.50432
1089.853, 29.17950
1090.335, 28.45089
1090.817, 28.48652
1091.299, 28.52948
1091.781, 28.20193
1092.263, 28.01609
1092.745, 28.20387
1093.228, 28.58257
1093.710, 29.09308
1094.192, 29.67424
1094.674, 30.50916
1095.156, 31.40583
1095.638, 31.35189
1096.120, 29.47722
1096.602, 28.12811
1097.084, 28.51220
1097.567, 29.21542
1098.049, 29.63879
1098.531, 29.81811
1099.013, 29.65278
1099.495, 29.32732
1099.977, 29.48885
1100.459, 30.51541
1100.941, 30.93686
1101.424, 29.71316
1101.906, 28.61510
1102.388, 28.43917
1102.870, 28.63945
1103.352, 28.85754
1103.834, 29.03826
1104.316, 29.11696
1104.798, 29.06675
1105.281, 29.14403
1105.763, 29.78719
1106.245, 30.02079
1106.727, 29.07006
1107.209, 28.15996
1107.691, 27.98911
1108.173, 28.41064
1108.655, 29.49397
1109.137, 31.17216
1109.620, 31.75531
1110.102, 30.06060
1110.584, 28.75066
1111.066, 28.18586
1111.548, 28.03974
1112.030, 28.45584
1112.512, 28.99997
1112.994, 29.16798
1113.476, 29.02169
1113.959, 29.03749
1114.441, 29.59088
1114.923, 29.54501
1115.405, 28.03083
1115.887, 27.06081
1116.369, 27.64547
1116.851, 28.46795
1117.333, 28.37427
1117.816, 27.77704
1118.298, 27.78909
1118.780, 28.55526
1119.262, 29.24081
1119.744, 29.99605
1120.226, 30.36004
1120.708, 30.02076
1121.190, 29.67256
1121.672, 29.93059
1122.155, 30.17568
1122.637, 29.19367
1123.119, 27.03411
1123.601, 26.33721
1124.083, 27.60215
1124.565, 28.92503
1125.047, 30.53398
1125.529, 31.07664
1126.011, 29.58828
1126.494, 27.67782
1126.976, 27.10911
1127.458, 27.55042
1127.940, 27.59171
1128.422, 27.15672
1128.904, 26.74065
1129.386, 26.26592
1129.868, 26.41937
1130.351, 27.54708
1130.833, 28.61115
1131.315, 28.83301
1131.797, 28.50627
1132.279, 28.17434
1132.761, 27.84271
1133.243, 27.48677
1133.725, 27.10340
1134.208, 27.48112
1134.690, 28.78146
1135.172, 29.66748
1135.654, 29.44265
1136.136, 28.72785
1136.618, 28.21413
1137.100, 27.89779
1137.582, 27.86913
1138.064, 28.04998
1138.547, 27.90824
1139.029, 27.47345
1139.511, 27.41994
1139.993, 27.92475
1140.475, 28.21463
1140.957, 27.60643
1141.439, 26.77422
1141.921, 26.85903
1142.403, 27.51097
1142.886, 28.08005
1143.368, 28.44610
1143.850, 28.16991
1144.332, 27.34822
1144.814, 26.86101
1145.296, 27.14491
1145.778, 27.47156
1146.260, 26.87662
1146.743, 26.13007
1147.225, 26.31267
1147.707, 26.97828
1148.189, 27.52500
1148.671, 27.88144
1149.153, 28.01202
1149.635, 27.96872
1150.117, 28.22191
1150.599, 29.32972
1151.082, 30.22251
1151.564, 29.72019
1152.046, 28.99611
1152.528, 29.45362
1153.010, 30.23098
1153.492, 29.85682
1153.974, 28.45201
1154.456, 27.23272
1154.938, 26.56230
1155.421, 26.13293
1155.903, 25.86524
1156.385, 25.75137
1156.867, 25.73862
1157.349, 25.92341
1157.831, 26.39502
1158.313, 27.12192
1158.795, 28.27936
1159.278, 29.88397
1159.760, 30.53236
1160.242, 29.19165
1160.724, 28.13450
1161.206, 27.60620
1161.688, 27.52185
1162.170, 28.22835
1162.652, 29.05717
1163.135, 29.31045
1163.617, 29.11094
1164.099, 28.94668
1164.581, 28.81586
1165.063, 28.71958
1165.545, 28.59753
1166.027, 28.67675
1166.509, 29.14271
1166.991, 29.52521
1167.474, 29.55193
1167.956, 29.28213
1168.438, 28.74249
1168.920, 27.98898
1169.402, 27.66009
1169.884, 27.80260
1170.366, 27.96210
1170.848, 28.12027
1171.330, 27.95795
1171.813, 27.30082
1172.295, 26.98711
1172.777, 27.87251
1173.259, 29.18989
1173.741, 29.11598
1174.223, 27.99760
1174.705, 27.50605
1175.187, 27.62441
1175.670, 28.24262
1176.152, 29.21729
1176.634, 29.78476
1177.116, 29.58186
1177.598, 29.06994
1178.080, 28.66062
1178.562, 28.30909
1179.044, 27.83150
1179.526, 27.42713
1180.009, 27.67048
1180.491, 28.23797
1180.973, 28.13096
1181.455, 27.29685
1181.937, 26.77489
1182.419, 27.16802
1182.901, 27.65825
1183.383, 27.60108
1183.865, 27.45973
1184.348, 27.75818
1184.830, 28.06060
1185.312, 27.45946
1185.794, 26.54984
1186.276, 26.98973
1186.758, 29.08456
1187.240, 30.65259
1187.722, 31.10694
1188.205, 30.84836
1188.687, 29.23446
1189.169, 27.80445
1189.651, 27.50812
1190.133, 27.69517
1190.615, 27.54905
1191.097, 27.22931
1191.579, 27.56632
1192.062, 28.92613
1192.544, 29.55108
1193.026, 28.96178
1193.508, 28.72126
1193.990, 29.37288
1194.472, 29.80519
1194.954, 29.31274
1195.436, 28.47107
1195.918, 28.02087
1196.401, 27.94268
1196.883, 28.23960
1197.365, 28.94207
1197.847, 29.22392
1198.329, 29.03638
1198.811, 28.45673
1199.293, 27.50162
1199.775, 26.91557
1200.257, 27.21766
1200.740, 27.94206
1201.222, 28.44668
1201.704, 28.82050
1202.186, 29.50608
1202.668, 30.20107
1203.150, 29.84775
1203.632, 28.66834
1204.114, 27.79297
1204.597, 27.55161
1205.079, 27.59369
1205.561, 27.79284
1206.043, 27.85894
1206.525, 27.11493
1207.007, 26.53659
1207.489, 27.50416
1207.971, 28.94410
1208.453, 29.33775
1208.936, 28.88743
1209.418, 28.58437
1209.900, 28.66305
1210.382, 28.70626
1210.864, 28.67110
1211.346, 28.44551
1211.828, 27.79861
1212.310, 27.18527
1212.792, 26.66993
1213.275, 26.45143
1213.757, 27.06608
1214.239, 28.13438
1214.721, 28.24420
1215.203, 27.07664
1215.685, 26.44190
1216.167, 26.43359
1216.649, 26.73398
1217.132, 27.40473
1217.614, 28.01913
1218.096, 28.37425
1218.578, 28.53811
1219.060, 28.57220
1219.542, 28.51629
1220.024, 28.62296
1220.506, 28.81079
1220.989, 27.96561
1221.471, 26.30137
1221.953, 26.16969
1222.435, 27.78837
1222.917, 28.55458
1223.399, 27.11713
1223.881, 25.20778
1224.363, 24.40179
1224.845, 24.42212
1225.328, 25.21362
1225.810, 26.35360
1226.292, 27.48980
1226.774, 28.34682
1227.256, 28.28832
1227.738, 27.47748
1228.220, 27.11366
1228.702, 27.77915
1229.184, 28.11586
1229.667, 27.01975
1230.149, 26.11642
1230.631, 26.29592
1231.113, 26.79722
1231.595, 27.20012
1232.077, 27.45514
1232.559, 27.46990
1233.041, 27.27462
1233.524, 27.24311
1234.006, 27.07577
1234.488, 27.51973
1234.970, 26.80045
1235.452, 26.33241
1235.934, 26.32210
1236.416, 26.64087
1236.898, 27.26435
1237.380, 28.02500
1237.863, 28.74554
1238.345, 29.31481
1238.827, 29.22659
1239.309, 28.54107
1239.791, 27.45055
1240.273, 26.13533
1240.755, 25.70477
1241.237, 26.31015
1241.719, 27.00088
1242.202, 27.25577
1242.684, 27.36845
1243.166, 27.49288
1243.648, 27.78404
1244.130, 28.94794
1244.612, 29.95724
1245.094, 28.98212
1245.576, 27.11729
1246.059, 26.58142
1246.541, 27.44263
1247.023, 28.19374
1247.505, 28.46663
1247.987, 28.33216
1248.469, 27.13485
1248.951, 26.47880
1249.433, 27.43440
1249.916, 28.46745
1250.398, 28.72066
1250.880, 28.45593
1251.362, 27.85732
1251.844, 27.03701
1252.326, 26.64040
1252.808, 26.77009
1253.290, 26.67721
1253.772, 26.25219
1254.255, 26.64336
1254.737, 28.16512
1255.219, 29.07777
1255.701, 28.44466
1256.183, 27.50958
1256.665, 27.67488
1257.147, 28.41524
1257.629, 28.75050
1258.111, 28.85176
1258.594, 29.30405
1259.076, 29.76483
1259.558, 29.23112
1260.040, 27.81502
1260.522, 26.39569
1261.004, 25.29744
1261.486, 24.84351
1261.968, 25.75361
1262.451, 26.61506
1262.933, 26.50601
1263.415, 26.37723
1263.897, 27.11536
1264.379, 27.95982
1264.861, 27.77993
1265.343, 28.55512
1265.825, 27.28879
1266.307, 28.88156
1266.790, 29.39381
1267.272, 28.45283
1267.754, 27.49265
1268.236, 26.55323
1268.718, 26.05825
1269.200, 26.22940
1269.682, 26.49621
1270.164, 26.39537
1270.646, 26.03801
1271.129, 25.52581
1271.611, 24.96540
1272.093, 24.56776
1272.575, 24.45182
1273.057, 25.12942
1273.539, 26.40447
1274.021, 27.69223
1274.503, 28.73399
1274.986, 29.17300
1275.468, 28.74301
1275.950, 28.06633
1276.432, 27.41715
1276.914, 26.80184
1277.396, 26.07149
1277.878, 25.53189
1278.360, 25.38241
1278.843, 25.63122
1279.325, 26.56149
1279.807, 27.99622
1280.289, 28.45985
1280.771, 27.51989
1281.253, 27.09677
1281.735, 27.41575
1282.217, 27.49893
1282.699, 27.10992
1283.182, 26.68449
1283.664, 26.38142
1284.146, 26.57693
1284.628, 27.82791
1285.110, 29.34568
1285.592, 29.71451
1286.074, 28.93888
##END=



