##NAMES=Schuilingite-(Nd)
##RRUFFID=R100063
##IDEAL CHEMISTRY=Cu^2+^Pb^2+^Nd^3+^(CO_3_)_3_(OH)&#183;1.5H_2_O
##LOCALITY=Kasompi, 70 km. west of Kambove, Katanga, Congo
##OWNER=RRUFF
##SOURCE=William W Pinch
##DESCRIPTION=Azure-blue, prismatic crystals. Same sample as used by Schindler and Hawthorne (1999) for structure determination
##STATUS=The identification of this mineral has been confirmed only by single crystal X-ray diffraction.
##URL=rruff.info/R100063
122.8708, 0.0000000E+00
123.3529, 0.2772560
123.8350, 0.6480900
124.3171, 0.6776280
124.7993, 0.3453670
125.2814, 1.5000000E-05
125.7635, 1.8100999E-02
126.2456, 0.3765490
126.7277, 0.7145270
127.2098, 1.062786
127.6920, 1.317623
128.1741, 1.329563
128.6562, 1.043957
129.1383, 0.6756550
129.6204, 0.5115010
130.1025, 0.5259210
130.5847, 0.5217590
131.0668, 0.2936360
131.5489, 4.3358002E-02
132.0310, 4.0653002E-02
132.5131, 0.6806910
132.9952, 1.455463
133.4774, 1.602650
133.9595, 1.120380
134.4416, 0.6691930
134.9237, 1.003052
135.4058, 2.297993
135.8879, 3.157246
136.3701, 2.732803
136.8522, 2.161175
137.3343, 2.175968
137.8164, 2.944679
138.2985, 3.969376
138.7806, 4.364357
139.2628, 3.634876
139.7449, 3.166145
140.2270, 3.347893
140.7091, 3.686058
141.1912, 3.661316
141.6733, 3.042210
142.1555, 2.077793
142.6376, 1.635490
143.1197, 2.243900
143.6018, 2.825775
144.0839, 3.319115
144.5660, 3.709606
145.0482, 3.991146
145.5303, 4.158089
146.0124, 4.212227
146.4945, 4.169342
146.9766, 3.978096
147.4587, 3.764996
147.9409, 3.562820
148.4230, 3.377274
148.9051, 3.218430
149.3872, 3.070480
149.8693, 2.994785
150.3514, 3.020515
150.8336, 3.347969
151.3157, 3.704140
151.7978, 3.809956
152.2799, 3.629322
152.7620, 3.445190
153.2441, 3.466785
153.7263, 3.593372
154.2084, 3.684677
154.6905, 3.715607
155.1726, 3.662193
155.6547, 3.402718
156.1368, 2.569370
156.6190, 1.921600
157.1011, 1.810070
157.5832, 2.117897
158.0653, 2.448879
158.5474, 2.701427
159.0295, 2.872849
159.5117, 2.916008
159.9938, 2.604546
160.4759, 2.388512
160.9580, 2.519642
161.4401, 2.896584
161.9222, 3.250130
162.4044, 3.315018
162.8865, 3.024216
163.3686, 2.835476
163.8507, 2.720123
164.3328, 2.717598
164.8149, 3.008556
165.2971, 3.507210
165.7792, 3.859673
166.2613, 3.593521
166.7434, 2.291904
167.2255, 1.614212
167.7076, 1.881489
168.1898, 2.449387
168.6719, 2.962276
169.1540, 3.321815
169.6361, 3.511932
170.1182, 3.499584
170.6003, 3.223473
171.0825, 2.861420
171.5646, 2.215630
172.0467, 1.566750
172.5288, 1.268379
173.0109, 1.440441
173.4930, 1.858677
173.9752, 2.279137
174.4573, 2.798157
174.9394, 2.915401
175.4215, 1.983898
175.9036, 0.5473400
176.3857, 6.3395999E-02
176.8679, 0.8218460
177.3500, 2.217377
177.8321, 2.795708
178.3142, 2.529640
178.7963, 2.054054
179.2784, 1.662571
179.7606, 1.354397
180.2427, 1.163639
180.7248, 1.235729
181.2069, 1.310242
181.6890, 1.067154
182.1711, 0.4655340
182.6533, 3.8090002E-02
183.1354, 0.1862140
183.6175, 1.289768
184.0996, 1.918777
184.5817, 1.228775
185.0638, 0.2790600
185.5460, 0.3502730
186.0281, 0.5329630
186.5102, 0.4933200
186.9923, 0.5866430
187.4744, 0.9907000
187.9565, 1.029953
188.4387, 0.4048810
188.9208, 0.4301800
189.4029, 1.290081
189.8850, 2.090763
190.3671, 2.644005
190.8492, 2.511040
191.3314, 0.8784830
191.8135, 0.1015740
192.2956, 7.7320002E-03
192.7777, 0.5880200
193.2598, 1.167820
193.7419, 1.551807
194.2241, 1.758198
194.7062, 1.829948
195.1883, 1.500195
195.6704, 1.348629
196.1525, 1.622726
196.6346, 2.000004
197.1168, 2.010777
197.5989, 1.429749
198.0810, 0.5751610
198.5631, 0.3999370
199.0452, 1.577839
199.5273, 2.496712
200.0095, 2.769428
200.4916, 2.637573
200.9737, 2.466934
201.4558, 2.397041
201.9379, 2.431576
202.4200, 2.599346
202.9022, 2.941246
203.3843, 3.306152
203.8664, 3.664490
204.3485, 4.009148
204.8306, 4.349766
205.3127, 4.758068
205.7949, 5.073059
206.2770, 4.951511
206.7591, 4.210854
207.2412, 3.471085
207.7233, 2.971348
208.2054, 2.728848
208.6876, 2.928265
209.1697, 3.986988
209.6518, 5.259983
210.1339, 5.743004
210.6160, 5.165634
211.0981, 4.465538
211.5803, 4.472919
212.0624, 5.189232
212.5445, 5.823261
213.0266, 6.082150
213.5087, 6.125744
213.9908, 6.060673
214.4730, 5.879286
214.9551, 5.711290
215.4372, 5.665539
215.9193, 5.729351
216.4014, 5.996052
216.8836, 6.938831
217.3657, 7.845608
217.8478, 8.173590
218.3299, 7.783485
218.8120, 7.065945
219.2941, 6.490316
219.7763, 6.025496
220.2584, 5.831532
220.7405, 6.111279
221.2226, 6.537815
221.7047, 6.967613
222.1868, 7.348967
222.6690, 7.587858
223.1511, 7.475437
223.6332, 6.751839
224.1153, 6.266788
224.5974, 6.159142
225.0795, 6.239628
225.5617, 6.426743
226.0438, 6.681509
226.5259, 6.941164
227.0080, 7.102573
227.4901, 7.111921
227.9722, 7.063904
228.4544, 7.041311
228.9365, 6.931343
229.4186, 6.527046
229.9007, 5.813345
230.3828, 5.090551
230.8649, 4.925613
231.3471, 6.021675
231.8292, 6.536524
232.3113, 5.914865
232.7934, 5.088200
233.2755, 4.884058
233.7576, 5.505234
234.2398, 6.476791
234.7219, 7.063944
235.2040, 6.987801
235.6861, 6.980230
236.1682, 7.169243
236.6503, 7.311277
237.1325, 7.098736
237.6146, 6.472897
238.0967, 5.771641
238.5788, 5.518538
239.0609, 6.109184
239.5430, 6.205067
240.0252, 5.206898
240.5073, 3.955641
240.9894, 3.446726
241.4715, 3.897276
241.9536, 4.599953
242.4357, 4.579727
242.9179, 3.499054
243.4000, 2.759106
243.8821, 2.879526
244.3642, 3.298183
244.8463, 3.313541
245.3284, 2.751007
245.8106, 2.112228
246.2927, 2.040207
246.7748, 2.556244
247.2569, 3.056374
247.7390, 3.578854
248.2211, 3.982910
248.7033, 3.995020
249.1854, 3.535110
249.6675, 2.973604
250.1496, 2.816938
250.6317, 2.987461
251.1138, 2.885000
251.5960, 2.092091
252.0781, 1.084984
252.5602, 0.4185160
253.0423, 0.1356620
253.5244, 0.2367780
254.0065, 1.149197
254.4887, 2.524273
254.9708, 3.331049
255.4529, 2.846947
255.9350, 1.835426
256.4171, 1.435268
256.8992, 1.810036
257.3813, 2.192034
257.8635, 1.839703
258.3456, 1.132692
258.8277, 0.7179450
259.3098, 0.9956040
259.7919, 1.536968
260.2740, 1.705601
260.7562, 1.427795
261.2383, 1.095133
261.7204, 0.8615740
262.2025, 0.7456570
262.6846, 0.7449260
263.1667, 0.9134370
263.6489, 1.145048
264.1310, 1.291866
264.6131, 1.363617
265.0952, 1.309628
265.5773, 0.7107850
266.0594, 0.1305500
266.5416, 0.2498950
267.0237, 1.435179
267.5058, 2.886036
267.9879, 3.471821
268.4700, 3.012222
268.9521, 2.513412
269.4343, 2.290852
269.9164, 2.178093
270.3985, 2.055000
270.8806, 1.889040
271.3627, 1.747505
271.8448, 1.759209
272.3270, 1.978367
272.8091, 2.065762
273.2912, 1.830624
273.7733, 1.502071
274.2554, 1.174477
274.7375, 0.8692990
275.2197, 0.6413250
275.7018, 0.6015680
276.1839, 0.7987960
276.6660, 0.8667090
277.1481, 0.4847910
277.6302, 0.1823750
278.1124, 0.2867260
278.5945, 0.7592090
279.0766, 1.234545
279.5587, 1.272261
280.0408, 0.8033390
280.5229, 0.5277060
281.0051, 0.5529500
281.4872, 0.7291150
281.9693, 1.196152
282.4514, 1.814434
282.9335, 2.179823
283.4156, 1.788441
283.8978, 0.6132350
284.3799, 3.6897998E-02
284.8620, 0.1657300
285.3441, 0.6181130
285.8262, 1.379446
286.3083, 2.235691
286.7905, 2.768505
287.2726, 2.595272
287.7547, 1.810907
288.2368, 1.348074
288.7189, 1.605644
289.2010, 1.718592
289.6832, 1.262974
290.1653, 0.5565930
290.6474, 0.1176870
291.1295, 0.2920990
291.6116, 0.8738140
292.0938, 0.9923820
292.5759, 0.1797140
293.0580, 0.4352070
293.5401, 0.6452940
294.0222, 0.5575120
294.5043, 0.2367800
294.9865, 0.2974050
295.4686, 0.9229090
295.9507, 1.316357
296.4328, 1.244427
296.9149, 1.371443
297.3970, 2.283009
297.8792, 3.146683
298.3613, 3.054979
298.8434, 1.784822
299.3255, 9.7704001E-02
299.8076, 0.7168670
300.2897, 0.2590540
300.7719, 0.2055780
301.2540, 0.8192330
301.7361, 1.275208
302.2182, 1.299538
302.7003, 0.8908330
303.1824, 0.3343430
303.6646, 7.0689999E-02
304.1467, 0.3370400
304.6288, 0.3161240
305.1109, 0.4170740
305.5930, 1.105751
306.0751, 1.322466
306.5573, 1.134447
307.0394, 0.9244290
307.5215, 1.084188
308.0036, 1.663483
308.4857, 1.880688
308.9678, 1.281691
309.4500, 0.7529240
309.9321, 0.4426000
310.4142, 0.3997990
310.8963, 0.7472100
311.3784, 1.671865
311.8605, 3.014904
312.3427, 3.481428
312.8248, 2.048298
313.3069, 0.8863050
313.7890, 0.4383130
314.2711, 0.4697530
314.7532, 0.6945570
315.2354, 0.9818950
315.7175, 1.286171
316.1996, 1.472982
316.6817, 1.508884
317.1638, 1.464951
317.6459, 1.368860
318.1281, 1.197771
318.6102, 0.8202950
319.0923, 0.2256390
319.5744, 0.2953660
320.0565, 0.1530530
320.5386, 1.214285
321.0208, 1.929333
321.5029, 1.490770
321.9850, 0.8071440
322.4671, 0.3285980
322.9492, 0.1633340
323.4313, 0.2844790
323.9135, 0.7511460
324.3956, 1.712303
324.8777, 2.278677
325.3598, 1.971476
325.8419, 1.719872
326.3240, 2.060749
326.8062, 2.801565
327.2883, 3.300810
327.7704, 2.981506
328.2525, 1.911219
328.7346, 1.293356
329.2167, 1.455498
329.6989, 1.740536
330.1810, 2.139917
330.6631, 2.524326
331.1452, 2.685879
331.6273, 2.487402
332.1094, 2.081591
332.5916, 2.003548
333.0737, 2.742800
333.5558, 2.938530
334.0379, 1.881359
334.5200, 0.5082910
335.0021, 0.2842710
335.4843, 0.2132930
335.9664, 0.3289870
336.4485, 0.7489430
336.9306, 1.034800
337.4127, 1.223814
337.8948, 1.196854
338.3770, 1.170572
338.8591, 1.350924
339.3412, 1.713137
339.8233, 1.996176
340.3055, 1.867769
340.7876, 1.270208
341.2697, 0.8454300
341.7518, 0.5410330
342.2339, 0.4839150
342.7160, 0.9846570
343.1982, 1.799290
343.6803, 2.364111
344.1624, 2.204172
344.6445, 1.502516
345.1266, 1.229923
345.6087, 1.803974
346.0909, 2.120052
346.5730, 1.596785
347.0551, 0.7232970
347.5372, 0.1160340
348.0193, 3.2217000E-02
348.5014, 0.2710690
348.9836, 0.5066360
349.4657, 0.7570300
349.9478, 0.9400690
350.4299, 0.9623890
350.9120, 0.9194220
351.3941, 0.9712260
351.8763, 1.155895
352.3584, 1.268581
352.8405, 0.9395900
353.3226, 0.1265110
353.8047, 0.2870520
354.2868, 1.7960001E-02
354.7690, 0.5369870
355.2511, 1.192848
355.7332, 1.918568
356.2153, 2.625534
356.6974, 3.451046
357.1795, 4.240423
357.6617, 4.215334
358.1438, 2.992199
358.6259, 1.971661
359.1080, 2.402632
359.5901, 3.450663
360.0722, 3.682026
360.5544, 2.109318
361.0365, 5.3576000E-02
361.5186, 0.5121960
362.0007, 0.5867600
362.4828, 1.802711
362.9649, 2.782934
363.4471, 3.393631
363.9292, 3.429735
364.4113, 2.761486
364.8934, 2.006035
365.3755, 1.598610
365.8576, 1.505283
366.3398, 1.584309
366.8219, 1.940811
367.3040, 2.251272
367.7861, 2.027065
368.2682, 1.335234
368.7503, 0.9458160
369.2325, 1.373577
369.7146, 2.235214
370.1967, 2.940226
370.6788, 3.457489
371.1609, 3.696085
371.6430, 3.446386
372.1252, 2.840263
372.6073, 2.323925
373.0894, 1.902565
373.5715, 1.631145
374.0536, 1.704256
374.5357, 2.042561
375.0179, 2.098129
375.5000, 1.418455
375.9821, 0.4715290
376.4642, 0.4453560
376.9463, 1.833202
377.4284, 2.853233
377.9106, 2.650560
378.3927, 1.745314
378.8748, 0.9061910
379.3569, 0.3130970
379.8390, 5.6834999E-02
380.3211, 0.4416140
380.8033, 1.650394
381.2854, 2.179123
381.7675, 1.333344
382.2496, 0.2400590
382.7317, 0.3201080
383.2138, 0.2789610
383.6960, 0.2128450
384.1781, 1.167566
384.6602, 2.510801
385.1423, 3.191238
385.6244, 2.855059
386.1065, 2.390574
386.5887, 1.944618
387.0708, 1.591579
387.5529, 1.500965
388.0350, 1.762257
388.5171, 2.147539
388.9992, 2.144255
389.4814, 1.227438
389.9635, 0.7311250
390.4456, 0.9344390
390.9277, 1.365469
391.4098, 1.656792
391.8919, 1.753372
392.3741, 1.815695
392.8562, 1.998415
393.3383, 2.381136
393.8204, 2.697083
394.3025, 2.866978
394.7846, 3.016846
395.2668, 3.163754
395.7489, 3.322447
396.2310, 3.505461
396.7131, 3.737299
397.1952, 4.019709
397.6773, 4.389162
398.1595, 5.252007
398.6416, 5.573978
399.1237, 4.770264
399.6058, 3.715454
400.0879, 3.165489
400.5700, 3.289560
401.0522, 3.711262
401.5343, 4.074598
402.0164, 4.428604
402.4985, 4.402462
402.9806, 3.522564
403.4627, 2.684135
403.9449, 2.200294
404.4270, 2.067471
404.9091, 2.252693
405.3912, 2.959835
405.8733, 3.857239
406.3554, 3.666893
406.8376, 1.673182
407.3197, 0.3860090
407.8018, 1.681002
408.2839, 3.780493
408.7660, 4.796263
409.2481, 4.192888
409.7303, 3.108887
410.2124, 2.731630
410.6945, 3.003010
411.1766, 2.947838
411.6587, 2.075279
412.1408, 1.187834
412.6230, 1.057713
413.1051, 1.587301
413.5872, 2.099180
414.0693, 2.345854
414.5514, 2.387226
415.0335, 2.227913
415.5157, 1.838751
415.9978, 1.585646
416.4799, 1.793499
416.9620, 2.311661
417.4441, 2.647020
417.9262, 2.761112
418.4084, 2.719837
418.8905, 2.523365
419.3726, 2.170727
419.8547, 1.748846
420.3368, 1.202993
420.8189, 0.6704850
421.3011, 0.3574830
421.7832, 0.2610300
422.2653, 0.4431270
422.7474, 1.320780
423.2295, 2.226639
423.7116, 2.521444
424.1938, 2.207788
424.6759, 1.752947
425.1580, 1.499470
425.6401, 1.440237
426.1222, 1.439667
426.6043, 1.655281
427.0865, 1.738071
427.5686, 1.435562
428.0507, 0.9995670
428.5328, 0.8072640
429.0149, 0.9990860
429.4970, 1.378399
429.9792, 1.590115
430.4613, 1.495955
430.9434, 1.538013
431.4255, 1.868671
431.9076, 2.178465
432.3897, 2.343399
432.8719, 2.334538
433.3540, 2.110466
433.8361, 1.565702
434.3182, 0.7935160
434.8003, 0.5202080
435.2824, 1.267174
435.7646, 1.706642
436.2467, 1.340729
436.7288, 0.6238290
437.2109, 6.8654999E-02
437.6930, 0.6256830
438.1751, 0.8623810
438.6573, 0.3021950
439.1394, 1.156176
439.6215, 1.934042
440.1036, 1.300243
440.5857, 0.4849380
441.0678, 0.3305440
441.5500, 0.7391240
442.0321, 1.213385
442.5142, 1.652142
442.9963, 1.945738
443.4784, 1.776880
443.9605, 1.067417
444.4427, 0.5060390
444.9248, 0.4910550
445.4069, 0.8222450
445.8890, 1.152449
446.3711, 1.505775
446.8532, 1.754250
447.3354, 1.764755
447.8175, 1.625856
448.2996, 1.577148
448.7817, 1.700575
449.2638, 1.723598
449.7459, 1.245756
450.2281, 0.2270110
450.7102, 0.3682120
451.1923, 0.2843930
451.6744, 3.1458002E-02
452.1565, 0.4964260
452.6386, 0.9824810
453.1208, 1.089840
453.6029, 0.5485190
454.0850, 0.2950690
454.5671, 0.4728130
455.0492, 1.006229
455.5313, 1.802204
456.0135, 1.194942
456.4956, 0.3618580
456.9777, 0.4011840
457.4598, 1.339766
457.9419, 2.295794
458.4240, 2.377234
458.9062, 1.565886
459.3883, 1.177208
459.8704, 1.800034
460.3525, 2.213680
460.8346, 1.819466
461.3167, 1.148596
461.7989, 0.8788720
462.2810, 1.271488
462.7631, 1.989618
463.2452, 2.667091
463.7273, 3.407150
464.2094, 3.435141
464.6916, 1.774422
465.1737, 0.2053910
465.6558, 0.1113340
466.1379, 0.5911270
466.6200, 1.324997
467.1021, 1.585041
467.5843, 1.514597
468.0664, 1.291296
468.5485, 0.8571240
469.0306, 0.7144890
469.5127, 1.373632
469.9948, 2.291668
470.4770, 2.546923
470.9591, 1.904385
471.4412, 1.351650
471.9233, 1.642914
472.4054, 2.293016
472.8875, 2.293400
473.3697, 1.429741
473.8518, 0.4934730
474.3339, 0.1966990
474.8160, 0.5547100
475.2981, 0.8976780
475.7802, 1.253618
476.2624, 1.564489
476.7445, 1.946705
477.2266, 2.244677
477.7087, 2.071447
478.1908, 1.264076
478.6729, 0.2293150
479.1551, 0.2776760
479.6372, 4.5600999E-02
480.1193, 0.1855050
480.6014, 0.5026660
481.0835, 0.7533890
481.5656, 0.7792260
482.0478, 0.6538640
482.5299, 0.5820390
483.0120, 0.7010310
483.4941, 0.9694310
483.9762, 1.264019
484.4583, 1.738985
484.9405, 1.911112
485.4226, 1.438900
485.9047, 0.8224810
486.3868, 0.4039250
486.8689, 0.2420520
487.3510, 0.2701190
487.8332, 0.5318260
488.3153, 0.9610390
488.7974, 1.227766
489.2795, 1.300014
489.7616, 1.328764
490.2437, 1.440113
490.7259, 1.544477
491.2080, 1.388012
491.6901, 0.7387430
492.1722, 0.1956960
492.6543, 0.2895930
493.1364, 0.8402060
493.6186, 1.362030
494.1007, 1.802282
494.5828, 2.057173
495.0649, 2.104576
495.5470, 1.915604
496.0291, 1.560896
496.5113, 0.8363460
496.9934, 0.2170430
497.4755, 4.5867998E-02
497.9576, 7.6159998E-03
498.4397, 0.3074250
498.9218, 0.8348350
499.4040, 1.428129
499.8861, 1.707569
500.3682, 1.444628
500.8503, 1.274641
501.3324, 1.028570
501.8145, 1.004436
502.2967, 1.684778
502.7788, 2.795067
503.2609, 3.478672
503.7430, 3.057165
504.2251, 1.852312
504.7072, 1.110588
505.1894, 0.9412590
505.6715, 0.9882140
506.1536, 1.528219
506.6357, 2.002377
507.1178, 1.801542
507.5999, 0.8985960
508.0821, 0.1131230
508.5642, 0.1942710
509.0463, 0.8618010
509.5284, 1.173532
510.0105, 0.9790080
510.4926, 0.7745880
510.9748, 0.9078750
511.4569, 1.239462
511.9390, 1.421198
512.4211, 1.458693
512.9032, 1.361513
513.3853, 0.8892440
513.8674, 0.2912040
514.3495, 4.1645002E-02
514.8317, 0.2439690
515.3138, 0.6064170
515.7959, 0.8713440
516.2780, 1.045231
516.7601, 0.9714640
517.2422, 0.1615510
517.7244, 0.3098030
518.2065, 0.3208560
518.6886, 1.381863
519.1707, 1.823997
519.6528, 1.296829
520.1349, 0.4001660
520.6171, 6.1567001E-02
521.0992, 0.4378600
521.5813, 0.7339040
522.0634, 0.9981380
522.5455, 1.122395
523.0276, 0.8673530
523.5098, 0.4646150
523.9919, 0.3841040
524.4740, 0.8573860
524.9561, 1.605396
525.4382, 2.449949
525.9203, 3.400005
526.4025, 3.475744
526.8846, 1.820513
527.3667, 5.8302000E-02
527.8488, 7.4180001E-03
528.3309, 1.345076
528.8130, 2.358360
529.2952, 2.301603
529.7773, 1.801937
530.2594, 1.442667
530.7415, 1.218576
531.2236, 1.005514
531.7057, 0.7316110
532.1879, 0.4892670
532.6700, 0.4674420
533.1521, 0.7681240
533.6342, 1.072195
534.1163, 1.611355
534.5984, 1.949980
535.0806, 1.644457
535.5627, 0.8747830
536.0448, 0.1490210
536.5269, 0.2306750
537.0090, 0.3152010
537.4911, 0.1229610
537.9733, 0.5129030
538.4554, 1.030220
538.9375, 1.399826
539.4196, 1.607323
539.9017, 1.551790
540.3839, 1.296764
540.8660, 1.083593
541.3481, 1.043272
541.8302, 1.161831
542.3123, 1.531351
542.7944, 2.171669
543.2766, 2.526159
543.7587, 2.220226
544.2408, 1.665695
544.7229, 1.563734
545.2050, 2.006182
545.6871, 2.093616
546.1693, 0.9740580
546.6514, 0.3175070
547.1335, 0.4717880
547.6156, 0.4013140
548.0977, 1.298183
548.5798, 1.626480
549.0620, 1.512655
549.5441, 1.383316
550.0262, 1.381157
550.5083, 1.157906
550.9904, 0.1422230
551.4725, 0.6638470
551.9547, 0.1663700
552.4368, 1.356590
552.9189, 2.588423
553.4010, 2.466566
553.8831, 1.381796
554.3652, 0.9595130
554.8474, 1.537865
555.3295, 1.919416
555.8116, 1.470282
556.2937, 0.9633160
556.7758, 1.099289
557.2579, 1.853113
557.7401, 2.387785
558.2222, 1.952229
558.7043, 1.085804
559.1864, 0.7664740
559.6685, 1.003750
560.1506, 1.304338
560.6328, 1.459780
561.1149, 1.495743
561.5970, 1.428432
562.0791, 1.178907
562.5612, 1.090643
563.0433, 1.350471
563.5255, 1.702671
564.0076, 2.012453
564.4897, 2.224895
564.9718, 2.204601
565.4539, 1.829500
565.9360, 1.273712
566.4182, 1.188181
566.9003, 2.130981
567.3824, 2.476500
567.8645, 1.584850
568.3466, 0.5833190
568.8287, 5.2248001E-02
569.3109, 4.6659000E-02
569.7930, 0.5377620
570.2751, 1.827539
570.7572, 3.269243
571.2393, 3.187799
571.7214, 1.410892
572.2036, 0.2493340
572.6857, 0.7690910
573.1678, 1.862284
573.6499, 2.150713
574.1320, 1.659298
574.6141, 1.377405
575.0963, 1.763741
575.5784, 2.294901
576.0605, 2.621769
576.5426, 2.738674
577.0247, 2.794737
577.5068, 2.866205
577.9890, 2.844534
578.4711, 2.482325
578.9532, 1.464441
579.4353, 0.9322260
579.9174, 1.142399
580.3995, 1.515169
580.8817, 1.908747
581.3638, 2.233513
581.8459, 2.350286
582.3280, 2.178570
582.8101, 1.893696
583.2922, 1.803766
583.7744, 1.928711
584.2565, 1.973444
584.7386, 1.968060
585.2207, 1.769503
585.7029, 0.9152150
586.1850, 0.2018390
586.6671, 0.5016540
587.1492, 0.9242800
587.6313, 2.360607
588.1135, 2.377316
588.5956, 1.473658
589.0777, 0.7661210
589.5598, 0.5338130
590.0419, 0.6223870
590.5240, 0.9548420
591.0062, 1.559929
591.4883, 1.702988
591.9704, 0.9278240
592.4525, 0.3017500
592.9346, 0.1821920
593.4167, 0.3025130
593.8989, 0.3425080
594.3810, 0.2172720
594.8631, 9.8454997E-02
595.3452, 0.1781230
595.8273, 0.4395410
596.3094, 0.7040500
596.7916, 1.018246
597.2737, 1.232229
597.7558, 1.314350
598.2379, 1.241770
598.7200, 0.8748700
599.2021, 0.1460040
599.6843, 0.3594250
600.1664, 0.1945610
600.6485, 0.2966580
601.1306, 0.6460590
601.6127, 0.8250430
602.0948, 1.014458
602.5770, 1.365738
603.0591, 1.712336
603.5412, 1.575678
604.0233, 0.3160100
604.5054, 0.3936750
604.9875, 0.1206510
605.4697, 0.3815230
605.9518, 0.5484700
606.4339, 0.4753610
606.9160, 0.6030790
607.3981, 1.211800
607.8802, 1.900398
608.3624, 2.101698
608.8445, 1.774473
609.3266, 1.452547
609.8087, 1.295876
610.2908, 1.236277
610.7729, 1.244427
611.2551, 1.316860
611.7372, 1.358175
612.2193, 1.328840
612.7014, 1.342134
613.1835, 1.553234
613.6656, 1.856142
614.1478, 2.053358
614.6299, 2.094046
615.1120, 1.902174
615.5941, 1.323088
616.0762, 0.3524480
616.5583, 0.1232320
617.0405, 0.3458310
617.5226, 0.7442860
618.0047, 0.8877750
618.4868, 0.8989200
618.9689, 0.8780500
619.4510, 0.8547130
619.9332, 0.8418450
620.4153, 0.8681680
620.8974, 0.9099900
621.3795, 0.8434280
621.8616, 0.6245120
622.3438, 0.5533430
622.8259, 0.9069840
623.3080, 1.314983
623.7901, 1.201969
624.2722, 0.5274850
624.7543, 8.0282003E-02
625.2365, 0.2063160
625.7186, 0.5247420
626.2007, 0.8244360
626.6828, 1.052258
627.1649, 1.086243
627.6470, 0.8723470
628.1292, 0.5789470
628.6113, 0.4920980
629.0934, 0.6808510
629.5755, 0.7863750
630.0576, 0.5672020
630.5397, 0.5269570
631.0219, 1.035019
631.5040, 1.726114
631.9861, 2.072128
632.4682, 1.913706
632.9503, 1.611607
633.4324, 1.410906
633.9146, 1.331583
634.3967, 1.509577
634.8788, 1.989775
635.3609, 2.432333
635.8430, 2.678968
636.3251, 2.644466
636.8073, 2.274689
637.2894, 1.262506
637.7715, 0.7331330
638.2536, 1.382235
638.7357, 2.142216
639.2178, 2.110945
639.7000, 1.451969
640.1821, 0.8366760
640.6642, 0.6263410
641.1463, 0.6816520
641.6284, 0.7181430
642.1105, 0.7113300
642.5927, 0.8231810
643.0748, 1.157738
643.5569, 1.498312
644.0390, 1.858982
644.5211, 2.098326
645.0032, 1.906181
645.4854, 0.8964580
645.9675, 5.8708001E-02
646.4496, 0.2397120
646.9317, 0.9920440
647.4138, 1.518515
647.8959, 1.701296
648.3781, 1.728161
648.8602, 1.711819
649.3423, 1.677773
649.8244, 1.754080
650.3065, 2.226137
650.7886, 2.369591
651.2708, 1.709858
651.7529, 1.116964
652.2350, 1.434311
652.7171, 2.334997
653.1992, 2.713535
653.6813, 1.809559
654.1635, 0.5524060
654.6456, 0.4802170
655.1277, 1.491383
655.6098, 2.351061
656.0919, 2.880486
656.5740, 3.055737
657.0562, 2.729948
657.5383, 1.950706
658.0204, 1.359764
658.5025, 0.9436550
658.9846, 0.7301040
659.4667, 0.7996310
659.9489, 1.039537
660.4310, 1.463430
660.9131, 1.975681
661.3952, 2.241051
661.8773, 1.976217
662.3594, 1.329184
662.8416, 0.9565600
663.3237, 0.9766900
663.8058, 0.7316760
664.2879, 0.5387800
664.7700, 1.415380
665.2521, 0.4162200
665.7343, 1.844414
666.2164, 3.243536
666.6985, 2.850775
667.1806, 1.886097
667.6627, 0.8541770
668.1448, 4.6870999E-02
668.6270, 0.3386440
669.1091, 4.0610999E-02
669.5912, 0.5972040
670.0733, 0.9026600
670.5554, 1.001867
671.0375, 1.233955
671.5197, 1.706766
672.0018, 2.135288
672.4839, 2.583006
672.9660, 2.901201
673.4481, 2.950409
673.9302, 2.772261
674.4124, 2.493624
674.8945, 2.117512
675.3766, 1.823431
675.8587, 1.951893
676.3408, 2.398050
676.8229, 2.684093
677.3051, 2.706095
677.7872, 2.552715
678.2693, 2.245834
678.7514, 1.814373
679.2335, 1.599066
679.7156, 2.016233
680.1978, 2.066984
680.6799, 1.000916
681.1620, 3.0912001E-02
681.6441, 0.1692240
682.1262, 1.385960
682.6083, 2.450714
683.0905, 2.627365
683.5726, 2.260996
684.0547, 1.934101
684.5368, 1.647856
685.0189, 1.470863
685.5010, 1.452085
685.9832, 1.461552
686.4653, 1.336096
686.9474, 1.137941
687.4295, 1.169323
687.9116, 1.512720
688.3937, 1.983063
688.8759, 2.835562
689.3580, 3.586277
689.8401, 3.642412
690.3222, 3.068138
690.8043, 2.408134
691.2864, 2.026220
691.7686, 1.750319
692.2507, 1.003693
692.7328, 0.4082600
693.2149, 1.010708
693.6970, 0.2785240
694.1791, 0.8289050
694.6613, 1.972698
695.1434, 2.963158
695.6255, 3.291759
696.1076, 2.547911
696.5897, 1.815630
697.0718, 1.535381
697.5540, 1.570894
698.0361, 1.907516
698.5182, 2.459272
699.0003, 2.929577
699.4824, 3.147840
699.9645, 3.121838
700.4467, 2.708624
700.9288, 1.696703
701.4109, 1.178728
701.8930, 1.618668
702.3751, 2.072275
702.8572, 1.894575
703.3394, 1.473286
703.8215, 1.532656
704.3036, 2.349068
704.7857, 3.109974
705.2678, 3.279715
705.7499, 3.148752
706.2321, 3.072702
706.7142, 3.078930
707.1963, 3.095461
707.6784, 3.084007
708.1605, 3.067217
708.6426, 3.105967
709.1248, 3.255798
709.6069, 3.259005
710.0890, 2.931736
710.5711, 2.673645
711.0532, 2.760847
711.5353, 2.929976
712.0175, 2.764366
712.4996, 2.164211
712.9817, 1.697834
713.4638, 1.781176
713.9459, 2.117752
714.4280, 2.466021
714.9102, 2.822138
715.3923, 3.076969
715.8744, 3.171675
716.3565, 3.251272
716.8386, 3.592180
717.3207, 4.309288
717.8029, 4.439634
718.2850, 3.277864
718.7671, 2.397484
719.2492, 2.341492
719.7313, 2.608181
720.2134, 2.790058
720.6956, 2.795338
721.1777, 2.604845
721.6598, 2.159710
722.1419, 1.612753
722.6240, 1.079781
723.1061, 0.7346950
723.5883, 0.8276880
724.0704, 1.437178
724.5525, 2.201571
725.0346, 2.783587
725.5167, 3.179106
725.9988, 3.278076
726.4810, 2.862051
726.9631, 2.457170
727.4452, 1.904146
727.9273, 1.519222
728.4094, 1.670088
728.8915, 2.227615
729.3737, 2.671520
729.8558, 2.748327
730.3379, 2.639141
730.8200, 2.423931
731.3021, 2.185265
731.7842, 2.215258
732.2664, 2.558397
732.7485, 2.863596
733.2306, 2.848999
733.7127, 2.607037
734.1948, 2.511852
734.6769, 2.737543
735.1591, 2.790567
735.6412, 2.474401
736.1233, 2.180288
736.6054, 2.185448
737.0875, 2.370956
737.5696, 2.480495
738.0518, 2.428600
738.5339, 2.270794
739.0160, 1.849335
739.4981, 1.395035
739.9802, 1.390596
740.4623, 1.820536
740.9445, 2.274305
741.4266, 2.552471
741.9087, 2.719868
742.3908, 2.918480
742.8729, 3.236303
743.3550, 3.201077
743.8372, 2.382196
744.3193, 1.723507
744.8014, 1.454124
745.2835, 1.484091
745.7656, 1.875528
746.2477, 2.584183
746.7299, 2.983397
747.2120, 2.487907
747.6941, 1.687662
748.1762, 1.246712
748.6583, 1.081003
749.1404, 0.8605520
749.6226, 0.4950790
750.1047, 0.2610860
750.5868, 0.4373650
751.0689, 0.9721370
751.5510, 1.583572
752.0331, 2.543541
752.5153, 2.944096
752.9974, 2.201010
753.4795, 1.237589
753.9616, 0.3793180
754.4437, 0.2287370
754.9258, 0.1622890
755.4080, 1.207228
755.8901, 2.303989
756.3722, 1.512787
756.8543, 3.2469001E-02
757.3364, 0.2134570
757.8185, 0.8062340
758.3007, 1.929140
758.7828, 2.482752
759.2649, 2.534954
759.7470, 2.105600
760.2291, 0.9799610
760.7112, 0.4151900
761.1934, 0.6746160
761.6755, 1.130344
762.1576, 1.689093
762.6397, 2.181557
763.1218, 2.365561
763.6039, 2.202835
764.0861, 1.917517
764.5682, 1.275066
765.0503, 0.8258210
765.5324, 1.242453
766.0145, 2.118750
766.4966, 2.630804
766.9788, 2.556305
767.4609, 2.282904
767.9430, 2.221277
768.4251, 2.289339
768.9072, 2.045498
769.3893, 1.438890
769.8715, 0.7336940
770.3536, 0.2903770
770.8357, 0.9871330
771.3178, 0.4974800
771.7999, 0.9248490
772.2820, 1.968819
772.7642, 2.583004
773.2463, 2.780140
773.7284, 2.249790
774.2105, 1.547085
774.6926, 1.138590
775.1747, 1.012041
775.6569, 1.002743
776.1390, 1.046268
776.6211, 0.9931740
777.1032, 0.4445190
777.5853, 0.4393810
778.0674, 0.6353450
778.5496, 7.9290001E-03
779.0317, 0.6148610
779.5138, 0.6842900
779.9959, 0.5940650
780.4780, 1.085745
780.9601, 2.456707
781.4423, 3.180851
781.9244, 2.710302
782.4065, 2.289145
782.8886, 2.549908
783.3707, 2.913677
783.8528, 2.598837
784.3350, 1.622206
784.8171, 0.8235260
785.2992, 0.7647760
785.7813, 1.087505
786.2634, 1.490366
786.7455, 1.883900
787.2277, 1.847477
787.7098, 1.310188
788.1919, 0.9550000
788.6740, 1.379990
789.1561, 2.307009
789.6382, 2.708200
790.1204, 2.418180
790.6025, 1.988943
791.0846, 0.9095610
791.5667, 0.3000930
792.0488, 1.335180
792.5309, 2.886581
793.0131, 2.997181
793.4952, 1.126850
793.9773, 0.5226750
794.4594, 0.9447380
794.9415, 0.6785410
795.4236, 0.1624720
795.9058, 1.222273
796.3879, 1.679583
796.8700, 1.330217
797.3521, 0.8862920
797.8342, 1.163857
798.3163, 0.8570630
798.7985, 1.988789
799.2806, 1.068594
799.7627, 0.6913620
800.2448, 1.453890
800.7269, 2.424187
801.2090, 2.831539
801.6912, 2.749760
802.1733, 2.663712
802.6554, 2.654963
803.1375, 2.513638
803.6196, 1.972084
804.1017, 1.491941
804.5839, 1.470058
805.0660, 1.763849
805.5481, 2.040001
806.0302, 2.176144
806.5123, 2.256170
806.9944, 2.490929
807.4766, 2.699076
807.9587, 2.304609
808.4408, 1.354752
808.9229, 0.5288940
809.4050, 4.6675000E-02
809.8871, 1.2224000E-02
810.3693, 0.5773200
810.8514, 1.809134
811.3335, 2.331121
811.8156, 1.680311
812.2977, 1.132664
812.7798, 0.9571610
813.2620, 0.9107380
813.7441, 0.8483940
814.2262, 0.7693690
814.7083, 0.6869280
815.1904, 0.5520440
815.6725, 0.5275520
816.1547, 0.7867150
816.6368, 1.104769
817.1189, 1.195467
817.6010, 1.104782
818.0831, 1.062038
818.5652, 1.162952
819.0474, 1.258038
819.5295, 1.033659
820.0116, 0.5764730
820.4937, 0.8471110
820.9758, 2.039173
821.4579, 2.738838
821.9401, 2.269728
822.4222, 1.552683
822.9043, 1.648869
823.3864, 2.511593
823.8685, 2.885599
824.3506, 2.325249
824.8328, 1.923271
825.3149, 2.011389
825.7970, 2.161932
826.2791, 2.025858
826.7612, 1.702908
827.2433, 1.496660
827.7255, 1.559311
828.2076, 1.639643
828.6897, 1.424671
829.1718, 1.172163
829.6539, 1.362543
830.1360, 1.858267
830.6182, 2.010527
831.1003, 1.569292
831.5824, 1.146002
832.0645, 1.576448
832.5466, 2.739698
833.0287, 2.997486
833.5109, 1.930079
833.9930, 1.232912
834.4751, 1.490730
834.9572, 1.932785
835.4393, 1.918383
835.9214, 1.579418
836.4036, 1.269833
836.8857, 0.8378910
837.3678, 0.6755330
837.8499, 1.249485
838.3320, 1.781286
838.8141, 1.510147
839.2963, 0.8357090
839.7784, 0.5711560
840.2605, 0.9580860
840.7426, 1.527386
841.2247, 2.013231
841.7068, 2.324930
842.1890, 2.130585
842.6711, 1.545874
843.1532, 1.221699
843.6353, 1.327736
844.1174, 1.714375
844.5995, 2.337975
845.0817, 3.034174
845.5638, 3.105671
846.0459, 2.214666
846.5280, 1.655712
847.0101, 1.668535
847.4922, 1.805677
847.9744, 1.811752
848.4565, 1.801523
848.9386, 2.025303
849.4207, 2.573389
849.9028, 2.826557
850.3849, 2.220217
850.8671, 1.699753
851.3492, 1.974892
851.8313, 2.567921
852.3134, 2.900965
852.7955, 2.909519
853.2776, 2.792793
853.7598, 2.584202
854.2419, 2.358774
854.7240, 2.259350
855.2061, 2.243513
855.6882, 2.117319
856.1703, 1.860174
856.6525, 1.668558
857.1346, 1.673761
857.6167, 1.728024
858.0988, 1.513163
858.5809, 0.9396440
859.0630, 0.7205120
859.5452, 1.146248
860.0273, 1.407425
860.5094, 1.044838
860.9915, 0.5881790
861.4736, 0.4980770
861.9557, 0.7406650
862.4379, 1.064718
862.9200, 1.605572
863.4021, 1.969189
863.8842, 1.884445
864.3663, 1.676498
864.8484, 1.630199
865.3306, 1.702898
865.8127, 1.769350
866.2948, 1.780359
866.7769, 1.590595
867.2590, 0.7837370
867.7411, 0.2151170
868.2233, 0.4659810
868.7054, 4.3821000E-02
869.1875, 0.6997220
869.6696, 1.673599
870.1517, 2.247324
870.6339, 1.708183
871.1160, 0.4247000
871.5981, 7.6067001E-02
872.0802, 0.9737130
872.5623, 1.556965
873.0444, 1.570282
873.5266, 1.437977
874.0087, 1.304577
874.4908, 1.215788
874.9729, 1.280340
875.4550, 1.540945
875.9371, 1.707916
876.4193, 1.632902
876.9014, 1.587795
877.3835, 1.858694
877.8656, 2.100260
878.3477, 1.687630
878.8298, 0.8248480
879.3120, 0.5846290
879.7941, 1.743786
880.2762, 3.053308
880.7583, 3.270426
881.2404, 2.821657
881.7225, 2.300732
882.2047, 1.832914
882.6868, 1.729836
883.1689, 2.122572
883.6510, 2.419466
884.1331, 1.744875
884.6152, 0.2827260
885.0974, 0.5418800
885.5795, 0.6619490
886.0616, 0.4758300
886.5437, 1.8118000E-02
887.0258, 0.5275290
887.5079, 0.8304460
887.9901, 0.9382150
888.4722, 0.8863850
888.9543, 0.4563660
889.4364, 0.2864760
889.9185, 0.5285570
890.4006, 0.8575040
890.8828, 1.277681
891.3649, 1.631428
891.8470, 1.640583
892.3291, 1.302650
892.8112, 1.152340
893.2933, 1.683487
893.7755, 2.164753
894.2576, 2.042082
894.7397, 1.668278
895.2218, 1.472973
895.7039, 1.464090
896.1860, 1.428841
896.6682, 1.260624
897.1503, 1.110355
897.6324, 1.219748
898.1145, 1.189951
898.5966, 1.268663
899.0787, 1.443195
899.5609, 1.473335
900.0430, 1.762545
900.5251, 1.847713
901.0072, 1.181959
901.4893, 3.1155000E-02
901.9714, 0.1844880
902.4536, 0.9589390
902.9357, 1.427204
903.4178, 0.6101230
903.8999, 0.1152080
904.3820, 7.2936997E-02
904.8641, 0.7427180
905.3463, 1.170134
905.8284, 1.331142
906.3105, 1.457817
906.7926, 1.459665
907.2747, 1.564779
907.7568, 2.162497
908.2390, 2.635342
908.7211, 2.243401
909.2032, 1.250854
909.6853, 0.5469150
910.1674, 0.4524150
910.6495, 0.6681310
911.1317, 1.236172
911.6138, 1.825603
912.0959, 2.059351
912.5780, 1.999094
913.0601, 1.775787
913.5422, 1.461155
914.0244, 1.253721
914.5065, 1.394922
914.9886, 1.631947
915.4707, 1.221333
915.9528, 0.3423790
916.4349, 0.3380760
916.9171, 1.403875
917.3992, 2.081852
917.8813, 1.479933
918.3634, 0.4610820
918.8455, 0.5569630
919.3276, 1.865711
919.8098, 2.496248
920.2919, 2.092577
920.7740, 1.957092
921.2561, 2.734898
921.7382, 3.433126
922.2203, 3.009687
922.7025, 1.823946
923.1846, 1.309610
923.6667, 1.818747
924.1488, 2.221039
924.6309, 2.571775
925.1130, 2.639666
925.5952, 1.937836
926.0773, 1.078630
926.5594, 1.002823
927.0415, 1.646215
927.5236, 1.877829
928.0057, 0.8690130
928.4879, 0.1583290
928.9700, 0.3840100
929.4521, 0.2076510
929.9342, 6.0904998E-02
930.4163, 5.2648999E-02
930.8984, 0.3374820
931.3806, 0.8570190
931.8627, 1.299917
932.3448, 1.228119
932.8269, 0.9359210
933.3090, 1.167143
933.7911, 1.745810
934.2733, 1.822496
934.7554, 1.261274
935.2375, 0.7450450
935.7196, 0.7302740
936.2017, 1.059925
936.6838, 1.489756
937.1660, 2.042408
937.6481, 2.192579
938.1302, 1.823515
938.6123, 1.600737
939.0944, 1.857916
939.5765, 2.082232
940.0587, 1.640392
940.5408, 0.6850360
941.0229, 0.4049590
941.5050, 1.408705
941.9871, 1.783670
942.4692, 0.7848090
942.9514, 9.7194999E-02
943.4335, 0.1691400
943.9156, 0.2149750
944.3977, 0.7149090
944.8798, 1.266960
945.3619, 1.509199
945.8441, 1.163120
946.3262, 0.7584250
946.8083, 0.4249310
947.2904, 0.1577210
947.7725, 7.3913999E-02
948.2546, 0.2434900
948.7368, 0.3279720
949.2189, 0.3178220
949.7010, 6.6892996E-02
950.1831, 0.8292480
950.6652, 1.733747
951.1473, 1.946465
951.6295, 1.717060
952.1116, 1.436428
952.5937, 1.211807
953.0758, 1.067169
953.5579, 1.020477
954.0400, 1.026041
954.5222, 1.011292
955.0043, 0.9934840
955.4864, 1.078976
955.9685, 1.235170
956.4506, 1.144882
956.9327, 0.7149180
957.4149, 0.3854010
957.8970, 0.5773180
958.3791, 1.098284
958.8612, 1.325153
959.3433, 1.223728
959.8254, 1.351490
960.3076, 1.870142
960.7897, 2.163624
961.2718, 1.904690
961.7539, 1.435930
962.2360, 1.203255
962.7181, 1.190481
963.2003, 1.246155
963.6824, 1.519722
964.1645, 1.664740
964.6466, 1.594790
965.1287, 1.405134
965.6108, 0.8328900
966.0930, 0.2854190
966.5751, 0.5746310
967.0572, 1.852123
967.5393, 2.424475
968.0214, 1.362865
968.5035, 0.5835080
968.9857, 0.9373230
969.4678, 1.460859
969.9499, 1.362627
970.4320, 0.8515850
970.9141, 0.4526730
971.3962, 0.2634260
971.8784, 0.4202880
972.3605, 1.483612
972.8426, 2.379358
973.3247, 2.120426
973.8068, 1.408697
974.2889, 1.089508
974.7711, 1.240351
975.2532, 1.636288
975.7353, 2.234955
976.2174, 2.623957
976.6995, 2.103100
977.1816, 1.374304
977.6638, 1.658609
978.1459, 2.523632
978.6280, 2.710375
979.1101, 2.030891
979.5922, 1.324923
980.0743, 1.216942
980.5565, 1.305616
981.0386, 0.9503960
981.5207, 0.3102860
982.0028, 0.1089210
982.4849, 0.2622300
982.9670, 7.5497001E-02
983.4492, 0.9859920
983.9313, 1.676569
984.4134, 1.300116
984.8955, 0.3032460
985.3776, 0.2388250
985.8597, 1.148710
986.3419, 1.549551
986.8240, 1.257013
987.3061, 0.9339890
987.7882, 0.8404850
988.2703, 0.8660890
988.7524, 0.8917220
989.2346, 0.9089660
989.7167, 0.8426880
990.1988, 0.6507000
990.6809, 0.4905830
991.1630, 0.3103050
991.6451, 0.3023170
992.1273, 0.7001270
992.6094, 1.203775
993.0915, 1.337683
993.5736, 1.077103
994.0557, 0.9147380
994.5378, 0.8605380
995.0200, 0.8939630
995.5021, 1.083046
995.9842, 1.284410
996.4663, 1.604780
996.9484, 1.809929
997.4305, 1.335222
997.9127, 4.6200000E-02
998.3948, 0.5967880
998.8769, 0.2900140
999.3590, 0.9870280
999.8411, 0.7869420
1000.323, 0.3666020
1000.805, 0.1502020
1001.287, 0.1515050
1001.770, 0.3914170
1002.252, 0.8791480
1002.734, 1.114376
1003.216, 0.5161900
1003.698, 4.1584000E-02
1004.180, 0.5223350
1004.662, 1.219561
1005.144, 1.281851
1005.627, 0.8161960
1006.109, 0.3052710
1006.591, 9.6230000E-02
1007.073, 0.1171490
1007.555, 0.9581830
1008.037, 2.012978
1008.519, 1.771046
1009.001, 0.8606550
1009.483, 0.1784730
1009.966, 0.1199800
1010.448, 9.5637999E-02
1010.930, 0.2359640
1011.412, 0.6357230
1011.894, 0.8833160
1012.376, 1.031647
1012.858, 1.069220
1013.340, 1.098009
1013.823, 1.542048
1014.305, 2.327082
1014.787, 2.657721
1015.269, 2.057585
1015.751, 1.106916
1016.233, 0.4719030
1016.715, 0.1430930
1017.197, 0.1709120
1017.679, 0.4940850
1018.162, 0.9040570
1018.644, 1.327312
1019.126, 1.512789
1019.608, 1.287397
1020.090, 0.7799970
1020.572, 2.3099999E-03
1021.054, 0.9245320
1021.536, 0.8869480
1022.018, 7.9204999E-02
1022.501, 0.8718380
1022.983, 1.230028
1023.465, 1.290461
1023.947, 1.117390
1024.429, 0.8484670
1024.911, 0.7914580
1025.393, 0.9518850
1025.875, 1.095516
1026.358, 1.247128
1026.840, 1.119766
1027.322, 0.5623610
1027.804, 6.4268000E-02
1028.286, 1.7881000E-02
1028.768, 0.2737830
1029.250, 0.4482990
1029.732, 0.5094590
1030.214, 0.7754120
1030.697, 1.375425
1031.179, 1.708735
1031.661, 1.532949
1032.143, 1.252380
1032.625, 1.196604
1033.107, 1.262611
1033.589, 1.145334
1034.071, 0.7807480
1034.553, 0.5202580
1035.036, 0.3755210
1035.518, 0.3154110
1036.000, 0.4147000
1036.482, 0.4599360
1036.964, 0.1143400
1037.446, 0.3458420
1037.928, 9.4600003E-03
1038.410, 1.603071
1038.893, 2.312246
1039.375, 1.475822
1039.857, 0.7397140
1040.339, 0.3861480
1040.821, 0.4129520
1041.303, 1.094513
1041.785, 2.075397
1042.267, 2.224350
1042.750, 1.050184
1043.232, 0.6839900
1043.714, 1.859076
1044.196, 2.880943
1044.678, 3.539347
1045.160, 3.755209
1045.642, 3.122835
1046.124, 2.072424
1046.606, 1.685801
1047.089, 2.233019
1047.571, 2.553596
1048.053, 2.133003
1048.535, 2.003506
1049.017, 2.709236
1049.499, 3.562212
1049.981, 4.162018
1050.463, 4.473896
1050.945, 4.393198
1051.428, 3.807076
1051.910, 3.502546
1052.392, 3.635674
1052.874, 4.059334
1053.356, 5.361364
1053.838, 6.345173
1054.320, 5.855148
1054.802, 4.433344
1055.285, 3.048435
1055.767, 1.784302
1056.249, 1.393343
1056.731, 3.098339
1057.213, 4.518330
1057.695, 4.501085
1058.177, 4.149902
1058.659, 4.526047
1059.141, 5.148470
1059.624, 4.712132
1060.106, 3.016003
1060.588, 2.085625
1061.070, 3.374504
1061.552, 4.463551
1062.034, 4.201786
1062.516, 3.570704
1062.998, 3.308075
1063.480, 3.243433
1063.963, 2.910961
1064.445, 2.258232
1064.927, 1.852856
1065.409, 2.002926
1065.891, 2.310139
1066.373, 2.760372
1066.855, 3.165773
1067.337, 3.241646
1067.820, 3.240591
1068.302, 3.693560
1068.784, 4.599350
1069.266, 5.180622
1069.748, 4.919672
1070.230, 4.677254
1070.712, 4.922739
1071.194, 5.236937
1071.677, 5.353010
1072.159, 5.306232
1072.641, 5.059565
1073.123, 4.703075
1073.605, 4.702150
1074.087, 5.311724
1074.569, 5.923933
1075.051, 6.509441
1075.533, 6.882969
1076.016, 6.654217
1076.498, 6.298151
1076.980, 6.564320
1077.462, 7.333481
1077.944, 7.729132
1078.426, 7.308811
1078.908, 6.975336
1079.390, 7.490131
1079.873, 8.059299
1080.355, 8.023825
1080.837, 7.725704
1081.319, 7.613523
1081.801, 7.584213
1082.283, 7.169884
1082.765, 6.104401
1083.247, 5.536867
1083.729, 6.452656
1084.212, 7.458719
1084.694, 7.808544
1085.176, 7.793188
1085.658, 7.727749
1086.140, 7.578508
1086.622, 7.064394
1087.104, 6.090210
1087.586, 5.473227
1088.068, 5.761061
1088.551, 6.229450
1089.033, 6.854504
1089.515, 7.198549
1089.997, 6.667141
1090.479, 5.657049
1090.961, 4.845819
1091.443, 4.372854
1091.925, 4.276850
1092.408, 5.062223
1092.890, 5.560013
1093.372, 5.009884
1093.854, 4.299173
1094.336, 4.153603
1094.818, 4.328463
1095.300, 4.539410
1095.782, 4.696781
1096.265, 4.299755
1096.747, 2.616428
1097.229, 1.518530
1097.711, 2.108137
1098.193, 2.918015
1098.675, 3.183937
1099.157, 3.128609
1099.639, 2.977871
1100.121, 2.794910
1100.604, 2.704355
1101.086, 2.769829
1101.568, 2.810360
1102.050, 3.029791
1102.532, 2.900194
1103.014, 1.721888
1103.496, 0.4956650
1103.978, 0.1666110
1104.460, 0.5249750
1104.943, 0.9416540
1105.425, 1.389427
1105.907, 1.538906
1106.389, 1.022675
1106.871, 0.6262250
1107.353, 0.6386360
1107.835, 0.7828460
1108.317, 0.8779320
1108.800, 0.9658970
1109.282, 1.199488
1109.764, 1.603191
1110.246, 1.708651
1110.728, 1.201973
1111.210, 0.8424700
1111.692, 0.7957630
1112.174, 0.7969260
1112.656, 0.7660980
1113.139, 0.6766340
1113.621, 0.4260600
1114.103, 5.2749999E-02
1114.585, 4.4312999E-02
1115.067, 0.3631710
1115.549, 0.4864070
1116.031, 1.6000001E-02
1116.513, 0.3022410
1116.995, 7.7981003E-02
1117.478, 0.5765260
1117.960, 0.7410940
1118.442, 0.6373550
1118.924, 0.4556800
1119.406, 0.1331560
1119.888, 1.6353000E-02
1120.370, 4.5382001E-02
1120.852, 0.2117120
1121.335, 0.5351330
1121.817, 0.8261630
1122.299, 0.9538040
1122.781, 0.9825360
1123.263, 1.055068
1123.745, 1.178660
1124.227, 0.9664750
1124.709, 0.1871830
1125.192, 5.2180000E-02
1125.674, 0.5833680
1126.156, 1.153423
1126.638, 1.199024
1127.120, 1.045734
1127.602, 1.087534
1128.084, 1.259949
1128.566, 1.226464
1129.048, 0.9613850
1129.531, 0.7472030
1130.013, 0.6168530
1130.495, 0.2508890
1130.977, 0.5562890
1131.459, 0.8180970
1131.941, 0.4264460
1132.423, 2.248065
1132.905, 2.418937
1133.387, 1.085152
1133.870, 0.6023290
1134.352, 0.9370820
1134.834, 1.148938
1135.316, 1.057951
1135.798, 1.236320
1136.280, 2.029579
1136.762, 2.673880
1137.244, 2.039379
1137.727, 0.6301980
1138.209, 0.1601540
1138.691, 0.3824980
1139.173, 6.9922999E-02
1139.655, 0.6500060
1140.137, 1.092189
1140.619, 1.015807
1141.101, 0.8419130
1141.583, 0.9054520
1142.066, 1.083495
1142.548, 1.273888
1143.030, 1.394396
1143.512, 1.160268
1143.994, 0.7243930
1144.476, 0.5461280
1144.958, 0.6634640
1145.440, 0.7550850
1145.922, 0.6543860
1146.405, 0.5830030
1146.887, 0.6682230
1147.369, 0.9691790
1147.851, 1.943662
1148.333, 2.998316
1148.815, 3.221407
1149.297, 2.694588
1149.779, 1.655105
1150.262, 0.2861370
1150.744, 0.4234470
1151.226, 0.5938850
1151.708, 1.602202
1152.190, 1.260724
1152.672, 0.6636960
1153.154, 0.6966490
1153.636, 1.104110
1154.119, 1.539384
1154.601, 1.894680
1155.083, 2.020374
1155.565, 1.842741
1156.047, 1.552598
1156.529, 0.9645370
1157.011, 0.5951160
1157.493, 0.8477840
1157.975, 1.248070
1158.458, 1.453862
1158.940, 1.484525
1159.422, 1.403720
1159.904, 1.206466
1160.386, 1.070394
1160.868, 1.056232
1161.350, 1.034767
1161.832, 0.8608630
1162.314, 0.8570150
1162.797, 1.428530
1163.279, 1.958599
1163.761, 1.670859
1164.243, 0.7847700
1164.725, 0.3160440
1165.207, 0.2781310
1165.689, 0.6927550
1166.171, 1.959395
1166.654, 2.412032
1167.136, 1.406204
1167.618, 0.2191310
1168.100, 0.3762460
1168.582, 0.4226570
1169.064, 0.1193900
1169.546, 1.171413
1170.028, 1.900856
1170.510, 2.297085
1170.993, 1.805704
1171.475, 0.3473900
1171.957, 0.3710490
1172.439, 0.3090310
1172.921, 1.292679
1173.403, 1.596572
1173.885, 1.509123
1174.367, 1.627846
1174.849, 1.865305
1175.332, 1.644633
1175.814, 1.873463
1176.296, 1.222443
1176.778, 1.903260
1177.260, 2.299768
1177.742, 1.994519
1178.224, 1.553745
1178.706, 1.560715
1179.189, 1.685931
1179.671, 1.515429
1180.153, 1.166132
1180.635, 0.6422180
1181.117, 0.1595290
1181.599, 0.2872640
1182.081, 0.9947030
1182.563, 1.428521
1183.046, 1.096474
1183.528, 0.7387210
1184.010, 0.7822410
1184.492, 0.9413170
1184.974, 1.130487
1185.456, 1.250160
1185.938, 1.103644
1186.420, 0.8394270
1186.902, 0.8216870
1187.385, 1.117071
1187.867, 1.446403
1188.349, 2.044159
1188.831, 2.198950
1189.313, 1.244519
1189.795, 0.5788960
1190.277, 1.176963
1190.759, 1.990553
1191.241, 1.857143
1191.724, 1.066060
1192.206, 0.7737760
1192.688, 1.113993
1193.170, 1.420911
1193.652, 1.821429
1194.134, 1.706239
1194.616, 0.7274350
1195.098, 2.8255001E-02
1195.581, 0.3478510
1196.063, 0.9460720
1196.545, 0.7819110
1197.027, 0.1151820
1197.509, 9.6262999E-02
1197.991, 0.1223950
1198.473, 0.6391760
1198.955, 1.387883
1199.438, 1.564235
1199.920, 0.9950340
1200.402, 0.5105730
1200.884, 0.6693300
1201.366, 1.113592
1201.848, 1.554256
1202.330, 1.826980
1202.812, 1.491350
1203.294, 0.8084090
1203.776, 8.9902997E-02
1204.259, 0.4334660
1204.741, 0.2298770
1205.223, 0.7685420
1205.705, 1.930315
1206.187, 3.139168
1206.669, 3.770035
1207.151, 2.785364
1207.633, 1.712132
1208.116, 2.063772
1208.598, 2.731556
1209.080, 2.273035
1209.562, 1.068962
1210.044, 0.5165120
1210.526, 0.8968890
1211.008, 1.385286
1211.490, 2.147612
1211.973, 2.516922
1212.455, 2.093149
1212.937, 1.599758
1213.419, 1.255363
1213.901, 1.081198
1214.383, 1.144484
1214.865, 1.385958
1215.347, 1.578156
1215.829, 1.707184
1216.312, 1.576340
1216.794, 1.077423
1217.276, 0.9144440
1217.758, 1.264662
1218.240, 1.579660
1218.722, 1.577642
1219.204, 1.569136
1219.686, 1.969641
1220.168, 1.696274
1220.651, 2.184668
1221.133, 1.308846
1221.615, 0.6503110
1222.097, 0.2775080
1222.579, 0.3882140
1223.061, 0.9240700
1223.543, 1.487459
1224.025, 1.884361
1224.508, 1.867273
1224.990, 0.8404080
1225.472, 0.2347160
1225.954, 0.2999080
1226.436, 2.4750000E-02
1226.918, 2.7889000E-02
1227.400, 0.1101150
1227.882, 5.7650000E-02
1228.365, 0.5391180
1228.847, 1.110195
1229.329, 1.792429
1229.811, 2.032558
1230.293, 1.037317
1230.775, 0.3460060
1231.257, 0.6630550
1231.739, 1.219292
1232.221, 1.802431
1232.703, 2.129316
1233.186, 1.645824
1233.668, 0.5382600
1234.150, 0.1646400
1234.632, 0.7711870
1235.114, 1.172907
1235.596, 1.383162
1236.078, 1.204704
1236.560, 0.4789710
1237.043, 0.1946980
1237.525, 0.9821210
1238.007, 2.048294
1238.489, 2.366442
1238.971, 2.192156
1239.453, 2.301537
1239.935, 2.516094
1240.417, 2.016644
1240.900, 1.039793
1241.382, 0.6448380
1241.864, 0.9371740
1242.346, 1.502525
1242.828, 2.133221
1243.310, 2.414227
1243.792, 1.597528
1244.274, 0.8249360
1244.756, 1.151543
1245.239, 1.757540
1245.721, 2.044964
1246.203, 2.162550
1246.685, 2.461304
1247.167, 2.376680
1247.649, 2.844042
1248.131, 2.088238
1248.613, 1.493141
1249.095, 1.176207
1249.578, 1.013329
1250.060, 1.058519
1250.542, 1.128674
1251.024, 1.099640
1251.506, 1.103340
1251.988, 1.305103
1252.470, 1.529287
1252.952, 2.003336
1253.435, 2.325216
1253.917, 2.831425
1254.399, 2.775818
1254.881, 3.422865
1255.363, 2.500151
1255.845, 1.536438
1256.327, 0.9698030
1256.809, 0.8211570
1257.292, 1.174353
1257.774, 1.684652
1258.256, 1.851421
1258.738, 1.880131
1259.220, 2.150581
1259.702, 2.487093
1260.184, 2.563131
1260.666, 2.417532
1261.148, 2.224831
1261.630, 2.018795
1262.113, 1.784424
1262.595, 1.294374
1263.077, 1.055634
1263.559, 1.374546
1264.041, 1.772743
1264.523, 2.182825
1265.005, 2.421494
1265.487, 2.292351
1265.970, 1.906681
1266.452, 1.422848
1266.934, 0.8272270
1267.416, 1.100248
1267.898, 2.475195
1268.380, 2.813328
1268.862, 1.855196
1269.344, 0.7898060
1269.827, 6.7710001E-03
1270.309, 1.5804000E-02
1270.791, 1.243769
1271.273, 2.529753
1271.755, 1.623083
1272.237, 0.1257710
1272.719, 0.2870410
1273.201, 0.5781290
1273.683, 1.959040
1274.166, 3.317421
1274.648, 3.428877
1275.130, 2.391115
1275.612, 2.083893
1276.094, 3.568382
1276.576, 4.212915
1277.058, 1.903690
1277.540, 4.3327000E-02
1278.022, 0.1312980
1278.505, 0.8302880
1278.987, 1.697975
1279.469, 2.025873
1279.951, 1.977951
1280.433, 1.461847
1280.915, 1.396568
1281.397, 1.880840
1281.879, 1.921795
1282.362, 1.594364
1282.844, 1.451675
1283.326, 1.517691
1283.808, 1.339245
1284.290, 0.7743230
1284.772, 0.2201770
1285.254, 5.3619999E-03
1285.736, 0.0000000E+00
##END=



