##NAMES=Senaite
##RRUFFID=R060644
##IDEAL CHEMISTRY=Pb^2+^(Mn^2+^,Y^3+^,U^6+^)(Fe^2+^,Zn^2+^)_2_(Ti^4+^,Fe^3+^,Cr^3+^,V^5+^)_18_(O,OH)_38_
##LOCALITY=Fazenda Guariba, Minas Gerais, Brazil
##OWNER=RRUFF
##SOURCE=Michael Scott
##DESCRIPTION=Black submetallic rounded grains on quartz with associated rutile
##STATUS=The identification of this mineral has been confirmed only by single crystal X-ray diffraction.
##URL=rruff.info/R060644
219.3208, 0.0000000E+00
219.8029, 0.7795720
220.2850, 0.3071900
220.7671, 6.3689999E-02
221.2492, 1.834167
221.7314, 2.487518
222.2135, 1.981903
222.6956, 0.3225100
223.1777, 0.4824520
223.6598, 0.2356570
224.1419, 1.294434
224.6240, 1.788666
225.1062, 1.681763
225.5883, 1.527740
226.0704, 1.801453
226.5525, 2.448364
227.0346, 2.945892
227.5167, 2.888031
227.9989, 2.900208
228.4810, 3.780121
228.9631, 5.594116
229.4452, 7.255646
229.9273, 7.845001
230.4094, 7.651550
230.8916, 7.490723
231.3737, 7.159607
231.8558, 7.103180
232.3379, 8.088257
232.8200, 10.28925
233.3021, 12.30048
233.7843, 12.94223
234.2664, 12.85574
234.7485, 12.95377
235.2306, 13.33951
235.7127, 14.11142
236.1948, 15.60605
236.6770, 18.06204
237.1591, 20.26437
237.6412, 21.25906
238.1233, 21.75476
238.6054, 22.54410
239.0875, 23.99725
239.5697, 25.66528
240.0518, 26.70090
240.5339, 26.80579
241.0160, 27.25562
241.4981, 29.03641
241.9802, 31.19006
242.4624, 32.83130
242.9445, 33.66031
243.4266, 33.86697
243.9087, 33.56281
244.3908, 32.29498
244.8729, 31.77954
245.3550, 33.42596
245.8372, 35.49539
246.3193, 36.40164
246.8014, 35.56805
247.2835, 33.86551
247.7656, 32.85617
248.2477, 33.07404
248.7299, 32.69019
249.2120, 30.75061
249.6941, 28.53909
250.1762, 27.12149
250.6583, 26.80505
251.1404, 26.98709
251.6226, 26.59030
252.1047, 25.17294
252.5868, 24.20377
253.0689, 24.34796
253.5510, 24.57230
254.0331, 24.04529
254.5153, 22.59943
254.9974, 20.78018
255.4795, 19.41907
255.9616, 18.79694
256.4437, 18.05725
256.9258, 16.81989
257.4080, 15.73471
257.8901, 15.38785
258.3722, 15.81027
258.8543, 16.43063
259.3364, 16.49509
259.8185, 15.83525
260.3007, 15.00171
260.7828, 13.47104
261.2649, 12.18544
261.7470, 11.86530
262.2291, 12.45706
262.7112, 13.37926
263.1934, 13.84673
263.6755, 13.77667
264.1576, 13.89986
264.6397, 14.27725
265.1218, 14.41330
265.6039, 13.50565
266.0861, 11.83630
266.5682, 10.66867
267.0503, 11.16162
267.5324, 13.99509
268.0145, 15.73497
268.4966, 15.72968
268.9788, 15.27589
269.4609, 14.66138
269.9430, 14.03613
270.4251, 13.73332
270.9072, 14.25940
271.3893, 15.57373
271.8715, 16.37228
272.3536, 16.15633
272.8357, 16.21518
273.3178, 17.00194
273.7999, 18.31197
274.2820, 19.43744
274.7642, 19.83942
275.2463, 19.58330
275.7284, 19.39832
276.2105, 19.30348
276.6926, 19.23114
277.1747, 19.13072
277.6568, 19.02647
278.1389, 19.20398
278.6211, 19.89850
279.1032, 20.90305
279.5853, 21.22992
280.0674, 20.20593
280.5495, 19.42650
281.0316, 19.50510
281.5138, 20.10100
281.9959, 20.49904
282.4780, 20.40385
282.9601, 19.93469
283.4422, 19.34689
283.9243, 18.35611
284.4065, 17.76884
284.8886, 17.94554
285.3707, 18.57498
285.8528, 19.34966
286.3349, 20.22594
286.8170, 20.86348
287.2992, 20.54506
287.7813, 18.96758
288.2634, 17.58125
288.7455, 16.74748
289.2276, 16.17686
289.7097, 15.53189
290.1919, 14.73367
290.6740, 13.91594
291.1561, 13.27390
291.6382, 12.85898
292.1203, 12.19203
292.6024, 10.81523
293.0846, 9.392944
293.5667, 8.719223
294.0488, 8.878265
294.5309, 9.107101
295.0130, 8.667419
295.4951, 7.535110
295.9773, 6.577393
296.4594, 5.826370
296.9415, 5.265610
297.4236, 4.933197
297.9057, 4.814590
298.3878, 4.755768
298.8700, 4.676849
299.3521, 4.567871
299.8342, 4.394455
300.3163, 3.937149
300.7984, 3.617706
301.2805, 3.955521
301.7627, 4.750534
302.2448, 5.010895
302.7269, 4.011810
303.2090, 2.264450
303.6911, 1.350952
304.1732, 1.753082
304.6554, 2.102722
305.1375, 1.625320
305.6196, 0.6238860
306.1017, 8.2336001E-02
306.5838, 0.1145940
307.0659, 0.1592560
307.5481, 7.5119004E-02
308.0302, 1.051727
308.5123, 1.577271
308.9944, 0.7980040
309.4765, 0.5899050
309.9586, 1.346298
310.4408, 1.101334
310.9229, 0.4133910
311.4050, 2.5955001E-02
311.8871, 0.2214660
312.3692, 0.4030910
312.8513, 0.8162080
313.3335, 1.140472
313.8156, 0.8040160
314.2977, 0.3074040
314.7798, 1.299744
315.2619, 1.149902
315.7440, 4.6280000E-02
316.2262, 0.6473850
316.7083, 2.7481001E-02
317.1904, 0.9521790
317.6725, 1.255753
318.1546, 0.9410550
318.6367, 0.5295100
319.1188, 0.3205570
319.6010, 0.3064880
320.0831, 0.3596800
320.5652, 0.7447200
321.0473, 0.9359280
321.5294, 0.4494630
322.0115, 0.5242160
322.4937, 1.324844
322.9758, 1.661911
323.4579, 1.603668
323.9400, 1.260925
324.4221, 0.4037480
324.9042, 0.1904910
325.3864, 3.7369002E-02
325.8685, 0.6675870
326.3506, 0.8607640
326.8327, 0.2996980
327.3148, 0.5486450
327.7969, 0.9373020
328.2791, 0.7985990
328.7612, 0.7389530
329.2433, 0.9312900
329.7254, 1.225815
330.2075, 1.442383
330.6896, 1.548798
331.1718, 1.647095
331.6539, 1.832352
332.1360, 2.117889
332.6181, 2.454895
333.1002, 2.901520
333.5823, 3.340652
334.0645, 3.750275
334.5466, 4.108841
335.0287, 4.284348
335.5108, 4.145386
335.9929, 3.733749
336.4750, 3.422562
336.9572, 2.971634
337.4393, 2.837769
337.9214, 3.451981
338.4035, 4.542679
338.8856, 5.444122
339.3677, 5.824860
339.8499, 5.863388
340.3320, 6.048203
340.8141, 6.436798
341.2962, 6.858917
341.7783, 7.360077
342.2604, 7.838715
342.7426, 8.149628
343.2247, 8.252365
343.7068, 8.256042
344.1889, 8.323868
344.6710, 8.554108
345.1531, 8.517258
345.6353, 8.106262
346.1174, 7.497009
346.5995, 6.784866
347.0816, 6.000381
347.5637, 5.132034
348.0458, 4.124756
348.5280, 2.949524
349.0101, 2.283340
349.4922, 2.266846
349.9743, 2.518188
350.4564, 3.175964
350.9385, 3.985184
351.4207, 4.339157
351.9028, 3.821030
352.3849, 2.714523
352.8670, 2.241028
353.3491, 3.316895
353.8312, 3.887878
354.3134, 3.266098
354.7955, 2.184998
355.2776, 1.514008
355.7597, 1.553986
356.2418, 1.966904
356.7239, 2.180984
357.2061, 2.071213
357.6882, 2.003647
358.1703, 2.029388
358.6524, 2.052109
359.1345, 1.959076
359.6166, 1.773895
360.0987, 1.650528
360.5808, 1.737198
361.0630, 2.046906
361.5451, 2.412231
362.0272, 3.130585
362.5093, 3.613647
362.9914, 3.506729
363.4735, 3.016922
363.9557, 2.534882
364.4378, 2.315414
364.9199, 2.338943
365.4020, 2.419357
365.8841, 2.605835
366.3662, 2.687607
366.8484, 2.596497
367.3305, 2.553360
367.8126, 2.673492
368.2947, 3.009018
368.7768, 3.532516
369.2589, 4.288712
369.7411, 5.529114
370.2232, 6.304504
370.7053, 6.441086
371.1874, 6.242508
371.6695, 5.782944
372.1516, 5.180511
372.6338, 4.543198
373.1159, 3.951874
373.5980, 3.388794
374.0801, 3.048553
374.5622, 3.264771
375.0443, 3.462067
375.5265, 3.320053
376.0086, 3.041611
376.4907, 2.966156
376.9728, 3.288696
377.4549, 3.852249
377.9370, 4.277878
378.4192, 4.469208
378.9013, 4.813141
379.3834, 5.948273
379.8655, 6.901382
380.3476, 6.725922
380.8297, 5.280060
381.3119, 3.658905
381.7940, 3.093918
382.2761, 3.590027
382.7582, 3.715042
383.2403, 2.864243
383.7224, 1.982925
384.2046, 1.893707
384.6867, 2.433548
385.1688, 2.822159
385.6509, 2.370728
386.1330, 1.481430
386.6151, 1.112030
387.0973, 1.368423
387.5794, 1.797623
388.0615, 2.371994
388.5436, 2.883698
389.0257, 2.926682
389.5078, 2.100449
389.9900, 1.373413
390.4721, 1.878616
390.9542, 3.424927
391.4363, 4.440857
391.9184, 4.273788
392.4005, 3.511414
392.8827, 2.914734
393.3648, 2.471298
393.8469, 2.209213
394.3290, 2.376312
394.8111, 2.659729
395.2932, 2.410172
395.7754, 1.468430
396.2575, 0.7261050
396.7396, 1.209412
397.2217, 2.763901
397.7038, 3.501343
398.1859, 2.425690
398.6681, 1.291962
399.1501, 1.337250
399.6323, 2.356979
400.1144, 3.545883
400.5965, 4.598541
401.0786, 5.397583
401.5607, 5.522659
402.0428, 4.317932
402.5250, 3.699799
403.0071, 4.702072
403.4892, 6.137726
403.9713, 6.433960
404.4534, 5.297470
404.9355, 3.897369
405.4177, 3.629913
405.8998, 4.786743
406.3819, 5.714493
406.8640, 6.730850
407.3461, 7.250458
407.8282, 6.557922
408.3104, 5.117081
408.7925, 4.061157
409.2746, 4.112091
409.7567, 5.031036
410.2388, 5.729797
410.7209, 6.065811
411.2031, 6.358078
411.6852, 6.779282
412.1673, 7.083160
412.6494, 6.979691
413.1315, 6.420639
413.6136, 5.664459
414.0958, 4.954987
414.5779, 4.145203
415.0600, 3.959518
415.5421, 5.129501
416.0242, 6.259369
416.5063, 6.794022
416.9885, 6.846771
417.4706, 6.789230
417.9527, 6.860809
418.4348, 6.997910
418.9169, 6.964752
419.3990, 6.702408
419.8812, 6.401123
420.3633, 6.262421
420.8454, 6.037827
421.3275, 5.334167
421.8096, 4.037003
422.2917, 2.876160
422.7739, 2.821243
423.2560, 3.801773
423.7381, 4.279221
424.2202, 3.662552
424.7023, 2.994156
425.1844, 3.231049
425.6666, 4.123520
426.1487, 4.759186
426.6308, 4.628769
427.1129, 4.082657
427.5950, 3.606613
428.0771, 3.200699
428.5593, 2.796021
429.0414, 2.231003
429.5235, 1.727600
430.0056, 1.768814
430.4877, 2.658737
430.9698, 3.400635
431.4520, 3.310867
431.9341, 2.759750
432.4162, 2.559860
432.8983, 2.955856
433.3804, 3.405334
433.8625, 3.218323
434.3447, 2.280182
434.8268, 1.634537
435.3089, 1.534775
435.7910, 1.550415
436.2731, 1.400482
436.7552, 1.115738
437.2374, 0.8496860
437.7195, 0.6711730
438.2016, 0.5907750
438.6837, 0.6678770
439.1658, 1.190475
439.6479, 1.495407
440.1301, 1.335663
440.6122, 1.058868
441.0943, 1.012238
441.5764, 1.253845
442.0585, 1.592514
442.5406, 1.842056
443.0227, 2.034409
443.5049, 1.899353
443.9870, 1.097870
444.4691, 0.3162990
444.9512, 0.3787990
445.4333, 0.8765410
445.9154, 1.037567
446.3976, 0.7806400
446.8797, 0.1765140
447.3618, 0.7408600
447.8439, 2.240509
448.3260, 3.246735
448.8081, 3.283173
449.2903, 2.966202
449.7724, 2.607986
450.2545, 2.244888
450.7366, 1.813553
451.2187, 1.199539
451.7008, 0.5339050
452.1830, 8.9340001E-02
452.6651, 0.2552800
453.1472, 0.4980470
453.6293, 0.5411220
454.1114, 0.4840090
454.5935, 0.4789120
455.0757, 0.6248630
455.5578, 0.6876680
456.0399, 0.3495330
456.5220, 0.2706760
457.0041, 0.5859380
457.4862, 0.2915650
457.9684, 6.0577001E-02
458.4505, 0.4875340
458.9326, 1.943741
459.4147, 2.806381
459.8968, 2.180466
460.3789, 1.306183
460.8611, 1.422867
461.3432, 2.405334
461.8253, 3.238861
462.3074, 3.311172
462.7895, 2.753815
463.2716, 2.099091
463.7538, 0.7344360
464.2359, 7.8856997E-02
464.7180, 0.8735500
465.2001, 2.152451
465.6822, 2.853134
466.1643, 2.785568
466.6465, 2.540054
467.1286, 2.792633
467.6107, 3.625549
468.0928, 4.282654
468.5749, 4.792847
469.0570, 5.049103
469.5392, 4.842438
470.0213, 4.399673
470.5034, 4.045898
470.9855, 3.923553
471.4676, 3.931519
471.9497, 3.839386
472.4319, 3.554581
472.9140, 3.599655
473.3961, 4.460739
473.8782, 5.321381
474.3603, 5.768707
474.8424, 5.807938
475.3246, 5.588333
475.8067, 4.969543
476.2888, 4.229507
476.7709, 4.077271
477.2530, 4.626602
477.7351, 5.067169
478.2173, 4.995117
478.6994, 4.592316
479.1815, 4.095505
479.6636, 3.412857
480.1457, 3.005875
480.6278, 3.308296
481.1100, 4.000862
481.5920, 4.587189
482.0742, 4.990623
482.5563, 5.028625
483.0384, 4.416847
483.5205, 3.171982
484.0026, 2.330849
484.4847, 2.098618
484.9669, 2.019096
485.4490, 1.971146
485.9311, 1.933800
486.4132, 1.838890
486.8953, 1.662247
487.3774, 1.560898
487.8596, 1.828262
488.3417, 2.708878
488.8238, 3.301346
489.3059, 3.419159
489.7880, 3.471077
490.2701, 3.599136
490.7523, 3.828644
491.2344, 4.207214
491.7165, 4.808922
492.1986, 5.440376
492.6807, 5.562523
493.1628, 5.065041
493.6450, 4.372368
494.1271, 3.044037
494.6092, 1.937302
495.0913, 1.861267
495.5734, 2.745712
496.0555, 3.561562
496.5377, 3.434250
497.0198, 2.712616
497.5019, 2.379616
497.9840, 2.531815
498.4661, 2.686699
498.9482, 2.471756
499.4304, 2.140007
499.9125, 2.222641
500.3946, 2.979698
500.8767, 3.575996
501.3588, 3.405914
501.8409, 2.844254
502.3231, 2.630318
502.8052, 2.909004
503.2873, 3.160347
503.7694, 2.888275
504.2515, 2.089241
504.7336, 1.487473
505.2158, 1.065063
505.6979, 0.7958830
506.1800, 0.7095790
506.6621, 0.7517470
507.1442, 0.9621660
507.6263, 1.331100
508.1085, 1.531158
508.5906, 0.8968580
509.0727, 1.123558
509.5548, 1.985168
510.0369, 0.6260300
510.5190, 0.8276600
511.0012, 1.575706
511.4833, 1.841080
511.9654, 2.228905
512.4475, 3.127304
512.9296, 3.974625
513.4117, 3.556145
513.8939, 1.668175
514.3760, 0.2510990
514.8581, 0.1876600
515.3402, 0.1210940
515.8223, 0.2030030
516.3044, 0.7237240
516.7866, 1.022690
517.2687, 0.6844790
517.7508, 0.1579060
518.2329, 8.6708002E-02
518.7150, 0.4468230
519.1971, 0.7332760
519.6793, 0.6811140
520.1614, 0.4348070
520.6435, 0.3453520
521.1256, 0.5073390
521.6077, 0.5060580
522.0898, 7.5255997E-02
522.5720, 0.3977970
523.0541, 0.5197140
523.5362, 0.3237380
524.0183, 0.1642000
524.5004, 0.3235630
524.9825, 0.6891710
525.4647, 0.6749800
525.9468, 2.6520001E-02
526.4289, 0.6894000
526.9110, 1.301697
527.3931, 1.819916
527.8752, 2.283333
528.3574, 2.649651
528.8395, 2.718719
529.3216, 2.164345
529.8037, 1.136162
530.2858, 0.5900570
530.7679, 0.7312550
531.2501, 0.8830570
531.7322, 0.6094670
532.2143, 0.2694470
532.6964, 0.2620390
533.1785, 0.6791380
533.6606, 1.195099
534.1428, 1.683243
534.6249, 2.102242
535.1070, 2.274208
535.5891, 2.146927
536.0712, 2.211868
536.5533, 3.049728
537.0355, 4.409279
537.5176, 4.776924
537.9997, 3.129463
538.4818, 1.835922
538.9639, 1.602837
539.4460, 2.069298
539.9282, 2.966194
540.4103, 4.152939
540.8924, 5.291946
541.3745, 6.022102
541.8566, 6.334549
542.3387, 6.530182
542.8209, 6.459160
543.3029, 6.448143
543.7850, 6.611412
544.2672, 6.844269
544.7493, 7.027969
545.2314, 7.131317
545.7135, 7.206291
546.1956, 7.321358
546.6777, 7.466080
547.1599, 7.491592
547.6420, 7.231171
548.1241, 7.188622
548.6062, 7.966103
549.0883, 9.110062
549.5704, 9.880234
550.0526, 10.03479
550.5347, 10.05482
551.0168, 10.18285
551.4989, 10.40446
551.9810, 10.74972
552.4631, 11.22885
552.9453, 11.61515
553.4274, 11.68822
553.9095, 11.44296
554.3916, 11.15115
554.8737, 10.54382
555.3558, 10.21484
555.8380, 10.67773
556.3201, 11.34827
556.8022, 11.45667
557.2843, 10.83367
557.7664, 9.947479
558.2485, 9.302536
558.7307, 8.906830
559.2128, 8.630478
559.6949, 8.688171
560.1770, 8.550941
560.6591, 7.950653
561.1412, 7.124405
561.6234, 6.274239
562.1055, 5.427841
562.5876, 4.839165
563.0697, 4.956993
563.5518, 5.529892
564.0339, 5.621490
564.5161, 5.023926
564.9982, 4.466194
565.4803, 4.544846
565.9624, 5.097832
566.4445, 5.354179
566.9266, 5.161423
567.4088, 4.745750
567.8909, 3.939049
568.3730, 3.223946
568.8551, 3.480682
569.3372, 4.759560
569.8193, 5.994080
570.3015, 6.072517
570.7836, 5.060547
571.2657, 4.589836
571.7478, 5.131020
572.2299, 5.614716
572.7120, 5.846016
573.1942, 5.977226
573.6763, 6.106712
574.1584, 6.276573
574.6405, 6.542015
575.1226, 7.035217
575.6047, 7.666946
576.0869, 8.052635
576.5690, 8.199104
577.0511, 8.087265
577.5332, 7.550644
578.0153, 6.826851
578.4974, 6.288025
578.9796, 5.941299
579.4617, 5.762459
579.9438, 5.748932
580.4259, 5.885750
580.9080, 6.363556
581.3901, 7.099586
581.8723, 7.470100
582.3544, 6.994286
582.8365, 5.957214
583.3186, 5.407730
583.8007, 5.853928
584.2828, 6.081306
584.7650, 5.612480
585.2471, 5.343826
585.7292, 6.251503
586.2113, 7.917740
586.6934, 8.888123
587.1755, 8.099915
587.6577, 6.337746
588.1398, 5.391571
588.6219, 5.366158
589.1040, 5.563164
589.5861, 5.999741
590.0682, 6.608604
590.5504, 7.318268
591.0325, 8.004234
591.5146, 8.122009
591.9967, 6.862686
592.4788, 5.558662
592.9609, 5.539444
593.4431, 6.465736
593.9252, 7.197998
594.4073, 7.339493
594.8894, 7.189056
595.3715, 7.154465
595.8536, 7.312416
596.3358, 7.209305
596.8179, 6.582458
597.3000, 6.036003
597.7821, 5.833405
598.2642, 5.824074
598.7463, 5.750046
599.2285, 5.531960
599.7106, 5.329926
600.1927, 5.331047
600.6748, 5.530884
601.1569, 5.913467
601.6390, 6.718292
602.1212, 7.207855
602.6033, 6.530754
603.0854, 5.394798
603.5675, 4.977097
604.0496, 5.718178
604.5317, 6.287590
605.0139, 5.650040
605.4960, 4.575073
605.9781, 4.274078
606.4602, 4.834221
606.9423, 5.489288
607.4244, 5.687164
607.9066, 5.538284
608.3887, 5.547447
608.8708, 5.941582
609.3529, 6.165161
609.8350, 6.210342
610.3171, 6.079445
610.7993, 5.627884
611.2814, 4.982422
611.7635, 4.531776
612.2456, 4.581322
612.7277, 4.875099
613.2098, 4.822182
613.6920, 4.378471
614.1741, 4.115509
614.6562, 4.266174
615.1383, 4.516891
615.6204, 4.483711
616.1025, 4.233345
616.5847, 4.203468
617.0668, 4.880592
617.5489, 5.410385
618.0310, 5.103981
618.5131, 4.277992
618.9952, 3.547798
619.4774, 3.102493
619.9595, 2.825272
620.4416, 2.577988
620.9237, 2.352554
621.4058, 2.270935
621.8879, 2.545425
622.3701, 2.703796
622.8522, 2.557426
623.3343, 2.302269
623.8164, 2.183594
624.2985, 2.231918
624.7806, 2.195160
625.2628, 1.835922
625.7448, 1.241348
626.2269, 0.5281300
626.7090, 0.3424150
627.1912, 0.7960510
627.6733, 0.4293820
628.1554, 0.3676530
628.6375, 0.8787920
629.1196, 1.079651
629.6017, 1.196434
630.0839, 1.326614
630.5660, 1.326019
631.0481, 0.8592150
631.5302, 0.1974330
632.0123, 5.4641999E-02
632.4944, 0.7601390
632.9766, 1.751457
633.4587, 2.025070
633.9408, 1.410797
634.4229, 0.9527890
634.9050, 0.7268070
635.3871, 0.5867080
635.8693, 0.3360900
636.3514, 0.1628720
636.8335, 0.4685590
637.3156, 1.492378
637.7977, 2.330086
638.2798, 2.125496
638.7620, 1.383949
639.2441, 0.9964140
639.7262, 0.9951020
640.2083, 1.135590
640.6904, 1.348946
641.1725, 1.551407
641.6547, 1.453545
642.1368, 0.4704280
642.6189, 6.7740999E-02
643.1010, 0.8593900
643.5831, 1.709991
644.0652, 1.649429
644.5474, 0.9876400
645.0295, 0.9094920
645.5116, 2.193626
645.9937, 3.610687
646.4758, 2.651756
646.9579, 0.6524960
647.4401, 2.425468
647.9222, 1.655235
648.4043, 0.2104340
648.8864, 0.7691730
649.3685, 1.293808
649.8506, 1.324463
650.3328, 0.3654480
650.8149, 0.3233260
651.2970, 2.5719000E-02
651.7791, 0.7634740
652.2612, 1.063362
652.7433, 0.8842540
653.2255, 0.7769240
653.7076, 1.184029
654.1897, 1.902061
654.6718, 2.168121
655.1539, 1.576408
655.6360, 1.240135
656.1182, 1.673386
656.6003, 2.094505
657.0824, 1.878204
657.5645, 1.274368
658.0466, 1.120567
658.5287, 1.992706
659.0109, 3.008911
659.4930, 3.406898
659.9751, 3.280151
660.4572, 2.771400
660.9393, 1.896530
661.4214, 1.109039
661.9036, 0.8279110
662.3857, 0.9976810
662.8678, 1.126640
663.3499, 1.240150
663.8320, 1.279129
664.3141, 1.159782
664.7963, 1.026192
665.2784, 0.9562450
665.7605, 0.9768450
666.2426, 1.126671
666.7247, 1.463783
667.2068, 1.887779
667.6890, 2.269485
668.1711, 2.604897
668.6532, 2.722290
669.1353, 2.534996
669.6174, 2.235107
670.0995, 1.980125
670.5817, 1.767548
671.0638, 1.569878
671.5459, 1.188316
672.0280, 1.064476
672.5101, 1.624023
672.9922, 2.343292
673.4744, 2.591774
673.9565, 2.398712
674.4386, 2.218315
674.9207, 2.372269
675.4028, 2.719994
675.8849, 2.810860
676.3671, 2.555145
676.8492, 2.462547
677.3313, 2.848564
677.8134, 3.210548
678.2955, 2.929245
678.7776, 2.241722
679.2598, 2.055267
679.7419, 3.023163
680.2240, 3.964897
680.7061, 4.137596
681.1882, 3.866043
681.6703, 3.535271
682.1525, 3.268440
682.6346, 3.292603
683.1167, 3.866821
683.5988, 4.796371
684.0809, 5.071243
684.5630, 4.287750
685.0452, 3.703140
685.5273, 3.807503
686.0094, 3.945366
686.4915, 3.618309
686.9736, 2.969948
687.4557, 2.372314
687.9379, 1.904762
688.4200, 1.689987
688.9021, 1.991020
689.3842, 2.580788
689.8663, 3.015289
690.3484, 3.230858
690.8306, 3.189293
691.3127, 2.797165
691.7948, 2.182823
692.2769, 1.933792
692.7590, 2.521835
693.2411, 2.720131
693.7233, 2.176491
694.2054, 1.523727
694.6875, 1.176834
695.1696, 1.051865
695.6517, 0.7551040
696.1339, 1.3054000E-02
696.6160, 0.6115800
697.0981, 3.2722000E-02
697.5802, 1.337555
698.0623, 2.096634
698.5444, 2.010017
699.0266, 1.606148
699.5087, 1.191620
699.9908, 0.7633130
700.4729, 0.3810350
700.9550, 0.1143110
701.4371, 0.2219240
701.9193, 0.3439870
702.4014, 1.013283
702.8835, 1.625641
703.3656, 2.068314
703.8477, 2.029259
704.3298, 1.329178
704.8120, 0.5398330
705.2941, 0.6334230
705.7762, 1.519440
706.2583, 1.954651
706.7404, 1.704178
707.2225, 1.381805
707.7046, 1.340057
708.1867, 1.454071
708.6688, 1.397537
709.1509, 0.9425130
709.6331, 1.114815
710.1152, 3.171936
710.5973, 4.663277
711.0794, 3.372169
711.5615, 0.7004930
712.0436, 0.6952740
712.5258, 0.1227490
713.0079, 1.699280
713.4900, 2.390129
713.9721, 2.366974
714.4542, 2.637672
714.9363, 3.317017
715.4185, 3.683022
715.9006, 3.234322
716.3827, 2.480095
716.8648, 2.394836
717.3469, 3.196365
717.8290, 3.309479
718.3112, 1.845779
718.7933, 0.4744720
719.2754, 8.0779999E-02
719.7575, 0.2729800
720.2396, 0.4342650
720.7217, 0.4092940
721.2039, 0.5108870
721.6860, 1.236275
722.1681, 2.291969
722.6502, 2.289780
723.1323, 1.035217
723.6144, 0.4513470
724.0966, 1.547752
724.5787, 2.956085
725.0608, 2.881744
725.5429, 1.364357
726.0250, 0.5065160
726.5071, 0.9117280
726.9893, 1.399681
727.4714, 1.481583
727.9535, 1.460670
728.4356, 1.851509
728.9177, 2.582108
729.3998, 2.972847
729.8820, 2.478851
730.3641, 1.409279
730.8462, 0.2809750
731.3283, 0.9270250
731.8104, 1.410828
732.2925, 0.7763440
732.7747, 6.1020002E-02
733.2568, 0.4204710
733.7389, 0.3456190
734.2210, 0.1498790
734.7031, 0.3498610
735.1852, 0.6878360
735.6674, 0.6929630
736.1495, 0.5642240
736.6316, 0.4678880
737.1137, 0.3852920
737.5958, 0.1754000
738.0779, 0.2497480
738.5601, 0.6737370
739.0422, 0.6681670
739.5243, 0.3042680
740.0064, 0.3961180
740.4885, 1.173820
740.9706, 1.593102
741.4528, 0.7996750
741.9349, 0.5261310
742.4170, 0.7341000
742.8991, 0.6843260
743.3812, 1.369370
743.8633, 0.3002850
744.3455, 0.6793670
744.8276, 0.3305280
745.3097, 0.6468430
745.7918, 1.095528
746.2739, 0.7033390
746.7560, 4.1000001E-02
747.2382, 0.5022200
747.7203, 0.8589320
748.2024, 0.7372360
748.6845, 0.1252210
749.1666, 0.5638960
749.6487, 1.305069
750.1309, 1.780807
750.6130, 1.469627
751.0951, 0.2983630
751.5772, 0.2112660
752.0593, 0.3989180
752.5414, 1.014832
753.0236, 1.544624
753.5057, 1.863350
753.9878, 1.684715
754.4699, 1.135201
754.9520, 0.8091200
755.4341, 1.043564
755.9163, 1.514847
756.3984, 1.950035
756.8805, 2.289131
757.3626, 2.169456
757.8447, 1.501945
758.3268, 0.8365020
758.8090, 0.5777510
759.2911, 0.5982210
759.7732, 0.4308010
760.2553, 0.2526090
760.7374, 0.5735860
761.2195, 0.3760300
761.7017, 3.9980002E-03
762.1838, 0.5836720
762.6659, 1.163551
763.1480, 1.345406
763.6301, 0.9980320
764.1122, 0.7065430
764.5944, 1.155884
765.0765, 1.803596
765.5586, 1.645912
766.0407, 0.8086010
766.5228, 0.1354370
767.0049, 6.1675999E-02
767.4871, 0.1637340
767.9692, 0.8195570
768.4513, 1.942421
768.9334, 2.652130
769.4155, 2.932251
769.8976, 2.762909
770.3798, 1.704895
770.8619, 0.6929090
771.3440, 0.4727480
771.8261, 1.006683
772.3082, 1.880127
772.7903, 3.414688
773.2725, 4.620674
773.7546, 4.489700
774.2367, 3.718346
774.7188, 3.376015
775.2009, 3.580803
775.6830, 3.923836
776.1652, 4.154190
776.6473, 4.268181
777.1294, 4.231216
777.6115, 4.028816
778.0936, 3.853821
778.5757, 3.767502
779.0579, 3.612343
779.5400, 3.075127
780.0221, 2.518181
780.5042, 2.676125
780.9863, 3.803139
781.4684, 4.476845
781.9506, 3.773430
782.4327, 3.093071
782.9148, 3.423279
783.3969, 4.367966
783.8790, 5.359520
784.3611, 6.168739
784.8433, 6.523247
785.3254, 5.939720
785.8075, 4.853386
786.2896, 4.697731
786.7717, 5.488960
787.2538, 6.113373
787.7360, 6.290085
788.2181, 6.235481
788.7002, 6.067070
789.1823, 5.777740
789.6644, 5.715019
790.1465, 6.360886
790.6286, 6.669106
791.1107, 6.247200
791.5928, 5.689316
792.0750, 5.241341
792.5571, 4.973000
793.0392, 5.039825
793.5213, 5.556305
794.0034, 6.052917
794.4855, 5.972496
794.9677, 5.642357
795.4498, 5.804817
795.9319, 6.391495
796.4140, 6.566589
796.8961, 5.941238
797.3782, 5.281120
797.8604, 5.778526
798.3425, 7.525284
798.8246, 8.132370
799.3067, 6.722511
799.7888, 5.743980
800.2709, 6.314987
800.7531, 7.187653
801.2352, 7.442169
801.7173, 7.127037
802.1994, 6.617310
802.6815, 5.819839
803.1636, 5.224655
803.6458, 5.173668
804.1279, 5.403122
804.6100, 5.641762
805.0921, 5.840836
805.5742, 6.098824
806.0563, 6.499886
806.5385, 6.833847
807.0206, 6.558334
807.5027, 5.746262
807.9848, 5.534302
808.4669, 6.086716
808.9490, 6.655312
809.4312, 6.999077
809.9133, 7.060440
810.3954, 6.623482
810.8775, 5.541290
811.3596, 4.958794
811.8417, 5.081963
812.3239, 5.435059
812.8060, 6.161926
813.2881, 6.866241
813.7702, 7.133102
814.2523, 7.002174
814.7344, 6.819702
815.2166, 6.730598
815.6987, 6.714363
816.1808, 6.839455
816.6629, 7.000443
817.1450, 6.835571
817.6271, 6.371902
818.1093, 6.252220
818.5914, 6.889549
819.0735, 7.792953
819.5556, 7.881416
820.0377, 6.916153
820.5198, 6.669456
821.0020, 7.685814
821.4841, 8.377533
821.9662, 7.786407
822.4483, 6.835258
822.9304, 6.455215
823.4125, 6.653519
823.8947, 7.251869
824.3768, 8.875946
824.8589, 10.10065
825.3410, 10.10101
825.8231, 9.519089
826.3052, 8.938606
826.7874, 8.491852
827.2695, 8.190643
827.7516, 8.048256
828.2337, 8.015137
828.7158, 8.039536
829.1979, 8.113670
829.6801, 8.258141
830.1622, 8.475670
830.6443, 8.479988
831.1264, 8.081253
831.6085, 7.527252
832.0906, 7.194809
832.5728, 7.072632
833.0549, 7.269150
833.5370, 8.129738
834.0191, 8.806587
834.5012, 9.002937
834.9833, 9.036140
835.4655, 9.251549
835.9476, 9.568665
836.4297, 9.506004
836.9118, 8.479378
837.3939, 7.747505
837.8760, 8.325531
838.3582, 9.347145
838.8403, 9.846390
839.3224, 9.823410
839.8045, 9.660728
840.2866, 9.538345
840.7687, 9.454056
841.2509, 9.308754
841.7330, 9.176147
842.2151, 9.647766
842.6972, 10.78790
843.1793, 11.54646
843.6614, 11.46245
844.1436, 11.08272
844.6257, 11.04544
845.1078, 11.33762
845.5899, 11.43297
846.0720, 11.31318
846.5541, 11.01105
847.0363, 9.964958
847.5184, 9.274017
848.0005, 10.07628
848.4826, 11.68190
848.9647, 12.41936
849.4468, 11.66429
849.9290, 10.93345
850.4111, 11.30788
850.8932, 11.94000
851.3753, 11.76907
851.8574, 11.03948
852.3395, 10.59351
852.8217, 10.67181
853.3038, 10.92141
853.7859, 11.00311
854.2680, 10.98875
854.7501, 11.19051
855.2322, 11.60865
855.7144, 11.63999
856.1965, 11.11171
856.6786, 10.38783
857.1607, 9.642624
857.6428, 8.982605
858.1249, 8.771576
858.6071, 9.307602
859.0892, 9.645561
859.5713, 9.511787
860.0534, 9.561996
860.5355, 10.27522
861.0176, 11.09016
861.4998, 11.28845
861.9819, 10.83817
862.4640, 10.44659
862.9461, 10.48060
863.4282, 10.55851
863.9103, 10.31055
864.3925, 9.991928
864.8746, 10.03784
865.3567, 10.41879
865.8388, 10.76318
866.3209, 10.82738
866.8030, 10.68230
867.2852, 10.30867
867.7673, 9.805763
868.2494, 9.828796
868.7315, 10.43279
869.2136, 10.60053
869.6957, 9.774277
870.1779, 8.801735
870.6600, 8.889389
871.1421, 10.05183
871.6242, 10.90070
872.1063, 11.63568
872.5884, 11.65926
873.0705, 9.992119
873.5526, 8.440689
874.0347, 8.429276
874.5168, 9.327873
874.9990, 9.460869
875.4811, 8.210258
875.9632, 7.275475
876.4453, 7.606461
876.9274, 8.144737
877.4095, 8.132057
877.8917, 7.711273
878.3738, 7.022163
878.8559, 6.195221
879.3380, 5.718880
879.8201, 6.218987
880.3022, 7.042625
880.7844, 7.037262
881.2665, 6.467201
881.7486, 6.066780
882.2307, 5.959198
882.7128, 6.132965
883.1949, 6.636841
883.6771, 7.179649
884.1592, 7.072693
884.6413, 6.181244
885.1234, 5.656105
885.6055, 5.582092
886.0876, 5.687065
886.5698, 6.089355
887.0519, 6.410355
887.5340, 6.098686
888.0161, 5.216660
888.4982, 4.671646
888.9803, 4.860703
889.4625, 4.819382
889.9446, 4.007072
890.4267, 3.233353
890.9088, 3.087669
891.3909, 3.414497
891.8730, 3.912361
892.3552, 4.519882
892.8373, 4.859924
893.3194, 4.447350
893.8015, 3.855576
894.2836, 3.656410
894.7657, 3.770065
895.2479, 4.127975
895.7300, 4.619781
896.2121, 4.817596
896.6942, 4.400002
897.1763, 3.609283
897.6584, 2.744751
898.1406, 1.878250
898.6227, 1.836311
899.1048, 2.798737
899.5869, 3.530785
900.0690, 3.424149
900.5511, 2.846222
901.0333, 2.269661
901.5154, 1.668129
901.9975, 1.536209
902.4796, 2.260963
902.9617, 2.742622
903.4438, 2.517021
903.9260, 2.244690
904.4081, 2.666679
904.8902, 3.364029
905.3723, 3.134300
905.8544, 1.361519
906.3365, 7.5843997E-02
906.8187, 0.2533720
907.3008, 0.5378950
907.7829, 0.1522140
908.2650, 1.081902
908.7471, 1.118378
909.2292, 0.1637570
909.7114, 0.9623790
910.1935, 2.000771
910.6756, 2.660721
911.1577, 2.352760
911.6398, 1.552994
912.1219, 1.210129
912.6041, 1.352081
913.0862, 1.481361
913.5683, 1.362251
914.0504, 1.216934
914.5325, 1.468407
915.0146, 1.995201
915.4968, 1.890327
915.9789, 1.092590
916.4610, 0.2521060
916.9431, 0.5047450
917.4252, 0.9758070
917.9073, 0.9434890
918.3895, 0.5562440
918.8716, 0.3579180
919.3537, 0.4956510
919.8358, 0.4309540
920.3179, 5.7199999E-04
920.8000, 0.3954010
921.2822, 0.6862260
921.7643, 0.8017810
922.2464, 0.5584410
922.7285, 1.6960001E-02
923.2106, 0.3772050
923.6927, 0.3051530
924.1749, 0.2677540
924.6570, 0.4467010
925.1391, 0.6357420
925.6212, 0.6875000
926.1033, 0.6160050
926.5854, 0.4379120
927.0676, 0.1523970
927.5497, 2.7031001E-02
928.0318, 0.1844860
928.5139, 0.4388200
928.9960, 0.4066700
929.4781, 0.1422120
929.9603, 0.3268430
930.4424, 0.9211120
930.9245, 1.342377
931.4066, 1.382294
931.8887, 1.255608
932.3708, 1.395378
932.8530, 1.664986
933.3351, 1.317673
933.8172, 0.3760380
934.2993, 6.7626998E-02
934.7814, 0.4275510
935.2635, 1.121407
935.7457, 1.224579
936.2278, 0.8207090
936.7099, 0.2989120
937.1920, 0.5092010
937.6741, 0.6172100
938.1563, 0.4492800
938.6384, 1.403824
939.1205, 1.413925
939.6026, 0.9899900
940.0847, 1.096550
940.5668, 1.893051
941.0490, 2.276711
941.5311, 1.991829
942.0132, 1.663322
942.4953, 1.347382
942.9774, 1.082596
943.4595, 0.9400630
943.9417, 0.8638760
944.4238, 0.7195210
944.9059, 0.4801640
945.3880, 0.1746060
945.8701, 0.3729930
946.3522, 0.7895890
946.8344, 0.7788470
947.3165, 0.5072480
947.7986, 0.1513600
948.2807, 0.2238010
948.7628, 0.5518650
949.2449, 0.8093190
949.7271, 0.9763180
950.2092, 1.025482
950.6913, 0.9778140
951.1734, 0.8285900
951.6555, 0.6127550
952.1376, 0.3732910
952.6198, 0.1447530
953.1019, 0.1341250
953.5840, 0.6873250
954.0661, 1.413818
954.5482, 1.148430
955.0303, 9.6663997E-02
955.5124, 0.2905120
955.9945, 0.1871030
956.4766, 0.6729350
956.9587, 0.7016980
957.4409, 0.5144960
957.9230, 0.4519040
958.4051, 0.5167770
958.8872, 1.033554
959.3693, 2.253784
959.8514, 2.757629
960.3336, 1.897659
960.8157, 1.063980
961.2978, 1.446114
961.7799, 2.534981
962.2620, 2.871407
962.7441, 2.148621
963.2263, 1.617783
963.7084, 1.173935
964.1905, 1.074409
964.6726, 1.820366
965.1547, 2.576271
965.6368, 2.486771
966.1190, 1.701714
966.6011, 1.214134
967.0832, 1.429649
967.5653, 1.458664
968.0474, 0.7059400
968.5295, 0.1597440
969.0117, 0.5937420
969.4938, 1.460808
969.9759, 2.169510
970.4580, 2.566505
970.9401, 2.430984
971.4222, 1.318031
971.9044, 0.2129360
972.3865, 0.4008480
972.8686, 0.5864870
973.3507, 0.1691670
973.8328, 0.5679700
974.3149, 1.014397
974.7971, 0.9827420
975.2792, 0.8934250
975.7613, 1.185287
976.2434, 1.564117
976.7255, 1.523918
977.2076, 1.242210
977.6898, 1.204781
978.1719, 1.417770
978.6540, 1.476410
979.1361, 1.194862
979.6182, 0.7552410
980.1003, 0.2721860
980.5825, 0.1546100
981.0646, 7.3204003E-02
981.5467, 0.4696500
982.0288, 0.9062730
982.5109, 1.110893
982.9930, 1.183914
983.4752, 1.183357
983.9573, 1.182327
984.4394, 1.352577
984.9215, 1.702942
985.4036, 1.810692
985.8857, 1.610458
986.3679, 1.353302
986.8500, 1.054390
987.3321, 0.9877700
987.8142, 1.457886
988.2963, 2.223137
988.7784, 2.574181
989.2606, 2.405617
989.7427, 2.191231
990.2248, 1.960098
990.7069, 1.604065
991.1890, 0.8162080
991.6711, 0.1864320
992.1533, 0.2967450
992.6354, 1.095833
993.1175, 2.056259
993.5996, 3.764236
994.0817, 4.573288
994.5638, 3.733101
995.0460, 2.812515
995.5281, 2.394966
996.0102, 2.359085
996.4923, 2.565575
996.9744, 2.940498
997.4565, 3.086914
997.9387, 2.709419
998.4208, 2.467316
998.9029, 2.722939
999.3850, 2.957413
999.8671, 2.797333
1000.349, 2.434685
1000.831, 2.051857
1001.313, 1.731400
1001.796, 1.799080
1002.278, 2.722244
1002.760, 3.550659
1003.242, 3.656891
1003.724, 3.497383
1004.206, 3.636871
1004.688, 3.861343
1005.170, 3.537231
1005.653, 2.580162
1006.135, 1.764648
1006.617, 1.611832
1007.099, 1.723427
1007.581, 1.803070
1008.063, 1.864754
1008.545, 1.959930
1009.027, 2.052437
1009.509, 2.006935
1009.992, 1.788521
1010.474, 1.585342
1010.956, 1.590294
1011.438, 1.715683
1011.920, 1.719078
1012.402, 1.724472
1012.884, 2.259514
1013.366, 3.156021
1013.849, 3.291664
1014.331, 2.165352
1014.813, 1.008240
1015.295, 1.342300
1015.777, 2.572830
1016.259, 3.272758
1016.741, 3.525925
1017.223, 3.576027
1017.705, 3.494179
1018.188, 3.725021
1018.670, 4.526947
1019.152, 5.126129
1019.634, 4.184433
1020.116, 2.183235
1020.598, 1.620094
1021.080, 2.438057
1021.562, 3.063225
1022.044, 3.216705
1022.527, 3.363472
1023.009, 3.766670
1023.491, 4.298500
1023.973, 4.801895
1024.455, 5.257904
1024.937, 5.362228
1025.419, 5.096840
1025.901, 4.544434
1026.384, 3.609711
1026.866, 2.880486
1027.348, 2.728233
1027.830, 2.931213
1028.312, 3.084625
1028.794, 3.178604
1029.276, 3.561981
1029.758, 4.404152
1030.240, 4.838799
1030.723, 4.640923
1031.205, 4.267876
1031.687, 3.918640
1032.169, 3.635872
1032.651, 3.556114
1033.133, 3.701698
1033.615, 3.883232
1034.097, 4.256943
1034.579, 4.294235
1035.062, 3.676895
1035.544, 3.029594
1036.026, 2.772308
1036.508, 2.761215
1036.990, 2.667938
1037.472, 2.414162
1037.954, 2.509010
1038.436, 3.441582
1038.919, 3.925201
1039.401, 3.367676
1039.883, 2.708687
1040.365, 2.500946
1040.847, 2.633324
1041.329, 2.892776
1041.811, 3.303291
1042.293, 3.722176
1042.776, 4.496429
1043.258, 4.791855
1043.740, 3.701950
1044.222, 2.835648
1044.704, 3.658501
1045.186, 5.298706
1045.668, 6.007454
1046.150, 5.550613
1046.632, 5.029160
1047.115, 4.209839
1047.597, 3.824936
1048.079, 4.469429
1048.561, 5.198517
1049.043, 5.342422
1049.525, 5.107712
1050.007, 4.905113
1050.489, 4.777405
1050.971, 4.794182
1051.454, 5.367729
1051.936, 5.496315
1052.418, 4.510307
1052.900, 3.353004
1053.382, 2.554680
1053.864, 2.141121
1054.346, 2.089554
1054.828, 2.398567
1055.311, 2.944893
1055.793, 4.171600
1056.275, 4.986458
1056.757, 4.817329
1057.239, 4.360458
1057.721, 3.903862
1058.203, 3.505913
1058.685, 2.978767
1059.167, 2.312798
1059.650, 2.144554
1060.132, 3.326424
1060.614, 4.168472
1061.096, 3.616653
1061.578, 2.895103
1062.060, 3.081848
1062.542, 3.736221
1063.024, 3.931137
1063.506, 3.551773
1063.989, 3.402039
1064.471, 4.158951
1064.953, 4.741402
1065.435, 4.766289
1065.917, 4.393204
1066.399, 3.304253
1066.881, 2.111740
1067.363, 1.831146
1067.846, 2.501770
1068.328, 3.058128
1068.810, 3.053474
1069.292, 2.957764
1069.774, 3.074661
1070.256, 3.127113
1070.738, 2.762672
1071.220, 2.288933
1071.703, 2.140533
1072.185, 2.309753
1072.667, 2.334389
1073.149, 1.871437
1073.631, 1.641495
1074.113, 2.258125
1074.595, 2.937859
1075.077, 3.128082
1075.559, 3.026360
1076.042, 2.953514
1076.524, 2.911018
1077.006, 2.698311
1077.488, 2.153275
1077.970, 1.786461
1078.452, 2.081711
1078.934, 2.348244
1079.416, 1.899231
1079.898, 1.307869
1080.380, 1.312241
1080.863, 1.848816
1081.345, 2.464798
1081.827, 3.118942
1082.309, 3.348610
1082.791, 2.530930
1083.273, 1.704681
1083.755, 1.427444
1084.237, 1.536339
1084.720, 2.042946
1085.202, 2.715363
1085.684, 3.009666
1086.166, 2.743698
1086.648, 2.546494
1087.130, 2.884674
1087.612, 3.107849
1088.094, 2.618370
1088.577, 2.087418
1089.059, 2.273018
1089.541, 2.875854
1090.023, 3.220032
1090.505, 3.171700
1090.987, 2.876389
1091.469, 2.103920
1091.951, 1.477028
1092.433, 1.384621
1092.916, 1.418755
1093.398, 1.255112
1093.880, 0.9962310
1094.362, 0.8379970
1094.844, 0.8114930
1095.326, 0.8652340
1095.808, 1.066032
1096.290, 1.217758
1096.772, 1.286003
1097.255, 1.256920
1097.737, 0.9302900
1098.219, 0.6179580
1098.701, 0.8958970
1099.183, 1.666206
1099.665, 1.970978
1100.147, 1.294754
1100.629, 0.7460020
1101.112, 0.6265340
1101.594, 0.6878740
1102.076, 0.9310760
1102.558, 1.192238
1103.040, 1.340561
1103.522, 1.362495
1104.004, 1.228889
1104.486, 0.8372270
1104.969, 0.6053470
1105.451, 0.6695250
1105.933, 0.8241200
1106.415, 1.254562
1106.897, 1.516991
1107.379, 1.069389
1107.861, 0.1902010
1108.343, 0.2776410
1108.825, 0.2416610
1109.307, 2.2918999E-02
1109.790, 0.7792360
1110.272, 1.359016
1110.754, 1.549477
1111.236, 1.599487
1111.718, 1.610420
1112.200, 1.605896
1112.682, 1.727341
1113.164, 2.007896
1113.647, 1.699081
1114.129, 0.2277450
1114.611, 1.008095
1115.093, 0.5286330
1115.575, 1.889420
1116.057, 1.847733
1116.539, 1.270561
1117.021, 1.178535
1117.504, 1.471298
1117.986, 1.394913
1118.468, 0.7994690
1118.950, 0.1719210
1119.432, 0.6454240
1119.914, 1.172279
1120.396, 1.246880
1120.878, 0.9753040
1121.360, 0.2807920
1121.843, 0.5694350
1122.325, 0.6971360
1122.807, 0.1281200
1123.289, 0.1903990
1123.771, 0.8316270
1124.253, 1.503525
1124.735, 1.456123
1125.217, 1.211082
1125.699, 1.109726
1126.182, 0.9627610
1126.664, 0.3380740
1127.146, 0.6960530
1127.628, 0.7300110
1128.110, 0.3992610
1128.592, 1.005394
1129.074, 0.8085100
1129.556, 0.5328670
1130.039, 0.4963000
1130.521, 0.5717540
1131.003, 0.6309890
1131.485, 0.6607820
1131.967, 0.6425170
1132.449, 0.5684510
1132.931, 0.1753460
1133.413, 0.5339810
1133.896, 0.8089520
1134.378, 0.4200970
1134.860, 0.2222210
1135.342, 0.8209990
1135.824, 1.366287
1136.306, 1.951141
1136.788, 2.455780
1137.270, 2.245659
1137.752, 1.493324
1138.234, 1.102760
1138.717, 1.189217
1139.199, 1.200027
1139.681, 0.8504490
1140.163, 0.5247800
1140.645, 0.7762600
1141.127, 1.219666
1141.609, 0.9612660
1142.091, 0.4197080
1142.574, 0.6529240
1143.056, 1.505341
1143.538, 2.118340
1144.020, 2.217247
1144.502, 2.044846
1144.984, 1.721184
1145.466, 1.320526
1145.948, 0.6729810
1146.431, 0.1924900
1146.913, 0.6365430
1147.395, 1.544884
1147.877, 2.121498
1148.359, 2.218781
1148.841, 1.905602
1149.323, 1.115685
1149.805, 0.5154800
1150.287, 0.6600950
1150.770, 0.9914470
1151.252, 1.210571
1151.734, 1.318947
1152.216, 1.182831
1152.698, 0.9906690
1153.180, 1.238777
1153.662, 2.026978
1154.144, 2.547142
1154.626, 2.382782
1155.109, 2.120567
1155.591, 2.000313
1156.073, 1.788933
1156.555, 1.085587
1157.037, 0.3743060
1157.519, 0.4284360
1158.001, 1.136543
1158.483, 1.438187
1158.966, 0.9254000
1159.448, 0.6766740
1159.930, 0.9691240
1160.412, 1.247185
1160.894, 1.355255
1161.376, 1.407516
1161.858, 1.418823
1162.340, 1.479118
1162.822, 1.909325
1163.305, 2.836975
1163.787, 2.656105
1164.269, 0.6877590
1164.751, 0.3396300
1165.233, 0.1835330
1165.715, 0.9673770
1166.197, 1.513031
1166.679, 1.734558
1167.161, 1.401382
1167.644, 0.7667390
1168.126, 1.047295
1168.608, 2.289238
1169.090, 2.901123
1169.572, 2.802902
1170.054, 2.514633
1170.536, 2.171425
1171.018, 1.950119
1171.500, 1.974037
1171.983, 2.161865
1172.465, 2.465324
1172.947, 2.894196
1173.429, 3.012321
1173.911, 2.891556
1174.393, 2.868210
1174.875, 2.926903
1175.357, 2.675858
1175.840, 2.000015
1176.322, 1.413933
1176.804, 1.369942
1177.286, 1.521698
1177.768, 1.461311
1178.250, 1.409554
1178.732, 1.891365
1179.214, 2.557587
1179.697, 2.413025
1180.179, 1.567940
1180.661, 1.298569
1181.143, 2.250000
1181.625, 2.969093
1182.107, 2.138962
1182.589, 1.258575
1183.071, 1.477470
1183.553, 1.964272
1184.036, 1.880905
1184.518, 1.452805
1185.000, 1.135750
1185.482, 1.036018
1185.964, 1.170387
1186.446, 1.432655
1186.928, 1.971626
1187.410, 3.565689
1187.892, 4.497993
1188.375, 3.464355
1188.857, 1.955887
1189.339, 1.315605
1189.821, 1.384445
1190.303, 1.500900
1190.785, 1.479698
1191.267, 1.236023
1191.749, 0.6664120
1192.232, 0.3876420
1192.714, 0.5820470
1193.196, 0.7936710
1193.678, 0.7825930
1194.160, 0.7317960
1194.642, 0.8538510
1195.124, 1.155106
1195.606, 1.804176
1196.089, 2.763824
1196.571, 2.890045
1197.053, 2.183311
1197.535, 1.587746
1198.017, 1.367477
1198.499, 2.110107
1198.981, 4.272499
1199.463, 6.291901
1199.945, 5.794411
1200.427, 3.935616
1200.910, 2.645844
1201.392, 1.928680
1201.874, 2.178909
1202.356, 3.027664
1202.838, 3.417816
1203.320, 3.072433
1203.802, 2.335724
1204.284, 1.170761
1204.767, 0.4082340
1205.249, 1.109200
1205.731, 2.006134
1206.213, 1.845932
1206.695, 1.417763
1207.177, 1.995995
1207.659, 3.124077
1208.141, 3.254921
1208.624, 2.015625
1209.106, 1.068031
1209.588, 0.9232860
1210.070, 0.9459610
1210.552, 1.077957
1211.034, 1.258972
1211.516, 1.554085
1211.998, 1.794609
1212.480, 1.688629
1212.963, 1.412544
1213.445, 1.699203
1213.927, 2.755142
1214.409, 3.339066
1214.891, 3.428001
1215.373, 3.034698
1215.855, 2.011856
1216.337, 1.292686
1216.819, 1.431351
1217.302, 1.755157
1217.784, 1.387100
1218.266, 0.6491550
1218.748, 0.6028290
1219.230, 1.092163
1219.712, 1.315857
1220.194, 1.287926
1220.676, 1.398857
1221.159, 1.680275
1221.641, 1.633568
1222.123, 0.9655300
1222.605, 0.3738100
1223.087, 0.8506700
1223.569, 1.615707
1224.051, 1.705551
1224.533, 1.620598
1225.016, 2.294769
1225.498, 3.203217
1225.980, 3.034599
1226.462, 1.805946
1226.944, 0.9752120
1227.426, 1.122925
1227.908, 1.511971
1228.390, 2.031425
1228.872, 2.490173
1229.354, 2.892700
1229.837, 3.118835
1230.319, 3.067131
1230.801, 2.774704
1231.283, 2.211533
1231.765, 1.400154
1232.247, 1.094582
1232.729, 1.454391
1233.211, 1.876297
1233.694, 2.452827
1234.176, 2.628868
1234.658, 2.154106
1235.140, 1.620750
1235.622, 1.457932
1236.104, 1.485802
1236.586, 1.375916
1237.068, 1.196899
1237.551, 1.246880
1238.033, 1.487335
1238.515, 1.859993
1238.997, 2.272652
1239.479, 2.349968
1239.961, 2.009460
1240.443, 1.548485
1240.925, 1.127457
1241.407, 0.7487110
1241.890, 0.2474900
1242.372, 3.4743998E-02
1242.854, 0.5307540
1243.336, 1.278656
1243.818, 1.273163
1244.300, 0.8212280
1244.782, 0.7863240
1245.264, 1.265450
1245.746, 1.552322
1246.229, 1.624031
1246.711, 1.164513
1247.193, 1.141975
1247.675, 2.260681
1248.157, 0.1373980
1248.639, 2.275421
1249.121, 2.994446
1249.603, 2.563568
1250.085, 1.799530
1250.568, 0.7626110
1251.050, 0.5560760
1251.532, 1.265694
1252.014, 1.955467
1252.496, 2.589348
1252.978, 2.836502
1253.460, 2.599464
1253.942, 1.989441
1254.425, 1.065132
1254.907, 0.3249280
1255.389, 0.5814670
1255.871, 1.420013
1256.353, 2.504707
1256.835, 3.344315
1257.317, 2.438057
1257.799, 0.5950090
1258.281, 5.2979000E-02
1258.764, 1.079819
1259.246, 2.091995
1259.728, 2.467926
1260.210, 2.545555
1260.692, 2.166595
1261.174, 1.939285
1261.656, 2.415749
1262.138, 2.895470
1262.620, 2.713043
1263.103, 2.242119
1263.585, 2.057022
1264.067, 2.142776
1264.549, 2.474579
1265.031, 3.167091
1265.513, 3.445915
1265.995, 3.142212
1266.477, 2.399719
1266.960, 2.883858
1267.442, 3.222633
1267.924, 2.874222
1268.406, 2.325851
1268.888, 2.204689
1269.370, 2.270706
1269.852, 1.979950
1270.334, 1.438866
1270.817, 0.9488450
1271.299, 0.5988310
1271.781, 0.7332080
1272.263, 1.389076
1272.745, 1.669662
1273.227, 1.246452
1273.709, 0.8918080
1274.191, 1.293053
1274.673, 1.563774
1275.156, 0.9607090
1275.638, 0.4136580
1276.120, 0.7157820
1276.602, 1.313889
1277.084, 1.608223
1277.566, 1.670204
1278.048, 1.822968
1278.530, 2.065002
1279.012, 2.332108
1279.495, 2.727417
1279.977, 2.498680
1280.459, 1.369118
1280.941, 0.5897060
1281.423, 0.6064220
1281.905, 0.9884340
1282.387, 1.455597
1282.869, 1.761581
1283.352, 0.9720150
1283.834, 1.4587000E-02
1284.316, 0.5299990
1284.798, 0.0000000E+00
##END=



