##NAMES=Senandorite
##RRUFFID=R060673
##IDEAL CHEMISTRY=Ag^1+^Pb^2+^Sb^3+^_3_S^2-^_6_
##LOCALITY=San Jose mine, Oruro, Bolivia
##OWNER=RRUFF
##SOURCE=Michael Scott S101092, Rock Currier
##DESCRIPTION=Dark steel gray metallic prismatic crystals with striation parallel to the c-axis. About ten percent of the volume is andorite IV, as determined by X-ray diffraction.
##STATUS=The identification of this mineral has been confirmed by X-ray diffraction.
##URL=rruff.info/R060673
124.4013, 0.0000000E+00
124.8834, 0.2654420
125.3655, 0.3658220
125.8476, 5.0349999E-03
126.3298, 1.1925000E-02
126.8119, 0.4575120
127.2940, 0.8585820
127.7761, 1.115791
128.2582, 1.249535
128.7404, 1.197891
129.2225, 1.044991
129.7046, 0.7643050
130.1867, 0.7519000
130.6688, 1.327049
131.1509, 1.614182
131.6331, 1.364105
132.1152, 0.8838730
132.5973, 0.4259800
133.0794, 0.1127320
133.5615, 6.4217001E-02
134.0436, 0.1302490
134.5258, 4.3892000E-02
135.0079, 0.1185840
135.4900, 0.4565200
135.9721, 0.8580250
136.4542, 1.138481
136.9363, 1.171043
137.4184, 0.9662170
137.9006, 0.7509460
138.3827, 0.3797680
138.8648, 0.1258240
139.3469, 0.2198410
139.8290, 0.6107180
140.3111, 0.4558790
140.7933, 1.067329
141.2754, 1.408226
141.7575, 1.493454
142.2396, 0.5555800
142.7217, 0.9595790
143.2038, 0.8392870
143.6860, 0.7038960
144.1681, 1.310860
144.6502, 0.5537030
145.1323, 1.151894
145.6144, 1.209122
146.0965, 1.513512
146.5787, 1.282051
147.0608, 1.216103
147.5429, 1.686188
148.0250, 1.859795
148.5071, 1.567459
148.9892, 1.888680
149.4714, 1.114983
149.9535, 1.303139
150.4356, 1.906738
150.9177, 1.644295
151.3998, 1.978653
151.8819, 2.086868
152.3641, 1.164467
152.8462, 2.036980
153.3283, 2.134743
153.8104, 1.437004
154.2925, 2.251144
154.7746, 1.739410
155.2568, 1.594421
155.7389, 1.485847
156.2210, 1.600769
156.7031, 1.948219
157.1852, 2.333427
157.6673, 2.448326
158.1495, 2.088303
158.6316, 1.771362
159.1137, 1.368652
159.5958, 1.118164
160.0779, 1.347359
160.5600, 2.218544
161.0422, 3.313850
161.5243, 3.655708
162.0064, 3.098816
162.4885, 2.807663
162.9706, 2.949348
163.4527, 3.336601
163.9349, 3.466225
164.4170, 3.041878
164.8991, 2.446808
165.3812, 2.286621
165.8633, 2.718964
166.3454, 3.184700
166.8276, 3.321289
167.3097, 3.172539
167.7918, 3.072701
168.2739, 3.163368
168.7560, 3.362633
169.2381, 3.606674
169.7203, 3.933678
170.2024, 4.163895
170.6845, 4.051773
171.1666, 3.532059
171.6487, 3.058907
172.1308, 2.744576
172.6130, 2.566910
173.0951, 2.541985
173.5772, 2.682449
174.0593, 2.933937
174.5414, 3.227768
175.0235, 3.636383
175.5057, 3.922157
175.9878, 4.042007
176.4699, 4.039513
176.9520, 3.907310
177.4341, 3.630829
177.9162, 3.305092
178.3984, 3.234879
178.8805, 3.744553
179.3626, 4.106171
179.8447, 4.134315
180.3268, 3.996262
180.8089, 3.913040
181.2911, 4.013596
181.7732, 4.248901
182.2553, 4.339783
182.7374, 4.260345
183.2195, 4.051018
183.7016, 3.620148
184.1838, 3.072693
184.6659, 2.566483
185.1480, 2.183289
185.6301, 1.925674
186.1122, 1.828262
186.5943, 2.074829
187.0765, 2.257401
187.5586, 2.155365
188.0407, 1.839409
188.5228, 1.566498
189.0049, 1.540619
189.4870, 1.701012
189.9692, 1.649086
190.4513, 1.094971
190.9334, 0.5778350
191.4155, 0.5701370
191.8976, 1.036774
192.3797, 1.379265
192.8619, 1.099571
193.3440, 0.3907240
193.8261, 0.1514590
194.3082, 0.3511120
194.7903, 0.4347380
195.2724, 0.6551510
195.7546, 1.036644
196.2367, 1.389961
196.7188, 1.674881
197.2009, 1.838913
197.6830, 1.742691
198.1651, 1.140572
198.6473, 0.3937530
199.1294, 0.2169570
199.6115, 0.8909990
200.0936, 1.432571
200.5757, 1.256004
201.0578, 0.7214580
201.5400, 0.2586290
202.0221, 6.5971002E-02
202.5042, 7.7606000E-02
202.9863, 0.1023480
203.4684, 0.1270680
203.9505, 0.1916810
204.4327, 0.4080050
204.9148, 0.6457140
205.3969, 0.7044370
205.8790, 0.4350050
206.3611, 7.3936000E-02
206.8432, 0.3675920
207.3254, 0.2317350
207.8075, 0.1183780
208.2896, 9.3620002E-02
208.7717, 0.1609800
209.2538, 0.3255390
209.7359, 0.5989070
210.2181, 0.9675980
210.7002, 1.298515
211.1823, 1.759689
211.6644, 1.998856
212.1465, 1.669518
212.6286, 1.087021
213.1108, 0.8049240
213.5929, 1.217438
214.0750, 2.266182
214.5571, 3.082886
215.0392, 3.659363
215.5213, 4.049217
216.0035, 4.159309
216.4856, 4.083786
216.9677, 3.992149
217.4498, 3.979675
217.9319, 4.052788
218.4140, 4.308258
218.8961, 4.925896
219.3783, 5.498611
219.8604, 5.793213
220.3425, 5.895638
220.8246, 6.096054
221.3067, 6.612915
221.7888, 7.384315
222.2710, 7.957733
222.7531, 8.218666
223.2352, 8.417366
223.7173, 8.642479
224.1994, 8.901093
224.6815, 9.231262
225.1637, 9.711800
225.6458, 10.26014
226.1279, 10.58738
226.6100, 10.50379
227.0921, 10.39135
227.5742, 10.36823
228.0564, 10.46105
228.5385, 10.99765
229.0206, 12.46930
229.5027, 14.38500
229.9848, 15.65168
230.4669, 16.02607
230.9491, 15.99010
231.4312, 15.75478
231.9133, 15.31528
232.3954, 15.21626
232.8775, 15.99100
233.3596, 17.13719
233.8418, 17.99623
234.3239, 18.44089
234.8060, 18.68361
235.2881, 18.87757
235.7702, 19.00289
236.2523, 19.27142
236.7345, 19.89645
237.2166, 20.64169
237.6987, 21.32790
238.1808, 21.93110
238.6629, 22.41994
239.1451, 22.74171
239.6272, 22.88160
240.1093, 22.93764
240.5914, 22.78575
241.0735, 22.64499
241.5556, 22.69003
242.0378, 22.96423
242.5199, 23.34309
243.0020, 23.69646
243.4841, 24.04499
243.9662, 24.27812
244.4483, 24.11548
244.9305, 24.00060
245.4126, 24.30070
245.8947, 25.07681
246.3768, 25.98999
246.8589, 26.59614
247.3410, 26.84320
247.8232, 26.92813
248.3053, 26.58785
248.7874, 26.30163
249.2695, 26.43122
249.7516, 27.00866
250.2337, 27.73192
250.7159, 28.20058
251.1980, 28.32511
251.6801, 28.41862
252.1622, 28.44331
252.6443, 28.48380
253.1264, 28.59170
253.6086, 28.75869
254.0907, 28.93658
254.5728, 29.07142
255.0549, 29.17162
255.5370, 29.23820
256.0191, 29.27647
256.5013, 29.33536
256.9834, 29.36573
257.4655, 29.35528
257.9476, 29.40804
258.4297, 29.72112
258.9118, 30.49511
259.3940, 30.75694
259.8761, 29.94694
260.3582, 29.18885
260.8403, 29.09864
261.3224, 29.65102
261.8045, 30.44566
262.2867, 31.13224
262.7688, 31.72169
263.2509, 32.07746
263.7330, 32.10782
264.2151, 32.07693
264.6972, 32.07892
265.1794, 32.11320
265.6615, 32.12079
266.1436, 32.04750
266.6257, 31.88708
267.1078, 31.78815
267.5899, 31.86432
268.0721, 31.87759
268.5542, 31.64655
269.0363, 31.25228
269.5184, 30.92366
270.0005, 30.81994
270.4826, 30.93170
270.9648, 31.12304
271.4469, 31.57204
271.9290, 31.89959
272.4111, 31.96418
272.8932, 31.79791
273.3753, 31.46553
273.8575, 30.97865
274.3396, 30.37833
274.8217, 29.88040
275.3038, 29.60274
275.7859, 29.27114
276.2680, 28.84170
276.7502, 28.29850
277.2323, 27.56625
277.7144, 26.57251
278.1965, 25.43909
278.6786, 24.53582
279.1607, 23.89854
279.6429, 23.35888
280.1250, 22.98768
280.6071, 22.66578
281.0892, 22.11148
281.5713, 21.15829
282.0534, 20.11377
282.5356, 19.69211
283.0177, 20.11906
283.4998, 20.26487
283.9819, 19.75577
284.4640, 18.82201
284.9461, 17.71564
285.4283, 16.45167
285.9104, 15.28858
286.3925, 14.69922
286.8746, 14.73185
287.3567, 14.63915
287.8388, 14.16416
288.3210, 13.52073
288.8031, 12.96756
289.2852, 12.54207
289.7673, 12.22765
290.2494, 12.05946
290.7315, 12.03792
291.2137, 11.94595
291.6958, 11.75120
292.1779, 11.51658
292.6600, 11.27797
293.1421, 11.04602
293.6242, 10.91516
294.1064, 11.07439
294.5885, 11.48657
295.0706, 11.79967
295.5527, 11.91061
296.0348, 11.98763
296.5169, 12.16496
296.9991, 12.44444
297.4812, 12.77650
297.9633, 13.12770
298.4454, 13.50330
298.9275, 13.91202
299.4096, 14.33720
299.8918, 14.83912
300.3739, 15.51144
300.8560, 16.33411
301.3381, 17.12528
301.8202, 17.80302
302.3023, 18.34457
302.7845, 18.77353
303.2666, 19.13885
303.7487, 19.44211
304.2308, 19.60368
304.7129, 19.68096
305.1950, 19.95025
305.6772, 20.55196
306.1593, 21.33825
306.6414, 22.11971
307.1235, 22.90866
307.6056, 23.58239
308.0877, 24.01053
308.5699, 24.30228
309.0520, 24.71604
309.5341, 25.33659
310.0162, 26.02016
310.4983, 26.59363
310.9804, 27.06422
311.4626, 27.50275
311.9447, 28.02382
312.4268, 28.54565
312.9089, 28.86777
313.3910, 28.91932
313.8731, 29.07101
314.3553, 29.81850
314.8374, 30.93784
315.3195, 31.71817
315.8016, 31.76014
316.2837, 31.57962
316.7658, 31.79917
317.2480, 32.44187
317.7301, 32.92767
318.2122, 32.74241
318.6943, 32.16927
319.1764, 31.96745
319.6585, 32.55996
320.1407, 33.09180
320.6228, 32.74883
321.1049, 31.65733
321.5870, 30.75419
322.0691, 30.53231
322.5512, 30.65052
323.0334, 30.46960
323.5155, 29.93382
323.9976, 29.31041
324.4797, 28.73400
324.9618, 28.17408
325.4439, 27.52737
325.9261, 26.69549
326.4082, 25.90584
326.8903, 25.56120
327.3724, 25.66701
327.8545, 25.52760
328.3366, 24.68045
328.8188, 23.49767
329.3009, 22.61448
329.7830, 22.16426
330.2651, 21.82522
330.7472, 21.28822
331.2293, 20.59079
331.7115, 19.91845
332.1936, 19.31329
332.6757, 18.74084
333.1578, 18.19178
333.6399, 17.66282
334.1220, 17.05850
334.6042, 16.22521
335.0863, 15.27631
335.5684, 14.62648
336.0505, 14.59512
336.5326, 14.55288
337.0147, 14.07932
337.4969, 13.23359
337.9790, 12.26546
338.4611, 11.22958
338.9432, 10.20041
339.4253, 9.310810
339.9074, 8.553425
340.3896, 7.931736
340.8717, 7.574070
341.3538, 7.338272
341.8359, 6.924587
342.3180, 6.227509
342.8001, 5.398252
343.2822, 4.634787
343.7643, 3.944990
344.2465, 3.234953
344.7286, 2.345863
345.2107, 1.499025
345.6928, 1.009892
346.1749, 0.9164370
346.6570, 0.8709110
347.1392, 0.5007590
347.6213, 0.1938510
348.1034, 0.4961810
348.5855, 5.7381000E-02
349.0676, 0.6142650
349.5497, 0.4475650
350.0319, 0.2909870
350.5140, 0.7679310
350.9961, 0.3932970
351.4782, 0.5785480
351.9603, 0.9354320
352.4424, 0.2271480
352.9246, 0.4300420
353.4067, 0.6556820
353.8888, 0.6086270
354.3709, 0.5729200
354.8530, 0.6612030
355.3351, 0.7868670
355.8173, 0.7692620
356.2994, 0.5014780
356.7815, 0.3340910
357.2636, 0.3423100
357.7457, 0.4418260
358.2278, 0.6337760
358.7100, 0.8901560
359.1921, 0.9927310
359.6742, 0.6320710
360.1563, 0.3471220
360.6384, 0.7817860
361.1205, 0.2182920
361.6027, 0.4190670
362.0848, 0.6199530
362.5669, 0.4476570
363.0490, 0.2354930
363.5311, 0.2117960
364.0132, 0.3469030
364.4954, 0.3931370
364.9775, 0.2496170
365.4596, 0.1387480
365.9417, 0.1148410
366.4238, 0.1475120
366.9059, 0.2250920
367.3881, 0.3424150
367.8702, 0.4258690
368.3523, 0.3086380
368.8344, 0.3030450
369.3165, 0.6288360
369.7986, 0.5032790
370.2808, 0.2330780
370.7629, 5.8920002E-03
371.2450, 0.1631580
371.7271, 0.2250770
372.2092, 0.1568600
372.6913, 8.0654003E-02
373.1735, 0.1931080
373.6556, 6.2592000E-02
374.1377, 6.4366996E-02
374.6198, 0.1546650
375.1019, 0.1730670
375.5840, 4.0713999E-02
376.0662, 0.3139670
376.5483, 0.8193320
377.0304, 1.122042
377.5125, 1.069830
377.9946, 1.021700
378.4767, 1.040739
378.9589, 1.090006
379.4410, 1.144785
379.9231, 1.193399
380.4052, 1.207762
380.8873, 1.112318
381.3694, 0.8317530
381.8516, 0.6957260
382.3337, 0.9030760
382.8158, 1.117136
383.2979, 1.122049
383.7800, 0.9492570
384.2621, 0.8060420
384.7443, 0.8807810
385.2264, 1.155245
385.7085, 1.402769
386.1906, 1.624149
386.6727, 1.816177
387.1548, 2.026653
387.6370, 2.200083
388.1191, 2.231564
388.6012, 2.039909
389.0833, 1.761829
389.5654, 1.637016
390.0475, 1.684275
390.5297, 1.801432
391.0118, 2.065329
391.4939, 2.319927
391.9760, 2.431877
392.4581, 2.383314
392.9402, 2.261922
393.4224, 2.067126
393.9045, 1.831740
394.3866, 1.785024
394.8687, 2.057796
395.3508, 2.360004
395.8329, 2.474185
396.3151, 2.430982
396.7972, 2.311682
397.2793, 2.056906
397.7614, 1.785940
398.2435, 1.674746
398.7256, 1.732694
399.2078, 1.856395
399.6899, 2.021100
400.1720, 2.203034
400.6541, 2.350044
401.1362, 2.444239
401.6183, 2.532806
402.1005, 2.694091
402.5826, 2.875087
403.0647, 2.891688
403.5468, 2.643131
404.0289, 2.334496
404.5110, 2.290005
404.9932, 2.527985
405.4753, 2.710184
405.9574, 2.747157
406.4395, 2.749249
406.9216, 2.707029
407.4037, 2.636522
407.8859, 2.655443
408.3680, 2.910177
408.8501, 3.410702
409.3322, 3.609407
409.8143, 3.284361
410.2964, 2.903001
410.7786, 2.501019
411.2607, 2.162086
411.7428, 2.066342
412.2249, 2.290848
412.7070, 2.617441
413.1891, 2.618162
413.6713, 1.980034
414.1534, 1.615760
414.6355, 1.666582
415.1176, 1.853129
415.5997, 2.025821
416.0818, 2.139496
416.5640, 2.170965
417.0461, 2.102180
417.5282, 1.960455
418.0103, 1.916924
418.4924, 2.002737
418.9745, 2.048508
419.4567, 1.914012
419.9388, 1.732203
420.4209, 1.719695
420.9030, 1.969324
421.3851, 2.304687
421.8672, 2.348328
422.3494, 1.946870
422.8315, 1.678690
423.3136, 1.659633
423.7957, 1.723703
424.2778, 1.810727
424.7599, 1.893495
425.2421, 1.924609
425.7242, 1.819837
426.2063, 1.618913
426.6884, 1.643693
427.1705, 2.039114
427.6526, 2.336760
428.1348, 2.248552
428.6169, 1.963386
429.0990, 1.775682
429.5811, 1.829362
430.0632, 1.934823
430.5453, 1.799067
431.0275, 1.404869
431.5096, 1.147035
431.9917, 1.231728
432.4738, 1.409101
432.9559, 1.381310
433.4380, 1.161055
433.9202, 1.020597
434.4023, 1.191688
434.8844, 1.477298
435.3665, 1.486431
435.8486, 1.138425
436.3307, 0.8152610
436.8129, 0.8129630
437.2950, 1.072213
437.7771, 1.287905
438.2592, 1.424272
438.7413, 1.544157
439.2234, 1.721236
439.7056, 1.906271
440.1877, 1.960573
440.6698, 1.815035
441.1519, 1.588264
441.6340, 1.485450
442.1161, 1.589789
442.5983, 1.571769
443.0804, 1.279670
443.5625, 0.9645510
444.0446, 0.7971730
444.5267, 0.7885270
445.0089, 0.8884340
445.4910, 1.077321
445.9731, 1.336082
446.4552, 1.486675
446.9373, 1.556715
447.4194, 1.471887
447.9016, 0.9621120
448.3837, 0.4146620
448.8658, 0.3509120
449.3479, 0.8913700
449.8300, 1.598747
450.3121, 1.814579
450.7943, 1.372728
451.2764, 1.065946
451.7585, 0.9700470
452.2406, 0.9273040
452.7227, 0.8745230
453.2048, 0.8285450
453.6870, 0.8556840
454.1691, 1.001046
454.6512, 1.196453
455.1333, 1.263863
455.6154, 1.147938
456.0975, 1.069854
456.5797, 1.132943
457.0618, 1.243514
457.5439, 1.337071
458.0260, 1.403975
458.5081, 1.464660
458.9902, 1.568480
459.4724, 1.682686
459.9545, 1.670988
460.4366, 1.482962
460.9187, 1.268784
461.4008, 1.170401
461.8829, 1.132463
462.3651, 1.011806
462.8472, 0.6454690
463.3293, 0.3379340
463.8114, 0.4047170
464.2935, 0.7405080
464.7756, 0.9520130
465.2578, 0.8751650
465.7399, 0.6666900
466.2220, 0.5804560
466.7041, 0.6263130
467.1862, 0.7404020
467.6683, 1.076610
468.1505, 1.361299
468.6326, 1.260952
469.1147, 0.8454880
469.5968, 0.5535410
470.0789, 0.7287710
470.5610, 1.269012
471.0432, 1.479444
471.5253, 0.9396420
472.0074, 0.5789990
472.4895, 0.6078530
472.9716, 0.8045590
473.4537, 0.9938450
473.9359, 1.112291
474.4180, 1.123014
474.9001, 0.9482650
475.3822, 0.5543910
475.8643, 0.2684360
476.3464, 2.8023001E-02
476.8286, 2.7199000E-02
477.3107, 0.3274300
477.7928, 0.8532700
478.2749, 1.150050
478.7570, 1.020815
479.2391, 0.7093740
479.7213, 0.6193640
480.2034, 0.7976150
480.6855, 0.8720110
481.1676, 0.6408980
481.6497, 0.3963350
482.1318, 0.4037940
482.6140, 0.6357320
483.0961, 0.8491580
483.5782, 0.9753640
484.0603, 0.9921340
484.5424, 0.7887290
485.0245, 0.3537230
485.5067, 4.2013999E-02
485.9888, 0.1023860
486.4709, 0.3908340
486.9530, 0.5078040
487.4351, 0.3502530
487.9172, 0.2620020
488.3994, 0.4087510
488.8815, 0.6704520
489.3636, 0.9320630
489.8457, 1.163148
490.3278, 1.280696
490.8099, 1.192142
491.2921, 0.8895710
491.7742, 0.5737450
492.2563, 5.8327001E-02
492.7384, 0.2537360
493.2205, 7.8855999E-02
493.7026, 0.3187990
494.1848, 0.5711870
494.6669, 0.5425970
495.1490, 0.3692770
495.6311, 0.2579850
496.1132, 0.2277440
496.5953, 0.1977840
497.0775, 0.1013740
497.5596, 6.9702998E-02
498.0417, 0.2518800
498.5238, 0.5354200
499.0059, 0.6577440
499.4880, 0.4279990
499.9702, 6.2004998E-02
500.4523, 4.2557001E-02
500.9344, 0.4448230
501.4165, 0.7235860
501.8986, 0.6765020
502.3807, 0.4823880
502.8629, 0.2612070
503.3450, 2.4511000E-02
503.8271, 0.1235070
504.3092, 0.1194450
504.7913, 2.9990000E-03
505.2734, 0.2219810
505.7556, 0.5570140
506.2377, 0.7863590
506.7198, 0.7761080
507.2019, 0.5836510
507.6840, 0.3611700
508.1661, 1.1300000E-02
508.6482, 0.1876460
509.1303, 4.6000001E-04
509.6125, 0.2914570
510.0946, 0.3074110
510.5767, 1.6723000E-02
511.0588, 0.2560010
511.5409, 0.1912950
512.0231, 0.2082070
512.5052, 0.4460310
512.9873, 0.3782050
513.4694, 0.3182240
513.9515, 0.3513650
514.4337, 0.4105480
514.9158, 0.3941780
515.3979, 0.2810100
515.8800, 0.1731500
516.3621, 0.2342940
516.8442, 0.4926290
517.3264, 0.6155750
517.8085, 0.5329300
518.2906, 0.3954520
518.7727, 0.2574340
519.2548, 0.1228390
519.7369, 1.3350000E-02
520.2191, 4.2675000E-02
520.7012, 5.8355998E-02
521.1833, 6.1154000E-02
521.6654, 4.3264002E-02
522.1475, 6.1526999E-02
522.6296, 0.3035620
523.1118, 0.5622820
523.5939, 0.7259750
524.0760, 0.7997470
524.5581, 0.7625780
525.0402, 0.4472630
525.5223, 0.1629510
526.0045, 0.1918400
526.4866, 0.4407680
526.9687, 0.6186520
527.4508, 0.5941720
527.9329, 0.4733510
528.4150, 0.4622310
528.8972, 0.6777800
529.3793, 0.7231080
529.8614, 0.3983210
530.3435, 9.8686002E-02
530.8256, 0.1133430
531.3077, 0.3383450
531.7899, 0.4628160
532.2720, 0.2896760
532.7541, 3.7718002E-02
533.2362, 0.1245170
533.7183, 0.1391860
534.2004, 0.3274050
534.6826, 0.3659320
535.1647, 0.3119130
535.6468, 8.8032000E-02
536.1289, 0.2390810
536.6110, 0.3918450
537.0931, 8.7929003E-02
537.5753, 0.4357730
538.0574, 0.7624920
538.5395, 0.8910960
539.0216, 0.8480190
539.5037, 0.5222820
539.9858, 0.1420920
540.4680, 0.1449960
540.9501, 0.6150330
541.4322, 0.9174510
541.9143, 0.7052040
542.3964, 0.3546110
542.8785, 0.2501420
543.3607, 0.3868690
543.8428, 0.5579980
544.3249, 0.6396270
544.8070, 0.6411610
545.2891, 0.5979010
545.7712, 0.4138460
546.2534, 0.3196620
546.7355, 0.3921080
547.2176, 0.5017570
547.6997, 0.5472370
548.1818, 0.5312370
548.6639, 0.5251950
549.1461, 0.5918390
549.6282, 0.7071110
550.1103, 0.7662470
550.5924, 0.7437740
551.0745, 0.7198080
551.5566, 0.7367240
552.0388, 0.7376770
552.5209, 0.6512070
553.0030, 0.4741740
553.4851, 0.3355520
553.9672, 0.3276760
554.4493, 0.3986000
554.9315, 0.4514680
555.4136, 0.4811750
555.8957, 0.5541650
556.3778, 0.7609450
556.8599, 0.9936180
557.3420, 0.9175520
557.8242, 0.3617950
558.3063, 2.9770000E-02
558.7884, 4.9166001E-02
559.2705, 8.0218002E-02
559.7526, 0.1880690
560.2347, 0.2535090
560.7169, 0.3071500
561.1990, 0.3754290
561.6811, 0.4349900
562.1632, 0.3826590
562.6453, 9.2496999E-02
563.1274, 8.6506002E-02
563.6096, 6.9049999E-02
564.0917, 2.0622000E-02
564.5738, 9.8774001E-02
565.0559, 0.1607400
565.5380, 0.2487950
566.0201, 0.4248430
566.5023, 0.6279380
566.9844, 0.6929640
567.4665, 0.5841660
567.9486, 0.5425480
568.4307, 0.7170320
568.9128, 0.9427690
569.3950, 1.006719
569.8771, 0.9004230
570.3592, 0.7979700
570.8413, 0.7811150
571.3234, 0.7546060
571.8055, 0.5823600
572.2877, 0.3044870
572.7698, 0.1416010
573.2519, 0.2297880
573.7340, 0.4664210
574.2161, 0.5936020
574.6982, 0.6122750
575.1804, 0.5054210
575.6625, 5.0071001E-02
576.1446, 0.3269770
576.6267, 0.3154610
577.1088, 1.0140000E-03
577.5909, 0.3533770
578.0731, 0.6011770
578.5552, 0.7629470
579.0373, 0.8738420
579.5194, 0.9271990
580.0015, 0.9722340
580.4836, 1.036321
580.9658, 1.070935
581.4479, 1.030046
581.9300, 0.9278240
582.4121, 0.8265410
582.8942, 0.7368000
583.3763, 0.6673750
583.8585, 0.6369960
584.3406, 0.6369020
584.8227, 0.6224950
585.3048, 0.5705120
585.7869, 0.5408600
586.2690, 0.6347300
586.7512, 0.9030720
587.2333, 1.033457
587.7154, 0.9651140
588.1975, 0.8366440
588.6796, 0.6227610
589.1617, 0.4115080
589.6438, 0.3463640
590.1259, 0.4757300
590.6080, 0.6864270
591.0901, 0.8481650
591.5723, 0.9778530
592.0544, 0.9501870
592.5365, 0.6113620
593.0186, 0.3398610
593.5007, 0.3765570
593.9828, 0.5548040
594.4650, 0.6315480
594.9471, 0.5447480
595.4292, 0.4609710
595.9113, 0.5509000
596.3934, 0.7357340
596.8755, 0.8341140
597.3577, 0.8183690
597.8398, 0.7246440
598.3219, 0.5453230
598.8040, 0.3118950
599.2861, 0.2445390
599.7682, 0.4642290
600.2504, 0.6388420
600.7325, 0.7069640
601.2146, 0.7302730
601.6967, 0.7669970
602.1788, 0.8156640
602.6609, 0.8259830
603.1431, 0.7529790
603.6252, 0.6143860
604.1073, 0.4794690
604.5894, 0.3246430
605.0715, 0.2354940
605.5536, 0.2333230
606.0358, 0.3067470
606.5179, 0.5260180
607.0000, 0.8556830
607.4821, 1.044573
607.9642, 0.8852480
608.4464, 0.5785160
608.9285, 0.3076030
609.4106, 9.1068000E-02
609.8927, 4.7805000E-02
610.3748, 0.2503640
610.8569, 0.5577560
611.3391, 0.7795280
611.8212, 0.9278760
612.3033, 0.9109540
612.7854, 0.5630280
613.2675, 0.2343690
613.7496, 0.1006880
614.2318, 9.0506002E-02
614.7139, 6.4083003E-02
615.1960, 1.6478000E-02
615.6781, 9.5399000E-02
616.1602, 0.1111130
616.6423, 6.2786996E-02
617.1245, 7.7951998E-02
617.6066, 0.3955060
618.0887, 0.6498670
618.5708, 0.6725650
619.0529, 0.5793220
619.5350, 0.5215930
620.0172, 0.5242110
620.4993, 0.5564480
620.9814, 0.6046710
621.4635, 0.6684980
621.9456, 0.7585030
622.4277, 0.8657800
622.9099, 0.9385130
623.3920, 0.9488910
623.8741, 0.8922270
624.3562, 0.7478310
624.8383, 0.2920600
625.3204, 8.3925001E-02
625.8026, 0.4041230
626.2847, 0.7233790
626.7668, 0.6306510
627.2489, 0.2360260
627.7310, 7.7783003E-02
628.2131, 9.1278002E-02
628.6953, 5.6434002E-02
629.1774, 0.1196760
629.6595, 9.4351999E-02
630.1416, 0.1062280
630.6237, 0.1819800
631.1058, 0.2931790
631.5880, 0.4399340
632.0701, 0.6065200
632.5522, 0.7396800
633.0343, 0.8515010
633.5164, 0.9036870
633.9985, 0.7997990
634.4807, 0.6478240
634.9628, 0.6157940
635.4449, 0.7114360
635.9270, 0.8270910
636.4091, 0.8693440
636.8912, 0.8423620
637.3734, 0.7792140
637.8555, 0.6135750
638.3376, 0.5084680
638.8197, 0.5425280
639.3018, 0.5993890
639.7839, 0.5928900
640.2661, 0.5343460
640.7482, 0.4642400
641.2303, 0.3627030
641.7124, 0.2678690
642.1945, 0.2757600
642.6766, 0.3804340
643.1588, 0.5213640
643.6409, 0.7083000
644.1230, 0.8421480
644.6051, 0.7565560
645.0872, 0.4060790
645.5693, 0.2636460
646.0515, 0.5402430
646.5336, 0.7854070
647.0157, 0.8042430
647.4978, 0.6935010
647.9799, 0.5764430
648.4620, 0.4928910
648.9442, 0.4297440
649.4263, 0.3647910
649.9084, 0.3059670
650.3905, 0.3086190
650.8726, 0.4030420
651.3547, 0.4768820
651.8369, 0.4474570
652.3190, 0.4096980
652.8011, 0.4814840
653.2832, 0.6671180
653.7653, 0.8046670
654.2474, 0.8475290
654.7296, 0.8042870
655.2117, 0.6435060
655.6938, 0.4004260
656.1759, 0.1525440
656.6580, 7.4262999E-02
657.1401, 0.1868760
657.6223, 1.4506000E-02
658.1044, 0.5258940
658.5865, 0.8517380
659.0686, 0.7314700
659.5507, 0.6533780
660.0328, 0.8356030
660.5150, 1.067799
660.9971, 1.085748
661.4792, 0.8408490
661.9613, 0.5499990
662.4434, 0.3363820
662.9255, 0.2159090
663.4077, 0.2854310
663.8898, 0.5464680
664.3719, 0.7116360
664.8540, 0.6204320
665.3361, 0.4219470
665.8182, 0.3828300
666.3004, 0.5707440
666.7825, 0.6212370
667.2646, 0.3856570
667.7467, 0.1675920
668.2288, 0.1376120
668.7109, 0.2224760
669.1931, 0.3168760
669.6752, 0.3798700
670.1573, 0.3851120
670.6394, 0.2450110
671.1215, 1.8734001E-02
671.6036, 8.2231998E-02
672.0858, 0.1210540
672.5679, 0.3227860
673.0500, 0.4056270
673.5321, 0.4092390
674.0142, 0.3992910
674.4963, 0.3793000
674.9785, 0.3591460
675.4606, 0.2682590
675.9427, 0.2284690
676.4248, 0.4214020
676.9069, 0.7439580
677.3890, 0.9212090
677.8712, 0.8463980
678.3533, 0.6608820
678.8354, 0.5621680
679.3175, 0.5557510
679.7996, 0.5865560
680.2817, 0.6890730
680.7639, 0.7766850
681.2460, 0.7995630
681.7281, 0.8043740
682.2102, 0.8616080
682.6923, 0.9825110
683.1744, 1.046172
683.6566, 0.9771760
684.1387, 0.8266290
684.6208, 0.5973050
685.1029, 0.3320640
685.5850, 0.2082280
686.0671, 0.3260990
686.5493, 0.5446300
687.0314, 0.6217240
687.5135, 0.5115280
687.9956, 0.4934910
688.4777, 0.7438640
688.9598, 0.8811910
689.4420, 0.6860590
689.9241, 0.3951150
690.4062, 0.2906780
690.8883, 0.4178300
691.3704, 0.5748900
691.8525, 0.6268500
692.3347, 0.6014850
692.8168, 0.5390540
693.2989, 0.4424010
693.7810, 0.3229040
694.2631, 0.1576570
694.7452, 5.7994001E-02
695.2274, 0.2310540
695.7095, 0.7761630
696.1916, 0.9688540
696.6737, 0.5303730
697.1558, 0.1064240
697.6379, 0.1859310
698.1201, 0.3041640
698.6022, 0.1487170
699.0843, 0.2614240
699.5664, 0.6473420
700.0485, 0.7298090
700.5306, 0.6434700
701.0128, 0.7914920
701.4949, 1.186087
701.9770, 1.427071
702.4591, 1.352703
702.9412, 1.147908
703.4233, 1.034822
703.9055, 1.021893
704.3876, 0.9028350
704.8697, 0.5287300
705.3518, 0.2213660
705.8339, 4.5897000E-02
706.3160, 2.4653999E-02
706.7982, 0.2859680
707.2803, 0.7698030
707.7624, 1.144235
708.2445, 1.124337
708.7266, 0.8306210
709.2087, 0.5308430
709.6909, 0.2005830
710.1730, 0.1763590
710.6551, 0.7344960
711.1372, 1.290935
711.6193, 1.199564
712.1014, 0.5861640
712.5836, 0.1948060
713.0657, 0.2179190
713.5478, 0.2865620
714.0299, 0.2771690
714.5120, 0.2454960
714.9941, 0.3003170
715.4763, 0.4423230
715.9584, 0.5105600
716.4405, 0.3758910
716.9226, 0.1412070
717.4047, 5.5435002E-02
717.8868, 0.1330880
718.3690, 0.2184670
718.8511, 0.2906940
719.3332, 0.3663610
719.8153, 0.4833290
720.2974, 0.6086220
720.7795, 0.6635830
721.2617, 0.6470290
721.7438, 0.5528900
722.2259, 0.2649150
722.7080, 1.9351000E-02
723.1901, 0.1162060
723.6722, 3.3266999E-02
724.1544, 0.1628270
724.6365, 0.4421600
725.1186, 0.7185010
725.6007, 0.8266840
726.0828, 0.7536770
726.5649, 0.7054570
727.0471, 0.7102480
727.5292, 0.6940250
728.0113, 0.5620830
728.4934, 0.4108340
728.9755, 0.4082880
729.4576, 0.6096950
729.9398, 0.7530400
730.4219, 0.6791220
730.9040, 0.5737120
731.3861, 0.6329930
731.8682, 0.7693710
732.3503, 0.7531920
732.8325, 0.5115830
733.3146, 0.2161100
733.7967, 5.7163998E-02
734.2788, 3.6111999E-02
734.7609, 0.2039130
735.2430, 0.6686120
735.7252, 0.9851350
736.2073, 0.9012710
736.6894, 0.6783610
737.1715, 0.6396320
737.6536, 0.7752100
738.1357, 0.8240390
738.6179, 0.6567960
739.1000, 0.4722830
739.5821, 0.3509290
740.0642, 0.2918580
740.5463, 0.3294800
741.0284, 0.4459500
741.5106, 0.4996870
741.9927, 0.3315730
742.4748, 6.3873999E-02
742.9569, 0.1795210
743.4390, 0.7786240
743.9211, 1.125413
744.4033, 0.9804190
744.8854, 0.7020580
745.3675, 0.5777270
745.8496, 0.5573700
746.3317, 0.4738360
746.8138, 0.2203950
747.2960, 5.6673001E-02
747.7781, 0.1215920
748.2602, 0.2684090
748.7423, 0.3764130
749.2244, 0.4380030
749.7065, 0.4907460
750.1887, 0.5559300
750.6708, 0.6061710
751.1529, 0.5771290
751.6350, 0.4678750
752.1171, 0.4107380
752.5992, 0.4324430
753.0814, 0.4411140
753.5635, 0.3822890
754.0456, 0.2768030
754.5277, 0.1422490
755.0098, 5.8676999E-02
755.4919, 0.1357520
755.9741, 5.4127999E-02
756.4562, 0.2866540
756.9383, 0.4723210
757.4204, 0.5898930
757.9025, 0.6216040
758.3846, 0.5742640
758.8668, 0.5184580
759.3489, 0.5438200
759.8310, 0.6010170
760.3131, 0.5127880
760.7952, 0.2754010
761.2773, 9.0262003E-02
761.7595, 6.5779998E-03
762.2416, 2.5759000E-02
762.7237, 0.1912600
763.2058, 0.4944950
763.6879, 0.6473890
764.1700, 0.4876240
764.6522, 0.4215930
765.1343, 0.6134820
765.6164, 0.8407820
766.0985, 0.9382900
766.5806, 0.9060640
767.0627, 0.8067500
767.5449, 0.6623090
768.0270, 0.4951790
768.5091, 0.2936820
768.9912, 9.1381997E-02
769.4733, 4.6282001E-02
769.9554, 0.1784330
770.4376, 0.2533910
770.9197, 0.1080350
771.4018, 0.1233540
771.8839, 0.1306840
772.3660, 0.1821250
772.8481, 0.4457760
773.3303, 0.7401370
773.8124, 0.8985450
774.2945, 0.7620030
774.7766, 0.5114330
775.2587, 0.3706940
775.7408, 0.3769140
776.2230, 0.3956830
776.7051, 0.2639750
777.1872, 0.1612460
777.6693, 0.4002420
778.1514, 0.8539050
778.6335, 1.132128
779.1157, 1.128232
779.5978, 0.9458750
780.0799, 0.6549070
780.5620, 0.2848320
781.0441, 5.4030001E-02
781.5262, 6.1229998E-03
782.0084, 4.4705000E-02
782.4905, 0.3496510
782.9726, 0.5982930
783.4547, 0.5325910
783.9368, 0.2751900
784.4189, 0.1315800
784.9011, 0.1781690
785.3832, 0.3032550
785.8653, 0.6023860
786.3474, 0.8481840
786.8295, 0.7015710
787.3116, 0.2796340
787.7938, 1.6674999E-02
788.2759, 1.0459000E-02
788.7580, 0.1340130
789.2401, 0.1875350
789.7222, 0.1565050
790.2043, 0.1917040
790.6865, 0.3131230
791.1686, 0.4173140
791.6507, 0.4588020
792.1328, 0.4728230
792.6149, 0.5004940
793.0970, 0.5406750
793.5792, 0.5929200
794.0613, 0.7015510
794.5434, 0.7664590
795.0255, 0.7798590
795.5076, 0.7185410
795.9897, 0.4947590
796.4719, 0.1645670
796.9540, 6.3276999E-02
797.4361, 5.2547999E-02
797.9182, 5.2976999E-02
798.4003, 3.5744000E-02
798.8824, 5.8517002E-02
799.3646, 4.1230001E-02
799.8467, 0.1117390
800.3288, 0.3356830
800.8109, 0.6328010
801.2930, 0.9011990
801.7751, 0.8980180
802.2573, 0.4905190
802.7394, 0.2574930
803.2215, 0.3746270
803.7036, 0.4625400
804.1857, 0.3459320
804.6678, 0.1911590
805.1500, 0.2230990
805.6321, 0.4459610
806.1142, 0.5891830
806.5963, 0.4760670
807.0784, 0.2782080
807.5605, 8.1082001E-02
808.0427, 7.7655002E-02
808.5248, 0.1086730
809.0069, 8.8620000E-03
809.4890, 0.1368020
809.9711, 0.2765430
810.4532, 0.3813980
810.9354, 0.3487760
811.4175, 0.1528140
811.8996, 9.1310004E-03
812.3817, 0.1100500
812.8638, 6.6745996E-02
813.3459, 0.3905200
813.8281, 1.005647
814.3102, 1.165132
814.7923, 0.7347870
815.2744, 0.4233910
815.7565, 0.4398320
816.2386, 0.4754890
816.7208, 0.3190010
817.2029, 0.1113310
817.6850, 6.0855001E-02
818.1671, 0.1955090
818.6492, 0.3756980
819.1313, 0.5139160
819.6135, 0.6196970
820.0956, 0.7105720
820.5777, 0.7842450
821.0598, 0.8405510
821.5419, 0.8806780
822.0240, 0.8388500
822.5062, 0.6405010
822.9883, 0.3634690
823.4704, 0.2803920
823.9525, 0.5380350
824.4346, 0.6249040
824.9167, 0.3322960
825.3989, 0.1113820
825.8810, 0.2020700
826.3631, 0.4356460
826.8452, 0.6061600
827.3273, 0.6891560
827.8094, 0.6971960
828.2916, 0.5173700
828.7737, 0.3808890
829.2558, 0.5169550
829.7379, 0.7824350
830.2200, 0.9717220
830.7021, 1.021463
831.1843, 0.9124980
831.6664, 0.5839210
832.1485, 0.1984840
832.6306, 0.1719920
833.1127, 0.4798960
833.5948, 0.6409520
834.0770, 0.5638300
834.5591, 0.4772300
835.0412, 0.5262990
835.5233, 0.6571070
836.0054, 0.7476320
836.4875, 0.8073070
836.9697, 0.7972730
837.4518, 0.5818860
837.9339, 0.4648640
838.4160, 0.6938810
838.8981, 0.9795160
839.3802, 0.9285780
839.8624, 0.5559090
840.3445, 0.3336520
840.8266, 0.6151310
841.3087, 0.9912130
841.7908, 1.159058
842.2729, 1.172187
842.7551, 1.078047
843.2372, 0.9116700
843.7193, 0.7738770
844.2014, 0.7282700
844.6835, 0.7342430
845.1656, 0.7210690
845.6478, 0.6883050
846.1299, 0.6382670
846.6120, 0.5622010
847.0941, 0.5135170
847.5762, 0.5228920
848.0583, 0.5344220
848.5405, 0.4924450
849.0226, 0.3893550
849.5047, 0.3046610
849.9868, 0.1210900
850.4689, 0.1102080
850.9510, 0.5720740
851.4332, 1.035585
851.9153, 1.048952
852.3974, 0.7151790
852.8795, 0.4416570
853.3616, 0.3878810
853.8438, 0.4235150
854.3259, 0.4982160
854.8080, 0.5680860
855.2901, 0.5212450
855.7722, 0.4086120
856.2543, 0.4643350
856.7365, 0.7786210
857.2186, 1.089795
857.7007, 1.053520
858.1828, 0.7205400
858.6649, 0.4632280
859.1470, 0.2826020
859.6292, 0.1677850
860.1113, 0.1230150
860.5934, 0.1305160
861.0755, 0.1914390
861.5576, 0.3049090
862.0397, 0.3939170
862.5219, 0.4303180
863.0040, 0.4656390
863.4861, 0.5665840
863.9682, 0.5983920
864.4503, 0.3796130
864.9324, 9.7544000E-02
865.4146, 7.4447997E-02
865.8967, 0.3828670
866.3788, 0.6407230
866.8609, 0.5351660
867.3430, 0.3391860
867.8251, 0.2592280
868.3073, 0.2788570
868.7894, 0.4079030
869.2715, 0.6154670
869.7536, 0.7467730
870.2357, 0.6684930
870.7178, 0.4707320
871.2000, 0.3167970
871.6821, 0.2051810
872.1642, 0.1765730
872.6463, 0.2426930
873.1284, 0.3675780
873.6105, 0.5677050
874.0927, 0.7628360
874.5748, 0.8289270
875.0569, 0.7573490
875.5390, 0.6361050
876.0211, 0.3422680
876.5032, 0.1633770
876.9854, 0.2229830
877.4675, 0.3416530
877.9496, 0.3648250
878.4317, 0.3333240
878.9138, 0.4157120
879.3959, 0.7361300
879.8781, 0.9433640
880.3602, 0.7442860
880.8423, 0.4375560
881.3244, 0.3019190
881.8065, 0.2969410
882.2886, 0.2791340
882.7708, 0.2074760
883.2529, 0.1583400
883.7350, 0.2211180
884.2171, 0.3396580
884.6992, 0.3672420
885.1813, 0.3195330
885.6635, 0.3320240
886.1456, 0.4342860
886.6277, 0.5265810
887.1098, 0.5363620
887.5919, 0.4951520
888.0740, 0.4950610
888.5562, 0.5853290
889.0383, 0.5348380
889.5204, 0.2120260
890.0025, 3.2598998E-02
890.4846, 6.5669999E-03
890.9667, 0.1109900
891.4489, 0.1245680
891.9310, 4.2817999E-02
892.4131, 4.7809999E-03
892.8952, 5.3410999E-02
893.3773, 0.1189160
893.8594, 0.2221410
894.3416, 0.3047610
894.8237, 0.2938310
895.3058, 0.2272320
895.7879, 0.1971320
896.2700, 0.2356230
896.7521, 0.3000020
897.2343, 0.3878660
897.7164, 0.4601460
898.1985, 0.4091670
898.6806, 0.2999800
899.1627, 0.3609540
899.6448, 0.6263610
900.1270, 0.8655800
900.6091, 0.8873150
901.0912, 0.7497400
901.5733, 0.5641060
902.0554, 0.3276540
902.5375, 0.2583560
903.0197, 0.4282230
903.5018, 0.4996200
903.9839, 0.2488280
904.4660, 9.3367003E-02
904.9481, 0.1422720
905.4302, 0.1420560
905.9124, 0.3314660
906.3945, 0.4061020
906.8766, 0.4118310
907.3587, 0.2210660
907.8408, 8.8097997E-02
908.3229, 0.2984570
908.8051, 0.6953660
909.2872, 0.8401920
909.7693, 0.5647290
910.2514, 0.3117540
910.7335, 0.2770540
911.2156, 0.2907920
911.6978, 0.2299420
912.1799, 0.1332190
912.6620, 4.7162000E-02
913.1441, 2.8220001E-03
913.6262, 5.3826999E-02
914.1083, 0.3332670
914.5905, 0.6246440
915.0726, 0.5877470
915.5547, 0.3618620
916.0368, 0.3146790
916.5189, 0.4560370
917.0010, 0.5432140
917.4832, 0.4544830
917.9652, 0.2653350
918.4473, 5.7096999E-02
918.9294, 0.1679850
919.4116, 0.1811900
919.8937, 5.5505000E-02
920.3758, 0.2325190
920.8579, 0.2651700
921.3400, 0.2559670
921.8221, 0.2829090
922.3043, 0.3013360
922.7864, 0.1944510
923.2685, 0.2356420
923.7506, 0.3544750
924.2327, 0.1469360
924.7148, 0.5969680
925.1970, 0.8331190
925.6791, 0.8742790
926.1612, 0.6562690
926.6433, 0.2143600
927.1254, 8.4854998E-02
927.6075, 7.6062001E-02
928.0897, 1.5357000E-02
928.5718, 1.2216000E-02
929.0539, 1.6481999E-02
929.5360, 0.1837700
930.0181, 0.4260930
930.5002, 0.6092970
930.9824, 0.6892420
931.4645, 0.6954830
931.9466, 0.6083520
932.4287, 0.4921150
932.9108, 0.4204030
933.3929, 0.3851710
933.8751, 0.3778940
934.3572, 0.3885070
934.8393, 0.3668920
935.3214, 0.2732780
935.8035, 0.1846100
936.2856, 0.2625890
936.7678, 0.4776240
937.2499, 0.6145850
937.7320, 0.6645200
938.2141, 0.6680870
938.6962, 0.6318630
939.1783, 0.5949980
939.6605, 0.6031560
940.1426, 0.6453330
940.6247, 0.6463540
941.1068, 0.5716280
941.5889, 0.5695330
942.0710, 0.7186570
942.5532, 0.8258630
943.0353, 0.7530140
943.5174, 0.6071500
943.9995, 0.5937440
944.4816, 0.7379190
944.9637, 0.7098470
945.4459, 0.2668920
945.9280, 3.4580000E-02
946.4101, 1.4279000E-02
946.8922, 0.1384240
947.3743, 0.3646450
947.8564, 0.5911540
948.3386, 0.6964130
948.8207, 0.6419210
949.3028, 0.5151060
949.7849, 0.2144730
950.2670, 1.7270000E-03
950.7491, 0.1630790
951.2313, 0.4824970
951.7134, 0.6459730
952.1955, 0.6303760
952.6776, 0.6184880
953.1597, 0.7299970
953.6418, 0.7948800
954.1240, 0.4904070
954.6061, 7.9732001E-02
955.0882, 9.6560001E-02
955.5703, 0.4637380
956.0524, 0.8292340
956.5345, 1.064888
957.0167, 1.098023
957.4988, 0.8128990
957.9809, 0.3712680
958.4630, 0.2151700
958.9451, 0.3190640
959.4272, 0.2957620
959.9094, 8.8041998E-02
960.3915, 6.5898001E-02
960.8736, 0.4520320
961.3557, 0.9279170
961.8378, 1.008495
962.3199, 0.7087450
962.8021, 0.6777080
963.2842, 1.094323
963.7663, 1.229241
964.2484, 0.8220830
964.7305, 0.3704150
965.2126, 0.1817100
965.6948, 0.1709510
966.1769, 0.1540500
966.6590, 0.1161950
967.1411, 0.1311350
967.6232, 0.2133150
968.1053, 0.3266990
968.5875, 0.5124970
969.0696, 0.6839080
969.5517, 0.7744590
970.0338, 0.7943100
970.5159, 0.7740500
970.9980, 0.6895030
971.4802, 0.6563010
971.9623, 0.8030870
972.4444, 0.9008050
972.9265, 0.7492620
973.4086, 0.5154630
973.8907, 0.4431850
974.3729, 0.5159090
974.8550, 0.4837150
975.3371, 0.1547420
975.8192, 8.6188003E-02
976.3013, 0.1998140
976.7834, 0.5822120
977.2656, 0.5808010
977.7477, 0.3186370
978.2298, 4.4379000E-02
978.7119, 0.1465770
979.1940, 0.1897880
979.6761, 1.3377000E-02
980.1583, 0.2887560
980.6404, 0.3672110
981.1225, 0.3083110
981.6046, 0.3128950
982.0867, 0.4154980
982.5688, 0.4892900
983.0510, 0.4940290
983.5331, 0.4894290
984.0152, 0.5410070
984.4973, 0.6346550
984.9794, 0.7406750
985.4615, 0.8599600
985.9437, 0.8681070
986.4258, 0.7382830
986.9079, 0.6515200
987.3900, 0.6995190
987.8721, 0.7960860
988.3542, 0.8058240
988.8364, 0.7307730
989.3185, 0.6085680
989.8006, 0.4145920
990.2827, 0.2972390
990.7648, 0.3096740
991.2469, 0.3326860
991.7291, 0.2752160
992.2112, 0.1903890
992.6933, 0.2035410
993.1754, 0.3616910
993.6575, 0.4268360
994.1396, 0.3579910
994.6218, 0.3138290
995.1039, 0.3496630
995.5860, 0.3986190
996.0681, 0.3932860
996.5502, 0.2128240
997.0323, 0.4032470
997.5145, 0.5092630
997.9966, 0.5354460
998.4787, 0.2407490
998.9608, 0.3618780
999.4429, 0.3172660
999.9250, 0.2664750
1000.407, 0.4479720
1000.889, 0.2032630
1001.371, 0.3823760
1001.854, 0.3932080
1002.336, 0.4819990
1002.818, 0.4040220
1003.300, 0.3783970
1003.782, 0.5159060
1004.264, 0.5626120
1004.746, 0.4678580
1005.228, 0.5654350
1005.710, 0.3214200
1006.193, 0.3784950
1006.675, 0.5658130
1007.157, 0.4829180
1007.639, 0.5869100
1008.121, 0.6184430
1008.603, 0.3362910
1009.085, 0.6173380
1009.567, 0.6489520
1010.049, 0.3631860
1010.532, 0.3860970
1011.014, 0.4462810
1011.496, 0.4266340
1011.978, 0.3867320
1012.460, 0.3886970
1012.942, 0.4346010
1013.424, 0.6245590
1013.906, 0.9613080
1014.389, 1.182355
1014.871, 1.074962
1015.353, 0.8043430
1015.835, 0.5460720
1016.317, 0.3273350
1016.799, 0.2190930
1017.281, 0.2195870
1017.763, 0.3419700
1018.245, 0.5732690
1018.728, 0.7111710
1019.210, 0.5377620
1019.692, 0.2329580
1020.174, 0.2125020
1020.656, 0.4106720
1021.138, 0.5054150
1021.620, 0.4741250
1022.102, 0.3696960
1022.585, 0.2094340
1023.067, 0.1239620
1023.549, 0.2750990
1024.031, 0.5640980
1024.513, 0.6509700
1024.995, 0.5410520
1025.477, 0.4812060
1025.959, 0.4949510
1026.442, 0.5437190
1026.924, 0.6271850
1027.406, 0.6388710
1027.888, 0.4171640
1028.370, 4.6514001E-02
1028.852, 2.4468999E-02
1029.334, 0.4137230
1029.816, 0.6899850
1030.298, 0.8040650
1030.781, 0.8105980
1031.263, 0.7054100
1031.745, 0.5709450
1032.227, 0.5074170
1032.709, 0.5083060
1033.191, 0.5152220
1033.673, 0.5188920
1034.155, 0.5523590
1034.637, 0.6517650
1035.120, 0.6625940
1035.602, 0.4420100
1036.084, 0.2019870
1036.566, 0.2217870
1037.048, 0.4894320
1037.530, 0.7218310
1038.012, 0.9682440
1038.494, 1.024763
1038.977, 0.7783370
1039.459, 0.4954070
1039.941, 0.2320910
1040.423, 4.8827998E-02
1040.905, 3.8752999E-02
1041.387, 0.1962520
1041.869, 0.3927240
1042.351, 0.8357560
1042.833, 0.9673860
1043.316, 0.4488840
1043.798, 8.8339997E-03
1044.280, 0.1012490
1044.762, 1.5313000E-02
1045.244, 0.2340970
1045.726, 0.5369400
1046.208, 0.6633850
1046.690, 0.3584770
1047.172, 0.2536220
1047.655, 0.5887140
1048.137, 0.9105840
1048.619, 1.107136
1049.101, 1.121024
1049.583, 0.7518120
1050.065, 6.6205002E-02
1050.547, 0.2726830
1051.029, 3.6520001E-03
1051.512, 0.3249120
1051.994, 0.8009420
1052.476, 1.086243
1052.958, 0.7889290
1053.440, 0.3525330
1053.922, 0.3563240
1054.404, 0.7618500
1054.886, 1.041965
1055.369, 1.088812
1055.851, 1.016862
1056.333, 0.6362660
1056.815, 0.3891890
1057.297, 0.6989440
1057.779, 1.146443
1058.261, 1.188192
1058.743, 0.8662940
1059.225, 0.6583390
1059.708, 0.7520750
1060.190, 0.7989500
1060.672, 0.6371880
1061.154, 0.4659870
1061.636, 0.3626410
1062.118, 0.3340680
1062.600, 0.4471570
1063.082, 0.6610430
1063.564, 0.7115180
1064.047, 0.4894480
1064.529, 0.2655510
1065.011, 0.1125620
1065.493, 9.7810002E-03
1065.975, 8.9397997E-02
1066.457, 0.1201910
1066.939, 6.5388002E-02
1067.421, 0.3875030
1067.904, 0.5684760
1068.386, 0.5257740
1068.868, 0.3654680
1069.350, 6.1749000E-02
1069.832, 0.3708130
1070.314, 0.2751480
1070.796, 8.7860003E-03
1071.278, 0.3323220
1071.760, 0.6173950
1072.243, 0.7277910
1072.725, 0.6078000
1073.207, 0.4464020
1073.689, 0.2724890
1074.171, 0.1433060
1074.653, 9.2334002E-02
1075.135, 0.1009080
1075.617, 0.1859610
1076.099, 0.3052840
1076.582, 0.3597560
1077.064, 0.3204640
1077.546, 0.2913130
1078.028, 0.3550220
1078.510, 0.3959350
1078.992, 0.2866830
1079.474, 0.1802050
1079.956, 0.2351270
1080.439, 0.4047910
1080.921, 0.5903980
1081.403, 0.7669980
1081.885, 0.8774210
1082.367, 0.8662470
1082.849, 0.8233230
1083.331, 0.7534520
1083.813, 0.7082900
1084.295, 0.8156540
1084.778, 0.9428890
1085.260, 0.8018010
1085.742, 0.3772280
1086.224, 8.5251004E-02
1086.706, 0.1750960
1087.188, 0.3039030
1087.670, 0.3211390
1088.152, 0.3124520
1088.635, 0.3356020
1089.117, 0.3808520
1089.599, 0.4423200
1090.081, 0.5085210
1090.563, 0.5227480
1091.045, 0.4121480
1091.527, 0.3655190
1092.009, 0.5925660
1092.491, 0.7662500
1092.974, 0.5588650
1093.456, 0.2483780
1093.938, 0.2284660
1094.420, 0.4545270
1094.902, 0.5590280
1095.384, 0.3959000
1095.866, 0.2582310
1096.348, 0.2548710
1096.830, 0.3039470
1097.313, 0.4476590
1097.795, 0.5553020
1098.277, 0.4291840
1098.759, 0.1628270
1099.241, 0.1001500
1099.723, 0.3077050
1100.205, 0.3990210
1100.687, 0.2007750
1101.170, 4.1003998E-02
1101.652, 9.0764001E-02
1102.134, 0.1906630
1102.616, 0.1818370
1103.098, 0.1510290
1103.580, 0.3630430
1104.062, 0.8740580
1104.544, 1.133090
1105.026, 0.8022500
1105.509, 0.4967660
1105.991, 0.3751810
1106.473, 0.3431610
1106.955, 0.3727320
1107.437, 0.4352940
1107.919, 0.5155800
1108.401, 0.5906640
1108.883, 0.6188840
1109.365, 0.5372820
1109.848, 0.4467630
1110.330, 0.2905520
1110.812, 0.2121290
1111.294, 0.2835720
1111.776, 0.4614730
1112.258, 0.7838830
1112.740, 1.189519
1113.222, 1.356221
1113.705, 1.143373
1114.187, 0.9599790
1114.669, 0.8385390
1115.151, 0.7332490
1115.633, 0.5857010
1116.115, 0.4906030
1116.597, 0.5648570
1117.079, 0.7418820
1117.562, 0.8496300
1118.044, 0.8899860
1118.526, 0.8534960
1119.008, 0.7436820
1119.490, 0.5397960
1119.972, 6.7702003E-02
1120.454, 0.2526380
1120.936, 7.8267001E-02
1121.418, 0.3239870
1121.901, 0.4960900
1122.383, 0.4314560
1122.865, 0.4858760
1123.347, 0.7878930
1123.829, 0.8454080
1124.311, 0.4684950
1124.793, 0.1923620
1125.275, 0.2726280
1125.757, 0.4975370
1126.240, 0.6450480
1126.722, 0.7146940
1127.204, 0.6854030
1127.686, 0.5047760
1128.168, 0.4145370
1128.650, 0.4420860
1129.132, 0.5243000
1129.614, 0.6592230
1130.097, 0.8007880
1130.579, 0.9173580
1131.061, 1.003475
1131.543, 1.047949
1132.025, 1.050992
1132.507, 0.9831660
1132.989, 0.8350620
1133.471, 0.7886820
1133.953, 0.8938520
1134.436, 0.8908260
1134.918, 0.6101800
1135.400, 0.2981590
1135.882, 0.3350810
1136.364, 0.6200610
1136.846, 0.6948230
1137.328, 0.5904390
1137.810, 0.6027810
1138.292, 0.7506850
1138.775, 0.8228680
1139.257, 0.7401650
1139.739, 0.6396190
1140.221, 0.6537970
1140.703, 0.7080880
1141.185, 0.6091170
1141.667, 0.4411590
1142.149, 0.5224110
1142.632, 0.7786090
1143.114, 0.8126850
1143.596, 0.5784210
1144.078, 0.4551660
1144.560, 0.6801950
1145.042, 0.9583380
1145.524, 0.9210390
1146.006, 0.7319130
1146.489, 0.6255370
1146.971, 0.5726600
1147.453, 0.4613920
1147.935, 0.3372720
1148.417, 0.4497970
1148.899, 0.8631890
1149.381, 1.126137
1149.863, 0.7256080
1150.345, 0.2947700
1150.828, 0.5205660
1151.310, 0.9354050
1151.792, 1.053949
1152.274, 0.9250920
1152.756, 0.6207950
1153.238, 0.2326480
1153.720, 8.5933998E-02
1154.202, 0.3884020
1154.684, 0.7286700
1155.167, 1.133795
1155.649, 1.233047
1156.131, 0.3804940
1156.613, 0.5824170
1157.095, 0.6231370
1157.577, 1.0670000E-02
1158.059, 0.2930460
1158.541, 6.4723000E-02
1159.024, 2.2321999E-02
1159.506, 0.4111330
1159.988, 0.6975510
1160.470, 0.5330750
1160.952, 0.2920650
1161.434, 0.1442540
1161.916, 9.5683001E-02
1162.398, 0.1992060
1162.880, 0.4378310
1163.363, 0.5013470
1163.845, 0.2192610
1164.327, 7.8220002E-02
1164.809, 0.1733710
1165.291, 0.2421990
1165.773, 0.1173790
1166.255, 7.5163998E-02
1166.737, 0.4084220
1167.219, 0.9407140
1167.702, 1.239778
1168.184, 1.303914
1168.666, 1.102583
1169.148, 0.5240060
1169.630, 0.2480010
1170.112, 0.4624710
1170.594, 0.6411340
1171.076, 0.5117010
1171.559, 0.2809800
1172.041, 0.1916100
1172.523, 0.2278870
1173.005, 0.3774640
1173.487, 0.6214030
1173.969, 0.7106430
1174.451, 0.6381890
1174.933, 0.5146460
1175.416, 0.3767460
1175.898, 0.2948490
1176.380, 0.3185640
1176.862, 0.4165690
1177.344, 0.6358660
1177.826, 0.8471580
1178.308, 0.6252520
1178.790, 0.1912130
1179.272, 6.2227000E-02
1179.755, 0.2288730
1180.237, 0.3795670
1180.719, 0.4005690
1181.201, 0.3978710
1181.683, 0.4502660
1182.165, 0.5133550
1182.647, 0.5898110
1183.129, 0.6139800
1183.611, 0.4314140
1184.094, 0.1845310
1184.576, 0.1235560
1185.058, 0.2496220
1185.540, 0.3952980
1186.022, 0.5119140
1186.504, 0.5997370
1186.986, 0.6793480
1187.468, 0.7030910
1187.951, 0.5598350
1188.433, 0.4358340
1188.915, 0.5023280
1189.397, 0.6879490
1189.879, 0.8990410
1190.361, 1.123108
1190.843, 1.155333
1191.325, 0.8048010
1191.807, 0.5436070
1192.290, 0.4210660
1192.772, 0.3471390
1193.254, 0.2827680
1193.736, 0.2722800
1194.218, 0.3774910
1194.700, 0.5471340
1195.182, 0.6451690
1195.664, 0.6620330
1196.146, 0.7377790
1196.629, 0.8973940
1197.111, 0.9711260
1197.593, 0.9232280
1198.075, 0.8572760
1198.557, 0.8229610
1199.039, 0.7670910
1199.521, 0.6350010
1200.003, 0.4809700
1200.486, 0.4747840
1200.968, 0.5808850
1201.450, 0.6310500
1201.932, 0.6158200
1202.414, 0.4937310
1202.896, 0.2851910
1203.378, 0.1759520
1203.860, 0.2699600
1204.343, 0.4201730
1204.825, 0.4901820
1205.307, 0.5089230
1205.789, 0.5103930
1206.271, 0.4867150
1206.753, 0.4109610
1207.235, 0.3044610
1207.717, 0.1841410
1208.199, 7.6546997E-02
1208.682, 9.3351997E-02
1209.164, 0.2864120
1209.646, 0.5264890
1210.128, 0.8473630
1210.610, 1.070548
1211.092, 1.049584
1211.574, 0.9179230
1212.056, 0.7563590
1212.538, 0.6006420
1213.021, 0.4975600
1213.503, 0.4509690
1213.985, 0.4699340
1214.467, 0.5431810
1214.949, 0.6421550
1215.431, 0.8785900
1215.913, 1.024043
1216.395, 1.025999
1216.878, 0.8833750
1217.360, 0.5296550
1217.842, 0.1096350
1218.324, 2.0955000E-02
1218.806, 0.2721870
1219.288, 0.4308490
1219.770, 0.4903770
1220.252, 0.5463550
1220.734, 0.6121690
1221.217, 0.6860640
1221.699, 0.7684280
1222.181, 0.7896940
1222.663, 0.6576890
1223.145, 0.4949120
1223.627, 0.5634600
1224.109, 0.7616310
1224.591, 0.8607670
1225.073, 0.8778060
1225.556, 0.9323930
1226.038, 0.9922240
1226.520, 0.8073220
1227.002, 0.2839460
1227.484, 0.1321360
1227.966, 5.5505998E-02
1228.448, 0.1480110
1228.930, 0.2620140
1229.413, 0.3477100
1229.895, 0.4914520
1230.377, 0.6192200
1230.859, 0.5746040
1231.341, 0.4051750
1231.823, 0.3710040
1232.305, 0.5626400
1232.787, 0.7160260
1233.270, 0.8227690
1233.752, 0.8488250
1234.234, 0.7461900
1234.716, 0.6174240
1235.198, 0.4561710
1235.680, 0.3793650
1236.162, 0.5879770
1236.644, 0.9847190
1237.126, 1.075472
1237.609, 0.8198930
1238.091, 0.6720420
1238.573, 0.6461320
1239.055, 0.6581830
1239.537, 0.6901050
1240.019, 0.7262450
1240.501, 0.7582320
1240.983, 0.7395700
1241.465, 0.5737650
1241.948, 0.3879970
1242.430, 0.5022040
1242.912, 0.7421430
1243.394, 0.7110270
1243.876, 0.5023230
1244.358, 0.4004360
1244.840, 0.4384350
1245.322, 0.4613330
1245.805, 0.3945420
1246.287, 0.4355700
1246.769, 0.8458490
1247.251, 1.202209
1247.733, 1.233546
1248.215, 1.151824
1248.697, 1.115855
1249.179, 1.079590
1249.661, 0.9546120
1250.144, 0.7274650
1250.626, 0.5004170
1251.108, 0.2002430
1251.590, 0.1431290
1252.072, 0.5042830
1252.554, 0.6965460
1253.036, 0.5476830
1253.518, 0.4015940
1254.000, 0.4585430
1254.483, 0.5206590
1254.965, 0.3243730
1255.447, 6.8740002E-03
1255.929, 7.9797998E-02
1256.411, 7.3532000E-02
1256.893, 0.2576460
1257.375, 0.4518330
1257.857, 0.5824140
1258.340, 0.6467620
1258.822, 0.7436050
1259.304, 0.9108300
1259.786, 0.9635770
1260.268, 0.6618490
1260.750, 0.3273420
1261.232, 0.3153600
1261.714, 0.4066240
1262.197, 0.3392180
1262.679, 0.2416510
1263.161, 0.3327530
1263.643, 0.5672440
1264.125, 0.7291090
1264.607, 0.7683790
1265.089, 0.7069620
1265.571, 0.1272230
1266.053, 7.4853003E-02
1266.536, 0.6287820
1267.018, 1.132265
1267.500, 0.9114680
1267.982, 0.4756540
1268.464, 0.2692030
1268.946, 0.2480640
1269.428, 0.1140280
1269.910, 0.2124240
1270.392, 0.2103350
1270.875, 8.4481001E-02
1271.357, 2.2917001E-02
1271.839, 1.5835000E-02
1272.321, 0.0000000E+00
##END=



