##NAMES=Senandorite
##RRUFFID=R060673
##IDEAL CHEMISTRY=Ag^1+^Pb^2+^Sb^3+^_3_S^2-^_6_
##LOCALITY=San Jose mine, Oruro, Bolivia
##OWNER=RRUFF
##SOURCE=Michael Scott S101092, Rock Currier
##DESCRIPTION=Dark steel gray metallic prismatic crystals with striation parallel to the c-axis. About ten percent of the volume is andorite IV, as determined by X-ray diffraction.
##STATUS=The identification of this mineral has been confirmed by X-ray diffraction.
##URL=rruff.info/R060673
120.4048, 0.0000000E+00
120.8869, 0.4770070
121.3690, 1.009409
121.8511, 1.244270
122.3332, 1.231581
122.8154, 1.065563
123.2975, 0.5930000
123.7796, 0.1067180
124.2617, 6.0755000E-02
124.7438, 0.2365000
125.2259, 0.6583190
125.7081, 0.8291360
126.1902, 0.8044700
126.6723, 0.7502500
127.1544, 0.9212280
127.6365, 1.332991
128.1186, 1.862911
128.6008, 2.585785
129.0829, 3.281149
129.5650, 3.646788
130.0471, 3.692921
130.5292, 3.481504
131.0113, 2.867544
131.4935, 1.975855
131.9756, 1.336876
132.4577, 1.132425
132.9398, 1.257502
133.4219, 1.512190
133.9040, 1.923033
134.3862, 2.270756
134.8683, 2.240530
135.3504, 1.841782
135.8325, 1.527241
136.3146, 1.410429
136.7967, 1.488981
137.2789, 1.870413
137.7610, 2.693323
138.2431, 3.511641
138.7252, 3.610723
139.2073, 2.820868
139.6894, 2.158781
140.1716, 2.074581
140.6537, 2.684881
141.1358, 2.956863
141.6179, 2.778715
142.1000, 2.371073
142.5821, 2.171530
143.0643, 2.280787
143.5464, 2.377995
144.0285, 2.301092
144.5106, 1.903231
144.9927, 1.726114
145.4748, 1.863852
145.9570, 2.205208
146.4391, 2.426411
146.9212, 2.484156
147.4033, 2.478775
147.8854, 2.462265
148.3675, 2.518764
148.8497, 2.424093
149.3318, 2.002966
149.8139, 1.370626
150.2960, 1.119751
150.7781, 1.618990
151.2602, 2.230680
151.7424, 2.662838
152.2245, 2.556459
152.7066, 2.497053
153.1887, 2.590864
153.6708, 2.813028
154.1529, 2.862782
154.6351, 2.601416
155.1172, 2.289282
155.5993, 2.062975
156.0814, 2.149118
156.5635, 2.189817
157.0456, 1.983953
157.5278, 1.504395
158.0099, 1.360821
158.4920, 2.120832
158.9741, 3.034876
159.4562, 3.432941
159.9383, 2.277590
160.4205, 1.316334
160.9026, 1.430437
161.3847, 2.628326
161.8668, 3.402884
162.3489, 2.839338
162.8310, 1.724592
163.3132, 0.9171160
163.7953, 0.9230750
164.2774, 1.131569
164.7595, 1.266645
165.2416, 1.305058
165.7237, 1.272303
166.2059, 1.059870
166.6880, 0.8005640
167.1701, 0.6959360
167.6522, 0.9888710
168.1343, 1.366804
168.6164, 1.614643
169.0985, 1.700447
169.5807, 1.698545
170.0628, 1.611372
170.5449, 1.473118
171.0270, 1.351175
171.5091, 1.183863
171.9912, 1.095081
172.4734, 1.279490
172.9555, 1.865414
173.4376, 2.384867
173.9197, 2.345963
174.4018, 1.905144
174.8839, 1.485369
175.3661, 1.313324
175.8482, 1.311415
176.3303, 1.403938
176.8124, 1.610922
177.2945, 1.832003
177.7766, 2.009783
178.2588, 2.123299
178.7409, 2.107611
179.2230, 1.797707
179.7051, 1.341431
180.1872, 1.043772
180.6693, 1.018145
181.1515, 1.049206
181.6336, 0.7316760
182.1157, 0.1276970
182.5978, 0.3130190
183.0799, 0.1289140
183.5620, 0.4678690
184.0442, 0.8895130
184.5263, 0.9890140
185.0084, 0.9141520
185.4905, 0.9374430
185.9726, 1.052246
186.4547, 1.094427
186.9369, 0.8832610
187.4190, 0.4748400
187.9011, 0.1034810
188.3832, 0.2085990
188.8653, 0.4367390
189.3474, 0.5043180
189.8296, 0.4082260
190.3117, 0.2562390
190.7938, 9.5968001E-02
191.2759, 6.1900999E-02
191.7580, 0.1217670
192.2401, 2.9242000E-02
192.7223, 0.1567420
193.2044, 0.2602390
193.6865, 0.2752250
194.1686, 0.2651180
194.6507, 0.3016660
195.1328, 0.3812030
195.6150, 0.4048180
196.0971, 0.3186950
196.5792, 0.1663300
197.0613, 0.1633660
197.5434, 0.3498310
198.0255, 0.4964080
198.5077, 0.2530650
198.9898, 0.4087450
199.4719, 0.7433300
199.9540, 0.4652580
200.4361, 0.2892090
200.9182, 0.7957860
201.4004, 1.028236
201.8825, 1.081242
202.3646, 1.031256
202.8467, 0.8747330
203.3288, 0.6406310
203.8109, 0.2957440
204.2931, 0.1353720
204.7752, 0.4412540
205.2573, 0.6137470
205.7394, 0.6819570
206.2215, 0.6455150
206.7036, 0.4783130
207.1858, 0.3457490
207.6679, 0.2854210
208.1500, 0.2953360
208.6321, 0.3712330
209.1142, 0.5613160
209.5963, 0.7269820
210.0785, 0.6524720
210.5606, 0.2179660
211.0427, 9.6469996E-03
211.5248, 0.2609580
212.0069, 0.9554790
212.4890, 1.329737
212.9712, 1.285305
213.4533, 1.072998
213.9354, 0.9714240
214.4175, 1.020382
214.8996, 1.049450
215.3817, 0.9761450
215.8639, 0.8000660
216.3460, 0.8460310
216.8281, 1.177698
217.3102, 1.647886
217.7923, 2.125496
218.2744, 2.683323
218.7565, 3.061312
219.2387, 3.131828
219.7208, 2.885729
220.2029, 2.805616
220.6850, 2.949244
221.1671, 3.191492
221.6492, 3.401962
222.1314, 3.587437
222.6135, 3.722206
223.0956, 3.746124
223.5777, 3.645588
224.0598, 3.814478
224.5419, 4.434238
225.0241, 5.124502
225.5062, 5.438656
225.9883, 5.106794
226.4704, 4.973015
226.9525, 5.295832
227.4346, 6.106787
227.9168, 6.691818
228.3989, 7.033018
228.8810, 7.168821
229.3631, 7.082861
229.8452, 6.549013
230.3273, 6.241886
230.8095, 6.328588
231.2916, 6.821102
231.7737, 7.399727
232.2558, 8.197960
232.7379, 8.944904
233.2200, 9.334728
233.7022, 9.188831
234.1843, 9.029644
234.6664, 8.909428
235.1485, 8.826433
235.6306, 8.993931
236.1127, 9.598999
236.5949, 10.26528
237.0770, 10.64066
237.5591, 10.64005
238.0412, 10.49809
238.5233, 10.13063
239.0054, 9.537804
239.4876, 9.459869
239.9697, 10.23711
240.4518, 11.13866
240.9339, 11.54992
241.4160, 11.22511
241.8981, 10.88082
242.3803, 10.58040
242.8624, 10.32838
243.3445, 10.34567
243.8266, 10.88628
244.3087, 11.40957
244.7908, 11.39103
245.2730, 10.33562
245.7551, 9.755283
246.2372, 10.06916
246.7193, 11.18029
247.2014, 11.69045
247.6835, 11.27556
248.1657, 10.66655
248.6478, 10.43795
249.1299, 10.80803
249.6120, 11.07033
250.0941, 11.12346
250.5762, 10.98092
251.0584, 10.79551
251.5405, 10.55821
252.0226, 10.30494
252.5047, 10.04239
252.9868, 9.702393
253.4689, 9.511784
253.9511, 9.546894
254.4332, 9.769243
254.9153, 9.938484
255.3974, 10.06144
255.8795, 10.10070
256.3616, 10.02368
256.8438, 9.738121
257.3259, 9.577221
257.8080, 9.600235
258.2901, 9.748201
258.7722, 9.847717
259.2543, 9.897800
259.7365, 9.948601
260.2186, 10.01691
260.7007, 10.07856
261.1828, 10.27231
261.6649, 10.69996
262.1470, 11.23726
262.6292, 11.52287
263.1113, 11.54629
263.5934, 11.33047
264.0755, 10.76593
264.5576, 9.596336
265.0397, 9.022631
265.5219, 9.256514
266.0040, 9.977341
266.4861, 10.45351
266.9682, 10.60962
267.4503, 10.70190
267.9324, 10.86031
268.4146, 11.12965
268.8967, 11.25164
269.3788, 11.17467
269.8609, 11.00457
270.3430, 10.92963
270.8251, 10.95036
271.3073, 11.06765
271.7894, 11.35543
272.2715, 11.85720
272.7536, 12.03192
273.2357, 11.77442
273.7178, 11.34042
274.2000, 11.12473
274.6821, 11.17555
275.1642, 11.23512
275.6463, 11.20944
276.1284, 11.09809
276.6105, 10.99694
277.0927, 10.89174
277.5748, 10.82749
278.0569, 10.93258
278.5390, 11.25118
279.0211, 11.36934
279.5032, 11.07352
279.9854, 10.42897
280.4675, 9.997349
280.9496, 9.803230
281.4317, 9.740311
281.9138, 9.749500
282.3959, 9.837494
282.8781, 9.808640
283.3602, 9.543077
283.8423, 9.130640
284.3244, 8.991194
284.8065, 9.152521
285.2886, 9.400700
285.7708, 9.566633
286.2529, 9.651821
286.7350, 9.684669
287.2171, 9.664621
287.6992, 9.599497
288.1813, 9.507246
288.6635, 9.386347
289.1456, 9.252283
289.6277, 9.079718
290.1098, 8.886013
290.5919, 8.819883
291.0740, 8.957897
291.5562, 9.151852
292.0383, 9.099358
292.5204, 8.808002
293.0025, 8.456448
293.4846, 8.098104
293.9667, 7.762188
294.4489, 7.558832
294.9310, 7.517506
295.4131, 7.576080
295.8952, 7.707161
296.3773, 7.889616
296.8594, 7.989895
297.3416, 7.866707
297.8237, 7.624821
298.3058, 7.501804
298.7879, 7.519562
299.2700, 7.574883
299.7521, 7.556690
300.2343, 7.483490
300.7164, 7.428190
301.1985, 7.448666
301.6806, 7.498293
302.1627, 7.467098
302.6448, 7.329983
303.1270, 7.236963
303.6091, 7.373659
304.0912, 7.699472
304.5733, 8.090136
305.0554, 8.660965
305.5375, 9.197842
306.0197, 9.392208
306.5018, 9.252607
306.9839, 8.992086
307.4660, 8.551029
307.9481, 8.149057
308.4302, 8.132439
308.9124, 8.922356
309.3945, 9.773653
309.8766, 9.981018
310.3587, 9.683641
310.8408, 9.512974
311.3229, 10.07262
311.8051, 10.87790
312.2872, 11.37042
312.7693, 11.26681
313.2514, 11.11393
313.7335, 11.24025
314.2156, 11.57296
314.6978, 11.90004
315.1799, 12.14609
315.6620, 12.35295
316.1441, 12.54364
316.6262, 12.70377
317.1083, 12.87312
317.5905, 13.11185
318.0726, 13.37600
318.5547, 13.58636
319.0368, 13.67582
319.5189, 13.73126
320.0010, 13.78714
320.4832, 13.84628
320.9653, 13.92549
321.4474, 14.08101
321.9295, 14.24301
322.4116, 14.32747
322.8937, 14.36334
323.3759, 14.28773
323.8580, 14.04448
324.3401, 13.62903
324.8222, 13.23933
325.3043, 12.90025
325.7864, 12.58612
326.2686, 12.28703
326.7507, 12.06057
327.2328, 11.80282
327.7149, 11.48657
328.1970, 11.11702
328.6791, 10.74885
329.1613, 10.26181
329.6434, 9.877573
330.1255, 9.720319
330.6076, 10.04809
331.0897, 10.21443
331.5718, 10.14825
332.0540, 9.919091
332.5361, 9.719110
333.0182, 9.543378
333.5003, 9.401107
333.9824, 9.307954
334.4645, 9.294581
334.9467, 9.230587
335.4288, 9.093132
335.9109, 8.922449
336.3930, 8.784289
336.8751, 8.674433
337.3572, 8.604852
337.8394, 8.618511
338.3215, 8.728192
338.8036, 8.644559
339.2857, 8.323749
339.7678, 7.883325
340.2499, 7.456625
340.7320, 7.075851
341.2141, 6.557136
341.6963, 5.806833
342.1784, 4.894788
342.6605, 4.147688
343.1426, 3.572402
343.6247, 3.160374
344.1068, 3.026731
344.5890, 3.153577
345.0711, 3.006577
345.5532, 2.403340
346.0353, 1.634923
346.5174, 1.423394
346.9995, 1.757141
347.4817, 2.015723
347.9638, 1.655039
348.4459, 0.8852460
348.9280, 0.5188670
349.4101, 0.6721740
349.8922, 0.9922210
350.3744, 1.035885
350.8565, 0.8594570
351.3386, 0.6800730
351.8207, 0.6306920
352.3028, 0.6394950
352.7849, 0.5799020
353.2671, 0.4351600
353.7492, 0.2579140
354.2313, 0.1034340
354.7134, 4.5439001E-02
355.1955, 0.2324850
355.6776, 0.5823370
356.1598, 0.8763480
356.6419, 0.8252770
357.1240, 0.4920170
357.6061, 0.2204530
358.0882, 0.2827810
358.5703, 0.4784970
359.0525, 0.6329890
359.5346, 0.7629800
360.0167, 0.7427740
360.4988, 0.2999280
360.9809, 0.3537080
361.4630, 0.7471460
361.9452, 0.4467440
362.4273, 1.0372000E-02
362.9094, 0.2583880
363.3915, 0.3030530
363.8736, 0.2825150
364.3557, 0.1738380
364.8379, 5.4028001E-02
365.3200, 1.2608000E-02
365.8021, 0.2839160
366.2842, 0.4256140
366.7663, 0.1709090
367.2484, 0.4906070
367.7306, 0.8266240
368.2127, 0.4250670
368.6948, 0.1285830
369.1769, 0.4474310
369.6590, 0.3039460
370.1411, 0.1877270
370.6233, 0.1440320
371.1054, 0.1509660
371.5875, 0.1088130
372.0696, 5.0675999E-02
372.5517, 0.1759350
373.0338, 0.1860280
373.5160, 9.6999999E-04
373.9981, 5.9282001E-02
374.4802, 6.6832997E-02
374.9623, 0.2670370
375.4444, 0.3498190
375.9265, 0.2661170
376.4087, 0.2040410
376.8908, 0.2454800
377.3729, 0.3850720
377.8550, 0.3830120
378.3371, 0.1889510
378.8192, 2.3432000E-02
379.3014, 6.1898001E-02
379.7835, 8.1541002E-02
380.2656, 0.2110510
380.7477, 0.3023070
381.2298, 0.3454610
381.7119, 0.2669690
382.1941, 6.3862003E-02
382.6762, 7.6049000E-02
383.1583, 4.2707998E-02
383.6404, 0.3444710
384.1225, 0.5053220
384.6046, 0.4624760
385.0868, 0.3909460
385.5689, 0.6061340
386.0510, 1.010382
386.5331, 1.241055
387.0152, 0.8880040
387.4973, 0.3603260
387.9795, 0.3302200
388.4616, 0.8038480
388.9437, 1.267326
389.4258, 1.278406
389.9079, 1.040761
390.3900, 0.8419370
390.8722, 0.7901460
391.3543, 0.7796040
391.8364, 0.7429940
392.3185, 0.6873730
392.8006, 0.6363150
393.2827, 0.5788430
393.7649, 0.5442910
394.2470, 0.5671800
394.7291, 0.6858420
395.2112, 0.7684930
395.6933, 0.7369380
396.1754, 0.6484270
396.6576, 0.5887620
397.1397, 0.6008920
397.6218, 0.6187330
398.1039, 0.6087120
398.5860, 0.5647240
399.0681, 0.5690850
399.5503, 0.6249470
400.0324, 0.7358760
400.5145, 0.9098230
400.9966, 1.344899
401.4787, 1.561464
401.9608, 1.417986
402.4430, 1.021816
402.9251, 0.7928400
403.4072, 0.8006790
403.8893, 0.8702150
404.3714, 0.9257660
404.8535, 0.9578610
405.3357, 1.012254
405.8178, 1.080201
406.2999, 1.181169
406.7820, 1.404393
407.2641, 1.807224
407.7462, 1.990549
408.2284, 1.765190
408.7105, 1.224756
409.1926, 0.7684040
409.6747, 0.3829270
410.1568, 0.1752000
410.6389, 0.3878180
411.1211, 0.9197360
411.6032, 1.162748
412.0853, 0.9350490
412.5674, 0.5415910
413.0495, 0.4400610
413.5316, 0.5701420
414.0138, 0.6871730
414.4959, 0.6725660
414.9780, 0.6010860
415.4601, 0.5166910
415.9422, 0.3930710
416.4243, 0.3496440
416.9065, 0.6115840
417.3886, 1.015250
417.8707, 1.275870
418.3528, 1.204398
418.8349, 1.083485
419.3170, 1.086242
419.7992, 1.178258
420.2813, 1.193913
420.7634, 0.9316760
421.2455, 0.6466340
421.7276, 0.5088200
422.2097, 0.5960460
422.6919, 0.7215290
423.1740, 0.9176030
423.6561, 1.080471
424.1382, 1.093019
424.6203, 0.6651660
425.1024, 0.4088880
425.5846, 0.5856000
426.0667, 1.236776
426.5488, 1.494674
427.0309, 1.007661
427.5130, 0.4615700
427.9951, 0.3385200
428.4773, 0.9318840
428.9594, 1.286846
429.4415, 1.279851
429.9236, 1.035981
430.4057, 0.8342510
430.8878, 0.6746680
431.3700, 0.5413580
431.8521, 0.4316320
432.3342, 0.3568180
432.8163, 0.3527220
433.2984, 0.4371110
433.7805, 0.5100790
434.2627, 0.3801480
434.7448, 8.4797002E-02
435.2269, 1.6675999E-02
435.7090, 0.3701910
436.1911, 0.9053920
436.6732, 1.113457
437.1554, 1.036516
437.6375, 0.9569570
438.1196, 1.096859
438.6017, 1.331299
439.0838, 1.457645
439.5659, 1.442765
440.0480, 1.355377
440.5302, 1.223961
441.0123, 1.081951
441.4944, 0.9610860
441.9765, 0.8633690
442.4586, 0.7826330
442.9407, 0.7003260
443.4229, 0.6272770
443.9050, 0.6176590
444.3871, 0.7778300
444.8692, 0.9510650
445.3513, 1.039802
445.8334, 1.024744
446.3156, 0.9465720
446.7977, 0.6977200
447.2798, 0.3997450
447.7619, 0.2688180
448.2440, 0.4798070
448.7261, 0.6855040
449.2083, 0.8105540
449.6904, 0.8521140
450.1725, 0.8852430
450.6546, 0.9276070
451.1367, 0.9390800
451.6188, 0.8880260
452.1010, 0.7650730
452.5831, 0.5973480
453.0652, 0.3459380
453.5473, 8.6147003E-02
454.0294, 1.7508000E-02
454.5115, 4.2206001E-02
454.9937, 0.2068490
455.4758, 0.5304170
455.9579, 0.9580490
456.4400, 1.167195
456.9221, 1.146444
457.4042, 1.036979
457.8864, 0.9342400
458.3685, 0.8509190
458.8506, 0.8342800
459.3327, 0.9342240
459.8148, 1.037441
460.2969, 0.9832960
460.7791, 0.8170570
461.2612, 0.6628510
461.7433, 0.5803640
462.2254, 0.5617950
462.7075, 0.6400920
463.1896, 0.8318230
463.6718, 0.9541480
464.1539, 0.8596820
464.6360, 0.6714570
465.1181, 0.5121250
465.6002, 0.3951800
466.0823, 0.3313360
466.5645, 0.3487600
467.0466, 0.4263170
467.5287, 0.4867320
468.0108, 0.4888300
468.4929, 0.5133430
468.9750, 0.5966950
469.4572, 0.7659960
469.9393, 0.8592570
470.4214, 0.8371400
470.9035, 0.7723830
471.3856, 0.7398080
471.8677, 0.7370930
472.3499, 0.7887000
472.8320, 0.9669950
473.3141, 1.172116
473.7962, 0.9633620
474.2783, 0.2687170
474.7604, 0.3071950
475.2426, 0.2950140
475.7247, 0.1876830
476.2068, 0.4048260
476.6889, 0.3006490
477.1710, 0.1271630
477.6531, 0.1553310
478.1353, 0.3381820
478.6174, 0.5579500
479.0995, 0.8524300
479.5816, 1.080524
480.0637, 1.010812
480.5458, 0.7198920
481.0280, 0.4940570
481.5101, 0.5480560
481.9922, 0.6965330
482.4743, 0.8180980
482.9564, 0.9126130
483.4385, 0.8984500
483.9207, 0.5993060
484.4028, 0.2333430
484.8849, 3.1451002E-02
485.3670, 0.2513200
485.8491, 0.4056850
486.3312, 0.3336040
486.8134, 9.5918998E-02
487.2955, 2.0919999E-02
487.7776, 0.2089650
488.2597, 0.4419670
488.7418, 0.6602530
489.2239, 0.8901810
489.7061, 0.9576220
490.1882, 0.8128770
490.6703, 0.5792270
491.1524, 0.3326100
491.6345, 3.7200999E-02
492.1166, 3.7393000E-02
492.5988, 0.5338730
493.0809, 1.234448
493.5630, 1.300233
494.0451, 0.7502490
494.5272, 0.2134100
495.0093, 9.9987999E-02
495.4915, 0.2616670
495.9736, 0.3628620
496.4557, 0.3846190
496.9378, 0.4011680
497.4199, 0.5383910
497.9020, 0.6983050
498.3842, 0.7093260
498.8663, 0.3663310
499.3484, 8.3272003E-02
499.8305, 0.2458870
500.3126, 0.6786900
500.7947, 0.9455550
501.2769, 0.7972970
501.7590, 0.5261960
502.2411, 0.2133640
502.7232, 0.1651590
503.2053, 0.3762130
503.6874, 0.3414100
504.1696, 0.1543190
504.6517, 0.1337720
505.1338, 0.6814870
505.6159, 1.048084
506.0980, 1.182251
506.5801, 1.132249
507.0623, 0.9855590
507.5444, 0.7028380
508.0265, 0.4403810
508.5086, 0.2368190
508.9907, 9.6366003E-02
509.4728, 7.2113998E-02
509.9550, 0.1732370
510.4371, 0.3166070
510.9192, 0.4665530
511.4013, 0.6033260
511.8834, 0.6134300
512.3655, 0.4343980
512.8477, 0.2854770
513.3298, 0.5624450
513.8119, 1.073898
514.2940, 1.366811
514.7761, 0.9762520
515.2582, 0.4879150
515.7404, 0.4189130
516.2225, 0.7084300
516.7046, 0.8683330
517.1867, 0.4783540
517.6688, 2.7086001E-02
518.1509, 0.1481140
518.6331, 0.1333040
519.1152, 0.3630450
519.5973, 0.4237120
520.0794, 0.4021870
520.5615, 0.4091380
521.0436, 0.4589120
521.5258, 0.5187800
522.0079, 0.6095110
522.4900, 0.7088060
522.9721, 0.6893130
523.4542, 0.5112310
523.9363, 0.3323190
524.4185, 0.2474920
524.9006, 0.2559310
525.3827, 0.2082920
525.8648, 9.1450997E-02
526.3469, 1.6891001E-02
526.8290, 1.9998999E-02
527.3112, 6.0447998E-02
527.7933, 0.1469940
528.2754, 0.2384820
528.7575, 0.2982770
529.2396, 0.2192720
529.7217, 6.6500999E-02
530.2039, 1.7945001E-02
530.6860, 0.3317250
531.1681, 0.6660900
531.6502, 0.7320400
532.1323, 0.5225460
532.6144, 0.3480420
533.0966, 0.3996830
533.5787, 0.5346000
534.0608, 0.6341010
534.5429, 0.7285370
535.0250, 0.7051870
535.5071, 0.4057570
535.9893, 4.1767001E-02
536.4714, 6.3936003E-02
536.9535, 0.2240060
537.4356, 0.5168050
537.9177, 0.7710760
538.3998, 0.9665480
538.8820, 0.8965530
539.3641, 0.4876310
539.8462, 0.1561660
540.3283, 0.2565620
540.8104, 0.7096950
541.2925, 0.9562780
541.7747, 0.9625880
542.2568, 0.8301730
542.7389, 0.5242010
543.2210, 0.1615050
543.7031, 3.0800000E-02
544.1852, 0.3442400
544.6674, 0.7025680
545.1495, 0.6604750
545.6316, 0.3720460
546.1137, 0.2188610
546.5958, 0.6334640
547.0779, 1.007594
547.5601, 0.9295280
548.0422, 0.3654140
548.5243, 2.7791001E-02
549.0064, 2.0579999E-02
549.4885, 0.1889260
549.9706, 0.2792990
550.4528, 0.2307710
550.9349, 0.2112110
551.4170, 0.2134540
551.8991, 0.2503000
552.3812, 0.3501320
552.8633, 0.5296610
553.3455, 0.7083770
553.8276, 0.8867460
554.3097, 1.039181
554.7918, 1.088639
555.2739, 1.034745
555.7560, 0.8829000
556.2382, 0.5246520
556.7203, 0.1034720
557.2024, 2.8413000E-02
557.6845, 0.1633650
558.1666, 0.3957110
558.6487, 0.4427670
559.1309, 0.3885920
559.6130, 0.3188240
560.0951, 0.2474760
560.5772, 0.2020080
561.0593, 0.2132070
561.5414, 0.2667340
562.0236, 0.3192260
562.5057, 0.3384670
562.9878, 0.3598650
563.4699, 0.4060430
563.9520, 0.4720260
564.4341, 0.4974730
564.9163, 0.4481410
565.3984, 0.4069500
565.8805, 0.4191260
566.3626, 0.4961540
566.8447, 0.5607860
567.3268, 0.6172260
567.8090, 0.6532310
568.2911, 0.6258280
568.7732, 0.5480620
569.2553, 0.5519110
569.7374, 0.6988380
570.2195, 0.8678360
570.7017, 0.8932970
571.1838, 0.8115880
571.6659, 0.6909030
572.1480, 0.5085050
572.6301, 0.3510500
573.1122, 0.3118420
573.5944, 0.3766100
574.0765, 0.4198510
574.5586, 0.3807210
575.0407, 0.3070280
575.5228, 0.2165020
576.0049, 8.1398003E-02
576.4871, 8.5939998E-03
576.9692, 7.3930002E-03
577.4513, 3.8926002E-02
577.9334, 0.1714830
578.4155, 0.4645160
578.8976, 0.6588810
579.3798, 0.7013840
579.8619, 0.6464720
580.3440, 0.6157220
580.8261, 0.6099780
581.3082, 0.6203470
581.7903, 0.6616400
582.2725, 0.7110950
582.7546, 0.7010500
583.2367, 0.6338760
583.7188, 0.5341930
584.2009, 0.3855770
584.6830, 0.2303500
585.1652, 0.1289320
585.6473, 9.3606003E-02
586.1294, 7.3243998E-02
586.6115, 2.9158000E-02
587.0936, 0.1040530
587.5757, 3.4230001E-02
588.0578, 0.4604090
588.5399, 0.8068740
589.0220, 0.8283800
589.5042, 0.6345190
589.9863, 0.4774050
590.4684, 0.3268740
590.9505, 0.2704950
591.4326, 0.3746350
591.9147, 0.6093440
592.3969, 0.6854380
592.8790, 0.5674440
593.3611, 0.4434820
593.8432, 0.4538390
594.3253, 0.5680080
594.8074, 0.6381320
595.2896, 0.6557580
595.7717, 0.6307600
596.2538, 0.5293740
596.7359, 0.4006720
597.2180, 0.3471630
597.7001, 0.4470920
598.1823, 0.5166400
598.6644, 0.3421220
599.1465, 6.8527997E-02
599.6286, 5.5590998E-02
600.1107, 0.1966410
600.5928, 0.4593460
601.0750, 0.6412820
601.5571, 0.7385710
602.0392, 0.7729060
602.5213, 0.7186880
603.0034, 0.6354700
603.4855, 0.5289240
603.9677, 0.3900100
604.4498, 0.3682370
604.9319, 0.5016030
605.4140, 0.6327450
605.8961, 0.5903160
606.3782, 0.4012950
606.8604, 0.2391820
607.3425, 0.1081990
607.8246, 7.1255997E-02
608.3067, 0.3375490
608.7888, 0.7489310
609.2709, 0.9473060
609.7531, 0.5890550
610.2352, 0.2313920
610.7173, 0.3405990
611.1994, 0.7457640
611.6815, 0.9805180
612.1636, 0.7964360
612.6458, 0.5121450
613.1279, 0.1694000
613.6100, 0.2287470
614.0921, 0.3784650
614.5742, 0.1020550
615.0563, 0.1846340
615.5385, 0.2245610
616.0206, 5.6175001E-02
616.5027, 0.1413670
616.9848, 6.5950002E-03
617.4669, 0.2333910
617.9490, 0.3623530
618.4312, 0.4116980
618.9133, 0.4857220
619.3954, 0.6324210
619.8775, 0.7403290
620.3596, 0.6019270
620.8417, 0.3240060
621.3239, 0.1472730
621.8060, 0.2043120
622.2881, 0.3586600
622.7702, 0.6235870
623.2523, 0.9445720
623.7344, 1.104406
624.2166, 0.9292250
624.6987, 0.6901160
625.1808, 0.4585260
625.6629, 0.2249700
626.1450, 0.1531020
626.6271, 0.3531260
627.1093, 0.5345340
627.5914, 0.4411430
628.0735, 4.1242000E-02
628.5556, 0.1514570
629.0377, 8.6833000E-02
629.5198, 8.8868998E-02
630.0020, 0.2562250
630.4841, 0.3997260
630.9662, 0.4443760
631.4483, 0.3146610
631.9304, 0.1996580
632.4125, 0.3627410
632.8947, 0.6679000
633.3768, 0.8439740
633.8589, 0.6378460
634.3410, 0.4206150
634.8231, 0.3483190
635.3052, 0.4040130
635.7874, 0.4604280
636.2695, 0.4989860
636.7516, 0.5402870
637.2337, 0.5887880
637.7158, 0.6446310
638.1979, 0.7325260
638.6801, 0.8692150
639.1622, 0.9723730
639.6443, 0.9733180
640.1264, 0.8868270
640.6085, 0.7559880
641.0906, 0.5728060
641.5728, 0.4201880
642.0549, 0.3930150
642.5370, 0.4613020
643.0191, 0.5722080
643.5012, 0.7485590
643.9833, 0.8920830
644.4655, 0.9146600
644.9476, 0.8613460
645.4297, 0.8206650
645.9118, 0.7858590
646.3939, 0.7931850
646.8760, 0.9221230
647.3582, 1.113648
647.8403, 1.116425
648.3224, 0.8140510
648.8045, 0.5548640
649.2866, 0.4918920
649.7687, 0.5993920
650.2509, 0.6024490
650.7330, 0.4720120
651.2151, 0.3490380
651.6972, 0.4090980
652.1793, 0.5678660
652.6614, 0.6000200
653.1436, 0.4833440
653.6257, 0.3728970
654.1078, 0.4194610
654.5899, 0.5242310
655.0720, 0.5811330
655.5541, 0.3363410
656.0363, 0.5860410
656.5184, 0.7201820
657.0005, 0.7446590
657.4826, 0.3281600
657.9647, 0.4839280
658.4468, 0.4122590
658.9290, 0.3316010
659.4111, 0.5680670
659.8932, 0.2215700
660.3753, 0.4543980
660.8574, 0.4569780
661.3395, 0.5659870
661.8217, 0.4468100
662.3038, 0.3990560
662.7859, 0.5810000
663.2680, 0.6368770
663.7501, 0.4942320
664.2322, 0.6142870
664.7144, 0.2669940
665.1965, 0.3308950
665.6786, 0.5725660
666.1607, 0.4450330
666.6428, 0.5728700
667.1249, 0.6045270
667.6071, 0.2015700
668.0892, 0.5686630
668.5713, 0.5970330
669.0534, 0.2853720
669.5355, 0.6200290
670.0176, 0.3567280
670.4998, 0.3078370
670.9819, 0.4204100
671.4640, 0.3502080
671.9461, 0.5356030
672.4282, 0.4844060
672.9103, 0.4192010
673.3925, 0.4540530
673.8746, 0.2034800
674.3567, 0.4697680
674.8388, 0.3892910
675.3209, 0.4882880
675.8030, 0.6281740
676.2852, 0.5371100
676.7673, 0.5456410
677.2494, 0.4909880
677.7315, 0.4680290
678.2136, 0.5248300
678.6957, 0.5554080
679.1779, 0.5009500
679.6600, 0.3645570
680.1421, 0.2671140
680.6242, 0.2051140
681.1063, 0.1947540
681.5884, 0.2804150
682.0706, 0.4268780
682.5527, 0.5044950
683.0348, 0.5055170
683.5169, 0.5176080
683.9990, 0.6464880
684.4811, 0.8078500
684.9633, 0.9190250
685.4454, 0.9764760
685.9275, 0.9386190
686.4096, 0.6916510
686.8917, 0.3894900
687.3738, 0.1819400
687.8560, 3.8949002E-02
688.3381, 4.2406000E-02
688.8202, 0.2691340
689.3023, 0.5782040
689.7844, 0.7344440
690.2665, 0.7310920
690.7487, 0.6755490
691.2308, 0.5719920
691.7129, 0.4664620
692.1950, 0.4374400
692.6771, 0.4837820
693.1592, 0.5522460
693.6414, 0.7398640
694.1235, 0.8563280
694.6056, 0.6655060
695.0877, 0.2490360
695.5698, 5.3475998E-02
696.0519, 0.1263020
696.5341, 7.1912996E-02
697.0162, 0.1545500
697.4983, 0.5456270
697.9804, 0.6747700
698.4625, 0.4374150
698.9446, 0.1514430
699.4268, 2.9046999E-02
699.9089, 0.1052850
700.3910, 4.8372999E-02
700.8731, 0.1497430
701.3552, 0.3825340
701.8373, 0.5758490
702.3195, 0.7221250
702.8016, 0.8647330
703.2837, 1.028565
703.7658, 1.086882
704.2479, 0.8164160
704.7300, 0.4795590
705.2122, 0.3401520
705.6943, 0.7035300
706.1764, 0.8324990
706.6585, 0.4975020
707.1406, 3.1800002E-02
707.6227, 0.1919070
708.1049, 0.1560640
708.5870, 0.1224860
709.0691, 0.7689840
709.5512, 1.438244
710.0333, 1.395770
710.5154, 0.7741590
710.9976, 0.2761310
711.4797, 0.1570380
711.9618, 0.2552540
712.4439, 0.5799170
712.9260, 0.9930090
713.4081, 1.169216
713.8903, 0.7188780
714.3724, 0.2700710
714.8545, 5.7193000E-02
715.3366, 6.1071001E-02
715.8187, 9.1190003E-02
716.3008, 0.1517990
716.7830, 0.2352330
717.2651, 0.3555830
717.7472, 0.4939660
718.2293, 0.5306530
718.7114, 0.4590290
719.1935, 0.3891350
719.6757, 0.3921460
720.1578, 0.4448740
720.6399, 0.5058860
721.1220, 0.5735740
721.6041, 0.6556490
722.0862, 0.8327570
722.5684, 0.9702740
723.0505, 0.9558770
723.5326, 0.7486250
724.0147, 0.5229780
724.4968, 0.2083550
724.9789, 3.1282999E-02
725.4611, 7.6826997E-02
725.9432, 0.1334520
726.4253, 0.3007720
726.9074, 0.4106490
727.3895, 0.5198950
727.8716, 0.7493190
728.3538, 1.042349
728.8359, 1.147368
729.3180, 1.002397
729.8001, 0.7641900
730.2822, 0.4643550
730.7643, 0.1970690
731.2465, 0.1029000
731.7286, 0.3540880
732.2107, 0.5735060
732.6928, 0.6472160
733.1749, 0.6302220
733.6570, 0.6138300
734.1392, 0.6329340
734.6213, 0.5621970
735.1034, 0.3396260
735.5855, 6.9149002E-02
736.0676, 4.9424998E-02
736.5497, 1.9578001E-02
737.0319, 0.1252440
737.5140, 0.4532240
737.9961, 0.7749980
738.4782, 0.7820180
738.9603, 0.5778660
739.4424, 0.4291000
739.9246, 0.5366120
740.4067, 0.6444640
740.8888, 0.6112050
741.3709, 0.4712020
741.8530, 0.3973280
742.3351, 0.4394080
742.8173, 0.4849060
743.2994, 0.5082810
743.7815, 0.5095410
744.2636, 0.4615600
744.7457, 0.3555190
745.2278, 0.3231150
745.7100, 0.5401000
746.1921, 0.8409610
746.6742, 0.8523990
747.1563, 0.6122040
747.6384, 0.4015090
748.1205, 0.4699350
748.6027, 0.5559670
749.0848, 0.4323090
749.5669, 7.5167999E-02
750.0490, 0.1231240
750.5311, 2.1122999E-02
751.0132, 0.1438880
751.4954, 0.2786980
751.9775, 0.3838540
752.4596, 0.4418940
752.9417, 0.4411640
753.4238, 0.4462530
753.9059, 0.5739240
754.3881, 0.7547260
754.8702, 0.7697660
755.3523, 0.5923420
755.8344, 0.4003050
756.3165, 0.3173550
756.7986, 0.2847360
757.2808, 0.2553930
757.7629, 0.2353700
758.2450, 0.1803080
758.7271, 5.7218000E-02
759.2092, 0.2190170
759.6913, 7.7462003E-02
760.1735, 0.4918510
760.6556, 0.8282620
761.1377, 0.8797680
761.6198, 0.8125520
762.1019, 0.7954130
762.5840, 0.8101010
763.0662, 0.8106420
763.5483, 0.7990310
764.0304, 0.7216970
764.5125, 0.3944050
764.9946, 3.7260000E-02
765.4767, 8.5170001E-02
765.9589, 0.3039190
766.4410, 0.6025360
766.9231, 0.6122890
767.4052, 0.5215420
767.8873, 0.5386220
768.3694, 0.7184720
768.8516, 0.7829360
769.3337, 0.6838500
769.8158, 0.5031890
770.2979, 0.3196860
770.7800, 0.1500240
771.2621, 6.5673999E-02
771.7443, 0.1146190
772.2264, 0.1813370
772.7085, 0.1696140
773.1906, 0.1112630
773.6727, 5.1723000E-02
774.1548, 8.5510999E-02
774.6370, 0.1102550
775.1191, 6.6551998E-02
775.6012, 0.3463080
776.0833, 0.6065510
776.5654, 0.8909280
777.0475, 0.9546760
777.5297, 0.6897340
778.0118, 0.2974120
778.4939, 0.1380000
778.9760, 0.1652720
779.4581, 0.2045050
779.9402, 0.1711840
780.4224, 0.1584740
780.9045, 0.2602360
781.3866, 0.4325640
781.8687, 0.5925290
782.3508, 0.7536090
782.8329, 0.8496690
783.3151, 0.8798950
783.7972, 0.8518180
784.2793, 0.7180860
784.7614, 0.4435450
785.2435, 0.2687920
785.7256, 0.2929740
786.2077, 0.4093630
786.6898, 0.3920880
787.1719, 0.2782990
787.6541, 0.1959130
788.1362, 0.2188470
788.6183, 0.2795840
789.1004, 0.3664420
789.5825, 0.4570110
790.0646, 0.4901190
790.5468, 0.3773610
791.0289, 0.2990240
791.5110, 0.3101830
791.9931, 0.3740940
792.4752, 0.3624220
792.9573, 0.2619310
793.4395, 0.2095740
793.9216, 0.2620710
794.4037, 0.3697700
794.8858, 0.4097980
795.3679, 0.4055930
795.8500, 0.4404760
796.3322, 0.5948570
796.8143, 0.7676550
797.2964, 0.9156090
797.7785, 1.028511
798.2606, 1.072893
798.7427, 1.051263
799.2249, 0.9446840
799.7070, 0.6807840
800.1891, 0.3553900
800.6712, 0.3789420
801.1533, 0.7581790
801.6354, 0.9418910
802.1176, 0.5127520
802.5997, 6.1863001E-02
803.0818, 8.3120000E-03
803.5639, 0.4939370
804.0460, 0.8983930
804.5281, 0.8950680
805.0103, 0.8039100
805.4924, 0.7164490
805.9745, 0.6481950
806.4566, 0.6513630
806.9387, 0.7965520
807.4208, 0.8465900
807.9030, 0.6675880
808.3851, 0.3935470
808.8672, 0.4422980
809.3493, 0.7707090
809.8314, 1.010574
810.3135, 0.9378460
810.7957, 0.7365970
811.2778, 0.5311050
811.7599, 0.3463550
812.2420, 0.2523060
812.7241, 0.3409970
813.2062, 0.4517110
813.6884, 0.5866800
814.1705, 0.7043520
814.6526, 0.6305940
815.1347, 0.2896130
815.6168, 6.7694999E-02
816.0989, 9.8585002E-02
816.5811, 0.2994790
817.0632, 0.5718510
817.5453, 0.8926150
818.0274, 1.081501
818.5095, 0.8871150
818.9916, 0.6828690
819.4738, 0.8029400
819.9559, 1.105898
820.4380, 1.211994
820.9201, 0.8552710
821.4022, 0.5316570
821.8843, 0.2971870
822.3665, 0.1662550
822.8486, 0.2367950
823.3307, 0.5126020
823.8128, 0.7109730
824.2949, 0.6986410
824.7770, 0.6040610
825.2592, 0.6339740
825.7413, 0.7369950
826.2234, 0.7913150
826.7055, 0.6790130
827.1876, 0.5822220
827.6697, 0.6227770
828.1519, 0.7185830
828.6340, 0.6665160
829.1161, 0.3462500
829.5982, 0.1739060
830.0803, 0.2625720
830.5624, 0.4846320
831.0446, 0.6218780
831.5267, 0.6767300
832.0088, 0.6558670
832.4909, 0.5293860
832.9730, 0.4001170
833.4551, 0.3405670
833.9373, 0.3354920
834.4194, 0.3602120
834.9015, 0.5089990
835.3836, 0.5471060
835.8657, 0.3593590
836.3478, 0.1128930
836.8300, 8.9040004E-02
837.3121, 0.3171460
837.7942, 0.4806550
838.2763, 0.5213990
838.7584, 0.4970270
839.2405, 0.4163960
839.7227, 0.3416220
840.2048, 0.4447020
840.6869, 0.9241490
841.1690, 1.220480
841.6511, 0.8558930
842.1332, 0.2837780
842.6154, 6.7812003E-02
843.0975, 0.5048530
843.5796, 0.6438050
844.0617, 0.3158260
844.5438, 7.1575999E-02
845.0259, 7.8938998E-02
845.5081, 0.6372160
845.9902, 0.9405780
846.4723, 0.8674380
846.9544, 0.6793060
847.4365, 0.4981650
847.9186, 0.3789080
848.4008, 0.4208130
848.8829, 0.7801540
849.3650, 0.9007360
849.8471, 0.5286480
850.3292, 9.2187002E-02
850.8113, 9.7648002E-02
851.2935, 2.4791000E-02
851.7756, 0.1729520
852.2577, 0.5259670
852.7398, 0.7697540
853.2219, 0.5213020
853.7040, 6.3481003E-02
854.1862, 0.1655360
854.6683, 0.1103040
855.1504, 6.8664998E-02
855.6325, 0.4872940
856.1146, 0.8525740
856.5967, 0.9477570
857.0789, 0.7422040
857.5610, 0.5808360
858.0431, 0.4624040
858.5252, 0.3962570
859.0073, 0.4120610
859.4894, 0.4804860
859.9716, 0.5341350
860.4537, 0.5746410
860.9358, 0.6370310
861.4179, 0.8126860
861.9000, 0.9574060
862.3821, 0.9657150
862.8643, 0.8369480
863.3464, 0.6631610
863.8285, 0.3877660
864.3106, 0.1852830
864.7927, 0.1323190
865.2748, 0.1993110
865.7570, 0.2502660
866.2391, 0.2886020
866.7212, 0.3668990
867.2033, 0.6191490
867.6854, 0.8464490
868.1675, 0.7526280
868.6497, 0.4438850
869.1318, 0.2134190
869.6139, 0.1602780
870.0960, 0.1990880
870.5781, 0.3767010
871.0602, 0.6002520
871.5424, 0.6084170
872.0245, 0.3840870
872.5066, 0.2199630
872.9887, 0.1669380
873.4708, 0.1904470
873.9529, 0.2371580
874.4351, 0.2943180
874.9172, 0.3292100
875.3993, 0.2714770
875.8814, 0.2803890
876.3635, 0.5287720
876.8456, 0.8267510
877.3278, 0.9010150
877.8099, 0.6525580
878.2920, 0.4864470
878.7741, 0.4493540
879.2562, 0.4741260
879.7383, 0.5192510
880.2205, 0.5548220
880.7026, 0.4565770
881.1847, 0.1650820
881.6668, 4.0576998E-02
882.1489, 0.1323860
882.6310, 0.4098200
883.1132, 0.5459320
883.5953, 0.4730310
884.0774, 0.3673050
884.5595, 0.1925670
885.0416, 5.2838001E-02
885.5237, 4.7178999E-02
886.0059, 0.1533180
886.4880, 0.2489820
886.9701, 0.3290260
887.4522, 0.3708170
887.9343, 0.3326470
888.4164, 0.2669890
888.8986, 0.2107900
889.3807, 0.1671130
889.8628, 0.1476920
890.3449, 0.1688970
890.8270, 0.1916940
891.3091, 0.1959560
891.7913, 0.1901830
892.2734, 0.2289280
892.7555, 0.3096150
893.2376, 0.3831830
893.7197, 0.4398350
894.2018, 0.4629360
894.6840, 0.4043670
895.1661, 0.2974760
895.6482, 0.2385450
896.1303, 0.3666720
896.6124, 0.3878160
897.0945, 0.1675720
897.5767, 0.1505270
898.0588, 0.2400020
898.5409, 9.3749002E-02
899.0230, 5.5840999E-02
899.5051, 0.1781550
899.9872, 0.2790230
900.4694, 0.3037120
900.9515, 0.2914680
901.4336, 0.2406430
901.9157, 6.9466002E-02
902.3978, 2.0997999E-02
902.8799, 0.3590190
903.3621, 0.7141900
903.8442, 0.7210900
904.3263, 0.2782800
904.8084, 0.1223400
905.2905, 0.3242310
905.7726, 0.5811030
906.2548, 0.6143360
906.7369, 0.5023830
907.2190, 0.3387720
907.7011, 0.1324170
908.1832, 1.2525000E-02
908.6653, 3.1217000E-02
909.1475, 1.3343000E-02
909.6296, 9.2533000E-02
910.1117, 0.2039420
910.5938, 0.2927200
911.0759, 0.3588670
911.5580, 0.3995190
912.0402, 0.4028270
912.5223, 0.3845000
913.0044, 0.3166040
913.4865, 0.2275480
913.9686, 0.2384900
914.4507, 0.6378480
914.9329, 0.9035690
915.4150, 0.6620010
915.8971, 0.1425320
916.3792, 5.4552000E-02
916.8613, 0.1706150
917.3434, 0.3100540
917.8256, 0.2277470
918.3077, 6.8575002E-02
918.7898, 3.0049000E-02
919.2719, 0.1028310
919.7540, 0.2971740
920.2361, 0.7302580
920.7183, 1.008417
921.2004, 0.7807320
921.6825, 0.4070880
922.1646, 0.2690630
922.6467, 0.4889140
923.1288, 0.5864140
923.6110, 0.5449540
924.0931, 0.4259650
924.5752, 0.1837430
925.0573, 6.5580003E-02
925.5394, 3.2800999E-02
926.0215, 0.5060100
926.5037, 0.8405430
926.9858, 0.6581460
927.4679, 0.3781660
927.9500, 0.2768250
928.4321, 0.3407220
928.9142, 0.2404920
929.3964, 0.1153570
929.8785, 0.2783900
930.3606, 5.4641001E-02
930.8427, 0.6218630
931.3248, 0.8486020
931.8069, 0.7979160
932.2891, 0.6763390
932.7712, 0.5102530
933.2533, 0.3685710
933.7354, 0.2861520
934.2175, 0.2452510
934.6996, 0.1970710
935.1818, 0.1050980
935.6639, 0.1535490
936.1460, 0.4050360
936.6281, 0.6927830
937.1102, 0.8052500
937.5923, 0.7858340
938.0745, 0.7132470
938.5566, 0.5926360
939.0387, 0.4713590
939.5208, 0.3479980
940.0029, 0.2548710
940.4850, 0.2194630
940.9672, 0.2511850
941.4493, 0.2670440
941.9314, 0.2653130
942.4135, 0.2632440
942.8956, 0.2501290
943.3777, 0.2538870
943.8599, 0.3693260
944.3420, 0.5665190
944.8241, 0.6950080
945.3062, 0.6177350
945.7883, 0.5241110
946.2704, 0.4739340
946.7526, 0.4685860
947.2347, 0.5359380
947.7168, 0.6976400
948.1989, 0.7853460
948.6810, 0.7427540
949.1631, 0.6382410
949.6453, 0.5125330
950.1274, 0.4102620
950.6095, 0.4416230
951.0916, 0.7735200
951.5737, 0.9340160
952.0558, 0.5694890
952.5380, 0.1367890
953.0201, 8.3560003E-03
953.5022, 0.2322180
953.9843, 0.3949980
954.4664, 0.4864140
954.9485, 0.5435440
955.4307, 0.6614030
955.9128, 0.7169640
956.3949, 0.4330250
956.8770, 0.1646590
957.3591, 0.4615410
957.8412, 0.1467050
958.3234, 0.6408740
958.8055, 0.6516950
959.2876, 0.3248390
959.7697, 0.2134940
960.2518, 0.3130510
960.7339, 0.4111070
961.2161, 0.4310740
961.6982, 0.4193090
962.1803, 0.3628900
962.6624, 0.3280790
963.1445, 0.4211140
963.6266, 0.9616660
964.1088, 1.163980
964.5909, 0.8207740
965.0730, 0.3608150
965.5551, 0.2664690
966.0372, 0.4849060
966.5193, 0.5083770
967.0015, 0.3019240
967.4836, 0.1883940
967.9657, 0.5853330
968.4478, 1.057991
968.9299, 1.205024
969.4120, 1.001745
969.8942, 0.9294140
970.3763, 1.125939
970.8584, 1.194248
971.3405, 0.8991090
971.8226, 0.4556380
972.3047, 0.5570180
972.7869, 1.058137
973.2690, 1.359239
973.7511, 1.093683
974.2332, 0.7362600
974.7153, 0.4371760
975.1974, 0.2660820
975.6796, 0.3532200
976.1617, 0.8745120
976.6438, 1.121302
977.1259, 1.011073
977.6080, 0.7979150
978.0901, 0.7296340
978.5723, 0.7547590
979.0544, 0.7896550
979.5365, 0.8247790
980.0186, 0.8041940
980.5007, 0.6115410
980.9828, 0.4481880
981.4650, 0.4616680
981.9471, 0.6034350
982.4291, 0.4848480
982.9113, 6.1786000E-02
983.3934, 0.1681050
983.8755, 7.9976998E-02
984.3576, 0.4649390
984.8397, 0.5424750
985.3218, 0.4223070
985.8040, 0.3053360
986.2861, 0.2228910
986.7682, 0.1980220
987.2503, 0.2364150
987.7324, 0.3026720
988.2145, 0.4175850
988.6967, 0.5563140
989.1788, 0.5672540
989.6609, 0.4364810
990.1430, 0.3128270
990.6251, 0.2989880
991.1072, 0.3555690
991.5894, 0.4785500
992.0715, 0.6599010
992.5536, 0.7839060
993.0357, 0.8451790
993.5178, 0.8450630
993.9999, 0.7619670
994.4821, 0.6407730
994.9642, 0.5905900
995.4463, 0.5970370
995.9284, 0.6169710
996.4105, 0.6783380
996.8926, 0.6666020
997.3748, 0.4162000
997.8569, 0.1215530
998.3390, 6.8520000E-03
998.8211, 0.1417060
999.3032, 0.2018550
999.7853, 0.1624690
1000.267, 0.1569860
1000.750, 0.3941770
1001.232, 0.6922500
1001.714, 0.6999370
1002.196, 0.4466870
1002.678, 0.2936200
1003.160, 0.5145070
1003.642, 0.7005220
1004.124, 0.6983960
1004.607, 0.5905300
1005.089, 0.6419350
1005.571, 0.8405320
1006.053, 0.9044560
1006.535, 0.7162660
1007.017, 0.4902060
1007.499, 0.3424720
1007.981, 0.3144530
1008.463, 0.4921090
1008.946, 1.095152
1009.428, 1.335485
1009.910, 1.082944
1010.392, 0.7273770
1010.874, 0.5251540
1011.356, 0.4450170
1011.838, 0.3901890
1012.320, 0.3493960
1012.802, 0.2599050
1013.285, 2.5147000E-02
1013.767, 0.2481200
1014.249, 0.2477660
1014.731, 0.1160710
1015.213, 1.5267000E-02
1015.695, 0.1028900
1016.177, 0.2392240
1016.659, 0.4090350
1017.142, 0.5573390
1017.624, 0.5829810
1018.106, 0.5585790
1018.588, 0.6143160
1019.070, 0.8025460
1019.552, 0.8505480
1020.034, 0.5558950
1020.516, 0.3014310
1020.998, 0.2623860
1021.481, 0.4101770
1021.963, 0.6700020
1022.445, 1.007756
1022.927, 1.170249
1023.409, 0.8876810
1023.891, 0.5786240
1024.373, 0.5402040
1024.855, 0.6555570
1025.338, 0.7095310
1025.820, 0.6246590
1026.302, 0.6910380
1026.784, 0.9835210
1027.266, 1.261810
1027.748, 1.248994
1028.230, 1.059441
1028.712, 0.8543630
1029.194, 0.6558030
1029.677, 0.5464530
1030.159, 0.6690750
1030.641, 0.7635510
1031.123, 0.7158620
1031.605, 0.5773440
1032.087, 0.5209080
1032.569, 0.5439150
1033.051, 0.6022650
1033.534, 0.7102200
1034.016, 0.7763610
1034.498, 0.6651320
1034.980, 0.4914570
1035.462, 0.4012620
1035.944, 0.4678190
1036.426, 0.4439140
1036.908, 0.2758920
1037.391, 0.1662480
1037.873, 0.2990310
1038.355, 0.5879410
1038.837, 0.8822070
1039.319, 1.157965
1039.801, 1.244164
1040.283, 0.8247990
1040.765, 0.5204180
1041.247, 0.6365890
1041.729, 0.9254070
1042.212, 0.8827770
1042.694, 0.5006910
1043.176, 0.3613060
1043.658, 0.5793340
1044.140, 0.7821690
1044.622, 0.5089820
1045.104, 0.1382940
1045.586, 6.0795002E-02
1046.069, 0.3379060
1046.551, 0.5705560
1047.033, 0.7681010
1047.515, 0.8509970
1047.997, 0.7582830
1048.479, 0.5668740
1048.961, 0.4015610
1049.443, 0.2772800
1049.926, 0.2328660
1050.408, 0.3079770
1050.890, 0.4201440
1051.372, 0.6147890
1051.854, 0.7757960
1052.336, 0.8026530
1052.818, 0.6893150
1053.300, 0.5202540
1053.782, 0.2956390
1054.265, 0.1919950
1054.747, 0.4951680
1055.229, 0.8304410
1055.711, 0.8246360
1056.193, 0.5763240
1056.675, 0.4945920
1057.157, 0.6947550
1057.639, 0.8361820
1058.121, 0.8761360
1058.604, 0.8145910
1059.086, 0.5403600
1059.568, 0.1970590
1060.050, 9.4792999E-02
1060.532, 0.3009650
1061.014, 0.5116820
1061.496, 0.6783100
1061.978, 0.7361910
1062.461, 0.6002050
1062.943, 0.3414880
1063.425, 0.3503240
1063.907, 0.5937490
1064.389, 0.7407950
1064.871, 0.6179640
1065.353, 0.4436930
1065.835, 0.2882240
1066.318, 0.2264810
1066.800, 0.3980930
1067.282, 0.9832600
1067.764, 1.145738
1068.246, 0.7995870
1068.728, 0.4308070
1069.210, 0.4991330
1069.692, 0.7317060
1070.174, 0.6409610
1070.656, 0.3115560
1071.139, 0.1030950
1071.621, 0.2574660
1072.103, 0.3659070
1072.585, 0.3527160
1073.067, 0.2918460
1073.549, 0.3021600
1074.031, 0.3597450
1074.513, 0.3558520
1074.996, 0.2673920
1075.478, 0.2028760
1075.960, 0.2411760
1076.442, 0.3280960
1076.924, 0.4743090
1077.406, 0.6467490
1077.888, 0.6060920
1078.370, 0.3400480
1078.853, 9.7143002E-02
1079.335, 6.0963999E-02
1079.817, 0.1074300
1080.299, 4.9038999E-02
1080.781, 0.3084740
1081.263, 0.5524540
1081.745, 0.8277680
1082.227, 0.8705000
1082.709, 0.6105120
1083.192, 0.2963530
1083.674, 4.0307000E-02
1084.156, 0.1359300
1084.638, 0.1390400
1085.120, 1.0945000E-02
1085.602, 0.1038260
1086.084, 0.1410880
1086.566, 0.1615730
1087.048, 0.1501650
1087.531, 0.1585440
1088.013, 0.2922730
1088.495, 0.5296110
1088.977, 0.5764120
1089.459, 0.4133690
1089.941, 0.2751580
1090.423, 0.3868190
1090.905, 0.5252730
1091.387, 0.5014530
1091.870, 0.3733200
1092.352, 0.4244510
1092.834, 0.6959200
1093.316, 0.8439630
1093.798, 0.7643780
1094.280, 0.6326650
1094.762, 0.7327060
1095.244, 0.8613680
1095.727, 0.7027300
1096.209, 0.1282890
1096.691, 0.1500750
1097.173, 8.6930003E-03
1097.655, 0.2277980
1098.137, 0.3680880
1098.619, 0.4310230
1099.101, 0.3753820
1099.583, 0.2472360
1100.066, 0.1650790
1100.548, 0.1753700
1101.030, 0.2290780
1101.512, 0.3749340
1101.994, 0.4947280
1102.476, 0.4660250
1102.958, 0.3047920
1103.440, 0.2541800
1103.922, 0.3100330
1104.405, 0.4135510
1104.887, 0.6280770
1105.369, 0.7766530
1105.851, 0.6840640
1106.333, 0.4832350
1106.815, 0.4512540
1107.297, 0.6275900
1107.779, 0.6653480
1108.262, 0.5171090
1108.744, 0.3521860
1109.226, 0.3500860
1109.708, 0.3905250
1110.190, 0.3531970
1110.672, 0.2356040
1111.154, 0.1073400
1111.636, 5.3817999E-02
1112.119, 0.1469230
1112.601, 0.1417430
1113.083, 7.6223999E-02
1113.565, 4.0029999E-02
1114.047, 2.8058000E-02
1114.529, 0.3146060
1115.011, 0.9370480
1115.493, 1.195786
1115.975, 0.6620900
1116.458, 0.1701550
1116.940, 9.0017997E-02
1117.422, 0.2904020
1117.904, 0.3645170
1118.386, 0.3436890
1118.868, 0.3418640
1119.350, 0.4274790
1119.832, 0.4830610
1120.314, 0.4491750
1120.797, 0.3708200
1121.279, 0.2504180
1121.761, 9.0002000E-02
1122.243, 0.1226400
1122.725, 0.3360600
1123.207, 0.5432930
1123.689, 0.6580920
1124.171, 0.7025540
1124.654, 0.6258800
1125.136, 0.5122100
1125.618, 0.5335240
1126.100, 0.7517400
1126.582, 0.7412330
1127.064, 0.4478260
1127.546, 0.1911890
1128.028, 0.3403590
1128.510, 0.5956310
1128.993, 0.6301500
1129.475, 0.4769560
1129.957, 0.4076860
1130.439, 0.5189840
1130.921, 0.4795570
1131.403, 0.1899880
1131.885, 0.1315130
1132.367, 0.2182100
1132.849, 0.1413490
1133.332, 1.4749000E-02
1133.814, 0.2409170
1134.296, 0.4328660
1134.778, 0.6134770
1135.260, 0.6861060
1135.742, 0.5433520
1136.224, 0.3113480
1136.706, 0.2511970
1137.189, 0.3123540
1137.671, 0.3830860
1138.153, 0.4603410
1138.635, 0.4892130
1139.117, 0.4024940
1139.599, 0.3119990
1140.081, 0.2679850
1140.563, 0.2652920
1141.046, 0.2898720
1141.528, 0.3336710
1142.010, 0.3424570
1142.492, 0.2606220
1142.974, 0.2384660
1143.456, 0.3901520
1143.938, 0.5926850
1144.420, 0.7472080
1144.902, 0.8556120
1145.385, 0.8888960
1145.867, 0.8483060
1146.349, 0.7566940
1146.831, 0.5453290
1147.313, 0.3731830
1147.795, 0.4300990
1148.277, 0.5695550
1148.759, 0.5200850
1149.241, 0.2078450
1149.724, 0.1242580
1150.206, 0.3098160
1150.688, 0.5013690
1151.170, 0.4347300
1151.652, 0.3093970
1152.134, 0.3218070
1152.616, 0.4370010
1153.098, 0.4930860
1153.581, 0.4492190
1154.063, 0.4777940
1154.545, 0.6178030
1155.027, 0.7290180
1155.509, 0.5256140
1155.991, 0.2394370
1156.473, 5.5200001E-03
1156.955, 0.2640050
1157.438, 0.4163790
1157.920, 0.4587110
1158.402, 6.1425999E-02
1158.884, 0.2318180
1159.366, 0.1747120
1159.848, 0.1089710
1160.330, 0.3592610
1160.812, 2.5921000E-02
1161.294, 0.2711880
1161.776, 0.2854850
1162.259, 0.4054950
1162.741, 0.2965980
1163.223, 0.2584030
1163.705, 0.4493140
1164.187, 0.5134510
1164.669, 0.3782040
1165.151, 0.5049320
1165.633, 0.1635940
1166.116, 0.2329940
1166.598, 0.4796050
1167.080, 0.3558970
1167.562, 0.4868520
1168.044, 0.5208220
1168.526, 0.1140360
1169.008, 0.4745400
1169.490, 0.5089410
1169.973, 0.1928320
1170.455, 0.5173810
1170.937, 0.2473670
1171.419, 0.1933200
1171.901, 0.3025100
1172.383, 0.2441580
1172.865, 0.4501180
1173.347, 0.4014470
1173.829, 0.3300250
1174.312, 0.3578890
1174.794, 0.1044120
1175.276, 0.3728690
1175.758, 0.2847990
1176.240, 0.3739460
1176.722, 0.5032600
1177.204, 0.3249950
1177.686, 0.4723530
1178.168, 0.1147380
1178.651, 0.1796500
1179.133, 0.1990570
1179.615, 0.4885300
1180.097, 0.1333640
1180.579, 0.1865190
1181.061, 0.4135370
1181.543, 0.3972850
1182.025, 0.4827390
1182.508, 0.2670770
1182.990, 0.3342870
1183.472, 0.3235320
1183.954, 0.5822100
1184.436, 0.6281900
1184.918, 0.4317050
1185.400, 0.5583070
1185.882, 0.6723690
1186.365, 0.7049760
1186.847, 0.6838940
1187.329, 0.5732580
1187.811, 0.4688670
1188.293, 0.4932820
1188.775, 0.5899380
1189.257, 0.4790520
1189.739, 0.1157190
1190.221, 0.1257470
1190.703, 0.7271300
1191.186, 1.229167
1191.668, 0.7371020
1192.150, 1.8030999E-02
1192.632, 0.2576600
1193.114, 9.5794998E-02
1193.596, 0.1568700
1194.078, 0.4967580
1194.560, 0.7037760
1195.043, 0.6894230
1195.525, 0.6069980
1196.007, 0.6244970
1196.489, 0.6434890
1196.971, 0.5204740
1197.453, 0.2507420
1197.935, 0.1973140
1198.417, 0.3935590
1198.900, 0.5047060
1199.382, 0.3684700
1199.864, 0.2088670
1200.346, 0.3157810
1200.828, 0.4993260
1201.310, 0.5022240
1201.792, 0.2714460
1202.274, 0.2712880
1202.756, 0.5332630
1203.239, 0.7499940
1203.721, 0.7853900
1204.203, 0.7133570
1204.685, 0.5515150
1205.167, 0.3614230
1205.649, 0.2308490
1206.131, 0.1720570
1206.613, 0.1257840
1207.095, 8.6567000E-02
1207.578, 0.1057080
1208.060, 0.2755980
1208.542, 0.4339240
1209.024, 0.2958560
1209.506, 6.8989001E-02
1209.988, 0.1163710
1210.470, 0.5703440
1210.952, 0.8194720
1211.435, 0.8478200
1211.917, 0.8174000
1212.399, 0.8788320
1212.881, 0.8874180
1213.363, 0.5477270
1213.845, 9.9522002E-02
1214.327, 1.5380000E-03
1214.809, 0.4189310
1215.292, 0.6258280
1215.774, 0.6034390
1216.256, 0.4805750
1216.738, 0.2191360
1217.220, 2.1039000E-02
1217.702, 0.1842790
1218.184, 0.5277320
1218.666, 0.6535680
1219.148, 0.4845260
1219.630, 0.3431030
1220.113, 0.2418530
1220.595, 0.1755530
1221.077, 0.1404610
1221.559, 0.1389110
1222.041, 0.2003330
1222.523, 0.2919340
1223.005, 0.3239060
1223.487, 0.2626570
1223.970, 0.3311570
1224.452, 0.5679850
1224.934, 0.7268180
1225.416, 0.5536080
1225.898, 0.2851610
1226.380, 3.5863001E-02
1226.862, 0.1291270
1227.344, 6.0401998E-02
1227.827, 0.2935190
1228.309, 0.5446490
1228.791, 0.6562900
1229.273, 0.7150670
1229.755, 0.8197330
1230.237, 0.8757570
1230.719, 0.7326930
1231.201, 0.4931050
1231.683, 0.4741190
1232.166, 0.7062300
1232.648, 0.7756190
1233.130, 0.6263580
1233.612, 0.4979840
1234.094, 0.6385750
1234.576, 0.8208610
1235.058, 0.8788190
1235.540, 0.8485130
1236.022, 0.8382170
1236.505, 0.8493650
1236.987, 0.7342230
1237.469, 0.4622830
1237.951, 0.2745390
1238.433, 0.4499730
1238.915, 0.6805750
1239.397, 0.7696130
1239.879, 0.7658980
1240.362, 0.8231330
1240.844, 0.9215390
1241.326, 0.7445870
1241.808, 0.2195320
1242.290, 0.1898320
1242.772, 6.3010000E-02
1243.254, 0.1639750
1243.736, 0.2810400
1244.219, 0.3164280
1244.701, 0.3254500
1245.183, 0.2972970
1245.665, 0.3106350
1246.147, 0.3702210
1246.629, 0.4259300
1247.111, 0.4202280
1247.593, 0.4491080
1248.075, 0.5863930
1248.557, 0.7545730
1249.040, 0.7870960
1249.522, 0.6945550
1250.004, 0.4550910
1250.486, 4.7364000E-02
1250.968, 0.1641720
1251.450, 0.2225120
1251.932, 0.5527100
1252.414, 0.5750240
1252.897, 0.4388940
1253.379, 0.4380490
1253.861, 0.5400070
1254.343, 0.6988090
1254.825, 0.9162270
1255.307, 0.9978380
1255.789, 0.7728340
1256.271, 0.5531470
1256.754, 0.4126620
1257.236, 0.3567180
1257.718, 0.4823100
1258.200, 0.6726740
1258.682, 0.6626620
1259.164, 0.3897270
1259.646, 0.2354450
1260.128, 0.2974210
1260.610, 0.3754450
1261.093, 0.4030710
1261.575, 0.4334910
1262.057, 0.5771080
1262.539, 0.7374960
1263.021, 0.8473650
1263.503, 0.8609430
1263.985, 0.9006560
1264.467, 1.011067
1264.949, 1.004357
1265.432, 0.7999500
1265.914, 0.5312690
1266.396, 0.2813820
1266.878, 0.1215750
1267.360, 0.1855920
1267.842, 0.4874380
1268.324, 0.6595190
1268.806, 0.6860780
1269.289, 0.7294000
1269.771, 0.8699650
1270.253, 0.8705380
1270.735, 0.4454260
1271.217, 3.2049000E-02
1271.699, 0.1027370
1272.181, 0.1608530
1272.663, 0.2742930
1273.146, 0.2404520
1273.628, 0.2921550
1274.110, 0.5145360
1274.592, 0.6819740
1275.074, 0.7254280
1275.556, 0.6652750
1276.038, 0.4981010
1276.520, 0.2782450
1277.002, 0.2251950
1277.484, 0.3120820
1277.967, 0.3693860
1278.449, 0.3464710
1278.931, 0.3469570
1279.413, 0.5005170
1279.895, 0.6022580
1280.377, 0.5538100
1280.859, 0.4011180
1281.341, 0.1708070
1281.823, 5.5752002E-02
1282.306, 6.4070001E-03
1282.788, 0.4732480
1283.270, 0.8145010
1283.752, 0.8440790
1284.234, 0.7501590
1284.716, 0.4471460
1285.198, 0.2403960
1285.680, 0.5605990
1286.163, 1.094643
1286.645, 1.241620
1287.127, 0.8689590
1287.609, 0.6075520
1288.091, 0.5479010
1288.573, 0.5175200
1289.055, 0.4664700
1289.537, 0.4166430
1290.020, 0.3289970
1290.502, 0.3357580
1290.984, 0.3728250
1291.466, 0.4463810
1291.948, 0.5378900
1292.430, 0.6654010
1292.912, 0.6520770
1293.394, 0.4220430
1293.876, 0.1842650
1294.359, 0.1568850
1294.841, 0.1872390
1295.323, 0.1169900
1295.805, 6.1189998E-03
1296.287, 6.3258000E-02
1296.769, 0.1729910
1297.251, 0.0000000E+00
##END=



