##NAMES=Senandorite
##RRUFFID=R070718
##IDEAL CHEMISTRY=Ag^1+^Pb^2+^Sb^3+^_3_S^2-^_6_
##LOCALITY=Bear Basin Mines, Lennox Creek, Bear Basin, North Bend, King County, Washington, USA
##OWNER=RRUFF
##SOURCE=Michael Scott
##DESCRIPTION=Black, massive in polished section, associated with andorite IV and white kutnohorite. Andorite VI:andorite IV = 80:20
##STATUS=The identification of this mineral has been confirmed by single-crystal X-ray diffraction.
##URL=rruff.info/R070718
128.8054, 0.0000000E+00
129.2875, 11.12952
129.7696, 0.4736330
130.2518, 9.622070
130.7339, 43.89954
131.2160, 78.72644
131.6981, 87.92737
132.1802, 73.57288
132.6623, 20.08984
133.1445, 57.94019
133.6266, 78.81128
134.1087, 83.54211
134.5908, 23.29529
135.0729, 47.14917
135.5550, 37.40210
136.0372, 26.39270
136.5193, 62.34485
137.0014, 12.18811
137.4835, 48.02759
137.9656, 49.61047
138.4477, 66.77161
138.9299, 49.98364
139.4120, 43.59595
139.8941, 71.04041
140.3762, 79.69458
140.8583, 58.91614
141.3404, 76.85657
141.8225, 25.52856
142.3047, 35.44690
142.7868, 71.76123
143.2689, 53.16101
143.7510, 72.15283
144.2331, 76.68933
144.7152, 15.91321
145.1974, 76.32312
145.6795, 82.18079
146.1616, 35.05334
146.6437, 83.42676
147.1258, 43.13403
147.6079, 37.25439
148.0901, 30.69543
148.5722, 34.44824
149.0543, 64.24780
149.5364, 90.50928
150.0185, 100.1176
150.5006, 69.20239
150.9828, 49.87427
151.4649, 47.60107
151.9470, 62.36304
152.4291, 77.06482
152.9112, 93.79626
153.3933, 107.3148
153.8755, 113.7087
154.3576, 104.3074
154.8397, 99.60388
155.3218, 106.4554
155.8039, 110.5740
156.2860, 116.9785
156.7682, 119.4462
157.2503, 119.1136
157.7324, 116.1799
158.2145, 111.4153
158.6966, 103.3258
159.1787, 90.96045
159.6609, 73.47522
160.1430, 54.18860
160.6251, 28.30774
161.1072, 4.500000
161.5893, 11.04285
162.0714, 1.694824
162.5536, 24.00134
163.0357, 43.66943
163.5178, 61.74817
163.9999, 72.34961
164.4820, 68.93018
164.9641, 53.52539
165.4463, 38.85779
165.9284, 29.75183
166.4105, 25.14636
166.8926, 23.90002
167.3747, 29.83069
167.8568, 35.98230
168.3390, 34.58667
168.8211, 24.61389
169.3032, 20.67786
169.7853, 43.82202
170.2674, 78.89355
170.7495, 99.42029
171.2317, 78.31128
171.7138, 43.65417
172.1959, 25.10437
172.6780, 29.39868
173.1601, 37.45569
173.6422, 31.67236
174.1244, 15.63831
174.6065, 1.205566
175.0886, 4.572998
175.5707, 4.513062
176.0528, 2.686523
176.5349, 4.1138001E-02
177.0171, 4.224976
177.4992, 12.09338
177.9813, 23.10986
178.4634, 34.05261
178.9455, 49.69373
179.4276, 63.61841
179.9098, 60.23389
180.3919, 19.30908
180.8740, 33.75476
181.3561, 53.75684
181.8382, 39.32166
182.3203, 16.54248
182.8025, 13.25549
183.2846, 24.58081
183.7667, 30.63672
184.2488, 18.44153
184.7309, 5.650391
185.2130, 24.44897
185.6951, 38.52051
186.1773, 45.37207
186.6594, 36.44507
187.1415, 13.22583
187.6236, 5.149292
188.1057, 4.750488
188.5878, 10.42627
189.0700, 21.54907
189.5521, 26.18994
190.0342, 26.93921
190.5163, 30.47437
190.9984, 37.03748
191.4805, 37.70032
191.9627, 17.94543
192.4448, 19.45447
192.9269, 38.47803
193.4090, 28.32849
193.8911, 1.265991
194.3732, 22.47778
194.8554, 34.94751
195.3375, 42.18726
195.8196, 46.88086
196.3017, 49.05005
196.7838, 49.29456
197.2659, 47.50122
197.7481, 43.90222
198.2302, 39.60669
198.7123, 34.42017
199.1944, 29.21216
199.6765, 24.51587
200.1586, 20.06995
200.6408, 17.88379
201.1229, 19.23413
201.6050, 24.16138
202.0871, 28.54077
202.5692, 31.82178
203.0513, 35.32080
203.5335, 41.53247
204.0156, 50.87061
204.4977, 61.10437
204.9798, 72.44214
205.4619, 85.58740
205.9440, 93.46387
206.4262, 94.55017
206.9083, 91.14746
207.3904, 88.70398
207.8725, 87.06177
208.3546, 86.72083
208.8367, 88.74585
209.3189, 94.31750
209.8010, 97.09631
210.2831, 95.94385
210.7652, 91.70105
211.2473, 87.13977
211.7294, 80.49121
212.2116, 77.03748
212.6937, 82.63635
213.1758, 101.7236
213.6579, 115.2749
214.1400, 118.7064
214.6221, 112.9834
215.1043, 111.6475
215.5864, 115.7384
216.0685, 122.7468
216.5506, 131.6019
217.0327, 145.8910
217.5148, 152.6201
217.9970, 144.8218
218.4791, 120.8251
218.9612, 112.5337
219.4433, 128.0759
219.9254, 152.3268
220.4075, 161.8542
220.8897, 147.4729
221.3718, 134.8157
221.8539, 132.8096
222.3360, 144.5514
222.8181, 151.3405
223.3002, 150.9014
223.7824, 146.8606
224.2645, 144.8516
224.7466, 142.1189
225.2287, 146.2551
225.7108, 163.6272
226.1929, 206.1013
226.6750, 227.5135
227.1572, 218.1248
227.6393, 190.4697
228.1214, 177.0829
228.6035, 184.5999
229.0856, 196.6909
229.5677, 205.9999
230.0499, 212.1898
230.5320, 216.0737
231.0141, 217.0284
231.4962, 215.6364
231.9783, 214.3533
232.4604, 213.7242
232.9426, 212.0432
233.4247, 207.5918
233.9068, 195.4547
234.3889, 191.6064
234.8710, 201.0399
235.3531, 221.6385
235.8353, 234.8292
236.3174, 239.5181
236.7995, 238.1150
237.2816, 231.1992
237.7637, 212.9950
238.2458, 200.4851
238.7280, 195.0040
239.2101, 197.0341
239.6922, 202.3901
240.1743, 214.4413
240.6564, 226.1141
241.1385, 230.6650
241.6207, 224.3739
242.1028, 219.3325
242.5849, 217.9175
243.0670, 219.5925
243.5491, 220.2156
244.0313, 216.8024
244.5134, 214.8191
244.9955, 222.0387
245.4776, 247.3550
245.9597, 266.1885
246.4418, 271.2211
246.9240, 259.5093
247.4061, 250.1190
247.8882, 242.8256
248.3703, 238.1204
248.8524, 238.0966
249.3345, 249.1455
249.8167, 253.5081
250.2988, 240.7877
250.7809, 200.6902
251.2630, 185.8246
251.7451, 207.4464
252.2272, 247.4723
252.7094, 275.8252
253.1915, 289.3613
253.6736, 296.5505
254.1557, 299.8073
254.6378, 298.0669
255.1199, 295.6432
255.6021, 292.1434
256.0842, 288.1884
256.5663, 285.5593
257.0484, 285.9449
257.5305, 284.6910
258.0126, 278.6749
258.4948, 263.8625
258.9769, 255.4607
259.4590, 253.8716
259.9411, 258.6533
260.4232, 270.6442
260.9053, 296.5786
261.3875, 317.4618
261.8696, 320.9497
262.3517, 298.4347
262.8338, 286.6515
263.3159, 291.8668
263.7980, 308.0005
264.2802, 313.7063
264.7623, 305.3654
265.2444, 293.8450
265.7265, 285.1837
266.2086, 280.1823
266.6907, 275.3129
267.1729, 268.8774
267.6550, 262.6318
268.1371, 264.3241
268.6192, 276.5692
269.1013, 290.8551
269.5834, 302.2377
270.0656, 311.0121
270.5477, 314.8722
271.0298, 312.6445
271.5119, 305.4314
271.9940, 297.4869
272.4761, 288.7803
272.9583, 279.6774
273.4404, 268.7822
273.9225, 254.6467
274.4046, 247.8901
274.8867, 252.5717
275.3688, 265.4629
275.8510, 272.2335
276.3331, 272.4023
276.8152, 267.8077
277.2973, 259.7964
277.7794, 248.3694
278.2615, 232.3561
278.7437, 207.0515
279.2258, 177.5114
279.7079, 170.5997
280.1900, 191.0974
280.6721, 215.7131
281.1542, 221.6462
281.6364, 207.9895
282.1185, 197.2000
282.6006, 194.1725
283.0827, 197.6487
283.5648, 204.9333
284.0469, 217.4517
284.5291, 226.4517
285.0112, 219.5504
285.4933, 197.3940
285.9754, 181.8734
286.4575, 181.8674
286.9396, 191.8004
287.4217, 191.2026
287.9038, 178.8250
288.3860, 164.7756
288.8681, 158.9037
289.3502, 160.5961
289.8323, 163.9407
290.3144, 167.9172
290.7965, 172.1200
291.2787, 176.5936
291.7608, 181.6555
292.2429, 183.3481
292.7250, 176.4701
293.2071, 162.3392
293.6892, 147.3500
294.1714, 133.6584
294.6535, 120.8712
295.1356, 104.5696
295.6177, 83.01605
296.0998, 67.96936
296.5819, 78.79858
297.0641, 106.6282
297.5462, 121.1359
298.0283, 102.1433
298.5104, 69.55005
298.9925, 57.68268
299.4746, 66.45856
299.9568, 79.06024
300.4389, 76.50757
300.9210, 65.89301
301.4031, 64.62231
301.8852, 91.25116
302.3673, 124.0338
302.8495, 131.8842
303.3316, 115.0486
303.8137, 93.53430
304.2958, 77.94055
304.7779, 69.85510
305.2600, 72.40869
305.7422, 99.50659
306.2243, 128.4059
306.7064, 132.0673
307.1885, 111.9987
307.6706, 94.00580
308.1527, 102.3473
308.6349, 122.5959
309.1170, 134.6519
309.5991, 119.4630
310.0812, 102.4009
310.5633, 103.9312
311.0454, 122.8127
311.5276, 141.9421
312.0097, 154.7435
312.4918, 161.1752
312.9739, 161.1703
313.4560, 146.6842
313.9381, 132.2734
314.4203, 127.4048
314.9024, 131.2021
315.3845, 134.0909
315.8666, 127.6407
316.3487, 119.7798
316.8308, 118.0062
317.3130, 133.5587
317.7951, 147.5031
318.2772, 149.3785
318.7593, 140.3539
319.2414, 136.0737
319.7235, 146.9211
320.2057, 161.7310
320.6878, 171.7653
321.1699, 176.5169
321.6520, 174.8480
322.1341, 159.7928
322.6162, 133.6179
323.0984, 119.7723
323.5805, 137.1430
324.0626, 159.9728
324.5447, 170.5362
325.0268, 153.3457
325.5089, 139.1516
325.9911, 134.6909
326.4732, 138.9250
326.9553, 138.7053
327.4374, 122.6474
327.9195, 108.4791
328.4016, 106.4584
328.8838, 131.9073
329.3659, 151.2408
329.8480, 162.2562
330.3301, 165.4285
330.8122, 163.6083
331.2943, 151.1824
331.7765, 139.2256
332.2586, 134.0567
332.7407, 139.0568
333.2228, 145.3698
333.7049, 156.2726
334.1870, 168.3794
334.6692, 165.4352
335.1513, 135.9606
335.6334, 109.8385
336.1155, 106.5921
336.5976, 136.8152
337.0797, 155.2366
337.5619, 154.6081
338.0440, 142.6638
338.5261, 144.0099
339.0082, 164.1019
339.4903, 181.0721
339.9724, 179.7166
340.4546, 157.0477
340.9367, 143.4130
341.4188, 143.1815
341.9009, 148.7444
342.3830, 142.2276
342.8651, 122.3870
343.3473, 103.7014
343.8294, 97.02332
344.3115, 100.9316
344.7936, 95.97852
345.2757, 78.80804
345.7578, 58.61932
346.2400, 50.20496
346.7221, 53.22021
347.2042, 59.49701
347.6863, 68.27911
348.1684, 77.30829
348.6505, 78.40875
349.1327, 70.21564
349.6148, 58.79077
350.0969, 53.27667
350.5790, 51.37628
351.0611, 44.82733
351.5432, 20.76019
352.0254, 7.392639
352.5075, 15.52350
352.9896, 1.097473
353.4717, 16.92987
353.9538, 22.72223
354.4359, 19.42401
354.9181, 13.04840
355.4002, 3.174194
355.8823, 6.640381
356.3644, 13.49921
356.8465, 17.32202
357.3286, 18.03833
357.8108, 12.01288
358.2929, 3.782166
358.7750, 0.7876590
359.2571, 3.297791
359.7392, 9.229065
360.2213, 13.26630
360.7035, 15.54449
361.1856, 18.44070
361.6677, 26.61810
362.1498, 34.08258
362.6319, 35.72983
363.1140, 25.08499
363.5962, 13.73764
364.0783, 3.799225
364.5604, 4.562775
365.0425, 10.06757
365.5246, 11.60852
366.0067, 10.72244
366.4889, 8.396301
366.9710, 1.091858
367.4531, 3.528992
367.9352, 3.116333
368.4173, 1.080475
368.8994, 3.345978
369.3815, 2.216888
369.8636, 0.3348390
370.3458, 1.344116
370.8279, 4.730438
371.3100, 4.624542
371.7921, 6.5125003E-02
372.2742, 7.985779
372.7563, 16.66016
373.2385, 29.62234
373.7206, 37.43671
374.2027, 34.63220
374.6848, 17.47672
375.1669, 5.107971
375.6490, 1.747650
376.1312, 4.522247
376.6133, 5.065155
377.0954, 2.753662
377.5775, 0.7599790
378.0596, 0.7090760
378.5417, 2.485138
379.0239, 2.186096
379.5060, 0.7897640
379.9881, 4.125610
380.4702, 3.306122
380.9523, 1.410797
381.4344, 1.717773
381.9166, 8.967712
382.3987, 25.28049
382.8808, 30.02951
383.3629, 22.67029
383.8450, 12.35181
384.3271, 4.138275
384.8093, 0.5042110
385.2914, 4.297455
385.7735, 27.06183
386.2556, 53.40128
386.7377, 61.47870
387.2198, 53.21777
387.7020, 42.90234
388.1841, 39.54251
388.6662, 40.72113
389.1483, 43.67505
389.6304, 49.58765
390.1125, 54.10721
390.5947, 53.63779
391.0768, 49.05746
391.5589, 43.11679
392.0410, 33.93796
392.5231, 25.98856
393.0052, 22.92786
393.4874, 27.14957
393.9695, 31.99130
394.4516, 35.92270
394.9337, 38.62112
395.4158, 39.51471
395.8979, 34.70245
396.3801, 31.24487
396.8622, 33.46118
397.3443, 44.46399
397.8264, 50.45441
398.3085, 26.92712
398.7906, 40.41440
399.2728, 47.83875
399.7549, 49.55743
400.2370, 28.50952
400.7191, 36.83694
401.2012, 33.37744
401.6833, 29.42484
402.1655, 41.85666
402.6476, 24.06696
403.1297, 36.21939
403.6118, 36.40540
404.0939, 42.05322
404.5760, 35.86624
405.0582, 33.33057
405.5403, 42.62781
406.0224, 45.34399
406.5045, 37.73624
406.9866, 43.67938
407.4688, 25.38272
407.9509, 28.33722
408.4330, 40.46976
408.9151, 37.96057
409.3972, 45.12405
409.8793, 49.76703
410.3615, 51.49637
410.8436, 48.46805
411.3257, 42.67072
411.8078, 45.18939
412.2899, 58.69589
412.7720, 71.60345
413.2542, 65.63718
413.7363, 46.60193
414.2184, 32.33777
414.7005, 36.72699
415.1826, 48.10376
415.6647, 52.99045
416.1469, 51.02417
416.6290, 48.00302
417.1111, 45.30463
417.5932, 44.27966
418.0753, 47.09900
418.5574, 64.83673
419.0396, 77.49576
419.5217, 67.99808
420.0038, 40.51987
420.4859, 22.47717
420.9680, 36.18179
421.4501, 57.28009
421.9323, 68.59338
422.4144, 60.46222
422.8965, 51.05325
423.3786, 40.22049
423.8607, 30.03278
424.3428, 26.24274
424.8250, 35.74966
425.3071, 45.57498
425.7892, 51.59750
426.2713, 53.03033
426.7534, 53.50732
427.2355, 50.97888
427.7177, 48.44553
428.1998, 51.80112
428.6819, 66.51971
429.1640, 74.44873
429.6461, 68.23029
430.1282, 48.37405
430.6104, 34.92041
431.0925, 27.95422
431.5746, 27.02292
432.0567, 34.67789
432.5388, 51.20813
433.0209, 62.82782
433.5031, 66.42535
433.9852, 63.43637
434.4673, 54.85074
434.9494, 41.05179
435.4315, 28.88089
435.9136, 24.70761
436.3958, 25.80264
436.8779, 25.53015
437.3600, 22.79291
437.8421, 19.56720
438.3242, 16.37088
438.8063, 13.79730
439.2885, 14.42728
439.7706, 24.31216
440.2527, 35.62369
440.7348, 41.55075
441.2169, 41.39139
441.6990, 37.15518
442.1812, 23.65570
442.6633, 8.718964
443.1454, 1.963776
443.6275, 14.64624
444.1096, 27.82486
444.5917, 34.43301
445.0739, 34.85211
445.5560, 35.87677
446.0381, 39.89410
446.5202, 44.15170
447.0023, 47.02426
447.4844, 49.56235
447.9666, 49.19736
448.4487, 43.84323
448.9308, 35.72519
449.4129, 30.84314
449.8950, 30.14337
450.3771, 31.29413
450.8592, 34.68536
451.3413, 41.80804
451.8235, 42.29895
452.3056, 34.27853
452.7877, 22.53644
453.2698, 12.28983
453.7519, 3.407959
454.2340, 2.101288
454.7162, 3.743561
455.1983, 1.507202
455.6804, 5.604614
456.1625, 17.76978
456.6446, 30.32663
457.1267, 40.88129
457.6089, 48.62219
458.0910, 50.96240
458.5731, 45.25378
459.0552, 38.17719
459.5373, 40.19141
460.0194, 48.35983
460.5016, 52.45926
460.9837, 41.15082
461.4658, 26.12253
461.9479, 17.93399
462.4300, 18.85733
462.9121, 22.72034
463.3943, 29.11874
463.8764, 35.89706
464.3585, 39.14685
464.8406, 38.16394
465.3227, 33.02139
465.8048, 19.67731
466.2870, 1.664032
466.7691, 12.56805
467.2512, 2.414124
467.7333, 12.90359
468.2154, 23.67484
468.6975, 26.73065
469.1797, 30.56165
469.6618, 37.72125
470.1439, 45.31924
470.6260, 44.00299
471.1081, 29.02368
471.5902, 16.56180
472.0724, 15.23581
472.5545, 26.14169
473.0366, 30.35132
473.5187, 26.06448
474.0008, 19.96155
474.4829, 21.80389
474.9651, 30.73438
475.4472, 35.92120
475.9293, 31.08014
476.4114, 22.57901
476.8935, 25.84360
477.3756, 39.83533
477.8578, 51.74942
478.3399, 50.30087
478.8220, 41.50763
479.3041, 33.64340
479.7862, 27.87234
480.2683, 24.19531
480.7505, 23.77332
481.2326, 25.41528
481.7147, 26.61136
482.1968, 26.78320
482.6789, 25.97818
483.1610, 23.23575
483.6432, 17.95575
484.1253, 15.31958
484.6074, 20.66498
485.0895, 27.56516
485.5716, 29.69189
486.0537, 14.57169
486.5359, 10.55444
487.0180, 27.45157
487.5001, 58.82751
487.9822, 73.85071
488.4643, 64.48196
488.9464, 51.69806
489.4286, 46.59415
489.9107, 51.91614
490.3928, 49.68063
490.8749, 36.90637
491.3570, 21.63516
491.8391, 15.97122
492.3213, 19.91812
492.8034, 25.82303
493.2855, 32.88962
493.7676, 39.26569
494.2497, 38.76172
494.7318, 31.53220
495.2140, 24.25580
495.6961, 23.55954
496.1782, 26.30057
496.6603, 26.59262
497.1424, 21.60510
497.6245, 17.51395
498.1067, 22.20993
498.5888, 31.53406
499.0709, 35.94107
499.5530, 23.67413
500.0351, 11.47379
500.5172, 10.82697
500.9994, 24.92679
501.4815, 32.78610
501.9636, 22.85437
502.4457, 7.892578
502.9278, 0.5736690
503.4099, 0.7444150
503.8921, 5.650330
504.3742, 16.52161
504.8563, 31.14359
505.3384, 40.09082
505.8205, 42.15491
506.3026, 40.84128
506.7848, 37.39017
507.2669, 31.52731
507.7490, 24.71832
508.2311, 15.93961
508.7132, 8.602142
509.1953, 8.417175
509.6775, 14.62531
510.1596, 20.40933
510.6417, 24.34198
511.1238, 25.88309
511.6059, 21.17706
512.0880, 10.94772
512.5701, 4.818359
513.0522, 14.34036
513.5344, 30.30023
514.0165, 40.80899
514.4986, 42.67264
514.9807, 42.07739
515.4628, 45.12784
515.9449, 47.99496
516.4271, 44.19171
516.9092, 20.95169
517.3913, 0.6718440
517.8734, 5.553711
518.3555, 3.282104
518.8376, 7.249329
519.3198, 4.182709
519.8019, 15.17795
520.2840, 15.53088
520.7661, 2.689117
521.2482, 16.10587
521.7303, 23.40024
522.2125, 25.44714
522.6946, 22.57510
523.1767, 12.82379
523.6588, 6.384766
524.1409, 8.840698
524.6230, 18.16913
525.1052, 24.82205
525.5873, 28.23044
526.0694, 29.31921
526.5515, 27.56824
527.0336, 24.18509
527.5157, 23.25885
527.9979, 27.73676
528.4800, 31.56015
528.9621, 25.16519
529.4442, 12.25360
529.9263, 3.628204
530.4084, 8.764709
530.8906, 17.52106
531.3727, 23.18973
531.8548, 24.98416
532.3369, 25.67523
532.8190, 25.58765
533.3011, 25.10654
533.7833, 24.58936
534.2654, 22.77783
534.7475, 22.50726
535.2296, 24.16248
535.7117, 27.92648
536.1938, 33.87387
536.6760, 43.53131
537.1581, 49.60825
537.6402, 48.91150
538.1223, 40.82251
538.6044, 35.45773
539.0865, 32.97318
539.5687, 32.61002
540.0508, 36.77359
540.5329, 44.00861
541.0150, 41.42319
541.4971, 20.07397
541.9792, 5.335007
542.4614, 9.591309
542.9435, 3.896606
543.4256, 19.32343
543.9077, 31.96686
544.3898, 39.25360
544.8719, 36.05411
545.3541, 20.09543
545.8362, 7.142944
546.3183, 5.684875
546.8004, 10.74692
547.2825, 16.89087
547.7646, 28.04382
548.2468, 34.28735
548.7289, 30.20015
549.2110, 18.73744
549.6931, 12.77153
550.1752, 16.10692
550.6573, 19.71671
551.1395, 18.86787
551.6216, 12.13269
552.1037, 13.97466
552.5858, 25.82181
553.0679, 39.27452
553.5500, 41.26370
554.0322, 32.40918
554.5143, 28.91452
554.9964, 36.74208
555.4785, 49.27124
555.9606, 55.49890
556.4427, 55.84985
556.9249, 52.33066
557.4070, 40.26704
557.8891, 28.00284
558.3712, 28.41519
558.8533, 44.52248
559.3354, 54.47296
559.8176, 38.21155
560.2997, 13.12906
560.7818, 2.985245
561.2639, 3.091293
561.7460, 9.128601
562.2281, 8.888153
562.7103, 4.800705
563.1924, 6.499344
563.6745, 20.66052
564.1566, 31.80031
564.6387, 33.75984
565.1208, 25.58679
565.6030, 17.03061
566.0851, 6.852402
566.5672, 0.6717220
567.0493, 0.9430080
567.5314, 11.16513
568.0135, 17.75493
568.4957, 17.11299
568.9778, 14.11555
569.4599, 18.56725
569.9420, 28.38440
570.4241, 34.52660
570.9063, 26.62383
571.3884, 16.17990
571.8705, 16.32985
572.3526, 27.56207
572.8347, 37.85316
573.3168, 42.92996
573.7990, 43.02374
574.2811, 37.74899
574.7632, 18.06480
575.2453, 5.655167
575.7274, 8.890518
576.2095, 20.94325
576.6917, 27.32289
577.1738, 25.72594
577.6559, 20.89832
578.1380, 12.28215
578.6201, 1.593231
579.1022, 4.461151
579.5844, 24.33087
580.0665, 44.81885
580.5486, 54.12042
581.0307, 53.04280
581.5128, 44.61385
581.9949, 26.97252
582.4771, 10.10487
582.9592, 7.024460
583.4413, 14.41406
583.9234, 24.09599
584.4055, 34.83409
584.8876, 44.72968
585.3698, 54.20418
585.8519, 62.45427
586.3340, 64.95685
586.8161, 54.62016
587.2982, 41.84009
587.7803, 32.41788
588.2625, 28.24481
588.7446, 24.17606
589.2267, 18.40814
589.7088, 13.63301
590.1909, 13.47714
590.6730, 20.74916
591.1552, 25.04759
591.6373, 24.75421
592.1194, 20.33525
592.6015, 10.49081
593.0836, 5.457870
593.5657, 16.01620
594.0479, 13.40590
594.5300, 0.9088290
595.0121, 16.15800
595.4942, 38.04948
595.9763, 52.79918
596.4584, 43.72618
596.9406, 23.82654
597.4227, 9.849030
597.9048, 6.985596
598.3869, 9.483551
598.8690, 18.82291
599.3511, 30.65390
599.8333, 36.66739
600.3154, 29.88144
600.7975, 23.68567
601.2796, 20.83983
601.7617, 21.24783
602.2438, 21.80585
602.7260, 22.45876
603.2081, 23.36819
603.6902, 25.31120
604.1723, 28.63280
604.6544, 27.93513
605.1365, 21.75697
605.6187, 15.18842
606.1008, 16.52045
606.5829, 23.83276
607.0650, 29.26891
607.5471, 31.29356
608.0292, 29.20265
608.5114, 15.36853
608.9935, 5.036453
609.4756, 13.79077
609.9577, 15.03877
610.4398, 46.06920
610.9219, 53.54878
611.4041, 30.94293
611.8862, 17.89377
612.3683, 33.57143
612.8504, 54.29401
613.3325, 61.92007
613.8146, 49.68239
614.2968, 36.89539
614.7789, 21.97354
615.2610, 9.028458
615.7431, 9.699890
616.2252, 25.35139
616.7073, 36.03453
617.1895, 33.84685
617.6716, 23.39162
618.1537, 16.15338
618.6358, 11.82402
619.1179, 10.95857
619.6000, 14.79375
620.0822, 21.37300
620.5643, 29.86505
621.0464, 41.41359
621.5285, 47.88612
622.0106, 40.26102
622.4927, 27.15236
622.9749, 17.78821
623.4570, 14.96584
623.9391, 15.09077
624.4212, 19.32076
624.9033, 26.01393
625.3854, 30.20485
625.8676, 29.13939
626.3497, 31.72472
626.8318, 43.76160
627.3139, 63.37808
627.7960, 72.34187
628.2781, 70.27618
628.7603, 60.89020
629.2424, 39.44310
629.7245, 13.00606
630.2066, 2.303116
630.6887, 12.34709
631.1708, 26.91591
631.6530, 33.96599
632.1351, 35.56157
632.6172, 34.81958
633.0993, 29.02451
633.5814, 25.08975
634.0635, 26.90434
634.5457, 32.85895
635.0278, 36.85199
635.5099, 38.76329
635.9920, 37.94446
636.4741, 33.15919
636.9562, 24.03119
637.4384, 17.86890
637.9205, 14.92863
638.4026, 13.89496
638.8847, 14.52690
639.3668, 16.53447
639.8489, 17.15350
640.3311, 15.98627
640.8132, 13.70406
641.2953, 7.426437
641.7774, 0.8105320
642.2595, 2.079468
642.7416, 25.11270
643.2238, 46.02371
643.7059, 45.63750
644.1880, 29.80457
644.6701, 18.35799
645.1522, 21.00871
645.6343, 26.18826
646.1165, 30.42470
646.5986, 34.00531
647.0807, 33.00148
647.5628, 24.48933
648.0449, 15.63976
648.5270, 12.13857
649.0092, 14.43161
649.4913, 15.91089
649.9734, 15.53310
650.4555, 15.91032
650.9376, 23.21410
651.4197, 34.27975
651.9019, 38.90253
652.3840, 28.49593
652.8661, 16.69032
653.3482, 21.36707
653.8303, 36.49965
654.3124, 43.71988
654.7946, 27.32605
655.2767, 8.188171
655.7588, 4.882507
656.2408, 11.13893
656.7230, 11.94136
657.2051, 6.241165
657.6872, 3.354233
658.1693, 17.29626
658.6514, 38.83011
659.1335, 48.73511
659.6157, 43.82570
660.0978, 33.79498
660.5799, 33.08156
661.0620, 39.51718
661.5441, 39.71899
662.0262, 25.93564
662.5084, 11.27335
662.9905, 16.49631
663.4726, 34.20462
663.9547, 44.32260
664.4368, 28.25978
664.9189, 9.927795
665.4011, 2.233154
665.8832, 4.891891
666.3653, 8.447220
666.8474, 13.26173
667.3295, 15.96866
667.8116, 16.21878
668.2938, 11.96254
668.7759, 8.230560
669.2580, 3.665161
669.7401, 2.512833
670.2222, 13.76863
670.7043, 35.40805
671.1865, 45.89684
671.6686, 39.34686
672.1507, 25.16876
672.6328, 7.919312
673.1149, 7.931305
673.5970, 11.53902
674.0792, 15.98236
674.5613, 43.93887
675.0434, 54.82526
675.5255, 50.61534
676.0076, 43.56265
676.4897, 31.49217
676.9719, 21.75040
677.4540, 17.20996
677.9361, 18.33775
678.4182, 20.26184
678.9003, 23.33020
679.3824, 26.45886
679.8646, 30.08740
680.3467, 33.78139
680.8288, 30.22356
681.3109, 16.67674
681.7930, 4.776413
682.2751, 13.33536
682.7573, 32.69157
683.2394, 43.24469
683.7215, 33.07065
684.2036, 19.60413
684.6857, 11.38553
685.1678, 7.336655
685.6500, 4.494507
686.1321, 1.623917
686.6142, 2.200211
687.0963, 7.970795
687.5784, 27.08560
688.0605, 38.10526
688.5427, 38.84328
689.0248, 38.86568
689.5069, 45.16792
689.9890, 56.15952
690.4711, 54.92506
690.9532, 40.40958
691.4354, 24.14832
691.9175, 15.45027
692.3996, 12.47867
692.8817, 12.88713
693.3638, 17.22043
693.8459, 21.71394
694.3281, 24.66112
694.8102, 26.35849
695.2923, 27.17442
695.7744, 24.58134
696.2565, 24.53751
696.7386, 30.35384
697.2208, 38.82953
697.7029, 40.14323
698.1850, 32.42554
698.6671, 23.53821
699.1492, 14.42682
699.6313, 6.675705
700.1135, 8.974396
700.5956, 20.70175
701.0777, 30.92383
701.5598, 30.99873
702.0419, 25.99501
702.5240, 20.54752
703.0062, 14.93756
703.4883, 13.57787
703.9704, 23.88672
704.4525, 36.03473
704.9346, 42.55789
705.4167, 40.97620
705.8989, 35.25925
706.3810, 20.14560
706.8631, 5.534836
707.3452, 5.451859
707.8273, 22.75914
708.3094, 35.63110
708.7916, 39.96611
709.2737, 38.63286
709.7558, 33.82150
710.2379, 27.12704
710.7200, 24.64337
711.2021, 36.09207
711.6843, 47.63745
712.1664, 43.95677
712.6485, 28.79988
713.1306, 18.21315
713.6127, 23.24532
714.0948, 28.96458
714.5770, 26.81277
715.0591, 16.02507
715.5412, 16.56334
716.0233, 34.82523
716.5054, 51.76660
716.9875, 52.42749
717.4697, 36.95337
717.9518, 27.41959
718.4339, 25.41962
718.9160, 25.82336
719.3981, 22.82498
719.8802, 18.46576
720.3624, 17.54654
720.8445, 23.68240
721.3266, 27.34842
721.8087, 16.52773
722.2908, 1.264679
722.7729, 3.662933
723.2551, 17.88847
723.7372, 34.01105
724.2193, 38.77263
724.7014, 35.47099
725.1835, 32.46472
725.6656, 29.43738
726.1478, 27.98038
726.6299, 28.78572
727.1120, 31.48947
727.5941, 36.90077
728.0762, 44.47696
728.5583, 48.22417
729.0405, 40.40260
729.5226, 29.35826
730.0047, 23.32446
730.4868, 22.90059
730.9689, 22.58688
731.4510, 20.81702
731.9332, 19.87122
732.4153, 19.86612
732.8974, 21.18405
733.3795, 22.56119
733.8616, 24.79695
734.3438, 25.86900
734.8259, 21.41310
735.3080, 11.69777
735.7901, 11.55315
736.2722, 25.66936
736.7543, 40.74847
737.2365, 37.59467
737.7186, 23.11520
738.2007, 11.34029
738.6828, 8.378113
739.1649, 7.738403
739.6470, 6.918243
740.1292, 5.945831
740.6113, 4.755341
741.0934, 2.042419
741.5755, 1.810257
742.0576, 11.96141
742.5397, 34.55701
743.0219, 44.15179
743.5040, 39.24530
743.9861, 30.36247
744.4682, 21.95341
744.9503, 14.02361
745.4324, 3.794479
745.9146, 8.122665
746.3967, 14.90344
746.8788, 9.183014
747.3609, 1.896454
747.8430, 14.30049
748.3251, 28.51671
748.8073, 36.50406
749.2894, 31.73624
749.7715, 24.05124
750.2536, 19.56477
750.7357, 16.44182
751.2178, 17.49829
751.7000, 25.30881
752.1821, 33.01648
752.6642, 31.87527
753.1463, 23.26364
753.6284, 13.82678
754.1105, 3.601563
754.5927, 3.487381
755.0748, 2.398590
755.5569, 4.048706
756.0390, 11.44720
756.5211, 20.57384
757.0032, 27.68059
757.4854, 29.67674
757.9675, 29.11061
758.4496, 32.05534
758.9317, 40.49585
759.4138, 48.63080
759.8959, 56.97701
760.3781, 63.00838
760.8602, 55.99228
761.3423, 36.94032
761.8244, 20.88649
762.3065, 19.55948
762.7886, 23.70399
763.2708, 19.96985
763.7529, 9.913803
764.2350, 4.131317
764.7171, 13.80785
765.1992, 23.68335
765.6813, 24.32796
766.1635, 11.94479
766.6456, 8.875046
767.1277, 20.20070
767.6098, 34.55913
768.0919, 46.63734
768.5740, 56.44653
769.0562, 57.27402
769.5383, 48.25098
770.0204, 37.32359
770.5025, 31.36002
770.9846, 28.56725
771.4667, 26.27707
771.9489, 24.02731
772.4310, 22.15660
772.9131, 20.14667
773.3952, 18.93915
773.8773, 19.52924
774.3594, 22.74043
774.8416, 26.92090
775.3237, 33.68820
775.8058, 39.67970
776.2879, 39.68248
776.7700, 33.66345
777.2521, 27.37083
777.7343, 21.29062
778.2164, 17.05008
778.6985, 18.35725
779.1806, 23.21992
779.6627, 27.13527
780.1448, 25.96452
780.6270, 25.48834
781.1091, 32.13127
781.5912, 42.01031
782.0733, 43.49910
782.5554, 27.55650
783.0375, 17.26675
783.5197, 20.40840
784.0018, 32.32513
784.4839, 34.96477
784.9660, 28.05296
785.4481, 20.92285
785.9302, 17.18802
786.4124, 16.66397
786.8945, 21.54097
787.3766, 30.37805
787.8587, 35.60440
788.3408, 26.79543
788.8229, 18.70056
789.3051, 22.49405
789.7872, 40.00418
790.2693, 46.74643
790.7514, 35.71085
791.2335, 23.57394
791.7156, 19.83559
792.1978, 24.25299
792.6799, 24.35608
793.1620, 19.25842
793.6441, 13.78407
794.1262, 13.56091
794.6083, 15.83954
795.0905, 15.71387
795.5726, 12.13737
796.0547, 11.37959
796.5368, 19.34329
797.0189, 29.53427
797.5010, 37.25333
797.9832, 44.03731
798.4653, 42.51836
798.9474, 27.50395
799.4295, 12.28801
799.9116, 13.12036
800.3937, 28.45813
800.8759, 36.57950
801.3580, 33.95030
801.8401, 27.61285
802.3222, 21.49405
802.8043, 17.68645
803.2864, 19.99495
803.7686, 33.61691
804.2507, 44.37100
804.7328, 49.89084
805.2149, 50.11627
805.6970, 44.32712
806.1791, 29.94366
806.6613, 14.94148
807.1434, 2.508102
807.6255, 15.36343
808.1076, 6.539093
808.5897, 19.61050
809.0718, 33.71674
809.5540, 19.23439
810.0361, 1.177856
810.5182, 6.763428
811.0003, 26.04137
811.4824, 39.62076
811.9645, 36.56947
812.4467, 32.16148
812.9288, 31.81583
813.4109, 32.94702
813.8930, 26.90984
814.3751, 10.23790
814.8572, 1.173096
815.3394, 8.590439
815.8215, 23.52765
816.3036, 22.69559
816.7857, 9.690994
817.2678, 0.7643130
817.7499, 8.193680
818.2321, 18.77472
818.7142, 23.95949
819.1963, 24.52837
819.6784, 24.60945
820.1605, 23.17484
820.6426, 23.93515
821.1247, 30.91737
821.6068, 41.34152
822.0889, 33.97488
822.5710, 6.880310
823.0532, 14.21609
823.5353, 10.62744
824.0174, 6.188629
824.4995, 16.25238
824.9816, 20.23935
825.4637, 23.36682
825.9459, 30.47182
826.4280, 35.59674
826.9101, 33.67883
827.3922, 24.22345
827.8743, 20.13089
828.3564, 24.92534
828.8386, 28.80757
829.3207, 26.33365
829.8028, 18.61626
830.2849, 13.60213
830.7670, 11.31870
831.2491, 11.35643
831.7313, 15.60800
832.2134, 20.73553
832.6955, 22.73688
833.1776, 21.38074
833.6597, 19.99828
834.1418, 16.99557
834.6240, 16.93073
835.1061, 24.40575
835.5882, 41.47855
836.0703, 43.22395
836.5524, 25.78632
837.0345, 7.673325
837.5167, 1.721466
837.9988, 5.769592
838.4809, 16.88393
838.9630, 34.71820
839.4451, 46.41705
839.9272, 37.03885
840.4094, 22.09593
840.8915, 13.43076
841.3736, 13.29393
841.8557, 16.43819
842.3378, 26.62570
842.8199, 34.40956
843.3021, 31.01331
843.7842, 15.82172
844.2663, 12.82535
844.7484, 23.27367
845.2305, 34.83846
845.7126, 38.06017
846.1948, 35.02499
846.6769, 25.62225
847.1590, 8.223068
847.6411, 0.8931120
848.1232, 17.32193
848.6053, 36.52902
849.0875, 36.23415
849.5696, 7.927368
850.0517, 6.383575
850.5338, 5.243668
851.0159, 6.082153
851.4980, 32.21783
851.9802, 65.12105
852.4623, 73.95117
852.9444, 54.29797
853.4265, 33.87929
853.9086, 38.33746
854.3907, 48.97559
854.8729, 47.27675
855.3550, 22.66124
855.8371, 10.58218
856.3192, 20.64502
856.8013, 33.85909
857.2834, 33.65794
857.7656, 19.66013
858.2477, 16.06357
858.7298, 25.14069
859.2119, 34.64633
859.6940, 28.94664
860.1761, 18.36310
860.6583, 19.55196
861.1404, 38.53357
861.6225, 49.94406
862.1046, 36.32881
862.5867, 16.78563
863.0688, 7.220718
863.5510, 11.48672
864.0331, 9.768173
864.5152, 0.4569090
864.9973, 8.570908
865.4794, 0.8642580
865.9615, 17.35065
866.4437, 26.95366
866.9258, 24.86867
867.4079, 20.96048
867.8900, 20.46227
868.3721, 21.91025
868.8542, 24.21939
869.3364, 28.09143
869.8185, 31.21523
870.3006, 33.04260
870.7827, 34.95113
871.2648, 40.75352
871.7469, 49.21194
872.2291, 42.63683
872.7112, 18.97557
873.1933, 1.204514
873.6754, 5.273361
874.1575, 21.40948
874.6396, 28.76505
875.1218, 22.85072
875.6039, 18.50795
876.0860, 20.41377
876.5681, 23.70831
877.0502, 26.16316
877.5323, 27.88068
878.0145, 27.52620
878.4966, 24.92508
878.9787, 21.43790
879.4608, 14.79182
879.9429, 9.339981
880.4250, 15.55075
880.9072, 33.70314
881.3893, 46.65039
881.8714, 42.73325
882.3535, 32.93976
882.8356, 22.93684
883.3177, 12.09549
883.7999, 9.109192
884.2820, 16.05357
884.7641, 24.50558
885.2462, 28.49930
885.7283, 29.44675
886.2104, 32.76985
886.6926, 38.31534
887.1747, 41.63057
887.6568, 36.37679
888.1389, 28.02821
888.6210, 19.87216
889.1031, 11.92342
889.5853, 13.06731
890.0674, 29.49884
890.5495, 43.51669
891.0316, 45.08559
891.5137, 36.46591
891.9958, 32.48851
892.4780, 32.77621
892.9601, 31.78198
893.4422, 24.00439
893.9243, 14.98073
894.4064, 8.686096
894.8885, 5.745773
895.3707, 6.012253
895.8528, 12.05850
896.3349, 18.50401
896.8170, 24.79115
897.2991, 30.09891
897.7813, 28.07359
898.2634, 18.71883
898.7455, 10.90817
899.2276, 10.53516
899.7097, 13.75569
900.1918, 16.59297
900.6740, 19.08067
901.1561, 21.36353
901.6382, 22.73373
902.1203, 24.87230
902.6024, 29.49162
903.0845, 35.11899
903.5667, 36.32893
904.0488, 32.95721
904.5309, 26.47963
905.0130, 13.20802
905.4951, 0.3851170
905.9772, 3.206116
906.4594, 15.78279
906.9415, 23.04295
907.4236, 8.936615
907.9057, 1.078369
908.3878, 7.741348
908.8699, 26.36214
909.3521, 35.24106
909.8342, 31.43755
910.3163, 30.31219
910.7984, 36.02621
911.2805, 43.96535
911.7626, 48.03677
912.2448, 48.11888
912.7269, 43.11581
913.2090, 27.36232
913.6911, 15.42204
914.1732, 16.53688
914.6553, 24.71411
915.1375, 31.80992
915.6196, 38.56378
916.1017, 41.30014
916.5838, 39.29721
917.0659, 34.19302
917.5480, 27.29683
918.0302, 19.06299
918.5123, 9.979553
918.9944, 1.702362
919.4765, 8.495972
919.9586, 1.379242
920.4407, 10.33495
920.9229, 17.67465
921.4050, 18.82584
921.8871, 18.07440
922.3692, 13.75948
922.8513, 10.30104
923.3334, 17.00197
923.8156, 29.21132
924.2977, 27.97694
924.7798, 11.53856
925.2619, 3.430450
925.7440, 2.987076
926.2261, 2.467621
926.7083, 4.733948
927.1904, 2.123444
927.6725, 2.264862
928.1546, 5.663666
928.6367, 10.98900
929.1188, 19.91051
929.6010, 30.43964
930.0831, 27.87379
930.5652, 13.90625
931.0473, 6.098633
931.5294, 26.80591
932.0115, 49.21567
932.4937, 50.96449
932.9758, 33.69443
933.4579, 23.83871
933.9400, 26.67580
934.4221, 30.34399
934.9042, 31.76076
935.3864, 31.02370
935.8685, 27.31389
936.3506, 21.28215
936.8327, 16.66129
937.3148, 14.64148
937.7969, 15.38507
938.2791, 22.37418
938.7612, 31.94650
939.2433, 35.11731
939.7254, 25.19827
940.2075, 18.66582
940.6896, 18.43024
941.1718, 21.77441
941.6539, 24.89386
942.1360, 27.39229
942.6181, 26.80283
943.1002, 22.14798
943.5823, 15.20168
944.0645, 1.329239
944.5466, 11.44278
945.0287, 12.80128
945.5108, 13.29897
945.9929, 25.28835
946.4750, 17.00375
946.9572, 4.933594
947.4393, 8.852280
947.9214, 24.94710
948.4035, 32.76324
948.8856, 30.07013
949.3677, 22.94188
949.8499, 11.23965
950.3320, 0.3994140
950.8141, 5.427017
951.2962, 5.526993
951.7783, 0.9304500
952.2604, 18.60315
952.7426, 33.45006
953.2247, 35.57111
953.7068, 27.89491
954.1889, 23.44897
954.6710, 21.95613
955.1531, 20.95187
955.6353, 20.04301
956.1174, 18.08054
956.5995, 13.11827
957.0816, 5.934311
957.5637, 1.726852
958.0458, 1.347687
958.5280, 2.143555
959.0101, 3.110931
959.4922, 5.037827
959.9743, 13.17085
960.4564, 24.48192
960.9385, 27.67947
961.4207, 8.711044
961.9028, 7.484558
962.3849, 0.7799680
962.8670, 16.58124
963.3491, 22.24123
963.8312, 9.013519
964.3134, 1.485489
964.7955, 2.524445
965.2776, 8.558929
965.7597, 17.50479
966.2418, 27.55533
966.7239, 33.43817
967.2061, 33.87996
967.6882, 31.51141
968.1703, 26.26442
968.6524, 19.80659
969.1345, 12.66193
969.6166, 3.466400
970.0988, 1.634583
970.5809, 8.474319
971.0630, 17.09264
971.5451, 23.47185
972.0272, 27.59761
972.5093, 29.14719
972.9915, 28.32863
973.4736, 27.11215
973.9557, 29.28918
974.4378, 28.12700
974.9199, 17.25072
975.4020, 0.2224120
975.8842, 4.662659
976.3663, 4.001221
976.8484, 11.05637
977.3305, 9.070114
977.8126, 4.872009
978.2947, 6.981430
978.7769, 13.20273
979.2590, 18.86729
979.7411, 22.78914
980.2232, 25.39435
980.7053, 26.74576
981.1874, 26.95552
981.6696, 25.20010
982.1517, 21.35855
982.6338, 22.13809
983.1159, 29.22029
983.5980, 35.39055
984.0801, 31.75369
984.5623, 23.78232
985.0444, 17.08485
985.5264, 11.63617
986.0085, 12.31091
986.4907, 23.92847
986.9728, 35.06862
987.4549, 38.70641
987.9370, 35.42392
988.4191, 29.67726
988.9012, 21.80603
989.3834, 16.59134
989.8655, 19.24899
990.3476, 24.02766
990.8297, 28.00638
991.3118, 30.61418
991.7939, 29.01543
992.2761, 18.75661
992.7582, 14.53702
993.2403, 22.56369
993.7224, 35.88727
994.2045, 39.30681
994.6866, 34.99156
995.1688, 29.22209
995.6509, 20.72704
996.1330, 17.62672
996.6151, 34.63696
997.0972, 54.07568
997.5793, 51.58374
998.0615, 15.49982
998.5436, 1.244095
999.0257, 6.513474
999.5078, 21.27113
999.9899, 25.60893
1000.472, 24.39896
1000.954, 27.16191
1001.436, 35.00310
1001.918, 38.90700
1002.401, 28.45647
1002.883, 19.30933
1003.365, 19.84395
1003.847, 28.37454
1004.329, 33.06726
1004.811, 33.92618
1005.293, 32.49649
1005.775, 26.52663
1006.257, 21.51633
1006.740, 25.69931
1007.222, 35.39714
1007.704, 41.68974
1008.186, 38.40355
1008.668, 36.61108
1009.150, 39.52101
1009.632, 43.01285
1010.114, 37.54723
1010.596, 25.40219
1011.079, 19.84006
1011.561, 24.09976
1012.043, 30.44505
1012.525, 35.67368
1013.007, 38.47192
1013.489, 36.06818
1013.971, 25.91084
1014.453, 24.80582
1014.936, 36.14191
1015.418, 45.59763
1015.900, 41.93625
1016.382, 30.11441
1016.864, 20.61609
1017.346, 13.32162
1017.828, 7.057068
1018.310, 4.341095
1018.792, 8.195755
1019.275, 6.547165
1019.757, 29.58040
1020.239, 35.59619
1020.721, 23.22665
1021.203, 16.74483
1021.685, 23.85791
1022.167, 34.31764
1022.649, 32.92033
1023.132, 26.39955
1023.614, 23.85080
1024.096, 28.89445
1024.578, 34.38161
1025.060, 41.24205
1025.542, 46.13562
1026.024, 45.31966
1026.506, 40.62144
1026.989, 37.88164
1027.471, 36.60239
1027.953, 37.17851
1028.435, 43.24849
1028.917, 47.62741
1029.399, 44.65942
1029.881, 35.42355
1030.363, 26.80042
1030.845, 18.25140
1031.328, 11.95639
1031.810, 7.666412
1032.292, 7.247864
1032.774, 17.49387
1033.256, 33.14325
1033.738, 43.38292
1034.220, 42.83521
1034.702, 42.02206
1035.184, 45.13692
1035.667, 47.49123
1036.149, 43.34261
1036.631, 32.62140
1037.113, 32.06595
1037.595, 42.45834
1038.077, 51.51788
1038.559, 50.19005
1039.041, 43.28357
1039.524, 30.27538
1040.006, 12.79814
1040.488, 5.946396
1040.970, 14.34901
1041.452, 23.76990
1041.934, 30.96782
1042.416, 35.21994
1042.898, 32.88976
1043.380, 26.57788
1043.863, 23.48157
1044.345, 27.53027
1044.827, 32.35139
1045.309, 37.51344
1045.791, 40.83127
1046.273, 40.33168
1046.755, 35.94026
1047.237, 26.89513
1047.719, 12.57484
1048.202, 1.807144
1048.684, 4.959915
1049.166, 13.21027
1049.648, 17.59850
1050.130, 17.89998
1050.612, 18.83531
1051.094, 20.24213
1051.576, 24.08232
1052.059, 32.90164
1052.541, 42.35794
1053.023, 38.87749
1053.505, 27.18011
1053.987, 23.42009
1054.469, 39.62381
1054.951, 50.95779
1055.433, 39.56723
1055.916, 21.75482
1056.398, 13.93404
1056.880, 18.30112
1057.362, 20.52167
1057.844, 20.48825
1058.326, 17.53159
1058.808, 7.499191
1059.290, 3.261124
1059.772, 9.752731
1060.255, 11.15926
1060.737, 2.664536
1061.219, 24.39014
1061.701, 46.90041
1062.183, 60.62349
1062.665, 65.00934
1063.147, 52.47855
1063.629, 29.16183
1064.111, 15.75436
1064.594, 21.20474
1065.076, 28.98131
1065.558, 34.02171
1066.040, 35.27415
1066.522, 31.07059
1067.004, 19.95851
1067.486, 14.26244
1067.968, 14.21397
1068.450, 15.77032
1068.933, 16.34679
1069.415, 16.74136
1069.897, 18.05154
1070.379, 19.99780
1070.861, 21.13492
1071.343, 20.65865
1071.825, 20.19510
1072.307, 19.21298
1072.790, 19.75508
1073.272, 28.17523
1073.754, 40.79907
1074.236, 46.78252
1074.718, 42.39641
1075.200, 37.23836
1075.682, 35.06075
1076.164, 34.23004
1076.646, 34.48256
1077.129, 36.44206
1077.611, 34.39619
1078.093, 28.32002
1078.575, 19.50584
1079.057, 0.9174040
1079.539, 13.02703
1080.021, 3.647476
1080.503, 20.13968
1080.985, 34.19955
1081.468, 32.97534
1081.950, 31.12521
1082.432, 31.16336
1082.914, 28.69073
1083.396, 10.49986
1083.878, 11.90780
1084.360, 11.22178
1084.842, 18.23154
1085.325, 39.23740
1085.807, 27.58282
1086.289, 14.98775
1086.771, 16.07265
1087.253, 27.10770
1087.735, 27.62634
1088.217, 19.34132
1088.699, 16.64607
1089.182, 32.20441
1089.664, 46.19649
1090.146, 42.89374
1090.628, 30.63911
1091.110, 21.32870
1091.592, 15.95081
1092.074, 11.07555
1092.556, 6.342438
1093.038, 3.455353
1093.521, 5.538101
1094.003, 9.460861
1094.485, 12.00702
1094.967, 12.53413
1095.449, 10.34372
1095.931, 0.7409970
1096.413, 4.196442
1096.895, 1.086990
1097.377, 7.880325
1097.860, 22.47891
1098.342, 39.04823
1098.824, 43.59608
1099.306, 27.29080
1099.788, 15.58803
1100.270, 29.67020
1100.752, 44.06355
1101.234, 38.28854
1101.717, 11.59357
1102.199, 1.109116
1102.681, 6.583633
1103.163, 15.71931
1103.645, 23.85657
1104.127, 29.47906
1104.609, 30.26357
1105.091, 27.53519
1105.573, 24.89330
1106.056, 22.90092
1106.538, 19.53813
1107.020, 13.87657
1107.502, 9.582993
1107.984, 13.41528
1108.466, 21.37904
1108.948, 27.53928
1109.430, 31.17381
1109.912, 33.98734
1110.395, 36.43529
1110.877, 38.26360
1111.359, 40.23457
1111.841, 40.90799
1112.323, 33.43700
1112.805, 20.54286
1113.287, 11.68044
1113.769, 10.08565
1114.252, 13.73276
1114.734, 29.09631
1115.216, 43.92642
1115.698, 45.26468
1116.180, 31.58971
1116.662, 27.22771
1117.144, 32.29372
1117.626, 36.00247
1118.109, 27.85606
1118.591, 19.21243
1119.073, 19.82327
1119.555, 27.18358
1120.037, 29.94920
1120.519, 24.80966
1121.001, 22.99324
1121.483, 27.86804
1121.965, 33.18962
1122.448, 28.94748
1122.930, 20.76851
1123.412, 16.69768
1123.894, 18.20441
1124.376, 21.43530
1124.858, 27.08003
1125.340, 31.76430
1125.822, 33.43741
1126.304, 33.59262
1126.787, 36.49117
1127.269, 41.39787
1127.751, 46.42874
1128.233, 55.77286
1128.715, 57.07797
1129.197, 37.38101
1129.679, 16.49727
1130.161, 13.98581
1130.644, 28.56992
1131.126, 33.29814
1131.608, 27.83531
1132.090, 24.08331
1132.572, 37.12292
1133.054, 47.21718
1133.536, 37.00252
1134.018, 15.07664
1134.500, 4.853958
1134.983, 7.289322
1135.465, 13.23714
1135.947, 21.34524
1136.429, 28.72813
1136.911, 33.84921
1137.393, 35.72363
1137.875, 35.26292
1138.357, 31.73896
1138.839, 25.73782
1139.322, 15.10315
1139.804, 10.15195
1140.286, 18.44189
1140.768, 30.90369
1141.250, 32.07484
1141.732, 25.09843
1142.214, 17.95595
1142.696, 10.89069
1143.179, 8.887314
1143.661, 14.20200
1144.143, 20.81990
1144.625, 23.94159
1145.107, 24.47122
1145.589, 26.45189
1146.071, 29.15015
1146.553, 27.94543
1147.036, 12.26581
1147.518, 3.354904
1148.000, 10.44531
1148.482, 24.13193
1148.964, 27.88786
1149.446, 23.48436
1149.928, 23.49144
1150.410, 30.30752
1150.892, 32.81560
1151.375, 14.23232
1151.857, 2.056137
1152.339, 3.355270
1152.821, 24.58309
1153.303, 27.91069
1153.785, 13.60586
1154.267, 6.023247
1154.749, 17.39664
1155.231, 30.17416
1155.714, 29.08095
1156.196, 20.46179
1156.678, 9.888550
1157.160, 4.334068
1157.642, 6.717812
1158.124, 4.062859
1158.606, 16.73531
1159.088, 26.37633
1159.571, 32.23937
1160.053, 31.49277
1160.535, 26.61797
1161.017, 23.66173
1161.499, 24.02815
1161.981, 25.88203
1162.463, 30.52236
1162.945, 32.10100
1163.427, 18.59293
1163.910, 1.015564
1164.392, 2.766418
1164.874, 7.495094
1165.356, 20.87170
1165.838, 44.88052
1166.320, 53.37314
1166.802, 34.70428
1167.284, 7.624229
1167.766, 6.654808
1168.249, 21.72269
1168.731, 28.50917
1169.213, 20.19053
1169.695, 16.27447
1170.177, 31.22032
1170.659, 41.90184
1171.141, 36.04320
1171.623, 19.44781
1172.106, 12.59026
1172.588, 13.43082
1173.070, 13.65170
1173.552, 7.383606
1174.034, 4.673653
1174.516, 14.85177
1174.998, 25.72234
1175.480, 28.16561
1175.963, 22.42487
1176.445, 11.71935
1176.927, 2.988159
1177.409, 12.60310
1177.891, 9.547371
1178.373, 2.005188
1178.855, 10.31903
1179.337, 22.40721
1179.819, 26.15445
1180.302, 21.33513
1180.784, 16.57981
1181.266, 12.53149
1181.748, 11.28068
1182.230, 18.01124
1182.712, 24.88350
1183.194, 25.30507
1183.676, 20.78070
1184.158, 16.97447
1184.641, 13.57438
1185.123, 16.40796
1185.605, 29.22424
1186.087, 38.46790
1186.569, 29.40512
1187.051, 14.18775
1187.533, 4.211365
1188.015, 0.4612120
1188.498, 7.5011998E-02
1188.980, 2.687973
1189.462, 8.474991
1189.944, 19.46047
1190.426, 29.66478
1190.908, 33.01863
1191.390, 30.61288
1191.872, 22.83795
1192.354, 5.182037
1192.837, 3.597786
1193.319, 3.374046
1193.801, 4.623718
1194.283, 29.30526
1194.765, 54.33112
1195.247, 53.61511
1195.729, 35.63338
1196.211, 22.70911
1196.693, 20.28416
1197.176, 18.54057
1197.658, 16.68500
1198.140, 16.02500
1198.622, 19.25919
1199.104, 23.72675
1199.586, 25.12993
1200.068, 23.70662
1200.550, 23.12610
1201.033, 23.34548
1201.515, 26.36285
1201.997, 33.89803
1202.479, 41.12788
1202.961, 38.73466
1203.443, 32.31036
1203.925, 32.24575
1204.407, 40.44233
1204.890, 44.51913
1205.372, 40.43312
1205.854, 36.34184
1206.336, 34.85016
1206.818, 34.88573
1207.300, 33.78473
1207.782, 32.73859
1208.264, 35.16673
1208.746, 44.67610
1209.229, 46.84092
1209.711, 35.57843
1210.193, 25.19148
1210.675, 23.81897
1211.157, 27.66429
1211.639, 27.96904
1212.121, 25.35289
1212.603, 21.22597
1213.085, 9.397354
1213.568, 8.601372
1214.050, 26.63530
1214.532, 45.00565
1215.014, 48.42082
1215.496, 40.75084
1215.978, 29.75868
1216.460, 16.86909
1216.942, 11.29736
1217.425, 27.35813
1217.907, 35.57109
1218.389, 25.94786
1218.871, 15.95834
1219.353, 34.35583
1219.835, 66.93639
1220.317, 68.28799
1220.799, 39.34650
1221.281, 17.94013
1221.764, 26.28969
1222.246, 36.04163
1222.728, 43.76299
1223.210, 46.12975
1223.692, 32.51735
1224.174, 10.29845
1224.656, 0.1714400
1225.138, 4.349075
1225.620, 12.10482
1226.103, 26.28732
1226.585, 32.37923
1227.067, 21.88959
1227.549, 5.341743
1228.031, 9.544182
1228.513, 26.67834
1228.995, 34.90836
1229.477, 26.65039
1229.960, 20.65563
1230.442, 23.07257
1230.924, 28.88464
1231.406, 37.92288
1231.888, 47.36487
1232.370, 48.26016
1232.852, 42.80498
1233.334, 36.68750
1233.816, 29.85118
1234.299, 27.44717
1234.781, 33.73308
1235.263, 38.13867
1235.745, 31.98118
1236.227, 20.93764
1236.709, 24.57725
1237.191, 38.00133
1237.673, 46.13055
1238.156, 39.63969
1238.638, 31.77878
1239.120, 22.11238
1239.602, 15.48750
1240.084, 19.37909
1240.566, 28.95373
1241.048, 32.25348
1241.530, 29.12788
1242.012, 20.99827
1242.495, 3.841461
1242.977, 14.21901
1243.459, 1.307686
1243.941, 17.59481
1244.423, 20.72603
1244.905, 15.05698
1245.387, 18.03032
1245.869, 28.12633
1246.351, 31.96768
1246.834, 13.86482
1247.316, 4.449066
1247.798, 10.74858
1248.280, 23.04228
1248.762, 29.49965
1249.244, 31.80693
1249.726, 32.56924
1250.208, 32.13712
1250.691, 32.09013
1251.173, 34.36801
1251.655, 32.92088
1252.137, 24.15935
1252.619, 15.43312
1253.101, 22.08942
1253.583, 34.89334
1254.065, 37.54279
1254.547, 26.34268
1255.030, 20.68712
1255.512, 24.04335
1255.994, 27.43796
1256.476, 27.52495
1256.958, 26.58615
1257.440, 30.05727
1257.922, 33.97804
1258.404, 30.88472
1258.886, 15.87683
1259.369, 13.39595
1259.851, 27.98779
1260.333, 37.06216
1260.815, 26.38701
1261.297, 10.78371
1261.779, 10.61061
1262.261, 18.39450
1262.743, 21.50514
1263.226, 16.67407
1263.708, 14.10481
1264.190, 14.02887
1264.672, 14.11086
1265.154, 11.48573
1265.636, 10.04668
1266.118, 16.95355
1266.600, 26.55199
1267.083, 28.81987
1267.565, 20.64186
1268.047, 17.33157
1268.529, 19.22758
1269.011, 21.15550
1269.493, 15.66318
1269.975, 12.73212
1270.457, 24.93968
1270.939, 40.92534
1271.422, 47.14868
1271.904, 39.92882
1272.386, 26.99918
1272.868, 8.610825
1273.350, 4.095825
1273.832, 0.2865750
1274.314, 8.430664
1274.796, 18.70490
1275.278, 27.30981
1275.761, 27.19771
1276.243, 18.91766
1276.725, 19.20978
1277.207, 29.03296
1277.689, 35.74886
1278.171, 27.43938
1278.653, 18.60657
1279.135, 15.71379
1279.618, 16.43480
1280.100, 18.06068
1280.582, 20.02763
1281.064, 18.02876
1281.546, 11.68277
1282.028, 8.239746
1282.510, 12.94490
1282.992, 19.85629
1283.474, 28.26439
1283.957, 36.13852
1284.439, 41.74762
1284.921, 43.73767
1285.403, 34.92894
1285.885, 12.32028
1286.367, 2.987015
1286.849, 2.290741
1287.331, 0.9785310
1287.813, 3.903015
1288.296, 7.177628
1288.778, 11.20241
1289.260, 16.75639
1289.742, 26.96501
1290.224, 43.03481
1290.706, 52.17697
1291.188, 53.29330
1291.670, 47.55013
1292.153, 33.01234
1292.635, 11.82350
1293.117, 3.676682
1293.599, 2.104111
1294.081, 1.824234
1294.563, 1.999924
1295.045, 9.479767
1295.527, 27.30652
1296.010, 36.37851
1296.492, 26.47009
1296.974, 11.15175
1297.456, 3.366165
1297.938, 0.0000000E+00
##END=



