##NAMES=Senandorite
##RRUFFID=R070718
##IDEAL CHEMISTRY=Ag^1+^Pb^2+^Sb^3+^_3_S^2-^_6_
##LOCALITY=Bear Basin Mines, Lennox Creek, Bear Basin, North Bend, King County, Washington, USA
##OWNER=RRUFF
##SOURCE=Michael Scott
##DESCRIPTION=Black, massive in polished section, associated with andorite IV and white kutnohorite. Andorite VI:andorite IV = 80:20
##STATUS=The identification of this mineral has been confirmed by single-crystal X-ray diffraction.
##URL=rruff.info/R070718
119.0413, 0.0000000E+00
119.5234, 22.96973
120.0056, 55.57275
120.4877, 90.26318
120.9698, 115.2041
121.4519, 117.0845
121.9340, 107.5620
122.4161, 106.5693
122.8982, 121.5503
123.3804, 129.7402
123.8625, 114.4888
124.3446, 90.11963
124.8267, 81.66455
125.3088, 60.81104
125.7909, 55.88184
126.2731, 59.02783
126.7552, 69.03662
127.2373, 76.74756
127.7194, 82.49365
128.2015, 84.84521
128.6837, 81.29541
129.1658, 64.76807
129.6479, 15.91406
130.1300, 5.919922
130.6121, 22.44141
131.0942, 65.88965
131.5764, 94.88135
132.0585, 95.80420
132.5406, 76.75830
133.0227, 67.99561
133.5048, 76.56836
133.9869, 88.34717
134.4691, 105.4536
134.9512, 124.4419
135.4333, 138.3687
135.9154, 141.7661
136.3975, 135.3452
136.8796, 140.6968
137.3618, 170.4087
137.8439, 197.4395
138.3260, 207.3062
138.8081, 201.2100
139.2902, 190.1772
139.7723, 182.5479
140.2545, 179.5225
140.7366, 183.3496
141.2187, 190.3018
141.7008, 204.5527
142.1829, 229.3730
142.6650, 265.6890
143.1472, 298.6953
143.6293, 315.1782
144.1114, 320.0649
144.5935, 320.6802
145.0756, 330.6699
145.5577, 363.0415
146.0399, 389.5454
146.5220, 386.9272
147.0041, 375.2959
147.4862, 383.4307
147.9683, 397.2983
148.4504, 406.9370
148.9326, 424.2788
149.4147, 448.6309
149.8968, 466.3496
150.3789, 474.0000
150.8610, 478.8062
151.3431, 476.0029
151.8252, 475.7368
152.3074, 478.0044
152.7895, 455.2939
153.2716, 401.7949
153.7537, 375.8979
154.2358, 398.3179
154.7179, 431.7876
155.2001, 449.1558
155.6822, 443.0225
156.1643, 418.5752
156.6464, 386.5464
157.1285, 329.1763
157.6106, 284.9800
158.0928, 259.4619
158.5749, 248.8823
159.0570, 251.7041
159.5391, 268.9399
160.0212, 297.2637
160.5033, 296.9741
160.9855, 241.5459
161.4676, 189.0215
161.9497, 158.5161
162.4318, 146.3638
162.9139, 138.7983
163.3960, 125.4883
163.8782, 106.2227
164.3603, 91.93506
164.8424, 84.16992
165.3245, 79.45703
165.8066, 78.74951
166.2887, 81.43408
166.7709, 79.63379
167.2530, 63.24316
167.7351, 32.45557
168.2172, 7.670410
168.6993, 13.53467
169.1814, 25.85059
169.6636, 16.00342
170.1457, 23.89990
170.6278, 62.21045
171.1099, 59.24170
171.5920, 22.83105
172.0741, 12.78076
172.5563, 35.65088
173.0384, 47.85303
173.5205, 53.24707
174.0026, 46.26562
174.4847, 41.49072
174.9668, 56.16357
175.4490, 88.43115
175.9311, 114.3135
176.4132, 111.4136
176.8953, 76.23779
177.3774, 50.33545
177.8595, 46.98584
178.3417, 49.84570
178.8238, 48.07520
179.3059, 40.77100
179.7880, 34.50293
180.2701, 37.46094
180.7522, 52.05127
181.2344, 66.04932
181.7165, 83.46680
182.1986, 96.16699
182.6807, 94.11914
183.1628, 75.26807
183.6449, 53.39746
184.1271, 55.68994
184.6092, 106.9893
185.0913, 131.8301
185.5734, 105.4956
186.0555, 62.99219
186.5376, 32.87305
187.0198, 26.81250
187.5019, 39.00342
187.9840, 53.37549
188.4661, 75.09717
188.9482, 87.16406
189.4303, 87.09131
189.9125, 78.30713
190.3946, 62.85889
190.8767, 41.13232
191.3588, 15.75098
191.8409, 0.3022460
192.3230, 11.32764
192.8052, 11.91162
193.2873, 17.17188
193.7694, 61.15430
194.2515, 92.93457
194.7336, 94.94092
195.2157, 71.22852
195.6979, 61.62842
196.1800, 72.31201
196.6621, 86.95850
197.1442, 101.2461
197.6263, 114.8862
198.1084, 127.7134
198.5906, 138.9224
199.0727, 149.1479
199.5548, 164.4956
200.0369, 195.8042
200.5190, 222.6099
201.0011, 229.2617
201.4833, 217.2271
201.9654, 203.3188
202.4475, 196.5464
202.9296, 199.3208
203.4117, 216.6143
203.8938, 262.2290
204.3760, 314.0454
204.8581, 351.9907
205.3402, 374.6499
205.8223, 392.7041
206.3044, 414.8359
206.7865, 439.3594
207.2687, 459.7290
207.7508, 458.0039
208.2329, 457.8506
208.7150, 500.2588
209.1971, 598.5903
209.6792, 696.2656
210.1614, 737.6021
210.6435, 742.4355
211.1256, 753.8594
211.6077, 789.7305
212.0898, 842.5083
212.5719, 898.0786
213.0541, 959.7988
213.5362, 1015.930
214.0183, 1057.241
214.5004, 1087.219
214.9825, 1113.660
215.4646, 1133.431
215.9468, 1151.067
216.4289, 1187.841
216.9110, 1259.163
217.3931, 1329.546
217.8752, 1380.188
218.3573, 1414.438
218.8395, 1441.817
219.3216, 1460.908
219.8037, 1473.467
220.2858, 1507.264
220.7679, 1585.155
221.2500, 1661.191
221.7322, 1706.019
222.2143, 1728.654
222.6964, 1758.993
223.1785, 1832.441
223.6606, 1952.663
224.1427, 2036.848
224.6249, 2057.771
225.1070, 2061.851
225.5891, 2051.093
226.0712, 2034.479
226.5533, 2032.535
227.0354, 2069.812
227.5176, 2154.236
227.9997, 2233.977
228.4818, 2311.528
228.9639, 2378.317
229.4460, 2425.488
229.9281, 2454.766
230.4103, 2476.454
230.8924, 2499.437
231.3745, 2523.180
231.8566, 2554.312
232.3387, 2596.408
232.8208, 2641.109
233.3030, 2690.912
233.7851, 2742.359
234.2672, 2784.189
234.7493, 2800.939
235.2314, 2779.683
235.7135, 2776.437
236.1957, 2803.277
236.6778, 2834.799
237.1599, 2861.246
237.6420, 2879.879
238.1241, 2889.194
238.6062, 2884.557
239.0884, 2854.515
239.5705, 2849.990
240.0526, 2889.218
240.5347, 2935.743
241.0168, 2971.585
241.4989, 2993.399
241.9811, 3004.014
242.4632, 3004.829
242.9453, 2993.934
243.4274, 2986.628
243.9095, 2979.352
244.3916, 2978.086
244.8738, 2990.102
245.3559, 3013.875
245.8380, 3037.882
246.3201, 3048.967
246.8022, 3045.367
247.2843, 3033.078
247.7665, 2997.547
248.2486, 2965.066
248.7307, 2956.660
249.2128, 2973.707
249.6949, 3001.210
250.1770, 3023.864
250.6592, 3042.656
251.1413, 3049.831
251.6234, 3036.782
252.1055, 3018.442
252.5876, 3001.171
253.0697, 2987.505
253.5519, 2984.519
254.0340, 3003.483
254.5161, 3054.431
254.9982, 3084.496
255.4803, 3071.211
255.9624, 3052.261
256.4445, 3063.352
256.9267, 3107.213
257.4088, 3150.625
257.8909, 3154.977
258.3730, 3106.896
258.8551, 3090.218
259.3372, 3125.020
259.8194, 3178.273
260.3015, 3230.909
260.7836, 3279.010
261.2657, 3313.560
261.7478, 3321.771
262.2299, 3298.131
262.7121, 3287.866
263.1942, 3298.551
263.6763, 3318.239
264.1584, 3342.389
264.6405, 3369.507
265.1227, 3388.660
265.6048, 3385.827
266.0869, 3359.046
266.5690, 3348.026
267.0511, 3366.059
267.5332, 3391.688
268.0154, 3404.765
268.4975, 3404.522
268.9796, 3409.270
269.4617, 3440.720
269.9438, 3497.188
270.4259, 3522.879
270.9081, 3493.670
271.3902, 3449.120
271.8723, 3417.233
272.3544, 3399.409
272.8365, 3390.301
273.3186, 3392.025
273.8008, 3400.801
274.2829, 3387.087
274.7650, 3326.484
275.2471, 3261.145
275.7292, 3225.002
276.2113, 3217.286
276.6935, 3212.946
277.1756, 3196.596
277.6577, 3168.559
278.1398, 3140.159
278.6219, 3109.523
279.1040, 3079.858
279.5862, 3059.761
280.0683, 3046.607
280.5504, 3018.538
281.0325, 2955.546
281.5146, 2867.494
281.9967, 2799.005
282.4789, 2759.188
282.9610, 2729.552
283.4431, 2706.157
283.9252, 2686.355
284.4073, 2656.037
284.8894, 2607.814
285.3716, 2542.310
285.8537, 2464.783
286.3358, 2355.474
286.8179, 2259.378
287.3000, 2217.150
287.7821, 2214.552
288.2643, 2193.838
288.7464, 2123.079
289.2285, 2021.001
289.7106, 1935.713
290.1927, 1868.840
290.6748, 1813.632
291.1570, 1777.172
291.6391, 1751.663
292.1212, 1712.200
292.6033, 1645.964
293.0854, 1564.653
293.5675, 1493.509
294.0497, 1436.991
294.5318, 1375.418
295.0139, 1292.999
295.4960, 1199.714
295.9781, 1117.357
296.4602, 1052.235
296.9424, 1002.486
297.4245, 972.2793
297.9066, 967.2661
298.3887, 950.9453
298.8708, 895.5605
299.3529, 824.3638
299.8351, 782.3223
300.3172, 785.6152
300.7993, 804.0635
301.2814, 791.1528
301.7635, 743.6387
302.2456, 707.2861
302.7278, 695.7930
303.2099, 700.6909
303.6920, 713.0405
304.1741, 731.7495
304.6562, 752.6060
305.1383, 770.0596
305.6205, 784.1118
306.1026, 803.2959
306.5847, 825.3022
307.0668, 853.5557
307.5489, 894.5742
308.0310, 949.3193
308.5132, 1006.214
308.9953, 1054.265
309.4774, 1092.224
309.9595, 1131.022
310.4416, 1170.357
310.9237, 1210.966
311.4059, 1252.431
311.8880, 1295.135
312.3701, 1342.635
312.8522, 1398.947
313.3343, 1462.921
313.8164, 1522.257
314.2986, 1564.580
314.7807, 1613.018
315.2628, 1690.857
315.7449, 1790.583
316.2270, 1879.175
316.7091, 1932.613
317.1913, 1957.414
317.6734, 1996.773
318.1555, 2067.123
318.6376, 2132.045
319.1197, 2175.825
319.6018, 2203.579
320.0840, 2226.883
320.5661, 2250.824
321.0482, 2275.779
321.5303, 2302.934
322.0124, 2335.582
322.4945, 2365.956
322.9767, 2387.322
323.4588, 2406.359
323.9409, 2437.863
324.4230, 2489.566
324.9051, 2544.727
325.3872, 2567.162
325.8694, 2533.158
326.3515, 2506.344
326.8336, 2499.343
327.3157, 2498.441
327.7978, 2485.669
328.2799, 2457.109
328.7621, 2429.123
329.2442, 2424.494
329.7263, 2455.361
330.2084, 2480.947
330.6905, 2496.860
331.1726, 2510.846
331.6548, 2525.668
332.1369, 2543.232
332.6190, 2568.682
333.1011, 2608.690
333.5832, 2667.756
334.0653, 2712.861
334.5475, 2731.277
335.0296, 2750.515
335.5117, 2785.542
335.9938, 2833.635
336.4759, 2884.415
336.9580, 2931.342
337.4402, 2974.321
337.9223, 3001.302
338.4044, 3004.113
338.8865, 3000.248
339.3686, 2986.053
339.8507, 2969.344
340.3329, 2964.373
340.8150, 2980.200
341.2971, 3009.745
341.7792, 3023.676
342.2613, 3029.071
342.7434, 3006.356
343.2256, 2937.376
343.7077, 2847.180
344.1898, 2764.542
344.6719, 2700.507
345.1540, 2641.054
345.6361, 2556.693
346.1183, 2437.437
346.6004, 2310.947
347.0825, 2175.478
347.5646, 2038.541
348.0467, 1903.019
348.5288, 1771.226
349.0110, 1644.016
349.4931, 1525.257
349.9752, 1417.235
350.4573, 1306.748
350.9394, 1188.028
351.4215, 1069.930
351.9037, 950.7051
352.3858, 833.7744
352.8679, 730.0793
353.3500, 654.9741
353.8321, 607.5193
354.3142, 547.1567
354.7964, 459.2266
355.2785, 376.6289
355.7606, 310.3992
356.2427, 258.3901
356.7248, 215.7937
357.2069, 182.5681
357.6891, 155.6016
358.1712, 125.9761
358.6533, 91.22192
359.1354, 58.94849
359.6175, 31.75146
360.0996, 8.717773
360.5818, 10.52124
361.0639, 25.73193
361.5460, 38.33154
362.0281, 48.45996
362.5102, 55.50586
362.9923, 66.63428
363.4745, 92.21997
363.9566, 117.5986
364.4387, 125.1296
364.9208, 110.7223
365.4029, 96.12390
365.8850, 101.8519
366.3672, 123.2709
366.8493, 134.6442
367.3314, 126.7164
367.8135, 112.4601
368.2956, 104.8516
368.7777, 103.3813
369.2599, 103.5785
369.7420, 106.6826
370.2241, 109.3268
370.7062, 104.4338
371.1883, 90.20642
371.6704, 74.28857
372.1526, 60.90881
372.6347, 50.83203
373.1168, 48.28442
373.5989, 61.74463
374.0810, 77.06860
374.5631, 82.38184
375.0453, 78.22278
375.5274, 72.04138
376.0095, 68.51843
376.4916, 66.31213
376.9737, 60.29285
377.4558, 47.33057
377.9380, 34.61682
378.4201, 24.59851
378.9022, 16.70654
379.3843, 10.39124
379.8664, 5.756958
380.3485, 1.097290
380.8307, 7.768433
381.3128, 26.57446
381.7949, 38.83130
382.2770, 36.56934
382.7591, 30.98645
383.2412, 34.72852
383.7234, 49.39526
384.2055, 65.35840
384.6876, 70.98254
385.1697, 63.04932
385.6518, 58.15552
386.1339, 54.26941
386.6161, 54.53467
387.0982, 61.74219
387.5803, 74.52759
388.0624, 90.10559
388.5445, 107.2642
389.0266, 125.2429
389.5088, 135.2616
389.9909, 124.7036
390.4730, 120.4717
390.9551, 133.3347
391.4372, 153.0609
391.9193, 166.1052
392.4015, 166.4368
392.8836, 159.8357
393.3657, 158.0665
393.8478, 163.4508
394.3299, 168.2751
394.8120, 168.4352
395.2942, 169.8130
395.7763, 178.8401
396.2584, 195.5198
396.7405, 210.6522
397.2226, 211.8732
397.7047, 199.1058
398.1869, 195.1289
398.6690, 205.0530
399.1511, 220.1722
399.6332, 240.5386
400.1153, 262.3429
400.5974, 274.9985
401.0796, 266.7844
401.5617, 247.4594
402.0438, 238.5540
402.5259, 241.3435
403.0080, 249.5084
403.4901, 263.8575
403.9723, 280.3850
404.4544, 292.7108
404.9365, 298.1161
405.4186, 301.8464
405.9007, 308.7529
406.3828, 318.0746
406.8650, 326.0806
407.3471, 332.4736
407.8292, 335.4580
408.3113, 329.1049
408.7934, 309.7332
409.2755, 299.9187
409.7577, 314.8224
410.2398, 340.2380
410.7219, 357.7898
411.2040, 364.1552
411.6861, 363.2804
412.1682, 357.1017
412.6504, 344.4524
413.1325, 339.7375
413.6146, 348.1637
414.0967, 359.3434
414.5788, 369.2919
415.0609, 377.2447
415.5431, 382.2643
416.0252, 383.5006
416.5073, 381.8102
416.9894, 381.1037
417.4715, 378.1163
417.9536, 380.1544
418.4358, 394.4697
418.9179, 410.6518
419.4000, 415.9368
419.8821, 407.0548
420.3642, 393.4415
420.8463, 389.8439
421.3285, 401.2904
421.8106, 405.5833
422.2927, 400.5751
422.7748, 394.0940
423.2569, 387.9611
423.7390, 381.6699
424.2212, 375.1447
424.7033, 369.7012
425.1854, 366.4490
425.6675, 365.6225
426.1496, 368.7911
426.6317, 370.0775
427.1139, 366.4286
427.5960, 359.9435
428.0781, 353.2236
428.5602, 347.2985
429.0423, 343.3916
429.5244, 343.3994
430.0066, 347.2750
430.4887, 350.0023
430.9708, 350.8713
431.4529, 347.1899
431.9350, 334.1625
432.4171, 311.5076
432.8993, 297.5181
433.3814, 313.6384
433.8635, 340.8140
434.3456, 341.0978
434.8277, 307.4510
435.3098, 266.9785
435.7920, 239.5486
436.2741, 225.1466
436.7562, 216.2045
437.2383, 217.2059
437.7204, 218.9764
438.2025, 213.5657
438.6847, 204.4816
439.1668, 203.4022
439.6489, 216.6859
440.1310, 236.6028
440.6131, 243.6917
441.0952, 228.6304
441.5774, 215.1105
442.0595, 202.6078
442.5416, 192.5381
443.0237, 185.7998
443.5058, 182.8397
443.9879, 184.2218
444.4701, 192.2964
444.9522, 209.6655
445.4343, 217.1418
445.9164, 202.4710
446.3985, 190.1763
446.8806, 191.7841
447.3628, 200.7040
447.8449, 203.4526
448.3270, 191.9683
448.8091, 173.0397
449.2912, 162.7673
449.7733, 163.2959
450.2555, 165.9681
450.7376, 172.0750
451.2197, 177.2441
451.7018, 176.2245
452.1839, 168.2806
452.6660, 162.4686
453.1482, 170.9178
453.6303, 189.1912
454.1124, 194.2911
454.5945, 178.5557
455.0766, 160.2885
455.5587, 156.2925
456.0409, 162.3521
456.5230, 166.9385
457.0051, 169.3944
457.4872, 167.9877
457.9693, 158.1482
458.4514, 141.5881
458.9336, 128.3232
459.4157, 123.3979
459.8978, 124.3663
460.3799, 124.9667
460.8620, 123.8237
461.3441, 125.0424
461.8262, 130.6620
462.3083, 138.2072
462.7905, 145.5955
463.2726, 152.2355
463.7547, 157.8586
464.2368, 162.6221
464.7189, 167.0409
465.2010, 165.7640
465.6832, 150.7124
466.1653, 138.8643
466.6474, 137.0405
467.1295, 141.9184
467.6116, 148.4884
468.0938, 154.3918
468.5759, 158.0357
469.0580, 154.5615
469.5401, 140.6519
470.0222, 128.9027
470.5043, 121.3798
470.9865, 116.8281
471.4686, 115.2419
471.9507, 116.3788
472.4328, 118.7370
472.9149, 122.2687
473.3970, 126.2204
473.8792, 127.6618
474.3613, 125.9604
474.8434, 123.2259
475.3255, 120.3901
475.8076, 117.5177
476.2897, 114.8272
476.7719, 112.2820
477.2540, 110.1116
477.7361, 107.8464
478.2182, 105.7400
478.7003, 105.7865
479.1824, 109.4775
479.6646, 113.3253
480.1467, 111.6447
480.6288, 102.6935
481.1109, 93.39075
481.5930, 78.84937
482.0751, 68.62695
482.5573, 73.18604
483.0394, 88.75623
483.5215, 101.0630
484.0036, 99.26953
484.4857, 85.80396
484.9678, 76.88745
485.4500, 77.51636
485.9321, 76.16504
486.4142, 68.47766
486.8963, 59.77612
487.3784, 56.34644
487.8605, 59.39368
488.3427, 63.02820
488.8248, 58.17639
489.3069, 44.33081
489.7890, 40.09802
490.2711, 55.42920
490.7532, 68.01013
491.2354, 60.77295
491.7175, 41.79907
492.1996, 30.28406
492.6817, 35.99280
493.1638, 49.86438
493.6459, 65.29675
494.1281, 81.64990
494.6102, 87.19714
495.0923, 72.99426
495.5744, 51.18823
496.0565, 44.50500
496.5386, 56.07874
497.0208, 64.59747
497.5029, 61.17749
497.9850, 54.87378
498.4671, 56.91119
498.9492, 66.88208
499.4313, 73.73462
499.9135, 67.87952
500.3956, 50.51648
500.8777, 36.85065
501.3598, 25.47437
501.8419, 19.69006
502.3240, 22.99060
502.8062, 30.97827
503.2883, 40.58313
503.7704, 50.29260
504.2525, 56.52515
504.7346, 52.63434
505.2167, 36.47131
505.6989, 26.27747
506.1810, 26.80615
506.6631, 28.56335
507.1452, 26.42621
507.6273, 22.14734
508.1094, 19.72736
508.5916, 21.19739
509.0737, 25.08868
509.5558, 31.55432
510.0379, 40.27014
510.5200, 42.10443
511.0021, 29.63434
511.4843, 13.93506
511.9664, 13.62555
512.4485, 30.70544
512.9306, 44.51636
513.4127, 51.17438
513.8948, 51.48822
514.3770, 42.12366
514.8591, 24.97913
515.3412, 11.53955
515.8233, 10.57416
516.3054, 19.59235
516.7875, 22.96124
517.2697, 14.41785
517.7518, 7.939453
518.2339, 4.699707
518.7160, 4.190796
519.1981, 7.318909
519.6802, 13.55634
520.1624, 19.04364
520.6445, 19.25244
521.1266, 14.10327
521.6087, 9.863281
522.0908, 7.157349
522.5729, 4.890015
523.0551, 2.774414
523.5372, 0.7858890
524.0193, 2.202393
524.5014, 8.269836
524.9835, 11.36127
525.4656, 2.106323
525.9478, 16.63019
526.4299, 30.09546
526.9120, 34.38867
527.3941, 32.67224
527.8762, 26.78613
528.3583, 16.47864
528.8405, 8.871704
529.3226, 4.267578
529.8047, 2.839111
530.2868, 7.789246
530.7689, 16.16418
531.2510, 19.68518
531.7332, 13.79016
532.2153, 2.876587
532.6974, 1.874878
533.1795, 5.741638
533.6616, 8.178589
534.1437, 0.3380130
534.6259, 8.902649
535.1080, 11.08630
535.5901, 6.873291
536.0722, 0.7142330
536.5543, 11.87506
537.0364, 23.88904
537.5186, 27.72803
538.0007, 22.17950
538.4828, 12.76483
538.9649, 5.908142
539.4470, 22.71564
539.9291, 24.49402
540.4113, 9.291687
540.8934, 12.82861
541.3755, 49.24512
541.8576, 84.73804
542.3397, 90.32080
542.8218, 63.61523
543.3040, 32.60590
543.7861, 17.36963
544.2682, 16.13733
544.7503, 14.16223
545.2324, 12.50006
545.7145, 8.891846
546.1967, 2.452209
546.6788, 13.16229
547.1609, 11.82593
547.6430, 3.037048
548.1251, 20.56769
548.6072, 28.70404
549.0894, 26.76660
549.5715, 21.31897
550.0536, 7.359192
550.5357, 1.660522
551.0178, 1.328918
551.4999, 10.24994
551.9821, 18.12317
552.4642, 24.04590
552.9463, 26.10278
553.4284, 19.11066
553.9105, 6.064941
554.3926, 0.3707890
554.8748, 6.685425
555.3569, 14.43762
555.8390, 13.22272
556.3211, 3.102661
556.8032, 2.521240
557.2853, 1.2939000E-02
557.7675, 3.447632
558.2496, 3.547546
558.7317, 2.537537
559.2138, 5.619873
559.6959, 14.47662
560.1780, 23.91687
560.6602, 25.29401
561.1423, 15.62482
561.6244, 9.893311
562.1065, 11.28186
562.5886, 13.73486
563.0707, 16.83051
563.5529, 19.24005
564.0350, 18.63251
564.5171, 13.49866
564.9992, 6.509949
565.4813, 0.1101070
565.9634, 5.502319
566.4456, 6.659058
566.9277, 3.414673
567.4098, 2.306152
567.8919, 9.890320
568.3740, 18.93341
568.8561, 24.22534
569.3383, 24.36304
569.8204, 21.13763
570.3025, 13.25995
570.7846, 3.536133
571.2667, 2.063904
571.7488, 1.105469
572.2310, 3.874023
572.7131, 8.792847
573.1952, 14.81671
573.6773, 17.55664
574.1594, 15.11530
574.6415, 11.48730
575.1237, 7.728577
575.6058, 4.151428
576.0879, 0.7103880
576.5700, 3.136047
577.0521, 5.611694
577.5342, 1.998108
578.0164, 7.765625
578.4985, 11.57465
578.9806, 3.101929
579.4627, 6.906799
579.9448, 5.821350
580.4269, 4.964294
580.9091, 14.17731
581.3912, 20.29419
581.8733, 23.61450
582.3554, 23.22803
582.8375, 20.22968
583.3196, 17.21417
583.8018, 15.08484
584.2839, 13.50385
584.7660, 11.96759
585.2481, 10.60608
585.7302, 8.893494
586.2123, 4.963623
586.6945, 2.558899
587.1766, 3.323059
587.6587, 7.320984
588.1408, 13.76178
588.6229, 22.12189
589.1050, 29.99554
589.5872, 31.81329
590.0693, 27.83447
590.5514, 25.81207
591.0335, 29.16418
591.5156, 31.64874
591.9977, 23.80792
592.4799, 7.679138
592.9620, 0.4159550
593.4441, 9.650940
593.9262, 20.14874
594.4083, 19.35809
594.8904, 11.66260
595.3726, 5.632080
595.8547, 4.354980
596.3368, 6.823364
596.8189, 12.63824
597.3010, 23.71863
597.7831, 27.45966
598.2653, 15.24170
598.7474, 5.471436
599.2295, 5.253723
599.7116, 10.15362
600.1937, 13.29254
600.6758, 12.05847
601.1580, 11.02362
601.6401, 15.94916
602.1222, 25.39093
602.6043, 33.32410
603.0864, 39.75464
603.5685, 40.82556
604.0507, 30.93921
604.5328, 11.32874
605.0149, 2.686340
605.4970, 10.37073
605.9791, 13.27069
606.4612, 7.653137
606.9434, 0.6416020
607.4255, 2.773804
607.9076, 2.464905
608.3897, 7.377869
608.8718, 3.192322
609.3539, 9.849121
609.8361, 21.69366
610.3182, 37.17120
610.8003, 43.19373
611.2824, 26.94391
611.7645, 4.158386
612.2466, 8.738770
612.7288, 8.608521
613.2109, 2.942017
613.6930, 7.129761
614.1751, 18.24841
614.6572, 23.01703
615.1393, 21.08606
615.6215, 20.02478
616.1036, 25.43372
616.5857, 34.65802
617.0678, 38.04279
617.5499, 30.64294
618.0320, 24.35657
618.5142, 18.35986
618.9963, 14.60358
619.4784, 16.45245
619.9605, 22.27905
620.4426, 26.16492
620.9247, 23.30505
621.4069, 16.89880
621.8890, 16.85626
622.3711, 25.22449
622.8532, 26.85004
623.3353, 8.864197
623.8174, 8.223877
624.2996, 3.852844
624.7817, 42.55170
625.2638, 63.23914
625.7459, 37.16711
626.2280, 3.240906
626.7101, 10.17303
627.1923, 6.525879
627.6744, 4.012878
628.1565, 17.61163
628.6386, 30.07971
629.1207, 33.26239
629.6028, 23.03192
630.0850, 20.94696
630.5671, 37.97729
631.0492, 52.05621
631.5313, 56.00525
632.0134, 52.17908
632.4955, 42.83612
632.9777, 27.89734
633.4598, 16.62555
633.9419, 22.13641
634.4240, 38.73303
634.9061, 46.64569
635.3882, 42.58813
635.8704, 36.93756
636.3525, 37.44995
636.8346, 42.93127
637.3167, 45.28674
637.7988, 44.08386
638.2809, 41.84619
638.7631, 37.63489
639.2452, 32.96558
639.7273, 29.32684
640.2094, 26.81781
640.6915, 24.56592
641.1736, 21.69824
641.6558, 18.75739
642.1379, 18.00549
642.6200, 20.07214
643.1021, 21.69287
643.5842, 23.15228
644.0663, 22.57306
644.5485, 14.44537
645.0306, 0.7868650
645.5127, 5.002319
645.9948, 20.04974
646.4769, 46.72870
646.9590, 51.05151
647.4412, 39.13098
647.9233, 27.69635
648.4054, 23.31152
648.8875, 22.09637
649.3696, 17.74414
649.8517, 8.694458
650.3339, 4.769592
650.8160, 10.30719
651.2981, 16.01556
651.7802, 18.37811
652.2623, 18.95770
652.7444, 19.83801
653.2266, 21.46014
653.7087, 24.07263
654.1908, 31.19446
654.6729, 38.79828
655.1550, 35.56470
655.6371, 20.48486
656.1193, 7.367737
656.6014, 5.889648
657.0835, 12.69116
657.5656, 15.13867
658.0477, 6.710083
658.5298, 2.867310
659.0120, 7.013367
659.4941, 12.99860
659.9762, 15.50781
660.4583, 15.96912
660.9404, 20.48865
661.4225, 34.20911
661.9047, 50.34387
662.3868, 56.65485
662.8689, 53.16571
663.3510, 48.30774
663.8331, 43.95166
664.3152, 39.87244
664.7974, 34.93274
665.2795, 28.96490
665.7616, 25.12646
666.2437, 27.04248
666.7258, 27.76453
667.2079, 21.65228
667.6901, 12.79395
668.1722, 10.22852
668.6543, 15.18182
669.1364, 22.20801
669.6185, 26.38916
670.1006, 27.62476
670.5828, 29.33685
671.0649, 32.28534
671.5470, 33.98816
672.0291, 30.76282
672.5112, 27.55597
672.9933, 32.22485
673.4755, 45.27325
673.9576, 51.09015
674.4397, 38.82770
674.9218, 23.20215
675.4039, 14.78821
675.8860, 12.48669
676.3682, 11.96100
676.8503, 11.48486
677.3324, 13.16937
677.8145, 21.54095
678.2966, 38.25629
678.7787, 48.23584
679.2609, 47.98346
679.7430, 45.85541
680.2251, 45.77618
680.7072, 45.54663
681.1893, 41.50018
681.6714, 31.61646
682.1536, 23.69958
682.6357, 22.94989
683.1178, 24.90961
683.5999, 22.06506
684.0820, 14.16583
684.5641, 8.504272
685.0463, 10.48206
685.5284, 16.68005
686.0105, 17.61160
686.4926, 9.746185
686.9747, 4.335358
687.4568, 3.516907
687.9390, 2.998657
688.4211, 1.047913
688.9032, 5.585358
689.3853, 3.836884
689.8674, 8.245056
690.3495, 20.04953
690.8317, 20.49551
691.3138, 14.19034
691.7959, 13.29272
692.2780, 19.25235
692.7601, 23.92850
693.2422, 21.03244
693.7244, 13.12689
694.2065, 10.28339
694.6886, 17.30499
695.1707, 21.68518
695.6528, 18.31918
696.1349, 16.66550
696.6171, 26.21414
697.0992, 42.24493
697.5813, 51.33032
698.0634, 45.83191
698.5455, 34.99899
699.0276, 27.43869
699.5098, 22.36838
699.9919, 18.24390
700.4740, 14.79810
700.9561, 12.46423
701.4382, 11.28705
701.9203, 11.49414
702.4025, 14.95880
702.8846, 28.07239
703.3667, 34.96249
703.8488, 30.48022
704.3309, 23.72687
704.8130, 21.29343
705.2952, 23.49045
705.7773, 28.17581
706.2594, 35.63940
706.7415, 42.55951
707.2236, 43.92175
707.7057, 40.27536
708.1879, 33.88095
708.6700, 25.16034
709.1521, 17.90289
709.6342, 15.82730
710.1163, 18.77411
710.5984, 22.06073
711.0806, 28.98413
711.5627, 31.83627
712.0448, 25.64102
712.5269, 17.70734
713.0090, 13.93558
713.4911, 14.66486
713.9733, 17.10901
714.4554, 20.12524
714.9375, 24.09146
715.4196, 28.16232
715.9017, 32.45160
716.3839, 42.18146
716.8660, 61.09055
717.3481, 76.14240
717.8302, 71.87299
718.3123, 48.34753
718.7944, 36.40414
719.2766, 47.94281
719.7587, 54.59048
720.2408, 48.18570
720.7229, 37.06174
721.2050, 26.36890
721.6871, 18.11145
722.1693, 15.89597
722.6514, 27.26721
723.1335, 40.57126
723.6156, 29.68680
724.0977, 0.4786380
724.5798, 10.87738
725.0620, 11.90424
725.5441, 40.87836
726.0262, 48.40735
726.5083, 34.67371
726.9904, 23.65747
727.4725, 12.54169
727.9547, 7.587952
728.4368, 14.72894
728.9189, 24.99600
729.4010, 30.61707
729.8831, 31.29010
730.3652, 31.41791
730.8474, 34.14471
731.3295, 37.31351
731.8116, 38.56546
732.2937, 37.68060
732.7758, 31.70749
733.2579, 18.94803
733.7401, 8.945313
734.2222, 12.83536
734.7043, 29.73676
735.1864, 37.36304
735.6685, 24.97916
736.1506, 17.37671
736.6328, 19.93820
737.1149, 26.12567
737.5970, 33.33621
738.0791, 40.02271
738.5612, 42.48380
739.0433, 38.19000
739.5255, 29.59924
740.0076, 14.70422
740.4897, 2.268250
740.9718, 5.236877
741.4539, 9.500000
741.9360, 25.93961
742.4182, 28.75284
742.9003, 20.45706
743.3824, 22.28519
743.8645, 45.07101
744.3466, 58.96442
744.8287, 55.13748
745.3109, 46.37289
745.7930, 41.03708
746.2751, 37.98477
746.7572, 31.19034
747.2393, 15.29440
747.7214, 0.9457090
748.2036, 3.509674
748.6857, 1.009338
749.1678, 4.455933
749.6499, 11.70737
750.1320, 17.92215
750.6141, 20.97852
751.0963, 21.27936
751.5784, 21.80750
752.0605, 23.26120
752.5426, 23.37558
753.0247, 20.76584
753.5068, 17.70630
753.9890, 16.48618
754.4711, 15.97101
754.9532, 12.50116
755.4353, 2.010406
755.9174, 5.564240
756.3995, 5.090942
756.8817, 0.9891660
757.3638, 13.12991
757.8459, 28.74634
758.3280, 38.52475
758.8101, 35.97894
759.2922, 28.01862
759.7744, 31.28912
760.2565, 47.71722
760.7386, 56.18903
761.2207, 52.49994
761.7028, 44.83832
762.1849, 36.69403
762.6671, 28.61905
763.1492, 22.06741
763.6313, 17.87708
764.1134, 13.40610
764.5955, 3.760681
765.0776, 2.693909
765.5598, 5.580322
766.0419, 21.89731
766.5240, 28.67206
767.0061, 17.93124
767.4882, 3.435730
767.9703, 3.633301
768.4525, 15.85019
768.9346, 26.21548
769.4167, 34.08170
769.8988, 38.39713
770.3809, 38.42163
770.8630, 34.77780
771.3452, 27.68774
771.8273, 12.83737
772.3094, 7.555298
772.7915, 20.53064
773.2736, 32.97556
773.7557, 37.44928
774.2379, 36.76385
774.7200, 34.33963
775.2021, 31.15915
775.6842, 28.93088
776.1663, 29.75241
776.6484, 31.87552
777.1306, 33.43619
777.6127, 33.96750
778.0948, 29.99496
778.5769, 19.83072
779.0590, 10.81949
779.5411, 13.05856
780.0233, 26.93964
780.5054, 35.86212
780.9875, 37.98550
781.4696, 37.94333
781.9517, 35.49362
782.4338, 31.44540
782.9160, 27.29828
783.3981, 22.62097
783.8802, 20.39142
784.3623, 24.75604
784.8444, 28.58621
785.3265, 24.57556
785.8087, 18.12634
786.2908, 19.32242
786.7729, 28.65659
787.2550, 36.89294
787.7371, 36.45526
788.2192, 30.36435
788.7014, 26.82672
789.1835, 25.91464
789.6656, 27.26706
790.1477, 32.17319
790.6298, 36.49313
791.1119, 37.33481
791.5941, 34.84543
792.0762, 30.17188
792.5583, 21.75888
793.0404, 13.78311
793.5225, 3.072968
794.0046, 3.619690
794.4868, 3.266022
794.9689, 17.50055
795.4510, 23.00711
795.9331, 11.79498
796.4152, 0.2852780
796.8973, 9.910889
797.3795, 31.67563
797.8616, 42.40353
798.3437, 40.48575
798.8258, 34.03442
799.3079, 26.77441
799.7900, 20.87985
800.2722, 21.67557
800.7543, 31.26825
801.2364, 37.76489
801.7185, 41.43582
802.2006, 41.44525
802.6827, 35.75888
803.1649, 27.62466
803.6470, 18.66605
804.1291, 9.111053
804.6112, 6.529205
805.0933, 20.90714
805.5754, 36.15359
806.0576, 42.07904
806.5397, 40.11459
807.0218, 28.77798
807.5039, 9.633667
807.9860, 4.969696
808.4681, 2.309662
808.9503, 11.44705
809.4324, 15.98026
809.9145, 10.66705
810.3966, 7.075836
810.8787, 7.947662
811.3608, 10.62607
811.8430, 13.39392
812.3251, 16.08511
812.8072, 17.50888
813.2893, 18.64752
813.7714, 16.74323
814.2535, 6.986481
814.7357, 0.5555110
815.2178, 2.306183
815.6999, 11.93930
816.1820, 19.37997
816.6641, 21.29126
817.1462, 20.98178
817.6284, 20.00058
818.1105, 19.08295
818.5926, 19.05261
819.0747, 20.17221
819.5568, 24.19730
820.0389, 32.18091
820.5211, 39.59171
821.0032, 38.84927
821.4853, 29.51807
821.9674, 18.49005
822.4495, 3.498901
822.9316, 7.779541
823.4138, 12.11850
823.8959, 10.96539
824.3780, 4.430328
824.8601, 7.644958
825.3422, 16.92749
825.8243, 21.96954
826.3065, 24.90988
826.7886, 25.60114
827.2707, 25.14468
827.7528, 25.02081
828.2349, 25.05777
828.7170, 23.20715
829.1992, 16.72253
829.6813, 10.38965
830.1633, 11.86112
830.6454, 18.93896
831.1276, 24.52075
831.6097, 27.45526
832.0918, 28.59900
832.5739, 28.45691
833.0560, 27.14624
833.5381, 24.44424
834.0203, 18.80103
834.5024, 17.31607
834.9845, 23.02847
835.4666, 28.83765
835.9487, 33.46445
836.4308, 35.11676
836.9130, 28.72269
837.3951, 11.16238
837.8772, 1.631714
838.3593, 12.09250
838.8414, 24.48032
839.3235, 29.06738
839.8057, 27.91873
840.2878, 22.82913
840.7699, 15.39993
841.2520, 11.81769
841.7341, 20.13831
842.2162, 32.97708
842.6984, 36.58401
843.1805, 32.25363
843.6626, 25.15030
844.1447, 16.33694
844.6268, 10.07907
845.1089, 10.39563
845.5911, 15.89438
846.0732, 20.06107
846.5553, 22.42511
847.0374, 24.84482
847.5195, 29.83923
848.0016, 32.02341
848.4838, 25.40073
848.9659, 14.62964
849.4480, 8.530823
849.9301, 8.109894
850.4122, 11.35596
850.8943, 24.65622
851.3765, 34.70566
851.8586, 27.69067
852.3407, 12.72321
852.8228, 5.678314
853.3049, 10.67789
853.7870, 18.47763
854.2692, 20.29095
854.7513, 19.87698
855.2334, 26.82693
855.7155, 38.52704
856.1976, 40.39719
856.6797, 28.39981
857.1619, 14.65445
857.6440, 10.23532
858.1261, 13.56018
858.6082, 16.12808
859.0903, 17.78152
859.5724, 19.14279
860.0546, 19.76962
860.5367, 20.88007
861.0188, 25.74936
861.5009, 31.28848
861.9830, 29.34253
862.4651, 15.66733
862.9473, 4.484375
863.4294, 1.618317
863.9115, 4.437561
864.3936, 3.975708
864.8757, 0.6795650
865.3578, 2.739441
865.8400, 6.390625
866.3221, 10.29745
866.8042, 15.88849
867.2863, 20.31616
867.7684, 18.66452
868.2505, 13.46561
868.7327, 12.73874
869.2148, 18.93527
869.6969, 25.94824
870.1790, 30.79562
870.6611, 33.11829
871.1432, 31.00546
871.6254, 23.80698
872.1075, 17.11411
872.5896, 10.96530
873.0717, 7.014709
873.5538, 6.292480
874.0359, 8.534393
874.5181, 13.30515
875.0002, 24.07529
875.4823, 29.71283
875.9644, 26.94769
876.4465, 22.67673
876.9286, 19.38681
877.4108, 16.19452
877.8929, 12.65015
878.3750, 8.757019
878.8571, 6.361542
879.3392, 5.172516
879.8214, 7.065979
880.3035, 18.01758
880.7856, 30.77600
881.2677, 32.30957
881.7498, 22.72235
882.2319, 13.70618
882.7141, 12.95047
883.1962, 16.95819
883.6783, 16.07559
884.1604, 12.24588
884.6425, 15.79691
885.1246, 28.43341
885.6068, 36.96652
886.0889, 33.89731
886.5710, 24.49945
887.0531, 15.22964
887.5352, 5.872223
888.0173, 0.5498960
888.4995, 1.160034
888.9816, 3.699493
889.4637, 8.264130
889.9458, 14.20901
890.4279, 21.87784
890.9100, 30.85718
891.3922, 35.87708
891.8743, 34.57007
892.3564, 31.43170
892.8385, 23.92712
893.3206, 18.34305
893.8027, 23.82474
894.2849, 35.41632
894.7670, 41.18298
895.2491, 35.43246
895.7312, 27.36127
896.2133, 20.44940
896.6954, 15.97565
897.1776, 15.45099
897.6597, 18.14996
898.1418, 22.30374
898.6239, 27.12912
899.1060, 30.00983
899.5881, 26.58850
900.0703, 19.33990
900.5524, 22.34470
901.0345, 36.48611
901.5166, 39.63098
901.9987, 24.09869
902.4808, 6.650299
902.9630, 0.1942440
903.4451, 3.183441
903.9272, 9.871307
904.4093, 25.71057
904.8914, 33.87537
905.3735, 27.65820
905.8557, 21.15695
906.3378, 21.60620
906.8199, 24.72195
907.3020, 22.64252
907.7841, 14.13971
908.2662, 13.97018
908.7484, 33.65900
909.2305, 51.72156
909.7126, 58.51648
910.1947, 57.04581
910.6768, 47.48111
911.1589, 32.96921
911.6411, 23.53955
912.1232, 25.56580
912.6053, 32.42462
913.0874, 40.95615
913.5695, 48.21930
914.0516, 47.35214
914.5338, 39.57639
915.0159, 33.20370
915.4980, 32.15063
915.9801, 32.29459
916.4622, 26.74750
916.9443, 17.06400
917.4265, 14.59775
917.9086, 19.71152
918.3907, 22.68817
918.8728, 20.00931
919.3549, 17.31198
919.8370, 20.44226
920.3192, 28.31522
920.8013, 34.06201
921.2834, 39.72559
921.7655, 37.74829
922.2476, 9.183868
922.7297, 26.86105
923.2119, 47.14914
923.6940, 52.50861
924.1761, 1.774872
924.6582, 20.95486
925.1403, 12.81927
925.6224, 3.417450
926.1046, 36.98434
926.5867, 8.630219
927.0688, 24.24814
927.5509, 25.79010
928.0330, 41.67285
928.5151, 26.49988
928.9973, 20.91788
929.4794, 46.40030
929.9615, 54.68103
930.4436, 35.93005
930.9257, 52.72018
931.4078, 6.007568
931.8900, 15.01770
932.3721, 48.06934
932.8542, 30.87579
933.3363, 48.22940
933.8184, 52.42444
934.3005, 3.177887
934.7827, 45.20819
935.2648, 48.62024
935.7469, 5.854828
936.2290, 50.67633
936.7111, 14.27521
937.1932, 6.864441
937.6754, 21.27036
938.1575, 12.93143
938.6396, 40.45175
939.1217, 33.42828
939.6038, 23.31964
940.0859, 26.68170
940.5681, 8.125549
941.0502, 27.87088
941.5323, 15.49689
942.0144, 27.16547
942.4965, 44.28299
942.9786, 19.67117
943.4608, 39.23541
943.9429, 9.709473
944.4250, 1.338440
944.9071, 0.8567500
945.3892, 39.68979
945.8713, 8.951324
946.3535, 2.203064
946.8356, 28.13815
947.3177, 25.48196
947.7998, 36.62460
948.2819, 6.915131
948.7640, 15.58118
949.2462, 13.66818
949.7283, 48.30753
950.2104, 54.08884
950.6925, 25.06787
951.1746, 3.806488
951.6567, 33.45618
952.1389, 8.028168
952.6210, 16.41943
953.1031, 10.11948
953.5852, 21.82388
954.0673, 29.15402
954.5494, 25.73077
955.0316, 16.59406
955.5137, 15.91284
955.9958, 23.32690
956.4779, 31.51904
956.9600, 37.75568
957.4421, 39.28448
957.9243, 31.21411
958.4064, 17.02625
958.8885, 14.22812
959.3706, 23.57251
959.8527, 30.52704
960.3348, 32.64148
960.8170, 31.84521
961.2991, 28.42709
961.7812, 24.61002
962.2633, 26.15210
962.7454, 35.15866
963.2275, 40.37274
963.7097, 43.61234
964.1918, 38.93054
964.6739, 16.19016
965.1560, 7.144958
965.6381, 11.30032
966.1202, 2.107910
966.6024, 12.69318
967.0845, 20.66241
967.5666, 25.52002
968.0487, 23.35211
968.5308, 22.01285
969.0129, 29.68832
969.4951, 39.52847
969.9772, 38.82391
970.4593, 24.78867
970.9414, 13.20059
971.4235, 11.05292
971.9056, 10.50391
972.3878, 6.210266
972.8699, 2.245453
973.3520, 3.130951
973.8341, 8.837006
974.3162, 17.63019
974.7983, 30.16815
975.2805, 40.45383
975.7626, 43.74677
976.2447, 42.43948
976.7268, 36.83780
977.2089, 29.54984
977.6910, 26.09338
978.1732, 27.74536
978.6553, 31.11511
979.1374, 34.43277
979.6195, 36.46219
980.1016, 33.65262
980.5837, 28.68396
981.0659, 23.27795
981.5480, 18.44836
982.0301, 18.49179
982.5122, 26.36053
982.9943, 36.60559
983.4764, 42.10870
983.9586, 43.30447
984.4407, 39.80527
984.9228, 33.06818
985.4049, 33.67114
985.8870, 45.55826
986.3691, 53.97998
986.8513, 45.65103
987.3334, 27.10541
987.8155, 18.19562
988.2976, 20.06812
988.7797, 24.64636
989.2618, 33.27664
989.7440, 38.98163
990.2261, 38.28436
990.7082, 34.26407
991.1903, 29.96075
991.6724, 25.46481
992.1545, 24.89542
992.6367, 33.99274
993.1188, 37.05896
993.6009, 26.88095
994.0830, 16.20557
994.5651, 12.03033
995.0472, 12.38916
995.5294, 13.28043
996.0115, 14.26950
996.4936, 17.52554
996.9757, 29.00040
997.4578, 35.44235
997.9399, 26.88943
998.4221, 15.57468
998.9042, 14.44598
999.3863, 20.65207
999.8684, 23.95779
1000.351, 20.67322
1000.833, 18.80734
1001.315, 21.21051
1001.797, 24.19571
1002.279, 27.91406
1002.761, 31.73315
1003.243, 36.14154
1003.725, 39.98428
1004.207, 41.93979
1004.690, 41.14832
1005.172, 37.41959
1005.654, 26.89322
1006.136, 16.15421
1006.618, 10.87631
1007.100, 11.23209
1007.582, 18.35510
1008.064, 32.15359
1008.547, 41.82361
1009.029, 34.60196
1009.511, 23.90280
1009.993, 22.95874
1010.475, 26.87677
1010.957, 25.95895
1011.439, 22.29269
1011.921, 20.45999
1012.403, 24.65619
1012.886, 27.72116
1013.368, 16.29370
1013.850, 1.317963
1014.332, 7.752869
1014.814, 28.74539
1015.296, 35.75760
1015.778, 24.21335
1016.260, 11.96414
1016.742, 13.24915
1017.225, 20.03729
1017.707, 19.01868
1018.189, 13.60709
1018.671, 17.40616
1019.153, 29.79071
1019.635, 37.56833
1020.117, 35.87680
1020.599, 32.04929
1021.082, 34.81750
1021.564, 40.06848
1022.046, 29.76987
1022.528, 5.902130
1023.010, 0.3426820
1023.492, 16.14450
1023.974, 32.35229
1024.456, 35.59201
1024.938, 30.20245
1025.421, 21.28552
1025.903, 9.501221
1026.385, 2.876343
1026.867, 1.587280
1027.349, 4.341705
1027.831, 11.58398
1028.313, 19.95221
1028.795, 27.75110
1029.278, 34.07761
1029.760, 36.60745
1030.242, 34.84329
1030.724, 33.61945
1031.206, 33.05768
1031.688, 32.14853
1032.170, 30.95667
1032.652, 28.31390
1033.135, 22.57318
1033.617, 14.93805
1034.099, 10.09766
1034.581, 9.291504
1035.063, 7.326111
1035.545, 1.317871
1036.027, 0.3092650
1036.509, 10.84238
1036.991, 23.79333
1037.474, 29.81674
1037.956, 29.24908
1038.438, 25.32425
1038.920, 11.43799
1039.402, 7.323456
1039.884, 23.21817
1040.366, 36.29535
1040.848, 34.99774
1041.330, 26.15329
1041.813, 17.44144
1042.295, 8.643951
1042.777, 5.072662
1043.259, 10.20648
1043.741, 14.44495
1044.223, 16.53894
1044.705, 18.26489
1045.187, 20.68033
1045.670, 23.32660
1046.152, 25.30286
1046.634, 26.44669
1047.116, 27.90552
1047.598, 30.47516
1048.080, 32.39426
1048.562, 33.76321
1049.044, 33.88235
1049.526, 31.64746
1050.009, 27.93054
1050.491, 4.019348
1050.973, 31.87485
1051.455, 51.99246
1051.937, 57.18106
1052.419, 2.726929
1052.901, 25.29031
1053.383, 16.99301
1053.865, 7.431244
1054.348, 40.83853
1054.830, 4.934509
1055.312, 27.78860
1055.794, 29.17636
1056.276, 44.90814
1056.758, 29.58475
1057.240, 23.85318
1057.722, 49.18652
1058.205, 57.31845
1058.687, 38.41956
1059.169, 55.06235
1059.651, 8.206604
1060.133, 17.07559
1060.615, 49.98737
1061.097, 32.65451
1061.579, 49.87283
1062.062, 53.93417
1062.544, 1.800690
1063.026, 46.45535
1063.508, 49.73810
1063.990, 6.843262
1064.472, 51.53592
1064.954, 15.00699
1065.436, 7.469025
1065.918, 21.74884
1066.401, 13.28388
1066.883, 40.68005
1067.365, 33.53067
1067.847, 23.29611
1068.329, 26.53268
1068.811, 8.395782
1069.293, 27.48123
1069.775, 14.98877
1070.257, 26.53967
1070.740, 43.53979
1071.222, 18.81171
1071.704, 38.23965
1072.186, 10.81976
1072.668, 2.561554
1073.150, 0.4777530
1073.632, 38.24548
1074.114, 10.48816
1074.597, 3.831146
1075.079, 26.41122
1075.561, 23.64960
1076.043, 34.68741
1076.525, 4.874908
1077.007, 13.43915
1077.489, 11.42520
1077.971, 45.96439
1078.453, 31.88162
1078.936, 29.54065
1079.418, 16.81805
1079.900, 8.940460
1080.382, 9.421509
1080.864, 12.03461
1081.346, 16.87085
1081.828, 19.88129
1082.310, 17.40924
1082.792, 13.45181
1083.275, 12.07748
1083.757, 12.23694
1084.239, 10.65250
1084.721, 6.473145
1085.203, 2.873657
1085.685, 1.111115
1086.167, 0.4136960
1086.649, 1.233765
1087.131, 2.144318
1087.614, 0.5053100
1088.096, 1.874481
1088.578, 0.1757200
1089.060, 8.345276
1089.542, 14.45258
1090.024, 13.24524
1090.506, 11.53448
1090.988, 12.69940
1091.471, 15.13043
1091.953, 16.53491
1092.435, 17.98257
1092.917, 24.16202
1093.399, 37.45984
1093.881, 42.58249
1094.363, 26.04865
1094.845, 9.744080
1095.328, 2.746735
1095.810, 2.001038
1096.292, 7.884857
1096.774, 16.75327
1097.256, 20.60687
1097.738, 17.08945
1098.220, 13.54388
1098.702, 13.87503
1099.184, 12.68948
1099.667, 3.922089
1100.149, 4.146881
1100.631, 2.605774
1101.113, 5.380920
1101.595, 11.29047
1102.077, 13.63239
1102.559, 13.86868
1103.041, 8.978394
1103.523, 6.451843
1104.006, 12.01157
1104.488, 18.41605
1104.970, 19.90164
1105.452, 17.30469
1105.934, 12.75452
1106.416, 5.401733
1106.898, 2.005951
1107.380, 6.908600
1107.863, 11.68042
1108.345, 13.14581
1108.827, 14.15182
1109.309, 17.11478
1109.791, 20.52750
1110.273, 20.38623
1110.755, 14.94849
1111.237, 12.64789
1111.719, 19.27390
1112.202, 23.50131
1112.684, 22.20569
1113.166, 3.593323
1113.648, 21.60150
1114.130, 31.72128
1114.612, 34.37668
1115.094, 7.210968
1115.576, 18.55310
1116.058, 14.46310
1116.541, 9.740112
1117.023, 26.50223
1117.505, 3.673920
1117.987, 20.09540
1118.469, 20.84906
1118.951, 28.77344
1119.433, 21.17029
1119.915, 18.36304
1120.398, 30.96365
1120.880, 35.08862
1121.362, 25.69873
1121.844, 34.07971
1122.326, 10.70981
1122.808, 15.20172
1123.290, 31.71469
1123.772, 23.10544
1124.255, 31.77008
1124.737, 33.85587
1125.219, 6.332672
1125.701, 30.88724
1126.183, 32.58420
1126.665, 10.65329
1127.147, 33.05530
1127.629, 14.84653
1128.111, 11.13318
1128.594, 18.32852
1129.076, 14.15195
1129.558, 27.90497
1130.040, 23.69324
1130.522, 18.45673
1131.004, 20.08356
1131.486, 2.671112
1131.968, 19.99313
1132.450, 13.54862
1132.933, 19.37830
1133.415, 27.98096
1133.897, 15.90994
1134.379, 25.68930
1134.861, 1.214539
1135.343, 5.401520
1135.825, 6.502289
1136.307, 10.49896
1136.790, 3.443939
1137.272, 4.768372
1137.754, 12.34112
1138.236, 12.43405
1138.718, 5.177032
1139.200, 1.983490
1139.682, 6.729156
1140.164, 13.45206
1140.646, 17.00339
1141.129, 18.78149
1141.611, 23.08365
1142.093, 27.07791
1142.575, 20.28915
1143.057, 6.175812
1143.539, 0.1423340
1144.021, 4.505524
1144.503, 10.14407
1144.985, 9.500977
1145.468, 7.306519
1145.950, 9.716095
1146.432, 14.41635
1146.914, 19.03415
1147.396, 21.97238
1147.878, 18.01984
1148.360, 8.575256
1148.842, 4.672577
1149.325, 13.06015
1149.807, 23.60352
1150.289, 30.55676
1150.771, 33.78973
1151.253, 31.08368
1151.735, 25.83643
1152.217, 22.95996
1152.699, 22.22510
1153.182, 19.98251
1153.664, 14.49075
1154.146, 10.25229
1154.628, 10.89380
1155.110, 11.61838
1155.592, 6.381836
1156.074, 2.675354
1156.556, 12.69653
1157.038, 29.50214
1157.521, 32.88098
1158.003, 16.29642
1158.485, 6.320221
1158.967, 15.54883
1159.449, 22.54153
1159.931, 15.89828
1160.413, 9.759369
1160.895, 16.62402
1161.377, 29.25357
1161.860, 33.66882
1162.342, 28.99704
1162.824, 23.24777
1163.306, 13.71774
1163.788, 8.179535
1164.270, 9.883301
1164.752, 11.44308
1165.234, 8.114655
1165.717, 4.711670
1166.199, 9.247620
1166.681, 19.81073
1167.163, 16.69223
1167.645, 6.100220
1168.127, 14.78223
1168.609, 4.276245
1169.091, 7.696320
1169.573, 15.00174
1170.056, 20.17044
1170.538, 26.29037
1171.020, 30.97983
1171.502, 24.26971
1171.984, 7.389130
1172.466, 3.248047
1172.948, 12.02805
1173.430, 18.19528
1173.912, 17.69653
1174.395, 14.93265
1174.877, 12.72574
1175.359, 11.58392
1175.841, 13.40225
1176.323, 16.47836
1176.805, 15.80789
1177.287, 12.55756
1177.769, 10.31180
1178.252, 9.717072
1178.734, 9.897186
1179.216, 10.23669
1179.698, 11.93829
1180.180, 18.56796
1180.662, 24.64377
1181.144, 24.13068
1181.626, 18.98459
1182.109, 7.708618
1182.591, 4.656738
1183.073, 5.962952
1183.555, 6.501007
1184.037, 20.58560
1184.519, 36.94141
1185.001, 43.97186
1185.483, 26.52170
1185.965, 6.851624
1186.448, 3.069550
1186.930, 7.789368
1187.412, 7.883759
1187.894, 2.975586
1188.376, 3.256073
1188.858, 17.19400
1189.340, 24.25488
1189.822, 16.64243
1190.304, 8.141388
1190.787, 0.7448730
1191.269, 3.917572
1191.751, 8.104950
1192.233, 29.15543
1192.715, 38.40091
1193.197, 32.15170
1193.679, 31.47684
1194.161, 40.72986
1194.644, 41.26855
1195.126, 25.72638
1195.608, 11.87650
1196.090, 11.43060
1196.572, 17.56750
1197.054, 18.91470
1197.536, 16.29666
1198.018, 16.35391
1198.500, 18.95563
1198.983, 21.63367
1199.465, 23.92542
1199.947, 23.10876
1200.429, 18.05957
1200.911, 11.20737
1201.393, 4.128174
1201.875, 1.527069
1202.357, 3.602448
1202.839, 1.610901
1203.322, 8.527466
1203.804, 23.21292
1204.286, 33.62323
1204.768, 37.20148
1205.250, 32.21271
1205.732, 14.73294
1206.214, 1.289001
1206.696, 11.46149
1207.179, 24.64096
1207.661, 18.83905
1208.143, 7.746246
1208.625, 11.57520
1209.107, 26.39548
1209.589, 34.80893
1210.071, 32.05988
1210.553, 28.90369
1211.036, 28.55591
1211.518, 28.29041
1212.000, 28.01047
1212.482, 25.90656
1212.964, 19.59589
1213.446, 12.27875
1213.928, 8.737823
1214.410, 8.854187
1214.892, 10.56033
1215.375, 16.61783
1215.857, 15.81335
1216.339, 3.642822
1216.821, 3.131714
1217.303, 2.847107
1217.785, 11.20911
1218.267, 12.57901
1218.749, 9.851440
1219.231, 9.360077
1219.714, 11.23322
1220.196, 20.63162
1220.678, 36.10077
1221.160, 39.56345
1221.642, 28.55533
1222.124, 15.07236
1222.606, 5.346924
1223.088, 1.518860
1223.571, 10.38513
1224.053, 22.29373
1224.535, 18.49490
1225.017, 8.829803
1225.499, 12.95898
1225.981, 25.16455
1226.463, 26.29449
1226.945, 12.69809
1227.427, 3.280212
1227.910, 10.10556
1228.392, 17.95685
1228.874, 18.47775
1229.356, 17.55658
1229.838, 20.01868
1230.320, 22.52536
1230.802, 19.48019
1231.284, 12.87564
1231.766, 11.51996
1232.249, 19.49274
1232.731, 20.87857
1233.213, 7.508606
1233.695, 1.476349
1234.177, 12.83694
1234.659, 21.36304
1235.141, 12.59497
1235.623, 1.342926
1236.106, 2.578674
1236.588, 6.683044
1237.070, 11.39737
1237.552, 11.45621
1238.034, 11.78326
1238.516, 13.50580
1238.998, 18.79620
1239.480, 28.19965
1239.963, 31.99130
1240.445, 21.64359
1240.927, 8.334381
1241.409, 10.84219
1241.891, 20.48615
1242.373, 21.14966
1242.855, 16.23438
1243.337, 12.41290
1243.819, 10.65939
1244.302, 11.47867
1244.784, 14.34042
1245.266, 17.20697
1245.748, 20.28659
1246.230, 21.22058
1246.712, 16.09537
1247.194, 11.20923
1247.676, 12.23865
1248.158, 15.86249
1248.641, 16.23456
1249.123, 13.96045
1249.605, 16.95740
1250.087, 31.97891
1250.569, 36.04016
1251.051, 21.66266
1251.533, 12.28696
1252.015, 14.64041
1252.498, 18.73325
1252.980, 17.85614
1253.462, 15.31058
1253.944, 16.88779
1254.426, 21.73114
1254.908, 24.88446
1255.390, 26.29559
1255.872, 24.19507
1256.354, 19.14835
1256.837, 16.61127
1257.319, 18.31180
1257.801, 22.42044
1258.283, 28.51410
1258.765, 32.98154
1259.247, 30.93887
1259.729, 25.64294
1260.211, 17.94553
1260.693, 11.39117
1261.176, 14.36987
1261.658, 23.11026
1262.140, 24.24460
1262.622, 13.52698
1263.104, 7.321136
1263.586, 14.86710
1264.068, 21.60522
1264.550, 23.28870
1265.033, 23.54727
1265.515, 24.48227
1265.997, 24.81497
1266.479, 22.98700
1266.961, 19.36621
1267.443, 15.67438
1267.925, 12.13800
1268.407, 5.756683
1268.890, 4.534317
1269.372, 5.835098
1269.854, 4.954895
1270.336, 17.97180
1270.818, 27.87646
1271.300, 34.33365
1271.782, 37.12357
1272.264, 35.96387
1272.746, 27.80228
1273.229, 16.61710
1273.711, 8.748108
1274.193, 5.141937
1274.675, 8.495575
1275.157, 17.35263
1275.639, 20.70537
1276.121, 9.512131
1276.603, 7.628250
1277.085, 38.19174
1277.568, 64.42838
1278.050, 51.52737
1278.532, 27.92700
1279.014, 13.09305
1279.496, 6.950073
1279.978, 8.136444
1280.460, 16.48264
1280.942, 21.87308
1281.425, 23.43115
1281.907, 26.79160
1282.389, 34.16364
1282.871, 31.57811
1283.353, 12.96841
1283.835, 0.1239320
1284.317, 0.0000000E+00
##END=



