##NAMES=Serendibite
##RRUFFID=R070622
##IDEAL CHEMISTRY=Ca_4_(Mg_6_Al_6_)O_4_[Si_6_B_3_Al_3_O_36_]
##LOCALITY=Sri Lanka
##OWNER=RRUFF
##SOURCE=Shinichi Kihara
##DESCRIPTION=Deep blue-green vitreous crystals with conchoidal fracture.
##STATUS=The identification of this mineral has been confirmed by single-crystal X-ray diffraction.
##URL=rruff.info/R070622
109.3948, 0.0000000E+00
109.8770, 22.96484
110.3591, 1.043945
110.8412, 0.6699220
111.3233, 21.19434
111.8054, 103.0889
112.2875, 155.1436
112.7697, 145.6035
113.2518, 104.6963
113.7339, 59.83496
114.2160, 23.61523
114.6981, 3.625000
115.1802, 15.70312
115.6624, 8.027344
116.1445, 6.153320
116.6266, 24.95020
117.1087, 47.17090
117.5908, 71.34668
118.0729, 98.35547
118.5551, 127.2100
119.0372, 144.5635
119.5193, 134.0830
120.0014, 121.4697
120.4835, 132.6807
120.9656, 172.9707
121.4478, 219.7930
121.9299, 239.0137
122.4120, 236.5918
122.8941, 256.7559
123.3762, 342.9268
123.8583, 466.4014
124.3405, 541.0908
124.8226, 527.4775
125.3047, 485.2148
125.7868, 465.2783
126.2689, 468.3076
126.7510, 490.3848
127.2332, 536.0410
127.7153, 609.8584
128.1974, 672.9326
128.6795, 705.5869
129.1616, 730.2764
129.6437, 757.1973
130.1259, 789.2451
130.6080, 830.0342
131.0901, 894.2139
131.5722, 1023.207
132.0543, 1098.396
132.5364, 1071.254
133.0186, 998.3506
133.5007, 940.9688
133.9828, 934.7080
134.4649, 969.9424
134.9470, 978.3359
135.4291, 924.1377
135.9113, 877.3633
136.3934, 854.0312
136.8755, 849.8730
137.3576, 854.6553
137.8397, 862.0713
138.3218, 873.8945
138.8040, 865.9043
139.2861, 818.1230
139.7682, 770.3145
140.2503, 746.0000
140.7324, 746.7891
141.2145, 758.5713
141.6967, 767.8691
142.1788, 775.8398
142.6609, 773.4014
143.1430, 748.2100
143.6251, 716.8662
144.1072, 698.8311
144.5894, 699.5635
145.0715, 711.9951
145.5536, 728.8379
146.0357, 751.2100
146.5178, 769.5303
146.9999, 779.5107
147.4821, 782.3516
147.9642, 781.1406
148.4463, 771.4697
148.9284, 763.8389
149.4105, 771.9453
149.8927, 799.6641
150.3748, 830.3916
150.8569, 850.0039
151.3390, 857.5850
151.8211, 862.6807
152.3032, 859.7910
152.7854, 860.0068
153.2675, 877.1318
153.7496, 920.4219
154.2317, 970.1582
154.7138, 987.9385
155.1959, 956.8945
155.6781, 928.6016
156.1602, 913.1318
156.6423, 910.1504
157.1244, 923.3252
157.6065, 959.6396
158.0886, 1010.651
158.5708, 1031.882
159.0529, 990.9111
159.5350, 952.6025
160.0171, 940.3760
160.4992, 942.2061
160.9813, 933.1377
161.4635, 890.1172
161.9456, 808.6602
162.4277, 757.4648
162.9098, 769.3174
163.3919, 779.2373
163.8740, 757.0752
164.3562, 707.1016
164.8383, 655.5361
165.3204, 631.4678
165.8025, 647.0977
166.2846, 646.6338
166.7667, 615.3555
167.2489, 578.2129
167.7310, 559.6709
168.2131, 562.9258
168.6952, 570.6113
169.1773, 557.0049
169.6594, 508.4121
170.1416, 470.7939
170.6237, 452.7324
171.1058, 444.5391
171.5879, 434.9385
172.0700, 420.3545
172.5521, 404.2197
173.0343, 392.4229
173.5164, 383.7422
173.9985, 381.3086
174.4806, 390.2910
174.9627, 406.3281
175.4448, 419.2764
175.9270, 425.3418
176.4091, 426.0645
176.8912, 425.5996
177.3733, 425.4492
177.8554, 421.0488
178.3375, 404.7871
178.8197, 378.4629
179.3018, 360.1543
179.7839, 364.3506
180.2660, 377.2695
180.7481, 376.8398
181.2302, 351.2607
181.7124, 328.8408
182.1945, 355.4102
182.6766, 444.7158
183.1587, 499.5977
183.6408, 430.6045
184.1229, 318.3564
184.6051, 237.9121
185.0872, 215.9902
185.5693, 234.1006
186.0514, 263.4131
186.5335, 312.7559
187.0156, 353.1992
187.4978, 378.9336
187.9799, 389.7949
188.4620, 381.6260
188.9441, 345.4746
189.4262, 292.3711
189.9083, 267.3340
190.3905, 299.2822
190.8726, 321.4668
191.3547, 301.3252
191.8368, 259.6982
192.3189, 232.6152
192.8010, 248.2051
193.2832, 303.7070
193.7653, 341.6201
194.2474, 342.2158
194.7295, 342.0020
195.2116, 348.5068
195.6937, 361.5225
196.1759, 379.1689
196.6580, 402.3145
197.1401, 434.0820
197.6222, 445.6611
198.1043, 420.5322
198.5864, 391.7471
199.0686, 369.4102
199.5507, 354.6709
200.0328, 344.1445
200.5149, 334.5479
200.9970, 326.9590
201.4791, 320.6924
201.9613, 309.2686
202.4434, 301.5732
202.9255, 301.5137
203.4076, 310.3984
203.8897, 323.5029
204.3718, 333.2881
204.8540, 337.2441
205.3361, 344.1123
205.8182, 365.1865
206.3003, 382.1582
206.7824, 376.5391
207.2645, 344.4355
207.7467, 302.5918
208.2288, 276.3369
208.7109, 274.5059
209.1930, 274.2715
209.6751, 277.2861
210.1572, 281.6758
210.6394, 287.8115
211.1215, 293.2607
211.6036, 293.8076
212.0857, 284.3457
212.5678, 259.2764
213.0499, 247.4756
213.5321, 265.9873
214.0142, 298.7725
214.4963, 324.1670
214.9784, 334.0957
215.4605, 330.2256
215.9426, 319.2900
216.4248, 301.9141
216.9069, 284.6406
217.3890, 261.9180
217.8711, 240.8242
218.3532, 240.2119
218.8353, 271.9668
219.3175, 317.5410
219.7996, 349.1846
220.2817, 367.4775
220.7638, 375.1279
221.2459, 364.2588
221.7280, 341.1758
222.2102, 332.8730
222.6923, 356.3574
223.1744, 389.4404
223.6565, 400.3418
224.1386, 385.4307
224.6207, 364.9287
225.1029, 346.3535
225.5850, 330.8604
226.0671, 331.2061
226.5492, 370.0518
227.0313, 410.9238
227.5134, 409.8545
227.9956, 357.1113
228.4777, 294.0244
228.9598, 247.8838
229.4419, 218.8193
229.9240, 210.0293
230.4061, 241.1250
230.8883, 281.6650
231.3704, 303.0205
231.8525, 299.9307
232.3346, 286.1445
232.8167, 274.4199
233.2988, 265.0977
233.7810, 254.0791
234.2631, 239.1436
234.7452, 222.3984
235.2273, 202.1953
235.7094, 176.8740
236.1915, 157.6953
236.6737, 166.3057
237.1558, 212.0293
237.6379, 237.7227
238.1200, 197.7061
238.6021, 147.2998
239.0842, 131.1230
239.5664, 163.2080
240.0485, 208.3320
240.5306, 213.8164
241.0127, 166.1582
241.4948, 126.8711
241.9769, 117.0527
242.4591, 117.6533
242.9412, 114.4023
243.4233, 102.9111
243.9054, 90.75781
244.3875, 93.75293
244.8696, 123.2656
245.3518, 135.2881
245.8339, 101.6895
246.3160, 59.34570
246.7981, 37.51270
247.2802, 45.74316
247.7623, 69.72168
248.2445, 83.64844
248.7266, 76.61914
249.2087, 86.39062
249.6908, 133.9971
250.1729, 190.3125
250.6550, 237.0645
251.1372, 268.2725
251.6193, 279.5186
252.1014, 258.2305
252.5835, 183.4600
253.0656, 121.0068
253.5477, 81.42969
254.0299, 54.27051
254.5120, 31.48535
254.9941, 10.41211
255.4762, 6.557617
255.9583, 13.39062
256.4405, 0.6621090
256.9226, 2.995117
257.4047, 4.568359
257.8868, 20.78418
258.3689, 50.78223
258.8510, 94.86719
259.3332, 136.2744
259.8153, 140.3955
260.2974, 77.15039
260.7795, 34.93652
261.2616, 29.99414
261.7437, 39.36816
262.2259, 46.27344
262.7080, 45.39453
263.1901, 40.80273
263.6722, 41.20996
264.1543, 57.27344
264.6364, 56.57617
265.1186, 21.90137
265.6007, 17.67383
266.0828, 42.04297
266.5649, 44.93555
267.0470, 31.21191
267.5291, 4.640625
268.0113, 57.66016
268.4934, 86.06152
268.9755, 60.11719
269.4576, 17.47461
269.9397, 20.30957
270.4218, 45.77246
270.9040, 57.47168
271.3861, 48.19629
271.8682, 8.864258
272.3503, 30.76660
272.8324, 4.916016
273.3145, 54.14355
273.7967, 87.22754
274.2788, 98.13867
274.7609, 100.0273
275.2430, 112.4336
275.7251, 144.7266
276.2072, 165.4668
276.6894, 167.1074
277.1715, 164.9229
277.6536, 173.6582
278.1357, 192.7754
278.6178, 205.4512
279.0999, 185.5010
279.5821, 109.4902
280.0642, 67.88672
280.5463, 75.47266
281.0284, 98.69727
281.5105, 125.5811
281.9926, 151.2441
282.4748, 171.2559
282.9569, 180.0967
283.4390, 175.7510
283.9211, 167.6406
284.4032, 153.3604
284.8853, 138.0791
285.3675, 115.5586
285.8496, 91.43750
286.3317, 84.65625
286.8138, 119.7949
287.2959, 210.7832
287.7780, 265.7529
288.2602, 253.0820
288.7423, 236.5322
289.2244, 242.5918
289.7065, 269.1221
290.1886, 299.6328
290.6707, 318.9961
291.1529, 325.8604
291.6350, 338.5732
292.1171, 371.1797
292.5992, 395.9268
293.0813, 394.9951
293.5634, 377.4355
294.0456, 365.1172
294.5277, 375.0811
295.0098, 406.9561
295.4919, 442.1436
295.9740, 492.2725
296.4561, 533.5752
296.9383, 561.1602
297.4204, 575.4873
297.9025, 576.8965
298.3846, 564.1904
298.8667, 539.5957
299.3488, 521.7861
299.8310, 513.8994
300.3131, 510.1768
300.7952, 518.2373
301.2773, 527.9316
301.7594, 522.7500
302.2415, 491.7627
302.7237, 444.0293
303.2058, 414.6904
303.6879, 401.3867
304.1700, 403.9385
304.6521, 403.3115
305.1342, 399.9521
305.6164, 385.3896
306.0985, 385.4023
306.5806, 379.5586
307.0627, 373.4834
307.5448, 375.5342
308.0269, 362.5889
308.5091, 364.5020
308.9912, 360.4805
309.4733, 359.1758
309.9554, 351.7490
310.4375, 343.9688
310.9196, 351.1768
311.4018, 391.0098
311.8839, 403.8398
312.3660, 358.4766
312.8481, 303.1270
313.3302, 272.3340
313.8123, 274.2129
314.2945, 292.2324
314.7766, 304.6416
315.2587, 311.0537
315.7408, 309.1846
316.2229, 294.0137
316.7050, 271.8594
317.1872, 245.0605
317.6693, 216.8408
318.1514, 193.0713
318.6335, 173.7969
319.1156, 156.6797
319.5977, 141.0205
320.0799, 118.8672
320.5620, 106.8223
321.0441, 122.0576
321.5262, 156.7422
322.0083, 183.2686
322.4904, 174.8975
322.9726, 136.0557
323.4547, 118.0234
323.9368, 133.4365
324.4189, 151.1924
324.9010, 160.4785
325.3831, 160.6855
325.8653, 150.3652
326.3474, 128.9229
326.8295, 103.2119
327.3116, 87.75586
327.7937, 86.55664
328.2758, 85.39746
328.7580, 76.71484
329.2401, 64.17969
329.7222, 51.31934
330.2043, 41.79004
330.6864, 36.99609
331.1685, 30.10156
331.6507, 15.80273
332.1328, 11.69824
332.6149, 43.29785
333.0970, 82.11133
333.5791, 96.69141
334.0612, 73.80566
334.5434, 37.31641
335.0255, 10.27148
335.5076, 7.586914
335.9897, 11.24121
336.4718, 12.45996
336.9539, 44.44824
337.4361, 64.79395
337.9182, 70.87500
338.4003, 70.50293
338.8824, 70.23730
339.3645, 69.19043
339.8466, 58.70020
340.3288, 26.20801
340.8109, 3.077148
341.2930, 3.406250
341.7751, 46.65625
342.2572, 84.51660
342.7393, 88.71387
343.2215, 73.18066
343.7036, 72.71582
344.1857, 97.54004
344.6678, 126.2656
345.1499, 137.8281
345.6320, 134.5918
346.1142, 121.5244
346.5963, 81.69629
347.0784, 41.15918
347.5605, 40.25391
348.0426, 84.45703
348.5247, 129.4805
349.0069, 137.1953
349.4890, 111.6826
349.9711, 95.56055
350.4532, 93.79883
350.9353, 99.98926
351.4174, 108.4023
351.8996, 119.8662
352.3817, 143.4629
352.8638, 192.6514
353.3459, 255.5215
353.8280, 276.8652
354.3102, 213.0322
354.7923, 160.7617
355.2744, 170.0225
355.7565, 216.0176
356.2386, 244.1367
356.7207, 228.0400
357.2029, 190.0654
357.6850, 187.3857
358.1671, 259.2695
358.6492, 302.1787
359.1313, 283.1602
359.6134, 238.5479
360.0956, 206.7998
360.5777, 198.7861
361.0598, 205.0176
361.5419, 213.0947
362.0240, 228.3662
362.5061, 230.8350
362.9883, 209.6309
363.4704, 184.9424
363.9525, 171.9287
364.4346, 170.3711
364.9167, 167.6504
365.3988, 148.3555
365.8810, 107.0391
366.3631, 98.97852
366.8452, 169.6455
367.3273, 225.0605
367.8094, 224.1289
368.2915, 182.1689
368.7737, 133.0645
369.2558, 96.13672
369.7379, 73.53809
370.2200, 80.46094
370.7021, 160.5566
371.1842, 212.7715
371.6664, 201.3760
372.1485, 160.6797
372.6306, 128.8701
373.1127, 121.3789
373.5948, 129.9307
374.0769, 141.3740
374.5591, 161.3311
375.0412, 168.8623
375.5233, 144.0371
376.0054, 117.3828
376.4875, 112.2949
376.9696, 131.8281
377.4518, 157.6387
377.9339, 172.7744
378.4160, 177.1689
378.8981, 173.8076
379.3802, 153.2236
379.8623, 135.6982
380.3445, 138.4102
380.8266, 156.3467
381.3087, 168.8486
381.7908, 159.1523
382.2729, 134.7188
382.7550, 117.4785
383.2372, 109.9785
383.7193, 104.2783
384.2014, 94.86816
384.6835, 83.71777
385.1656, 74.37207
385.6477, 67.94043
386.1299, 63.99609
386.6120, 58.65918
387.0941, 52.18262
387.5762, 51.97656
388.0583, 61.19727
388.5404, 79.49512
389.0226, 106.3838
389.5047, 151.0645
389.9868, 184.6035
390.4689, 186.5068
390.9510, 167.1494
391.4331, 148.5215
391.9153, 136.1963
392.3974, 130.2822
392.8795, 133.7891
393.3616, 150.8213
393.8437, 158.8076
394.3258, 153.1543
394.8080, 138.4453
395.2901, 113.0361
395.7722, 79.01855
396.2543, 52.09082
396.7364, 47.39551
397.2185, 66.83984
397.7007, 85.40527
398.1828, 110.4326
398.6649, 127.3457
399.1470, 126.1631
399.6291, 112.2021
400.1112, 95.91211
400.5934, 82.53418
401.0755, 73.51074
401.5576, 74.66797
402.0397, 91.56445
402.5218, 112.5518
403.0039, 153.6094
403.4861, 189.7686
403.9682, 189.8076
404.4503, 146.3975
404.9324, 88.31836
405.4145, 58.19922
405.8966, 62.95020
406.3788, 74.20215
406.8609, 106.7646
407.3430, 132.1670
407.8251, 132.6787
408.3072, 111.2812
408.7893, 84.30566
409.2715, 56.74805
409.7536, 32.24023
410.2357, 42.81152
410.7178, 112.1748
411.1999, 177.6074
411.6820, 216.3398
412.1642, 232.2109
412.6463, 228.5215
413.1284, 202.0830
413.6105, 163.2549
414.0926, 116.8154
414.5747, 60.26562
415.0569, 33.93457
415.5390, 67.99316
416.0211, 130.6621
416.5032, 181.2676
416.9853, 220.0322
417.4674, 240.8662
417.9496, 227.1611
418.4317, 193.8633
418.9138, 181.3936
419.3959, 203.6533
419.8780, 227.0625
420.3601, 205.6494
420.8423, 137.3662
421.3244, 94.83203
421.8065, 115.1787
422.2886, 143.1758
422.7707, 119.9893
423.2528, 54.17480
423.7350, 12.08789
424.2171, 45.35059
424.6992, 141.2705
425.1813, 192.4590
425.6634, 161.4756
426.1455, 137.5283
426.6277, 144.6484
427.1098, 169.6963
427.5919, 197.4131
428.0740, 221.7354
428.5561, 238.7275
429.0382, 239.9385
429.5204, 214.5244
430.0025, 194.8721
430.4846, 189.7197
430.9667, 182.2822
431.4488, 159.2510
431.9309, 122.5449
432.4131, 85.12793
432.8952, 55.29395
433.3773, 33.73340
433.8594, 33.78418
434.3415, 75.01660
434.8236, 112.9541
435.3058, 135.3789
435.7879, 144.0312
436.2700, 140.5410
436.7521, 122.6445
437.2342, 96.31152
437.7163, 66.25293
438.1985, 29.82422
438.6806, 5.389648
439.1627, 3.963867
439.6448, 18.79688
440.1269, 47.55957
440.6090, 92.47656
441.0912, 126.8594
441.5733, 135.1738
442.0554, 120.9209
442.5375, 83.08789
443.0196, 16.10449
443.5017, 34.92188
443.9839, 18.97559
444.4660, 58.63574
444.9481, 107.8135
445.4302, 112.5391
445.9123, 97.87207
446.3944, 66.77148
446.8766, 27.62988
447.3587, 4.912109
447.8408, 12.68262
448.3229, 40.39648
448.8050, 57.44824
449.2871, 53.62598
449.7693, 52.21875
450.2514, 52.25879
450.7335, 56.06348
451.2156, 70.81445
451.6977, 95.08008
452.1798, 113.9014
452.6620, 107.4375
453.1441, 70.31836
453.6262, 48.73535
454.1083, 47.64453
454.5904, 58.60840
455.0725, 93.22852
455.5547, 136.5000
456.0368, 161.4863
456.5189, 151.0566
457.0010, 120.5703
457.4832, 103.8750
457.9653, 104.5049
458.4474, 107.5469
458.9295, 105.5342
459.4116, 106.5938
459.8937, 120.9951
460.3759, 150.4385
460.8580, 175.3447
461.3401, 176.6641
461.8222, 162.4844
462.3043, 158.5752
462.7864, 170.3096
463.2686, 185.1660
463.7507, 194.5723
464.2328, 198.4395
464.7149, 196.1582
465.1970, 179.9092
465.6791, 164.1494
466.1613, 160.6797
466.6434, 166.2812
467.1255, 169.3135
467.6076, 163.8750
468.0897, 153.5146
468.5718, 146.8564
469.0540, 139.0264
469.5361, 142.9160
470.0182, 180.8965
470.5003, 216.6055
470.9824, 206.8037
471.4645, 154.5010
471.9467, 108.5967
472.4288, 122.4707
472.9109, 199.1738
473.3930, 240.5439
473.8751, 219.6611
474.3572, 191.2080
474.8394, 158.3027
475.3215, 129.5547
475.8036, 117.1445
476.2857, 127.3525
476.7678, 149.1855
477.2499, 172.6377
477.7321, 201.0811
478.2142, 201.2305
478.6963, 144.4600
479.1784, 76.78223
479.6605, 28.12305
480.1426, 0.6699220
480.6248, 1.578125
481.1069, 43.91699
481.5890, 106.7549
482.0711, 134.9395
482.5532, 124.7832
483.0353, 106.0127
483.5175, 94.98535
483.9996, 90.86719
484.4817, 88.95996
484.9638, 98.96094
485.4459, 98.17090
485.9280, 66.69531
486.4102, 24.00488
486.8923, 0.1191410
487.3744, 2.267578
487.8565, 15.14648
488.3386, 18.26074
488.8207, 5.710938
489.3029, 4.312500
489.7850, 30.24219
490.2671, 49.26270
490.7492, 42.81641
491.2313, 18.11816
491.7134, 8.447266
492.1956, 30.38574
492.6777, 49.16602
493.1598, 69.10840
493.6419, 93.01953
494.1240, 104.2998
494.6061, 97.49414
495.0883, 77.57031
495.5704, 37.89844
496.0525, 20.08691
496.5346, 64.45410
497.0167, 64.53125
497.4988, 33.60645
497.9810, 7.442383
498.4631, 12.82812
498.9452, 21.73340
499.4273, 8.964844
499.9094, 18.78027
500.3915, 36.21387
500.8737, 34.50684
501.3558, 29.41406
501.8379, 25.11230
502.3200, 24.99121
502.8021, 39.21777
503.2842, 72.01270
503.7664, 109.7861
504.2485, 132.2373
504.7306, 136.6768
505.2127, 131.8145
505.6948, 110.5703
506.1769, 87.70410
506.6591, 65.98438
507.1412, 49.21484
507.6233, 45.47168
508.1054, 61.75488
508.5875, 89.81641
509.0696, 103.9150
509.5518, 98.90039
510.0339, 91.92480
510.5160, 79.16602
510.9981, 71.02344
511.4802, 80.19824
511.9623, 106.8389
512.4445, 130.0186
512.9266, 135.9639
513.4087, 127.0361
513.8908, 104.9736
514.3729, 66.25000
514.8550, 32.97070
515.3372, 16.18945
515.8193, 17.99902
516.3014, 40.75000
516.7835, 115.0781
517.2656, 171.9023
517.7477, 163.7520
518.2299, 121.2676
518.7120, 99.05078
519.1941, 112.5684
519.6762, 135.8428
520.1583, 134.1025
520.6404, 98.98730
521.1226, 75.80859
521.6047, 61.23438
522.0868, 59.61816
522.5689, 79.53613
523.0510, 112.6289
523.5331, 145.8779
524.0153, 173.6318
524.4974, 193.9717
524.9795, 203.7568
525.4616, 203.6572
525.9437, 189.0322
526.4258, 137.5840
526.9080, 90.13965
527.3901, 76.51172
527.8722, 94.75000
528.3543, 122.9229
528.8364, 163.2510
529.3185, 200.9951
529.8007, 211.9043
530.2828, 195.6797
530.7649, 165.5391
531.2470, 120.6348
531.7291, 72.06445
532.2112, 52.84961
532.6934, 79.60059
533.1755, 98.04590
533.6576, 92.55762
534.1397, 76.75195
534.6218, 62.10254
535.1039, 51.03711
535.5861, 42.21777
536.0682, 34.85156
536.5503, 28.75781
537.0324, 21.01367
537.5145, 2.688477
537.9966, 5.095703
538.4788, 5.321289
538.9609, 26.31934
539.4430, 54.88770
539.9251, 89.81836
540.4072, 114.2939
540.8893, 101.1250
541.3715, 56.66211
541.8536, 34.83203
542.3357, 50.32422
542.8178, 66.66992
543.2999, 50.53027
543.7820, 14.19531
544.2642, 9.973633
544.7463, 9.825195
545.2284, 4.455078
545.7105, 9.475586
546.1926, 17.26172
546.6747, 4.612305
547.1569, 36.81348
547.6390, 78.07129
548.1211, 75.98242
548.6032, 12.58887
549.0853, 23.05957
549.5674, 26.71387
550.0496, 13.85938
550.5317, 27.53320
551.0138, 77.50000
551.4959, 100.0176
551.9780, 77.02832
552.4601, 32.95312
552.9423, 9.242188
553.4244, 8.827148
553.9065, 18.49219
554.3886, 43.25586
554.8707, 64.11719
555.3528, 57.48438
555.8350, 31.18750
556.3171, 24.17773
556.7992, 72.05273
557.2813, 134.2324
557.7634, 172.9756
558.2455, 187.2158
558.7277, 173.6045
559.2098, 123.2207
559.6919, 63.02734
560.1740, 45.65234
560.6561, 100.2637
561.1382, 135.6738
561.6204, 132.3193
562.1025, 125.3438
562.5846, 142.5244
563.0667, 176.9736
563.5488, 201.7695
564.0309, 198.1328
564.5131, 178.3652
564.9952, 182.3447
565.4773, 224.7422
565.9594, 248.2354
566.4415, 216.5674
566.9236, 179.6680
567.4058, 175.5547
567.8879, 202.4102
568.3700, 224.0137
568.8521, 213.7842
569.3342, 190.5723
569.8163, 186.0098
570.2985, 199.3936
570.7806, 205.0352
571.2627, 187.3564
571.7448, 157.3945
572.2269, 142.3408
572.7090, 146.5869
573.1912, 154.7197
573.6733, 175.3398
574.1554, 193.0479
574.6375, 190.7129
575.1196, 172.0879
575.6017, 155.6699
576.0839, 155.4004
576.5660, 165.7178
577.0481, 162.7266
577.5302, 134.2119
578.0123, 121.8057
578.4944, 161.1875
578.9766, 201.2686
579.4587, 197.3271
579.9408, 150.2285
580.4229, 109.9102
580.9050, 112.5127
581.3871, 135.4648
581.8693, 138.7402
582.3514, 122.4473
582.8335, 120.2188
583.3156, 156.0625
583.7977, 208.8496
584.2798, 224.0312
584.7620, 176.3809
585.2441, 144.4951
585.7262, 141.6543
586.2083, 151.9834
586.6904, 168.5127
587.1725, 187.4414
587.6547, 203.7910
588.1368, 214.9209
588.6189, 219.2900
589.1010, 209.1602
589.5831, 176.4004
590.0652, 151.5283
590.5474, 149.4863
591.0295, 151.7422
591.5116, 141.3594
591.9937, 119.6240
592.4758, 107.9189
592.9579, 129.0547
593.4401, 158.7637
593.9222, 161.5586
594.4043, 140.4268
594.8864, 125.5811
595.3685, 134.0254
595.8506, 149.9404
596.3328, 139.5273
596.8149, 79.03809
597.2970, 39.78418
597.7791, 23.22949
598.2612, 26.10645
598.7433, 65.40723
599.2255, 122.2285
599.7076, 151.3848
600.1897, 123.9375
600.6718, 66.05566
601.1539, 34.32129
601.6360, 31.42188
602.1182, 32.97363
602.6003, 38.31641
603.0824, 45.74219
603.5645, 53.35840
604.0466, 60.81152
604.5287, 68.50195
605.0109, 86.16211
605.4930, 95.76855
605.9751, 73.59668
606.4572, 29.82910
606.9393, 3.828125
607.4214, 13.54492
607.9036, 6.028320
608.3857, 10.09277
608.8678, 39.29297
609.3499, 53.43359
609.8320, 35.51172
610.3141, 22.01953
610.7963, 27.83789
611.2784, 47.03320
611.7605, 68.51758
612.2426, 87.94336
612.7247, 108.1611
613.2068, 137.0420
613.6890, 172.6660
614.1711, 195.1211
614.6532, 200.5127
615.1353, 195.4941
615.6174, 179.1074
616.0995, 155.4141
616.5817, 143.8525
617.0638, 148.7441
617.5459, 162.1162
618.0280, 188.8086
618.5101, 218.9131
618.9922, 234.6094
619.4744, 234.3271
619.9565, 239.1562
620.4386, 276.9971
620.9207, 345.1084
621.4028, 359.0029
621.8849, 264.3584
622.3671, 205.3945
622.8492, 253.9229
623.3313, 334.6826
623.8134, 374.4541
624.2955, 360.9648
624.7776, 332.8291
625.2598, 303.9346
625.7419, 280.0117
626.2240, 273.0098
626.7061, 282.9199
627.1882, 297.7305
627.6703, 312.4033
628.1525, 325.0576
628.6346, 330.4521
629.1167, 322.5586
629.5988, 316.4766
630.0809, 319.5752
630.5630, 318.2656
631.0452, 292.4189
631.5273, 253.9668
632.0094, 239.1855
632.4915, 275.1748
632.9736, 330.5947
633.4557, 342.3877
633.9379, 307.8623
634.4200, 270.7471
634.9021, 235.9336
635.3842, 207.8809
635.8663, 196.1699
636.3484, 197.4883
636.8306, 191.0850
637.3127, 160.1758
637.7948, 134.9385
638.2769, 142.4600
638.7590, 165.4551
639.2411, 170.7461
639.7233, 150.4033
640.2054, 122.7480
640.6875, 109.1113
641.1696, 109.9785
641.6517, 127.7188
642.1339, 183.1816
642.6160, 221.1133
643.0981, 217.8008
643.5802, 192.5635
644.0623, 162.6777
644.5444, 130.0850
645.0266, 109.4561
645.5087, 114.0391
645.9908, 135.1963
646.4729, 163.6494
646.9550, 197.1885
647.4371, 224.5723
647.9193, 241.0303
648.4014, 244.2656
648.8835, 226.0693
649.3656, 152.1309
649.8477, 113.1016
650.3298, 135.8418
650.8120, 167.1484
651.2941, 181.7842
651.7762, 180.5508
652.2583, 169.6836
652.7404, 147.0137
653.2225, 130.2930
653.7047, 161.2373
654.1868, 234.3086
654.6689, 264.6738
655.1510, 222.5059
655.6331, 167.0176
656.1152, 151.9355
656.5974, 175.8076
657.0795, 197.9678
657.5616, 220.7539
658.0437, 239.8926
658.5258, 251.5156
659.0079, 260.0605
659.4901, 272.9219
659.9722, 290.5273
660.4543, 303.8008
660.9364, 302.4854
661.4185, 289.1729
661.9006, 280.6035
662.3828, 277.9424
662.8649, 276.6133
663.3470, 273.6484
663.8291, 272.6318
664.3112, 279.3174
664.7933, 294.4863
665.2755, 305.6572
665.7576, 310.7754
666.2397, 309.5928
666.7218, 299.6621
667.2039, 282.7188
667.6860, 262.3438
668.1682, 240.1504
668.6503, 220.0938
669.1324, 207.6094
669.6145, 201.7188
670.0966, 208.4268
670.5787, 239.8389
671.0609, 268.1260
671.5430, 287.6963
672.0251, 295.7275
672.5072, 284.5439
672.9893, 246.5977
673.4714, 213.7246
673.9536, 209.2764
674.4357, 222.2393
674.9178, 240.3857
675.3999, 260.4229
675.8820, 268.2842
676.3641, 252.5059
676.8463, 223.5469
677.3284, 215.9902
677.8105, 246.7764
678.2926, 267.2627
678.7747, 275.3018
679.2568, 274.1953
679.7390, 260.4609
680.2211, 239.1113
680.7032, 222.6807
681.1853, 220.6758
681.6674, 216.3936
682.1495, 182.5850
682.6317, 130.7236
683.1138, 102.7510
683.5959, 107.6963
684.0780, 123.2656
684.5601, 130.8779
685.0422, 131.7090
685.5244, 138.4385
686.0065, 167.1299
686.4886, 180.4961
686.9707, 166.7490
687.4528, 142.3848
687.9349, 117.1445
688.4171, 94.03516
688.8992, 75.96387
689.3813, 63.23730
689.8634, 58.17871
690.3455, 71.30762
690.8276, 100.0332
691.3098, 112.8047
691.7919, 97.31934
692.2740, 75.74707
692.7561, 76.34668
693.2382, 102.0176
693.7203, 100.4531
694.2025, 38.64648
694.6846, 7.872070
695.1667, 2.300781
695.6488, 20.45508
696.1309, 19.36816
696.6130, 10.59766
697.0952, 42.00781
697.5773, 50.19238
698.0594, 43.28223
698.5415, 45.67578
699.0236, 58.08984
699.5057, 60.76855
699.9879, 44.05371
700.4700, 18.54004
700.9521, 2.830078
701.4342, 20.48926
701.9163, 30.52344
702.3984, 26.40332
702.8806, 21.81934
703.3627, 19.60156
703.8448, 21.73926
704.3269, 30.69336
704.8090, 46.95117
705.2911, 68.04199
705.7733, 104.9062
706.2554, 146.2412
706.7375, 128.1445
707.2196, 39.21973
707.7017, 20.59863
708.1838, 2.841797
708.6660, 64.05078
709.1481, 86.80762
709.6302, 62.23438
710.1123, 44.78613
710.5944, 43.69141
711.0765, 45.04785
711.5587, 44.53906
712.0408, 40.68750
712.5229, 28.93457
713.0050, 8.643555
713.4871, 7.800781
713.9692, 2.5390999E-02
714.4514, 25.72559
714.9335, 30.79980
715.4156, 10.46875
715.8977, 7.315430
716.3798, 10.20410
716.8619, 2.583008
717.3441, 7.395508
717.8262, 18.45898
718.3083, 36.19336
718.7904, 74.63770
719.2725, 106.2705
719.7546, 112.2734
720.2368, 101.7070
720.7189, 90.83105
721.2010, 85.45117
721.6831, 81.50488
722.1652, 75.04199
722.6473, 66.04395
723.1295, 50.90332
723.6116, 26.84570
724.0937, 18.92383
724.5758, 46.33984
725.0579, 89.68652
725.5400, 106.9629
726.0222, 86.66699
726.5043, 76.83691
726.9864, 82.88965
727.4685, 97.15723
727.9506, 133.3604
728.4327, 169.7363
728.9149, 161.9570
729.3970, 95.54785
729.8791, 26.93457
730.3612, 22.83398
730.8433, 68.42285
731.3254, 111.1562
731.8076, 149.4766
732.2897, 171.2500
732.7718, 167.1465
733.2539, 147.4922
733.7360, 130.5361
734.2181, 111.0273
734.7003, 109.6924
735.1824, 147.7393
735.6645, 181.2002
736.1466, 186.8389
736.6287, 175.5293
737.1108, 164.1191
737.5930, 157.7568
738.0751, 154.1387
738.5572, 148.5137
739.0393, 144.4590
739.5214, 153.0830
740.0035, 174.5898
740.4857, 198.0488
740.9678, 218.6494
741.4499, 238.3418
741.9320, 263.8877
742.4141, 308.8037
742.8962, 312.7764
743.3784, 226.3555
743.8605, 158.2295
744.3426, 154.5312
744.8247, 186.4805
745.3068, 222.5762
745.7889, 254.9619
746.2711, 270.2646
746.7532, 238.6514
747.2353, 193.8857
747.7174, 200.8770
748.1995, 251.5957
748.6816, 283.3350
749.1638, 269.0283
749.6459, 237.3564
750.1280, 232.1055
750.6101, 259.2725
751.0922, 271.0059
751.5743, 249.6172
752.0565, 236.6807
752.5386, 255.6201
753.0207, 281.1367
753.5028, 277.3740
753.9849, 240.9922
754.4670, 221.1553
754.9492, 258.8867
755.4313, 309.3027
755.9134, 328.8193
756.3955, 323.3428
756.8776, 312.5244
757.3597, 303.6045
757.8419, 293.3525
758.3240, 274.1768
758.8061, 247.4180
759.2882, 247.6982
759.7703, 292.9756
760.2524, 315.9297
760.7346, 279.7480
761.2167, 228.1924
761.6988, 204.8496
762.1809, 208.4834
762.6630, 212.5068
763.1451, 204.0059
763.6273, 204.0869
764.1094, 229.3213
764.5915, 262.3760
765.0736, 292.6650
765.5557, 313.4521
766.0378, 307.9795
766.5200, 245.5264
767.0021, 151.1621
767.4842, 114.9639
767.9663, 141.2080
768.4484, 174.8008
768.9305, 203.1924
769.4127, 229.1816
769.8948, 264.0918
770.3769, 303.7822
770.8590, 295.4727
771.3411, 183.9736
771.8232, 100.2842
772.3054, 85.65625
772.7875, 97.91406
773.2696, 105.1592
773.7517, 102.0713
774.2338, 98.24707
774.7159, 99.04785
775.1981, 99.74707
775.6802, 89.70605
776.1623, 73.70410
776.6444, 73.30078
777.1265, 92.11816
777.6086, 109.2285
778.0908, 109.5293
778.5729, 97.73828
779.0550, 91.15527
779.5371, 100.5977
780.0192, 93.98828
780.5013, 46.21387
780.9835, 7.127930
781.4656, 2.875977
781.9477, 22.92773
782.4298, 47.52344
782.9119, 74.06738
783.3940, 103.6133
783.8762, 147.9502
784.3583, 183.0771
784.8404, 170.1338
785.3225, 121.9707
785.8046, 89.35059
786.2867, 95.50586
786.7689, 117.6943
787.2510, 121.8213
787.7331, 106.2051
788.2152, 91.87891
788.6973, 73.73730
789.1794, 72.83301
789.6616, 117.5010
790.1437, 171.0869
790.6258, 171.4717
791.1079, 109.7949
791.5900, 69.57715
792.0721, 81.88281
792.5543, 99.93945
793.0364, 93.41895
793.5185, 76.89941
794.0006, 75.58008
794.4827, 92.61133
794.9648, 106.8301
795.4470, 95.30859
795.9291, 72.34375
796.4112, 71.57715
796.8933, 90.40137
797.3754, 104.1250
797.8575, 106.1553
798.3397, 100.3926
798.8218, 89.29102
799.3039, 73.50879
799.7860, 62.98438
800.2681, 55.21387
800.7502, 57.09277
801.2324, 81.44434
801.7145, 104.4170
802.1966, 108.6826
802.6787, 97.97949
803.1608, 85.41895
803.6429, 70.10938
804.1251, 64.06641
804.6072, 84.97266
805.0893, 114.7129
805.5714, 126.6152
806.0535, 121.0674
806.5356, 115.4404
807.0178, 119.9209
807.4999, 127.3838
807.9820, 125.2295
808.4641, 113.3154
808.9462, 92.19727
809.4283, 56.26465
809.9105, 28.66602
810.3926, 22.01953
810.8747, 30.64355
811.3568, 46.23633
811.8389, 75.31738
812.3210, 88.34863
812.8032, 64.20801
813.2853, 45.35059
813.7674, 60.80859
814.2495, 88.30566
814.7316, 97.25781
815.2137, 81.73047
815.6959, 58.13770
816.1780, 28.40820
816.6601, 3.924805
817.1422, 8.067383
817.6243, 32.44434
818.1064, 45.69531
818.5886, 39.25977
819.0707, 30.04688
819.5528, 36.77246
820.0349, 54.40723
820.5170, 43.91797
820.9991, 13.79297
821.4813, 43.22559
821.9634, 10.22168
822.4455, 29.99707
822.9276, 27.95508
823.4097, 0.9775390
823.8918, 6.356445
824.3740, 41.51855
824.8561, 71.59473
825.3382, 37.65039
825.8203, 0.7275390
826.3024, 18.33398
826.7845, 74.44922
827.2667, 106.4854
827.7488, 87.58008
828.2310, 49.79004
828.7131, 24.56934
829.1952, 9.406250
829.6773, 5.583984
830.1594, 19.97266
830.6415, 14.60840
831.1237, 22.46680
831.6058, 66.18359
832.0879, 78.03613
832.5700, 54.25879
833.0521, 36.87793
833.5342, 26.19629
834.0164, 21.46191
834.4985, 20.45898
834.9806, 27.13770
835.4627, 55.35254
835.9448, 100.6152
836.4269, 119.3350
836.9091, 77.26172
837.3912, 34.63770
837.8733, 20.16797
838.3554, 19.83008
838.8375, 23.12891
839.3196, 25.07910
839.8018, 14.50977
840.2839, 19.90625
840.7660, 56.56934
841.2481, 57.21973
841.7302, 31.23047
842.2123, 21.50293
842.6945, 33.08887
843.1766, 37.49707
843.6587, 16.78320
844.1408, 16.27148
844.6229, 35.00586
845.1050, 35.87695
845.5872, 35.83496
846.0693, 32.66992
846.5514, 31.72559
847.0335, 37.14551
847.5156, 44.64453
847.9977, 52.60059
848.4799, 61.05176
848.9620, 56.12109
849.4441, 11.89746
849.9262, 21.83301
850.4083, 6.846680
850.8904, 28.56934
851.3726, 47.86523
851.8547, 47.46875
852.3368, 47.47363
852.8189, 64.72266
853.3010, 82.05176
853.7831, 59.33594
854.2653, 11.78613
854.7474, 10.06152
855.2295, 64.04785
855.7116, 111.0283
856.1937, 109.3809
856.6758, 79.35352
857.1580, 71.46582
857.6401, 95.22656
858.1222, 106.7461
858.6043, 98.51367
859.0864, 90.19531
859.5685, 89.42480
860.0507, 93.52734
860.5328, 101.6484
861.0149, 114.9941
861.4970, 118.5879
861.9791, 99.21680
862.4612, 81.67480
862.9434, 77.56738
863.4255, 83.19238
863.9076, 96.98926
864.3897, 116.2441
864.8718, 132.8604
865.3539, 142.4404
865.8361, 146.2031
866.3182, 140.0332
866.8003, 130.2441
867.2824, 132.6533
867.7645, 148.9189
868.2466, 177.9229
868.7288, 222.3779
869.2109, 263.9678
869.6930, 256.0947
870.1751, 190.6865
870.6572, 150.9043
871.1393, 141.9580
871.6215, 153.3242
872.1036, 189.3877
872.5857, 234.7002
873.0678, 265.2822
873.5499, 279.6738
874.0320, 286.3711
874.5142, 281.9111
874.9963, 273.8076
875.4784, 262.5371
875.9605, 249.6162
876.4426, 233.5635
876.9247, 216.6875
877.4069, 209.2168
877.8890, 222.2822
878.3711, 233.5654
878.8532, 215.5127
879.3353, 188.8184
879.8174, 185.2363
880.2996, 204.7988
880.7817, 236.0264
881.2638, 273.6943
881.7459, 306.2588
882.2280, 315.2764
882.7101, 303.1299
883.1923, 288.2510
883.6744, 269.2139
884.1565, 273.3271
884.6386, 313.8896
885.1207, 366.6621
885.6028, 406.7949
886.0850, 434.4697
886.5671, 413.7109
887.0492, 299.1475
887.5313, 218.4297
888.0134, 212.0225
888.4955, 230.9414
888.9777, 248.1289
889.4598, 262.0361
889.9419, 275.3770
890.4240, 293.8076
890.9061, 300.9336
891.3882, 275.3184
891.8704, 252.4844
892.3525, 269.6465
892.8346, 305.6904
893.3167, 316.3232
893.7988, 288.8604
894.2809, 256.1260
894.7631, 247.2910
895.2452, 246.0889
895.7273, 222.1016
896.2094, 186.5879
896.6915, 178.3818
897.1736, 204.2227
897.6558, 227.5352
898.1379, 213.8164
898.6200, 176.1318
899.1021, 156.8047
899.5842, 158.1074
900.0663, 154.7549
900.5485, 139.9199
901.0306, 130.3340
901.5127, 140.6094
901.9948, 160.3076
902.4769, 162.4746
902.9590, 137.6777
903.4412, 126.7080
903.9233, 132.4053
904.4054, 148.5156
904.8875, 197.6621
905.3696, 239.5811
905.8517, 222.7920
906.3339, 150.6719
906.8160, 93.93555
907.2981, 68.84570
907.7802, 61.25977
908.2623, 78.71387
908.7444, 105.6934
909.2266, 131.6201
909.7087, 152.6953
910.1908, 162.2617
910.6729, 155.5811
911.1550, 149.2217
911.6371, 167.1533
912.1193, 190.5000
912.6014, 180.4160
913.0835, 146.1895
913.5656, 131.0625
914.0477, 148.9561
914.5298, 171.3076
915.0120, 166.7393
915.4941, 141.6465
915.9762, 118.6064
916.4583, 97.61914
916.9404, 87.42285
917.4225, 92.73047
917.9047, 94.65039
918.3868, 76.25781
918.8689, 47.04199
919.3510, 36.15430
919.8331, 24.05078
920.3152, 61.31055
920.7974, 76.79199
921.2795, 9.201172
921.7616, 45.85840
922.2437, 38.89160
922.7258, 28.87012
923.2079, 76.42969
923.6901, 14.14062
924.1722, 58.12891
924.6543, 57.84961
925.1364, 75.91504
925.6185, 50.10254
926.1006, 36.12305
926.5828, 63.40430
927.0649, 65.79590
927.5470, 29.81836
928.0291, 41.23926
928.5112, 35.69629
928.9933, 37.57324
929.4755, 7.823242
929.9576, 9.085938
930.4397, 29.07422
930.9218, 42.05469
931.4039, 55.48242
931.8860, 81.95703
932.3682, 110.1572
932.8503, 108.3789
933.3324, 83.00781
933.8145, 70.98438
934.2966, 79.46680
934.7787, 80.58105
935.2609, 50.79297
935.7430, 12.54688
936.2251, 32.08496
936.7072, 121.2793
937.1893, 151.7295
937.6714, 99.37305
938.1536, 56.44043
938.6357, 66.31738
939.1178, 96.09766
939.5999, 101.3955
940.0820, 80.66895
940.5641, 66.80664
941.0463, 64.71582
941.5284, 62.05078
942.0105, 55.33789
942.4926, 49.24414
942.9747, 46.83008
943.4568, 47.33301
943.9390, 49.94824
944.4211, 58.68359
944.9032, 57.38086
945.3853, 19.33496
945.8674, 5.972656
946.3495, 26.36621
946.8317, 81.76074
947.3138, 111.2422
947.7959, 107.9043
948.2780, 98.44629
948.7601, 97.01562
949.2422, 95.66699
949.7244, 80.23730
950.2065, 64.73633
950.6886, 82.79492
951.1707, 122.6416
951.6528, 123.5693
952.1349, 54.23828
952.6171, 14.24512
953.0992, 20.86230
953.5813, 115.7539
954.0634, 164.6680
954.5455, 168.7744
955.0276, 143.8984
955.5098, 95.61914
955.9919, 55.59863
956.4740, 56.29980
956.9561, 82.51953
957.4382, 82.17871
957.9203, 53.83984
958.4025, 35.53125
958.8846, 31.56055
959.3667, 39.68555
959.8488, 64.51562
960.3309, 88.87793
960.8130, 78.46777
961.2952, 26.18652
961.7773, 8.663086
962.2594, 46.53027
962.7415, 77.39648
963.2236, 87.21094
963.7057, 84.77441
964.1879, 70.40527
964.6700, 48.83594
965.1521, 42.13281
965.6342, 58.10352
966.1163, 74.57520
966.5984, 96.67676
967.0806, 111.4463
967.5627, 113.5947
968.0448, 104.4111
968.5269, 77.56445
969.0090, 34.38574
969.4911, 13.75000
969.9733, 41.65625
970.4554, 78.21582
970.9375, 117.1738
971.4196, 146.2881
971.9017, 145.5449
972.3839, 125.5713
972.8660, 117.0908
973.3481, 132.4326
973.8302, 151.7070
974.3123, 167.8613
974.7944, 174.4072
975.2766, 154.7490
975.7587, 122.6416
976.2408, 109.0713
976.7229, 117.5498
977.2050, 121.5166
977.6871, 100.5537
978.1693, 74.99707
978.6514, 79.46777
979.1335, 103.6514
979.6156, 122.8252
980.0977, 134.1006
980.5798, 135.1680
981.0620, 125.0371
981.5441, 113.6797
982.0262, 114.4824
982.5083, 112.5498
982.9904, 112.9990
983.4725, 121.7842
983.9547, 123.9443
984.4368, 137.5605
984.9189, 158.9453
985.4010, 188.4111
985.8831, 217.1768
986.3652, 219.1904
986.8474, 190.1855
987.3295, 176.6836
987.8116, 183.2158
988.2937, 186.9785
988.7758, 177.7988
989.2579, 168.5176
989.7401, 175.6533
990.2222, 165.2158
990.7043, 156.0068
991.1864, 159.6924
991.6685, 137.6201
992.1506, 140.9941
992.6328, 146.4502
993.1149, 142.3223
993.5970, 133.5439
994.0791, 126.3291
994.5612, 119.8203
995.0433, 121.9727
995.5255, 151.5156
996.0076, 164.7598
996.4897, 131.8701
996.9718, 98.17773
997.4539, 101.5664
997.9360, 130.3887
998.4182, 152.4531
998.9003, 164.5020
999.3824, 162.4971
999.8645, 125.9092
1000.347, 95.87207
1000.829, 102.2236
1001.311, 122.9854
1001.793, 132.9170
1002.275, 129.2188
1002.757, 118.5469
1003.239, 96.43066
1003.721, 82.29590
1004.204, 91.45117
1004.686, 110.1113
1005.168, 132.8809
1005.650, 152.4121
1006.132, 154.9619
1006.614, 138.4521
1007.096, 119.9971
1007.578, 112.7559
1008.060, 107.4990
1008.543, 90.27832
1009.025, 71.58594
1009.507, 66.78223
1009.989, 76.86328
1010.471, 101.2637
1010.953, 140.1885
1011.435, 172.2041
1011.917, 173.3262
1012.400, 153.3281
1012.882, 124.2754
1013.364, 91.59766
1013.846, 67.61719
1014.328, 55.42285
1014.810, 57.62500
1015.292, 77.25293
1015.774, 104.1143
1016.256, 127.8037
1016.739, 144.7822
1017.221, 139.4023
1017.703, 113.4932
1018.185, 80.49902
1018.667, 45.38965
1019.149, 23.66016
1019.631, 35.02832
1020.113, 12.86035
1020.596, 57.40918
1021.078, 19.07422
1021.560, 9.116211
1022.042, 36.24121
1022.524, 56.88672
1023.006, 51.42383
1023.488, 32.72070
1023.970, 14.28125
1024.452, 1.512695
1024.935, 8.348633
1025.417, 48.02344
1025.899, 71.26562
1026.381, 67.48828
1026.863, 52.42578
1027.345, 33.66797
1027.827, 19.11816
1028.309, 26.50293
1028.792, 58.20801
1029.274, 69.42578
1029.756, 52.45312
1030.238, 45.28418
1030.720, 62.61816
1031.202, 75.77051
1031.684, 62.03125
1032.166, 33.26074
1032.648, 20.83984
1033.130, 28.93848
1033.613, 38.48047
1034.095, 47.42578
1034.577, 64.78418
1035.059, 103.7178
1035.541, 134.8154
1036.023, 130.6973
1036.505, 97.58496
1036.987, 67.48047
1037.470, 34.03223
1037.952, 16.12109
1038.434, 30.39258
1038.916, 36.21094
1039.398, 0.9179690
1039.880, 37.74121
1040.362, 29.33301
1040.844, 23.66406
1041.327, 62.87598
1041.809, 101.3398
1042.291, 107.6436
1042.773, 39.40527
1043.255, 14.57129
1043.737, 1.758789
1044.219, 46.60254
1044.701, 61.02539
1045.183, 40.37891
1045.666, 39.87598
1046.148, 87.80469
1046.630, 122.2061
1047.112, 127.4648
1047.594, 119.9062
1048.076, 101.1885
1048.558, 80.05322
1049.040, 72.96338
1049.522, 83.87842
1050.005, 91.23193
1050.487, 87.49805
1050.969, 86.23486
1051.451, 93.74609
1051.933, 99.07812
1052.415, 106.3433
1052.897, 110.9580
1053.379, 98.55225
1053.862, 60.69727
1054.344, 33.02295
1054.826, 33.42920
1055.308, 34.47607
1055.790, 22.37988
1056.272, 6.580078
1056.754, 8.392090
1057.236, 18.40771
1057.719, 11.49902
1058.201, 21.82031
1058.683, 50.82764
1059.165, 65.62891
1059.647, 74.07764
1060.129, 82.33154
1060.611, 85.79492
1061.093, 75.28174
1061.575, 53.31592
1062.057, 35.76953
1062.540, 24.76953
1063.022, 24.50439
1063.504, 53.71094
1063.986, 76.51660
1064.468, 57.46387
1064.950, 23.67822
1065.432, 13.28320
1065.914, 28.29248
1066.397, 45.22217
1066.879, 61.31738
1067.361, 67.47852
1067.843, 53.89258
1068.325, 34.94580
1068.807, 11.54248
1069.289, 5.131348
1069.771, 7.148926
1070.254, 46.26221
1070.736, 68.86816
1071.218, 43.61523
1071.700, 20.92236
1072.182, 26.97656
1072.664, 44.00342
1073.146, 62.41992
1073.628, 75.88574
1074.110, 77.99902
1074.593, 68.11816
1075.075, 52.46533
1075.557, 21.33545
1076.039, 1.091309
1076.521, 21.37354
1077.003, 42.95459
1077.485, 14.20215
1077.967, 31.16943
1078.450, 17.90576
1078.932, 64.52197
1079.414, 120.8569
1079.896, 87.69238
1080.378, 45.88721
1080.860, 35.10938
1081.342, 33.62549
1081.824, 21.29346
1082.307, 3.217773
1082.789, 11.35010
1083.271, 20.00732
1083.753, 7.445313
1084.235, 57.58936
1084.717, 114.2388
1085.199, 131.5347
1085.681, 127.0322
1086.163, 113.5029
1086.646, 91.95947
1087.128, 54.07910
1087.610, 2.490723
1088.092, 36.62256
1088.574, 15.25000
1089.056, 12.32959
1089.538, 25.62402
1090.020, 31.72852
1090.502, 39.12744
1090.985, 44.21387
1091.467, 33.24805
1091.949, 1.867676
1092.431, 13.94727
1092.913, 16.79004
1093.395, 43.21436
1093.877, 35.78369
1094.359, 19.86035
1094.842, 12.73730
1095.324, 16.46240
1095.806, 37.28076
1096.288, 79.69482
1096.770, 97.90283
1097.252, 51.30615
1097.734, 10.51270
1098.216, 14.47754
1098.698, 30.52148
1099.181, 32.33643
1099.663, 22.43164
1100.145, 6.086426
1100.627, 18.93604
1101.109, 21.40869
1101.591, 36.36182
1102.073, 79.60645
1102.555, 73.39551
1103.037, 54.19482
1103.520, 47.92969
1104.002, 50.91016
1104.484, 51.16992
1104.966, 46.36572
1105.448, 45.35010
1105.930, 38.48633
1106.412, 50.83643
1106.894, 135.4336
1107.377, 196.8706
1107.859, 131.2710
1108.341, 4.781250
1108.823, 37.54736
1109.305, 30.15674
1109.787, 74.63477
1110.269, 68.28271
1110.751, 60.87939
1111.234, 64.75928
1111.716, 68.05566
1112.198, 60.07812
1112.680, 47.31934
1113.162, 42.43750
1113.644, 46.47314
1114.126, 52.96973
1114.608, 62.11084
1115.090, 72.52002
1115.573, 88.41943
1116.055, 102.1641
1116.537, 116.0903
1117.019, 121.5537
1117.501, 98.18994
1117.983, 41.57471
1118.465, 8.457520
1118.947, 4.924805
1119.429, 13.34912
1119.912, 42.76172
1120.394, 62.90674
1120.876, 51.43408
1121.358, 27.72119
1121.840, 23.72266
1122.322, 39.55566
1122.804, 46.56250
1123.286, 39.17871
1123.769, 42.84229
1124.251, 68.18896
1124.733, 88.90625
1125.215, 92.68604
1125.697, 83.92334
1126.179, 66.14209
1126.661, 42.37158
1127.143, 58.33740
1127.625, 124.8623
1128.108, 155.9380
1128.590, 139.1953
1129.072, 101.0767
1129.554, 49.18945
1130.036, 3.239746
1130.518, 8.047852
1131.000, 46.51270
1131.482, 62.06982
1131.964, 54.07031
1132.447, 46.94580
1132.929, 49.55566
1133.411, 74.06445
1133.893, 126.0703
1134.375, 160.0732
1134.857, 116.2603
1135.339, 38.56494
1135.821, 21.42676
1136.304, 52.98926
1136.786, 87.67334
1137.268, 119.6660
1137.750, 138.5259
1138.232, 135.4014
1138.714, 133.9946
1139.196, 156.5322
1139.678, 177.1201
1140.161, 141.9766
1140.643, 80.88086
1141.125, 69.57080
1141.607, 101.8506
1142.089, 129.5513
1142.571, 134.7090
1143.053, 127.8564
1143.535, 113.1343
1144.017, 99.72070
1144.500, 100.6660
1144.982, 106.2090
1145.464, 108.3936
1145.946, 114.8110
1146.428, 103.6333
1146.910, 79.42188
1147.392, 72.74023
1147.874, 103.3638
1148.356, 130.9131
1148.839, 117.7544
1149.321, 93.29102
1149.803, 77.96338
1150.285, 67.57227
1150.767, 69.84180
1151.249, 81.36963
1151.731, 89.02148
1152.213, 92.07617
1152.696, 102.8984
1153.178, 155.8384
1153.660, 185.8291
1154.142, 129.0337
1154.624, 59.09131
1155.106, 45.38623
1155.588, 69.54834
1156.070, 78.81201
1156.552, 76.15576
1157.035, 72.56152
1157.517, 81.21973
1157.999, 77.91553
1158.481, 29.88574
1158.963, 9.109375
1159.445, 11.20703
1159.927, 58.83350
1160.409, 84.29980
1160.891, 85.89551
1161.374, 87.42627
1161.856, 88.56104
1162.338, 93.24512
1162.820, 109.4575
1163.302, 115.4048
1163.784, 94.57715
1164.266, 69.37695
1164.748, 70.24512
1165.231, 90.32129
1165.713, 79.22217
1166.195, 22.14551
1166.677, 7.999023
1167.159, 52.16650
1167.641, 82.48389
1168.123, 71.20996
1168.605, 55.95898
1169.088, 73.75928
1169.570, 106.8945
1170.052, 107.4541
1170.534, 71.41455
1171.016, 55.08545
1171.498, 50.70654
1171.980, 35.96777
1172.462, 6.634277
1172.944, 8.719727
1173.427, 10.11133
1173.909, 35.60059
1174.391, 17.08398
1174.873, 43.31689
1175.355, 2.046387
1175.837, 55.17676
1176.319, 71.48242
1176.801, 48.70215
1177.283, 20.56641
1177.766, 27.00293
1178.248, 39.16602
1178.730, 37.49707
1179.212, 30.99805
1179.694, 24.98730
1180.176, 18.11279
1180.658, 7.803711
1181.140, 0.0000000E+00
##END=



