##NAMES=Shandite
##RRUFFID=R070090
##IDEAL CHEMISTRY=Pb_2_Ni_3_S_2_
##LOCALITY=Nickel Reward mine, Tasmania, Australia
##OWNER=RRUFF
##SOURCE=Michael Scott
##DESCRIPTION=Bright silver metallic blebs in serpentinite, chonchoidal fracture
##STATUS=The identification of this mineral is not yet confirmed.
##URL=rruff.info/R070090
169.0396, 0.0000000E+00
169.5217, 13.71191
170.0038, 16.20312
170.4860, 8.210693
170.9681, 0.9274900
171.4502, 5.451904
171.9323, 22.32837
172.4144, 40.76343
172.8965, 56.59985
173.3787, 63.55420
173.8608, 70.25635
174.3429, 83.89429
174.8250, 88.91162
175.3071, 76.02881
175.7892, 51.07983
176.2714, 27.97241
176.7535, 18.24512
177.2356, 22.77466
177.7177, 25.69922
178.1998, 24.04883
178.6819, 23.84717
179.1641, 29.89368
179.6462, 41.31274
180.1283, 49.46240
180.6104, 48.15234
181.0925, 39.89062
181.5746, 35.95349
182.0567, 32.66614
182.5389, 30.36316
183.0210, 32.72290
183.5031, 40.05566
183.9852, 47.35400
184.4673, 50.82764
184.9494, 51.42041
185.4316, 51.43542
185.9137, 51.66235
186.3958, 51.93701
186.8779, 51.64563
187.3600, 51.17896
187.8421, 51.23438
188.3243, 53.13928
188.8064, 56.19092
189.2885, 54.50464
189.7706, 39.99268
190.2527, 28.90979
190.7348, 33.85522
191.2170, 48.01233
191.6991, 53.02612
192.1812, 47.74487
192.6633, 36.30005
193.1454, 28.59204
193.6275, 22.69202
194.1097, 23.56238
194.5918, 32.54785
195.0739, 49.84351
195.5560, 75.00439
196.0381, 110.1888
196.5202, 148.2332
197.0024, 166.7117
197.4845, 164.2798
197.9666, 155.7559
198.4487, 139.9055
198.9308, 122.5332
199.4129, 100.3904
199.8951, 74.92505
200.3772, 52.92224
200.8593, 53.10669
201.3414, 73.22131
201.8235, 88.35840
202.3056, 92.70215
202.7878, 91.04382
203.2699, 90.11987
203.7520, 93.57153
204.2341, 99.27356
204.7162, 102.2441
205.1983, 101.9502
205.6805, 102.3153
206.1626, 107.1715
206.6447, 113.4761
207.1268, 116.0393
207.6089, 113.5889
208.0910, 106.6884
208.5732, 94.12012
209.0553, 73.94055
209.5374, 59.72241
210.0195, 60.98334
210.5016, 66.67932
210.9837, 60.40558
211.4659, 37.72766
211.9480, 11.29584
212.4301, 3.990234
212.9122, 8.056152
213.3943, 4.549377
213.8764, 13.85614
214.3586, 36.42847
214.8407, 50.31152
215.3228, 53.49353
215.8049, 52.33307
216.2870, 53.72583
216.7691, 57.78406
217.2513, 56.27606
217.7334, 41.21332
218.2155, 24.73041
218.6976, 20.19427
219.1797, 28.51154
219.6618, 37.82990
220.1440, 37.52893
220.6261, 27.48743
221.1082, 19.44629
221.5903, 14.36932
222.0724, 11.09717
222.5546, 9.285217
223.0367, 8.496277
223.5188, 7.372009
224.0009, 5.340637
224.4830, 2.250122
224.9651, 3.057434
225.4473, 14.82343
225.9294, 25.31293
226.4115, 28.20911
226.8936, 18.45905
227.3757, 10.72247
227.8578, 10.28888
228.3400, 14.70148
228.8221, 14.02625
229.3042, 2.944336
229.7863, 7.683472
230.2684, 14.77582
230.7505, 17.87238
231.2327, 14.25787
231.7148, 0.5563960
232.1969, 17.76074
232.6790, 24.12933
233.1611, 14.35400
233.6432, 2.917480
234.1254, 7.765076
234.6075, 16.82965
235.0896, 21.60596
235.5717, 20.23920
236.0538, 16.85455
236.5359, 21.06201
237.0181, 37.90002
237.5002, 48.59058
237.9823, 43.84100
238.4644, 32.83051
238.9465, 28.11029
239.4286, 33.33759
239.9108, 42.36646
240.3929, 45.87927
240.8750, 40.55219
241.3571, 42.01483
241.8392, 59.19696
242.3213, 79.29266
242.8035, 89.37683
243.2856, 87.64447
243.7677, 81.93268
244.2498, 80.23523
244.7319, 83.72223
245.2140, 85.34717
245.6962, 81.22211
246.1783, 78.32141
246.6604, 82.74213
247.1425, 93.77283
247.6246, 105.2454
248.1067, 112.6617
248.5889, 115.9380
249.0710, 115.7771
249.5531, 104.7540
250.0352, 97.92065
250.5173, 104.2205
250.9994, 120.5438
251.4816, 138.3958
251.9637, 153.2497
252.4458, 165.0502
252.9279, 172.1830
253.4100, 172.4965
253.8921, 171.3690
254.3743, 169.0918
254.8564, 166.2401
255.3385, 163.4700
255.8206, 161.0675
256.3027, 159.2545
256.7849, 158.6433
257.2670, 165.3039
257.7491, 165.4885
258.2312, 151.3646
258.7133, 134.0070
259.1954, 125.7530
259.6776, 130.0640
260.1597, 140.1904
260.6418, 145.4752
261.1239, 143.4228
261.6060, 141.0695
262.0881, 137.9915
262.5703, 134.9468
263.0524, 131.8498
263.5345, 129.0264
264.0166, 127.6570
264.4987, 129.4843
264.9808, 135.8441
265.4630, 138.7216
265.9451, 134.7453
266.4272, 130.8551
266.9093, 128.8562
267.3914, 129.3740
267.8735, 133.6566
268.3557, 143.6405
268.8378, 158.6748
269.3199, 166.3101
269.8020, 160.4732
270.2841, 152.0071
270.7662, 140.8270
271.2484, 129.8065
271.7305, 122.6670
272.2126, 120.6900
272.6947, 123.0417
273.1768, 128.5534
273.6589, 144.1913
274.1411, 151.1385
274.6232, 140.6417
275.1053, 124.3281
275.5874, 112.6334
276.0695, 108.9680
276.5516, 110.6443
277.0338, 113.9265
277.5159, 119.4214
277.9980, 124.4975
278.4801, 132.0786
278.9622, 136.6281
279.4443, 132.7218
279.9265, 120.7898
280.4086, 107.9904
280.8907, 101.7094
281.3728, 102.2651
281.8549, 102.1815
282.3370, 99.00482
282.8192, 97.34491
283.3013, 101.0106
283.7834, 107.9522
284.2655, 112.7587
284.7476, 111.7814
285.2297, 106.3187
285.7119, 101.4239
286.1940, 97.71570
286.6761, 92.64783
287.1582, 81.77408
287.6403, 70.03943
288.1224, 65.41559
288.6046, 73.54367
289.0867, 85.95059
289.5688, 89.80688
290.0509, 83.25381
290.5330, 76.62891
291.0151, 74.87085
291.4973, 76.04303
291.9794, 77.59042
292.4615, 78.95474
292.9436, 80.49518
293.4257, 82.62314
293.9078, 85.18192
294.3900, 87.71008
294.8721, 90.49768
295.3542, 92.73129
295.8363, 93.21887
296.3184, 91.95132
296.8005, 90.59540
297.2827, 90.35373
297.7648, 90.39044
298.2469, 88.58875
298.7290, 84.21484
299.2111, 80.63028
299.6932, 81.37579
300.1754, 85.98233
300.6575, 90.32452
301.1396, 91.81586
301.6217, 94.44882
302.1038, 104.1161
302.5859, 119.3348
303.0680, 129.9681
303.5501, 128.8652
304.0323, 118.7862
304.5144, 112.7924
304.9965, 112.2246
305.4786, 113.5705
305.9607, 118.3517
306.4428, 123.8730
306.9250, 124.3472
307.4071, 117.2074
307.8892, 107.1652
308.3713, 103.2658
308.8534, 109.9012
309.3355, 115.1046
309.8177, 118.6755
310.2998, 120.7134
310.7819, 120.2259
311.2640, 117.5789
311.7461, 115.7690
312.2282, 118.5176
312.7104, 127.6222
313.1925, 131.1212
313.6746, 127.6281
314.1567, 120.9522
314.6388, 109.9417
315.1209, 97.01959
315.6031, 86.35205
316.0852, 80.54086
316.5673, 79.19244
317.0494, 80.54269
317.5315, 90.34467
318.0136, 94.79572
318.4958, 87.79266
318.9779, 76.69809
319.4600, 69.63495
319.9421, 69.29733
320.4242, 71.52173
320.9063, 69.28836
321.3885, 60.76080
321.8706, 54.30139
322.3527, 52.01920
322.8348, 51.17044
323.3169, 49.71384
323.7990, 47.95923
324.2812, 48.33850
324.7633, 55.63846
325.2454, 68.47568
325.7275, 73.40704
326.2096, 67.38208
326.6917, 58.06418
327.1739, 45.98831
327.6560, 34.00931
328.1381, 27.92703
328.6202, 32.38345
329.1023, 41.22379
329.5844, 45.27301
330.0666, 44.08963
330.5487, 43.09256
331.0308, 44.11136
331.5129, 46.91589
331.9950, 51.65323
332.4771, 59.39395
332.9593, 64.96881
333.4414, 63.28339
333.9235, 56.97177
334.4056, 53.65091
334.8877, 55.81833
335.3698, 59.23062
335.8520, 57.53851
336.3341, 50.73584
336.8162, 48.14053
337.2983, 54.42331
337.7804, 63.46332
338.2625, 70.36508
338.7447, 74.71786
339.2268, 77.13330
339.7089, 77.84427
340.1910, 76.87674
340.6731, 74.93399
341.1552, 70.21234
341.6374, 66.87891
342.1195, 67.21439
342.6016, 69.50653
343.0837, 71.14035
343.5658, 71.10004
344.0479, 69.87283
344.5301, 68.03305
345.0122, 61.55139
345.4943, 62.24765
345.9764, 78.82883
346.4585, 95.51093
346.9406, 99.84576
347.4228, 92.27774
347.9049, 82.88055
348.3870, 81.31155
348.8691, 87.27084
349.3512, 89.07413
349.8333, 80.93112
350.3155, 75.91342
350.7976, 80.55759
351.2797, 89.76724
351.7618, 95.72025
352.2439, 94.96194
352.7260, 90.38547
353.2082, 87.37689
353.6903, 86.74341
354.1724, 85.34647
354.6545, 77.05728
355.1366, 71.17017
355.6187, 77.87598
356.1009, 97.37778
356.5830, 112.9261
357.0651, 108.6463
357.5472, 89.18658
358.0293, 74.98636
358.5114, 68.51685
358.9936, 65.26492
359.4757, 64.55463
359.9578, 64.87149
360.4399, 62.01492
360.9220, 51.69592
361.4041, 40.12207
361.8863, 33.19888
362.3684, 30.62143
362.8505, 30.01495
363.3326, 30.91827
363.8147, 32.47968
364.2968, 32.81693
364.7790, 32.14490
365.2611, 30.10983
365.7432, 26.46423
366.2253, 21.45502
366.7074, 14.68417
367.1895, 6.165802
367.6717, 1.924500
368.1538, 7.610016
368.6359, 11.24942
369.1180, 10.49551
369.6001, 0.3009340
370.0822, 8.587830
370.5644, 8.958588
371.0465, 4.549805
371.5286, 4.847595
372.0107, 15.71396
372.4928, 31.82355
372.9749, 35.41971
373.4571, 14.48840
373.9392, 0.5957030
374.4213, 2.347687
374.9034, 1.300629
375.3855, 10.19812
375.8676, 23.16977
376.3498, 36.48203
376.8319, 46.30624
377.3140, 52.57315
377.7961, 58.45291
378.2782, 63.07312
378.7603, 68.55820
379.2425, 78.04141
379.7246, 88.71500
380.2067, 95.14917
380.6888, 94.20465
381.1709, 89.17194
381.6530, 83.58334
382.1352, 77.55856
382.6173, 73.89923
383.0994, 74.20291
383.5815, 75.97089
384.0636, 76.62433
384.5457, 76.50009
385.0279, 74.27448
385.5100, 67.82578
385.9921, 59.51343
386.4742, 52.22293
386.9563, 46.38354
387.4384, 43.27829
387.9206, 44.93970
388.4027, 51.19705
388.8848, 53.94565
389.3669, 51.26620
389.8490, 47.43524
390.3311, 42.60388
390.8133, 38.09384
391.2954, 36.84387
391.7775, 40.11307
392.2596, 45.04556
392.7417, 45.83826
393.2238, 39.81906
393.7060, 34.72745
394.1881, 31.63486
394.6702, 28.49850
395.1523, 23.69659
395.6344, 17.58270
396.1165, 11.48621
396.5987, 5.765625
397.0808, 1.102478
397.5629, 2.719879
398.0450, 16.04889
398.5271, 25.83136
399.0092, 26.33151
399.4914, 21.85336
399.9735, 15.97089
400.4556, 9.328125
400.9377, 3.987457
401.4198, 2.374939
401.9019, 4.189148
402.3841, 7.539673
402.8662, 13.74936
403.3483, 18.53281
403.8304, 17.38733
404.3125, 11.34216
404.7946, 4.230316
405.2768, 6.836975
405.7589, 15.76266
406.2410, 14.21057
406.7231, 4.130402
407.2052, 2.436218
407.6873, 1.462524
408.1695, 11.21906
408.6516, 14.33139
409.1337, 6.388550
409.6158, 0.5238950
410.0979, 1.350952
410.5800, 0.6893310
411.0622, 2.322540
411.5443, 6.998016
412.0264, 10.90735
412.5085, 11.81738
412.9906, 9.686371
413.4727, 6.811768
413.9549, 0.5312190
414.4370, 3.453888
414.9191, 1.378510
415.4012, 2.617981
415.8833, 2.814117
416.3654, 2.922028
416.8476, 10.48416
417.3297, 13.97559
417.8118, 13.00278
418.2939, 12.34430
418.7760, 13.06949
419.2581, 13.68005
419.7403, 11.94992
420.2224, 8.964447
420.7045, 8.769379
421.1866, 15.74890
421.6687, 24.99274
422.1508, 29.92233
422.6330, 30.65909
423.1151, 29.41156
423.5972, 26.95648
424.0793, 23.28278
424.5614, 17.09103
425.0435, 5.007660
425.5257, 0.1142270
426.0078, 13.47217
426.4899, 31.36859
426.9720, 38.56503
427.4541, 33.86484
427.9362, 24.91449
428.4184, 18.00134
428.9005, 13.06415
429.3826, 8.419891
429.8647, 2.228241
430.3468, 1.403625
430.8289, 0.1905520
431.3111, 3.360596
431.7932, 6.636627
432.2753, 9.042938
432.7574, 11.07333
433.2395, 11.76498
433.7216, 10.96085
434.2038, 10.73444
434.6859, 12.54001
435.1680, 13.44531
435.6501, 11.91983
436.1322, 9.408752
436.6143, 7.068481
437.0965, 5.101105
437.5786, 4.031769
438.0607, 4.441406
438.5428, 6.161987
439.0249, 5.873932
439.5070, 1.414001
439.9892, 3.823975
440.4713, 3.873383
440.9534, 1.875549
441.4355, 7.953522
441.9176, 14.58417
442.3997, 20.04947
442.8819, 22.14142
443.3640, 21.36551
443.8461, 20.41342
444.3282, 21.02457
444.8103, 22.58807
445.2924, 23.18164
445.7746, 20.13989
446.2567, 19.80405
446.7388, 26.71112
447.2209, 33.53949
447.7030, 31.85190
448.1852, 22.26971
448.6673, 14.59036
449.1494, 19.60544
449.6315, 35.57947
450.1136, 43.65396
450.5957, 40.65268
451.0779, 35.36865
451.5600, 27.72528
452.0421, 21.29288
452.5242, 21.25040
453.0063, 29.64377
453.4884, 39.47357
453.9706, 45.45370
454.4527, 48.33121
454.9348, 51.06967
455.4169, 54.69897
455.8990, 55.69080
456.3811, 49.06244
456.8633, 35.46936
457.3454, 27.55234
457.8275, 29.35233
458.3096, 32.71060
458.7917, 34.40765
459.2738, 35.00635
459.7560, 35.54333
460.2381, 36.39487
460.7202, 37.59018
461.2023, 39.30814
461.6844, 42.09305
462.1665, 43.44226
462.6487, 43.78824
463.1308, 42.00504
463.6129, 35.18253
464.0950, 26.67624
464.5771, 21.96799
465.0592, 23.26791
465.5414, 28.74182
466.0235, 37.60898
466.5056, 51.01440
466.9877, 57.85217
467.4698, 53.08844
467.9519, 42.99799
468.4341, 30.88760
468.9162, 17.59784
469.3983, 10.27835
469.8804, 16.44388
470.3625, 25.61810
470.8446, 27.75558
471.3268, 23.72629
471.8089, 18.94998
472.2910, 15.38580
472.7731, 12.79480
473.2552, 10.48267
473.7373, 6.088928
474.2195, 7.660675
474.7016, 24.05347
475.1837, 38.85071
475.6658, 38.36151
476.1479, 25.94101
476.6300, 14.51944
477.1122, 12.69904
477.5943, 17.72430
478.0764, 21.04950
478.5585, 22.68604
479.0406, 22.63660
479.5227, 17.47076
480.0049, 13.04102
480.4870, 15.04730
480.9691, 22.91879
481.4512, 28.79111
481.9333, 26.63211
482.4154, 20.14017
482.8976, 15.27560
483.3797, 12.15985
483.8618, 9.657135
484.3439, 6.618286
484.8260, 3.925171
485.3081, 3.924377
485.7903, 7.212769
486.2724, 11.11707
486.7545, 15.90933
487.2366, 20.57742
487.7187, 26.03638
488.2008, 30.94040
488.6830, 30.22693
489.1651, 19.01718
489.6472, 0.6625980
490.1293, 8.091888
490.6114, 1.899811
491.0935, 4.750305
491.5757, 14.43127
492.0578, 20.55740
492.5399, 13.77682
493.0220, 4.731781
493.5041, 19.03577
493.9862, 13.98517
494.4684, 2.767761
494.9505, 12.52176
495.4326, 14.75925
495.9147, 12.67807
496.3968, 4.084503
496.8789, 5.328278
497.3611, 3.082764
497.8432, 15.33301
498.3253, 29.97311
498.8074, 35.27933
499.2895, 34.69885
499.7716, 29.55945
500.2538, 21.28729
500.7359, 13.22861
501.2180, 7.264923
501.7001, 4.275635
502.1822, 8.753479
502.6643, 27.80417
503.1465, 42.56900
503.6286, 51.73965
504.1107, 56.14221
504.5928, 54.99567
505.0749, 49.18735
505.5570, 42.00525
506.0392, 33.79819
506.5213, 26.62329
507.0034, 27.43265
507.4855, 37.36221
507.9676, 44.39752
508.4497, 42.83575
508.9319, 36.49399
509.4140, 30.91226
509.8961, 25.62534
510.3782, 23.32538
510.8603, 27.59549
511.3424, 33.01593
511.8246, 35.16403
512.3067, 33.90662
512.7888, 29.51193
513.2709, 21.50058
513.7531, 13.06070
514.2352, 14.50253
514.7173, 35.37347
515.1994, 47.33643
515.6815, 42.28824
516.1636, 34.88977
516.6458, 34.86206
517.1279, 40.24246
517.6100, 42.15176
518.0921, 33.37424
518.5742, 21.00616
519.0563, 17.79739
519.5385, 23.80460
520.0206, 29.93896
520.5027, 33.83105
520.9848, 36.39148
521.4669, 38.13367
521.9490, 39.00128
522.4312, 41.52435
522.9133, 49.53030
523.3954, 56.11606
523.8775, 57.08728
524.3596, 53.08200
524.8417, 45.19000
525.3239, 33.84103
525.8060, 21.47763
526.2881, 10.94537
526.7702, 0.5986020
527.2523, 0.1844790
527.7344, 30.65756
528.2166, 54.81198
528.6987, 54.34360
529.1808, 38.84555
529.6629, 25.27170
530.1450, 19.20853
530.6271, 18.16486
531.1093, 22.61987
531.5914, 31.21286
532.0735, 33.02820
532.5556, 25.03384
533.0377, 16.25510
533.5198, 13.86398
534.0020, 17.75989
534.4841, 23.10657
534.9662, 33.49823
535.4483, 41.02499
535.9304, 41.59323
536.4125, 38.75043
536.8947, 36.91074
537.3768, 36.86636
537.8589, 36.03641
538.3410, 31.06903
538.8231, 22.60861
539.3052, 19.46097
539.7874, 23.52292
540.2695, 29.28552
540.7516, 38.70786
541.2337, 46.74890
541.7158, 47.00363
542.1979, 38.42300
542.6801, 30.86136
543.1622, 32.55093
543.6443, 37.37930
544.1264, 35.09579
544.6085, 25.91986
545.0906, 17.87650
545.5728, 15.07767
546.0549, 16.69119
546.5370, 20.97604
547.0191, 33.56546
547.5012, 38.39014
547.9833, 30.41241
548.4655, 19.86105
548.9476, 8.431335
549.4297, 1.043488
549.9117, 2.008484
550.3939, 10.72864
550.8760, 26.96249
551.3581, 27.48892
551.8402, 12.88187
552.3223, 4.235931
552.8044, 5.490967
553.2866, 10.77267
553.7687, 17.21777
554.2508, 23.84802
554.7329, 26.52042
555.2150, 21.86752
555.6971, 17.71454
556.1793, 17.86102
556.6614, 20.43909
557.1435, 22.53717
557.6256, 23.43567
558.1077, 24.07574
558.5898, 25.61664
559.0720, 28.00269
559.5541, 28.24426
560.0362, 22.80746
560.5183, 21.04459
561.0004, 29.35489
561.4825, 39.30341
561.9647, 43.12259
562.4468, 39.68735
562.9289, 32.55212
563.4110, 20.00015
563.8931, 6.970856
564.3752, 3.025391
564.8574, 8.018921
565.3395, 14.56961
565.8216, 19.75409
566.3037, 23.41925
566.7858, 25.18906
567.2679, 24.38956
567.7501, 23.09778
568.2322, 20.78677
568.7143, 18.50485
569.1964, 16.48270
569.6785, 14.97894
570.1606, 14.49417
570.6428, 15.30164
571.1249, 16.62030
571.6070, 17.01785
572.0891, 16.53442
572.5712, 17.81207
573.0533, 22.38507
573.5355, 25.99246
574.0176, 24.21677
574.4997, 19.23904
574.9818, 18.52057
575.4639, 26.31262
575.9460, 32.60928
576.4282, 30.88834
576.9103, 27.04208
577.3924, 30.11902
577.8745, 39.50800
578.3566, 45.20798
578.8387, 39.16104
579.3209, 24.55530
579.8030, 13.78711
580.2851, 6.495270
580.7672, 3.829559
581.2493, 10.62500
581.7314, 18.49075
582.2136, 21.31763
582.6957, 19.67627
583.1778, 22.14639
583.6599, 37.72543
584.1420, 52.93451
584.6241, 52.92783
585.1063, 42.04913
585.5884, 31.67511
586.0705, 24.66452
586.5526, 20.63467
587.0347, 20.11627
587.5168, 23.46887
587.9990, 20.53738
588.4811, 0.5715940
588.9632, 12.95804
589.4453, 5.653717
589.9274, 7.961273
590.4095, 14.36551
590.8917, 11.92273
591.3738, 9.589447
591.8559, 16.60620
592.3380, 28.24167
592.8201, 32.31155
593.3022, 28.36115
593.7844, 22.35913
594.2665, 14.94632
594.7486, 9.274811
595.2307, 10.84787
595.7128, 21.98898
596.1949, 30.56964
596.6771, 37.18018
597.1592, 40.47009
597.6413, 37.56815
598.1234, 31.74457
598.6055, 27.90347
599.0876, 27.59390
599.5698, 28.36707
600.0519, 27.07321
600.5340, 24.09003
601.0161, 23.07230
601.4982, 24.65964
601.9803, 26.21216
602.4625, 27.08493
602.9446, 26.77405
603.4267, 23.43729
603.9088, 15.20224
604.3909, 12.04672
604.8730, 21.50748
605.3552, 32.46298
605.8373, 36.58273
606.3194, 35.01758
606.8015, 32.07141
607.2836, 28.84836
607.7657, 26.48499
608.2479, 26.88022
608.7300, 30.14386
609.2121, 32.57938
609.6942, 33.79388
610.1763, 34.79205
610.6584, 37.32623
611.1406, 39.31046
611.6227, 35.80875
612.1048, 23.30603
612.5869, 16.01938
613.0690, 26.05225
613.5511, 40.83496
614.0333, 45.73273
614.5154, 41.28198
614.9975, 35.81595
615.4796, 34.03763
615.9617, 33.45215
616.4438, 27.51245
616.9260, 12.82196
617.4081, 4.842163
617.8902, 7.457123
618.3723, 13.18857
618.8544, 21.59088
619.3365, 29.77603
619.8187, 31.93506
620.3008, 24.95178
620.7829, 17.77563
621.2650, 16.06433
621.7471, 17.69565
622.2292, 19.84866
622.7114, 22.17023
623.1935, 25.08896
623.6756, 29.18002
624.1577, 33.18805
624.6398, 33.36243
625.1219, 27.14822
625.6041, 23.13550
626.0862, 23.38324
626.5683, 24.42755
627.0504, 25.93375
627.5325, 26.71426
628.0146, 23.38824
628.4968, 13.22067
628.9789, 4.388153
629.4610, 6.179077
629.9431, 12.80273
630.4252, 11.54349
630.9073, 1.794220
631.3895, 5.548248
631.8716, 2.811218
632.3537, 6.418060
632.8358, 10.99350
633.3179, 7.201416
633.8000, 6.223785
634.2822, 9.244598
634.7643, 14.08173
635.2464, 23.03491
635.7285, 32.42764
636.2106, 34.34021
636.6927, 24.07233
637.1749, 13.12115
637.6570, 14.10635
638.1391, 20.71475
638.6212, 16.56281
639.1033, 0.8280640
639.5854, 8.224091
640.0676, 2.770935
640.5497, 25.49680
641.0318, 34.75491
641.5139, 21.25821
641.9960, 12.23294
642.4781, 10.77246
642.9603, 10.61203
643.4424, 9.007690
643.9245, 6.533020
644.4066, 4.864410
644.8887, 4.864410
645.3708, 4.284760
645.8530, 0.1273500
646.3351, 6.124115
646.8172, 9.667725
647.2993, 9.143890
647.7814, 6.167664
648.2635, 1.542145
648.7457, 3.255676
649.2278, 3.865936
649.7099, 5.019409
650.1920, 6.213623
650.6741, 10.90939
651.1563, 24.33789
651.6384, 20.87921
652.1205, 9.005493
652.6026, 3.394836
653.0847, 8.582611
653.5668, 17.12677
654.0490, 24.40552
654.5311, 31.01111
655.0132, 39.43509
655.4953, 49.04987
655.9774, 53.84946
656.4595, 50.36316
656.9417, 41.87399
657.4238, 34.65253
657.9059, 28.40759
658.3880, 24.39157
658.8701, 23.84290
659.3522, 24.23724
659.8344, 25.00452
660.3165, 26.11200
660.7986, 27.39676
661.2807, 28.77484
661.7628, 31.13315
662.2449, 40.15839
662.7271, 47.29019
663.2092, 35.47708
663.6913, 9.950043
664.1734, 4.062286
664.6555, 4.640137
665.1376, 22.86475
665.6198, 30.94629
666.1019, 27.93204
666.5840, 21.93671
667.0661, 6.364105
667.5482, 2.117981
668.0303, 8.310059
668.5125, 24.01447
668.9946, 30.73679
669.4767, 27.00610
669.9588, 22.06955
670.4409, 17.30441
670.9230, 15.26373
671.4052, 21.21448
671.8873, 31.39749
672.3694, 36.39499
672.8515, 33.44281
673.3336, 27.85040
673.8157, 25.31870
674.2979, 25.65402
674.7800, 26.38654
675.2621, 28.27713
675.7442, 28.48312
676.2263, 24.09155
676.7084, 19.52472
677.1906, 19.32486
677.6727, 23.04630
678.1548, 26.22632
678.6369, 27.57092
679.1190, 28.39548
679.6011, 29.92926
680.0833, 31.12482
680.5654, 30.36218
681.0475, 27.50507
681.5296, 23.75735
682.0117, 20.06686
682.4938, 16.12341
682.9760, 9.127869
683.4581, 2.127838
683.9402, 4.286499
684.4223, 9.512024
684.9044, 24.97394
685.3865, 29.61771
685.8687, 25.74637
686.3508, 25.76758
686.8329, 37.04797
687.3150, 41.75482
687.7971, 27.42276
688.2792, 11.66006
688.7614, 12.04584
689.2435, 23.99533
689.7256, 31.58594
690.2077, 26.01038
690.6898, 15.82208
691.1719, 12.67108
691.6541, 15.77399
692.1362, 21.59619
692.6183, 30.29169
693.1004, 37.49136
693.5825, 40.55725
694.0646, 40.64166
694.5468, 40.78119
695.0289, 43.44748
695.5110, 40.22046
695.9931, 22.53336
696.4752, 9.048248
696.9573, 10.22290
697.4395, 17.94373
697.9216, 21.80673
698.4037, 18.29260
698.8858, 14.32379
699.3679, 17.04208
699.8500, 21.59763
700.3322, 17.62836
700.8143, 7.259705
701.2964, 3.643555
701.7785, 11.91187
702.2606, 24.49078
702.7427, 32.05212
703.2249, 34.50034
703.7070, 34.94922
704.1891, 33.19104
704.6712, 29.12723
705.1533, 16.09186
705.6354, 6.322937
706.1176, 14.53946
706.5997, 37.63892
707.0818, 52.08533
707.5639, 42.52783
708.0460, 28.75690
708.5281, 22.06030
709.0103, 20.02362
709.4924, 21.73972
709.9745, 25.74911
710.4566, 26.43433
710.9387, 18.95862
711.4208, 7.729309
711.9030, 4.471436
712.3851, 9.887665
712.8672, 15.42407
713.3493, 19.89932
713.8314, 24.74060
714.3135, 32.79059
714.7957, 41.56555
715.2778, 43.06461
715.7599, 32.16132
716.2420, 25.43265
716.7241, 29.17932
717.2062, 33.97433
717.6884, 34.70847
718.1705, 31.76178
718.6526, 25.76282
719.1347, 16.98425
719.6168, 9.476471
720.0989, 7.585510
720.5811, 9.809845
721.0632, 13.79471
721.5453, 19.11075
722.0274, 21.37445
722.5095, 19.31421
722.9916, 15.00641
723.4738, 11.25079
723.9559, 8.002258
724.4380, 6.354462
724.9201, 6.520874
725.4022, 7.916016
725.8843, 13.65060
726.3665, 18.34863
726.8486, 15.99536
727.3307, 7.963348
727.8128, 3.151337
728.2949, 6.709595
728.7770, 11.69714
729.2592, 13.14755
729.7413, 13.41153
730.2234, 16.58621
730.7055, 22.50415
731.1876, 27.32477
731.6697, 28.47733
732.1519, 27.52838
732.6340, 28.16068
733.1161, 30.49152
733.5982, 29.68164
734.0803, 23.87003
734.5624, 19.66687
735.0446, 22.91727
735.5267, 28.99652
736.0088, 26.32733
736.4909, 9.786102
736.9730, 0.6414180
737.4551, 7.115631
737.9373, 13.31537
738.4194, 10.70013
738.9015, 4.131805
739.3836, 0.3177190
739.8657, 1.099304
740.3478, 1.380646
740.8300, 8.730682
741.3121, 17.81827
741.7942, 25.27911
742.2763, 31.23154
742.7584, 34.42487
743.2405, 34.60913
743.7227, 31.92810
744.2048, 25.91156
744.6869, 17.67352
745.1690, 13.30890
745.6511, 13.71576
746.1332, 15.55743
746.6154, 21.28159
747.0975, 24.79150
747.5796, 19.04517
748.0617, 8.587372
748.5438, 4.235443
749.0259, 10.25891
749.5081, 14.74619
749.9902, 13.79388
750.4723, 11.03671
750.9544, 8.319305
751.4365, 5.972107
751.9186, 4.554535
752.4008, 4.167603
752.8829, 3.041382
753.3650, 3.225189
753.8471, 10.87463
754.3292, 6.437134
754.8113, 9.260803
755.2935, 19.86346
755.7756, 19.74161
756.2577, 15.48593
756.7398, 13.72614
757.2219, 14.47409
757.7040, 18.60184
758.1862, 32.13431
758.6683, 37.80948
759.1504, 23.91165
759.6325, 9.602295
760.1146, 8.336945
760.5967, 15.87158
761.0789, 18.97351
761.5610, 12.69293
762.0431, 6.924866
762.5252, 7.855408
763.0073, 9.676392
763.4894, 5.295258
763.9716, 2.754028
764.4537, 6.883667
764.9358, 4.128662
765.4179, 0.8857420
765.9000, 2.246735
766.3821, 1.467651
766.8643, 4.693726
767.3464, 11.93506
767.8285, 19.09219
768.3106, 25.44244
768.7927, 28.09198
769.2748, 22.34445
769.7570, 8.591919
770.2391, 4.919495
770.7212, 21.05099
771.2033, 31.53934
771.6854, 29.33398
772.1675, 23.93494
772.6497, 20.18307
773.1318, 18.09735
773.6139, 17.23593
774.0960, 17.58539
774.5781, 17.42609
775.0602, 13.62732
775.5424, 10.77011
776.0245, 16.38791
776.5066, 26.14111
776.9887, 27.60117
777.4708, 16.51981
777.9529, 5.200531
778.4351, 8.396973
778.9172, 21.90350
779.3993, 34.69226
779.8814, 46.37561
780.3635, 49.79959
780.8456, 41.54602
781.3278, 32.08829
781.8099, 33.15005
782.2920, 42.84808
782.7741, 41.98822
783.2562, 21.23492
783.7383, 8.975708
784.2205, 14.52029
784.7026, 23.16754
785.1847, 27.93832
785.6668, 29.52808
786.1489, 29.40561
786.6310, 27.09570
787.1132, 25.27985
787.5953, 25.09390
788.0774, 25.52292
788.5595, 26.01941
789.0416, 26.51523
789.5237, 26.85699
790.0059, 26.98495
790.4880, 27.76181
790.9701, 30.93610
791.4522, 34.49728
791.9343, 34.96432
792.4164, 32.43515
792.8986, 25.96735
793.3807, 15.40604
793.8628, 7.549255
794.3449, 7.338257
794.8270, 13.14630
795.3091, 19.09277
795.7913, 26.43436
796.2734, 28.71643
796.7555, 22.28748
797.2376, 16.09790
797.7197, 13.60037
798.2018, 14.97006
798.6840, 22.24594
799.1661, 38.36462
799.6482, 44.76205
800.1303, 28.77243
800.6124, 14.76569
801.0945, 16.01404
801.5767, 22.72208
802.0588, 23.47668
802.5409, 17.44852
803.0230, 10.68961
803.5051, 5.271210
803.9872, 2.311554
804.4694, 5.884003
804.9515, 11.59912
805.4336, 9.111115
805.9157, 0.6663820
806.3978, 6.692719
806.8799, 2.863647
807.3621, 6.401581
807.8442, 15.43314
808.3263, 24.05133
808.8084, 28.45166
809.2905, 28.60199
809.7726, 23.01526
810.2548, 7.844696
810.7369, 6.050415
811.2190, 4.686432
811.7011, 11.42474
812.1832, 22.54956
812.6653, 28.54053
813.1475, 29.35120
813.6296, 19.75699
814.1117, 10.18369
814.5938, 7.352966
815.0759, 9.442352
815.5580, 11.84891
816.0402, 13.75525
816.5223, 15.54956
817.0044, 18.62695
817.4865, 20.50974
817.9686, 17.52228
818.4507, 12.49493
818.9329, 10.76328
819.4150, 13.44403
819.8971, 17.22137
820.3792, 20.33640
820.8613, 21.97733
821.3434, 19.82703
821.8256, 14.91162
822.3077, 11.07523
822.7898, 9.441650
823.2719, 8.060425
823.7540, 5.118286
824.2361, 2.747803
824.7183, 8.694275
825.2004, 24.83569
825.6825, 27.73727
826.1646, 11.25699
826.6467, 1.853394
827.1288, 2.466827
827.6110, 4.529114
828.0931, 15.19162
828.5752, 31.57718
829.0573, 37.72211
829.5394, 24.95938
830.0215, 13.47849
830.5037, 3.605774
830.9858, 1.363617
831.4679, 4.784210
831.9500, 17.24362
832.4321, 23.42542
832.9142, 18.32135
833.3964, 12.93350
833.8785, 11.96310
834.3606, 13.87799
834.8427, 19.89078
835.3248, 26.98883
835.8069, 28.78284
836.2891, 24.17270
836.7712, 18.66937
837.2533, 16.78055
837.7354, 16.84778
838.2175, 16.04028
838.6996, 14.64084
839.1818, 13.66690
839.6639, 13.29352
840.1460, 13.33087
840.6281, 13.63132
841.1102, 14.48911
841.5923, 17.03217
842.0745, 21.82614
842.5566, 21.79517
843.0387, 15.06818
843.5208, 9.865997
844.0029, 9.068634
844.4850, 11.31650
844.9672, 16.51971
845.4493, 24.51453
845.9314, 25.95108
846.4135, 10.59058
846.8956, 3.581024
847.3777, 15.37927
847.8599, 27.55536
848.3420, 28.40973
848.8241, 22.06192
849.3062, 17.46887
849.7883, 16.64279
850.2704, 14.51151
850.7526, 4.837555
851.2347, 1.993408
851.7168, 5.027039
852.1989, 16.74762
852.6810, 19.52228
853.1631, 12.56824
853.6453, 6.096985
854.1274, 6.372955
854.6095, 8.987793
855.0916, 9.692932
855.5737, 9.011810
856.0558, 6.858521
856.5380, 4.082977
857.0201, 4.269257
857.5022, 8.994080
857.9843, 15.55692
858.4664, 20.38422
858.9485, 24.00879
859.4307, 30.19354
859.9128, 38.98404
860.3949, 43.31339
860.8770, 41.11160
861.3591, 35.86041
861.8412, 29.43970
862.3234, 23.32297
862.8055, 23.66928
863.2876, 35.01974
863.7697, 37.08661
864.2518, 20.78748
864.7339, 10.73651
865.2161, 22.69965
865.6982, 41.60739
866.1803, 46.06772
866.6624, 35.72015
867.1445, 29.64429
867.6266, 30.82666
868.1088, 33.02798
868.5909, 36.89938
869.0730, 39.33316
869.5551, 35.51581
870.0372, 28.65582
870.5193, 28.05103
871.0015, 37.66599
871.4836, 43.48486
871.9657, 35.34772
872.4478, 24.86945
872.9299, 20.36346
873.4120, 19.61203
873.8942, 18.18628
874.3763, 15.80640
874.8584, 15.90170
875.3405, 20.86594
875.8226, 28.46606
876.3047, 38.40170
876.7869, 48.21158
877.2690, 54.64194
877.7511, 56.38815
878.2332, 46.84903
878.7153, 23.80539
879.1974, 3.647034
879.6796, 9.259583
880.1617, 31.42007
880.6438, 34.96469
881.1259, 20.86911
881.6080, 5.058716
882.0901, 10.11530
882.5723, 16.45609
883.0544, 7.205261
883.5365, 11.48840
884.0186, 26.47885
884.5007, 39.41992
884.9828, 35.04788
885.4650, 4.199982
885.9471, 16.81219
886.4292, 13.39584
886.9113, 2.111298
887.3934, 20.79956
887.8755, 41.26733
888.3577, 47.25171
888.8398, 24.13873
889.3219, 10.17935
889.8040, 10.57175
890.2861, 15.82965
890.7682, 27.94360
891.2504, 39.21848
891.7325, 35.48657
892.2146, 14.23062
892.6967, 0.8171690
893.1788, 3.772827
893.6609, 11.39777
894.1431, 24.61569
894.6252, 36.29990
895.1073, 37.89786
895.5894, 32.56561
896.0715, 31.42639
896.5536, 39.83188
897.0358, 43.12650
897.5179, 24.87659
898.0000, 4.951813
898.4821, 0.9178160
898.9642, 8.161377
899.4464, 21.20795
899.9285, 36.24872
900.4106, 43.73206
900.8927, 35.52213
901.3748, 22.83459
901.8569, 19.36945
902.3391, 20.99017
902.8212, 18.58636
903.3033, 13.11386
903.7854, 13.18463
904.2675, 21.56522
904.7496, 28.06918
905.2318, 19.66431
905.7139, 3.927246
906.1960, 4.438629
906.6781, 18.41202
907.1602, 24.85892
907.6423, 20.50098
908.1245, 15.63324
908.6066, 16.27939
909.0887, 18.60822
909.5708, 15.81177
910.0529, 7.834595
910.5350, 10.43912
911.0172, 26.32053
911.4993, 34.83157
911.9814, 28.65720
912.4635, 20.77231
912.9456, 22.13129
913.4277, 29.69888
913.9099, 32.98972
914.3920, 29.84952
914.8741, 29.26578
915.3562, 33.92349
915.8383, 35.97827
916.3204, 30.97638
916.8026, 23.74899
917.2847, 19.00555
917.7668, 16.71591
918.2489, 16.42822
918.7310, 20.66220
919.2131, 23.07242
919.6953, 22.73172
920.1774, 21.22968
920.6595, 17.45331
921.1416, 13.92206
921.6237, 14.50067
922.1058, 19.65424
922.5880, 24.85629
923.0701, 30.61206
923.5522, 34.66577
924.0343, 35.97461
924.5164, 35.58307
924.9985, 32.87863
925.4807, 29.48239
925.9628, 29.57242
926.4449, 34.77921
926.9270, 36.37946
927.4091, 25.43866
927.8912, 15.31805
928.3734, 16.41876
928.8555, 22.52722
929.3376, 27.66623
929.8197, 30.20737
930.3018, 28.13028
930.7839, 19.34805
931.2661, 12.58826
931.7482, 17.02139
932.2303, 24.61234
932.7124, 26.02899
933.1945, 24.13928
933.6766, 25.86484
934.1588, 31.81961
934.6409, 36.57767
935.1230, 36.34906
935.6051, 34.93451
936.0872, 39.08780
936.5693, 44.10452
937.0515, 39.79504
937.5336, 28.21906
938.0157, 17.66772
938.4978, 10.86890
938.9799, 6.185852
939.4620, 1.719482
939.9442, 1.468689
940.4263, 2.286102
940.9084, 11.57629
941.3905, 17.87140
941.8726, 20.06622
942.3547, 21.50150
942.8369, 23.60251
943.3190, 27.00909
943.8011, 32.23016
944.2832, 38.89761
944.7653, 41.25793
945.2474, 38.76074
945.7296, 34.98300
946.2117, 30.02640
946.6938, 27.06558
947.1759, 28.13065
947.6580, 31.86005
948.1401, 37.44360
948.6223, 44.03287
949.1044, 39.49985
949.5865, 22.38815
950.0686, 12.03424
950.5507, 13.39902
951.0328, 15.53448
951.5150, 10.47171
951.9971, 2.722321
952.4792, 1.948181
952.9613, 8.779327
953.4434, 16.34027
953.9255, 26.28635
954.4077, 29.99896
954.8898, 23.31152
955.3719, 14.67328
955.8540, 10.09564
956.3361, 9.027740
956.8182, 10.54630
957.3004, 15.98727
957.7825, 18.37930
958.2646, 16.75623
958.7467, 14.21945
959.2288, 10.74579
959.7109, 8.355011
960.1931, 9.653748
960.6752, 13.50711
961.1573, 14.66861
961.6394, 10.96194
962.1215, 9.563660
962.6036, 11.46997
963.0858, 14.19299
963.5679, 17.36200
964.0500, 20.55740
964.5321, 23.90640
965.0142, 27.10089
965.4963, 27.61783
965.9785, 23.53229
966.4606, 19.85431
966.9427, 17.50516
967.4248, 14.46399
967.9069, 7.995789
968.3890, 1.782715
968.8712, 0.7290950
969.3533, 4.412109
969.8354, 6.504120
970.3175, 4.536469
970.7996, 4.075500
971.2817, 6.768921
971.7639, 9.845764
972.2460, 10.30322
972.7281, 11.35748
973.2102, 19.84116
973.6923, 35.26743
974.1744, 42.06989
974.6566, 28.58102
975.1387, 19.78412
975.6208, 24.88248
976.1029, 31.36786
976.5850, 32.56522
977.0671, 30.15225
977.5493, 27.17221
978.0314, 23.91443
978.5135, 18.44467
978.9956, 5.786743
979.4777, 2.769073
979.9598, 1.134644
980.4420, 2.653717
980.9241, 3.199402
981.4062, 2.101715
981.8883, 2.374847
982.3704, 4.463989
982.8525, 7.539276
983.3347, 15.32236
983.8168, 18.71915
984.2989, 6.706543
984.7810, 3.535126
985.2631, 6.038147
985.7452, 24.95889
986.2274, 32.96515
986.7095, 26.44275
987.1916, 18.59311
987.6737, 10.62463
988.1558, 6.622681
988.6379, 13.03320
989.1201, 19.87079
989.6022, 17.79260
990.0843, 10.17029
990.5664, 3.998047
991.0485, 0.7417300
991.5306, 0.5901490
992.0128, 0.4609380
992.4949, 2.268372
992.9770, 3.580383
993.4591, 5.737488
993.9412, 11.33954
994.4233, 18.24994
994.9055, 22.02979
995.3876, 21.66003
995.8697, 20.86902
996.3518, 22.11591
996.8339, 22.21936
997.3160, 17.11926
997.7982, 12.18427
998.2803, 14.31393
998.7624, 20.13516
999.2445, 21.65952
999.7266, 17.06183
1000.209, 13.33667
1000.691, 15.55017
1001.173, 16.94476
1001.655, 14.25314
1002.137, 8.902557
1002.619, 0.6873170
1003.101, 10.91479
1003.584, 14.66690
1004.066, 10.34253
1004.548, 4.341431
1005.030, 1.744263
1005.512, 7.251160
1005.994, 12.18219
1006.476, 16.04245
1006.958, 18.55951
1007.440, 19.57904
1007.923, 17.89447
1008.405, 13.35883
1008.887, 11.65714
1009.369, 17.02179
1009.851, 23.42084
1010.333, 30.98996
1010.815, 35.52914
1011.297, 30.37927
1011.780, 20.58133
1012.262, 15.69080
1012.744, 17.61472
1013.226, 21.77179
1013.708, 33.23383
1014.190, 37.52896
1014.672, 19.51077
1015.154, 0.2840580
1015.636, 2.216095
1016.119, 5.353516
1016.601, 10.09424
1017.083, 10.17896
1017.565, 13.88266
1018.047, 30.82428
1018.529, 42.72125
1019.011, 39.52914
1019.493, 31.96487
1019.976, 25.76486
1020.458, 21.72116
1020.940, 21.23007
1021.422, 24.02457
1021.904, 24.13519
1022.386, 13.51639
1022.868, 8.881500
1023.350, 22.95618
1023.832, 36.51645
1024.315, 32.91248
1024.797, 23.14758
1025.279, 26.23477
1025.761, 42.20471
1026.243, 49.49454
1026.725, 35.53238
1027.207, 24.27783
1027.689, 19.88022
1028.172, 20.92593
1028.654, 33.73102
1029.136, 47.77505
1029.618, 49.06879
1030.100, 38.13330
1030.582, 27.13516
1031.064, 8.270050
1031.546, 6.230804
1032.028, 48.69684
1032.511, 79.62650
1032.993, 64.38895
1033.475, 32.91861
1033.957, 14.11029
1034.439, 8.319397
1034.921, 10.43738
1035.403, 25.57578
1035.885, 36.08862
1036.368, 37.82971
1036.850, 39.55307
1037.332, 48.93570
1037.814, 55.44180
1038.296, 43.37704
1038.778, 19.89502
1039.260, 13.96292
1039.742, 36.89304
1040.224, 46.97736
1040.707, 32.97784
1041.189, 24.11621
1041.671, 32.74603
1042.153, 42.52820
1042.635, 39.85684
1043.117, 29.40701
1043.599, 22.91229
1044.081, 20.95532
1044.563, 19.95142
1045.046, 19.06500
1045.528, 21.26422
1046.010, 28.46964
1046.492, 36.73795
1046.974, 45.32333
1047.456, 51.00482
1047.938, 45.63742
1048.420, 28.11197
1048.902, 23.49451
1049.385, 36.57236
1049.867, 43.08893
1050.349, 37.29297
1050.831, 30.78271
1051.313, 30.17609
1051.795, 31.58813
1052.277, 28.89365
1052.759, 22.74338
1053.242, 20.43390
1053.724, 22.49863
1054.206, 21.30234
1054.688, 15.10526
1055.170, 14.36569
1055.652, 24.68689
1056.134, 36.32669
1056.616, 37.98825
1057.099, 32.37332
1057.581, 28.91260
1058.063, 27.43750
1058.545, 25.40204
1059.027, 22.68219
1059.509, 20.29077
1059.991, 18.64563
1060.473, 20.91589
1060.955, 29.91589
1061.438, 40.59720
1061.920, 40.41617
1062.402, 33.10495
1062.884, 34.00797
1063.366, 41.50980
1063.848, 42.24573
1064.330, 32.81931
1064.812, 23.01395
1065.294, 19.55463
1065.777, 21.78510
1066.259, 34.20566
1066.741, 48.57034
1067.223, 46.35489
1067.705, 33.87311
1068.187, 27.13727
1068.669, 27.74435
1069.151, 29.07730
1069.634, 28.10022
1070.116, 26.84290
1070.598, 29.59946
1071.080, 30.64413
1071.562, 20.69116
1072.044, 6.699890
1072.526, 3.476196
1073.008, 7.888824
1073.490, 3.093872
1073.973, 11.41068
1074.455, 23.48819
1074.937, 26.29910
1075.419, 23.96295
1075.901, 13.97885
1076.383, 4.757050
1076.865, 5.069519
1077.347, 11.11926
1077.829, 17.54791
1078.312, 22.64359
1078.794, 22.38779
1079.276, 10.58026
1079.758, 2.730255
1080.240, 6.718109
1080.722, 12.61246
1081.204, 15.61514
1081.686, 17.15991
1082.169, 19.67352
1082.651, 22.50745
1083.133, 22.32886
1083.615, 17.98990
1084.097, 12.81641
1084.579, 0.6359560
1085.061, 3.394257
1085.543, 12.35696
1086.026, 29.21762
1086.508, 34.47894
1086.990, 31.71460
1087.472, 28.18457
1087.954, 24.01050
1088.436, 17.37991
1088.918, 4.530945
1089.400, 0.1485600
1089.882, 9.996857
1090.365, 19.38290
1090.847, 21.45514
1091.329, 17.69196
1091.811, 8.302216
1092.293, 4.479950
1092.775, 4.035522
1093.257, 11.07205
1093.739, 15.61063
1094.221, 6.628326
1094.704, 8.023590
1095.186, 29.11240
1095.668, 48.35480
1096.150, 46.60938
1096.632, 32.22333
1097.114, 20.07883
1097.596, 10.83569
1098.078, 8.301422
1098.561, 11.53439
1099.043, 15.44556
1099.525, 19.11688
1100.007, 25.71118
1100.489, 37.28284
1100.971, 45.72806
1101.453, 38.12793
1101.935, 24.44171
1102.417, 20.68735
1102.900, 21.88425
1103.382, 17.98593
1103.864, 10.34619
1104.346, 7.385712
1104.828, 11.21909
1105.310, 13.93958
1105.792, 8.498932
1106.274, 3.686340
1106.756, 6.643555
1107.239, 12.20111
1107.721, 15.96902
1108.203, 18.88358
1108.685, 24.25833
1109.167, 31.15567
1109.649, 32.82272
1110.131, 23.71780
1110.613, 18.34137
1111.096, 27.13913
1111.578, 32.07315
1112.060, 20.05298
1112.542, 6.148529
1113.024, 4.253113
1113.506, 10.28415
1113.988, 12.34830
1114.470, 9.135284
1114.953, 10.10986
1115.435, 20.25638
1115.917, 24.05679
1116.399, 16.77356
1116.881, 8.020905
1117.363, 0.3988340
1117.845, 2.321930
1118.327, 6.449951
1118.809, 23.28708
1119.292, 30.39783
1119.774, 27.41077
1120.256, 16.00226
1120.738, 4.677551
1121.220, 14.58640
1121.702, 7.594757
1122.184, 4.606354
1122.666, 14.05008
1123.148, 20.90762
1123.631, 26.49713
1124.113, 29.43942
1124.595, 24.63934
1125.077, 15.41711
1125.559, 12.91043
1126.041, 17.53635
1126.523, 23.74954
1127.005, 29.09329
1127.488, 31.28198
1127.970, 26.27307
1128.452, 20.50418
1128.934, 22.62430
1129.416, 26.90991
1129.898, 24.96277
1130.380, 20.36182
1130.862, 22.68173
1131.344, 31.81564
1131.827, 35.56381
1132.309, 27.60242
1132.791, 19.40210
1133.273, 11.59232
1133.755, 9.463837
1134.237, 21.74396
1134.719, 35.13760
1135.201, 37.37476
1135.683, 31.89478
1136.166, 27.48627
1136.648, 24.74146
1137.130, 21.13126
1137.612, 13.79041
1138.094, 11.74997
1138.576, 18.32297
1139.058, 25.23193
1139.540, 29.63742
1140.023, 31.42371
1140.505, 30.08600
1140.987, 26.47360
1141.469, 23.41068
1141.951, 20.92712
1142.433, 17.64706
1142.915, 13.36273
1143.397, 12.78857
1143.880, 16.44635
1144.362, 18.82315
1144.844, 16.68951
1145.326, 13.45197
1145.808, 14.13364
1146.290, 15.87473
1146.772, 11.13388
1147.254, 4.014038
1147.736, 4.067780
1148.219, 9.671875
1148.701, 7.348114
1149.183, 15.52701
1149.665, 20.02777
1150.147, 20.70706
1150.629, 7.507324
1151.111, 12.57324
1151.593, 10.44348
1152.075, 8.018524
1152.558, 15.60922
1153.040, 4.740356
1153.522, 12.17239
1154.004, 12.29889
1154.486, 15.76895
1154.968, 11.99884
1155.450, 10.46490
1155.932, 16.17325
1156.415, 17.87100
1156.897, 13.26727
1157.379, 16.94943
1157.861, 5.843018
1158.343, 7.711670
1158.825, 15.18527
1159.307, 10.94516
1159.789, 14.75934
1160.271, 15.50589
1160.754, 2.596191
1161.236, 13.75082
1161.718, 14.31589
1162.200, 4.115265
1162.682, 14.33438
1163.164, 5.617950
1163.646, 3.660400
1164.128, 6.789307
1164.610, 4.616089
1165.093, 10.80280
1165.575, 8.936249
1166.057, 6.365387
1166.539, 6.920197
1167.021, 1.423126
1167.503, 6.741058
1167.985, 3.629120
1168.467, 6.122955
1168.950, 5.304077
1169.432, 5.840210
1169.914, 8.016113
1170.396, 10.42902
1170.878, 11.80579
1171.360, 12.34070
1171.842, 12.42551
1172.324, 12.06802
1172.807, 12.38434
1173.289, 13.52469
1173.771, 15.25015
1174.253, 18.51584
1174.735, 20.48419
1175.217, 20.41812
1175.699, 17.31940
1176.181, 9.385101
1176.663, 1.107147
1177.146, 3.645844
1177.628, 14.24136
1178.110, 22.01807
1178.592, 26.70853
1179.074, 26.82980
1179.556, 22.53308
1180.038, 14.13434
1180.520, 2.416046
1181.002, 5.199860
1181.485, 1.932373
1181.967, 6.024750
1182.449, 13.78622
1182.931, 19.95566
1183.413, 24.06668
1183.895, 24.58694
1184.377, 15.01456
1184.859, 0.4922790
1185.342, 2.102997
1185.824, 12.32202
1186.306, 22.30533
1186.788, 18.42117
1187.270, 13.63120
1187.752, 9.491760
1188.234, 7.139893
1188.716, 7.662323
1189.198, 9.713898
1189.681, 13.05927
1190.163, 16.31244
1190.645, 13.76047
1191.127, 4.037537
1191.609, 4.719269
1192.091, 17.06992
1192.573, 24.51749
1193.055, 24.26596
1193.537, 24.77972
1194.020, 29.94257
1194.502, 32.36023
1194.984, 22.84973
1195.466, 11.07959
1195.948, 15.76331
1196.430, 27.57123
1196.912, 30.98401
1197.394, 27.71866
1197.877, 20.35559
1198.359, 11.84766
1198.841, 9.156128
1199.323, 14.71796
1199.805, 21.43106
1200.287, 30.69809
1200.769, 33.70636
1201.251, 22.35873
1201.734, 10.64929
1202.216, 7.171265
1202.698, 7.618988
1203.180, 6.927734
1203.662, 5.884674
1204.144, 7.536804
1204.626, 12.63565
1205.108, 14.16162
1205.590, 11.09442
1206.073, 11.23074
1206.555, 15.85168
1207.037, 21.67697
1207.519, 26.64554
1208.001, 28.43793
1208.483, 22.70566
1208.965, 13.97049
1209.447, 10.19720
1209.929, 9.093079
1210.412, 6.057068
1210.894, 3.876831
1211.376, 12.40430
1211.858, 27.84076
1212.340, 34.72095
1212.822, 28.60648
1213.304, 23.24182
1213.786, 28.89383
1214.269, 29.98990
1214.751, 12.98523
1215.233, 0.6011660
1215.715, 11.71378
1216.197, 26.04648
1216.679, 24.81546
1217.161, 13.48056
1217.643, 3.925537
1218.125, 3.955322
1218.608, 1.060181
1219.090, 14.11249
1219.572, 19.60019
1220.054, 12.97638
1220.536, 6.574280
1221.018, 4.760712
1221.500, 7.224945
1221.982, 14.67307
1222.464, 20.66446
1222.947, 12.56192
1223.429, 1.607208
1223.911, 6.317627
1224.393, 16.43448
1224.875, 14.61005
1225.357, 5.816467
1225.839, 5.353760
1226.321, 11.84991
1226.804, 16.62161
1227.286, 8.608459
1227.768, 4.986481
1228.250, 13.79471
1228.732, 19.48935
1229.214, 15.63110
1229.696, 12.96490
1230.178, 20.76321
1230.661, 29.13089
1231.143, 21.67914
1231.625, 3.512268
1232.107, 0.1456300
1232.589, 8.649200
1233.071, 7.782959
1233.553, 0.0000000E+00
##END=



