##NAMES=Shibkovite
##RRUFFID=R080040
##IDEAL CHEMISTRY=K_2_Ca_2_(Zn^2+^_3_Si_12_)O_30_
##LOCALITY=Dara-i-Pioz Glacier, Alayskiy (Alai) Range, Tien Shan Mts, Region of Republican Subordination, Tajikistan
##OWNER=RRUFF
##SOURCE=Michael Scott
##DESCRIPTION=Colorless, vitreous, massive containing some black inclusions. Sample fluoresces neon-orange under SWUV light.
##STATUS=The identification of this mineral has been confirmed only by single crystal X-ray diffraction.
##URL=rruff.info/R080040
140.9623, 16111.83
141.4444, 16249.83
141.9265, 16344.68
142.4086, 16383.01
142.8907, 16417.67
143.3728, 16463.65
143.8550, 16522.89
144.3371, 16573.13
144.8192, 16615.51
145.3013, 16648.17
145.7834, 16664.62
146.2655, 16650.36
146.7477, 16644.36
147.2298, 16658.18
147.7119, 16694.05
148.1940, 16744.88
148.6761, 16825.69
149.1582, 16919.23
149.6404, 16985.41
150.1225, 17003.64
150.6046, 17016.49
151.0867, 17037.87
151.5688, 17065.58
152.0509, 17104.94
152.5331, 17168.81
153.0152, 17245.99
153.4973, 17301.84
153.9794, 17306.12
154.4615, 17308.74
154.9436, 17330.89
155.4258, 17401.28
155.9079, 17458.28
156.3900, 17490.60
156.8721, 17502.31
157.3542, 17514.72
157.8363, 17518.94
158.3185, 17532.46
158.8006, 17566.07
159.2827, 17658.60
159.7648, 17734.65
160.2469, 17771.71
160.7290, 17773.13
161.2112, 17767.97
161.6933, 17751.64
162.1754, 17739.36
162.6575, 17743.73
163.1396, 17769.11
163.6217, 17811.07
164.1039, 17877.84
164.5860, 17968.46
165.0681, 18047.61
165.5502, 18092.85
166.0323, 18119.66
166.5145, 18146.37
166.9966, 18185.10
167.4787, 18221.44
167.9608, 18242.27
168.4429, 18246.00
168.9250, 18255.30
169.4072, 18287.02
169.8893, 18332.92
170.3714, 18380.04
170.8535, 18429.78
171.3356, 18474.88
171.8177, 18505.75
172.2999, 18519.74
172.7820, 18535.08
173.2641, 18570.80
173.7462, 18618.50
174.2283, 18660.35
174.7104, 18680.45
175.1926, 18693.26
175.6747, 18716.18
176.1568, 18752.41
176.6389, 18791.66
177.1210, 18825.36
177.6031, 18854.07
178.0853, 18880.14
178.5674, 18897.46
179.0495, 18914.96
179.5316, 18948.69
180.0137, 19003.69
180.4958, 19067.57
180.9780, 19141.24
181.4601, 19218.70
181.9422, 19267.82
182.4243, 19232.39
182.9064, 19156.10
183.3885, 19142.58
183.8707, 19222.00
184.3528, 19338.81
184.8349, 19421.29
185.3170, 19469.48
185.7991, 19493.23
186.2812, 19479.57
186.7633, 19442.17
187.2455, 19431.69
187.7276, 19461.29
188.2097, 19513.88
188.6918, 19562.00
189.1739, 19605.30
189.6560, 19644.49
190.1382, 19681.03
190.6203, 19714.63
191.1024, 19744.02
191.5845, 19769.63
192.0666, 19791.14
192.5487, 19805.71
193.0309, 19813.11
193.5130, 19821.34
193.9951, 19840.08
194.4772, 19868.82
194.9593, 19890.21
195.4414, 19895.59
195.9236, 19894.11
196.4057, 19917.26
196.8878, 19967.03
197.3699, 20028.27
197.8520, 20096.46
198.3341, 20173.01
198.8163, 20220.63
199.2984, 20216.20
199.7805, 20178.51
200.2626, 20206.44
200.7447, 20315.59
201.2268, 20429.82
201.7090, 20465.03
202.1911, 20411.43
202.6732, 20372.53
203.1553, 20371.50
203.6374, 20404.85
204.1195, 20455.81
204.6017, 20531.37
205.0838, 20606.49
205.5659, 20654.39
206.0480, 20670.96
206.5301, 20683.12
207.0122, 20691.69
207.4944, 20698.71
207.9765, 20732.77
208.4586, 20805.04
208.9407, 20881.36
209.4228, 20922.03
209.9049, 20916.57
210.3871, 20916.80
210.8692, 20936.21
211.3513, 20973.81
211.8334, 21007.12
212.3155, 21030.32
212.7976, 21059.02
213.2798, 21117.69
213.7619, 21224.07
214.2440, 21306.04
214.7261, 21340.22
215.2082, 21325.89
215.6903, 21326.14
216.1725, 21344.28
216.6546, 21372.33
217.1367, 21400.95
217.6188, 21427.66
218.1009, 21461.70
218.5830, 21508.38
219.0652, 21569.09
219.5473, 21618.26
220.0294, 21651.07
220.5115, 21678.73
220.9936, 21713.90
221.4757, 21759.78
221.9579, 21805.75
222.4400, 21849.95
222.9221, 21892.64
223.4042, 21933.20
223.8863, 21976.36
224.3684, 22013.08
224.8506, 22031.55
225.3327, 22022.51
225.8148, 22014.99
226.2969, 22014.32
226.7790, 22020.48
227.2611, 22039.08
227.7433, 22075.04
228.2254, 22119.71
228.7075, 22165.55
229.1896, 22221.50
229.6717, 22261.56
230.1538, 22271.18
230.6360, 22244.36
231.1181, 22254.27
231.6002, 22314.60
232.0823, 22398.41
232.5644, 22479.76
233.0465, 22573.95
233.5287, 22635.71
234.0108, 22639.45
234.4929, 22575.51
234.9750, 22569.16
235.4571, 22655.81
235.9392, 22765.54
236.4214, 22820.57
236.9035, 22785.80
237.3856, 22760.40
237.8677, 22765.24
238.3498, 22802.14
238.8319, 22850.54
239.3141, 22925.55
239.7962, 22998.36
240.2783, 23034.11
240.7604, 22996.79
241.2425, 22992.08
241.7246, 23055.65
242.2068, 23194.17
242.6889, 23282.42
243.1710, 23291.12
243.6531, 23277.32
244.1352, 23299.47
244.6173, 23380.39
245.0995, 23453.33
245.5816, 23507.18
246.0637, 23541.77
246.5458, 23556.82
247.0279, 23531.16
247.5100, 23507.84
247.9922, 23531.06
248.4743, 23628.83
248.9564, 23717.18
249.4385, 23776.79
249.9206, 23808.79
250.4027, 23863.01
250.8848, 23955.60
251.3670, 24052.58
251.8491, 24125.19
252.3312, 24174.21
252.8133, 24196.87
253.2954, 24181.71
253.7775, 24132.32
254.2597, 24108.94
254.7418, 24112.63
255.2239, 24140.74
255.7060, 24196.80
256.1881, 24301.57
256.6703, 24384.63
257.1524, 24432.57
257.6345, 24449.00
258.1166, 24463.81
258.5987, 24472.46
259.0808, 24485.99
259.5630, 24514.04
260.0451, 24561.57
260.5272, 24609.10
261.0093, 24654.58
261.4914, 24698.23
261.9735, 24741.11
262.4557, 24786.18
262.9378, 24824.93
263.4199, 24847.85
263.9020, 24846.20
264.3841, 24858.89
264.8662, 24897.11
265.3484, 24951.09
265.8305, 24980.21
266.3126, 24971.02
266.7947, 24966.09
267.2768, 24993.03
267.7589, 25060.65
268.2411, 25130.64
268.7232, 25206.24
269.2053, 25281.20
269.6874, 25336.04
270.1695, 25366.37
270.6516, 25389.69
271.1338, 25412.88
271.6159, 25434.35
272.0980, 25463.59
272.5801, 25500.11
273.0622, 25544.39
273.5443, 25602.10
274.0265, 25678.88
274.5086, 25744.88
274.9907, 25774.66
275.4728, 25759.89
275.9549, 25781.88
276.4370, 25855.56
276.9192, 25948.04
277.4013, 25995.49
277.8834, 25990.88
278.3655, 25982.36
278.8476, 25989.75
279.3297, 26013.96
279.8118, 26048.55
280.2939, 26098.69
280.7761, 26149.97
281.2582, 26179.41
281.7403, 26186.09
282.2224, 26185.17
282.7045, 26166.41
283.1866, 26135.71
283.6688, 26183.47
284.1509, 26332.22
284.6330, 26487.32
285.1151, 26509.85
285.5972, 26399.84
286.0793, 26321.58
286.5615, 26339.65
287.0436, 26435.02
287.5257, 26524.70
288.0078, 26609.55
288.4899, 26684.57
288.9720, 26742.67
289.4542, 26785.17
289.9363, 26824.62
290.4184, 26859.76
290.9005, 26896.59
291.3826, 26961.45
291.8647, 27056.89
292.3469, 27145.67
292.8290, 27187.50
293.3111, 27191.84
293.7932, 27205.33
294.2753, 27244.42
294.7574, 27293.00
295.2396, 27318.53
295.7217, 27321.90
296.2038, 27316.36
296.6859, 27293.54
297.1680, 27268.58
297.6501, 27289.85
298.1323, 27382.50
298.6144, 27496.48
299.0965, 27562.58
299.5786, 27585.84
300.0607, 27595.31
300.5428, 27595.23
301.0250, 27597.11
301.5071, 27628.02
301.9892, 27700.05
302.4713, 27776.24
302.9534, 27809.23
303.4355, 27809.92
303.9177, 27816.13
304.3998, 27856.79
304.8819, 27911.64
305.3640, 27950.40
305.8461, 27967.64
306.3282, 27987.35
306.8104, 28038.22
307.2925, 28107.81
307.7746, 28169.09
308.2567, 28204.02
308.7388, 28228.73
309.2209, 28260.30
309.7031, 28300.29
310.1852, 28335.22
310.6673, 28348.73
311.1494, 28353.44
311.6315, 28367.19
312.1136, 28397.40
312.5958, 28438.47
313.0779, 28492.03
313.5600, 28556.12
314.0421, 28615.16
314.5242, 28647.68
315.0063, 28674.69
315.4885, 28717.23
315.9706, 28801.88
316.4527, 28882.08
316.9348, 28932.12
317.4169, 28957.73
317.8990, 28985.39
318.3812, 29037.28
318.8633, 29088.58
319.3454, 29120.79
319.8275, 29119.40
320.3096, 29116.81
320.7917, 29116.95
321.2739, 29123.73
321.7560, 29146.15
322.2381, 29210.42
322.7202, 29273.54
323.2023, 29310.73
323.6844, 29299.60
324.1666, 29310.90
324.6487, 29378.55
325.1308, 29471.67
325.6129, 29541.74
326.0950, 29561.73
326.5771, 29575.95
327.0593, 29595.51
327.5414, 29620.67
328.0235, 29649.81
328.5056, 29680.71
328.9877, 29715.67
329.4698, 29756.59
329.9520, 29807.94
330.4341, 29860.03
330.9162, 29913.19
331.3983, 29967.76
331.8804, 30015.24
332.3625, 30044.23
332.8447, 30076.23
333.3268, 30132.05
333.8089, 30250.10
334.2910, 30322.52
334.7731, 30323.39
335.2552, 30267.36
335.7374, 30230.17
336.2195, 30207.40
336.7016, 30209.70
337.1837, 30246.92
337.6658, 30328.59
338.1479, 30411.65
338.6301, 30493.28
339.1122, 30574.32
339.5943, 30664.07
340.0764, 30773.32
340.5585, 30851.61
341.0406, 30859.37
341.5228, 30789.53
342.0049, 30759.64
342.4870, 30775.69
342.9691, 30818.40
343.4512, 30868.30
343.9333, 30927.61
344.4155, 30968.29
344.8976, 30970.81
345.3797, 30946.11
345.8618, 30946.23
346.3439, 30972.64
346.8260, 31015.25
347.3082, 31078.71
347.7903, 31156.72
348.2724, 31203.45
348.7545, 31190.64
349.2366, 31156.84
349.7188, 31185.35
350.2009, 31273.02
350.6830, 31367.64
351.1651, 31430.39
351.6472, 31472.04
352.1293, 31516.46
352.6115, 31568.27
353.0936, 31620.76
353.5757, 31672.35
354.0578, 31719.84
354.5399, 31753.07
355.0220, 31754.56
355.5042, 31743.79
355.9863, 31737.41
356.4684, 31734.07
356.9505, 31756.63
357.4326, 31855.91
357.9147, 31987.85
358.3969, 32080.94
358.8790, 32083.61
359.3611, 32054.31
359.8432, 32014.49
360.3253, 31967.16
360.8074, 31957.58
361.2896, 32041.83
361.7717, 32158.77
362.2538, 32252.20
362.7359, 32289.79
363.2180, 32320.52
363.7001, 32369.97
364.1823, 32429.90
364.6644, 32467.97
365.1465, 32435.30
365.6286, 32408.57
366.1107, 32435.85
366.5928, 32571.81
367.0750, 32667.21
367.5571, 32658.63
368.0392, 32602.25
368.5213, 32594.92
369.0034, 32691.77
369.4855, 32793.82
369.9677, 32875.34
370.4498, 32931.69
370.9319, 32982.26
371.4140, 33020.63
371.8961, 33055.68
372.3782, 33095.98
372.8604, 33145.16
373.3425, 33191.74
373.8246, 33236.15
374.3067, 33277.08
374.7888, 33304.69
375.2709, 33312.00
375.7531, 33318.90
376.2352, 33343.32
376.7173, 33395.50
377.1994, 33422.76
377.6815, 33411.43
378.1636, 33385.09
378.6458, 33399.52
379.1279, 33461.36
379.6100, 33531.23
380.0921, 33593.12
380.5742, 33647.21
381.0563, 33704.88
381.5385, 33768.28
382.0206, 33825.85
382.5027, 33857.22
382.9848, 33865.10
383.4669, 33874.77
383.9490, 33895.91
384.4312, 33922.99
384.9133, 33933.56
385.3954, 33928.61
385.8775, 33945.90
386.3596, 34043.10
386.8417, 34182.10
387.3239, 34279.88
387.8060, 34305.59
388.2881, 34310.89
388.7702, 34363.00
389.2523, 34444.10
389.7344, 34499.72
390.2166, 34468.56
390.6987, 34415.45
391.1808, 34407.33
391.6629, 34455.16
392.1450, 34511.77
392.6271, 34547.27
393.1093, 34573.22
393.5914, 34604.47
394.0735, 34657.78
394.5556, 34708.41
395.0377, 34747.07
395.5198, 34773.97
396.0020, 34790.85
396.4841, 34776.57
396.9662, 34766.70
397.4483, 34784.61
397.9304, 34840.27
398.4125, 34915.35
398.8947, 35028.63
399.3768, 35159.70
399.8589, 35258.61
400.3410, 35289.65
400.8231, 35317.00
401.3052, 35367.91
401.7874, 35462.00
402.2695, 35496.45
402.7516, 35412.73
403.2337, 35312.39
403.7158, 35318.43
404.1979, 35496.91
404.6800, 35639.65
405.1621, 35696.58
405.6443, 35682.85
406.1264, 35709.55
406.6085, 35788.84
407.0906, 35878.13
407.5727, 35956.86
408.0548, 36027.38
408.5370, 36051.79
409.0191, 36011.32
409.5012, 35949.57
409.9833, 35951.81
410.4654, 36017.19
410.9475, 36083.72
411.4297, 36122.34
411.9118, 36138.36
412.3939, 36138.53
412.8760, 36119.94
413.3581, 36122.21
413.8402, 36213.34
414.3224, 36356.18
414.8045, 36457.45
415.2866, 36473.37
415.7687, 36456.74
416.2508, 36467.35
416.7329, 36499.79
417.2151, 36529.04
417.6972, 36517.65
418.1793, 36508.39
418.6614, 36555.75
419.1435, 36685.60
419.6256, 36796.27
420.1078, 36802.83
420.5899, 36759.41
421.0720, 36746.31
421.5541, 36834.78
422.0362, 36918.77
422.5183, 36941.70
423.0005, 36903.46
423.4826, 36896.25
423.9647, 36972.28
424.4468, 37067.23
424.9289, 37137.78
425.4110, 37135.83
425.8932, 37163.89
426.3753, 37235.70
426.8574, 37337.73
427.3395, 37442.21
427.8216, 37562.24
428.3037, 37664.73
428.7859, 37738.97
429.2680, 37783.66
429.7501, 37800.67
430.2322, 37773.89
430.7143, 37741.66
431.1964, 37751.79
431.6786, 37815.00
432.1607, 37864.27
432.6428, 37884.56
433.1249, 37884.13
433.6070, 37886.89
434.0891, 37893.40
434.5713, 37904.39
435.0534, 37923.39
435.5355, 37948.90
436.0176, 37971.31
436.4997, 37989.54
436.9818, 38008.80
437.4640, 38031.69
437.9461, 38060.47
438.4282, 38102.44
438.9103, 38178.53
439.3924, 38257.77
439.8745, 38288.20
440.3567, 38276.41
440.8388, 38280.63
441.3209, 38345.58
441.8030, 38442.39
442.2851, 38546.20
442.7672, 38663.45
443.2494, 38759.10
443.7315, 38789.87
444.2136, 38787.93
444.6957, 38811.19
445.1778, 38924.30
445.6599, 39024.38
446.1421, 39050.58
446.6242, 38989.80
447.1063, 38982.20
447.5884, 39123.14
448.0705, 39279.71
448.5526, 39350.10
449.0348, 39237.84
449.5169, 39176.66
449.9990, 39196.29
450.4811, 39272.33
450.9632, 39336.05
451.4453, 39387.18
451.9275, 39427.68
452.4096, 39458.71
452.8917, 39480.11
453.3738, 39486.86
453.8559, 39472.58
454.3380, 39459.37
454.8202, 39471.39
455.3023, 39508.80
455.7844, 39562.77
456.2665, 39642.92
456.7486, 39725.57
457.2307, 39745.36
457.7129, 39707.36
458.1950, 39679.91
458.6771, 39722.65
459.1592, 39803.14
459.6413, 39851.54
460.1234, 39859.31
460.6056, 39863.75
461.0877, 39894.23
461.5698, 39944.75
462.0519, 40005.62
462.5340, 40094.24
463.0161, 40173.18
463.4983, 40214.25
463.9804, 40223.66
464.4625, 40228.99
464.9446, 40223.14
465.4267, 40230.87
465.9088, 40271.68
466.3910, 40363.67
466.8731, 40446.14
467.3552, 40495.78
467.8373, 40533.21
468.3194, 40584.76
468.8015, 40669.95
469.2837, 40746.64
469.7658, 40809.17
470.2479, 40857.65
470.7300, 40888.69
471.2121, 40883.99
471.6942, 40889.13
472.1764, 40939.36
472.6585, 41050.72
473.1406, 41116.70
473.6227, 41120.71
474.1048, 41102.83
474.5869, 41132.51
475.0691, 41211.35
475.5512, 41264.98
476.0333, 41253.18
476.5154, 41209.88
476.9975, 41230.70
477.4796, 41313.20
477.9618, 41399.36
478.4439, 41437.59
478.9260, 41451.89
479.4081, 41491.64
479.8902, 41570.82
480.3723, 41644.27
480.8545, 41658.25
481.3366, 41641.63
481.8187, 41644.48
482.3008, 41726.62
482.7829, 41799.30
483.2650, 41790.36
483.7472, 41713.51
484.2293, 41676.90
484.7114, 41748.77
485.1935, 41849.22
485.6756, 41932.16
486.1577, 41990.52
486.6399, 42037.23
487.1220, 42065.46
487.6041, 42086.06
488.0862, 42111.48
488.5683, 42140.60
489.0504, 42177.35
489.5326, 42224.79
490.0147, 42281.05
490.4968, 42331.76
490.9789, 42376.75
491.4610, 42414.18
491.9431, 42436.01
492.4253, 42441.13
492.9074, 42468.04
493.3895, 42520.56
493.8716, 42590.58
494.3537, 42681.73
494.8358, 42787.10
495.3180, 42870.13
495.8001, 42916.59
496.2822, 42934.64
496.7643, 42918.70
497.2464, 42877.07
497.7285, 42857.41
498.2107, 42899.54
498.6928, 42973.91
499.1749, 43056.27
499.6570, 43146.18
500.1391, 43223.36
500.6212, 43272.45
501.1034, 43302.93
501.5855, 43326.61
502.0676, 43324.72
502.5497, 43338.21
503.0318, 43383.64
503.5139, 43456.21
503.9961, 43527.44
504.4782, 43595.41
504.9603, 43664.04
505.4424, 43740.24
505.9245, 43835.92
506.4066, 43890.65
506.8888, 43883.76
507.3709, 43863.28
507.8530, 43885.36
508.3351, 43959.59
508.8172, 44021.50
509.2993, 44057.38
509.7815, 44076.80
510.2636, 44098.47
510.7457, 44122.35
511.2278, 44155.47
511.7099, 44213.23
512.1920, 44280.59
512.6741, 44320.29
513.1563, 44330.74
513.6384, 44332.60
514.1205, 44336.73
514.6026, 44345.52
515.0847, 44361.73
515.5668, 44382.99
516.0490, 44417.91
516.5311, 44485.17
517.0132, 44569.62
517.4953, 44640.31
517.9774, 44706.22
518.4595, 44738.74
518.9417, 44695.26
519.4238, 44568.24
519.9059, 44522.95
520.3880, 44666.32
520.8701, 44827.14
521.3522, 44910.49
521.8344, 44860.99
522.3165, 44847.17
522.7986, 44880.06
523.2807, 44940.67
523.7628, 44998.92
524.2449, 45055.70
524.7271, 45107.96
525.2092, 45149.73
525.6913, 45188.25
526.1734, 45261.67
526.6555, 45371.14
527.1376, 45467.88
527.6198, 45508.28
528.1019, 45510.72
528.5840, 45507.13
529.0661, 45495.93
529.5482, 45514.48
530.0303, 45643.89
530.5125, 45814.39
530.9946, 45918.17
531.4767, 45865.16
531.9588, 45794.32
532.4409, 45765.09
532.9230, 45774.41
533.4052, 45813.13
533.8873, 45907.88
534.3694, 46004.98
534.8515, 46085.38
535.3336, 46150.17
535.8157, 46187.25
536.2979, 46174.99
536.7800, 46155.68
537.2621, 46161.41
537.7442, 46205.21
538.2263, 46238.15
538.7084, 46246.28
539.1906, 46254.77
539.6727, 46326.78
540.1548, 46471.05
540.6369, 46585.92
541.1190, 46622.24
541.6011, 46608.27
542.0833, 46633.73
542.5654, 46696.24
543.0475, 46746.16
543.5296, 46719.11
544.0117, 46664.38
544.4938, 46664.61
544.9760, 46735.40
545.4581, 46819.32
545.9402, 46868.90
546.4223, 46906.75
546.9044, 46962.03
547.3865, 47076.68
547.8687, 47174.52
548.3508, 47212.30
548.8329, 47210.58
549.3150, 47235.68
549.7971, 47345.70
550.2792, 47436.34
550.7614, 47463.56
551.2435, 47418.39
551.7256, 47427.20
552.2077, 47525.24
552.6898, 47626.54
553.1719, 47661.34
553.6541, 47622.42
554.1362, 47573.29
554.6183, 47507.36
555.1004, 47459.17
555.5825, 47500.24
556.0646, 47617.78
556.5468, 47729.56
557.0289, 47802.20
557.5110, 47853.97
557.9931, 47909.03
558.4752, 47966.85
558.9573, 48025.31
559.4395, 48100.78
559.9216, 48165.00
560.4037, 48183.55
560.8858, 48145.88
561.3679, 48125.68
561.8500, 48171.74
562.3322, 48239.08
562.8143, 48289.36
563.2964, 48310.71
563.7785, 48321.36
564.2606, 48306.71
564.7427, 48287.10
565.2249, 48307.94
565.7070, 48397.90
566.1891, 48464.06
566.6712, 48466.95
567.1533, 48421.40
567.6354, 48433.95
568.1176, 48512.47
568.5997, 48600.94
569.0818, 48663.79
569.5639, 48704.96
570.0460, 48737.72
570.5281, 48760.32
571.0103, 48792.17
571.4924, 48858.27
571.9745, 48945.72
572.4566, 49035.27
572.9387, 49129.41
573.4208, 49209.57
573.9030, 49253.32
574.3851, 49274.98
574.8672, 49306.46
575.3493, 49385.93
575.8314, 49449.76
576.3135, 49453.61
576.7957, 49396.36
577.2778, 49398.65
577.7599, 49512.86
578.2420, 49631.45
578.7241, 49693.44
579.2062, 49679.00
579.6884, 49696.55
580.1705, 49762.17
580.6526, 49828.99
581.1347, 49825.74
581.6168, 49756.16
582.0989, 49722.27
582.5811, 49748.89
583.0632, 49816.19
583.5453, 49919.46
584.0274, 50043.88
584.5095, 50130.73
584.9916, 50120.32
585.4738, 50079.47
585.9559, 50063.92
586.4380, 50073.73
586.9201, 50098.27
587.4022, 50133.30
587.8843, 50180.53
588.3665, 50240.90
588.8486, 50314.30
589.3307, 50400.29
589.8128, 50535.88
590.2949, 50661.30
590.7770, 50717.99
591.2592, 50668.34
591.7413, 50636.66
592.2234, 50632.52
592.7055, 50655.64
593.1876, 50717.22
593.6697, 50822.26
594.1519, 50909.71
594.6340, 50950.97
595.1161, 50961.16
595.5982, 50968.16
596.0803, 50973.37
596.5624, 50989.11
597.0446, 51028.08
597.5267, 51080.39
598.0088, 51136.18
598.4909, 51195.45
598.9730, 51246.32
599.4551, 51266.97
599.9373, 51283.29
600.4194, 51319.21
600.9015, 51391.46
601.3836, 51465.09
601.8657, 51552.94
602.3478, 51632.43
602.8300, 51665.76
603.3121, 51619.36
603.7942, 51594.55
604.2763, 51623.01
604.7584, 51686.76
605.2405, 51697.91
605.7227, 51644.77
606.2048, 51628.85
606.6869, 51750.87
607.1690, 51954.11
607.6511, 52031.77
608.1332, 51983.25
608.6154, 51917.19
609.0975, 51901.32
609.5796, 51929.23
610.0617, 52009.31
610.5438, 52168.04
611.0259, 52282.63
611.5081, 52228.96
611.9902, 52114.09
612.4723, 52064.74
612.9544, 52154.17
613.4365, 52260.93
613.9186, 52386.17
614.4008, 52511.80
614.8829, 52594.99
615.3650, 52624.13
615.8471, 52630.00
616.3292, 52609.40
616.8113, 52570.45
617.2935, 52577.92
617.7756, 52636.46
618.2577, 52701.65
618.7398, 52733.98
619.2219, 52750.11
619.7040, 52811.72
620.1862, 52925.12
620.6683, 53019.37
621.1504, 53002.59
621.6325, 52944.28
622.1146, 52935.77
622.5967, 53023.83
623.0789, 53108.98
623.5610, 53151.12
624.0431, 53164.58
624.5252, 53169.47
625.0073, 53152.96
625.4894, 53148.49
625.9716, 53154.21
626.4537, 53175.57
626.9358, 53239.04
627.4179, 53364.92
627.9000, 53474.84
628.3821, 53534.38
628.8643, 53550.49
629.3464, 53559.04
629.8285, 53558.14
630.3106, 53581.20
630.7927, 53684.14
631.2748, 53819.44
631.7570, 53890.09
632.2391, 53883.28
632.7212, 53863.85
633.2033, 53872.05
633.6854, 53897.84
634.1675, 53930.28
634.6497, 53964.73
635.1318, 54011.83
635.6139, 54105.99
636.0960, 54207.07
636.5781, 54248.41
637.0602, 54176.82
637.5424, 54135.38
638.0245, 54155.56
638.5066, 54217.34
638.9887, 54254.21
639.4708, 54260.02
639.9529, 54277.98
640.4351, 54328.29
640.9172, 54403.50
641.3993, 54488.25
641.8814, 54579.96
642.3635, 54657.28
642.8456, 54697.48
643.3278, 54717.03
643.8099, 54730.74
644.2920, 54739.01
644.7741, 54754.98
645.2562, 54790.11
645.7383, 54833.27
646.2205, 54874.18
646.7026, 54901.54
647.1847, 54946.49
647.6668, 55035.33
648.1489, 55128.00
648.6310, 55169.42
649.1132, 55139.60
649.5953, 55125.61
650.0774, 55144.20
650.5595, 55184.09
651.0416, 55225.89
651.5237, 55268.72
652.0059, 55303.80
652.4880, 55324.50
652.9701, 55337.63
653.4522, 55345.77
653.9343, 55353.16
654.4164, 55379.36
654.8986, 55468.48
655.3807, 55555.26
655.8628, 55578.41
656.3449, 55527.75
656.8270, 55518.72
657.3091, 55591.29
657.7913, 55702.08
658.2734, 55842.14
658.7555, 56064.41
659.2376, 56130.22
659.7197, 55971.02
660.2018, 55770.16
660.6840, 55736.74
661.1661, 55865.96
661.6482, 55987.61
662.1303, 56080.65
662.6124, 56139.74
663.0945, 56128.96
663.5767, 56078.05
664.0588, 56062.49
664.5409, 56125.82
665.0230, 56216.24
665.5051, 56320.36
665.9872, 56425.21
666.4694, 56498.31
666.9515, 56511.10
667.4336, 56511.21
667.9157, 56514.09
668.3978, 56519.42
668.8799, 56513.25
669.3621, 56478.89
669.8442, 56467.99
670.3263, 56517.38
670.8084, 56622.64
671.2905, 56672.16
671.7726, 56658.27
672.2548, 56663.54
672.7369, 56804.39
673.2190, 57004.50
673.7011, 57086.85
674.1832, 57020.06
674.6653, 56950.82
675.1475, 56985.26
675.6296, 57073.52
676.1117, 57162.81
676.5938, 57240.52
677.0759, 57316.05
677.5580, 57406.00
678.0402, 57486.58
678.5223, 57525.83
679.0044, 57496.85
679.4865, 57483.01
679.9686, 57500.41
680.4507, 57535.27
680.9329, 57558.84
681.4150, 57571.55
681.8971, 57582.57
682.3792, 57594.46
682.8613, 57609.50
683.3434, 57633.48
683.8256, 57665.25
684.3077, 57699.11
684.7898, 57739.31
685.2719, 57775.43
685.7540, 57794.81
686.2361, 57799.02
686.7183, 57812.87
687.2004, 57844.02
687.6825, 57885.03
688.1646, 57932.18
688.6467, 57984.99
689.1288, 58043.73
689.6110, 58110.52
690.0931, 58175.81
690.5752, 58230.91
691.0573, 58275.91
691.5394, 58315.50
692.0215, 58344.91
692.5037, 58396.96
692.9858, 58550.91
693.4679, 58739.03
693.9500, 58835.21
694.4321, 58780.45
694.9142, 58710.32
695.3964, 58692.95
695.8785, 58710.78
696.3606, 58741.77
696.8427, 58817.64
697.3248, 58859.77
697.8069, 58838.71
698.2891, 58789.62
698.7712, 58788.79
699.2533, 58853.35
699.7354, 58901.80
700.2175, 58909.58
700.6996, 58894.11
701.1818, 58884.37
701.6639, 58884.60
702.1460, 58920.31
702.6281, 59059.53
703.1102, 59204.50
703.5923, 59226.58
704.0745, 59150.53
704.5566, 59101.04
705.0387, 59140.97
705.5208, 59213.61
706.0029, 59299.95
706.4850, 59399.06
706.9672, 59474.95
707.4493, 59498.59
707.9314, 59537.12
708.4135, 59642.28
708.8956, 59821.00
709.3777, 59925.96
709.8599, 59952.72
710.3420, 59935.90
710.8241, 59868.93
711.3062, 59787.59
711.7883, 59788.59
712.2704, 59892.79
712.7525, 60005.65
713.2346, 60066.66
713.7167, 60094.55
714.1989, 60104.01
714.6810, 60070.55
715.1631, 60072.82
715.6452, 60170.61
716.1273, 60287.30
716.6094, 60335.01
717.0916, 60272.87
717.5737, 60266.51
718.0558, 60352.25
718.5379, 60476.74
719.0200, 60547.06
719.5021, 60568.50
719.9843, 60581.82
720.4664, 60593.80
720.9485, 60611.17
721.4306, 60651.05
721.9127, 60702.50
722.3948, 60738.77
722.8770, 60722.91
723.3591, 60716.51
723.8412, 60752.27
724.3233, 60820.54
724.8054, 60877.80
725.2875, 60920.40
725.7697, 60953.43
726.2518, 60972.17
726.7339, 60981.85
727.2160, 61020.11
727.6981, 61090.06
728.1802, 61145.08
728.6624, 61154.86
729.1445, 61133.25
729.6266, 61095.04
730.1087, 61045.77
730.5908, 61025.20
731.0729, 61090.79
731.5551, 61170.32
732.0372, 61201.84
732.5193, 61175.89
733.0014, 61182.71
733.4835, 61283.26
733.9656, 61381.71
734.4478, 61422.63
734.9299, 61390.07
735.4120, 61424.44
735.8941, 61546.78
736.3762, 61663.70
736.8583, 61671.75
737.3405, 61602.86
737.8226, 61580.09
738.3047, 61615.92
738.7868, 61676.14
739.2689, 61748.25
739.7510, 61819.91
740.2332, 61873.53
740.7153, 61892.83
741.1974, 61926.38
741.6795, 61983.09
742.1616, 62062.59
742.6437, 62177.55
743.1259, 62396.25
743.6080, 62451.82
744.0901, 62265.34
744.5722, 62021.52
745.0543, 62010.64
745.5364, 62204.68
746.0186, 62343.05
746.5007, 62362.48
746.9828, 62338.87
747.4649, 62344.96
747.9470, 62371.51
748.4291, 62402.10
748.9113, 62434.61
749.3934, 62467.03
749.8755, 62505.07
750.3576, 62541.26
750.8397, 62558.84
751.3218, 62536.99
751.8040, 62534.18
752.2861, 62560.26
752.7682, 62609.42
753.2503, 62676.43
753.7324, 62758.84
754.2145, 62834.76
754.6967, 62904.13
755.1788, 62951.47
755.6609, 62928.32
756.1430, 62862.16
756.6251, 62829.97
757.1072, 62891.17
757.5894, 62971.84
758.0715, 63059.52
758.5536, 63143.64
759.0357, 63177.73
759.5178, 63099.27
759.9999, 63073.79
760.4821, 63172.77
760.9642, 63359.57
761.4463, 63459.57
761.9284, 63470.30
762.4105, 63456.65
762.8926, 63434.05
763.3748, 63416.75
763.8569, 63438.07
764.3390, 63490.65
764.8211, 63536.45
765.3032, 63519.50
765.7853, 63521.84
766.2675, 63610.00
766.7496, 63784.86
767.2317, 63914.66
767.7138, 63985.56
768.1959, 64024.40
768.6780, 64036.25
769.1602, 64023.74
769.6423, 64002.59
770.1244, 63970.31
770.6065, 63968.20
771.0886, 64046.84
771.5707, 64165.04
772.0529, 64249.13
772.5350, 64297.52
773.0171, 64341.01
773.4992, 64387.32
773.9813, 64440.24
774.4634, 64512.28
774.9456, 64611.23
775.4277, 64659.74
775.9098, 64626.16
776.3919, 64581.61
776.8740, 64558.67
777.3561, 64558.08
777.8383, 64605.52
778.3204, 64707.81
778.8025, 64801.67
779.2846, 64821.51
779.7667, 64804.84
780.2488, 64820.38
780.7310, 64875.32
781.2131, 64920.11
781.6952, 64924.17
782.1773, 64910.95
782.6594, 64885.48
783.1415, 64826.28
783.6237, 64842.71
784.1058, 64970.88
784.5879, 65117.45
785.0700, 65214.63
785.5521, 65262.04
786.0342, 65299.66
786.5164, 65326.85
786.9985, 65355.17
787.4806, 65394.62
787.9627, 65443.01
788.4448, 65510.14
788.9269, 65603.81
789.4091, 65659.42
789.8912, 65603.04
790.3733, 65527.97
790.8554, 65507.06
791.3375, 65558.47
791.8196, 65625.73
792.3018, 65722.82
792.7839, 65811.75
793.2660, 65852.34
793.7481, 65848.81
794.2302, 65861.62
794.7123, 65894.47
795.1945, 65940.05
795.6766, 66005.48
796.1587, 66073.35
796.6408, 66123.77
797.1229, 66152.63
797.6050, 66166.99
798.0872, 66156.65
798.5693, 66143.15
799.0514, 66144.27
799.5335, 66167.32
800.0156, 66184.29
800.4977, 66191.51
800.9799, 66204.36
801.4620, 66242.56
801.9441, 66300.38
802.4262, 66342.39
802.9083, 66362.22
803.3904, 66402.52
803.8726, 66543.22
804.3547, 66698.41
804.8368, 66773.05
805.3189, 66732.61
805.8010, 66677.56
806.2831, 66590.11
806.7653, 66526.01
807.2474, 66524.96
807.7295, 66595.12
808.2116, 66705.94
808.6937, 66874.91
809.1758, 67014.61
809.6580, 67011.71
810.1401, 66918.09
810.6222, 66861.25
811.1043, 66856.59
811.5864, 66875.66
812.0685, 66929.15
812.5507, 66978.95
813.0328, 66984.60
813.5149, 66912.68
813.9970, 66888.68
814.4791, 66943.39
814.9612, 67013.36
815.4434, 67036.84
815.9255, 67009.25
816.4076, 67088.55
816.8897, 67290.33
817.3718, 67483.38
817.8539, 67525.96
818.3361, 67491.15
818.8182, 67486.15
819.3003, 67524.50
819.7824, 67577.02
820.2645, 67661.59
820.7466, 67732.69
821.2288, 67752.30
821.7109, 67708.46
822.1930, 67673.27
822.6751, 67634.33
823.1572, 67632.36
823.6393, 67720.69
824.1215, 67877.65
824.6036, 67987.88
825.0857, 68046.48
825.5678, 68080.50
826.0499, 68096.96
826.5320, 68105.81
827.0142, 68114.09
827.4963, 68121.94
827.9784, 68134.06
828.4605, 68155.13
828.9426, 68177.34
829.4247, 68198.55
829.9069, 68219.20
830.3890, 68231.27
830.8711, 68233.88
831.3532, 68238.09
831.8353, 68242.10
832.3174, 68256.96
832.7996, 68316.98
833.2817, 68417.44
833.7638, 68504.53
834.2459, 68539.84
834.7280, 68560.55
835.2101, 68594.70
835.6923, 68643.45
836.1744, 68649.75
836.6565, 68581.45
837.1386, 68534.18
837.6207, 68556.99
838.1028, 68633.54
838.5850, 68686.28
839.0671, 68717.77
839.5492, 68765.45
840.0313, 68899.73
840.5134, 69024.23
840.9955, 69014.95
841.4777, 68902.51
841.9598, 68841.88
842.4419, 68926.16
842.9240, 69018.23
843.4061, 69081.75
843.8882, 69120.45
844.3704, 69150.50
844.8525, 69172.05
845.3346, 69184.11
845.8167, 69189.50
846.2988, 69182.48
846.7809, 69129.87
847.2631, 69054.06
847.7452, 69020.98
848.2273, 69099.77
848.7094, 69188.87
849.1915, 69259.80
849.6736, 69306.55
850.1558, 69310.59
850.6379, 69230.16
851.1200, 69207.63
851.6021, 69289.40
852.0842, 69419.54
852.5663, 69474.22
853.0485, 69468.08
853.5306, 69476.49
854.0127, 69519.37
854.4948, 69589.96
854.9769, 69716.16
855.4590, 69853.77
855.9412, 69937.25
856.4233, 69872.33
856.9054, 69853.50
857.3875, 69909.19
857.8696, 70003.35
858.3517, 70104.59
858.8339, 70216.44
859.3160, 70260.05
859.7981, 70216.03
860.2802, 70140.69
860.7623, 70081.20
861.2444, 70040.34
861.7266, 70023.46
862.2087, 70038.61
862.6908, 70061.24
863.1729, 70080.67
863.6550, 70107.45
864.1371, 70149.91
864.6193, 70214.29
865.1014, 70270.57
865.5835, 70313.58
866.0656, 70365.16
866.5477, 70472.07
867.0298, 70598.28
867.5120, 70631.23
867.9941, 70560.22
868.4762, 70514.03
868.9583, 70595.34
869.4404, 70712.87
869.9225, 70813.50
870.4047, 70892.69
870.8868, 70921.43
871.3689, 70875.34
871.8510, 70827.76
872.3331, 70816.92
872.8152, 70838.51
873.2974, 70872.86
873.7795, 70919.14
874.2616, 70961.68
874.7437, 71010.15
875.2258, 71035.49
875.7079, 70984.81
876.1901, 70878.91
876.6722, 70829.60
877.1543, 70917.37
877.6364, 70996.90
878.1185, 71030.55
878.6006, 71033.05
879.0828, 71055.19
879.5649, 71096.51
880.0470, 71135.03
880.5291, 71160.28
881.0112, 71181.76
881.4933, 71223.53
881.9755, 71269.30
882.4576, 71285.52
882.9397, 71205.41
883.4218, 71161.93
883.9039, 71209.14
884.3860, 71296.28
884.8682, 71347.70
885.3503, 71352.59
885.8324, 71399.59
886.3145, 71513.20
886.7966, 71632.49
887.2787, 71676.91
887.7609, 71670.39
888.2430, 71652.65
888.7251, 71628.12
889.2072, 71609.22
889.6893, 71595.31
890.1714, 71593.91
890.6536, 71609.63
891.1357, 71640.36
891.6178, 71706.74
892.0999, 71826.40
892.5820, 71921.18
893.0641, 71902.13
893.5463, 71810.22
894.0284, 71740.50
894.5105, 71700.04
894.9926, 71690.77
895.4747, 71739.82
895.9568, 71798.58
896.4390, 71832.11
896.9211, 71838.84
897.4032, 71872.77
897.8853, 71954.91
898.3674, 72012.59
898.8495, 72003.15
899.3317, 71955.88
899.8138, 71954.45
900.2959, 71995.38
900.7780, 72060.37
901.2601, 72192.02
901.7422, 72293.93
902.2244, 72270.49
902.7065, 72172.72
903.1886, 72132.81
903.6707, 72185.72
904.1528, 72250.91
904.6349, 72322.96
905.1171, 72391.99
905.5992, 72443.09
906.0813, 72475.66
906.5634, 72487.99
907.0455, 72471.67
907.5276, 72460.96
908.0098, 72504.58
908.4919, 72559.41
908.9740, 72571.99
909.4561, 72488.14
909.9382, 72461.95
910.4203, 72525.12
910.9025, 72604.69
911.3846, 72633.66
911.8667, 72619.62
912.3488, 72640.59
912.8309, 72700.92
913.3130, 72756.00
913.7952, 72767.79
914.2773, 72763.38
914.7594, 72751.36
915.2415, 72734.49
915.7236, 72776.47
916.2057, 72951.73
916.6879, 73086.48
917.1700, 73096.13
917.6521, 73020.41
918.1342, 73050.55
918.6163, 73175.95
919.0984, 73275.38
919.5806, 73262.13
920.0627, 73227.95
920.5448, 73275.71
921.0269, 73367.04
921.5090, 73422.05
921.9911, 73406.40
922.4733, 73366.48
922.9554, 73283.09
923.4375, 73205.13
923.9196, 73224.95
924.4017, 73336.13
924.8839, 73402.74
925.3660, 73397.37
925.8481, 73384.19
926.3302, 73431.68
926.8123, 73501.79
927.2944, 73549.97
927.7766, 73559.84
928.2587, 73584.05
928.7408, 73656.88
929.2229, 73705.13
929.7050, 73657.24
930.1871, 73524.20
930.6693, 73519.13
931.1514, 73639.63
931.6335, 73764.47
932.1156, 73832.67
932.5977, 73850.96
933.0798, 73789.16
933.5620, 73672.86
934.0441, 73619.87
934.5262, 73725.41
935.0083, 73799.60
935.4904, 73783.03
935.9725, 73726.27
936.4547, 73768.20
936.9368, 73896.56
937.4189, 73990.55
937.9010, 74007.66
938.3831, 73998.26
938.8652, 73995.62
939.3474, 74001.81
939.8295, 74021.52
940.3116, 74088.53
940.7937, 74106.30
941.2758, 74048.96
941.7579, 73978.34
942.2401, 73945.68
942.7222, 73950.07
943.2043, 73994.90
943.6864, 74079.70
944.1685, 74149.98
944.6506, 74141.96
945.1328, 74118.23
945.6149, 74130.70
946.0970, 74181.52
946.5791, 74228.80
947.0612, 74254.09
947.5433, 74304.81
948.0255, 74416.69
948.5076, 74550.62
948.9897, 74575.38
949.4718, 74509.77
949.9539, 74449.02
950.4360, 74434.43
950.9182, 74435.13
951.4003, 74434.97
951.8824, 74435.77
952.3645, 74440.70
952.8466, 74454.41
953.3287, 74465.62
953.8109, 74473.63
954.2930, 74481.66
954.7751, 74483.92
955.2572, 74489.17
955.7393, 74539.34
956.2214, 74639.59
956.7036, 74715.14
957.1857, 74694.73
957.6677, 74651.06
958.1498, 74623.97
958.6320, 74616.14
959.1141, 74650.15
959.5962, 74738.42
960.0783, 74824.68
960.5604, 74893.96
961.0425, 74935.54
961.5247, 74902.67
962.0068, 74821.26
962.4889, 74769.01
962.9710, 74791.98
963.4531, 74838.02
963.9352, 74919.13
964.4174, 74998.20
964.8995, 75022.54
965.3816, 74983.69
965.8637, 74914.21
966.3458, 74801.02
966.8279, 74738.83
967.3101, 74914.80
967.7922, 75178.85
968.2743, 75266.82
968.7564, 75137.28
969.2385, 75027.23
969.7206, 74986.13
970.2028, 75031.60
970.6849, 75213.24
971.1670, 75499.05
971.6491, 75598.27
972.1312, 75505.43
972.6133, 75420.25
973.0955, 75458.93
973.5776, 75530.41
974.0597, 75507.56
974.5418, 75439.25
975.0239, 75425.71
975.5060, 75587.60
975.9882, 75673.74
976.4703, 75625.60
976.9524, 75534.33
977.4345, 75528.62
977.9166, 75595.16
978.3987, 75586.35
978.8809, 75481.42
979.3630, 75412.34
979.8451, 75540.64
980.3272, 75717.10
980.8093, 75802.06
981.2914, 75776.31
981.7736, 75809.89
982.2557, 75953.05
982.7378, 76048.53
983.2199, 76010.72
983.7020, 75895.30
984.1841, 75843.34
984.6663, 75846.34
985.1484, 75874.87
985.6305, 75925.41
986.1126, 75984.45
986.5947, 76054.02
987.0768, 76122.55
987.5590, 76177.95
988.0411, 76226.21
988.5232, 76225.07
989.0053, 76159.21
989.4874, 76101.35
989.9695, 76149.83
990.4517, 76244.61
990.9338, 76287.34
991.4159, 76271.32
991.8980, 76242.57
992.3801, 76221.82
992.8622, 76189.59
993.3444, 76127.04
993.8265, 76050.39
994.3086, 76047.44
994.7907, 76117.01
995.2728, 76140.15
995.7549, 76036.91
996.2371, 75942.24
996.7192, 76040.39
997.2013, 76224.63
997.6834, 76339.70
998.1655, 76272.13
998.6476, 76270.30
999.1298, 76374.10
999.6119, 76484.02
1000.094, 76498.35
1000.576, 76438.78
1001.058, 76394.28
1001.540, 76370.34
1002.022, 76402.60
1002.505, 76595.44
1002.987, 76774.75
1003.469, 76814.97
1003.951, 76742.45
1004.433, 76684.11
1004.915, 76640.08
1005.397, 76609.91
1005.879, 76591.45
1006.362, 76593.34
1006.844, 76653.99
1007.326, 76737.60
1007.808, 76776.36
1008.290, 76742.64
1008.772, 76704.32
1009.254, 76635.56
1009.736, 76616.33
1010.218, 76729.71
1010.701, 76972.77
1011.183, 77034.85
1011.665, 76920.86
1012.147, 76811.79
1012.629, 76846.30
1013.111, 76913.95
1013.593, 76901.02
1014.075, 76839.99
1014.557, 76828.11
1015.040, 76892.66
1015.522, 76985.45
1016.004, 77125.98
1016.486, 77244.33
1016.968, 77205.69
1017.450, 77067.66
1017.932, 77017.73
1018.414, 77089.16
1018.897, 77153.16
1019.379, 77127.25
1019.861, 77079.26
1020.343, 77043.91
1020.825, 77022.44
1021.307, 77031.46
1021.789, 77076.16
1022.271, 77097.42
1022.753, 77049.28
1023.236, 76998.07
1023.718, 77063.24
1024.200, 77181.04
1024.682, 77238.45
1025.164, 77160.23
1025.646, 77085.51
1026.128, 77009.79
1026.610, 76965.66
1027.093, 77002.87
1027.575, 77104.96
1028.057, 77158.23
1028.539, 77161.04
1029.021, 77160.66
1029.503, 77166.58
1029.985, 77197.73
1030.467, 77300.20
1030.949, 77438.27
1031.432, 77473.18
1031.914, 77370.16
1032.396, 77307.47
1032.878, 77329.55
1033.360, 77385.04
1033.842, 77407.38
1034.324, 77413.82
1034.806, 77436.07
1035.289, 77487.63
1035.771, 77520.00
1036.253, 77503.45
1036.735, 77490.99
1037.217, 77522.49
1037.699, 77582.88
1038.181, 77560.39
1038.663, 77465.35
1039.146, 77373.48
1039.628, 77287.31
1040.110, 77257.29
1040.592, 77398.45
1041.074, 77587.53
1041.556, 77604.84
1042.038, 77353.03
1042.520, 77216.84
1043.002, 77226.70
1043.484, 77306.20
1043.967, 77413.25
1044.449, 77525.95
1044.931, 77614.74
1045.413, 77676.96
1045.895, 77719.28
1046.377, 77729.59
1046.859, 77735.13
1047.341, 77737.19
1047.824, 77743.62
1048.306, 77785.98
1048.788, 77855.80
1049.270, 77890.87
1049.752, 77867.33
1050.234, 77843.27
1050.716, 77872.29
1051.198, 77915.62
1051.681, 77943.71
1052.163, 77958.80
1052.645, 77922.37
1053.127, 77821.56
1053.609, 77737.89
1054.091, 77724.59
1054.573, 77748.43
1055.055, 77761.20
1055.537, 77767.04
1056.020, 77775.23
1056.502, 77812.59
1056.984, 77811.89
1057.466, 77730.46
1057.948, 77657.26
1058.430, 77715.20
1058.912, 77873.22
1059.394, 77925.34
1059.876, 77864.38
1060.359, 77807.77
1060.841, 77841.67
1061.323, 77893.20
1061.805, 77921.98
1062.287, 77932.45
1062.769, 77943.13
1063.251, 77956.41
1063.733, 77954.71
1064.216, 77930.17
1064.698, 77906.88
1065.180, 77907.36
1065.662, 77928.90
1066.144, 77977.22
1066.626, 78062.02
1067.108, 78109.18
1067.590, 78100.86
1068.073, 78078.46
1068.555, 78056.98
1069.037, 78036.30
1069.519, 78012.14
1070.001, 77988.26
1070.483, 77978.75
1070.965, 77984.45
1071.447, 78011.17
1071.929, 78088.33
1072.411, 78167.87
1072.894, 78205.38
1073.376, 78198.30
1073.858, 78186.57
1074.340, 78171.52
1074.822, 78156.66
1075.304, 78146.73
1075.786, 78137.66
1076.268, 78120.77
1076.751, 78102.54
1077.233, 78106.64
1077.715, 78152.84
1078.197, 78160.81
1078.679, 78101.85
1079.161, 78057.64
1079.643, 78188.98
1080.125, 78380.26
1080.608, 78405.94
1081.090, 78235.20
1081.572, 78118.17
1082.054, 78170.19
1082.536, 78249.06
1083.018, 78329.30
1083.500, 78394.00
1083.982, 78366.01
1084.464, 78271.73
1084.947, 78245.64
1085.429, 78348.18
1085.911, 78460.95
1086.393, 78547.91
1086.875, 78588.43
1087.357, 78551.02
1087.839, 78429.19
1088.321, 78397.10
1088.803, 78460.60
1089.286, 78501.43
1089.768, 78421.73
1090.250, 78322.13
1090.732, 78302.09
1091.214, 78338.39
1091.696, 78389.93
1092.178, 78464.40
1092.660, 78522.76
1093.142, 78561.29
1093.625, 78591.93
1094.107, 78632.14
1094.589, 78669.54
1095.071, 78675.81
1095.553, 78653.79
1096.035, 78627.05
1096.517, 78591.04
1096.999, 78571.70
1097.482, 78583.93
1097.964, 78604.77
1098.446, 78585.87
1098.928, 78538.87
1099.410, 78528.27
1099.892, 78565.30
1100.374, 78609.28
1100.856, 78630.46
1101.339, 78655.47
1101.821, 78714.60
1102.303, 78793.53
1102.785, 78805.84
1103.267, 78748.71
1103.749, 78735.32
1104.231, 78827.66
1104.713, 78898.23
1105.195, 78757.98
1105.677, 78562.16
1106.160, 78497.66
1106.642, 78624.13
1107.124, 78681.23
1107.606, 78633.85
1108.088, 78659.30
1108.570, 78936.41
1109.052, 79256.72
1109.534, 79215.91
1110.017, 78954.86
1110.499, 78770.02
1110.981, 78813.59
1111.463, 78847.44
1111.945, 78848.80
1112.427, 78844.52
1112.909, 78864.77
1113.391, 78897.77
1113.874, 78907.41
1114.356, 78891.27
1114.838, 78840.28
1115.320, 78667.70
1115.802, 78563.74
1116.284, 78631.69
1116.766, 78765.89
1117.248, 78818.49
1117.730, 78795.87
1118.213, 78813.78
1118.695, 78882.89
1119.177, 78937.17
1119.659, 78885.15
1120.141, 78840.34
1120.623, 78899.29
1121.105, 79029.27
1121.587, 79117.39
1122.069, 79163.27
1122.552, 79155.84
1123.034, 79078.68
1123.516, 79014.48
1123.998, 79104.52
1124.480, 79217.53
1124.962, 79203.73
1125.444, 79033.19
1125.926, 78897.30
1126.409, 78802.87
1126.891, 78726.70
1127.373, 78663.57
1127.855, 78609.27
1128.337, 78523.20
1128.819, 78452.78
1129.301, 78498.29
1129.783, 78757.13
1130.266, 78879.67
1130.748, 78775.23
1131.230, 78662.34
1131.712, 78674.05
1132.194, 78759.73
1132.676, 78774.83
1133.158, 78739.71
1133.640, 78715.62
1134.122, 78738.00
1134.604, 78754.73
1135.087, 78740.75
1135.569, 78732.24
1136.051, 78760.02
1136.533, 78820.44
1137.015, 78917.63
1137.497, 79036.77
1137.979, 79077.20
1138.461, 78874.11
1138.944, 78705.39
1139.426, 78710.09
1139.908, 78815.08
1140.390, 78971.52
1140.872, 79177.88
1141.354, 79226.63
1141.836, 79102.83
1142.318, 78964.13
1142.801, 78934.14
1143.283, 78926.98
1143.765, 78851.61
1144.247, 78757.18
1144.729, 78812.95
1145.211, 79052.34
1145.693, 79176.18
1146.175, 79128.83
1146.657, 79035.19
1147.140, 78994.74
1147.622, 78983.43
1148.104, 78967.52
1148.586, 78951.39
1149.068, 79018.16
1149.550, 79204.55
1150.032, 79318.28
1150.514, 79297.91
1150.996, 79221.89
1151.479, 79162.10
1151.961, 79126.68
1152.443, 79140.87
1152.925, 79218.51
1153.407, 79242.20
1153.889, 79183.76
1154.371, 79134.93
1154.853, 79136.84
1155.336, 79159.82
1155.818, 79157.05
1156.300, 79133.53
1156.782, 79095.65
1157.264, 79040.66
1157.746, 78985.52
1158.228, 78920.55
1158.710, 78878.41
1159.193, 78885.95
1159.675, 78921.10
1160.157, 78923.62
1160.639, 78905.57
1161.121, 78900.80
1161.603, 78928.92
1162.085, 78955.43
1162.567, 78972.09
1163.049, 78987.04
1163.531, 79021.41
1164.014, 79059.52
1164.496, 78989.25
1164.978, 78844.41
1165.460, 78768.01
1165.942, 78898.10
1166.424, 79017.42
1166.906, 79067.96
1167.388, 79077.20
1167.871, 79058.42
1168.353, 79015.85
1168.835, 78990.87
1169.317, 78982.35
1169.799, 78972.79
1170.281, 78939.73
1170.763, 78916.71
1171.245, 78924.83
1171.728, 78946.45
1172.210, 78960.45
1172.692, 78967.17
1173.174, 78982.84
1173.656, 79007.90
1174.138, 79028.88
1174.620, 79051.21
1175.102, 79052.45
1175.584, 78986.79
1176.067, 78905.24
1176.549, 78922.89
1177.031, 79041.34
1177.513, 79053.37
1177.995, 78929.69
1178.477, 78818.87
1178.959, 78885.32
1179.441, 78963.02
1179.923, 78926.73
1180.406, 78808.29
1180.888, 78690.36
1181.370, 78570.16
1181.852, 78555.55
1182.334, 78677.79
1182.816, 78814.20
1183.298, 78875.58
1183.780, 78888.11
1184.263, 78854.58
1184.745, 78786.20
1185.227, 78727.23
1185.709, 78674.85
1186.191, 78668.70
1186.673, 78723.84
1187.155, 78805.70
1187.637, 78937.86
1188.120, 79041.74
1188.602, 79009.76
1189.084, 78850.62
1189.566, 78774.32
1190.048, 78789.77
1190.530, 78819.82
1191.012, 78851.45
1191.494, 78857.38
1191.976, 78771.91
1192.458, 78667.47
1192.941, 78623.41
1193.423, 78647.79
1193.905, 78709.39
1194.387, 78817.80
1194.869, 78881.37
1195.351, 78842.55
1195.833, 78783.61
1196.315, 78820.13
1196.798, 78878.42
1197.280, 78848.00
1197.762, 78693.55
1198.244, 78661.79
1198.726, 78774.14
1199.208, 78864.80
1199.690, 78834.58
1200.172, 78776.77
1200.655, 78818.52
1201.137, 78892.05
1201.619, 78895.71
1202.101, 78798.73
1202.583, 78718.55
1203.065, 78652.82
1203.547, 78623.91
1204.029, 78671.75
1204.511, 78729.16
1204.994, 78703.93
1205.476, 78639.91
1205.958, 78604.95
1206.440, 78591.37
1206.922, 78681.71
1207.404, 78901.30
1207.886, 79050.30
1208.368, 78938.59
1208.850, 78745.84
1209.333, 78666.83
1209.815, 78656.66
1210.297, 78636.06
1210.779, 78581.50
1211.261, 78564.47
1211.743, 78589.19
1212.225, 78625.44
1212.707, 78660.34
1213.190, 78689.94
1213.672, 78707.00
1214.154, 78717.07
1214.636, 78734.27
1215.118, 78772.28
1215.600, 78774.30
1216.082, 78736.35
1216.564, 78686.50
1217.047, 78613.41
1217.529, 78568.36
1218.011, 78624.68
1218.493, 78742.59
1218.975, 78834.84
1219.457, 78907.81
1219.939, 78893.91
1220.421, 78778.60
1220.903, 78673.88
1221.385, 78688.06
1221.868, 78736.41
1222.350, 78764.23
1222.832, 78760.56
1223.314, 78701.42
1223.796, 78565.66
1224.278, 78479.14
1224.760, 78451.13
1225.242, 78455.78
1225.725, 78504.20
1226.207, 78547.91
1226.689, 78551.06
1227.171, 78516.34
1227.653, 78447.33
1228.135, 78329.43
1228.617, 78306.20
1229.099, 78393.78
1229.582, 78472.16
1230.064, 78432.42
1230.546, 78360.30
1231.028, 78303.30
1231.510, 78266.73
1231.992, 78251.13
1232.474, 78253.92
1232.956, 78314.24
1233.438, 78436.44
1233.921, 78529.17
1234.403, 78489.19
1234.885, 78427.87
1235.367, 78419.68
1235.849, 78445.60
1236.331, 78481.04
1236.813, 78527.08
1237.295, 78491.77
1237.777, 78367.90
1238.260, 78251.09
1238.742, 78213.46
1239.224, 78202.40
1239.706, 78193.53
1240.188, 78190.49
1240.670, 78204.13
1241.152, 78232.48
1241.634, 78264.13
1242.117, 78296.41
1242.599, 78287.52
1243.081, 78117.83
1243.563, 78012.25
1244.045, 78115.00
1244.527, 78293.95
1245.009, 78307.20
1245.491, 78193.61
1245.974, 78191.13
1246.456, 78318.93
1246.938, 78424.80
1247.420, 78417.11
1247.902, 78389.94
1248.384, 78381.59
1248.866, 78366.36
1249.348, 78288.91
1249.830, 78171.14
1250.313, 78082.86
1250.795, 78031.65
1251.277, 78019.44
1251.759, 78084.52
1252.241, 78139.56
1252.723, 78157.52
1253.205, 78170.73
1253.687, 78268.51
1254.169, 78382.88
1254.652, 78322.77
1255.134, 78095.96
1255.616, 77946.84
1256.098, 78019.98
1256.580, 78055.38
1257.062, 77997.59
1257.544, 77916.73
1258.026, 77893.88
1258.509, 77913.54
1258.991, 77964.68
1259.473, 78040.22
1259.955, 78097.47
1260.437, 78127.96
1260.919, 78148.31
1261.401, 78160.90
1261.883, 78164.31
1262.365, 78168.06
1262.848, 78154.92
1263.330, 78084.87
1263.812, 77973.90
1264.294, 77923.01
1264.776, 77960.38
1265.258, 77949.38
1265.740, 77864.22
1266.222, 77784.54
1266.704, 77830.02
1267.187, 77878.47
1267.669, 77779.97
1268.151, 77592.02
1268.633, 77537.66
1269.115, 77625.88
1269.597, 77714.59
1270.079, 77786.20
1270.561, 77849.40
1271.044, 77923.38
1271.526, 77978.02
1272.008, 77977.74
1272.490, 77948.41
1272.972, 77940.35
1273.454, 77949.77
1273.936, 77913.37
1274.418, 77827.15
1274.901, 77756.45
1275.383, 77766.56
1275.865, 77770.95
1276.347, 77730.66
1276.829, 77674.32
1277.311, 77645.61
1277.793, 77637.48
1278.275, 77613.95
1278.757, 77575.62
1279.240, 77548.13
1279.722, 77538.05
1280.204, 77553.95
1280.686, 77613.45
1281.168, 77666.06
1281.650, 77627.62
1282.132, 77545.82
1282.614, 77541.65
1283.096, 77598.88
1283.579, 77593.68
1284.061, 77413.95
1284.543, 77329.34
1285.025, 77383.09
1285.507, 77471.79
1285.989, 77524.37
1286.471, 77530.01
1286.953, 77438.12
1287.436, 77288.86
1287.918, 77220.66
1288.400, 77272.03
1288.882, 77285.59
1289.364, 77247.17
1289.846, 77211.63
1290.328, 77244.38
1290.810, 77279.36
1291.292, 77244.27
1291.775, 77180.89
1292.257, 77180.26
1292.739, 77250.48
1293.221, 77259.59
1293.703, 77205.03
1294.185, 77154.06
1294.667, 77154.05
1295.149, 77164.01
1295.631, 77169.06
1296.114, 77168.46
1296.596, 77162.02
1297.078, 77150.09
1297.560, 77130.32
1298.042, 77105.63
1298.524, 77092.27
1299.006, 77093.67
1299.488, 77110.81
1299.971, 77129.33
1300.453, 77162.80
1300.935, 77278.20
1301.417, 77422.05
1301.899, 77429.41
1302.381, 77327.63
1302.863, 77197.58
1303.345, 77032.56
1303.828, 76888.63
1304.310, 76781.20
1304.792, 76682.21
1305.274, 76639.66
##END=



