##NAMES=Siegenite
##RRUFFID=R050092
##IDEAL CHEMISTRY=Co^2+^Ni^3+^_2_S^2-^_4_
##LOCALITY=Bunker Hill mine, Jasper County, Missouri, USA (note that some people think this may be incorrect)
##OWNER=RRUFF
##SOURCE=Rock Currier
##DESCRIPTION=Silver metallic octahedra coating chalcopyrite
##STATUS=The identification of this mineral has been confirmed only by X-ray diffraction
##URL=rruff.info/R050092
147.9943, 0.0000000E+00
148.4765, 0.4886470
148.9586, 7.365051
149.4407, 13.17749
149.9228, 20.74463
150.4049, 22.49524
150.8870, 16.97778
151.3692, 4.222168
151.8513, 2.619141
152.3334, 1.467957
152.8155, 8.685181
153.2976, 13.34985
153.7797, 9.210388
154.2619, 8.394836
154.7440, 14.89789
155.2261, 30.54529
155.7082, 42.27704
156.1903, 47.40076
156.6724, 48.25012
157.1546, 47.36444
157.6367, 43.07227
158.1188, 38.94244
158.6009, 35.86218
159.0830, 33.42725
159.5651, 33.44153
160.0473, 37.38062
160.5294, 44.07117
161.0115, 51.11261
161.4936, 62.09113
161.9757, 70.40210
162.4578, 71.61298
162.9400, 60.01605
163.4221, 49.48761
163.9042, 45.65900
164.3863, 47.32037
164.8684, 50.44501
165.3505, 55.71936
165.8327, 60.46796
166.3148, 62.32312
166.7969, 56.53375
167.2790, 51.75311
167.7611, 54.27948
168.2433, 63.27997
168.7254, 71.33893
169.2075, 72.75378
169.6896, 71.26038
170.1717, 71.21893
170.6538, 77.58820
171.1360, 83.84094
171.6181, 84.22986
172.1002, 78.51306
172.5823, 71.71289
173.0644, 66.50220
173.5465, 62.80157
174.0287, 60.39728
174.5108, 60.43372
174.9929, 61.15887
175.4750, 59.52277
175.9571, 54.54266
176.4392, 51.80011
176.9214, 60.56067
177.4035, 76.56219
177.8856, 88.13367
178.3677, 85.43414
178.8498, 75.09473
179.3319, 67.29224
179.8141, 63.37726
180.2962, 61.88745
180.7783, 61.51929
181.2604, 62.18408
181.7425, 63.53998
182.2246, 67.59192
182.7068, 72.15704
183.1889, 71.40393
183.6710, 62.06110
184.1531, 50.67706
184.6352, 47.54590
185.1173, 51.55682
185.5995, 55.61578
186.0816, 50.19611
186.5637, 38.85266
187.0458, 35.64539
187.5279, 48.32782
188.0100, 68.43903
188.4922, 74.41040
188.9743, 65.48431
189.4564, 54.61328
189.9385, 56.20642
190.4206, 68.42169
190.9027, 76.97406
191.3849, 76.40674
191.8670, 68.96045
192.3491, 62.91510
192.8312, 58.36139
193.3133, 54.55872
193.7954, 49.78992
194.2776, 44.12933
194.7597, 41.30536
195.2418, 44.77301
195.7239, 53.28857
196.2060, 55.49146
196.6881, 49.22949
197.1703, 41.98907
197.6524, 47.71649
198.1345, 67.46863
198.6166, 83.02502
199.0987, 84.52167
199.5808, 71.94470
200.0630, 59.72797
200.5451, 47.09369
201.0272, 36.43414
201.5093, 33.28131
201.9914, 39.02277
202.4735, 45.32227
202.9557, 47.44849
203.4378, 44.89453
203.9199, 44.74139
204.4020, 48.68536
204.8841, 54.06604
205.3662, 52.78015
205.8484, 41.97601
206.3305, 32.73944
206.8126, 33.00964
207.2947, 45.04956
207.7768, 52.22260
208.2589, 51.98602
208.7411, 46.27948
209.2232, 41.78766
209.7053, 38.72125
210.1874, 36.26324
210.6695, 33.31891
211.1517, 28.77374
211.6338, 28.13281
212.1159, 35.37646
212.5980, 48.03967
213.0801, 49.43335
213.5622, 34.93298
214.0444, 17.81757
214.5265, 8.883545
215.0086, 9.857239
215.4907, 13.51398
215.9728, 19.99420
216.4549, 28.85181
216.9371, 34.24164
217.4192, 36.05481
217.9013, 34.45734
218.3834, 28.82819
218.8655, 17.36462
219.3476, 6.605408
219.8298, 3.445618
220.3119, 12.78296
220.7940, 13.94391
221.2761, 2.701477
221.7582, 12.25592
222.2403, 21.42792
222.7225, 22.76013
223.2046, 21.64398
223.6867, 18.02155
224.1688, 11.28992
224.6509, 11.33905
225.1330, 22.30640
225.6152, 36.20520
226.0973, 42.04553
226.5794, 35.74237
227.0615, 29.63202
227.5436, 27.26544
228.0257, 29.43427
228.5079, 30.54816
228.9900, 30.33917
229.4721, 29.30115
229.9542, 27.49011
230.4363, 22.15100
230.9184, 21.20972
231.4006, 29.37628
231.8827, 51.22754
232.3648, 61.97046
232.8469, 56.36810
233.3290, 42.82025
233.8111, 36.40393
234.2933, 42.64020
234.7754, 46.73901
235.2575, 42.26923
235.7396, 24.17407
236.2217, 14.40039
236.7038, 17.23718
237.1860, 26.38263
237.6681, 28.45245
238.1502, 17.18182
238.6323, 8.750488
239.1144, 10.24475
239.5965, 27.46729
240.0787, 38.84436
240.5608, 42.73779
241.0429, 41.38458
241.5250, 39.94080
242.0071, 39.94659
242.4892, 37.48590
242.9714, 29.93042
243.4535, 11.93140
243.9356, 1.269531
244.4177, 0.3120730
244.8998, 5.008362
245.3819, 12.29309
245.8641, 24.77588
246.3462, 34.49072
246.8283, 37.00073
247.3104, 28.03088
247.7925, 22.18494
248.2746, 21.03918
248.7568, 22.82935
249.2389, 21.87158
249.7210, 14.33276
250.2031, 9.849731
250.6852, 14.32471
251.1674, 34.01868
251.6495, 47.60352
252.1316, 53.65601
252.6137, 53.29956
253.0958, 48.96472
253.5779, 37.05176
254.0601, 26.72632
254.5422, 23.27869
255.0243, 29.46472
255.5064, 35.69043
255.9885, 43.12793
256.4706, 50.07019
256.9528, 50.05298
257.4349, 38.72351
257.9170, 27.61365
258.3991, 22.57556
258.8812, 24.41589
259.3633, 31.32886
259.8455, 48.22339
260.3276, 69.28552
260.8097, 71.93506
261.2918, 47.38318
261.7739, 20.57593
262.2560, 5.227905
262.7382, 3.940430
263.2203, 6.888306
263.7024, 15.57776
264.1845, 27.57434
264.6666, 34.56213
265.1487, 35.26807
265.6309, 33.45190
266.1130, 31.78247
266.5951, 31.50208
267.0772, 25.77527
267.5593, 10.66443
268.0414, 9.096802
268.5236, 15.37549
269.0057, 3.323120
269.4878, 10.39075
269.9699, 14.99902
270.4520, 7.911499
270.9341, 3.571289
271.4163, 4.077515
271.8984, 7.591797
272.3805, 8.512329
272.8626, 5.773926
273.3447, 3.744385
273.8268, 5.086182
274.3090, 10.32886
274.7911, 16.49402
275.2732, 24.00073
275.7553, 31.88708
276.2374, 34.29749
276.7195, 31.25476
277.2017, 25.34497
277.6838, 16.84961
278.1659, 5.190063
278.6480, 3.811401
279.1301, 9.284790
279.6122, 11.53076
280.0944, 10.01672
280.5765, 3.519653
281.0586, 3.926147
281.5407, 11.72717
282.0228, 20.59058
282.5049, 22.39050
282.9871, 13.90955
283.4692, 1.856445
283.9513, 1.326050
284.4334, 12.96033
284.9155, 25.27698
285.3976, 32.05334
285.8798, 33.59497
286.3619, 31.97803
286.8440, 26.08337
287.3261, 19.30090
287.8082, 18.76477
288.2903, 24.52881
288.7725, 30.59998
289.2546, 33.06750
289.7367, 32.56799
290.2188, 33.12781
290.7009, 35.40295
291.1830, 38.12244
291.6652, 39.09338
292.1473, 38.42151
292.6294, 37.34265
293.1115, 35.66296
293.5936, 34.01038
294.0757, 35.07361
294.5579, 39.69397
295.0400, 45.18213
295.5221, 48.92444
296.0042, 50.73706
296.4863, 49.31470
296.9684, 38.26428
297.4506, 23.85681
297.9327, 23.14258
298.4148, 39.40808
298.8969, 59.91528
299.3790, 71.15674
299.8611, 74.07568
300.3433, 71.26562
300.8254, 57.00671
301.3075, 39.77063
301.7896, 34.91626
302.2717, 44.35962
302.7538, 58.89197
303.2360, 72.50085
303.7181, 84.30652
304.2002, 92.38196
304.6823, 93.68701
305.1644, 91.62183
305.6465, 90.14136
306.1287, 89.50757
306.6108, 88.42249
307.0929, 84.40601
307.5750, 79.29504
308.0571, 76.32581
308.5392, 78.03198
309.0214, 81.82861
309.5035, 87.08386
309.9856, 93.88477
310.4677, 97.33411
310.9498, 92.43237
311.4319, 82.41626
311.9141, 71.57654
312.3962, 58.33716
312.8783, 47.13513
313.3604, 40.75513
313.8426, 39.20288
314.3247, 41.01587
314.8068, 50.30652
315.2889, 60.74475
315.7710, 65.80408
316.2531, 56.49097
316.7353, 47.58008
317.2174, 48.65039
317.6995, 58.37585
318.1816, 62.72473
318.6637, 49.83179
319.1458, 32.52600
319.6280, 21.10962
320.1101, 23.42017
320.5922, 26.63501
321.0743, 27.75891
321.5564, 26.91406
322.0385, 24.85632
322.5207, 17.96545
323.0028, 12.31482
323.4849, 11.82629
323.9670, 26.14404
324.4491, 34.82520
324.9312, 30.12634
325.4134, 16.21570
325.8955, 8.449829
326.3776, 15.80347
326.8597, 25.25769
327.3418, 30.03577
327.8239, 25.65369
328.3061, 22.00867
328.7882, 0.8773190
329.2703, 16.81812
329.7524, 25.33887
330.2345, 26.83728
330.7166, 0.2775880
331.1988, 9.952759
331.6809, 5.108521
332.1630, 0.3292240
332.6451, 14.44885
333.1272, 8.022217
333.6093, 6.434814
334.0915, 6.150879
334.5736, 12.61670
335.0557, 4.472900
335.5378, 0.8439940
336.0199, 11.83228
336.5020, 14.59424
336.9842, 4.416992
337.4663, 10.85645
337.9484, 12.50977
338.4305, 9.403198
338.9126, 5.147583
339.3947, 0.4438480
339.8769, 3.385864
340.3590, 0.6608890
340.8411, 6.352905
341.3232, 7.735596
341.8053, 4.350342
342.2874, 0.2198490
342.7696, 3.151978
343.2517, 6.454956
343.7338, 14.78259
344.2159, 29.68201
344.6980, 42.03101
345.1801, 41.16736
345.6623, 28.12427
346.1444, 18.07812
346.6265, 14.44055
347.1086, 15.57996
347.5907, 18.10181
348.0728, 22.02539
348.5550, 27.60767
349.0371, 37.71619
349.5192, 49.58435
350.0013, 54.55542
350.4834, 49.66028
350.9655, 40.68005
351.4477, 35.31506
351.9298, 33.09583
352.4119, 32.27478
352.8940, 30.50891
353.3761, 28.80066
353.8582, 31.46899
354.3404, 40.59143
354.8225, 49.54370
355.3046, 52.10107
355.7867, 49.70129
356.2688, 45.47229
356.7509, 38.70459
357.2331, 32.26147
357.7152, 29.04980
358.1973, 29.44751
358.6794, 30.78442
359.1615, 31.57983
359.6436, 32.24011
360.1258, 33.33203
360.6079, 35.40173
361.0900, 37.68896
361.5721, 39.25879
362.0542, 40.13733
362.5363, 42.62488
363.0185, 51.82178
363.5006, 61.09888
363.9827, 64.44653
364.4648, 54.38489
364.9469, 44.45972
365.4290, 39.57312
365.9112, 38.79590
366.3933, 35.00220
366.8754, 18.23206
367.3575, 3.853149
367.8396, 0.8355710
368.3217, 26.04114
368.8039, 42.37695
369.2860, 41.88635
369.7681, 30.37402
370.2502, 25.51001
370.7323, 34.43738
371.2144, 43.30566
371.6966, 46.97241
372.1787, 42.78442
372.6608, 40.97522
373.1429, 42.30334
373.6250, 45.74060
374.1071, 50.24121
374.5893, 58.00049
375.0714, 62.26880
375.5535, 59.40015
376.0356, 48.63452
376.5177, 43.22180
376.9998, 45.04712
377.4820, 49.08142
377.9641, 48.47363
378.4462, 41.97302
378.9283, 39.39905
379.4104, 44.77307
379.8925, 55.88818
380.3747, 63.10205
380.8568, 66.51392
381.3389, 66.03284
381.8210, 58.55835
382.3031, 45.45691
382.7852, 37.98792
383.2674, 39.18872
383.7495, 45.79480
384.2316, 52.21313
384.7137, 58.56787
385.1958, 65.23767
385.6779, 74.78003
386.1601, 84.57410
386.6422, 87.93066
387.1243, 83.12708
387.6064, 75.93323
388.0885, 72.67029
388.5706, 71.82373
389.0528, 70.00439
389.5349, 61.56555
390.0170, 53.25317
390.4991, 53.75281
390.9812, 63.46631
391.4633, 72.62842
391.9455, 71.67981
392.4276, 66.10876
392.9097, 62.83875
393.3918, 70.06067
393.8739, 75.01758
394.3561, 70.04175
394.8382, 56.03137
395.3203, 42.11633
395.8024, 27.82971
396.2845, 16.93567
396.7667, 11.95984
397.2488, 17.07874
397.7309, 22.02405
398.2130, 25.75879
398.6951, 27.85229
399.1772, 27.58374
399.6594, 22.67151
400.1415, 17.58948
400.6236, 13.43530
401.1057, 8.723633
401.5878, 8.546753
402.0699, 16.29797
402.5521, 26.92993
403.0342, 33.20251
403.5163, 34.61816
403.9984, 32.37012
404.4805, 25.43164
404.9626, 13.73071
405.4448, 5.201294
405.9269, 0.2313230
406.4090, 2.353760
406.8911, 0.4232180
407.3732, 9.249878
407.8553, 15.32800
408.3375, 17.00208
408.8196, 14.91394
409.3017, 8.697266
409.7838, 2.289551
410.2659, 9.368896
410.7480, 1.414551
411.2302, 17.52454
411.7123, 25.60315
412.1944, 18.22095
412.6765, 5.453125
413.1586, 0.2962650
413.6407, 1.551270
414.1229, 4.060425
414.6050, 4.241943
415.0871, 4.414673
415.5692, 8.114746
416.0513, 15.59485
416.5334, 24.84741
417.0156, 39.64319
417.4977, 54.18616
417.9798, 59.61853
418.4619, 44.28003
418.9440, 26.25793
419.4261, 14.83704
419.9083, 10.06042
420.3904, 10.85596
420.8725, 24.66943
421.3546, 39.11426
421.8367, 44.66516
422.3188, 33.85657
422.8010, 24.17700
423.2831, 21.10986
423.7652, 22.07166
424.2473, 21.39001
424.7294, 9.995361
425.2115, 4.449341
425.6937, 14.72656
426.1758, 50.82922
426.6579, 64.37231
427.1400, 38.32251
427.6221, 1.151855
428.1042, 18.22314
428.5864, 12.22742
429.0685, 3.515015
429.5506, 4.552856
430.0327, 12.10730
430.5148, 21.10474
430.9969, 32.94482
431.4791, 43.03711
431.9612, 46.85925
432.4433, 44.12744
432.9254, 41.09473
433.4075, 37.85400
433.8896, 35.36768
434.3718, 36.43823
434.8539, 40.93616
435.3360, 44.24207
435.8181, 44.31812
436.3002, 41.44446
436.7823, 35.22363
437.2645, 25.35217
437.7466, 15.78345
438.2287, 10.10547
438.7108, 7.567383
439.1929, 6.704834
439.6750, 7.386475
440.1572, 9.314697
440.6393, 13.55176
441.1214, 19.36108
441.6035, 23.09729
442.0856, 18.51917
442.5677, 13.32068
443.0499, 15.17810
443.5320, 29.74683
444.0141, 40.87048
444.4962, 39.60254
444.9783, 31.11279
445.4604, 24.06213
445.9426, 22.29517
446.4247, 20.85278
446.9068, 17.28418
447.3889, 10.98267
447.8710, 7.273560
448.3531, 5.801025
448.8353, 7.445190
449.3174, 13.56628
449.7995, 31.17883
450.2816, 41.06323
450.7637, 37.46790
451.2458, 24.87427
451.7280, 21.34265
452.2101, 29.68713
452.6922, 40.30371
453.1743, 50.83630
453.6564, 62.26941
454.1385, 60.66016
454.6207, 42.34106
455.1028, 18.68237
455.5849, 4.787842
456.0670, 0.3870850
456.5491, 4.5898002E-02
457.0313, 2.503540
457.5134, 7.564453
457.9955, 16.61560
458.4776, 29.49792
458.9597, 39.72827
459.4418, 40.83643
459.9240, 36.17505
460.4061, 30.96887
460.8882, 25.77795
461.3703, 21.75549
461.8524, 20.93994
462.3345, 22.36499
462.8167, 23.79163
463.2988, 22.16064
463.7809, 22.12903
464.2630, 26.83484
464.7451, 38.37720
465.2272, 46.06750
465.7094, 41.53210
466.1915, 32.13831
466.6736, 24.51270
467.1557, 5.747681
467.6378, 22.75830
468.1199, 31.93066
468.6021, 34.54358
469.0842, 9.409058
469.5663, 20.50659
470.0484, 17.08313
470.5305, 12.98511
471.0126, 28.96570
471.4948, 7.737915
471.9769, 23.50366
472.4590, 24.52893
472.9411, 32.30469
473.4232, 25.52917
473.9053, 23.30627
474.3875, 35.69788
474.8696, 39.99573
475.3517, 31.57581
475.8338, 39.87793
476.3159, 18.30322
476.7981, 22.94373
477.2802, 38.89478
477.7623, 31.18542
478.2444, 23.78369
478.7265, 38.36658
479.2086, 45.52673
479.6908, 45.66223
480.1729, 17.73718
480.6550, 26.04541
481.1371, 19.83203
481.6192, 13.02295
482.1013, 26.42932
482.5835, 2.555908
483.0656, 15.53271
483.5477, 13.87341
484.0298, 18.96143
484.5119, 9.438843
484.9940, 17.02856
485.4762, 25.98206
485.9583, 33.18372
486.4404, 36.30212
486.9225, 33.41943
487.4046, 27.92249
487.8867, 18.78162
488.3689, 4.160034
488.8510, 3.090088
489.3331, 0.4719240
489.8152, 6.415771
490.2973, 12.88208
490.7794, 19.32898
491.2616, 23.14661
491.7437, 23.08081
492.2258, 20.78381
492.7079, 21.91541
493.1900, 26.76074
493.6721, 29.06165
494.1543, 22.63538
494.6364, 10.51172
495.1185, 2.658936
495.6006, 0.3076170
496.0827, 0.4660640
496.5648, 7.182251
497.0470, 16.70325
497.5291, 22.27490
498.0112, 19.64062
498.4933, 14.30701
498.9754, 9.215332
499.4576, 4.838501
499.9397, 3.292603
500.4218, 8.087891
500.9039, 14.21423
501.3860, 19.11450
501.8681, 23.08545
502.3503, 23.48828
502.8324, 15.15308
503.3145, 4.626587
503.7966, 0.2241210
504.2787, 6.056152
504.7608, 11.92249
505.2430, 16.37451
505.7251, 19.45557
506.2072, 20.21814
506.6893, 16.50171
507.1714, 13.06409
507.6535, 13.88403
508.1357, 19.87061
508.6178, 23.10229
509.0999, 9.776855
509.5820, 25.83130
510.0641, 34.46326
510.5462, 36.07202
511.0284, 9.619629
511.5105, 19.40112
511.9926, 14.66272
512.4747, 9.328003
512.9568, 24.20825
513.4389, 1.754028
513.9210, 16.13794
514.4031, 15.76453
514.8853, 22.20654
515.3674, 14.11438
515.8495, 10.58203
516.3316, 21.66370
516.8137, 24.65356
517.2958, 14.92639
517.7780, 21.92041
518.2601, 0.9608150
518.7422, 2.373169
519.2244, 17.01697
519.7065, 8.023682
520.1886, 15.28369
520.6707, 16.35364
521.1528, 10.70886
521.6349, 11.14990
522.1171, 11.85120
522.5992, 9.171143
523.0813, 8.509521
523.5634, 4.841187
524.0455, 11.15356
524.5276, 22.77039
525.0098, 24.53979
525.4919, 19.44482
525.9740, 16.95605
526.4561, 17.12610
526.9382, 17.68884
527.4203, 17.58020
527.9025, 16.71204
528.3846, 14.58496
528.8667, 10.93738
529.3488, 7.438599
529.8309, 5.337891
530.3130, 4.598877
530.7952, 5.221436
531.2773, 6.408691
531.7594, 9.686279
532.2415, 19.17786
532.7236, 32.59106
533.2057, 39.73743
533.6879, 30.77026
534.1700, 19.78137
534.6521, 13.36389
535.1342, 12.71887
535.6163, 15.17847
536.0984, 24.60327
536.5806, 34.39539
537.0627, 36.62317
537.5448, 26.40027
538.0269, 20.86169
538.5090, 24.33264
538.9911, 33.53601
539.4733, 37.51099
539.9554, 35.79529
540.4375, 32.41052
540.9196, 29.37561
541.4017, 26.56592
541.8839, 24.28479
542.3660, 22.65710
542.8481, 20.18787
543.3302, 13.67908
543.8123, 5.454712
544.2944, 3.0396000E-02
544.7766, 1.101807
545.2587, 0.5505370
545.7408, 6.733643
546.2229, 14.90979
546.7050, 18.83032
547.1871, 9.134155
547.6693, 1.200439
548.1514, 4.882568
548.6335, 22.36426
549.1156, 34.10571
549.5977, 30.79175
550.0798, 25.12158
550.5620, 26.33801
551.0441, 42.39734
551.5262, 49.19604
552.0083, 42.29565
552.4904, 28.17102
552.9725, 19.17712
553.4547, 15.89661
553.9368, 14.74011
554.4189, 15.17664
554.9010, 16.62354
555.3831, 15.97607
555.8652, 13.14661
556.3474, 12.61084
556.8295, 22.48608
557.3116, 36.45239
557.7937, 39.86621
558.2758, 28.71997
558.7579, 16.02063
559.2401, 14.20691
559.7222, 17.90100
560.2043, 18.80518
560.6864, 9.601196
561.1685, 1.003540
561.6506, 1.041260
562.1328, 2.234009
562.6149, 3.183228
563.0970, 4.084595
563.5791, 9.966675
564.0612, 9.813599
564.5433, 1.196533
565.0255, 3.920776
565.5076, 3.902710
565.9897, 3.081543
566.4718, 6.061401
566.9539, 13.34326
567.4360, 21.44519
567.9182, 30.02087
568.4003, 38.23657
568.8824, 44.84131
569.3645, 49.61487
569.8466, 50.56567
570.3287, 44.16614
570.8109, 34.14185
571.2930, 25.03699
571.7751, 17.11572
572.2572, 14.46155
572.7393, 28.10486
573.2214, 44.40723
573.7036, 48.17004
574.1857, 30.43762
574.6678, 13.58337
575.1499, 5.093872
575.6320, 2.707764
576.1141, 2.944580
576.5963, 9.632080
577.0784, 14.31116
577.5605, 13.66443
578.0426, 9.087769
578.5247, 10.08020
579.0068, 18.11743
579.4890, 27.98425
579.9711, 38.09839
580.4532, 48.40906
580.9353, 44.79919
581.4174, 24.39319
581.8995, 2.991211
582.3817, 0.7232670
582.8638, 9.286499
583.3459, 18.69763
583.8280, 24.43408
584.3101, 27.54675
584.7922, 29.04407
585.2744, 28.76245
585.7565, 26.34814
586.2386, 13.86230
586.7207, 5.678711
587.2028, 16.06653
587.6849, 44.38000
588.1671, 61.31384
588.6492, 50.82275
589.1313, 32.36938
589.6134, 16.83325
590.0955, 1.589355
590.5776, 4.050049
591.0598, 4.238525
591.5419, 18.25256
592.0240, 27.48889
592.5061, 31.32068
592.9882, 33.65979
593.4703, 35.74927
593.9525, 36.40613
594.4346, 30.30042
594.9167, 18.09814
595.3988, 9.151123
595.8809, 12.06262
596.3630, 20.45251
596.8452, 22.98169
597.3273, 19.30933
597.8094, 17.01343
598.2915, 23.29553
598.7736, 32.34155
599.2557, 38.73840
599.7379, 41.32275
600.2200, 41.01782
600.7021, 36.21802
601.1842, 29.15137
601.6663, 23.29614
602.1484, 20.03491
602.6306, 16.06128
603.1127, 9.564453
603.5948, 1.809204
604.0769, 0.2874760
604.5590, 6.541260
605.0411, 13.98914
605.5233, 18.63428
606.0054, 21.03162
606.4875, 27.86621
606.9696, 39.94446
607.4517, 47.77185
607.9338, 36.50073
608.4160, 14.98914
608.8981, 2.177979
609.3802, 3.549194
609.8623, 9.553955
610.3444, 15.08606
610.8265, 19.95215
611.3087, 23.95288
611.7908, 29.34534
612.2729, 31.43433
612.7550, 24.03308
613.2371, 9.416992
613.7192, 6.510254
614.2014, 25.52100
614.6835, 44.25623
615.1656, 53.64880
615.6477, 52.75610
616.1298, 51.28284
616.6119, 49.29895
617.0941, 46.53149
617.5762, 42.50964
618.0583, 37.32202
618.5404, 31.87500
619.0225, 26.19250
619.5046, 20.61328
619.9868, 15.68286
620.4689, 11.24487
620.9510, 6.682739
621.4331, 4.318726
621.9152, 10.11475
622.3973, 4.996826
622.8795, 33.98499
623.3616, 49.52075
623.8437, 25.67212
624.3258, 1.029907
624.8079, 4.340698
625.2900, 14.11243
625.7722, 24.95764
626.2543, 25.13171
626.7364, 21.50635
627.2185, 18.81628
627.7006, 17.13306
628.1827, 15.88831
628.6649, 14.96497
629.1470, 14.67847
629.6291, 14.28552
630.1112, 14.49329
630.5933, 19.78931
631.0754, 36.80994
631.5576, 53.38525
632.0397, 50.58728
632.5218, 33.97571
633.0039, 20.92761
633.4860, 22.80627
633.9681, 28.79590
634.4503, 33.80212
634.9324, 37.47888
635.4145, 39.12146
635.8966, 37.79712
636.3787, 35.21130
636.8608, 31.96985
637.3430, 24.55261
637.8251, 21.97729
638.3072, 26.51685
638.7893, 32.47131
639.2714, 30.98059
639.7535, 21.94128
640.2357, 19.39539
640.7178, 28.06409
641.1999, 40.99231
641.6820, 49.30298
642.1641, 52.91504
642.6462, 51.47278
643.1284, 37.29773
643.6105, 23.72717
644.0926, 23.82007
644.5747, 35.67261
645.0568, 46.96191
645.5389, 57.67029
646.0211, 61.88000
646.5032, 53.45618
646.9853, 25.41272
647.4674, 10.11267
647.9495, 13.17114
648.4316, 22.69128
648.9138, 30.31958
649.3959, 36.60632
649.8780, 37.04749
650.3601, 29.61194
650.8422, 19.89087
651.3243, 16.93030
651.8065, 19.43982
652.2886, 20.52600
652.7707, 16.69666
653.2528, 11.94250
653.7349, 8.857788
654.2170, 8.321289
654.6992, 13.01245
655.1813, 32.32178
655.6634, 50.04480
656.1455, 58.10693
656.6276, 56.07947
657.1097, 48.34399
657.5919, 27.53613
658.0740, 8.651978
658.5561, 1.138184
659.0382, 0.6651610
659.5203, 4.680054
660.0024, 16.44568
660.4846, 29.49866
660.9667, 38.89233
661.4488, 44.82300
661.9309, 48.22620
662.4130, 49.14575
662.8951, 48.15845
663.3773, 44.51245
663.8594, 38.95227
664.3415, 33.93298
664.8236, 29.55481
665.3057, 27.22095
665.7878, 30.71423
666.2700, 37.43884
666.7521, 38.55981
667.2342, 24.74170
667.7163, 12.58203
668.1984, 8.133545
668.6805, 10.75024
669.1627, 9.621094
669.6448, 2.046143
670.1269, 3.134644
670.6090, 1.276367
671.0911, 14.74072
671.5732, 26.18042
672.0554, 35.36633
672.5375, 41.28247
673.0196, 40.57764
673.5017, 36.26196
673.9838, 34.84436
674.4659, 39.97192
674.9481, 42.41650
675.4302, 31.27344
675.9123, 15.07935
676.3944, 6.133545
676.8765, 15.11682
677.3586, 23.00940
677.8408, 24.60498
678.3229, 22.45776
678.8050, 24.72839
679.2871, 35.29199
679.7692, 39.50269
680.2513, 29.24316
680.7335, 8.899902
681.2156, 5.160767
681.6977, 18.23340
682.1799, 33.29492
682.6620, 41.28137
683.1441, 44.28308
683.6262, 44.20569
684.1083, 41.14685
684.5905, 38.50781
685.0726, 38.95117
685.5547, 40.53967
686.0368, 41.63525
686.5189, 41.82495
687.0010, 41.77576
687.4832, 40.21057
687.9653, 39.26257
688.4474, 42.48267
688.9295, 54.67017
689.4116, 55.84448
689.8937, 39.59998
690.3759, 16.42224
690.8580, 6.642822
691.3401, 9.373535
691.8222, 14.74121
692.3043, 22.55493
692.7864, 28.20947
693.2686, 16.74451
693.7507, 5.425781
694.2328, 16.38940
694.7149, 8.152222
695.1970, 35.61096
695.6791, 45.51111
696.1613, 37.01245
696.6434, 30.92395
697.1255, 33.20325
697.6076, 35.26233
698.0897, 32.35754
698.5718, 22.98364
699.0540, 20.34961
699.5361, 26.53552
700.0182, 33.15417
700.5003, 31.94458
700.9824, 24.22620
701.4645, 14.48755
701.9467, 2.012695
702.4288, 5.038330
702.9109, 9.349976
703.3930, 32.14502
703.8751, 43.47192
704.3572, 29.89270
704.8394, 15.01428
705.3215, 2.932617
705.8036, 3.673096
706.2857, 1.378418
706.7678, 33.50208
707.2499, 52.23730
707.7321, 45.48059
708.2142, 22.14136
708.6963, 13.88513
709.1784, 22.26465
709.6605, 29.89880
710.1426, 27.40662
710.6248, 19.45825
711.1069, 17.90979
711.5890, 21.80090
712.0711, 24.62878
712.5532, 21.47644
713.0353, 15.96094
713.5175, 9.750977
713.9996, 2.776978
714.4817, 6.5919999E-03
714.9638, 6.030273
715.4459, 14.12585
715.9280, 20.41406
716.4102, 24.59729
716.8923, 28.01331
717.3744, 31.06750
717.8565, 32.64355
718.3386, 32.02832
718.8207, 29.15552
719.3029, 21.93054
719.7850, 8.775146
720.2671, 3.342407
720.7492, 6.560303
721.2313, 2.843140
721.7134, 4.606934
722.1956, 18.26160
722.6777, 30.40710
723.1598, 40.87488
723.6419, 46.97852
724.1240, 43.29883
724.6061, 14.89148
725.0883, 4.299072
725.5704, 7.415527
726.0525, 2.064697
726.5346, 15.53748
727.0167, 34.44385
727.4988, 45.64880
727.9810, 40.07898
728.4631, 24.67200
728.9452, 12.57593
729.4273, 4.162109
729.9094, 2.443848
730.3915, 17.85815
730.8737, 34.39404
731.3558, 37.63989
731.8379, 26.67737
732.3200, 17.14624
732.8021, 14.38562
733.2842, 13.44141
733.7664, 11.51697
734.2485, 7.981934
734.7306, 6.815430
735.2127, 8.510376
735.6948, 11.41589
736.1769, 14.39209
736.6591, 17.41174
737.1412, 20.65735
737.6233, 24.43115
738.1054, 26.50000
738.5875, 22.47156
739.0696, 16.23962
739.5518, 13.34644
740.0339, 15.97571
740.5160, 19.25415
740.9981, 22.97717
741.4802, 25.97742
741.9623, 26.46423
742.4445, 22.74829
742.9266, 19.69543
743.4087, 18.06836
743.8908, 17.07349
744.3729, 15.11511
744.8550, 12.19397
745.3372, 8.940308
745.8193, 4.102905
746.3014, 1.000977
746.7835, 7.233398
747.2656, 19.76819
747.7477, 29.78625
748.2299, 35.18164
748.7120, 34.73950
749.1941, 22.75537
749.6762, 2.468750
750.1583, 8.487549
750.6404, 0.1076660
751.1226, 7.661865
751.6047, 6.685425
752.0868, 2.076172
752.5689, 5.191406
753.0510, 3.247559
753.5331, 0.8428960
754.0153, 6.625610
754.4974, 12.93872
754.9795, 4.426880
755.4616, 21.71643
755.9437, 31.58423
756.4258, 34.42822
756.9080, 9.213745
757.3901, 20.23145
757.8722, 16.73022
758.3543, 12.63245
758.8364, 28.75195
759.3185, 7.619629
759.8007, 23.41858
760.2828, 24.19128
760.7649, 31.99475
761.2470, 25.18945
761.7291, 22.89648
762.2112, 35.21851
762.6934, 39.44885
763.1755, 30.96252
763.6576, 38.98230
764.1397, 17.34912
764.6218, 21.92419
765.1039, 37.81165
765.5861, 30.06055
766.0682, 38.56335
766.5503, 40.87634
767.0324, 15.05676
767.5145, 38.16223
767.9966, 40.10974
768.4788, 5.995728
768.9609, 22.97607
769.4430, 32.53442
769.9251, 35.06897
770.4072, 9.544556
770.8893, 20.25342
771.3715, 16.44153
771.8536, 12.03467
772.3357, 27.80737
772.8178, 6.364990
773.2999, 21.85339
773.7820, 22.60010
774.2642, 30.09399
774.7463, 22.97729
775.2284, 20.37341
775.7105, 32.38977
776.1926, 36.30933
776.6747, 27.51086
777.1569, 35.43445
777.6390, 13.48230
778.1211, 17.53320
778.6032, 32.71106
779.0853, 24.46057
779.5674, 32.65173
780.0496, 34.65283
780.5317, 8.521118
781.0138, 31.31543
781.4959, 32.95007
781.9780, 12.86060
782.4601, 33.97839
782.9423, 16.61414
783.4244, 12.70581
783.9065, 4.918823
784.3886, 1.192871
784.8707, 11.94702
785.3528, 20.72620
785.8350, 14.17700
786.3171, 1.035889
786.7992, 1.695679
787.2813, 20.75317
787.7634, 36.89282
788.2455, 35.23853
788.7277, 26.82910
789.2098, 18.71960
789.6919, 10.65405
790.1740, 9.576294
790.6561, 28.43213
791.1382, 44.10669
791.6204, 44.03833
792.1025, 26.19983
792.5846, 19.02747
793.0667, 24.62415
793.5488, 31.96716
794.0309, 32.89795
794.5131, 28.66565
794.9952, 21.43433
795.4773, 11.86145
795.9594, 4.289063
796.4415, 1.338989
796.9236, 4.359497
797.4058, 2.055298
797.8879, 8.149902
798.3700, 15.47278
798.8521, 19.06128
799.3342, 19.35974
799.8163, 14.56128
800.2985, 2.817017
800.7806, 2.469727
801.2627, 15.99316
801.7448, 30.62024
802.2269, 31.07898
802.7090, 23.65344
803.1912, 21.57068
803.6733, 27.92322
804.1554, 32.97852
804.6375, 26.49817
805.1196, 18.29468
805.6017, 17.78381
806.0839, 34.47754
806.5660, 43.02686
807.0481, 40.59485
807.5302, 33.53247
808.0123, 26.10974
808.4944, 19.46753
808.9766, 19.65796
809.4587, 28.53052
809.9408, 35.63806
810.4229, 24.77832
810.9050, 7.877686
811.3871, 5.667603
811.8693, 30.17896
812.3514, 49.06274
812.8335, 43.29736
813.3156, 27.81348
813.7977, 19.28625
814.2798, 21.06653
814.7620, 23.54456
815.2441, 27.05493
815.7262, 29.86414
816.2083, 28.77063
816.6904, 24.52197
817.1725, 21.83008
817.6547, 21.67871
818.1368, 23.06921
818.6189, 27.21729
819.1010, 31.52698
819.5831, 32.39917
820.0652, 26.83313
820.5474, 20.91260
821.0295, 10.28357
821.5116, 3.288330
821.9937, 12.10144
822.4758, 43.00623
822.9579, 61.03931
823.4401, 59.97717
823.9222, 50.24768
824.4043, 46.32654
824.8864, 45.76807
825.3685, 40.88501
825.8506, 26.81580
826.3328, 15.48621
826.8149, 17.73987
827.2970, 26.58801
827.7791, 33.08960
828.2612, 35.57983
828.7433, 35.35559
829.2255, 30.97168
829.7076, 25.46448
830.1897, 23.71790
830.6718, 25.73279
831.1539, 24.93640
831.6360, 19.47742
832.1182, 13.05579
832.6003, 7.655884
833.0824, 5.030273
833.5645, 8.732300
834.0466, 24.82581
834.5287, 38.48560
835.0109, 46.03906
835.4930, 47.51086
835.9751, 42.63818
836.4572, 27.14441
836.9393, 17.61108
837.4214, 16.22827
837.9036, 20.15076
838.3857, 28.88086
838.8678, 40.09717
839.3499, 43.11597
839.8320, 33.01331
840.3141, 21.73389
840.7963, 18.61938
841.2784, 20.10413
841.7605, 21.83508
842.2426, 22.22363
842.7247, 23.66846
843.2068, 26.23767
843.6890, 29.95154
844.1711, 37.41614
844.6532, 49.54785
845.1353, 47.34521
845.6174, 25.22083
846.0995, 0.4689940
846.5817, 5.559326
847.0638, 0.2858890
847.5460, 5.605713
848.0281, 8.916260
848.5102, 14.14221
848.9923, 30.26746
849.4744, 45.11902
849.9565, 44.53870
850.4387, 17.06201
850.9208, 5.609131
851.4029, 17.30286
851.8850, 31.80005
852.3671, 21.00012
852.8492, 6.987671
853.3314, 20.50317
853.8135, 12.91089
854.2956, 0.3441160
854.7777, 11.24878
855.2598, 19.68591
855.7419, 25.40601
856.2241, 27.89026
856.7062, 27.21582
857.1883, 19.52209
857.6704, 13.62012
858.1525, 19.01929
858.6346, 36.38501
859.1168, 48.20459
859.5989, 53.64795
860.0810, 51.60413
860.5631, 31.35034
861.0452, 7.202148
861.5273, 2.068237
862.0095, 23.28174
862.4916, 39.29248
862.9737, 32.74133
863.4558, 20.87439
863.9379, 15.92163
864.4200, 20.20300
864.9022, 18.73950
865.3843, 10.07031
865.8664, 1.115601
866.3485, 5.355591
866.8306, 7.194580
867.3127, 5.223022
867.7949, 32.27026
868.2770, 52.87134
868.7591, 46.79919
869.2412, 35.02209
869.7233, 33.57129
870.2054, 46.48157
870.6876, 50.99316
871.1697, 42.61890
871.6518, 34.47253
872.1339, 35.61267
872.6160, 44.08081
873.0981, 45.15234
873.5803, 39.16504
874.0624, 33.21570
874.5445, 30.45630
875.0266, 31.16736
875.5087, 38.98889
875.9908, 52.93713
876.4730, 58.91785
876.9551, 42.86035
877.4372, 30.57129
877.9193, 31.44104
878.4014, 43.26904
878.8835, 53.61707
879.3657, 62.50952
879.8478, 65.91699
880.3299, 57.38147
880.8120, 44.87988
881.2941, 41.62268
881.7762, 44.46558
882.2584, 42.38660
882.7405, 19.26196
883.2226, 3.331299
883.7047, 11.04114
884.1868, 19.79810
884.6689, 36.38318
885.1511, 45.54553
885.6332, 47.68262
886.1153, 21.76001
886.5974, 32.06848
887.0795, 27.86951
887.5616, 23.07654
888.0438, 38.49255
888.5259, 16.64551
889.0080, 31.72937
889.4901, 32.07031
889.9722, 39.18372
890.4543, 31.68359
890.9365, 28.66663
891.4186, 40.26892
891.9007, 43.77612
892.3828, 34.56665
892.8649, 42.07617
893.3470, 19.71057
893.8292, 23.55933
894.3113, 38.71826
894.7934, 30.24146
895.2755, 38.01794
895.7576, 39.60474
896.2397, 13.05750
896.7219, 35.43433
897.2040, 36.65222
897.6861, 16.14319
898.1682, 36.84119
898.6503, 19.32617
899.1324, 15.44934
899.6146, 21.84570
900.0967, 17.53198
900.5788, 30.08630
901.0609, 26.38757
901.5430, 12.25232
902.0251, 15.00208
902.5073, 32.53345
902.9894, 37.12708
903.4715, 13.14587
903.9536, 6.647217
904.4357, 1.200928
904.9178, 35.19360
905.4000, 45.83984
905.8821, 32.79187
906.3642, 16.62512
906.8463, 11.71667
907.3284, 11.25818
907.8105, 6.212646
908.2927, 2.644043
908.7748, 5.062378
909.2569, 9.021729
909.7390, 22.22681
910.2211, 28.23499
910.7032, 28.33667
911.1854, 34.22095
911.6675, 47.55505
912.1496, 54.43921
912.6317, 44.36365
913.1138, 27.28125
913.5959, 13.06506
914.0781, 2.281128
914.5602, 3.906982
915.0423, 5.073120
915.5244, 0.9191890
916.0065, 14.40076
916.4886, 32.23596
916.9708, 32.89990
917.4529, 14.50537
917.9350, 1.727783
918.4171, 0.3580320
918.8992, 4.665527
919.3813, 16.39612
919.8635, 30.80859
920.3456, 40.72607
920.8277, 43.34583
921.3098, 43.06299
921.7919, 39.08337
922.2740, 34.12085
922.7562, 30.32581
923.2383, 27.68860
923.7204, 26.23889
924.2025, 25.77087
924.6846, 25.97107
925.1667, 26.73706
925.6489, 28.04102
926.1310, 32.03625
926.6131, 39.47339
927.0952, 43.00220
927.5773, 35.47925
928.0594, 26.56812
928.5416, 21.16772
929.0237, 19.27405
929.5058, 17.66089
929.9879, 16.40295
930.4700, 14.95776
930.9521, 12.98657
931.4343, 11.18335
931.9164, 9.491699
932.3985, 8.574097
932.8806, 12.19922
933.3627, 30.94373
933.8448, 45.05066
934.3270, 45.17554
934.8091, 35.75659
935.2912, 25.31091
935.7733, 12.63818
936.2554, 6.901611
936.7375, 12.00342
937.2197, 21.54736
937.7018, 27.89832
938.1839, 31.31360
938.6660, 32.10718
939.1481, 28.67786
939.6302, 25.85876
940.1124, 23.70923
940.5945, 23.88831
941.0766, 29.12781
941.5587, 41.58398
942.0408, 48.46790
942.5229, 48.93201
943.0051, 44.40015
943.4872, 32.02173
943.9693, 17.24976
944.4514, 8.778931
944.9335, 7.798340
945.4156, 9.436768
945.8978, 16.34143
946.3799, 20.81055
946.8620, 16.96667
947.3441, 5.398193
947.8262, 5.723877
948.3083, 19.28857
948.7905, 30.18054
949.2726, 25.77100
949.7547, 15.48633
950.2368, 12.42224
950.7189, 15.13538
951.2010, 18.90784
951.6832, 25.26025
952.1653, 28.80530
952.6474, 25.68835
953.1295, 19.05591
953.6116, 16.31165
954.0938, 17.46667
954.5759, 24.36707
955.0580, 40.40857
955.5401, 53.33533
956.0222, 42.85559
956.5043, 21.83203
956.9865, 9.894775
957.4686, 17.99756
957.9507, 22.08533
958.4328, 15.15723
958.9149, 6.512573
959.3970, 3.001587
959.8792, 4.698120
960.3613, 10.44373
960.8434, 20.48975
961.3255, 28.70654
961.8076, 27.70068
962.2897, 24.38232
962.7719, 23.39978
963.2540, 25.11316
963.7361, 30.07935
964.2182, 43.97095
964.7003, 52.96460
965.1824, 51.45435
965.6646, 42.13538
966.1467, 31.23303
966.6288, 19.95947
967.1109, 17.91528
967.5930, 37.66992
968.0751, 55.64771
968.5573, 48.34766
969.0394, 26.91003
969.5215, 10.72986
970.0036, 2.718750
970.4857, 1.250000
970.9678, 8.736938
971.4500, 18.47217
971.9321, 22.76111
972.4142, 21.75781
972.8963, 15.24023
973.3784, 2.799438
973.8605, 5.663574
974.3427, 0.8087160
974.8248, 9.090698
975.3069, 19.38965
975.7890, 30.38684
976.2711, 31.74194
976.7532, 19.89294
977.2354, 9.836426
977.7175, 11.26074
978.1996, 19.54089
978.6817, 23.21167
979.1638, 23.10388
979.6459, 22.54163
980.1281, 24.06567
980.6102, 24.47144
981.0923, 20.26941
981.5744, 14.63330
982.0565, 15.31287
982.5386, 24.93726
983.0208, 25.36731
983.5029, 10.89185
983.9850, 5.581177
984.4671, 6.793579
984.9492, 0.7507320
985.4313, 7.130493
985.9135, 10.57959
986.3956, 11.85486
986.8777, 11.18457
987.3598, 8.176758
987.8419, 0.9002690
988.3240, 10.69031
988.8062, 14.65137
989.2883, 10.94812
989.7704, 3.082764
990.2525, 9.672485
990.7346, 23.16541
991.2167, 35.66357
991.6989, 45.65723
992.1810, 46.63428
992.6631, 25.72253
993.1452, 13.44360
993.6273, 18.38037
994.1094, 31.88269
994.5916, 38.44641
995.0737, 38.35181
995.5558, 31.96252
996.0379, 16.72083
996.5200, 4.152344
997.0021, 3.163086
997.4843, 8.843140
997.9664, 17.42529
998.4485, 31.54688
998.9306, 36.48120
999.4127, 29.07825
999.8948, 21.21301
1000.377, 22.83301
1000.859, 30.26379
1001.341, 36.02881
1001.823, 39.65295
1002.305, 40.17236
1002.788, 34.05432
1003.270, 28.11304
1003.752, 25.83032
1004.234, 25.67834
1004.716, 22.08862
1005.198, 14.12817
1005.680, 14.30066
1006.162, 28.27856
1006.644, 44.83594
1007.127, 53.81885
1007.609, 54.87000
1008.091, 45.73755
1008.573, 18.80078
1009.055, 0.1319580
1009.537, 7.818726
1010.019, 7.160889
1010.501, 1.548584
1010.984, 17.45300
1011.466, 28.83484
1011.948, 35.70483
1012.430, 40.54822
1012.912, 46.77710
1013.394, 49.99023
1013.876, 45.79553
1014.358, 35.43237
1014.841, 24.79236
1015.323, 11.58582
1015.805, 5.329956
1016.287, 9.627075
1016.769, 18.70227
1017.251, 25.75940
1017.733, 29.75183
1018.215, 27.10400
1018.697, 13.89612
1019.180, 3.573486
1019.662, 3.817749
1020.144, 7.231201
1020.626, 8.335938
1021.108, 6.819824
1021.590, 8.436035
1022.072, 13.27771
1022.554, 18.99097
1023.036, 26.71753
1023.519, 32.42078
1024.001, 27.73364
1024.483, 16.59363
1024.965, 14.32117
1025.447, 32.00403
1025.929, 46.38147
1026.411, 54.23389
1026.893, 56.68640
1027.375, 55.18604
1027.858, 49.82690
1028.340, 39.08679
1028.822, 20.34827
1029.304, 8.650146
1029.786, 22.56433
1030.268, 40.59290
1030.750, 44.42444
1031.232, 32.57996
1031.715, 23.16296
1032.197, 17.02905
1032.679, 13.22412
1033.161, 10.59558
1033.643, 10.57068
1034.125, 17.14526
1034.607, 28.30261
1035.089, 38.56079
1035.572, 51.38025
1036.054, 54.44214
1036.536, 41.96204
1037.018, 24.93140
1037.500, 18.64783
1037.982, 22.21094
1038.464, 31.12524
1038.946, 45.62817
1039.428, 55.88879
1039.911, 53.10779
1040.393, 44.08984
1040.875, 31.61450
1041.357, 16.04321
1041.839, 8.100586
1042.321, 9.151245
1042.803, 15.34094
1043.285, 27.71826
1043.767, 39.82739
1044.250, 35.61914
1044.732, 22.23206
1045.214, 15.51709
1045.696, 29.26660
1046.178, 38.03076
1046.660, 35.51013
1047.142, 29.71973
1047.624, 27.82312
1048.107, 29.36914
1048.589, 32.32471
1049.071, 36.58350
1049.553, 39.87952
1050.035, 39.71045
1050.517, 38.64807
1050.999, 39.40442
1051.481, 41.41125
1051.964, 39.37292
1052.446, 31.80371
1052.928, 24.65503
1053.410, 19.11414
1053.892, 15.77539
1054.374, 18.73499
1054.856, 23.94055
1055.338, 22.10400
1055.820, 5.164185
1056.302, 2.403931
1056.785, 18.18066
1057.267, 37.89880
1057.749, 35.33252
1058.231, 13.24939
1058.713, 5.412476
1059.195, 11.04028
1059.677, 19.48499
1060.159, 24.31177
1060.642, 30.02625
1061.124, 40.51221
1061.606, 53.16919
1062.088, 63.36389
1062.570, 72.19763
1063.052, 74.19141
1063.534, 67.24939
1064.016, 57.95984
1064.499, 55.71863
1064.981, 55.94153
1065.463, 51.01453
1065.945, 39.65637
1066.427, 27.12720
1066.909, 6.059570
1067.391, 4.861938
1067.873, 6.222046
1068.355, 31.94690
1068.838, 44.33252
1069.320, 44.34912
1069.802, 37.83679
1070.284, 20.91431
1070.766, 8.654053
1071.248, 15.62036
1071.730, 29.29980
1072.212, 33.93738
1072.694, 25.50171
1073.177, 23.44983
1073.659, 28.64001
1074.141, 34.28516
1074.623, 34.89111
1075.105, 32.92725
1075.587, 30.74951
1076.069, 28.67578
1076.551, 27.66199
1077.034, 27.72388
1077.516, 29.24438
1077.998, 32.84521
1078.480, 37.16833
1078.962, 39.63684
1079.444, 40.99792
1079.926, 43.82544
1080.408, 48.87683
1080.891, 52.76550
1081.373, 55.91089
1081.855, 54.86548
1082.337, 46.42078
1082.819, 31.59790
1083.301, 21.34607
1083.783, 15.65637
1084.265, 13.37305
1084.747, 12.68433
1085.229, 16.93091
1085.712, 37.06128
1086.194, 61.51318
1086.676, 70.65576
1087.158, 52.74963
1087.640, 42.95825
1088.122, 43.76782
1088.604, 45.95203
1089.086, 41.88037
1089.569, 33.45325
1090.051, 22.60815
1090.533, 10.14612
1091.015, 8.9478001E-02
1091.497, 7.417969
1091.979, 11.05505
1092.461, 10.82214
1092.943, 7.044678
1093.426, 2.181274
1093.908, 15.00952
1094.390, 21.39148
1094.872, 18.59314
1095.354, 14.99548
1095.836, 14.99841
1096.318, 17.18018
1096.800, 21.98914
1097.282, 28.57703
1097.765, 26.88989
1098.247, 16.25977
1098.729, 10.11670
1099.211, 15.45923
1099.693, 26.15869
1100.175, 41.00659
1100.657, 55.15698
1101.139, 60.34521
1101.622, 50.00830
1102.104, 41.61328
1102.586, 35.99231
1103.068, 30.25610
1103.550, 19.33752
1104.032, 7.819946
1104.514, 5.171631
1104.996, 10.59839
1105.479, 18.96460
1105.961, 37.61670
1106.443, 45.86621
1106.925, 35.77258
1107.407, 18.19678
1107.889, 10.67151
1108.371, 11.38464
1108.853, 10.63501
1109.335, 6.724854
1109.818, 6.296753
1110.300, 18.71606
1110.782, 31.06091
1111.264, 34.12427
1111.746, 29.85938
1112.228, 31.22839
1112.710, 38.59204
1113.192, 36.04651
1113.674, 13.20361
1114.157, 9.607056
1114.639, 10.30151
1115.121, 0.2460940
1115.603, 10.42053
1116.085, 20.73108
1116.567, 21.37817
1117.049, 10.03296
1117.531, 1.360474
1118.014, 7.488892
1118.496, 7.480591
1118.978, 6.870361
1119.460, 28.29614
1119.942, 38.28687
1120.424, 13.30005
1120.906, 3.231689
1121.388, 18.34045
1121.870, 39.17041
1122.353, 42.10645
1122.835, 32.98511
1123.317, 28.02197
1123.799, 28.10474
1124.281, 29.62488
1124.763, 31.62000
1125.245, 33.40881
1125.727, 36.52222
1126.209, 39.09839
1126.692, 36.11011
1127.174, 28.43542
1127.656, 24.24036
1128.138, 25.43103
1128.620, 29.05310
1129.102, 37.92444
1129.584, 44.45935
1130.066, 39.38733
1130.549, 24.71155
1131.031, 27.58813
1131.513, 49.57275
1131.995, 64.35559
1132.477, 57.15881
1132.959, 45.42725
1133.441, 48.00134
1133.923, 57.10266
1134.406, 62.37842
1134.888, 63.71863
1135.370, 55.78540
1135.852, 35.71570
1136.334, 17.95422
1136.816, 12.71802
1137.298, 15.57898
1137.780, 22.83301
1138.262, 32.22839
1138.745, 37.34521
1139.227, 32.52332
1139.709, 28.87207
1140.191, 27.65210
1140.673, 26.95764
1141.155, 23.82129
1141.637, 19.77454
1142.119, 18.39429
1142.601, 19.94604
1143.084, 24.15979
1143.566, 33.38513
1144.048, 43.60632
1144.530, 54.19470
1145.012, 63.08374
1145.494, 64.14893
1145.976, 58.56641
1146.458, 51.50720
1146.941, 43.75708
1147.423, 36.01868
1147.905, 22.88928
1148.387, 16.10010
1148.869, 26.00488
1149.351, 47.04724
1149.833, 47.89758
1150.315, 30.49451
1150.797, 19.73682
1151.280, 26.71655
1151.762, 35.40820
1152.244, 36.09851
1152.726, 31.11682
1153.208, 20.57422
1153.690, 3.147095
1154.172, 0.3043210
1154.654, 10.80725
1155.136, 22.16858
1155.619, 22.14514
1156.101, 22.52563
1156.583, 39.24976
1157.065, 62.98840
1157.547, 76.43799
1158.029, 77.91577
1158.511, 69.60144
1158.993, 49.10974
1159.476, 31.61890
1159.958, 33.07397
1160.440, 42.36243
1160.922, 45.31738
1161.404, 43.56360
1161.886, 46.00354
1162.368, 60.11011
1162.850, 63.80200
1163.333, 51.16980
1163.815, 36.74377
1164.297, 41.98889
1164.779, 55.08130
1165.261, 53.46411
1165.743, 36.39575
1166.225, 25.49866
1166.707, 29.71643
1167.189, 34.55530
1167.672, 36.87134
1168.154, 37.95239
1168.636, 40.05652
1169.118, 42.18152
1169.600, 44.15405
1170.082, 46.20032
1170.564, 46.16760
1171.046, 39.58728
1171.528, 35.83533
1172.011, 39.52966
1172.493, 47.36304
1172.975, 49.43713
1173.457, 45.67615
1173.939, 37.20117
1174.421, 21.59558
1174.903, 9.102661
1175.385, 4.570313
1175.868, 3.453369
1176.350, 4.831055
1176.832, 8.888062
1177.314, 14.09753
1177.796, 19.58362
1178.278, 20.28174
1178.760, 3.971680
1179.242, 3.588623
1179.724, 19.65845
1180.207, 48.51855
1180.689, 59.41260
1181.171, 52.70789
1181.653, 49.89087
1182.135, 50.75659
1182.617, 49.70874
1183.099, 37.64734
1183.581, 28.98767
1184.063, 37.47327
1184.546, 50.84119
1185.028, 50.09265
1185.510, 34.71924
1185.992, 23.24780
1186.474, 17.01123
1186.956, 10.54102
1187.438, 7.912109
1187.920, 20.46606
1188.403, 9.634033
1188.885, 14.96875
1189.367, 33.59863
1189.849, 46.38477
1190.331, 48.98291
1190.813, 39.33594
1191.295, 32.67212
1191.777, 52.67725
1192.260, 72.01904
1192.742, 62.12256
1193.224, 29.54712
1193.706, 18.28809
1194.188, 30.61499
1194.670, 41.71826
1195.152, 46.21802
1195.634, 46.42798
1196.116, 42.81982
1196.599, 37.23462
1197.081, 29.57739
1197.563, 20.12866
1198.045, 20.48975
1198.527, 32.00146
1199.009, 41.32104
1199.491, 44.92310
1199.973, 41.28906
1200.455, 18.67017
1200.938, 6.388672
1201.420, 12.47803
1201.902, 4.023193
1202.384, 23.77686
1202.866, 48.78174
1203.348, 60.75537
1203.830, 43.48950
1204.312, 19.58984
1204.795, 13.63770
1205.277, 18.00830
1205.759, 21.87183
1206.241, 25.32959
1206.723, 21.78784
1207.205, 9.688965
1207.687, 0.6630860
1208.169, 1.363281
1208.651, 9.471680
1209.134, 29.02466
1209.616, 52.43481
1210.098, 63.58105
1210.580, 58.80884
1211.062, 48.89087
1211.544, 32.37085
1212.026, 19.30762
1212.508, 19.80811
1212.990, 26.66406
1213.473, 36.65479
1213.955, 46.30981
1214.437, 45.09741
1214.919, 27.77515
1215.401, 16.49316
1215.883, 13.23389
1216.365, 12.91162
1216.847, 7.959229
1217.330, 5.647461
1217.812, 20.50244
1218.294, 46.00586
1218.776, 51.70508
1219.258, 27.74268
1219.740, 16.53076
1220.222, 25.59180
1220.704, 36.93579
1221.187, 29.50562
1221.669, 16.77075
1222.151, 12.18457
1222.633, 16.27393
1223.115, 25.63794
1223.597, 42.12793
1224.079, 48.40454
1224.561, 40.00171
1225.043, 26.03906
1225.526, 8.506836
1226.008, 3.715820
1226.490, 4.203125
1226.972, 31.55762
1227.454, 42.01221
1227.936, 32.12085
1228.418, 23.13989
1228.900, 20.71851
1229.382, 19.49219
1229.865, 9.982422
1230.347, 0.8713380
1230.829, 4.973389
1231.311, 22.84253
1231.793, 24.38574
1232.275, 6.190430
1232.757, 0.4799800
1233.239, 18.02612
1233.722, 39.80078
1234.204, 39.65039
1234.686, 31.43018
1235.168, 29.53296
1235.650, 34.92065
1236.132, 45.14111
1236.614, 61.10571
1237.096, 66.36108
1237.578, 51.02588
1238.061, 33.04614
1238.543, 28.75513
1239.025, 31.57886
1239.507, 36.24536
1239.989, 42.65479
1240.471, 38.80176
1240.953, 24.45264
1241.435, 13.78125
1241.917, 12.15308
1242.400, 17.76196
1242.882, 39.38184
1243.364, 60.20532
1243.846, 60.96387
1244.328, 40.79224
1244.810, 20.65918
1245.292, 0.1845700
1245.774, 8.587158
1246.257, 6.890137
1246.739, 29.31689
1247.221, 57.67920
1247.703, 77.94702
1248.185, 72.98901
1248.667, 41.67456
1249.149, 29.91064
1249.631, 36.04639
1250.114, 44.12158
1250.596, 49.59033
1251.078, 49.02271
1251.560, 32.94775
1252.042, 15.90991
1252.524, 14.44385
1253.006, 27.32959
1253.488, 25.79810
1253.970, 12.36157
1254.453, 6.566650
1254.935, 30.49463
1255.417, 49.18921
1255.899, 45.60596
1256.381, 35.32056
1256.863, 30.55322
1257.345, 31.32080
1257.827, 42.84277
1258.310, 62.05493
1258.792, 70.39771
1259.274, 49.18359
1259.756, 30.62280
1260.238, 20.20190
1260.720, 16.09766
1261.202, 17.12695
1261.684, 22.53784
1262.167, 31.42896
1262.649, 42.83032
1263.131, 52.67847
1263.613, 59.98779
1264.095, 64.97803
1264.577, 67.60620
1265.059, 68.24243
1265.541, 67.59277
1266.023, 65.10010
1266.505, 59.90894
1266.988, 51.79858
1267.470, 39.76245
1267.952, 14.67676
1268.434, 1.822754
1268.916, 4.596680
1269.398, 16.75732
1269.880, 41.29517
1270.362, 65.16040
1270.845, 67.06689
1271.327, 49.91846
1271.809, 30.58423
1272.291, 3.715820
1272.773, 1.810791
1273.255, 20.03271
1273.737, 46.07983
1274.219, 52.96753
1274.702, 51.80615
1275.184, 52.58057
1275.666, 54.86865
1276.148, 55.57471
1276.630, 54.14062
1277.112, 51.63013
1277.594, 47.82446
1278.076, 46.51172
1278.558, 61.23022
1279.041, 70.37354
1279.523, 45.48022
1280.005, 3.529785
1280.487, 9.211426
1280.969, 7.807617
1281.451, 24.98291
1281.933, 37.50342
1282.415, 46.57886
1282.897, 47.16309
1283.380, 46.61890
1283.862, 49.66846
1284.344, 54.08057
1284.826, 55.92041
1285.308, 55.19995
1285.790, 50.54810
1286.272, 41.86182
1286.754, 36.50415
1287.237, 40.78857
1287.719, 46.51318
1288.201, 52.84741
1288.683, 56.52661
1289.165, 48.96948
1289.647, 34.63965
1290.129, 25.98608
1290.611, 24.16064
1291.094, 23.66553
1291.576, 18.78516
1292.058, 22.36816
1292.540, 39.88428
1293.022, 59.94800
1293.504, 67.05957
1293.986, 65.89673
1294.468, 61.94287
1294.950, 56.01978
1295.432, 50.16724
1295.915, 44.74707
1296.397, 42.77637
1296.879, 46.50806
1297.361, 46.91895
1297.843, 25.79980
1298.325, 1.940918
1298.807, 2.196045
1299.289, 10.15723
1299.772, 17.35840
1300.254, 16.57104
1300.736, 18.96753
1301.218, 26.91089
1301.700, 33.91650
1302.182, 29.86353
1302.664, 26.80347
1303.146, 39.20532
1303.629, 57.70850
1304.111, 59.65430
1304.593, 46.43823
1305.075, 35.84180
1305.557, 30.42041
1306.039, 24.52051
1306.521, 10.99170
1307.003, 0.9267580
1307.485, 1.972412
1307.968, 0.9587400
1308.450, 8.131592
1308.932, 20.02222
1309.414, 31.07300
1309.896, 40.49976
1310.378, 45.34717
1310.860, 44.02734
1311.342, 37.06567
1311.824, 22.01074
1312.307, 7.141113
1312.789, 4.483398
1313.271, 9.828369
1313.753, 9.078125
1314.235, 1.906494
1314.717, 1.614014
1315.199, 12.54126
1315.681, 16.55200
1316.164, 8.258789
1316.646, 8.6425997E-02
1317.128, 7.229004
1317.610, 0.0000000E+00
##END=



