##NAMES=Silver
##RRUFFID=R070416
##IDEAL CHEMISTRY=Ag
##LOCALITY=Frontier mine, South Lorrain, Timiskaming District, Ontario, Canada
##OWNER=RRUFF
##SOURCE=Royal Ontario Museum
##DESCRIPTION=Silver-white metallic wires with grey to bronze colored tarnished surface
##STATUS=The identification of this mineral has been confirmed by X-ray diffraction and chemical analysis
##URL=rruff.info/R070416
##MEASURED CHEMISTRY=Ag
151.5903, 973.7985
152.0724, 987.8168
152.5545, 1001.334
153.0366, 1015.188
153.5188, 1028.490
154.0009, 1039.444
154.4830, 1053.715
154.9651, 1061.301
155.4472, 1056.821
155.9293, 1027.234
156.4115, 1003.936
156.8936, 993.7789
157.3757, 994.8715
157.8578, 1000.308
158.3399, 1014.159
158.8221, 1028.234
159.3042, 1037.314
159.7863, 1035.353
160.2684, 1032.903
160.7505, 1033.388
161.2326, 1036.513
161.7148, 1039.983
162.1969, 1045.151
162.6790, 1049.321
163.1611, 1049.853
163.6432, 1042.341
164.1253, 1033.818
164.6075, 1028.045
165.0896, 1025.160
165.5717, 1022.697
166.0538, 1017.880
166.5359, 1012.870
167.0180, 1010.721
167.5002, 1013.693
167.9823, 1019.338
168.4644, 1025.496
168.9465, 1031.749
169.4286, 1040.323
169.9107, 1056.799
170.3929, 1076.915
170.8750, 1092.111
171.3571, 1096.565
171.8392, 1094.332
172.3213, 1088.742
172.8034, 1079.385
173.2856, 1069.574
173.7677, 1061.441
174.2498, 1055.143
174.7319, 1051.322
175.2140, 1052.001
175.6961, 1055.003
176.1783, 1056.998
176.6604, 1057.175
177.1425, 1056.511
177.6246, 1055.902
178.1067, 1055.383
178.5888, 1055.146
179.0710, 1057.269
179.5531, 1059.792
180.0352, 1057.424
180.5173, 1045.647
180.9994, 1031.777
181.4815, 1029.212
181.9637, 1037.651
182.4458, 1048.312
182.9279, 1053.369
183.4100, 1054.320
183.8921, 1057.147
184.3742, 1065.405
184.8564, 1075.833
185.3385, 1079.659
185.8206, 1076.483
186.3027, 1071.939
186.7848, 1072.366
187.2669, 1077.046
187.7491, 1080.545
188.2312, 1081.167
188.7133, 1079.155
189.1954, 1074.181
189.6775, 1065.490
190.1596, 1057.381
190.6418, 1056.685
191.1239, 1063.185
191.6060, 1067.829
192.0881, 1065.138
192.5702, 1056.291
193.0524, 1052.013
193.5345, 1053.024
194.0166, 1056.728
194.4987, 1059.648
194.9808, 1061.783
195.4629, 1063.136
195.9451, 1064.830
196.4272, 1066.798
196.9093, 1062.451
197.3914, 1049.262
197.8735, 1033.406
198.3556, 1026.670
198.8378, 1029.855
199.3199, 1037.041
199.8020, 1046.825
200.2841, 1059.548
200.7662, 1068.323
201.2483, 1072.144
201.7305, 1072.357
202.2126, 1072.523
202.6947, 1073.181
203.1768, 1071.777
203.6589, 1066.022
204.1410, 1055.270
204.6232, 1044.893
205.1053, 1034.734
205.5874, 1025.525
206.0695, 1019.307
206.5516, 1015.612
207.0337, 1016.139
207.5159, 1024.600
207.9980, 1044.034
208.4801, 1055.931
208.9622, 1056.506
209.4443, 1047.841
209.9264, 1039.939
210.4086, 1033.049
210.8907, 1026.393
211.3728, 1017.983
211.8549, 1004.910
212.3370, 1000.497
212.8191, 1010.120
213.3013, 1031.276
213.7834, 1043.477
214.2655, 1045.182
214.7476, 1040.375
215.2297, 1030.321
215.7118, 1010.056
216.1940, 998.4974
216.6761, 1001.435
217.1582, 1018.053
217.6403, 1030.452
218.1224, 1038.368
218.6045, 1042.251
219.0867, 1041.926
219.5688, 1035.821
220.0509, 1029.174
220.5330, 1023.039
221.0151, 1017.346
221.4972, 1011.158
221.9794, 1001.782
222.4615, 994.8414
222.9436, 997.7184
223.4257, 1017.242
223.9078, 1032.563
224.3899, 1038.133
224.8721, 1033.293
225.3542, 1028.041
225.8363, 1020.929
226.3184, 1014.728
226.8005, 1013.087
227.2827, 1018.587
227.7648, 1023.809
228.2469, 1027.226
228.7290, 1028.880
229.2111, 1027.878
229.6932, 1021.423
230.1754, 1014.587
230.6575, 1015.063
231.1396, 1029.302
231.6217, 1039.302
232.1038, 1038.638
232.5859, 1024.399
233.0681, 1015.425
233.5502, 1014.350
234.0323, 1016.657
234.5144, 1015.266
234.9965, 1006.287
235.4786, 1000.293
235.9608, 1001.628
236.4429, 1012.751
236.9250, 1019.529
237.4071, 1020.330
237.8892, 1017.735
238.3713, 1015.840
238.8535, 1015.486
239.3356, 1014.375
239.8177, 1011.087
240.2998, 1004.022
240.7819, 1001.012
241.2640, 1002.944
241.7462, 1008.363
242.2283, 1015.455
242.7104, 1027.284
243.1925, 1035.710
243.6746, 1037.374
244.1567, 1029.933
244.6389, 1023.516
245.1210, 1017.839
245.6031, 1013.350
246.0852, 1011.201
246.5673, 1012.940
247.0494, 1014.336
247.5316, 1013.068
248.0137, 1006.701
248.4958, 1006.728
248.9779, 1017.893
249.4600, 1032.780
249.9421, 1036.411
250.4243, 1022.322
250.9064, 1008.626
251.3885, 1002.486
251.8706, 1006.885
252.3527, 1008.776
252.8348, 1007.164
253.3170, 1003.673
253.7991, 1001.186
254.2812, 999.5157
254.7633, 999.2808
255.2454, 1001.424
255.7275, 1007.454
256.2097, 1009.915
256.6918, 1007.260
257.1739, 1002.073
257.6560, 999.2346
258.1381, 999.8074
258.6202, 1000.508
259.1024, 999.4603
259.5845, 995.2937
260.0666, 995.3321
260.5487, 1000.877
261.0308, 1009.648
261.5129, 1018.565
261.9951, 1029.142
262.4772, 1036.030
262.9593, 1036.037
263.4414, 1027.237
263.9235, 1020.678
264.4056, 1016.477
264.8878, 1014.349
265.3699, 1013.664
265.8520, 1014.346
266.3341, 1016.716
266.8162, 1022.141
267.2983, 1031.823
267.7805, 1036.326
268.2626, 1034.657
268.7447, 1028.832
269.2268, 1021.280
269.7089, 1010.891
270.1910, 1002.788
270.6732, 999.4037
271.1553, 1001.253
271.6374, 1003.130
272.1195, 1005.085
272.6016, 1006.996
273.0837, 1009.463
273.5659, 1013.278
274.0480, 1013.656
274.5301, 1006.539
275.0122, 991.4840
275.4943, 983.6329
275.9764, 984.6244
276.4586, 989.7385
276.9407, 992.0785
277.4228, 991.3136
277.9049, 990.4551
278.3870, 991.0496
278.8691, 992.9661
279.3513, 992.8055
279.8334, 990.0011
280.3155, 986.5764
280.7976, 985.3739
281.2798, 986.4853
281.7619, 987.9433
282.2440, 989.5626
282.7261, 991.1127
283.2082, 990.4886
283.6903, 987.3262
284.1725, 983.3295
284.6546, 979.8878
285.1367, 977.0833
285.6188, 976.3821
286.1009, 978.9371
286.5830, 984.0813
287.0652, 989.6972
287.5473, 996.0621
288.0294, 1000.947
288.5115, 1000.906
288.9936, 996.4942
289.4757, 992.3570
289.9579, 990.4111
290.4400, 989.7513
290.9221, 987.7147
291.4042, 984.2243
291.8863, 980.3168
292.3684, 975.7127
292.8506, 971.1625
293.3327, 969.9874
293.8148, 975.0461
294.2969, 983.0637
294.7790, 988.1550
295.2611, 990.3251
295.7433, 990.2504
296.2254, 986.6609
296.7075, 981.0779
297.1896, 978.0391
297.6717, 980.0911
298.1538, 984.1907
298.6360, 984.8938
299.1181, 982.5848
299.6002, 981.7278
300.0823, 988.8688
300.5644, 999.5476
301.0465, 1005.168
301.5287, 1001.959
302.0108, 994.7078
302.4929, 986.8113
302.9750, 978.7251
303.4571, 973.5019
303.9392, 975.7233
304.4214, 981.2344
304.9035, 983.9775
305.3856, 980.2358
305.8677, 976.9614
306.3498, 982.4250
306.8319, 994.1457
307.3141, 1003.479
307.7962, 1005.476
308.2783, 1002.435
308.7604, 995.4202
309.2425, 981.9232
309.7246, 970.7881
310.2068, 969.9767
310.6889, 976.2250
311.1710, 981.0190
311.6531, 977.5064
312.1352, 972.6436
312.6173, 972.0632
313.0995, 978.1656
313.5816, 984.1712
314.0637, 987.5905
314.5458, 988.6855
315.0279, 988.0061
315.5100, 984.1053
315.9922, 979.7332
316.4743, 975.7592
316.9564, 971.6823
317.4385, 970.5186
317.9206, 976.8271
318.4027, 985.8381
318.8849, 990.8862
319.3670, 986.2507
319.8491, 980.8077
320.3312, 977.4068
320.8133, 976.2597
321.2954, 977.2136
321.7776, 984.7433
322.2597, 992.6402
322.7418, 994.2867
323.2239, 979.4965
323.7060, 967.5877
324.1881, 965.3812
324.6703, 974.2415
325.1524, 977.5637
325.6345, 966.8006
326.1166, 953.9651
326.5987, 948.6797
327.0808, 959.4048
327.5630, 967.7661
328.0451, 970.4360
328.5272, 967.7701
329.0093, 967.6722
329.4914, 972.8165
329.9735, 978.1015
330.4557, 980.0166
330.9378, 975.8713
331.4199, 972.9982
331.9020, 971.8688
332.3841, 972.4205
332.8662, 974.9508
333.3484, 982.1021
333.8305, 987.1858
334.3126, 985.2234
334.7947, 972.0145
335.2768, 965.2874
335.7589, 968.3568
336.2411, 977.0515
336.7232, 980.1328
337.2053, 975.2369
337.6874, 971.5725
338.1695, 975.8693
338.6516, 990.0627
339.1338, 993.5623
339.6159, 982.7825
340.0980, 966.3246
340.5801, 959.2335
341.0622, 962.3015
341.5443, 966.8438
342.0265, 969.8915
342.5086, 971.4733
342.9907, 971.6853
343.4728, 970.1880
343.9549, 968.6458
344.4370, 969.6927
344.9192, 972.9985
345.4013, 975.3552
345.8834, 974.5012
346.3655, 972.1803
346.8476, 974.6769
347.3297, 982.2245
347.8119, 987.7853
348.2940, 980.2796
348.7761, 964.8154
349.2582, 957.3725
349.7403, 966.2758
350.2225, 981.1702
350.7046, 987.8563
351.1867, 987.0050
351.6688, 983.3132
352.1509, 978.4293
352.6331, 973.3207
353.1152, 969.4099
353.5973, 967.0090
354.0794, 965.8879
354.5615, 963.9826
355.0436, 962.7889
355.5258, 966.8574
356.0079, 990.6838
356.4900, 1014.216
356.9721, 1016.868
357.4542, 989.2273
357.9363, 961.9272
358.4185, 952.6057
358.9006, 955.1965
359.3827, 959.2041
359.8648, 962.3178
360.3469, 964.3842
360.8290, 965.0765
361.3112, 964.2048
361.7933, 963.1845
362.2754, 960.6498
362.7575, 958.8658
363.2396, 960.3012
363.7217, 971.2534
364.2039, 979.7252
364.6860, 981.4313
365.1681, 976.2332
365.6502, 972.0828
366.1323, 971.9352
366.6144, 971.8570
367.0966, 969.0944
367.5787, 959.2044
368.0608, 952.0182
368.5429, 948.6893
369.0250, 948.7176
369.5071, 949.5872
369.9893, 951.2164
370.4714, 953.7618
370.9535, 957.6163
371.4356, 964.2451
371.9177, 968.7326
372.3998, 970.6743
372.8820, 970.6166
373.3641, 970.0692
373.8462, 969.8878
374.3283, 966.9209
374.8104, 957.8080
375.2925, 941.2234
375.7747, 934.0775
376.2568, 938.1887
376.7389, 947.9998
377.2210, 957.9456
377.7031, 968.3800
378.1852, 973.4622
378.6674, 968.8071
379.1495, 957.5233
379.6316, 954.3582
380.1137, 960.2456
380.5958, 966.0326
381.0779, 960.6025
381.5601, 946.6343
382.0422, 938.0531
382.5243, 939.1224
383.0064, 945.3395
383.4885, 950.4483
383.9706, 954.4164
384.4528, 956.6597
384.9349, 955.4437
385.4170, 952.6038
385.8991, 951.5867
386.3812, 953.5927
386.8633, 955.1713
387.3455, 951.9818
387.8276, 945.8555
388.3097, 940.9286
388.7918, 937.7399
389.2739, 937.6467
389.7560, 944.3535
390.2382, 959.0835
390.7203, 969.1144
391.2024, 965.0429
391.6845, 953.3806
392.1666, 941.5397
392.6487, 928.2209
393.1309, 918.7338
393.6130, 915.8177
394.0951, 919.1519
394.5772, 925.1486
395.0593, 936.0973
395.5414, 947.4026
396.0236, 956.0949
396.5057, 964.3439
396.9878, 966.9171
397.4699, 959.5328
397.9520, 945.5586
398.4341, 935.6671
398.9163, 932.4468
399.3984, 930.6292
399.8805, 927.9698
400.3626, 922.8212
400.8447, 922.0797
401.3268, 928.4242
401.8090, 937.1974
402.2911, 941.8591
402.7732, 941.2766
403.2553, 939.2741
403.7374, 935.8757
404.2195, 931.3463
404.7017, 931.1210
405.1838, 936.3367
405.6659, 942.8228
406.1480, 947.3478
406.6301, 949.9466
407.1122, 950.1140
407.5944, 947.2822
408.0765, 942.4427
408.5586, 936.6019
409.0407, 929.8009
409.5228, 926.1864
410.0049, 931.7329
410.4871, 942.6733
410.9692, 948.2682
411.4513, 946.9655
411.9334, 942.1882
412.4155, 935.1666
412.8976, 927.3916
413.3798, 923.3311
413.8619, 928.2008
414.3440, 935.8447
414.8261, 940.0209
415.3082, 940.5872
415.7903, 939.8414
416.2725, 939.3995
416.7546, 938.4547
417.2367, 935.9324
417.7188, 927.8984
418.2009, 922.2559
418.6830, 925.7167
419.1652, 935.4341
419.6473, 940.8284
420.1294, 932.3375
420.6115, 923.0790
421.0937, 920.5018
421.5758, 929.0223
422.0579, 936.9371
422.5400, 945.2404
423.0221, 951.5509
423.5042, 951.9498
423.9864, 937.4058
424.4685, 927.0155
424.9506, 926.3372
425.4327, 936.3383
425.9148, 943.9714
426.3969, 949.7123
426.8791, 952.5522
427.3612, 951.2158
427.8433, 944.7458
428.3254, 936.7214
428.8075, 926.1041
429.2896, 914.8753
429.7718, 910.8056
430.2539, 914.9584
430.7360, 920.4516
431.2181, 923.1390
431.7002, 923.2536
432.1823, 924.8317
432.6645, 928.7711
433.1466, 931.8420
433.6287, 927.2966
434.1108, 916.9763
434.5929, 910.1506
435.0750, 912.6100
435.5572, 920.1677
436.0393, 926.9820
436.5214, 932.9423
437.0035, 935.7063
437.4856, 929.8894
437.9677, 920.7593
438.4499, 916.0867
438.9320, 920.1993
439.4141, 925.2068
439.8962, 923.8821
440.3783, 918.9188
440.8604, 917.2238
441.3426, 924.9042
441.8247, 934.4210
442.3068, 942.2261
442.7889, 948.2866
443.2710, 950.8668
443.7531, 947.4311
444.2353, 941.0800
444.7174, 935.1804
445.1995, 927.3492
445.6816, 923.2180
446.1637, 925.9387
446.6458, 934.5795
447.1280, 939.3208
447.6101, 937.3640
448.0922, 934.5909
448.5743, 935.3144
449.0564, 944.3669
449.5385, 942.6410
450.0207, 924.3243
450.5028, 899.9136
450.9849, 891.1701
451.4670, 901.4780
451.9491, 910.4970
452.4312, 908.1247
452.9134, 896.7378
453.3955, 896.3550
453.8776, 908.1459
454.3597, 922.4626
454.8418, 929.6467
455.3239, 931.1982
455.8061, 933.3852
456.2882, 938.7926
456.7703, 943.6821
457.2524, 941.6127
457.7345, 933.9761
458.2166, 926.3678
458.6988, 921.5417
459.1809, 918.8303
459.6630, 917.4102
460.1451, 917.0491
460.6272, 918.9767
461.1093, 928.0087
461.5915, 938.5379
462.0736, 943.3833
462.5557, 933.7529
463.0378, 924.3474
463.5199, 922.2017
464.0020, 926.1320
464.4842, 926.6349
464.9663, 912.7842
465.4484, 901.6565
465.9305, 903.5048
466.4126, 935.6826
466.8947, 950.4476
467.3769, 937.0313
467.8590, 910.9443
468.3411, 897.8372
468.8232, 904.3042
469.3053, 910.7656
469.7874, 911.2216
470.2696, 906.2285
470.7517, 907.5437
471.2338, 917.5829
471.7159, 926.4979
472.1980, 923.4156
472.6801, 908.6942
473.1623, 899.0328
473.6444, 897.3779
474.1265, 900.4559
474.6086, 904.3697
475.0907, 908.7245
475.5728, 910.9680
476.0550, 907.9536
476.5371, 902.5807
477.0192, 899.8023
477.5013, 899.7964
477.9834, 900.0863
478.4655, 898.3899
478.9477, 895.9526
479.4298, 894.2362
479.9119, 891.5620
480.3940, 892.3464
480.8761, 905.2195
481.3582, 924.2648
481.8404, 932.2262
482.3225, 909.1702
482.8046, 885.5470
483.2867, 876.1318
483.7688, 886.6339
484.2509, 895.8718
484.7331, 905.5779
485.2152, 911.3611
485.6973, 908.0616
486.1794, 884.7634
486.6615, 871.3846
487.1436, 874.8704
487.6258, 891.5298
488.1079, 904.7828
488.5900, 915.0323
489.0721, 920.4651
489.5542, 918.8901
490.0363, 910.2563
490.5185, 900.8044
491.0006, 889.8879
491.4827, 881.1058
491.9648, 882.1246
492.4470, 890.8057
492.9291, 895.0416
493.4112, 887.5479
493.8933, 876.0511
494.3754, 873.0501
494.8575, 877.4706
495.3397, 882.7260
495.8218, 883.2110
496.3039, 882.9318
496.7860, 887.2273
497.2681, 898.6121
497.7502, 907.9301
498.2324, 909.1127
498.7145, 905.6948
499.1966, 902.5012
499.6787, 897.6641
500.1608, 896.5901
500.6429, 904.7149
501.1251, 920.9859
501.6072, 928.7224
502.0893, 919.1620
502.5714, 907.6813
503.0535, 901.6112
503.5356, 904.0750
504.0178, 904.3652
504.4999, 901.3627
504.9820, 897.2007
505.4641, 895.4384
505.9462, 896.7241
506.4283, 897.1518
506.9105, 895.9514
507.3926, 892.9584
507.8747, 885.2740
508.3568, 872.4121
508.8389, 863.6256
509.3210, 870.0849
509.8032, 885.8151
510.2853, 893.4601
510.7674, 889.5632
511.2495, 883.1028
511.7316, 884.2734
512.2137, 889.6358
512.6959, 892.1850
513.1780, 886.3499
513.6601, 878.9586
514.1422, 872.6447
514.6243, 867.9351
515.1064, 867.9026
515.5886, 879.2038
516.0707, 891.7594
516.5528, 899.1544
517.0349, 898.2130
517.5170, 897.2171
517.9991, 898.1063
518.4813, 898.8994
518.9634, 896.6987
519.4455, 888.0957
519.9276, 882.4324
520.4097, 882.3100
520.8918, 886.8725
521.3740, 891.1414
521.8561, 895.7837
522.3382, 897.9213
522.8203, 894.1567
523.3024, 885.0014
523.7845, 879.0007
524.2667, 876.9808
524.7488, 876.6688
525.2309, 875.8030
525.7130, 874.3384
526.1951, 872.1653
526.6772, 869.3055
527.1594, 865.6299
527.6415, 859.0538
528.1236, 850.8522
528.6057, 846.5334
529.0878, 852.8439
529.5699, 861.9415
530.0521, 867.7484
530.5342, 868.8304
531.0163, 869.8381
531.4984, 873.6173
531.9805, 877.5124
532.4626, 878.7233
532.9448, 878.1186
533.4269, 872.9683
533.9090, 857.7440
534.3911, 837.1796
534.8732, 831.3855
535.3553, 847.6038
535.8375, 865.0931
536.3196, 875.6304
536.8017, 879.2732
537.2838, 876.0464
537.7659, 863.6877
538.2480, 851.8320
538.7302, 854.5591
539.2123, 869.0508
539.6944, 874.2066
540.1765, 861.4828
540.6586, 844.7642
541.1407, 845.1228
541.6229, 858.5832
542.1050, 870.7905
542.5871, 871.6264
543.0692, 869.3492
543.5513, 872.5328
544.0334, 881.5225
544.5156, 887.4860
544.9977, 885.0772
545.4798, 878.6321
545.9619, 871.2284
546.4440, 859.1423
546.9261, 852.5283
547.4083, 857.2206
547.8904, 867.4126
548.3725, 872.6479
548.8546, 871.3709
549.3367, 867.5892
549.8188, 860.9780
550.3010, 852.0749
550.7831, 847.1672
551.2652, 846.5190
551.7473, 849.0037
552.2294, 855.5114
552.7115, 865.4020
553.1937, 871.9688
553.6758, 874.5741
554.1579, 874.2955
554.6400, 871.6855
555.1221, 867.1746
555.6042, 861.9386
556.0864, 854.8166
556.5685, 848.6769
557.0506, 847.5230
557.5327, 850.0714
558.0148, 851.5770
558.4969, 848.5092
558.9791, 844.5962
559.4612, 841.9355
559.9433, 840.7830
560.4254, 840.7433
560.9075, 844.3866
561.3896, 847.5980
561.8718, 846.6190
562.3539, 837.1288
562.8360, 830.7357
563.3181, 828.4302
563.8002, 829.7076
564.2823, 834.4344
564.7645, 843.7492
565.2466, 851.2311
565.7287, 854.2175
566.2108, 853.2571
566.6929, 849.6857
567.1750, 843.3579
567.6572, 838.3718
568.1393, 840.1708
568.6214, 845.5195
569.1035, 847.3834
569.5856, 843.8613
570.0677, 840.1694
570.5499, 841.8430
571.0320, 845.9379
571.5141, 847.8063
571.9962, 842.9254
572.4783, 838.3046
572.9604, 837.5081
573.4426, 839.7137
573.9247, 840.4745
574.4068, 835.7302
574.8889, 832.5659
575.3710, 835.1122
575.8531, 845.8627
576.3353, 848.3671
576.8174, 838.7658
577.2995, 826.6063
577.7816, 819.5250
578.2637, 817.3643
578.7458, 824.3896
579.2280, 844.4585
579.7101, 868.0347
580.1922, 878.2824
580.6743, 876.5651
581.1564, 870.5871
581.6385, 859.8916
582.1207, 849.0931
582.6028, 845.3165
583.0849, 847.8658
583.5670, 851.0072
584.0491, 851.0201
584.5313, 850.4988
585.0134, 852.1557
585.4955, 858.0732
585.9776, 860.6367
586.4597, 854.3601
586.9418, 845.1957
587.4240, 839.9731
587.9061, 840.8189
588.3882, 842.5018
588.8703, 844.4530
589.3524, 846.8884
589.8345, 851.6365
590.3167, 860.4795
590.7988, 864.6146
591.2809, 858.0882
591.7630, 843.3825
592.2451, 832.7886
592.7272, 826.3203
593.2094, 823.6387
593.6915, 828.3904
594.1736, 835.9342
594.6557, 836.2409
595.1378, 826.0913
595.6199, 815.5503
596.1021, 812.0165
596.5842, 812.9011
597.0663, 814.5189
597.5485, 816.2305
598.0306, 817.8362
598.5127, 819.6183
598.9948, 821.3311
599.4769, 821.8820
599.9590, 819.2798
600.4412, 817.9242
600.9233, 820.2657
601.4054, 826.8501
601.8875, 828.4947
602.3696, 824.3528
602.8517, 817.2828
603.3339, 807.6384
603.8160, 795.9277
604.2981, 791.3427
604.7802, 796.2034
605.2623, 803.9038
605.7444, 805.2604
606.2266, 802.5566
606.7087, 801.9575
607.1908, 808.4731
607.6729, 815.1158
608.1550, 814.7895
608.6371, 809.7253
609.1193, 807.1646
609.6014, 813.8668
610.0835, 820.4559
610.5656, 823.3083
611.0477, 822.4055
611.5298, 815.2911
612.0120, 794.8793
612.4941, 775.4076
612.9762, 766.6292
613.4583, 770.7603
613.9404, 778.2952
614.4225, 790.3479
614.9047, 803.0947
615.3868, 811.7376
615.8689, 816.3896
616.3510, 817.1348
616.8331, 812.1632
617.3152, 805.7269
617.7974, 805.8122
618.2795, 810.5738
618.7616, 812.8527
619.2437, 803.6140
619.7258, 794.1876
620.2079, 795.7631
620.6901, 808.7148
621.1722, 816.2065
621.6543, 803.8147
622.1364, 790.0676
622.6185, 787.7293
623.1006, 803.9585
623.5828, 817.3671
624.0649, 829.1022
624.5470, 836.9624
625.0291, 837.4979
625.5112, 829.5144
625.9933, 819.7870
626.4755, 807.7766
626.9576, 797.1873
627.4397, 799.1521
627.9218, 811.7729
628.4039, 820.5647
628.8860, 814.6839
629.3682, 802.7938
629.8503, 796.8655
630.3324, 796.1841
630.8145, 795.1483
631.2966, 787.8629
631.7787, 780.9106
632.2609, 779.1933
632.7430, 784.2664
633.2251, 790.9264
633.7072, 801.5334
634.1893, 811.1912
634.6714, 815.7965
635.1536, 813.5168
635.6357, 809.9068
636.1178, 804.4864
636.5999, 798.8737
637.0820, 795.9434
637.5641, 795.7496
638.0463, 797.6760
638.5284, 802.5278
639.0105, 808.5083
639.4926, 813.6010
639.9747, 817.2773
640.4568, 816.4717
640.9390, 803.6762
641.4211, 789.2258
641.9032, 783.6268
642.3853, 787.6161
642.8674, 791.8257
643.3495, 791.5911
643.8317, 790.8959
644.3138, 792.8293
644.7959, 801.2419
645.2780, 805.3455
645.7601, 803.7725
646.2422, 799.1049
646.7244, 793.4209
647.2065, 785.9205
647.6886, 781.9616
648.1707, 783.0277
648.6528, 787.3828
649.1349, 792.6052
649.6171, 798.4208
650.0992, 803.0688
650.5813, 805.1957
651.0634, 806.0364
651.5455, 807.8017
652.0276, 809.9802
652.5098, 809.7249
652.9919, 803.4988
653.4740, 795.9376
653.9561, 789.2368
654.4382, 783.2477
654.9203, 780.5330
655.4025, 784.6973
655.8846, 789.5313
656.3667, 790.6531
656.8488, 786.3648
657.3309, 783.8071
657.8130, 784.1509
658.2952, 784.5704
658.7773, 779.7182
659.2594, 770.2027
659.7415, 763.8574
660.2236, 763.0839
660.7057, 765.8128
661.1879, 771.0251
661.6700, 777.5195
662.1521, 781.8685
662.6342, 783.2784
663.1163, 781.2603
663.5984, 772.9776
664.0806, 759.5983
664.5627, 750.1860
665.0448, 749.4043
665.5269, 751.0059
666.0090, 751.5233
666.4911, 749.9598
666.9733, 755.4990
667.4554, 771.0071
667.9375, 787.9355
668.4196, 800.9753
668.9017, 810.0187
669.3839, 809.6818
669.8660, 798.1218
670.3481, 783.7691
670.8302, 775.6761
671.3123, 772.2694
671.7944, 770.1459
672.2766, 768.0949
672.7587, 767.3702
673.2408, 769.2542
673.7229, 772.9880
674.2050, 777.1152
674.6871, 785.8282
675.1693, 789.8344
675.6514, 783.4658
676.1335, 769.4264
676.6156, 761.5256
677.0977, 760.2698
677.5798, 764.2949
678.0620, 776.7532
678.5441, 795.6832
679.0262, 798.7310
679.5083, 785.1285
679.9904, 768.5929
680.4725, 757.5699
680.9547, 751.8456
681.4368, 753.2433
681.9189, 763.0126
682.4010, 769.8271
682.8831, 759.2177
683.3652, 745.0847
683.8474, 742.1987
684.3295, 765.7167
684.8116, 781.7312
685.2937, 782.4257
685.7758, 774.2935
686.2579, 764.3075
686.7401, 750.1415
687.2222, 740.8137
687.7043, 738.9869
688.1864, 742.0236
688.6685, 744.3611
689.1506, 745.9725
689.6328, 746.3412
690.1149, 743.2569
690.5970, 740.0918
691.0791, 744.3813
691.5612, 754.2139
692.0433, 759.7950
692.5255, 750.5023
693.0076, 739.6898
693.4897, 736.7414
693.9718, 743.1872
694.4539, 747.0986
694.9360, 743.8417
695.4182, 740.4524
695.9003, 741.2463
696.3824, 748.0787
696.8645, 750.1887
697.3466, 745.6380
697.8287, 741.4526
698.3109, 747.8635
698.7930, 762.2492
699.2751, 770.2938
699.7572, 768.6978
700.2393, 763.0957
700.7214, 757.1371
701.2036, 751.6409
701.6857, 747.9686
702.1678, 746.6065
702.6499, 747.1487
703.1320, 751.6282
703.6141, 757.8624
704.0963, 760.2737
704.5784, 756.8130
705.0605, 752.2609
705.5426, 746.6274
706.0247, 740.7366
706.5068, 739.2725
706.9890, 742.8759
707.4711, 745.4474
707.9532, 742.4911
708.4353, 736.4797
708.9174, 733.8077
709.3995, 734.2687
709.8817, 736.0511
710.3638, 738.9472
710.8459, 741.9355
711.3280, 744.3029
711.8101, 746.0678
712.2922, 746.4785
712.7744, 744.4210
713.2565, 741.5837
713.7386, 738.7935
714.2207, 734.7193
714.7028, 734.6978
715.1849, 740.4951
715.6671, 747.2775
716.1492, 748.4894
716.6313, 744.8203
717.1134, 745.5942
717.5955, 753.7064
718.0776, 762.4017
718.5598, 762.3441
719.0419, 756.9188
719.5240, 752.7273
720.0061, 753.6644
720.4882, 754.4383
720.9703, 753.1789
721.4525, 749.9446
721.9346, 744.8116
722.4167, 733.6898
722.8988, 726.0646
723.3809, 724.8430
723.8630, 728.3152
724.3452, 729.5115
724.8273, 728.1073
725.3094, 726.7618
725.7915, 727.0939
726.2736, 728.2473
726.7557, 728.3242
727.2379, 727.2911
727.7200, 724.8868
728.2021, 718.4953
728.6842, 712.4094
729.1663, 710.8725
729.6484, 714.3862
730.1306, 717.0767
730.6127, 715.3730
731.0948, 714.0072
731.5769, 716.0275
732.0590, 723.0001
732.5411, 726.6998
733.0233, 726.4440
733.5054, 724.4467
733.9875, 721.0078
734.4696, 716.9115
734.9517, 719.9522
735.4338, 732.4425
735.9160, 743.3516
736.3981, 736.4873
736.8802, 722.3728
737.3623, 717.7488
737.8444, 734.9382
738.3266, 746.8198
738.8087, 736.8491
739.2908, 717.5190
739.7729, 707.3036
740.2551, 711.7692
740.7372, 716.6752
741.2193, 721.7930
741.7014, 725.3445
742.1835, 721.2098
742.6656, 709.2814
743.1478, 703.0416
743.6299, 710.0023
744.1120, 720.9214
744.5941, 719.0673
745.0762, 708.5172
745.5583, 701.8807
746.0405, 710.6716
746.5226, 720.2289
747.0047, 721.6378
747.4868, 716.2250
747.9689, 712.6371
748.4510, 714.0327
748.9332, 714.5986
749.4153, 711.6817
749.8974, 705.8621
750.3795, 703.6116
750.8616, 704.9507
751.3438, 709.5811
751.8259, 722.3710
752.3080, 737.2672
752.7901, 737.9371
753.2722, 724.6465
753.7543, 710.1417
754.2365, 698.8648
754.7186, 692.6746
755.2007, 695.0436
755.6828, 708.2799
756.1649, 718.1813
756.6470, 722.9996
757.1292, 723.3616
757.6113, 717.9449
758.0934, 703.7195
758.5755, 698.5125
759.0576, 704.2421
759.5397, 712.4552
760.0219, 713.9847
760.5040, 710.7422
760.9861, 708.7768
761.4682, 709.2266
761.9503, 709.9955
762.4324, 708.1979
762.9146, 706.3124
763.3967, 707.6361
763.8788, 718.3998
764.3609, 723.4868
764.8430, 715.5664
765.3251, 703.4702
765.8073, 696.9523
766.2894, 697.1038
766.7715, 698.8782
767.2536, 702.1972
767.7357, 705.7204
768.2178, 707.9453
768.7000, 708.5814
769.1821, 706.0768
769.6642, 697.9901
770.1463, 689.7440
770.6284, 687.5281
771.1105, 688.3232
771.5927, 686.2927
772.0748, 673.0384
772.5569, 664.5332
773.0390, 666.9698
773.5211, 676.2010
774.0032, 681.1584
774.4854, 679.5831
774.9675, 682.9991
775.4496, 698.1583
775.9317, 717.6169
776.4138, 720.8153
776.8959, 710.2361
777.3781, 699.5123
777.8602, 696.6002
778.3423, 695.9136
778.8244, 692.0151
779.3065, 685.9907
779.7886, 682.6519
780.2708, 687.2501
780.7529, 690.8280
781.2350, 691.2472
781.7171, 688.4037
782.1992, 679.4167
782.6813, 661.6577
783.1635, 648.5558
783.6456, 649.0204
784.1277, 659.1426
784.6098, 667.3447
785.0919, 673.5541
785.5740, 677.4907
786.0562, 676.5278
786.5383, 675.0540
787.0204, 678.1448
787.5025, 686.0226
787.9846, 689.8699
788.4667, 680.8973
788.9489, 674.0074
789.4310, 676.9168
789.9131, 690.4669
790.3952, 696.9076
790.8773, 695.1349
791.3594, 691.1613
791.8416, 688.7742
792.3237, 687.7205
792.8058, 687.7968
793.2879, 688.9589
793.7700, 689.5253
794.2521, 687.0861
794.7343, 684.3936
795.2164, 684.3690
795.6985, 688.5313
796.1806, 689.7939
796.6627, 687.2272
797.1448, 681.9637
797.6270, 673.2920
798.1091, 660.0060
798.5912, 654.0832
799.0733, 656.5569
799.5554, 660.9762
800.0375, 660.4010
800.5197, 657.4534
801.0018, 657.1940
801.4839, 660.4562
801.9660, 665.2038
802.4481, 672.1294
802.9302, 678.8079
803.4124, 683.1576
803.8945, 684.1436
804.3766, 684.2974
804.8587, 683.7326
805.3408, 682.1838
805.8229, 679.2167
806.3051, 674.8387
806.7872, 669.9897
807.2693, 664.5685
807.7514, 659.7006
808.2335, 656.0637
808.7156, 653.8373
809.1978, 653.4456
809.6799, 655.2971
810.1620, 657.8974
810.6441, 661.6694
811.1262, 665.3118
811.6083, 667.4562
812.0905, 667.3122
812.5726, 667.6421
813.0547, 668.9020
813.5368, 669.8571
814.0189, 669.0922
814.5010, 666.7240
814.9832, 662.9144
815.4653, 657.2299
815.9474, 652.4752
816.4295, 652.5237
816.9116, 654.4478
817.3937, 654.6000
817.8759, 651.5989
818.3580, 647.7238
818.8401, 638.7544
819.3222, 632.2787
819.8043, 637.0549
820.2864, 656.4923
820.7686, 672.1679
821.2507, 682.9760
821.7328, 687.8101
822.2149, 680.8253
822.6970, 666.9006
823.1791, 658.9853
823.6613, 661.8033
824.1434, 665.1376
824.6255, 661.6577
825.1076, 655.2597
825.5897, 650.3324
826.0718, 650.2039
826.5540, 647.5292
827.0361, 640.3002
827.5182, 632.7591
828.0003, 629.4785
828.4824, 630.4713
828.9645, 636.3451
829.4467, 648.6002
829.9288, 659.7521
830.4109, 660.5778
830.8930, 654.8881
831.3751, 647.9720
831.8572, 639.4830
832.3394, 633.9438
832.8215, 633.2398
833.3036, 636.2237
833.7857, 641.5661
834.2678, 650.1384
834.7499, 659.2640
835.2321, 670.5231
835.7142, 678.1102
836.1963, 671.2189
836.6784, 654.0079
837.1605, 642.1190
837.6426, 639.2095
838.1248, 639.2061
838.6069, 638.7059
839.0890, 637.9307
839.5711, 637.0718
840.0532, 635.5876
840.5353, 634.9840
841.0175, 634.0249
841.4996, 635.2742
841.9817, 643.1122
842.4638, 658.0554
842.9459, 667.0359
843.4280, 668.4172
843.9102, 665.8871
844.3923, 661.3095
844.8744, 656.2343
845.3565, 653.5989
845.8386, 654.7959
846.3207, 655.2768
846.8029, 653.3264
847.2850, 649.7373
847.7671, 644.7632
848.2492, 635.9986
848.7313, 632.8723
849.2134, 636.6025
849.6956, 642.9366
850.1777, 650.1219
850.6598, 656.5591
851.1419, 655.0814
851.6240, 644.0631
852.1061, 633.1010
852.5883, 627.3062
853.0704, 626.2231
853.5525, 630.7213
854.0346, 644.7238
854.5167, 651.7953
854.9988, 648.0156
855.4810, 641.2557
855.9631, 637.1177
856.4452, 623.8919
856.9273, 638.3864
857.4094, 646.4717
857.8915, 648.4924
858.3737, 626.2839
858.8558, 635.3624
859.3379, 631.9024
859.8200, 627.9283
860.3021, 641.4102
860.7842, 622.7259
861.2664, 635.9310
861.7485, 636.4064
862.2306, 642.7078
862.7127, 636.3935
863.1948, 633.9758
863.6769, 644.1779
864.1591, 647.3923
864.6412, 639.6257
865.1233, 646.2975
865.6054, 627.1725
866.0875, 630.6845
866.5696, 643.9634
867.0518, 636.8311
867.5339, 643.7336
868.0160, 645.2909
868.4981, 622.5564
868.9802, 642.0677
869.4623, 643.3091
869.9445, 625.7912
870.4266, 643.8550
870.9087, 628.9233
871.3908, 625.7690
871.8729, 631.4779
872.3550, 627.9473
872.8372, 638.9838
873.3193, 635.9868
873.8014, 631.7358
874.2835, 632.9567
874.7656, 618.6720
875.2477, 633.1533
875.7299, 627.9849
876.2120, 632.5840
876.6941, 639.3970
877.1762, 634.0206
877.6583, 637.5643
878.1404, 635.3219
878.6226, 632.3153
879.1047, 638.8364
879.5869, 649.9943
880.0690, 653.3764
880.5511, 633.7590
881.0332, 617.8489
881.5153, 615.1470
881.9974, 620.6080
882.4796, 624.2645
882.9617, 625.4571
883.4438, 629.1789
883.9259, 637.9336
884.4080, 646.9432
884.8901, 648.8068
885.3723, 644.9294
885.8544, 638.2462
886.3365, 627.2998
886.8186, 617.8788
887.3007, 612.1617
887.7828, 609.8101
888.2650, 610.4030
888.7471, 614.8964
889.2292, 619.9065
889.7113, 625.8466
890.1934, 630.6969
890.6755, 631.7770
891.1577, 629.6484
891.6398, 625.3885
892.1219, 618.5766
892.6040, 613.1093
893.0861, 612.9116
893.5682, 614.6923
894.0504, 615.3732
894.5325, 614.0198
895.0146, 612.4930
895.4967, 609.5011
895.9788, 608.7108
896.4609, 616.4465
896.9431, 630.2117
897.4252, 631.9225
897.9073, 620.4760
898.3894, 609.7261
898.8715, 611.6192
899.3536, 617.5836
899.8358, 619.9995
900.3179, 617.6819
900.8000, 618.0104
901.2821, 625.7148
901.7642, 630.2109
902.2463, 625.2916
902.7285, 612.6241
903.2106, 603.3282
903.6927, 597.4836
904.1748, 595.6744
904.6569, 601.3383
905.1390, 608.8915
905.6212, 614.2751
906.1033, 616.9053
906.5854, 615.1744
907.0675, 598.5397
907.5496, 590.0579
908.0317, 598.0843
908.5139, 616.7191
908.9960, 629.3594
909.4781, 635.9238
909.9602, 636.6481
910.4423, 628.9727
910.9244, 619.7501
911.4066, 616.4529
911.8887, 617.7914
912.3708, 621.3855
912.8529, 630.8633
913.3350, 636.9079
913.8171, 638.7689
914.2993, 635.9030
914.7814, 623.9963
915.2635, 601.4499
915.7456, 593.2078
916.2277, 605.1935
916.7098, 621.6694
917.1920, 624.5500
917.6741, 619.9631
918.1562, 616.4008
918.6383, 615.4055
919.1204, 616.3240
919.6025, 621.6739
920.0847, 626.6736
920.5668, 628.0920
921.0489, 625.5314
921.5310, 620.9718
922.0131, 613.8267
922.4952, 609.5925
922.9774, 614.9790
923.4595, 625.0278
923.9416, 633.9115
924.4237, 640.9415
924.9058, 643.3885
925.3879, 635.4171
925.8701, 627.4530
926.3522, 623.5085
926.8343, 623.3342
927.3164, 626.5518
927.7985, 634.0958
928.2806, 636.2086
928.7628, 623.6044
929.2449, 607.5496
929.7270, 608.6065
930.2091, 620.8817
930.6912, 628.4347
931.1733, 620.5161
931.6555, 611.7759
932.1376, 605.8032
932.6197, 602.0482
933.1018, 600.3970
933.5839, 601.4005
934.0660, 599.6856
934.5482, 593.3380
935.0303, 586.8820
935.5124, 586.1107
935.9945, 589.3109
936.4766, 594.4321
936.9587, 603.8831
937.4409, 607.2830
937.9230, 592.1652
938.4051, 576.7158
938.8872, 576.2849
939.3693, 594.7103
939.8514, 605.4844
940.3336, 607.9399
940.8157, 606.5336
941.2978, 603.3263
941.7799, 599.3827
942.2620, 596.3152
942.7441, 594.1843
943.2263, 591.9107
943.7084, 587.4739
944.1905, 584.6590
944.6726, 585.1497
945.1547, 588.5231
945.6368, 592.3439
946.1190, 596.6706
946.6011, 601.1252
947.0832, 606.8511
947.5653, 611.1822
948.0474, 608.8042
948.5295, 602.3891
949.0117, 598.1523
949.4938, 601.0298
949.9759, 602.6737
950.4580, 600.3405
950.9401, 596.8611
951.4222, 597.6025
951.9044, 602.7102
952.3865, 602.9416
952.8686, 595.9660
953.3507, 588.0054
953.8328, 586.3704
954.3149, 587.3760
954.7971, 585.8527
955.2792, 579.4395
955.7613, 576.1385
956.2434, 579.3055
956.7255, 583.2345
957.2076, 584.6005
957.6898, 583.4632
958.1719, 581.3685
958.6540, 578.3375
959.1361, 576.8685
959.6182, 580.0647
960.1003, 584.5008
960.5825, 587.3464
961.0646, 588.6329
961.5467, 589.1973
962.0288, 587.8759
962.5109, 588.1143
962.9930, 591.9100
963.4752, 596.7400
963.9573, 594.6021
964.4394, 586.9264
964.9215, 582.6665
965.4036, 586.0103
965.8857, 591.2072
966.3679, 595.6129
966.8500, 598.2523
967.3321, 597.6580
967.8142, 590.3453
968.2963, 586.4219
968.7784, 587.9446
969.2606, 588.8484
969.7427, 579.3818
970.2248, 564.0531
970.7069, 561.6932
971.1890, 573.5452
971.6711, 583.6595
972.1533, 580.3815
972.6354, 572.7599
973.1175, 565.7296
973.5996, 559.6615
974.0817, 555.3547
974.5638, 552.2737
975.0460, 553.0217
975.5281, 559.8699
976.0102, 570.1543
976.4923, 580.5737
976.9744, 589.8100
977.4565, 593.9933
977.9387, 585.1320
978.4208, 578.3090
978.9029, 579.7493
979.3850, 585.8486
979.8671, 593.0677
980.3492, 602.5368
980.8314, 605.7345
981.3135, 601.1367
981.7956, 592.8281
982.2777, 583.7247
982.7598, 574.4410
983.2419, 564.8977
983.7241, 554.4999
984.2062, 548.9932
984.6883, 555.0188
985.1704, 561.3926
985.6525, 562.6311
986.1346, 559.4678
986.6168, 559.0767
987.0989, 561.4833
987.5810, 567.4708
988.0631, 582.6024
988.5452, 597.2651
989.0273, 602.3515
989.5095, 599.6993
989.9916, 593.7305
990.4737, 580.8936
990.9558, 571.5256
991.4379, 566.4680
991.9200, 565.9981
992.4022, 573.4685
992.8843, 586.4595
993.3664, 594.6058
993.8485, 595.6012
994.3306, 593.7190
994.8127, 589.6684
995.2949, 585.5295
995.7770, 582.8754
996.2591, 581.5660
996.7412, 583.8028
997.2233, 590.8077
997.7054, 596.8380
998.1876, 598.4269
998.6697, 596.5716
999.1518, 593.1705
999.6339, 588.2656
1000.116, 582.0313
1000.598, 569.0151
1001.080, 561.0922
1001.562, 564.5165
1002.044, 574.4648
1002.527, 585.1633
1003.009, 597.3036
1003.491, 596.3382
1003.973, 576.3907
1004.455, 556.5861
1004.937, 563.2689
1005.419, 580.3483
1005.901, 586.4036
1006.384, 573.8581
1006.866, 566.8347
1007.348, 570.0094
1007.830, 576.2452
1008.312, 582.9142
1008.794, 589.3592
1009.276, 591.6215
1009.758, 589.8787
1010.240, 585.8074
1010.723, 578.3303
1011.205, 570.8613
1011.687, 565.4308
1012.169, 561.7181
1012.651, 558.6672
1013.133, 556.4026
1013.615, 553.7283
1014.097, 549.5969
1014.580, 547.3188
1015.062, 554.6348
1015.544, 566.2386
1016.026, 571.1485
1016.508, 566.0731
1016.990, 561.7042
1017.472, 561.3179
1017.954, 564.0855
1018.436, 571.0289
1018.919, 581.6406
1019.401, 584.5067
1019.883, 579.6060
1020.365, 574.8350
1020.847, 574.7613
1021.329, 576.9758
1021.811, 581.1833
1022.293, 585.6495
1022.776, 586.0643
1023.258, 578.0152
1023.740, 571.6890
1024.222, 567.8662
1024.704, 566.4319
1025.186, 567.4796
1025.668, 570.8070
1026.150, 577.1528
1026.632, 587.1493
1027.115, 593.0145
1027.597, 585.2103
1028.079, 575.7411
1028.561, 573.4801
1029.043, 578.0938
1029.525, 579.7552
1030.007, 578.2343
1030.489, 575.2798
1030.972, 569.9878
1031.454, 565.6296
1031.936, 568.6358
1032.418, 575.8162
1032.900, 580.2875
1033.382, 576.2087
1033.864, 574.7172
1034.346, 578.3060
1034.828, 582.9662
1035.311, 583.8494
1035.793, 581.5720
1036.275, 581.0030
1036.757, 582.5488
1037.239, 581.3890
1037.721, 570.1957
1038.203, 558.4335
1038.685, 551.8656
1039.167, 550.8543
1039.650, 556.9407
1040.132, 573.2546
1040.614, 581.9380
1041.096, 573.6743
1041.578, 560.1081
1042.060, 559.6885
1042.542, 567.6979
1043.024, 575.7354
1043.507, 583.5698
1043.989, 586.3796
1044.471, 580.2500
1044.953, 572.6029
1045.435, 570.0024
1045.917, 571.8115
1046.399, 567.7744
1046.881, 558.1157
1047.364, 550.9384
1047.846, 556.0013
1048.328, 561.4671
1048.810, 557.0009
1049.292, 545.5740
1049.774, 541.6067
1050.256, 547.8084
1050.738, 551.8247
1051.220, 550.3448
1051.703, 548.0579
1052.185, 552.4069
1052.667, 560.3872
1053.149, 567.6840
1053.631, 574.2475
1054.113, 576.1357
1054.595, 569.0634
1055.077, 560.5893
1055.559, 552.9716
1056.042, 547.0228
1056.524, 551.5280
1057.006, 564.6971
1057.488, 571.8917
1057.970, 557.9937
1058.452, 542.9873
1058.934, 540.6790
1059.416, 545.4507
1059.899, 545.8039
1060.381, 538.6310
1060.863, 538.0054
1061.345, 546.3562
1061.827, 555.8447
1062.309, 558.9291
1062.791, 557.7496
1063.273, 554.9716
1063.755, 550.8731
1064.238, 546.2309
1064.720, 538.0192
1065.202, 533.7520
1065.684, 536.9947
1066.166, 544.7549
1066.648, 548.4913
1067.130, 549.0214
1067.612, 550.9061
1068.094, 557.4155
1068.577, 561.1687
1069.059, 553.8372
1069.541, 544.2589
1070.023, 541.6043
1070.505, 547.8367
1070.987, 549.8838
1071.469, 547.5291
1071.951, 543.4409
1072.434, 536.1282
1072.916, 530.5002
1073.398, 535.8525
1073.880, 548.2568
1074.362, 553.7664
1074.844, 545.2392
1075.326, 536.0466
1075.808, 525.5833
1076.291, 518.8367
1076.773, 528.5062
1077.255, 547.0416
1077.737, 549.2156
1078.219, 530.4114
1078.701, 517.3834
1079.183, 531.1609
1079.665, 546.9493
1080.147, 552.7526
1080.630, 549.7553
1081.112, 543.2617
1081.594, 533.5100
1082.076, 528.1412
1082.558, 531.7042
1083.040, 537.5054
1083.522, 539.9241
1084.004, 540.7804
1084.486, 542.8420
1084.969, 548.6662
1085.451, 548.4681
1085.933, 540.4893
1086.415, 533.1237
1086.897, 534.2573
1087.379, 539.5634
1087.861, 542.8117
1088.343, 543.6047
1088.826, 541.0783
1089.308, 527.6539
1089.790, 521.2532
1090.272, 527.7135
1090.754, 539.1608
1091.236, 543.8301
1091.718, 542.6669
1092.200, 539.1057
1092.682, 533.4094
1093.165, 529.1711
1093.647, 530.2566
1094.129, 532.0957
1094.611, 522.7963
1095.093, 536.7947
1095.575, 544.3842
1096.057, 545.9088
1096.539, 523.2045
1097.022, 531.7856
1097.504, 527.8297
1097.986, 523.3598
1098.468, 536.3457
1098.950, 517.1655
1099.432, 529.8746
1099.914, 529.8542
1100.396, 535.6596
1100.879, 528.8480
1101.361, 525.9344
1101.843, 535.6406
1102.325, 538.3592
1102.807, 530.0966
1103.289, 536.2726
1103.771, 516.6515
1104.253, 519.6676
1104.735, 532.4507
1105.218, 524.8211
1105.700, 531.2278
1106.182, 516.8285
1106.664, 519.2805
1107.146, 525.7131
1107.628, 527.7267
1108.110, 513.3011
1108.592, 499.9315
1109.074, 498.6867
1109.557, 506.5554
1110.039, 512.0877
1110.521, 515.3007
1111.003, 518.5336
1111.485, 523.3021
1111.967, 525.6806
1112.449, 517.2644
1112.931, 507.0915
1113.414, 506.5359
1113.896, 519.7886
1114.378, 525.1790
1114.860, 521.0273
1115.342, 516.2881
1115.824, 515.3600
1116.306, 517.4357
1116.788, 525.1802
1117.271, 534.4405
1117.753, 536.0043
1118.235, 516.5058
1118.717, 504.9292
1119.199, 504.8544
1119.681, 509.4243
1120.163, 512.6647
1120.645, 514.9738
1121.127, 518.5691
1121.609, 523.0619
1122.092, 523.9797
1122.574, 517.1882
1123.056, 508.2675
1123.538, 495.9919
1124.020, 485.1922
1124.502, 487.9561
1124.984, 502.4478
1125.466, 513.9503
1125.949, 519.9728
1126.431, 520.1183
1126.913, 506.9289
1127.395, 493.7931
1127.877, 490.9155
1128.359, 497.2393
1128.841, 506.8231
1129.323, 520.1978
1129.806, 527.2141
1130.288, 522.7063
1130.770, 513.6309
1131.252, 504.8976
1131.734, 496.8351
1132.216, 489.5788
1132.698, 481.7563
1133.180, 479.9315
1133.662, 484.7846
1134.145, 492.9026
1134.627, 506.1635
1135.109, 518.7417
1135.591, 521.9773
1136.073, 516.9550
1136.555, 506.3459
1137.037, 474.5433
1137.519, 464.3941
1138.001, 485.7584
1138.484, 513.4347
1138.966, 520.6627
1139.448, 513.9776
1139.930, 507.9971
1140.412, 503.4313
1140.894, 498.5626
1141.376, 490.6643
1141.858, 484.7269
1142.341, 481.0515
1142.823, 480.8430
1143.305, 490.5155
1143.787, 506.2867
1144.269, 508.4639
1144.751, 492.1743
1145.233, 480.3476
1145.715, 493.2642
1146.198, 506.8619
1146.680, 506.2035
1147.162, 495.3798
1147.644, 496.0226
1148.126, 506.8943
1148.608, 510.3762
1149.090, 497.6691
1149.572, 484.8301
1150.054, 486.3452
1150.536, 491.8253
1151.019, 490.6231
1151.501, 481.7826
1151.983, 476.2100
1152.465, 473.7889
1152.947, 476.6515
1153.429, 490.8749
1153.911, 505.3372
1154.393, 508.5734
1154.876, 504.8322
1155.358, 501.1372
1155.840, 497.8706
1156.322, 496.5924
1156.804, 498.2825
1157.286, 496.7354
1157.768, 481.2097
1158.250, 463.5936
1158.733, 460.5230
1159.215, 468.8231
1159.697, 475.0240
1160.179, 477.3348
1160.661, 476.0453
1161.143, 469.4380
1161.625, 464.2188
1162.107, 470.9170
1162.589, 482.9734
1163.072, 488.6069
1163.554, 487.3774
1164.036, 488.0639
1164.518, 495.5944
1165.000, 500.8195
1165.482, 502.4276
1165.964, 499.2627
1166.446, 483.1012
1166.928, 461.9767
1167.411, 455.8944
1167.893, 470.9348
1168.375, 483.1827
1168.857, 481.7693
1169.339, 480.1280
1169.821, 483.7903
1170.303, 490.3688
1170.785, 493.1782
1171.268, 492.9224
1171.750, 492.0196
1172.232, 491.4208
1172.714, 489.7489
1173.196, 485.4951
1173.678, 480.8609
1174.160, 476.8928
1174.642, 473.6811
1175.125, 471.6105
1175.607, 470.9722
1176.089, 473.5909
1176.571, 486.2471
1177.053, 494.5065
1177.535, 486.3223
1178.017, 475.0377
1178.499, 473.7061
1178.981, 482.1671
1179.464, 487.2339
1179.946, 488.8197
1180.428, 488.3846
1180.910, 484.9488
1181.392, 481.8297
1181.874, 480.7541
1182.356, 481.1418
1182.838, 482.8269
1183.320, 485.9718
1183.803, 484.4917
1184.285, 477.7198
1184.767, 473.1292
1185.249, 477.0841
1185.731, 484.3803
1186.213, 495.4334
1186.695, 506.3021
1187.177, 504.9835
1187.660, 490.4413
1188.142, 479.1902
1188.624, 473.8543
1189.106, 473.1278
1189.588, 478.8883
1190.070, 486.3186
1190.552, 493.7980
1191.034, 499.8918
1191.516, 493.9408
1191.999, 473.5609
1192.481, 465.7559
1192.963, 480.4340
1193.445, 497.4968
1193.927, 497.5009
1194.409, 489.3074
1194.891, 479.7618
1195.373, 469.4262
1195.855, 466.6513
1196.338, 472.4251
1196.820, 476.9552
1197.302, 475.8362
1197.784, 473.1089
1198.266, 472.8320
1198.748, 473.7506
1199.230, 473.8525
1199.712, 472.2050
1200.195, 475.6553
1200.677, 485.3852
1201.159, 491.8458
1201.641, 488.6087
1202.123, 481.1634
1202.605, 470.7579
1203.087, 462.2953
1203.569, 465.1386
1204.052, 487.3866
1204.534, 497.3662
1205.016, 493.5063
1205.498, 487.2375
1205.980, 464.3506
1206.462, 475.6150
1206.944, 482.2002
1207.426, 484.3577
1207.908, 468.8260
1208.391, 476.1375
1208.873, 474.2938
1209.355, 472.0745
1209.837, 482.5997
1210.319, 469.6408
1210.801, 479.9638
1211.283, 474.6789
1211.765, 476.3774
1212.247, 476.6481
1212.730, 473.3488
1213.212, 475.8147
1213.694, 486.3222
1214.176, 496.3029
1214.658, 497.6043
1215.140, 493.8702
1215.622, 487.7011
1216.104, 479.9868
1216.587, 474.3351
1217.069, 470.4783
1217.551, 470.9247
1218.033, 477.2644
1218.515, 482.8540
1218.997, 478.3740
1219.479, 470.3623
1219.961, 466.9494
1220.443, 468.2260
1220.926, 464.6597
1221.408, 453.0659
1221.890, 448.9967
1222.372, 457.5745
1222.854, 469.5298
1223.336, 475.1766
1223.818, 477.0840
1224.300, 465.0028
1224.782, 481.9802
1225.265, 491.4707
1225.747, 493.8772
1226.229, 467.9810
1226.711, 478.6318
1227.193, 474.6363
1227.675, 470.0401
1228.157, 485.8347
1228.639, 464.0551
1229.122, 479.5261
1229.604, 480.1275
1230.086, 487.5345
1230.568, 480.2046
1231.050, 477.4265
1231.532, 489.3899
1232.014, 493.1908
1232.496, 484.1645
1232.979, 492.0038
1233.461, 469.7094
1233.943, 473.8580
1234.425, 489.4155
1234.907, 481.1302
1235.389, 489.2392
1235.871, 491.1043
1236.353, 464.5937
1236.835, 487.4314
1237.318, 488.9273
1237.800, 468.5103
1238.282, 489.6571
1238.764, 472.2612
1239.246, 468.6226
1239.728, 475.3374
1240.210, 471.2592
1240.692, 484.1974
1241.175, 480.7422
1241.657, 475.8226
1242.139, 477.2948
1242.621, 460.6547
1243.103, 477.6166
1243.585, 471.6255
1244.067, 477.0438
1244.549, 485.0482
1245.031, 473.2509
1245.514, 482.4171
1245.996, 459.0737
1246.478, 462.9324
1246.960, 463.8620
1247.442, 482.1786
1247.924, 458.9937
1248.406, 462.0966
1248.888, 476.3926
1249.370, 475.0270
1249.853, 480.2093
1250.335, 459.9775
1250.817, 476.9251
1251.299, 486.3861
1251.781, 488.7627
1252.263, 462.8368
1252.745, 473.4578
1253.227, 469.4325
1253.710, 464.8063
1254.192, 480.5711
1254.674, 458.7617
1255.156, 474.2032
1255.638, 474.7748
1256.120, 482.1520
1256.602, 474.7923
1257.084, 471.9845
1257.567, 483.9178
1258.049, 487.6889
1258.531, 478.6328
1259.013, 486.4426
1259.495, 464.1185
1259.977, 468.2372
1260.459, 483.7650
1260.941, 475.4499
1261.423, 483.5291
1261.906, 485.3641
1262.388, 458.8238
1262.870, 481.6316
1263.352, 483.0980
1263.834, 462.6513
1264.316, 483.7682
1264.798, 466.3425
1265.280, 462.6742
1265.762, 469.3592
1266.245, 465.2509
1266.727, 478.1592
1267.209, 474.6746
1267.691, 469.7252
1268.173, 471.1676
1268.655, 454.4977
1269.137, 471.4298
1269.619, 465.4089
1270.102, 470.7971
1270.584, 478.7718
1271.066, 466.9447
1271.548, 476.0813
1272.030, 452.7081
1272.512, 456.5371
1272.994, 457.4369
1273.476, 475.7237
1273.958, 452.5090
1274.441, 455.5819
1274.923, 469.8481
1275.405, 468.4526
1275.887, 473.6054
1276.369, 459.3728
1276.851, 463.3513
1277.333, 462.3102
1277.815, 478.6148
1278.297, 481.2256
1278.780, 467.3217
1279.262, 453.4880
1279.744, 471.0409
1280.226, 458.8453
1280.708, 462.6986
1281.190, 449.9767
1281.672, 462.3875
1282.154, 454.9016
1282.637, 454.4275
1283.119, 460.1365
1283.601, 463.7301
1284.083, 463.0574
1284.565, 463.3364
1285.047, 472.2114
1285.529, 477.1992
1286.011, 469.3996
1286.494, 455.9195
1286.976, 460.0505
1287.458, 475.8864
1287.940, 482.7607
1288.422, 475.4246
1288.904, 467.8084
1289.386, 462.2534
1289.868, 461.7548
1290.350, 469.2070
1290.833, 479.7223
1291.315, 485.5537
1291.797, 486.4306
1292.279, 479.0110
1292.761, 460.5693
1293.243, 454.6557
1293.725, 468.8676
1294.207, 480.9958
1294.689, 484.0237
1295.172, 481.1725
1295.654, 472.6197
1296.136, 463.5940
1296.618, 461.3173
1297.100, 467.5567
1297.582, 476.5824
1298.064, 490.1479
1298.546, 494.0298
1299.029, 480.3765
1299.511, 466.6080
1299.993, 476.1244
1300.475, 490.7624
1300.957, 490.2457
1301.439, 477.1847
1301.921, 472.5684
1302.403, 476.0659
1302.885, 477.6945
1303.368, 473.8471
1303.850, 471.3525
1304.332, 479.0014
1304.814, 485.0696
1305.296, 479.7251
1305.778, 468.6362
1306.260, 476.6848
1306.742, 497.4575
1307.224, 503.0323
1307.707, 482.9739
1308.189, 468.1791
1308.671, 477.3212
1309.153, 486.1743
1309.635, 486.6287
1310.117, 481.0579
1310.599, 471.0641
1311.081, 459.8792
1311.564, 454.2130
##END=



