##NAMES=Sogdianite
##RRUFFID=R050648
##IDEAL CHEMISTRY=KZr^4+^_2_(Li_3_Si_12_)O_30_
##LOCALITY=Dara-i-Pioz, Tadjikistan
##OWNER=RRUFF
##SOURCE=Dmitri Belakyovski
##DESCRIPTION=Purple tabular fragment, used in the Geiger & Grodzicki (2012) study
##STATUS=The identification of this mineral has been confirmed by X-ray diffraction and chemical analysis
##URL=rruff.info/R050648
##MEASURED CHEMISTRY=([box]_1.13_Na_0.87_)_Σ=2_K_1.00_Li_3.00_(Zr_0.76_Fe^3+^_0.73_Ti_0.37_Al_0.14_)_Σ=2_Si_12.00_O_30_ ; Li not measured but estimated by difference and charge balance.
104.0783, 329991.6
104.5604, 329987.7
105.0425, 330051.4
105.5247, 330135.9
106.0068, 330249.5
106.4889, 330324.9
106.9710, 330328.0
107.4531, 330350.3
107.9352, 330398.3
108.4173, 330474.2
108.8995, 330627.8
109.3816, 330895.2
109.8637, 331223.0
110.3458, 331582.1
110.8279, 331990.8
111.3100, 332339.8
111.7922, 332422.4
112.2743, 332086.3
112.7564, 331978.8
113.2385, 332471.4
113.7206, 333169.4
114.2027, 333757.4
114.6849, 334093.2
115.1670, 334218.1
115.6491, 334260.7
116.1312, 333954.7
116.6133, 333888.2
117.0954, 334317.7
117.5776, 335021.6
118.0597, 335657.8
118.5418, 335978.7
119.0239, 335976.0
119.5060, 336120.5
119.9881, 336471.0
120.4703, 336872.6
120.9524, 337280.4
121.4345, 337684.0
121.9166, 338079.6
122.3987, 338456.3
122.8808, 338807.8
123.3630, 339186.8
123.8451, 339627.4
124.3272, 340076.1
124.8093, 340444.0
125.2914, 340699.5
125.7735, 340982.3
126.2557, 341493.4
126.7378, 342184.1
127.2199, 342886.7
127.7020, 343600.1
128.1841, 344285.7
128.6662, 344775.7
129.1483, 344883.6
129.6305, 344991.8
130.1126, 345425.7
130.5947, 346161.4
131.0768, 346936.4
131.5589, 347550.4
132.0410, 347998.1
132.5232, 348335.3
133.0053, 348380.7
133.4874, 348447.4
133.9695, 348717.5
134.4516, 349220.2
134.9337, 349834.9
135.4159, 350393.5
135.8980, 350916.1
136.3801, 351330.4
136.8622, 351553.3
137.3443, 351726.7
137.8264, 351949.6
138.3086, 352262.4
138.7907, 352663.0
139.2728, 353142.3
139.7549, 353799.6
140.2370, 354427.1
140.7191, 354992.4
141.2013, 355523.5
141.6834, 356071.6
142.1655, 356668.1
142.6476, 357290.7
143.1297, 357825.8
143.6118, 358061.2
144.0939, 358442.8
144.5761, 359158.9
145.0582, 360181.7
145.5403, 361394.2
146.0224, 362775.9
146.5045, 364301.6
146.9866, 365867.4
147.4688, 367636.1
147.9509, 369301.3
148.4330, 370637.0
148.9151, 371662.7
149.3972, 372233.9
149.8793, 372054.5
150.3615, 371402.2
150.8436, 370501.4
151.3257, 369228.7
151.8078, 367855.4
152.2899, 367058.1
152.7720, 367094.4
153.2542, 367279.7
153.7363, 367342.1
154.2184, 367334.3
154.7005, 367329.4
155.1826, 367355.2
155.6647, 367418.0
156.1469, 367592.9
156.6290, 367993.4
157.1111, 368404.3
157.5932, 368748.0
158.0753, 369055.1
158.5574, 369396.8
159.0396, 369838.6
159.5217, 370393.7
160.0038, 370927.1
160.4859, 371480.5
160.9680, 371980.3
161.4501, 372354.0
161.9323, 372625.4
162.4144, 372897.1
162.8965, 373278.8
163.3786, 373815.5
163.8607, 374277.4
164.3428, 374592.1
164.8250, 374888.7
165.3071, 375256.2
165.7892, 375710.4
166.2713, 376212.8
166.7534, 376737.9
167.2355, 377296.2
167.7177, 377787.7
168.1998, 378145.5
168.6819, 378453.7
169.1640, 378825.7
169.6461, 379293.9
170.1282, 379790.4
170.6104, 380186.9
171.0925, 380494.3
171.5746, 380912.8
172.0567, 381651.1
172.5388, 382574.0
173.0209, 383275.5
173.5031, 383620.7
173.9852, 383792.4
174.4673, 383899.0
174.9494, 383957.3
175.4315, 384147.3
175.9136, 384652.0
176.3958, 385461.0
176.8779, 386246.3
177.3600, 387052.6
177.8421, 387735.1
178.3242, 388149.8
178.8063, 388318.5
179.2885, 388437.7
179.7706, 388715.8
180.2527, 389189.8
180.7348, 389671.2
181.2169, 390194.3
181.6990, 390689.4
182.1812, 391072.4
182.6633, 391352.0
183.1454, 391640.3
183.6275, 392123.1
184.1096, 392978.2
184.5917, 393645.7
185.0738, 394052.3
185.5560, 394356.6
186.0381, 394630.2
186.5202, 394905.1
187.0023, 395211.3
187.4844, 395597.3
187.9665, 396097.8
188.4487, 396641.0
188.9308, 397275.1
189.4129, 397922.3
189.8950, 398515.1
190.3771, 399028.4
190.8592, 399478.1
191.3414, 399883.6
191.8235, 400194.5
192.3056, 400556.1
192.7877, 401010.7
193.2698, 401515.6
193.7519, 402028.0
194.2341, 402539.9
194.7162, 403029.5
195.1983, 403436.9
195.6804, 403745.0
196.1625, 404060.1
196.6446, 404376.5
197.1268, 404722.6
197.6089, 405198.6
198.0910, 405905.3
198.5731, 406645.5
199.0552, 407085.1
199.5373, 407182.7
200.0195, 407277.1
200.5016, 407572.5
200.9837, 408033.0
201.4658, 408455.7
201.9479, 408709.8
202.4300, 408986.5
202.9122, 409513.8
203.3943, 410322.2
203.8764, 411143.7
204.3585, 411769.3
204.8406, 412202.3
205.3227, 412582.4
205.8048, 412837.1
206.2870, 413132.8
206.7691, 413635.0
207.2512, 414357.2
207.7333, 415086.7
208.2154, 415566.8
208.6975, 415747.4
209.1797, 415975.9
209.6618, 416269.9
210.1439, 416656.9
210.6260, 417199.9
211.1081, 417895.1
211.5902, 418629.2
212.0724, 419255.2
212.5545, 419734.2
213.0366, 420205.8
213.5187, 420663.5
214.0008, 421126.0
214.4829, 421587.8
214.9651, 422054.0
215.4472, 422563.9
215.9293, 423192.3
216.4114, 424055.0
216.8935, 424792.7
217.3756, 425451.3
217.8578, 425984.1
218.3399, 426277.6
218.8220, 426343.1
219.3041, 426383.3
219.7862, 426719.7
220.2683, 427582.0
220.7505, 428310.6
221.2326, 428829.0
221.7147, 429280.8
222.1968, 429758.7
222.6789, 430290.7
223.1610, 430875.9
223.6432, 431519.2
224.1253, 432280.1
224.6074, 432971.2
225.0895, 433640.9
225.5716, 434216.9
226.0537, 434560.1
226.5358, 434650.6
227.0180, 434706.3
227.5001, 435053.9
227.9822, 435817.8
228.4643, 436480.9
228.9464, 436941.8
229.4285, 437319.8
229.9107, 437733.4
230.3928, 438209.5
230.8749, 438704.7
231.3570, 439155.0
231.8391, 439554.0
232.3212, 439987.0
232.8034, 440487.8
233.2855, 441023.3
233.7676, 441561.5
234.2497, 442102.1
234.7318, 442620.6
235.2139, 443039.2
235.6961, 443375.8
236.1782, 443843.4
236.6603, 444676.6
237.1424, 445618.4
237.6245, 446216.1
238.1066, 446325.7
238.5888, 446397.1
239.0709, 446912.8
239.5530, 447746.7
240.0351, 448550.8
240.5172, 449216.8
240.9993, 449772.3
241.4815, 450221.8
241.9636, 450493.5
242.4457, 450850.3
242.9278, 451625.2
243.4099, 452628.7
243.8920, 453459.0
244.3742, 453808.1
244.8563, 453888.3
245.3384, 454200.3
245.8205, 454826.3
246.3026, 455504.6
246.7847, 456116.0
247.2668, 456675.2
247.7490, 457196.7
248.2311, 457675.1
248.7132, 458127.2
249.1953, 458612.5
249.6774, 459168.7
250.1595, 459679.2
250.6417, 460043.1
251.1238, 460352.2
251.6059, 460728.4
252.0880, 461245.0
252.5701, 461841.3
253.0522, 462375.3
253.5344, 462838.2
254.0165, 463246.5
254.4986, 463507.5
254.9807, 463763.3
255.4628, 464189.3
255.9449, 464875.3
256.4271, 465716.6
256.9092, 466486.6
257.3913, 467196.3
257.8734, 467798.8
258.3555, 468147.8
258.8376, 468472.4
259.3198, 469017.4
259.8019, 469878.9
260.2840, 470906.1
260.7661, 471802.0
261.2482, 472585.4
261.7303, 473168.2
262.2125, 473390.7
262.6946, 473533.4
263.1767, 473824.5
263.6588, 474336.3
264.1409, 474980.8
264.6230, 475616.0
265.1052, 476242.8
265.5873, 476848.7
266.0694, 477388.9
266.5515, 477935.3
267.0336, 478562.8
267.5157, 479276.3
267.9979, 479994.8
268.4800, 480577.0
268.9621, 480871.1
269.4442, 481369.3
269.9263, 482212.9
270.4084, 483118.6
270.8906, 483982.6
271.3727, 484749.7
271.8548, 485318.9
272.3369, 485504.9
272.8190, 485036.5
273.3011, 485125.7
273.7833, 486160.1
274.2654, 487315.8
274.7475, 488108.6
275.2296, 488543.8
275.7117, 488937.8
276.1938, 489618.8
276.6760, 490666.0
277.1581, 491524.6
277.6402, 492200.5
278.1223, 492736.6
278.6044, 493017.6
279.0865, 493147.1
279.5686, 493428.9
280.0508, 494143.9
280.5329, 495305.2
281.0150, 496145.8
281.4971, 496361.0
281.9792, 496630.4
282.4613, 497288.0
282.9435, 498206.1
283.4256, 499073.8
283.9077, 499702.0
284.3898, 500096.1
284.8719, 500268.0
285.3540, 499923.3
285.8362, 499716.7
286.3183, 499889.2
286.8004, 500310.1
287.2825, 500730.4
287.7646, 501018.0
288.2467, 501234.1
288.7289, 501603.8
289.2110, 502306.7
289.6931, 502931.8
290.1752, 503380.5
290.6573, 503724.7
291.1394, 504064.9
291.6216, 504442.7
292.1037, 504818.6
292.5858, 505100.2
293.0679, 505172.5
293.5500, 505379.1
294.0321, 505865.9
294.5143, 506457.8
294.9964, 506938.1
295.4785, 507251.5
295.9606, 507535.6
296.4427, 507999.8
296.9248, 508745.1
297.4070, 509368.8
297.8891, 509675.3
298.3712, 509962.3
298.8533, 510570.7
299.3354, 511525.5
299.8175, 512482.0
300.2997, 513068.6
300.7818, 513204.5
301.2639, 513468.4
301.7460, 513883.8
302.2281, 514399.7
302.7102, 515033.3
303.1924, 515760.0
303.6745, 516469.7
304.1566, 517079.7
304.6387, 517589.0
305.1208, 518099.9
305.6029, 518603.0
306.0851, 519115.9
306.5672, 519621.6
307.0493, 520138.5
307.5314, 520738.4
308.0135, 521484.1
308.4956, 522325.4
308.9778, 523033.3
309.4599, 523558.3
309.9420, 524041.2
310.4241, 524525.2
310.9062, 524997.3
311.3883, 525407.9
311.8705, 525720.7
312.3526, 526007.2
312.8347, 526434.9
313.3168, 527057.9
313.7989, 527672.1
314.2810, 528225.5
314.7632, 528753.1
315.2453, 529309.0
315.7274, 529907.4
316.2095, 530524.9
316.6916, 531147.9
317.1737, 531800.3
317.6559, 532351.3
318.1380, 532680.3
318.6201, 532970.4
319.1022, 533411.4
319.5843, 534023.1
320.0664, 534659.2
320.5485, 535181.4
321.0306, 535575.0
321.5128, 536011.5
321.9949, 536481.1
322.4770, 537001.1
322.9591, 537602.4
323.4412, 538270.2
323.9233, 538960.3
324.4055, 539652.4
324.8876, 540337.3
325.3697, 540927.8
325.8518, 541289.6
326.3339, 541716.6
326.8160, 542317.4
327.2982, 543064.5
327.7803, 543932.3
328.2624, 544937.4
328.7445, 545991.2
329.2266, 546837.2
329.7087, 547313.1
330.1909, 547904.6
330.6730, 548846.5
331.1551, 549901.3
331.6372, 550731.3
332.1193, 551236.2
332.6014, 551613.4
333.0836, 552144.1
333.5657, 552880.8
334.0478, 553637.3
334.5299, 554432.9
335.0120, 555224.6
335.4941, 555999.1
335.9763, 556742.1
336.4584, 557416.6
336.9405, 557964.3
337.4226, 558369.3
337.9047, 558867.3
338.3868, 559549.2
338.8690, 560231.0
339.3511, 560817.9
339.8332, 561325.4
340.3153, 561821.3
340.7974, 562359.1
341.2795, 562914.9
341.7617, 563312.9
342.2438, 563371.3
342.7259, 563513.3
343.2080, 563859.6
343.6901, 564343.9
344.1722, 564890.4
344.6544, 565469.8
345.1365, 566039.3
345.6186, 566504.5
346.1007, 566752.1
346.5828, 567069.3
347.0649, 567452.6
347.5471, 567908.1
348.0292, 568480.2
348.5113, 569156.8
348.9934, 569841.5
349.4755, 570410.8
349.9576, 570843.6
350.4398, 571233.9
350.9219, 571408.1
351.4040, 571695.5
351.8861, 572360.8
352.3682, 573306.5
352.8503, 574218.6
353.3325, 574849.6
353.8146, 575215.8
354.2967, 575624.7
354.7788, 576070.0
355.2609, 576556.3
355.7430, 577070.6
356.2252, 577627.8
356.7073, 578289.4
357.1894, 579086.8
357.6715, 579919.8
358.1536, 580533.7
358.6357, 580710.9
359.1179, 580998.3
359.5999, 581441.1
360.0821, 581980.7
360.5642, 582636.8
361.0463, 583383.1
361.5284, 584064.6
362.0105, 584453.5
362.4926, 584420.3
362.9748, 584614.5
363.4569, 585268.8
363.9390, 585921.2
364.4211, 586316.6
364.9032, 586532.8
365.3853, 586812.3
365.8675, 587349.8
366.3496, 588115.1
366.8317, 588822.5
367.3138, 589405.8
367.7959, 590009.3
368.2780, 590542.8
368.7602, 591149.0
369.2423, 592108.8
369.7244, 593559.4
370.2065, 595107.5
370.6886, 595895.3
371.1707, 595525.8
371.6529, 595385.6
372.1350, 595812.1
372.6171, 596411.8
373.0992, 596970.6
373.5813, 597441.3
374.0634, 597866.9
374.5456, 598239.9
375.0277, 598548.6
375.5098, 599035.4
375.9919, 599862.4
376.4740, 600705.8
376.9561, 601452.4
377.4383, 602101.2
377.9204, 602645.4
378.4025, 603028.2
378.8846, 603337.0
379.3667, 603824.6
379.8488, 604529.4
380.3310, 605317.3
380.8131, 606229.9
381.2952, 607154.3
381.7773, 608000.8
382.2594, 608765.4
382.7415, 609363.1
383.2237, 609538.6
383.7058, 609296.3
384.1879, 609428.8
384.6700, 610345.4
385.1521, 611488.8
385.6342, 612394.7
386.1164, 613058.8
386.5985, 613585.2
387.0806, 613910.6
387.5627, 614145.1
388.0448, 614592.5
388.5269, 615337.0
389.0091, 616088.6
389.4912, 616584.8
389.9733, 616930.9
390.4554, 617361.4
390.9375, 617981.8
391.4196, 618651.4
391.9018, 619277.3
392.3839, 619857.0
392.8660, 620306.3
393.3481, 620476.8
393.8302, 620606.2
394.3123, 621182.6
394.7945, 622336.0
395.2766, 623459.8
395.7587, 624278.9
396.2408, 624920.9
396.7229, 625591.9
397.2050, 626345.5
397.6872, 627099.3
398.1693, 627742.1
398.6514, 628255.9
399.1335, 628905.6
399.6156, 629882.1
400.0977, 630856.1
400.5798, 631562.8
401.0620, 632039.3
401.5441, 632503.1
402.0262, 633086.4
402.5083, 633766.3
402.9904, 634419.5
403.4725, 635105.4
403.9547, 635699.9
404.4368, 636012.9
404.9189, 636286.3
405.4010, 636880.8
405.8831, 637893.3
406.3652, 639053.4
406.8474, 639975.5
407.3295, 640616.9
407.8116, 641093.9
408.2937, 641130.3
408.7758, 641263.1
409.2579, 641891.5
409.7401, 642910.7
410.2222, 643912.0
410.7043, 644589.2
411.1864, 644992.1
411.6685, 645580.5
412.1506, 646637.5
412.6328, 647533.4
413.1149, 648085.7
413.5970, 648475.8
414.0791, 648900.8
414.5612, 649430.2
415.0433, 650007.4
415.5255, 650543.0
416.0076, 651026.6
416.4897, 651516.9
416.9718, 651921.2
417.4539, 652413.7
417.9360, 653094.7
418.4182, 653946.5
418.9003, 654876.6
419.3824, 655852.2
419.8645, 656849.5
420.3466, 657772.7
420.8287, 658555.8
421.3109, 659386.1
421.7930, 660401.4
422.2751, 661466.6
422.7572, 662429.2
423.2393, 663243.2
423.7214, 663957.3
424.2036, 664597.0
424.6857, 665164.3
425.1678, 665751.6
425.6499, 666431.3
426.1320, 667071.0
426.6141, 667521.2
427.0963, 667809.3
427.5784, 668140.7
428.0605, 668578.9
428.5426, 669126.2
429.0247, 669778.8
429.5068, 670542.1
429.9890, 671443.9
430.4711, 672615.5
430.9532, 673912.6
431.4353, 674878.8
431.9174, 675331.4
432.3995, 675724.3
432.8817, 676166.7
433.3638, 676718.6
433.8459, 677568.1
434.3280, 678794.9
434.8101, 680148.6
435.2922, 681274.5
435.7744, 682090.2
436.2565, 682971.4
436.7386, 684038.3
437.2207, 685081.3
437.7028, 685937.3
438.1849, 686620.9
438.6671, 687245.9
439.1492, 687889.4
439.6313, 688537.6
440.1134, 689094.1
440.5955, 689311.1
441.0776, 689754.1
441.5598, 690520.9
442.0418, 691529.6
442.5240, 692803.0
443.0061, 694297.6
443.4882, 695760.7
443.9703, 696813.8
444.4524, 697338.3
444.9345, 698043.6
445.4167, 699002.6
445.8988, 700077.1
446.3809, 701203.1
446.8630, 702404.4
447.3451, 703781.4
447.8272, 705413.3
448.3094, 707161.8
448.7915, 708662.4
449.2736, 709823.5
449.7557, 710978.1
450.2378, 712299.9
450.7199, 713579.8
451.2021, 714694.0
451.6842, 715619.1
452.1663, 716342.2
452.6484, 716825.2
453.1305, 717090.7
453.6126, 717205.9
454.0948, 717133.9
454.5769, 717016.9
455.0590, 716949.5
455.5411, 716910.4
456.0232, 716856.8
456.5053, 716761.8
456.9875, 716682.6
457.4696, 716628.6
457.9517, 716621.0
458.4338, 716763.3
458.9159, 717110.6
459.3980, 717583.8
459.8802, 718092.7
460.3623, 718642.6
460.8444, 719154.1
461.3265, 719508.4
461.8086, 719884.1
462.2907, 720527.9
462.7729, 721392.6
463.2550, 722124.4
463.7371, 722455.9
464.2192, 722470.0
464.7013, 722663.0
465.1834, 723132.9
465.6656, 723642.8
466.1477, 724101.5
466.6298, 724619.1
467.1119, 725365.9
467.5940, 726361.1
468.0761, 727402.9
468.5583, 728238.7
469.0404, 728833.9
469.5225, 729495.7
470.0046, 730421.0
470.4867, 731208.9
470.9688, 731566.1
471.4510, 731736.4
471.9331, 732155.7
472.4152, 733054.6
472.8973, 734132.6
473.3794, 734761.6
473.8615, 734790.1
474.3437, 734998.3
474.8258, 735703.4
475.3079, 736485.3
475.7900, 737135.8
476.2721, 737633.3
476.7542, 737994.6
477.2364, 738072.6
477.7185, 738052.2
478.2006, 738433.3
478.6827, 739297.9
479.1648, 740084.5
479.6469, 740406.7
480.1291, 740520.3
480.6112, 740907.5
481.0933, 741694.9
481.5754, 742464.8
482.0575, 742969.9
482.5396, 743323.5
483.0217, 743711.9
483.5038, 744168.6
483.9860, 744719.3
484.4681, 745429.4
484.9502, 746302.8
485.4323, 747014.1
485.9144, 747383.2
486.3965, 747784.9
486.8787, 748321.1
487.3608, 749010.9
487.8429, 749934.3
488.3250, 751124.1
488.8071, 752382.3
489.2892, 753348.6
489.7714, 753936.4
490.2535, 754437.9
490.7356, 754667.9
491.2177, 754994.6
491.6998, 755674.4
492.1819, 756608.3
492.6641, 757537.6
493.1462, 758304.9
493.6283, 758940.3
494.1104, 759514.0
494.5925, 759991.6
495.0746, 760500.6
495.5568, 760999.3
496.0389, 761586.4
496.5210, 762453.9
497.0031, 763565.0
497.4852, 764497.4
497.9673, 764761.9
498.4495, 764629.4
498.9316, 764894.8
499.4137, 765664.8
499.8958, 766457.1
500.3779, 767037.1
500.8600, 767441.2
501.3422, 767709.3
501.8243, 767670.3
502.3064, 767879.5
502.7885, 768803.7
503.2706, 770118.3
503.7527, 771278.3
504.2349, 772165.3
504.7170, 772879.5
505.1991, 773509.3
505.6812, 774056.9
506.1633, 774507.4
506.6454, 774680.9
507.1276, 774972.1
507.6097, 775690.7
508.0918, 776576.7
508.5739, 777171.3
509.0560, 777315.9
509.5381, 777314.3
510.0203, 777618.4
510.5024, 778218.3
510.9845, 779166.5
511.4666, 780970.6
511.9487, 782617.3
512.4308, 783689.9
512.9130, 784315.3
513.3951, 784739.8
513.8772, 785025.8
514.3593, 785356.4
514.8414, 786149.9
515.3235, 787488.3
515.8057, 788676.3
516.2878, 789558.4
516.7699, 790225.3
517.2520, 790692.7
517.7341, 790992.4
518.2162, 791351.0
518.6984, 791803.2
519.1805, 792397.8
519.6626, 793317.4
520.1447, 794525.8
520.6268, 795534.7
521.1089, 796053.1
521.5911, 796303.5
522.0732, 796782.6
522.5553, 797528.3
523.0374, 798342.8
523.5195, 799434.5
524.0016, 800412.0
524.4838, 800775.3
524.9659, 800616.4
525.4480, 800503.2
525.9301, 800831.7
526.4122, 801558.4
526.8943, 802498.4
527.3765, 804125.4
527.8586, 805257.1
528.3407, 805369.8
528.8228, 805276.7
529.3049, 805688.1
529.7870, 806638.8
530.2692, 807624.0
530.7513, 808153.1
531.2334, 808328.7
531.7155, 808825.5
532.1976, 809858.6
532.6797, 810712.8
533.1619, 810733.1
533.6440, 810598.0
534.1261, 811099.6
534.6082, 812435.2
535.0903, 813754.3
535.5724, 814428.1
536.0546, 814709.6
536.5367, 815091.2
537.0188, 815622.8
537.5009, 816395.7
537.9830, 817613.9
538.4651, 819128.4
538.9473, 820112.6
539.4294, 819981.6
539.9115, 820102.5
540.3936, 821109.4
540.8757, 822456.2
541.3578, 823469.4
541.8400, 824020.6
542.3221, 824410.6
542.8042, 824930.5
543.2863, 825582.4
543.7684, 826280.2
544.2505, 827151.9
544.7326, 827912.4
545.2147, 828442.1
545.6968, 828872.1
546.1790, 829344.1
546.6611, 829895.1
547.1432, 830464.8
547.6253, 830922.3
548.1074, 831298.4
548.5895, 831942.7
549.0717, 832974.7
549.5538, 834046.2
550.0359, 834898.9
550.5180, 835669.3
551.0001, 836584.5
551.4822, 837717.6
551.9644, 838893.3
552.4465, 840088.6
552.9286, 841232.3
553.4107, 842129.9
553.8928, 842735.6
554.3749, 843317.4
554.8571, 844131.8
555.3392, 845169.4
555.8213, 846055.0
556.3034, 846714.8
556.7855, 847331.6
557.2676, 847840.9
557.7498, 848389.2
558.2319, 849265.5
558.7140, 850476.5
559.1961, 851559.6
559.6782, 851932.1
560.1603, 851582.1
560.6425, 851595.6
561.1246, 852084.2
561.6067, 852804.7
562.0888, 853807.6
562.5709, 854910.0
563.0530, 855943.3
563.5352, 856870.2
564.0173, 857644.0
564.4994, 858082.9
564.9815, 858332.0
565.4636, 858895.9
565.9457, 859866.7
566.4279, 860942.5
566.9100, 861980.4
567.3921, 862955.6
567.8742, 863806.2
568.3563, 864443.2
568.8384, 865101.9
569.3206, 865889.8
569.8027, 866726.1
570.2848, 867517.4
570.7669, 868246.0
571.2490, 868967.9
571.7311, 869731.6
572.2133, 870526.4
572.6954, 871208.1
573.1775, 871703.2
573.6596, 872181.7
574.1417, 872494.8
574.6238, 872916.5
575.1060, 873821.1
575.5881, 875170.7
576.0702, 876417.8
576.5523, 876949.1
577.0344, 877031.4
577.5165, 877760.7
577.9987, 879327.6
578.4808, 880703.3
578.9629, 881348.8
579.4450, 881618.6
579.9271, 881945.3
580.4092, 882300.3
580.8914, 882965.6
581.3735, 884398.5
581.8556, 885973.4
582.3377, 886956.5
582.8198, 887369.0
583.3019, 887626.8
583.7841, 887908.9
584.2662, 888341.4
584.7483, 889292.1
585.2304, 891292.8
585.7125, 892943.2
586.1946, 894252.0
586.6768, 895232.2
587.1589, 895671.6
587.6410, 895788.6
588.1231, 896093.2
588.6052, 896891.1
589.0873, 898009.6
589.5695, 899115.9
590.0516, 900218.9
590.5337, 901266.6
591.0158, 902308.4
591.4979, 903222.7
591.9800, 903870.4
592.4622, 904306.2
592.9443, 904734.2
593.4264, 905254.0
593.9085, 905758.1
594.3906, 906084.9
594.8727, 906320.9
595.3549, 906701.1
595.8370, 907298.9
596.3191, 908063.8
596.8012, 908944.1
597.2833, 909945.7
597.7654, 911046.4
598.2476, 912531.2
598.7297, 913774.5
599.2118, 914440.4
599.6939, 914819.6
600.1760, 915301.4
600.6581, 915993.2
601.1403, 916698.9
601.6224, 917117.2
602.1045, 917271.4
602.5866, 917748.1
603.0687, 918616.2
603.5508, 919644.9
604.0330, 920835.3
604.5151, 922070.9
604.9972, 923175.2
605.4793, 924111.4
605.9614, 925021.3
606.4435, 926038.8
606.9257, 927046.4
607.4078, 927864.5
607.8899, 928487.8
608.3720, 929017.9
608.8541, 929496.9
609.3362, 929966.9
609.8184, 930566.9
610.3005, 931393.9
610.7826, 932220.5
611.2647, 933025.3
611.7468, 933854.7
612.2289, 934788.5
612.7111, 935775.6
613.1932, 936692.9
613.6753, 937481.9
614.1574, 938132.5
614.6395, 938499.4
615.1216, 938530.3
615.6038, 939057.8
616.0859, 940512.3
616.5680, 942098.6
617.0501, 943120.8
617.5322, 943722.2
618.0143, 944357.6
618.4965, 945179.1
618.9786, 945982.0
619.4607, 946531.8
619.9428, 947001.6
620.4249, 947796.5
620.9070, 948994.4
621.3892, 950181.2
621.8713, 950906.8
622.3534, 951184.3
622.8355, 951692.9
623.3176, 952728.6
623.7997, 953627.1
624.2819, 954196.8
624.7640, 954656.5
625.2461, 955136.5
625.7282, 955688.8
626.2103, 956414.2
626.6924, 957465.6
627.1745, 958716.7
627.6566, 959911.1
628.1387, 961066.6
628.6208, 961916.3
629.1030, 962236.3
629.5851, 962351.9
630.0672, 962768.1
630.5493, 963493.1
631.0314, 964170.2
631.5135, 964576.9
631.9957, 965081.0
632.4778, 965937.2
632.9599, 967063.5
633.4420, 968344.6
633.9241, 969718.1
634.4063, 971011.9
634.8884, 971931.9
635.3705, 972412.3
635.8526, 973084.2
636.3347, 974073.0
636.8168, 975070.5
637.2990, 975910.9
637.7811, 976725.6
638.2632, 977726.4
638.7453, 978967.8
639.2274, 980113.3
639.7095, 980893.5
640.1917, 981430.8
640.6738, 981877.6
641.1559, 982258.7
641.6380, 982817.8
642.1201, 983744.9
642.6022, 984836.6
643.0844, 985628.8
643.5665, 985927.3
644.0486, 986313.0
644.5307, 986659.7
645.0128, 987214.8
645.4949, 988263.1
645.9771, 989598.9
646.4592, 990860.7
646.9413, 991886.9
647.4234, 992681.8
647.9055, 993154.6
648.3876, 993312.1
648.8698, 993634.8
649.3519, 994176.9
649.8340, 994837.1
650.3161, 995599.0
650.7982, 996423.8
651.2803, 997209.1
651.7625, 997883.5
652.2446, 998675.2
652.7267, 999980.5
653.2088, 1001254.
653.6909, 1001744.
654.1730, 1001543.
654.6552, 1001334.
655.1373, 1001514.
655.6194, 1002033.
656.1015, 1002819.
656.5836, 1004053.
657.0657, 1005079.
657.5479, 1005795.
658.0300, 1006358.
658.5121, 1006693.
658.9942, 1006946.
659.4763, 1007417.
659.9584, 1008258.
660.4406, 1009163.
660.9227, 1009800.
661.4048, 1010293.
661.8869, 1011041.
662.3690, 1012107.
662.8511, 1013075.
663.3333, 1013605.
663.8154, 1013838.
664.2975, 1014359.
664.7796, 1015462.
665.2617, 1016444.
665.7438, 1017183.
666.2260, 1017901.
666.7081, 1018704.
667.1902, 1019623.
667.6723, 1020749.
668.1544, 1022197.
668.6365, 1023594.
669.1187, 1024241.
669.6008, 1024181.
670.0829, 1024335.
670.5650, 1024844.
671.0471, 1025535.
671.5292, 1026260.
672.0114, 1027072.
672.4935, 1028118.
672.9756, 1029606.
673.4577, 1030957.
673.9398, 1031942.
674.4219, 1032735.
674.9041, 1033413.
675.3862, 1034052.
675.8683, 1034882.
676.3504, 1036080.
676.8325, 1037370.
677.3146, 1037977.
677.7968, 1037663.
678.2789, 1037835.
678.7610, 1038870.
679.2431, 1040130.
679.7252, 1041462.
680.2073, 1042695.
680.6895, 1043415.
681.1716, 1043346.
681.6537, 1043237.
682.1358, 1043311.
682.6179, 1043702.
683.1000, 1044827.
683.5822, 1046583.
684.0643, 1048156.
684.5464, 1049000.
685.0285, 1049347.
685.5106, 1049862.
685.9927, 1050593.
686.4749, 1051371.
686.9570, 1052289.
687.4391, 1053156.
687.9212, 1053927.
688.4033, 1054583.
688.8854, 1055071.
689.3676, 1055339.
689.8497, 1055603.
690.3318, 1055968.
690.8139, 1056484.
691.2960, 1057312.
691.7781, 1058463.
692.2603, 1059703.
692.7424, 1060933.
693.2245, 1062092.
693.7066, 1063026.
694.1887, 1063602.
694.6708, 1064199.
695.1530, 1064677.
695.6351, 1065302.
696.1172, 1066330.
696.5993, 1067555.
697.0814, 1068623.
697.5635, 1069411.
698.0457, 1070055.
698.5278, 1070611.
699.0099, 1071139.
699.4920, 1071881.
699.9741, 1072866.
700.4562, 1073839.
700.9384, 1074674.
701.4205, 1075413.
701.9026, 1076130.
702.3847, 1076867.
702.8668, 1077475.
703.3489, 1077688.
703.8311, 1078053.
704.3132, 1079015.
704.7953, 1080252.
705.2774, 1081176.
705.7595, 1081619.
706.2416, 1082104.
706.7238, 1083344.
707.2059, 1085112.
707.6880, 1086315.
708.1701, 1086838.
708.6522, 1087543.
709.1343, 1088898.
709.6164, 1090495.
710.0985, 1091693.
710.5806, 1092436.
711.0627, 1093188.
711.5449, 1093942.
712.0270, 1094746.
712.5091, 1095766.
712.9912, 1096782.
713.4733, 1097360.
713.9554, 1097473.
714.4376, 1097717.
714.9197, 1098785.
715.4018, 1100405.
715.8839, 1101467.
716.3660, 1101891.
716.8481, 1102314.
717.3303, 1102837.
717.8124, 1103569.
718.2945, 1104807.
718.7766, 1106498.
719.2587, 1107833.
719.7408, 1108513.
720.2230, 1109096.
720.7051, 1109859.
721.1872, 1110613.
721.6693, 1111061.
722.1514, 1111223.
722.6335, 1111432.
723.1157, 1111940.
723.5978, 1112671.
724.0799, 1113415.
724.5620, 1114163.
725.0441, 1115064.
725.5262, 1116232.
726.0084, 1117396.
726.4905, 1118342.
726.9726, 1119096.
727.4547, 1119734.
727.9368, 1120236.
728.4189, 1120672.
728.9011, 1120826.
729.3832, 1121102.
729.8653, 1121963.
730.3474, 1123322.
730.8295, 1124805.
731.3116, 1126226.
731.7938, 1127493.
732.2759, 1128377.
732.7580, 1128868.
733.2401, 1129499.
733.7222, 1130335.
734.2043, 1131259.
734.6865, 1132306.
735.1686, 1133349.
735.6507, 1134061.
736.1328, 1134261.
736.6149, 1134737.
737.0970, 1135882.
737.5792, 1137134.
738.0613, 1138012.
738.5434, 1138722.
739.0255, 1139820.
739.5076, 1141473.
739.9897, 1143081.
740.4719, 1143815.
740.9540, 1143826.
741.4361, 1144213.
741.9182, 1145010.
742.4003, 1146030.
742.8824, 1147365.
743.3646, 1148703.
743.8467, 1149525.
744.3288, 1149822.
744.8109, 1150393.
745.2930, 1151795.
745.7751, 1152914.
746.2573, 1153055.
746.7394, 1152808.
747.2215, 1152746.
747.7036, 1153040.
748.1857, 1153799.
748.6678, 1155227.
749.1500, 1156982.
749.6321, 1158262.
750.1142, 1159075.
750.5963, 1159907.
751.0784, 1160903.
751.5605, 1161789.
752.0427, 1162245.
752.5248, 1162398.
753.0069, 1162960.
753.4890, 1164517.
753.9711, 1165537.
754.4532, 1165235.
754.9354, 1164856.
755.4175, 1165284.
755.8996, 1166366.
756.3817, 1167654.
756.8638, 1168982.
757.3459, 1170140.
757.8281, 1170643.
758.3102, 1170753.
758.7923, 1171639.
759.2744, 1173419.
759.7565, 1174934.
760.2386, 1175517.
760.7208, 1175732.
761.2029, 1176601.
761.6850, 1178400.
762.1671, 1179738.
762.6492, 1180412.
763.1313, 1180911.
763.6135, 1181231.
764.0956, 1181555.
764.5777, 1182101.
765.0598, 1182878.
765.5419, 1183681.
766.0240, 1184291.
766.5062, 1184929.
766.9883, 1186052.
767.4704, 1187505.
767.9525, 1188544.
768.4346, 1188980.
768.9167, 1189376.
769.3989, 1190244.
769.8810, 1191498.
770.3631, 1192577.
770.8452, 1193274.
771.3273, 1194166.
771.8094, 1195365.
772.2916, 1196683.
772.7737, 1198191.
773.2558, 1199705.
773.7379, 1200786.
774.2200, 1201165.
774.7021, 1201722.
775.1843, 1203309.
775.6664, 1205249.
776.1485, 1206644.
776.6306, 1207500.
777.1127, 1208169.
777.5948, 1208807.
778.0770, 1209380.
778.5591, 1209789.
779.0412, 1210011.
779.5233, 1210573.
780.0054, 1211574.
780.4875, 1212718.
780.9697, 1214005.
781.4518, 1215325.
781.9339, 1216598.
782.4160, 1217824.
782.8981, 1218910.
783.3802, 1219825.
783.8624, 1220602.
784.3445, 1221042.
784.8266, 1221473.
785.3087, 1222386.
785.7908, 1223760.
786.2729, 1225151.
786.7551, 1226254.
787.2372, 1227239.
787.7193, 1228536.
788.2014, 1230130.
788.6835, 1231323.
789.1656, 1231964.
789.6478, 1232435.
790.1299, 1232824.
790.6120, 1233280.
791.0941, 1234198.
791.5762, 1235770.
792.0583, 1237222.
792.5404, 1238697.
793.0225, 1239849.
793.5046, 1240142.
793.9868, 1240204.
794.4689, 1240966.
794.9510, 1242560.
795.4331, 1244198.
795.9152, 1245237.
796.3973, 1245990.
796.8795, 1247061.
797.3616, 1248337.
797.8437, 1249109.
798.3258, 1249177.
798.8079, 1249300.
799.2900, 1250203.
799.7722, 1251689.
800.2543, 1252643.
800.7364, 1252637.
801.2185, 1252963.
801.7006, 1254091.
802.1827, 1255197.
802.6649, 1255737.
803.1470, 1256032.
803.6291, 1256722.
804.1112, 1258012.
804.5933, 1259293.
805.0754, 1259834.
805.5576, 1260567.
806.0397, 1262966.
806.5218, 1266271.
807.0039, 1268474.
807.4860, 1268931.
807.9681, 1268882.
808.4503, 1269655.
808.9324, 1271112.
809.4145, 1272550.
809.8966, 1274013.
810.3787, 1275166.
810.8608, 1275724.
811.3430, 1276299.
811.8251, 1277622.
812.3072, 1279498.
812.7893, 1280619.
813.2714, 1280473.
813.7535, 1280325.
814.2357, 1279946.
814.7178, 1279978.
815.1999, 1281045.
815.6820, 1282830.
816.1641, 1284750.
816.6462, 1286608.
817.1284, 1288215.
817.6105, 1289366.
818.0926, 1290148.
818.5747, 1290529.
819.0568, 1290628.
819.5389, 1291145.
820.0211, 1292343.
820.5032, 1293773.
820.9853, 1294936.
821.4674, 1295845.
821.9495, 1296669.
822.4316, 1297299.
822.9138, 1298073.
823.3959, 1298957.
823.8780, 1300087.
824.3601, 1301763.
824.8422, 1303728.
825.3243, 1305315.
825.8065, 1306381.
826.2886, 1307130.
826.7707, 1307152.
827.2528, 1307313.
827.7349, 1308594.
828.2170, 1310609.
828.6992, 1312458.
829.1813, 1313823.
829.6634, 1314851.
830.1455, 1315669.
830.6276, 1316289.
831.1097, 1316558.
831.5919, 1316487.
832.0740, 1317054.
832.5561, 1318684.
833.0382, 1320369.
833.5203, 1321068.
834.0024, 1320952.
834.4846, 1321423.
834.9667, 1322775.
835.4488, 1324206.
835.9309, 1325928.
836.4130, 1327428.
836.8951, 1328350.
837.3773, 1328899.
837.8594, 1329399.
838.3415, 1329885.
838.8236, 1330616.
839.3057, 1332062.
839.7878, 1333547.
840.2700, 1334318.
840.7521, 1334644.
841.2342, 1335269.
841.7163, 1336333.
842.1984, 1337135.
842.6805, 1336908.
843.1627, 1336116.
843.6448, 1336190.
844.1269, 1337158.
844.6090, 1338148.
845.0911, 1339000.
845.5732, 1339883.
846.0554, 1340896.
846.5375, 1342032.
847.0196, 1343311.
847.5017, 1345114.
847.9838, 1346136.
848.4659, 1345339.
848.9481, 1344979.
849.4302, 1346225.
849.9123, 1348191.
850.3944, 1349804.
850.8765, 1350928.
851.3586, 1352094.
851.8408, 1353702.
852.3229, 1355320.
852.8050, 1356604.
853.2871, 1357646.
853.7692, 1358613.
854.2513, 1359510.
854.7335, 1360172.
855.2156, 1360445.
855.6977, 1360721.
856.1798, 1361921.
856.6619, 1363999.
857.1440, 1365437.
857.6262, 1366082.
858.1083, 1366462.
858.5904, 1366651.
859.0725, 1366941.
859.5546, 1367854.
860.0367, 1369496.
860.5189, 1370536.
861.0010, 1370362.
861.4831, 1370463.
861.9652, 1371078.
862.4473, 1372057.
862.9294, 1373509.
863.4116, 1375225.
863.8937, 1376681.
864.3758, 1377713.
864.8579, 1378530.
865.3400, 1379129.
865.8221, 1379677.
866.3043, 1380281.
866.7864, 1380999.
867.2685, 1381979.
867.7506, 1383243.
868.2327, 1384523.
868.7148, 1385504.
869.1970, 1386291.
869.6791, 1387227.
870.1612, 1388304.
870.6433, 1389655.
871.1254, 1391407.
871.6075, 1392939.
872.0897, 1393699.
872.5718, 1393928.
873.0539, 1394424.
873.5360, 1395357.
874.0181, 1396161.
874.5002, 1396586.
874.9823, 1397176.
875.4644, 1398248.
875.9465, 1399497.
876.4286, 1400632.
876.9108, 1401615.
877.3929, 1402438.
877.8750, 1403025.
878.3571, 1403537.
878.8392, 1403947.
879.3214, 1404411.
879.8035, 1405164.
880.2856, 1406157.
880.7677, 1407130.
881.2498, 1407946.
881.7319, 1408785.
882.2141, 1409846.
882.6962, 1411117.
883.1783, 1412750.
883.6604, 1414667.
884.1425, 1415858.
884.6246, 1415884.
885.1068, 1415880.
885.5889, 1417199.
886.0710, 1419590.
886.5531, 1421006.
887.0352, 1421037.
887.5173, 1421288.
887.9995, 1422130.
888.4816, 1422980.
888.9637, 1423225.
889.4458, 1423308.
889.9279, 1424187.
890.4100, 1426100.
890.8922, 1427890.
891.3743, 1429522.
891.8564, 1430858.
892.3385, 1431646.
892.8206, 1432217.
893.3027, 1432924.
893.7849, 1433801.
894.2670, 1434712.
894.7491, 1435691.
895.2312, 1436478.
895.7133, 1436575.
896.1954, 1436451.
896.6776, 1436909.
897.1597, 1437910.
897.6418, 1439039.
898.1239, 1440109.
898.6060, 1441023.
899.0881, 1441596.
899.5703, 1441913.
900.0524, 1442435.
900.5345, 1443174.
901.0166, 1443855.
901.4987, 1444381.
901.9808, 1444996.
902.4630, 1445975.
902.9451, 1447136.
903.4272, 1447796.
903.9093, 1447430.
904.3914, 1447782.
904.8735, 1449440.
905.3557, 1451084.
905.8378, 1452205.
906.3199, 1453106.
906.8020, 1454119.
907.2841, 1455249.
907.7662, 1456264.
908.2484, 1456707.
908.7305, 1457528.
909.2126, 1459597.
909.6947, 1461813.
910.1768, 1463042.
910.6589, 1463547.
911.1411, 1464189.
911.6232, 1465283.
912.1053, 1466619.
912.5874, 1468306.
913.0695, 1469944.
913.5516, 1470788.
914.0338, 1471045.
914.5159, 1471315.
914.9980, 1471773.
915.4801, 1472506.
915.9622, 1473617.
916.4443, 1474933.
916.9265, 1475973.
917.4086, 1476739.
917.8907, 1478098.
918.3728, 1480301.
918.8549, 1482032.
919.3370, 1482624.
919.8192, 1482626.
920.3013, 1482676.
920.7834, 1482761.
921.2655, 1483608.
921.7476, 1486083.
922.2297, 1487825.
922.7119, 1487717.
923.1940, 1487579.
923.6761, 1488667.
924.1582, 1490411.
924.6403, 1491609.
925.1224, 1492071.
925.6046, 1492314.
926.0867, 1492009.
926.5688, 1492029.
927.0509, 1492911.
927.5330, 1494321.
928.0151, 1496132.
928.4973, 1498097.
928.9794, 1499455.
929.4615, 1499589.
929.9436, 1499693.
930.4257, 1501011.
930.9078, 1502833.
931.3900, 1504115.
931.8721, 1504931.
932.3542, 1505849.
932.8363, 1507036.
933.3184, 1508018.
933.8005, 1508136.
934.2827, 1507904.
934.7648, 1508998.
935.2469, 1511211.
935.7290, 1512409.
936.2111, 1512208.
936.6932, 1511922.
937.1754, 1512278.
937.6575, 1513139.
938.1396, 1514286.
938.6217, 1515739.
939.1038, 1517290.
939.5859, 1519055.
940.0681, 1520618.
940.5502, 1521842.
941.0323, 1522892.
941.5144, 1523909.
941.9965, 1524867.
942.4786, 1525661.
942.9608, 1526121.
943.4429, 1526779.
943.9250, 1527941.
944.4071, 1528979.
944.8892, 1529511.
945.3713, 1529873.
945.8535, 1530439.
946.3356, 1531228.
946.8177, 1532047.
947.2998, 1532842.
947.7819, 1533646.
948.2640, 1534467.
948.7462, 1535301.
949.2283, 1536141.
949.7104, 1536987.
950.1925, 1537827.
950.6746, 1538667.
951.1567, 1539602.
951.6389, 1540823.
952.1210, 1542080.
952.6031, 1542929.
953.0852, 1543610.
953.5673, 1544708.
954.0494, 1546239.
954.5316, 1547780.
955.0137, 1549110.
955.4958, 1550335.
955.9779, 1551691.
956.4600, 1553083.
956.9421, 1553984.
957.4242, 1554411.
957.9063, 1554712.
958.3884, 1554941.
958.8705, 1555445.
959.3527, 1556528.
959.8348, 1558030.
960.3169, 1559560.
960.7990, 1561240.
961.2811, 1562224.
961.7632, 1562227.
962.2454, 1562298.
962.7275, 1562911.
963.2096, 1563627.
963.6917, 1563935.
964.1738, 1563887.
964.6559, 1564010.
965.1381, 1564380.
965.6202, 1564821.
966.1023, 1565040.
966.5844, 1565675.
967.0665, 1567496.
967.5486, 1569641.
968.0308, 1570918.
968.5129, 1571262.
968.9950, 1571572.
969.4771, 1571786.
969.9592, 1572328.
970.4413, 1573568.
970.9235, 1574980.
971.4056, 1576146.
971.8877, 1577130.
972.3698, 1578101.
972.8519, 1579094.
973.3340, 1580237.
973.8162, 1581676.
974.2983, 1583200.
974.7804, 1584845.
975.2625, 1586334.
975.7446, 1587195.
976.2267, 1587506.
976.7089, 1587684.
977.1910, 1587910.
977.6731, 1588276.
978.1552, 1589023.
978.6373, 1589895.
979.1194, 1590248.
979.6016, 1590353.
980.0837, 1591244.
980.5658, 1593024.
981.0479, 1594581.
981.5300, 1595117.
982.0121, 1595264.
982.4943, 1596220.
982.9764, 1596952.
983.4585, 1597712.
983.9406, 1599108.
984.4227, 1599864.
984.9048, 1601362.
985.3870, 1603143.
985.8691, 1604869.
986.3512, 1606398.
986.8333, 1607077.
987.3154, 1606696.
987.7975, 1607213.
988.2797, 1608842.
988.7618, 1611031.
989.2439, 1613920.
989.7260, 1616551.
990.2081, 1617770.
990.6902, 1617697.
991.1724, 1617365.
991.6545, 1616358.
992.1366, 1616100.
992.6187, 1617042.
993.1008, 1618209.
993.5829, 1619133.
994.0651, 1620051.
994.5472, 1621339.
995.0293, 1622997.
995.5114, 1624507.
995.9935, 1625644.
996.4756, 1626942.
996.9578, 1629011.
997.4399, 1630662.
997.9220, 1630582.
998.4041, 1629938.
998.8862, 1630824.
999.3683, 1633499.
999.8505, 1635465.
1000.333, 1635482.
1000.815, 1635525.
1001.297, 1636448.
1001.779, 1637577.
1002.261, 1638217.
1002.743, 1638667.
1003.225, 1639721.
1003.707, 1641586.
1004.190, 1643254.
1004.672, 1644038.
1005.154, 1644670.
1005.636, 1645643.
1006.118, 1646736.
1006.600, 1647690.
1007.082, 1648508.
1007.564, 1649255.
1008.046, 1649947.
1008.529, 1650810.
1009.011, 1652107.
1009.493, 1653569.
1009.975, 1655124.
1010.457, 1656529.
1010.939, 1657214.
1011.421, 1657295.
1011.903, 1657490.
1012.385, 1658150.
1012.868, 1659050.
1013.350, 1660040.
1013.832, 1661063.
1014.314, 1662132.
1014.796, 1663137.
1015.278, 1663483.
1015.760, 1663249.
1016.242, 1663649.
1016.725, 1665441.
1017.207, 1667650.
1017.689, 1668816.
1018.171, 1669233.
1018.653, 1669850.
1019.135, 1670681.
1019.617, 1671810.
1020.099, 1673248.
1020.581, 1674828.
1021.064, 1676449.
1021.546, 1678068.
1022.028, 1679771.
1022.510, 1681485.
1022.992, 1682223.
1023.474, 1681958.
1023.956, 1681987.
1024.438, 1682620.
1024.921, 1683854.
1025.403, 1685831.
1025.885, 1688005.
1026.367, 1688895.
1026.849, 1688363.
1027.331, 1688772.
1027.813, 1690294.
1028.295, 1691785.
1028.777, 1692960.
1029.260, 1693946.
1029.742, 1694844.
1030.224, 1695632.
1030.706, 1696222.
1031.188, 1696593.
1031.670, 1696836.
1032.152, 1696745.
1032.634, 1697172.
1033.116, 1698549.
1033.599, 1700151.
1034.081, 1701428.
1034.563, 1702436.
1035.045, 1703297.
1035.527, 1703854.
1036.009, 1704893.
1036.491, 1706840.
1036.973, 1708455.
1037.456, 1709192.
1037.938, 1709742.
1038.420, 1710792.
1038.902, 1712102.
1039.384, 1712790.
1039.866, 1712417.
1040.348, 1712686.
1040.830, 1714131.
1041.313, 1715461.
1041.795, 1716248.
1042.277, 1716891.
1042.759, 1717619.
1043.241, 1718462.
1043.723, 1719526.
1044.205, 1720895.
1044.687, 1722227.
1045.169, 1723627.
1045.651, 1724801.
1046.134, 1725253.
1046.616, 1725779.
1047.098, 1727096.
1047.580, 1728993.
1048.062, 1730867.
1048.544, 1732732.
1049.026, 1734319.
1049.508, 1735530.
1049.991, 1736527.
1050.473, 1737135.
1050.955, 1737768.
1051.437, 1739241.
1051.919, 1740976.
1052.401, 1741166.
1052.883, 1738966.
1053.365, 1738006.
1053.848, 1739732.
1054.330, 1741977.
1054.812, 1744784.
1055.294, 1747020.
1055.776, 1747037.
1056.258, 1745860.
1056.740, 1746251.
1057.222, 1749020.
1057.704, 1751125.
1058.187, 1751171.
1058.669, 1751043.
1059.151, 1751145.
1059.633, 1751719.
1060.115, 1753235.
1060.597, 1755289.
1061.079, 1757042.
1061.561, 1758322.
1062.043, 1759376.
1062.526, 1760282.
1063.008, 1761017.
1063.490, 1761537.
1063.972, 1761939.
1064.454, 1762281.
1064.936, 1762595.
1065.418, 1762911.
1065.900, 1763244.
1066.383, 1763612.
1066.865, 1763780.
1067.347, 1764312.
1067.829, 1765955.
1068.311, 1767639.
1068.793, 1768161.
1069.275, 1768121.
1069.757, 1768836.
1070.240, 1770526.
1070.722, 1772128.
1071.204, 1773019.
1071.686, 1773951.
1072.168, 1775549.
1072.650, 1777068.
1073.132, 1777621.
1073.614, 1777782.
1074.096, 1778663.
1074.578, 1780382.
1075.061, 1782032.
1075.543, 1783174.
1076.025, 1784269.
1076.507, 1785883.
1076.989, 1787181.
1077.471, 1787044.
1077.953, 1786379.
1078.435, 1786689.
1078.918, 1788056.
1079.400, 1789335.
1079.882, 1790000.
1080.364, 1790729.
1080.846, 1792036.
1081.328, 1793347.
1081.810, 1794394.
1082.292, 1795110.
1082.774, 1795197.
1083.257, 1794868.
1083.739, 1795092.
1084.221, 1796317.
1084.703, 1797775.
1085.185, 1799496.
1085.667, 1800915.
1086.149, 1801419.
1086.631, 1801581.
1087.114, 1801841.
1087.596, 1802400.
1088.078, 1803713.
1088.560, 1806133.
1089.042, 1808177.
1089.524, 1808773.
1090.006, 1809377.
1090.488, 1811160.
1090.970, 1813077.
1091.453, 1813908.
1091.935, 1813962.
1092.417, 1814202.
1092.899, 1814844.
1093.381, 1815728.
1093.863, 1817081.
1094.345, 1818296.
1094.827, 1819315.
1095.309, 1819870.
1095.792, 1819141.
1096.274, 1818010.
1096.756, 1818241.
1097.238, 1820135.
1097.720, 1822050.
1098.202, 1823859.
1098.684, 1825093.
1099.166, 1824949.
1099.649, 1824874.
1100.131, 1826278.
1100.613, 1828191.
1101.095, 1828917.
1101.577, 1828419.
1102.059, 1828460.
1102.541, 1829700.
1103.023, 1831095.
1103.505, 1832561.
1103.988, 1833921.
1104.470, 1835341.
1104.952, 1836397.
1105.434, 1836131.
1105.916, 1834939.
1106.398, 1834965.
1106.880, 1836937.
1107.362, 1839131.
1107.844, 1842013.
1108.327, 1844142.
1108.809, 1844663.
1109.291, 1844495.
1109.773, 1843885.
1110.255, 1843335.
1110.737, 1844403.
1111.219, 1847903.
1111.701, 1850271.
1112.184, 1850917.
1112.666, 1850893.
1113.148, 1849449.
1113.630, 1848412.
1114.112, 1849331.
1114.594, 1851335.
1115.076, 1852884.
1115.558, 1853955.
1116.041, 1854749.
1116.523, 1854828.
1117.005, 1855388.
1117.487, 1856904.
1117.969, 1858412.
1118.451, 1859419.
1118.933, 1860191.
1119.415, 1860970.
1119.897, 1861778.
1120.380, 1863116.
1120.862, 1865520.
1121.344, 1866954.
1121.826, 1866436.
1122.308, 1866988.
1122.790, 1870237.
1123.272, 1873973.
1123.754, 1876194.
1124.236, 1877174.
1124.719, 1877848.
1125.201, 1878267.
1125.683, 1878062.
1126.165, 1876993.
1126.647, 1876244.
1127.129, 1876056.
1127.611, 1876462.
1128.093, 1877548.
1128.576, 1879122.
1129.058, 1880939.
1129.540, 1882949.
1130.022, 1884035.
1130.504, 1884066.
1130.986, 1884743.
1131.468, 1886377.
1131.950, 1887857.
1132.432, 1888581.
1132.915, 1889321.
1133.397, 1891030.
1133.879, 1893476.
1134.361, 1896110.
1134.843, 1898848.
1135.325, 1900432.
1135.807, 1900811.
1136.289, 1900783.
1136.771, 1900613.
1137.254, 1900373.
1137.736, 1900038.
1138.218, 1900072.
1138.700, 1901642.
1139.182, 1904224.
1139.664, 1906111.
1140.146, 1907369.
1140.628, 1908427.
1141.111, 1909400.
1141.593, 1910293.
1142.075, 1911118.
1142.557, 1911973.
1143.039, 1912978.
1143.521, 1914077.
1144.003, 1915240.
1144.485, 1916387.
1144.968, 1917356.
1145.450, 1918147.
1145.932, 1918686.
1146.414, 1919023.
1146.896, 1919811.
1147.378, 1921711.
1147.860, 1923821.
1148.342, 1925384.
1148.824, 1926576.
1149.307, 1927525.
1149.789, 1928293.
1150.271, 1928967.
1150.753, 1929539.
1151.235, 1929785.
1151.717, 1929418.
1152.199, 1929706.
1152.681, 1932189.
1153.163, 1934633.
1153.646, 1935199.
1154.128, 1935276.
1154.610, 1936530.
1155.092, 1938509.
1155.574, 1939745.
1156.056, 1939938.
1156.538, 1940562.
1157.020, 1942420.
1157.503, 1944210.
1157.985, 1945149.
1158.467, 1946353.
1158.949, 1948975.
1159.431, 1951926.
1159.913, 1953681.
1160.395, 1954319.
1160.877, 1955015.
1161.359, 1955760.
1161.842, 1956668.
1162.324, 1957717.
1162.806, 1958955.
1163.288, 1960556.
1163.770, 1962149.
1164.252, 1963566.
1164.734, 1964707.
1165.216, 1965261.
1165.698, 1965167.
1166.181, 1965511.
1166.663, 1966460.
1167.145, 1967343.
1167.627, 1968147.
1168.109, 1968549.
1168.591, 1968199.
1169.073, 1968127.
1169.555, 1969671.
1170.037, 1972271.
1170.520, 1973786.
1171.002, 1974238.
1171.484, 1974462.
1171.966, 1974515.
1172.448, 1975208.
1172.930, 1976748.
1173.412, 1978798.
1173.894, 1981196.
1174.377, 1983378.
1174.859, 1984388.
1175.341, 1984580.
1175.823, 1984822.
1176.305, 1985126.
1176.787, 1985408.
1177.269, 1985787.
1177.751, 1986831.
1178.234, 1988690.
1178.716, 1990643.
1179.198, 1992078.
1179.680, 1993480.
1180.162, 1995741.
1180.644, 1997986.
1181.126, 1998874.
1181.608, 1999038.
1182.090, 1999638.
1182.573, 2000767.
1183.055, 2001881.
1183.537, 2002753.
1184.019, 2003709.
1184.501, 2005150.
1184.983, 2006411.
1185.465, 2006910.
1185.947, 2007262.
1186.429, 2007862.
1186.912, 2008771.
1187.394, 2010226.
1187.876, 2012188.
1188.358, 2013504.
1188.840, 2013057.
1189.322, 2013448.
1189.804, 2015624.
1190.286, 2017782.
1190.769, 2019498.
1191.251, 2020742.
1191.733, 2021444.
1192.215, 2021657.
1192.697, 2021409.
1193.179, 2021897.
1193.661, 2022157.
1194.143, 2022103.
1194.625, 2022975.
1195.108, 2022762.
1195.590, 2022965.
1196.072, 2024401.
1196.554, 2026170.
1197.036, 2027246.
1197.518, 2027815.
1198.000, 2028412.
1198.482, 2029029.
1198.964, 2029641.
1199.447, 2030210.
1199.929, 2030123.
1200.411, 2029415.
1200.893, 2029938.
1201.375, 2032787.
1201.857, 2036328.
1202.339, 2039095.
1202.821, 2040968.
1203.304, 2041325.
1203.786, 2040907.
1204.268, 2040847.
1204.750, 2041255.
1205.232, 2042115.
1205.714, 2043358.
1206.196, 2044726.
1206.678, 2046280.
1207.161, 2047340.
1207.643, 2046952.
1208.125, 2046555.
1208.607, 2047171.
1209.089, 2048307.
1209.571, 2049695.
1210.053, 2051065.
1210.535, 2051854.
1211.017, 2051940.
1211.500, 2052293.
1211.982, 2052911.
1212.464, 2054013.
1212.946, 2056185.
1213.428, 2058065.
1213.910, 2059127.
1214.392, 2059635.
1214.874, 2059672.
1215.356, 2059417.
1215.839, 2059405.
1216.321, 2059590.
1216.803, 2060613.
1217.285, 2062770.
1217.767, 2063755.
1218.249, 2063121.
1218.731, 2061901.
1219.213, 2060518.
1219.696, 2059666.
1220.178, 2060249.
1220.660, 2061610.
1221.142, 2062144.
1221.624, 2062172.
1222.106, 2062693.
1222.588, 2063666.
1223.070, 2064805.
1223.552, 2066001.
1224.035, 2067042.
1224.517, 2067821.
1224.999, 2068609.
1225.481, 2069329.
1225.963, 2070470.
1226.445, 2073037.
1226.927, 2075698.
1227.409, 2076796.
1227.891, 2077059.
1228.374, 2077810.
1228.856, 2079151.
1229.338, 2080562.
1229.820, 2082116.
1230.302, 2083003.
1230.784, 2081952.
1231.266, 2081716.
1231.748, 2083951.
1232.231, 2086405.
1232.713, 2087745.
1233.195, 2088457.
1233.677, 2089181.
1234.159, 2089919.
1234.641, 2090523.
1235.123, 2090880.
1235.605, 2091822.
1236.088, 2093548.
1236.570, 2094822.
1237.052, 2095320.
1237.534, 2095247.
1238.016, 2094629.
1238.498, 2094316.
1238.980, 2095781.
1239.462, 2098175.
1239.944, 2099262.
1240.427, 2099365.
1240.909, 2099305.
1241.391, 2099221.
1241.873, 2099068.
1242.355, 2098977.
1242.837, 2099752.
1243.319, 2101968.
1243.801, 2104053.
1244.283, 2104546.
1244.766, 2104808.
1245.248, 2105725.
1245.730, 2107088.
1246.212, 2108909.
1246.694, 2110889.
1247.176, 2112716.
1247.658, 2114284.
1248.140, 2115036.
1248.622, 2114026.
1249.105, 2114035.
1249.587, 2115915.
1250.069, 2117647.
1250.551, 2118634.
1251.033, 2119554.
1251.515, 2120794.
1251.997, 2122270.
1252.479, 2124012.
1252.962, 2125797.
1253.444, 2126162.
1253.926, 2125141.
1254.408, 2124679.
1254.890, 2124910.
1255.372, 2126291.
1255.854, 2128797.
1256.336, 2131038.
1256.818, 2132222.
1257.301, 2132493.
1257.783, 2131420.
1258.265, 2130223.
1258.747, 2130631.
1259.229, 2131924.
1259.711, 2133348.
1260.193, 2134756.
1260.675, 2135959.
1261.157, 2137049.
1261.640, 2138621.
1262.122, 2141077.
1262.604, 2142868.
1263.086, 2142658.
1263.568, 2142878.
1264.050, 2144633.
1264.532, 2146643.
1265.014, 2148367.
1265.497, 2149701.
1265.979, 2150328.
1266.461, 2150501.
1266.943, 2151377.
1267.425, 2153085.
1267.907, 2154438.
1268.389, 2155416.
1268.871, 2156165.
1269.354, 2156702.
1269.836, 2158027.
1270.318, 2160626.
1270.800, 2162977.
1271.282, 2163476.
1271.764, 2163256.
1272.246, 2163950.
1272.728, 2165323.
1273.210, 2167400.
1273.693, 2169586.
1274.175, 2170749.
1274.657, 2171014.
1275.139, 2171057.
1275.621, 2171107.
1276.103, 2171808.
1276.585, 2173399.
1277.067, 2175709.
1277.549, 2180272.
1278.032, 2183552.
1278.514, 2182838.
1278.996, 2181089.
1279.478, 2180949.
1279.960, 2181541.
1280.442, 2180812.
1280.924, 2181947.
1281.406, 2183496.
1281.889, 2184005.
1282.371, 2187043.
1282.853, 2188544.
1283.335, 2188919.
1283.817, 2188354.
1284.299, 2189048.
1284.781, 2192433.
1285.263, 2196681.
1285.745, 2199735.
1286.228, 2201565.
##END=



