##NAMES=Spangolite
##RRUFFID=R060135
##IDEAL CHEMISTRY=Cu^2+^_6_AlS^6+^O_4_(OH)_12_Cl&#183;3H_2_O
##LOCALITY=Blanchard mine, Hansonburg District, Socorro County, New Mexico, USA
##OWNER=RRUFF
##SOURCE=University of Arizona Mineral Museum
##DESCRIPTION=Bluish-green stubby hexagonal pyramids
##STATUS=The identification of this mineral has been confirmed by X-ray diffraction and chemical analysis
##URL=rruff.info/R060135
##MEASURED CHEMISTRY=Cu_6.00_Al_1.00_(S_1.00_O_4_)Cl_1.00_(OH)_12_Â·3H_2_O
152.2899, 0.0000000E+00
152.7720, 8.5409001E-02
153.2542, 5.3502999E-02
153.7363, 2.9832000E-02
154.2184, 0.1782620
154.7005, 1.2735000E-02
155.1826, 0.1388940
155.6647, 0.1567980
156.1469, 0.2387330
156.6290, 0.1874290
157.1111, 0.2429310
157.5932, 0.2941440
158.0753, 0.3252460
158.5574, 0.2785050
159.0396, 0.3323400
159.5217, 0.3541120
160.0038, 0.3760010
160.4859, 0.4433700
160.9680, 0.4038180
161.4501, 0.4687280
161.9323, 0.4963680
162.4144, 0.5349960
162.8965, 0.5330940
163.3786, 0.5493950
163.8607, 0.6396640
164.3428, 0.7757860
164.8250, 0.7645570
165.3071, 0.6658300
165.7892, 0.8376830
166.2713, 0.9409720
166.7534, 0.9866130
167.2355, 0.7746200
167.7177, 0.8884070
168.1998, 0.8681230
168.6819, 0.8421990
169.1640, 1.041240
169.6461, 0.8700840
170.1282, 1.031522
170.6104, 1.184982
171.0925, 1.204276
171.5746, 1.028543
172.0567, 1.182451
172.5388, 1.250876
173.0209, 1.261912
173.5031, 1.010470
173.9852, 1.089257
174.4673, 1.039226
174.9494, 0.9912900
175.4315, 1.116769
175.9136, 0.8993780
176.3958, 1.021973
176.8779, 1.158738
177.3600, 0.8092580
177.8421, 0.2954570
178.3242, 0.4165420
178.8063, 0.4713310
179.2885, 0.4581380
179.7706, 0.1850370
180.2527, 0.2455770
180.7348, 0.1769120
181.2169, 9.8292001E-02
181.6990, 0.2101500
182.1812, 2.3851000E-02
182.6633, 4.6332002E-02
183.1454, 0.1715520
183.6275, 8.1706002E-02
184.1096, 0.2200380
184.5917, 0.2900880
185.0738, 0.2955260
185.5560, 4.2686000E-02
186.0381, 0.1235260
186.5202, 7.0731997E-02
187.0023, 1.2493000E-02
187.4844, 0.1404140
187.9665, 1.7123999E-02
188.4487, 5.0462998E-02
188.9308, 3.9820999E-02
189.4129, 9.1362000E-02
189.8950, 8.4950002E-03
190.3771, 3.2800000E-02
190.8592, 6.0486000E-02
191.3414, 7.9282999E-02
191.8235, 1.8952999E-02
192.3056, 3.6789000E-02
192.7877, 8.2714997E-02
193.2698, 5.9950002E-02
193.7519, 3.4070000E-02
194.2341, 2.3773000E-02
194.7162, 1.1823000E-02
195.1983, 7.9704002E-02
195.6804, 0.1065520
196.1625, 2.0936999E-02
196.6446, 2.2769000E-02
197.1268, 5.0760001E-02
197.6089, 1.4291000E-02
198.0910, 5.7688002E-02
198.5731, 2.9642999E-02
199.0552, 9.6659996E-03
199.5373, 1.9910000E-02
200.0195, 9.2262998E-02
200.5016, 3.0058000E-02
200.9837, 9.3599996E-03
201.4658, 0.1232320
201.9479, 0.1626030
202.4300, 8.4890001E-02
202.9122, 0.1617340
203.3943, 3.6341000E-02
203.8764, 0.1167370
204.3585, 0.1142610
204.8406, 1.8632000E-02
205.3227, 3.1640999E-02
205.8048, 4.5692999E-02
206.2870, 0.1430420
206.7691, 0.1824970
207.2512, 0.1549750
207.7333, 0.1020420
208.2154, 4.1818000E-02
208.6975, 3.2067001E-02
209.1797, 3.2141000E-02
209.6618, 1.0372000E-02
210.1439, 0.1058800
210.6260, 0.1369170
211.1081, 3.2565001E-02
211.5902, 1.6159000E-02
212.0724, 7.3469998E-03
212.5545, 3.9944999E-02
213.0366, 0.1136520
213.5187, 3.9253999E-02
214.0008, 7.5038001E-02
214.4829, 9.0053998E-02
214.9651, 0.2518220
215.4472, 0.3700440
215.9293, 0.4236110
216.4114, 0.2188390
216.8935, 0.3476670
217.3756, 0.3428080
217.8578, 0.3324720
218.3399, 0.5082550
218.8220, 0.3442970
219.3041, 0.5180560
219.7862, 0.5551470
220.2683, 0.6552980
220.7505, 0.6084170
221.2326, 0.5958730
221.7147, 0.5968410
222.1968, 0.7138010
222.6789, 0.9534780
223.1610, 1.167199
223.6432, 0.9890000
224.1253, 1.166868
224.6074, 1.276375
225.0895, 1.321176
225.5716, 1.107630
226.0537, 1.227678
226.5358, 1.214033
227.0180, 1.194754
227.5001, 1.361540
227.9822, 1.185331
228.4643, 1.349099
228.9464, 1.377132
229.4285, 1.467228
229.9107, 1.422748
230.3928, 1.670241
230.8749, 1.860852
231.3570, 1.746363
231.8391, 1.281562
232.3212, 1.004800
232.8034, 1.164994
233.2855, 1.496391
233.7676, 1.667467
234.2497, 1.595329
234.7318, 1.417379
235.2139, 1.254369
235.6961, 1.106659
236.1782, 1.026098
236.6603, 1.074663
237.1424, 1.184865
237.6245, 1.231867
238.1066, 1.172378
238.5888, 1.146560
239.0709, 1.385495
239.5530, 1.797794
240.0351, 2.055348
240.5172, 1.865380
240.9993, 1.479207
241.4815, 1.439155
241.9636, 1.925510
242.4457, 2.394967
242.9278, 2.354633
243.4099, 1.993231
243.8920, 1.699767
244.3742, 1.674042
244.8563, 1.819318
245.3384, 1.923524
245.8205, 1.976266
246.3026, 2.014362
246.7847, 2.111488
247.2668, 2.197291
247.7490, 2.134942
248.2311, 1.779043
248.7132, 1.279487
249.1953, 0.9873420
249.6774, 0.9635380
250.1595, 1.039175
250.6417, 1.220247
251.1238, 1.406699
251.6059, 1.465657
252.0880, 1.326058
252.5701, 1.065651
253.0522, 0.8812080
253.5344, 0.7845370
254.0165, 0.7409240
254.4986, 0.7963680
254.9807, 0.8753940
255.4628, 0.9060180
255.9449, 0.8509630
256.4271, 0.7268230
256.9092, 0.5804010
257.3913, 0.3353300
257.8734, 0.2086910
258.3555, 0.3156160
258.8376, 0.5023680
259.3198, 0.6314430
259.8019, 0.6483280
260.2840, 0.5844410
260.7661, 0.4990370
261.2482, 0.3636640
261.7303, 0.2666590
262.2125, 0.1511530
262.6946, 9.9385001E-02
263.1767, 9.2164002E-02
263.6588, 0.2639840
264.1409, 0.3674710
264.6230, 0.4079750
265.1052, 0.1884710
265.5873, 0.3065240
266.0694, 0.2869540
266.5515, 0.2596970
267.0336, 0.4150880
267.5157, 0.2332020
267.9979, 0.3972200
268.4800, 0.2405570
268.9621, 2.7231000E-02
269.4442, 5.3964000E-02
269.9263, 3.1760000E-03
270.4084, 0.1290140
270.8906, 0.3559800
271.3727, 0.6395570
271.8548, 0.8649410
272.3369, 0.8584310
272.8190, 0.4987480
273.3011, 0.3210310
273.7833, 0.4910740
274.2654, 0.6678940
274.7475, 0.6549310
275.2296, 0.4522220
275.7117, 0.1721920
276.1938, 3.7436999E-02
276.6760, 1.4925000E-02
277.1581, 9.1977999E-02
277.6402, 1.5157000E-02
278.1223, 5.7622001E-02
278.6044, 2.8720999E-02
279.0865, 0.2559160
279.5686, 0.4285560
280.0508, 0.4876420
280.5329, 0.4332310
281.0150, 0.3975330
281.4971, 0.3749960
281.9792, 0.3614450
282.4613, 0.3763480
282.9435, 0.4084640
283.4256, 0.4162370
283.9077, 0.3706290
284.3898, 0.2819390
284.8719, 0.2240010
285.3540, 0.2267500
285.8362, 0.2282470
286.3183, 0.2167900
286.8004, 0.1924960
287.2825, 0.1344980
287.7646, 1.9571999E-02
288.2467, 1.6960001E-02
288.7289, 2.4602000E-02
289.2110, 0.6107920
289.6931, 0.9739490
290.1752, 0.7097110
290.6573, 0.1627370
291.1394, 4.3056998E-02
291.6216, 1.4291000E-02
292.1037, 0.1296160
292.5858, 0.2382070
293.0679, 0.1194290
293.5500, 3.7969999E-02
294.0321, 3.3493999E-02
294.5143, 7.2687998E-02
294.9964, 0.1385580
295.4785, 0.2260240
295.9606, 0.2862420
296.4427, 0.2272200
296.9248, 4.5364000E-02
297.4070, 1.8974001E-02
297.8891, 0.2098930
298.3712, 0.6107930
298.8533, 0.7021820
299.3354, 0.4440350
299.8175, 0.1292660
300.2997, 6.3272998E-02
300.7818, 0.3000950
301.2639, 0.4433500
301.7460, 0.3913000
302.2281, 0.3424640
302.7102, 0.4552620
303.1924, 0.6970820
303.6745, 0.9048310
304.1566, 0.9723830
304.6387, 0.8999250
305.1208, 0.8110360
305.6029, 0.6338750
306.0851, 0.5092300
306.5672, 0.5718570
307.0493, 0.7598420
307.5314, 0.8590610
308.0135, 0.7229690
308.4956, 0.4264640
308.9778, 0.3042010
309.4599, 0.4886440
309.9420, 0.6485500
310.4241, 0.6859140
310.9062, 0.6248420
311.3883, 0.4837310
311.8705, 0.2565540
312.3526, 1.9664999E-02
312.8347, 4.1793000E-02
313.3168, 0.1637780
313.7989, 0.2981310
314.2810, 0.2252810
314.7632, 6.8251997E-02
315.2453, 4.3460000E-03
315.7274, 5.5489998E-02
316.2095, 0.1700040
316.6916, 0.2346410
317.1737, 0.2349150
317.6559, 0.2492790
318.1380, 0.2816630
318.6201, 0.3320490
319.1022, 0.4255350
319.5843, 0.5592290
320.0664, 0.6583380
320.5485, 0.6557450
321.0306, 0.5402680
321.5128, 0.3696340
321.9949, 2.1712000E-02
322.4770, 1.1892000E-02
322.9591, 5.2949999E-02
323.4412, 0.1047990
323.9233, 0.4004000
324.4055, 0.3524020
324.8876, 1.7232001E-02
325.3697, 3.2542001E-02
325.8518, 3.0430000E-02
326.3339, 2.9971000E-02
326.8160, 3.3450000E-02
327.2982, 3.8079999E-03
327.7803, 2.5633000E-02
328.2624, 4.9685001E-02
328.7445, 8.6815000E-02
329.2266, 0.1993170
329.7087, 0.4628640
330.1909, 0.6561440
330.6730, 0.7327240
331.1551, 0.7179140
331.6372, 0.6144620
332.1193, 0.4213950
332.6014, 0.2201280
333.0836, 0.1327380
333.5657, 0.2096470
334.0478, 0.2548940
334.5299, 0.2217470
335.0120, 0.1780500
335.4941, 0.2205390
335.9763, 0.3427430
336.4584, 0.4349810
336.9405, 0.3699730
337.4226, 0.1274330
337.9047, 3.9338000E-02
338.3868, 2.2783000E-02
338.8690, 2.6338000E-02
339.3511, 4.7687002E-02
339.8332, 0.1825050
340.3153, 0.3277670
340.7974, 0.2505220
341.2795, 6.1949999E-03
341.7617, 4.0461000E-02
342.2438, 0.2996940
342.7259, 0.5829920
343.2080, 0.7127760
343.6901, 0.7242060
344.1722, 0.6489930
344.6544, 0.4977670
345.1365, 0.3188630
345.6186, 0.2151170
346.1007, 0.2800490
346.5828, 0.2757080
347.0649, 0.1518210
347.5471, 1.4484000E-02
348.0292, 3.9080000E-03
348.5113, 5.0677001E-02
348.9934, 0.1242880
349.4755, 6.4446002E-02
349.9576, 0.2843990
350.4398, 0.6175770
350.9219, 0.5774270
351.4040, 0.4530420
351.8861, 0.3446510
352.3682, 0.2790700
352.8503, 0.2790790
353.3325, 0.3704200
353.8146, 0.5444980
354.2967, 0.6723300
354.7788, 0.7181220
355.2609, 0.7523730
355.7430, 0.8033070
356.2252, 0.8509270
356.7073, 0.8914390
357.1894, 0.9241290
357.6715, 0.9106710
358.1536, 0.7448950
358.6357, 0.2416610
359.1179, 5.7060001E-03
359.5999, 4.8044000E-02
360.0821, 0.1719600
360.5642, 3.2659002E-02
361.0463, 0.1834500
361.5284, 0.7223140
362.0105, 0.9093290
362.4926, 0.6346760
362.9748, 0.4336890
363.4569, 0.2966380
363.9390, 0.2242020
364.4211, 0.2476550
364.9032, 0.3389720
365.3853, 0.4304500
365.8675, 0.4656460
366.3496, 0.4550620
366.8317, 0.5117760
367.3138, 0.8219740
367.7959, 0.9665010
368.2780, 0.6953540
368.7602, 0.2602930
369.2423, 4.8277002E-02
369.7244, 3.4435000E-02
370.2065, 1.0019000E-02
370.6886, 7.8074999E-02
371.1707, 0.5685350
371.6529, 0.8920880
372.1350, 0.8809190
372.6171, 0.7697600
373.0992, 0.7040190
373.5813, 0.7068900
374.0634, 0.7127800
374.5456, 0.6384320
375.0277, 0.4774690
375.5098, 0.3738380
375.9919, 0.3656060
376.4740, 0.3860950
376.9561, 0.3644720
377.4383, 0.3391730
377.9204, 0.4047010
378.4025, 0.6926320
378.8846, 1.064829
379.3667, 1.080647
379.8488, 0.5638540
380.3310, 0.1290590
380.8131, 0.1711940
381.2952, 0.3869700
381.7773, 0.4121540
382.2594, 0.1169390
382.7415, 2.6221000E-02
383.2237, 7.0300000E-04
383.7058, 0.3057240
384.1879, 0.6190720
384.6700, 0.6319070
385.1521, 0.5227640
385.6342, 0.4447880
386.1164, 0.3989170
386.5985, 0.3695630
387.0806, 0.3469410
387.5627, 0.3411190
388.0448, 0.3692580
388.5269, 0.4470790
389.0091, 0.5115380
389.4912, 0.5028550
389.9733, 0.4451720
390.4554, 0.3939200
390.9375, 0.3731660
391.4196, 0.3512940
391.9018, 0.2571640
392.3839, 0.1074010
392.8660, 7.4607998E-02
393.3481, 0.2746350
393.8302, 0.5951110
394.3123, 0.8371000
394.7945, 1.019297
395.2766, 1.098423
395.7587, 0.9948790
396.2408, 0.7881380
396.7229, 0.6013590
397.2050, 0.4632970
397.6872, 0.3887910
398.1693, 0.4084180
398.6514, 0.5323640
399.1335, 0.6381600
399.6156, 0.7431280
400.0977, 0.8264890
400.5798, 0.8853830
401.0620, 0.9111520
401.5441, 0.8503430
402.0262, 0.6516110
402.5083, 0.3588650
402.9904, 0.1942750
403.4725, 0.2147850
403.9547, 0.2745750
404.4368, 0.3223990
404.9189, 0.3297890
405.4010, 0.4683420
405.8831, 0.5783780
406.3652, 0.6621530
406.8474, 0.6636560
407.3295, 0.7724820
407.8116, 0.4398910
408.2937, 0.4077170
408.7758, 0.4629760
409.2579, 0.4917380
409.7401, 0.4884880
410.2222, 0.4805360
410.7043, 0.5114000
411.1864, 0.5721190
411.6685, 0.5826510
412.1506, 0.4372780
412.6328, 0.3743840
413.1149, 0.5035100
413.5970, 0.6979490
414.0791, 0.8364790
414.5612, 0.8743030
415.0433, 0.8140500
415.5255, 0.6127350
416.0076, 0.1699390
416.4897, 5.4977000E-02
416.9718, 0.1521620
417.4539, 0.3871490
417.9360, 0.5015710
418.4182, 0.5072790
418.9003, 0.4385790
419.3824, 0.2515290
419.8645, 3.3420001E-03
420.3466, 3.2662001E-02
420.8287, 0.1161070
421.3109, 0.2922620
421.7930, 0.3486780
422.2751, 0.3333270
422.7572, 0.2974860
423.2393, 0.2584150
423.7214, 0.1863000
424.2036, 3.6226999E-02
424.6857, 9.1291003E-02
425.1678, 0.1683020
425.6499, 4.6919999E-03
426.1320, 0.5656800
426.6141, 0.7645710
427.0963, 0.6353790
427.5784, 0.4743800
428.0605, 0.4154240
428.5426, 0.4114020
429.0247, 0.3694490
429.5068, 0.2795780
429.9890, 0.2336470
430.4711, 0.3054910
430.9532, 0.4647070
431.4353, 0.6065070
431.9174, 0.8025790
432.3995, 0.8742450
432.8817, 0.5801150
433.3638, 0.1113320
433.8459, 3.0468000E-02
434.3280, 0.1487450
434.8101, 0.5322560
435.2922, 0.6651470
435.7744, 0.4713580
436.2565, 0.3148930
436.7386, 0.2178440
437.2207, 0.1531370
437.7028, 0.1012470
438.1849, 6.5564997E-02
438.6671, 7.6073997E-02
439.1492, 0.1632100
439.6313, 0.3017140
440.1134, 0.3398980
440.5955, 0.1174580
441.0776, 1.5036000E-02
441.5598, 3.3312999E-02
442.0418, 0.1575230
442.5240, 0.2850440
443.0061, 0.3843010
443.4882, 0.4154950
443.9703, 0.3005060
444.4524, 2.1784000E-02
444.9345, 2.7322000E-02
445.4167, 1.1847000E-02
445.8988, 2.2008000E-02
446.3809, 9.6999999E-04
446.8630, 1.3809000E-02
447.3451, 6.7143999E-02
447.8272, 0.3414890
448.3094, 0.6850500
448.7915, 0.7576170
449.2736, 0.4547610
449.7557, 0.1786020
450.2378, 3.6329001E-02
450.7199, 3.4260001E-02
451.2021, 5.4995999E-02
451.6842, 0.2308890
452.1663, 0.4932370
452.6484, 0.5244170
453.1305, 0.3793570
453.6126, 0.3160260
454.0948, 0.3980360
454.5769, 0.4475850
455.0590, 0.2520410
455.5411, 4.8408002E-02
456.0232, 3.7999999E-02
456.5053, 4.4950000E-03
456.9875, 0.2083800
457.4696, 0.1560810
457.9517, 1.2117000E-02
458.4338, 4.3234002E-02
458.9159, 1.8035000E-02
459.3980, 8.4859999E-03
459.8802, 3.8677000E-02
460.3623, 4.6359999E-03
460.8444, 4.8246000E-02
461.3265, 0.1616110
461.8086, 0.2780050
462.2907, 0.3511330
462.7729, 0.3775410
463.2550, 0.3538410
463.7371, 0.2558860
464.2192, 0.1188120
464.7013, 0.1482280
465.1834, 0.6881380
465.6656, 0.9463130
466.1477, 0.5054130
466.6298, 5.7819998E-03
467.1119, 2.4595000E-02
467.5940, 3.6896002E-02
468.0761, 0.5326560
468.5583, 0.6866220
469.0404, 0.4284930
469.5225, 0.2899070
470.0046, 0.3964570
470.4867, 0.4942780
470.9688, 0.5006570
471.4510, 0.4481020
471.9331, 0.4111070
472.4152, 0.4317430
472.8973, 0.4401410
473.3794, 0.2504530
473.8615, 6.4099999E-03
474.3437, 0.1754930
474.8258, 4.0284999E-02
475.3079, 6.5390002E-03
475.7900, 0.1987610
476.2721, 0.5073100
476.7542, 0.6578020
477.2364, 0.3947990
477.7185, 5.6476999E-02
478.2006, 4.1453000E-02
478.6827, 0.1071000
479.1648, 0.4173040
479.6469, 0.5901770
480.1291, 0.6610250
480.6112, 0.6690640
481.0933, 0.6053080
481.5754, 0.5264060
482.0575, 0.4247170
482.5396, 0.3187360
483.0217, 0.2668160
483.5038, 0.3037310
483.9860, 0.4029980
484.4681, 0.5953770
484.9502, 0.8825330
485.4323, 0.9819020
485.9144, 0.7213810
486.3965, 0.4682440
486.8787, 0.3691940
487.3608, 0.3880120
487.8429, 0.4691790
488.3250, 0.5901260
488.8071, 0.7045980
489.2892, 0.7231180
489.7714, 0.5847810
490.2535, 0.4995450
490.7356, 0.4855580
491.2177, 0.4983370
491.6998, 0.5613810
492.1819, 0.6464260
492.6641, 0.6170430
493.1462, 0.3726570
493.6283, 3.4106001E-02
494.1104, 1.3457000E-02
494.5925, 0.3908310
495.0746, 0.6486770
495.5568, 0.3586540
496.0389, 5.4935999E-02
496.5210, 0.2136230
497.0031, 0.8303440
497.4852, 1.355490
497.9673, 1.340395
498.4495, 0.9534930
498.9316, 0.6157190
499.4137, 0.3248470
499.8958, 0.1750420
500.3779, 0.2922460
500.8600, 0.5693570
501.3422, 0.7835420
501.8243, 0.9240720
502.3064, 0.9997260
502.7885, 0.9755450
503.2706, 0.9096980
503.7527, 0.8936170
504.2349, 0.9400900
504.7170, 0.9650530
505.1991, 0.9111960
505.6812, 0.7718410
506.1633, 0.6296270
506.6454, 0.3978450
507.1276, 0.2583580
507.6097, 0.3353910
508.0918, 0.5357330
508.5739, 0.7195070
509.0560, 0.8370220
509.5381, 0.9066110
510.0203, 0.9416080
510.5024, 0.9343570
510.9845, 0.9327020
511.4666, 0.9122120
511.9487, 0.9217620
512.4308, 1.072062
512.9130, 1.255907
513.3951, 1.232086
513.8772, 0.8408980
514.3593, 0.3304260
514.8414, 0.1830150
515.3235, 0.4540710
515.8057, 0.6943600
516.2878, 0.7967100
516.7699, 0.8474610
517.2520, 0.9372550
517.7341, 1.051619
518.2162, 1.094851
518.6984, 0.9557190
519.1805, 0.7607900
519.6626, 0.7024250
520.1447, 0.7701830
520.6268, 0.7685590
521.1089, 0.5723380
521.5911, 0.2917570
522.0732, 0.2245100
522.5553, 0.4524920
523.0374, 0.6170470
523.5195, 0.5874920
524.0016, 0.5197150
524.4838, 0.5489290
524.9659, 0.6745760
525.4480, 0.8459020
525.9301, 1.020620
526.4122, 1.173769
526.8943, 1.170387
527.3765, 0.8625940
527.8586, 0.6043610
528.3407, 0.3960240
528.8228, 0.2654460
529.3049, 0.3080680
529.7870, 0.4834020
530.2692, 0.5982590
530.7513, 0.4192670
531.2334, 2.3577999E-02
531.7155, 1.8925000E-02
532.1976, 0.1303170
532.6797, 0.4145220
533.1619, 0.7375890
533.6440, 0.9693500
534.1261, 0.9040740
534.6082, 0.4705660
535.0903, 7.4298002E-02
535.5724, 6.4433001E-02
536.0546, 0.2579620
536.5367, 0.2027980
537.0188, 2.6972000E-02
537.5009, 0.1228560
537.9830, 2.0225000E-02
538.4651, 0.3927990
538.9473, 0.7586850
539.4294, 0.7391980
539.9115, 0.6371910
540.3936, 0.4673580
540.8757, 0.2936950
541.3578, 0.2005150
541.8400, 0.2010300
542.3221, 0.2458600
542.8042, 0.2914630
543.2863, 0.3384730
543.7684, 0.3465460
544.2505, 0.2482490
544.7326, 0.1926840
545.2147, 0.2430430
545.6968, 0.3325070
546.1790, 0.3891470
546.6611, 0.3946160
547.1432, 0.3772530
547.6253, 0.3876520
548.1074, 0.4161750
548.5895, 0.3165510
549.0717, 2.1931000E-02
549.5538, 4.4243000E-02
550.0359, 5.5847999E-02
550.5180, 0.3203050
551.0001, 0.5422510
551.4822, 0.4877710
551.9644, 0.3873620
552.4465, 0.4230890
552.9286, 0.5100920
553.4107, 0.4205270
553.8928, 0.1047600
554.3749, 1.9692000E-02
554.8571, 2.5644001E-02
555.3392, 0.4469810
555.8213, 0.6962190
556.3034, 0.5856120
556.7855, 0.4541090
557.2676, 0.3672450
557.7498, 0.3167810
558.2319, 0.3130670
558.7140, 0.3466780
559.1961, 0.3526880
559.6782, 0.2447340
560.1603, 2.1513000E-02
560.6425, 2.1503000E-02
561.1246, 4.2233001E-02
561.6067, 3.0117000E-02
562.0888, 2.0330001E-02
562.5709, 0.4118640
563.0530, 0.5973310
563.5352, 0.5047870
564.0173, 0.3112990
564.4994, 0.1317130
564.9815, 2.9084999E-02
565.4636, 4.7258001E-02
565.9457, 4.5600001E-02
566.4279, 2.2110001E-03
566.9100, 3.8316000E-02
567.3921, 2.8925000E-02
567.8742, 4.2711001E-02
568.3563, 9.8039001E-02
568.8384, 0.1494460
569.3206, 0.2728580
569.8027, 0.3764830
570.2848, 0.2853590
570.7669, 9.4020003E-03
571.2490, 1.0566000E-02
571.7311, 8.3699999E-03
572.2133, 0.2514940
572.6954, 0.4675550
573.1775, 0.4196410
573.6596, 0.3871770
574.1417, 0.4704360
574.6238, 0.5498800
575.1060, 0.4690190
575.5881, 0.2308870
576.0702, 3.8463999E-02
576.5523, 0.1081870
577.0344, 0.3462370
577.5165, 0.3651700
577.9987, 9.8191001E-02
578.4808, 1.2660000E-02
578.9629, 1.8184001E-02
579.4450, 0.1950130
579.9271, 0.3788890
580.4092, 0.5359530
580.8914, 0.6270300
581.3735, 0.6099830
581.8556, 0.5364840
582.3377, 0.4427550
582.8198, 0.3415640
583.3019, 0.2718790
583.7841, 0.2596040
584.2662, 0.2858020
584.7483, 0.3013660
585.2304, 0.3561120
585.7125, 0.3112250
586.1946, 4.0378999E-02
586.6768, 1.8154001E-02
587.1589, 3.2455001E-02
587.6410, 2.3017000E-02
588.1231, 2.7294001E-02
588.6052, 0.1130950
589.0873, 0.3432780
589.5695, 0.4294960
590.0516, 0.3577380
590.5337, 0.3190070
591.0158, 0.3569930
591.4979, 0.4326940
591.9800, 0.5293830
592.4622, 0.6378540
592.9443, 0.7188190
593.4264, 0.7794010
593.9085, 0.7908240
594.3906, 0.6883840
594.8727, 0.5091810
595.3549, 0.3782720
595.8370, 0.3609750
596.3191, 0.3898080
596.8012, 0.3775680
597.2833, 0.3185560
597.7654, 0.2566960
598.2476, 0.1550290
598.7297, 9.3129002E-02
599.2118, 0.1032730
599.6939, 0.1638500
600.1760, 0.2735140
600.6581, 0.4220840
601.1403, 0.5313450
601.6224, 0.4763570
602.1045, 0.2675680
602.5866, 0.1593190
603.0687, 0.1761110
603.5508, 0.2411470
604.0330, 0.3553310
604.5151, 0.4809140
604.9972, 0.5603510
605.4793, 0.5755600
605.9614, 0.6056710
606.4435, 0.7722670
606.9257, 0.9364350
607.4078, 0.8245260
607.8899, 0.4693190
608.3720, 0.2133520
608.8541, 0.3056210
609.3362, 0.6100190
609.8184, 0.7267580
610.3005, 0.4598180
610.7826, 0.3253450
611.2647, 0.4358490
611.7468, 0.5752380
612.2289, 0.5926330
612.7111, 0.5232170
613.1932, 0.4711690
613.6753, 0.5000930
614.1574, 0.5618540
614.6395, 0.5623150
615.1216, 0.4965520
615.6038, 0.4375380
616.0859, 0.4148820
616.5680, 0.3781550
617.0501, 0.2535450
617.5322, 7.4171998E-02
618.0143, 4.3315001E-02
618.4965, 4.7499998E-03
618.9786, 2.5994999E-02
619.4607, 0.1332580
619.9428, 0.4228430
620.4249, 0.5807010
620.9070, 0.5595540
621.3892, 0.4434740
621.8713, 0.2962830
622.3534, 0.1198370
622.8355, 8.9334004E-02
623.3176, 0.4512990
623.7997, 0.6325030
624.2819, 0.3616360
624.7640, 5.7520000E-03
625.2461, 5.3481001E-02
625.7282, 0.1608740
626.2103, 0.4177810
626.6924, 0.4938570
627.1745, 0.4256750
627.6566, 0.3083980
628.1387, 0.1524610
628.6208, 2.8309001E-02
629.1030, 4.8507001E-02
629.5851, 1.5957000E-02
630.0672, 1.4676000E-02
630.5493, 4.4424001E-02
631.0314, 4.9173001E-02
631.5135, 3.5389999E-03
631.9957, 2.5661999E-02
632.4778, 8.4189996E-03
632.9599, 3.2979999E-02
633.4420, 0.2597510
633.9241, 0.3465370
634.4063, 0.3726330
634.8884, 0.4733960
635.3705, 0.6748230
635.8526, 0.7833160
636.3347, 0.7410540
636.8168, 0.6783980
637.2990, 0.6413460
637.7811, 0.6053430
638.2632, 0.5202930
638.7453, 0.3706930
639.2274, 0.2829230
639.7095, 0.4320020
640.1917, 0.6686410
640.6738, 0.6960910
641.1559, 0.5037780
641.6380, 0.3068980
642.1201, 0.2079700
642.6022, 0.1990280
643.0844, 0.2709760
643.5665, 0.5045770
644.0486, 0.6483860
644.5307, 0.5489080
645.0128, 0.4976870
645.4949, 0.7789400
645.9771, 1.203959
646.4592, 1.376335
646.9413, 1.104678
647.4234, 0.6870080
647.9055, 0.5928240
648.3876, 0.8123840
648.8698, 0.8184010
649.3519, 0.4553590
649.8340, 0.1396510
650.3161, 0.1732480
650.7982, 0.4208580
651.2803, 0.6304150
651.7625, 0.8161470
652.2446, 0.8827430
652.7267, 0.7102810
653.2088, 0.4510610
653.6909, 0.2096740
654.1730, 3.3906002E-02
654.6552, 8.1799999E-02
655.1373, 0.4461330
655.6194, 0.9409460
656.1015, 1.089682
656.5836, 0.6985220
657.0657, 0.4623550
657.5479, 0.5567930
658.0300, 0.6807220
658.5121, 0.7425610
658.9942, 0.7344230
659.4763, 0.6394780
659.9584, 0.4242220
660.4406, 0.2144770
660.9227, 0.1060310
661.4048, 9.2331998E-02
661.8869, 0.2013360
662.3690, 0.4403160
662.8511, 0.6011950
663.3333, 0.5050870
663.8154, 0.2347800
664.2975, 0.1386810
664.7796, 0.5193480
665.2617, 0.6456310
665.7438, 0.1888550
666.2260, 1.8309999E-02
666.7081, 1.2999000E-02
667.1902, 0.1639210
667.6723, 0.5134350
668.1544, 0.6204020
668.6365, 0.5962620
669.1187, 0.6308830
669.6008, 0.7173160
670.0829, 0.6708940
670.5650, 0.4161970
671.0471, 0.1741450
671.5292, 0.1154570
672.0114, 0.1981290
672.4935, 0.2291540
672.9756, 0.1540470
673.4577, 0.1330170
673.9398, 0.2576500
674.4219, 0.3852530
674.9041, 0.3448670
675.3862, 0.1779330
675.8683, 8.7410003E-02
676.3504, 0.2121540
676.8325, 0.4515850
677.3146, 0.5671080
677.7968, 0.5318230
678.2789, 0.4717290
678.7610, 0.3393620
679.2431, 0.2621890
679.7252, 0.3665650
680.2073, 0.5670390
680.6895, 0.6905230
681.1716, 0.6923930
681.6537, 0.6383650
682.1358, 0.5798960
682.6179, 0.4818560
683.1000, 0.2127770
683.5822, 3.8355000E-02
684.0643, 8.3114997E-02
684.5464, 4.6431001E-02
685.0285, 0.1007780
685.5106, 0.2114070
685.9927, 9.5790001E-03
686.4749, 5.2012999E-02
686.9570, 7.0059998E-03
687.4391, 9.9312000E-02
687.9212, 0.3078870
688.4033, 0.4851470
688.8854, 0.6058050
689.3676, 0.6657190
689.8497, 0.6121490
690.3318, 0.2950130
690.8139, 1.2769999E-03
691.2960, 4.3845002E-02
691.7781, 6.7070001E-03
692.2603, 5.0416000E-02
692.7424, 0.2001810
693.2245, 0.4496820
693.7066, 0.5321680
694.1887, 0.3174740
694.6708, 0.2210500
695.1530, 0.3413350
695.6351, 0.4695060
696.1172, 0.5089020
696.5993, 0.4880780
697.0814, 0.4708070
697.5635, 0.4888490
698.0457, 0.4869890
698.5278, 0.3585670
699.0099, 0.1664140
699.4920, 0.1475760
699.9741, 0.3322100
700.4562, 0.4808760
700.9384, 0.4716910
701.4205, 0.3522630
701.9026, 0.2048170
702.3847, 3.2708000E-02
702.8668, 9.2789996E-03
703.3489, 0.1185430
703.8311, 0.3316010
704.3132, 0.3032100
704.7953, 0.1505840
705.2774, 7.8160003E-02
705.7595, 0.1478320
706.2416, 0.2480650
706.7238, 0.2288470
707.2059, 0.1345820
707.6880, 0.1968800
708.1701, 0.4475800
708.6522, 0.6268560
709.1343, 0.6030670
709.6164, 0.4812030
710.0985, 0.4445120
710.5806, 0.5243680
711.0627, 0.4588660
711.5449, 3.7370001E-03
712.0270, 5.8882002E-02
712.5091, 1.4183000E-02
712.9912, 1.2630000E-03
713.4733, 0.1917100
713.9554, 0.2182570
714.4376, 0.2082960
714.9197, 0.3141650
715.4018, 0.4777560
715.8839, 0.4380860
716.3660, 0.1452490
716.8481, 4.0778998E-02
717.3303, 0.3543340
717.8124, 0.7713330
718.2945, 0.9306830
718.7766, 0.8542640
719.2587, 0.7828170
719.7408, 0.6824170
720.2230, 0.6536250
720.7051, 0.8476580
721.1872, 1.071306
721.6693, 1.053249
722.1514, 0.7967690
722.6335, 0.5614800
723.1157, 0.5618480
723.5978, 0.6888400
724.0799, 0.6040250
724.5620, 0.2908360
725.0441, 0.1161570
725.5262, 0.1855510
726.0084, 0.3081690
726.4905, 0.3490540
726.9726, 0.3152920
727.4547, 0.2268480
727.9368, 4.3393001E-02
728.4189, 1.5574000E-02
728.9011, 0.2097650
729.3832, 0.6216970
729.8653, 0.5191060
730.3474, 1.6712001E-02
730.8295, 0.1194000
731.3116, 9.2740998E-02
731.7938, 2.4800999E-02
732.2759, 0.2277210
732.7580, 0.5436240
733.2401, 0.7075790
733.7222, 0.6622320
734.2043, 0.5543860
734.6865, 0.4414930
735.1686, 0.3302690
735.6507, 0.2272270
736.1328, 0.1215930
736.6149, 7.5609997E-02
737.0970, 7.8730002E-02
737.5792, 0.1616410
738.0613, 0.4341610
738.5434, 0.7849900
739.0255, 1.002371
739.5076, 1.014554
739.9897, 0.9036300
740.4719, 0.7340010
740.9540, 0.5194480
741.4361, 0.3419480
741.9182, 0.2059450
742.4003, 0.1339700
742.8824, 0.1552680
743.3646, 0.1933830
743.8467, 0.1322370
744.3288, 3.4766998E-02
744.8109, 4.0716998E-02
745.2930, 0.2452450
745.7751, 0.5444590
746.2573, 0.8044050
746.7394, 0.9762800
747.2215, 0.9885210
747.7036, 0.8475870
748.1857, 0.6347660
748.6678, 0.3909920
749.1500, 0.1301880
749.6321, 2.9789001E-02
750.1142, 0.1364850
750.5963, 0.1657190
751.0784, 5.8400002E-04
751.5605, 0.2663270
752.0427, 0.3978630
752.5248, 0.3312550
753.0069, 0.2217680
753.4890, 2.8415000E-02
753.9711, 1.5962999E-02
754.4532, 6.8248004E-02
754.9354, 0.3461740
755.4175, 0.3994040
755.8996, 0.2799990
756.3817, 0.1339050
756.8638, 1.6015001E-02
757.3459, 2.3086000E-02
757.8281, 0.1429300
758.3102, 0.4418020
758.7923, 0.5814170
759.2744, 0.5384330
759.7565, 0.4551240
760.2386, 0.3861970
760.7208, 0.3310930
761.2029, 0.2993920
761.6850, 0.2787810
762.1671, 0.3038180
762.6492, 0.4767010
763.1313, 0.5694190
763.6135, 0.4338510
764.0956, 0.2274380
764.5777, 0.1271840
765.0598, 0.1478340
765.5419, 0.1931420
766.0240, 0.1976680
766.5062, 0.1917010
766.9883, 0.2199400
767.4704, 0.2761520
767.9525, 0.3424700
768.4346, 0.4161090
768.9167, 0.4633150
769.3989, 0.4443820
769.8810, 0.3569940
770.3631, 0.2950400
770.8452, 0.3134170
771.3273, 0.2678330
771.8094, 5.2152000E-02
772.2916, 4.2270001E-02
772.7737, 4.3690000E-02
773.2558, 3.6024000E-02
773.7379, 1.4420000E-03
774.2200, 1.2838000E-02
774.7021, 3.1835001E-02
775.1843, 1.9471001E-02
775.6664, 7.5257003E-02
776.1485, 0.3960030
776.6306, 0.8166830
777.1127, 0.9833560
777.5948, 0.7326550
778.0770, 0.3480460
778.5591, 0.2767470
779.0412, 0.5402520
779.5233, 0.6405790
780.0054, 0.4873430
780.4875, 0.3616470
780.9697, 0.4001610
781.4518, 0.4711540
781.9339, 0.4357440
782.4160, 0.3020420
782.8981, 0.1912570
783.3802, 0.1174120
783.8624, 9.0461999E-02
784.3445, 0.1737740
784.8266, 0.2747160
785.3087, 0.2254960
785.7908, 4.7389001E-02
786.2729, 2.9999999E-02
786.7551, 0.1778320
787.2372, 0.4900330
787.7193, 0.5201470
788.2014, 0.2722560
788.6835, 0.1146080
789.1656, 0.1319470
789.6478, 0.1641240
790.1299, 5.1351000E-02
790.6120, 9.2759999E-03
791.0941, 7.7547997E-02
791.5762, 0.7831690
792.0583, 1.110745
792.5404, 0.7278730
793.0225, 0.2670840
793.5046, 2.6790000E-02
793.9868, 4.6324000E-02
794.4689, 4.9888000E-02
794.9510, 1.5210001E-03
795.4331, 0.1315500
795.9152, 0.4059360
796.3973, 0.6307420
796.8795, 0.5905850
797.3616, 0.3438000
797.8437, 0.1932670
798.3258, 0.2169750
798.8079, 0.2423540
799.2900, 8.5946001E-02
799.7722, 4.9219001E-02
800.2543, 1.9313000E-02
800.7364, 0.4990090
801.2185, 0.9410110
801.7006, 1.052864
802.1827, 1.059054
802.6649, 1.056613
803.1470, 1.028404
803.6291, 0.9077150
804.1112, 0.6628550
804.5933, 0.4335610
805.0754, 0.2626990
805.5576, 0.1639020
806.0397, 0.2139480
806.5218, 0.3392990
807.0039, 0.3355370
807.4860, 0.1390680
807.9681, 5.4859001E-02
808.4503, 3.0870000E-03
808.9324, 0.2517070
809.4145, 0.4067320
809.8966, 0.4440780
810.3787, 0.4648970
810.8608, 0.4832730
811.3430, 0.5100610
811.8251, 0.5998810
812.3072, 0.7298140
812.7893, 0.6992080
813.2714, 0.2816210
813.7535, 4.3543998E-02
814.2357, 0.2037970
814.7178, 0.4403790
815.1999, 0.5049250
815.6820, 0.4800480
816.1641, 0.6114950
816.6462, 0.9905140
817.1284, 1.278988
817.6105, 1.030203
818.0926, 0.5343630
818.5747, 0.3794380
819.0568, 0.5347040
819.5389, 0.7034300
820.0211, 0.7883420
820.5032, 0.7461290
820.9853, 0.4814630
821.4674, 2.3004999E-02
821.9495, 4.8668001E-02
822.4316, 0.5438180
822.9138, 0.9157100
823.3959, 0.7775540
823.8780, 0.5086220
824.3601, 0.3213630
824.8422, 0.2022090
825.3243, 0.1061570
825.8065, 1.6481999E-02
826.2886, 2.6487000E-02
826.7707, 1.1686000E-02
827.2528, 8.6879000E-02
827.7349, 0.1815840
828.2170, 0.2770730
828.6992, 0.3563020
829.1813, 0.4097800
829.6634, 0.3974570
830.1455, 0.2084050
830.6276, 5.6630999E-02
831.1097, 8.3050001E-03
831.5919, 2.0750000E-03
832.0740, 0.2622330
832.5561, 0.6638760
833.0382, 0.9586350
833.5203, 0.8856290
834.0024, 0.5008380
834.4846, 0.2261260
834.9667, 4.8912998E-02
835.4488, 1.1786000E-02
835.9309, 0.2607760
836.4130, 0.4925980
836.8951, 0.5349000
837.3773, 0.4615720
837.8594, 0.3960410
838.3415, 0.3496700
838.8236, 0.3423430
839.3057, 0.3781140
839.7878, 0.4666570
840.2700, 0.7107080
840.7521, 0.9970240
841.2342, 1.038344
841.7163, 0.7663400
842.1984, 0.4895760
842.6805, 0.5295230
843.1627, 0.7604790
843.6448, 0.7378680
844.1269, 0.4300000
844.6090, 0.3351580
845.0911, 0.5995900
845.5732, 0.8861970
846.0554, 0.9770260
846.5375, 0.9169060
847.0196, 0.8208310
847.5017, 0.6506690
847.9838, 0.5334260
848.4659, 0.5351980
848.9481, 0.5103180
849.4302, 0.3137720
849.9123, 0.1027660
850.3944, 9.2978001E-02
850.8765, 0.2958930
851.3586, 0.5012500
851.8408, 0.5539180
852.3229, 0.5884860
852.8050, 0.7697640
853.2871, 0.9859720
853.7692, 0.9984350
854.2513, 0.8138700
854.7335, 0.6709030
855.2156, 0.7286490
855.6977, 0.8514690
856.1798, 0.7310610
856.6619, 0.3815950
857.1440, 0.3116900
857.6262, 0.6084150
858.1083, 0.8104690
858.5904, 0.6527600
859.0725, 0.3914540
859.5546, 0.4132250
860.0367, 0.7554140
860.5189, 0.9408120
861.0010, 0.8566590
861.4831, 0.7750770
861.9652, 0.7375410
862.4473, 0.7179640
862.9294, 0.6987040
863.4116, 0.6820740
863.8937, 0.6680450
864.3758, 0.6449620
864.8579, 0.6498600
865.3400, 0.7508700
865.8221, 0.8528880
866.3043, 0.8438320
866.7864, 0.7533960
867.2685, 0.6612660
867.7506, 0.6030050
868.2327, 0.5662550
868.7148, 0.5351430
869.1970, 0.5179990
869.6791, 0.5737280
870.1612, 0.7021370
870.6433, 0.6844560
871.1254, 0.4265810
871.6075, 0.2579300
872.0897, 0.4801830
872.5718, 0.9401940
873.0539, 1.129491
873.5360, 0.8697070
874.0181, 0.7319680
874.5002, 0.8330580
874.9823, 0.9406410
875.4644, 1.043301
875.9465, 1.075590
876.4286, 0.9287700
876.9108, 0.6074360
877.3929, 0.3175540
877.8750, 7.0791997E-02
878.3571, 4.4566002E-02
878.8392, 4.9267001E-02
879.3214, 0.2493310
879.8035, 0.3917890
880.2856, 0.4656250
880.7677, 0.4693160
881.2498, 0.3918850
881.7319, 0.3384130
882.2141, 0.4885160
882.6962, 0.7553070
883.1783, 0.8817050
883.6604, 0.8623320
884.1425, 0.7320250
884.6246, 0.5011400
885.1068, 0.2638750
885.5889, 0.1366510
886.0710, 0.1164570
886.5531, 0.2130110
887.0352, 0.5338520
887.5173, 0.6474070
887.9995, 0.3869080
888.4816, 6.3827001E-02
888.9637, 2.0801000E-02
889.4458, 3.7808001E-02
889.9279, 1.5916999E-02
890.4100, 2.6768999E-02
890.8922, 0.1593510
891.3743, 0.4045100
891.8564, 0.5374950
892.3385, 0.4206860
892.8206, 0.2135630
893.3027, 0.1019520
893.7849, 9.0200000E-02
894.2670, 5.1158000E-02
894.7491, 2.6590999E-02
895.2312, 4.3427002E-02
895.7133, 3.9999999E-02
896.1954, 0.2618140
896.6776, 0.4516240
897.1597, 0.4798790
897.6418, 0.3033280
898.1239, 8.4579997E-03
898.6060, 0.1260130
899.0881, 2.8322000E-02
899.5703, 0.2370800
900.0524, 0.2757350
900.5345, 1.3005000E-02
901.0166, 0.1820820
901.4987, 0.1276040
901.9808, 3.8569000E-02
902.4630, 4.7568999E-02
902.9451, 1.4016000E-02
903.4272, 8.6180000E-03
903.9093, 0.1025370
904.3914, 0.1559940
904.8735, 9.9904001E-02
905.3557, 5.0459001E-02
905.8378, 3.2912001E-02
906.3199, 5.1716998E-02
906.8020, 0.1608130
907.2841, 0.3454930
907.7662, 0.3841080
908.2484, 3.1180000E-03
908.7305, 1.7914001E-02
909.2126, 9.6300000E-04
909.6947, 0.3706920
910.1768, 0.4936870
910.6589, 0.4034790
911.1411, 0.2698040
911.6232, 0.1542260
912.1053, 7.0712999E-02
912.5874, 4.9440999E-02
913.0695, 5.5833001E-02
913.5516, 4.3058999E-02
914.0338, 1.1336000E-02
914.5159, 2.9487001E-02
914.9980, 1.0454000E-02
915.4801, 1.9588999E-02
915.9622, 3.5135001E-02
916.4443, 0.1749860
916.9265, 0.3198150
917.4086, 0.3819340
917.8907, 0.3676060
918.3728, 0.2612860
918.8549, 0.1747430
919.3370, 0.1681320
919.8192, 0.1805230
920.3013, 0.1142580
920.7834, 3.5619002E-02
921.2655, 2.0569000E-02
921.7476, 0.2109520
922.2297, 0.1493640
922.7119, 0.1370720
923.1940, 0.1043430
923.6761, 5.2258998E-02
924.1582, 7.3250001E-03
924.6403, 0.4100040
925.1224, 0.5599420
925.6046, 0.5830500
926.0867, 0.3870370
926.5688, 0.1946900
927.0509, 0.1210390
927.5330, 0.1188400
928.0151, 0.1564380
928.4973, 0.2074070
928.9794, 0.2053880
929.4615, 9.9794999E-02
929.9436, 1.3584000E-02
930.4257, 1.0666000E-02
930.9078, 2.9842000E-02
931.3900, 1.4476000E-02
931.8721, 0.2137850
932.3542, 0.2836320
932.8363, 0.1630820
933.3184, 2.0829000E-02
933.8005, 3.4667999E-02
934.2827, 0.1387270
934.7648, 0.1327140
935.2469, 3.5822999E-02
935.7290, 7.1067996E-02
936.2111, 0.2797400
936.6932, 0.3948510
937.1754, 0.2271530
937.6575, 3.5587002E-02
938.1396, 1.2688000E-02
938.6217, 0.1873270
939.1038, 0.3372070
939.5859, 0.3588870
940.0681, 0.3273060
940.5502, 0.2246280
941.0323, 0.1148420
941.5144, 5.7350001E-03
941.9965, 1.1680000E-03
942.4786, 4.9407002E-02
942.9608, 0.4900210
943.4429, 0.7593440
943.9250, 0.7715040
944.4071, 0.7027070
944.8892, 0.5676840
945.3713, 0.4361220
945.8535, 0.3473510
946.3356, 0.3076260
946.8177, 0.3124080
947.2998, 0.3429040
947.7819, 0.4544680
948.2640, 0.8286180
948.7462, 1.167769
949.2283, 1.159848
949.7104, 0.9001350
950.1925, 0.5699460
950.6746, 0.2443820
951.1567, 9.8119996E-02
951.6389, 0.3960240
952.1210, 0.8131500
952.6031, 0.9221300
953.0852, 0.8332950
953.5673, 0.7767430
954.0494, 0.7872110
954.5316, 0.8463240
955.0137, 0.9483020
955.4958, 1.046702
955.9779, 1.049353
956.4600, 0.9733720
956.9421, 1.015833
957.4242, 1.172966
957.9063, 1.175382
958.3884, 0.9354720
958.8705, 0.6987540
959.3527, 0.6836640
959.8348, 0.8489670
960.3169, 1.070247
960.7990, 1.372462
961.2811, 1.618194
961.7632, 1.806384
962.2454, 1.852409
962.7275, 1.961703
963.2096, 2.060628
963.6917, 2.132095
964.1738, 2.120839
964.6559, 2.209415
965.1381, 2.257988
965.6202, 2.304888
966.1023, 2.407187
966.5844, 2.509955
967.0665, 2.503358
967.5486, 2.071518
968.0308, 2.188823
968.5129, 2.086573
968.9950, 1.974846
969.4771, 1.566877
969.9592, 1.261660
970.4413, 1.342496
970.9235, 1.484331
971.4056, 1.374741
971.8877, 1.127653
972.3698, 1.028382
972.8519, 1.144352
973.3340, 1.146265
973.8162, 1.133291
974.2983, 1.104204
974.7804, 0.9977970
975.2625, 0.9912290
975.7446, 0.9446360
976.2267, 0.8963970
976.7089, 0.9065810
977.1910, 0.8177740
977.6731, 0.8313410
978.1552, 0.8030960
978.6373, 0.7879270
979.1194, 0.6932360
979.6016, 0.7021800
980.0837, 0.6906720
980.5658, 0.6598000
981.0479, 0.5519690
981.5300, 0.5456400
982.0121, 0.4937800
982.4943, 0.4437230
982.9764, 0.4494040
983.4585, 0.3524110
983.9406, 0.3571810
984.4227, 9.5482998E-02
984.9048, 0.1593810
985.3870, 0.3242460
985.8691, 0.4209700
986.3512, 0.4432520
986.8333, 0.3039840
987.3154, 9.2630005E-03
987.7975, 2.4255000E-02
988.2797, 0.5188500
988.7618, 0.8579950
989.2439, 0.6055700
989.7260, 0.2162760
990.2081, 0.2636300
990.6902, 0.6773400
991.1724, 0.7594320
991.6545, 0.2398960
992.1366, 2.8441001E-02
992.6187, 0.3840640
993.1008, 0.7499200
993.5829, 0.9041480
994.0651, 0.9063760
994.5472, 0.8174110
995.0293, 0.6362930
995.5114, 0.4280840
995.9935, 0.1122900
996.4756, 3.6724001E-02
996.9578, 2.9227000E-02
997.4399, 1.7751001E-02
997.9220, 3.2655999E-02
998.4041, 0.2453170
998.8862, 0.1918770
999.3683, 2.3611000E-02
999.8505, 0.1555170
1000.333, 1.6705999E-02
1000.815, 4.6882000E-02
1001.297, 0.1698730
1001.779, 0.1989800
1002.261, 6.8210000E-03
1002.743, 5.0140999E-02
1003.225, 5.3670001E-03
1003.707, 0.4719490
1004.190, 0.8947190
1004.672, 0.5945600
1005.154, 0.2020000
1005.636, 7.8121997E-02
1006.118, 0.1369960
1006.600, 0.3968420
1007.082, 0.7181530
1007.564, 0.7354100
1008.046, 0.3107120
1008.529, 3.3831999E-02
1009.011, 1.8014001E-02
1009.493, 0.1026820
1009.975, 0.2132130
1010.457, 0.2667980
1010.939, 0.2944950
1011.421, 0.3022270
1011.903, 0.2839830
1012.385, 0.2363490
1012.868, 0.1785590
1013.350, 0.1283570
1013.832, 8.4233999E-02
1014.314, 2.8168000E-02
1014.796, 2.2669001E-02
1015.278, 4.8600002E-03
1015.760, 0.1069420
1016.242, 0.1565860
1016.725, 7.2379999E-02
1017.207, 1.0780000E-02
1017.689, 0.1640410
1018.171, 0.4954440
1018.653, 0.6289840
1019.135, 0.5714470
1019.617, 0.3286250
1020.099, 1.8902000E-02
1020.581, 9.9757999E-02
1021.064, 3.0029001E-02
1021.546, 0.2521940
1022.028, 0.3123100
1022.510, 9.6366003E-02
1022.992, 0.1823450
1023.474, 0.5817440
1023.956, 0.7606640
1024.438, 0.5685040
1024.921, 0.2822220
1025.403, 9.3317002E-02
1025.885, 4.2530000E-03
1026.367, 3.6299999E-03
1026.849, 0.1302100
1027.331, 0.1201620
1027.813, 2.9480001E-03
1028.295, 1.5225000E-02
1028.777, 1.5676999E-02
1029.260, 0.1723800
1029.742, 0.3047820
1030.224, 0.3891950
1030.706, 0.4474870
1031.188, 0.4876480
1031.670, 0.4569540
1032.152, 0.3188870
1032.634, 0.1887600
1033.116, 0.1076200
1033.599, 3.8263999E-02
1034.081, 4.4880002E-03
1034.563, 1.7534001E-02
1035.045, 1.5461000E-02
1035.527, 8.5979998E-03
1036.009, 1.7085999E-02
1036.491, 0.2232390
1036.973, 0.3769670
1037.456, 0.2676470
1037.938, 9.4856001E-02
1038.420, 8.4699999E-04
1038.902, 2.5970999E-02
1039.384, 3.8099999E-04
1039.866, 0.1095260
1040.348, 0.1806510
1040.830, 0.2146490
1041.313, 0.1883220
1041.795, 2.8556000E-02
1042.277, 1.8839000E-02
1042.759, 2.8134000E-02
1043.241, 0.3401020
1043.723, 0.4516330
1044.205, 0.1735600
1044.687, 4.9609998E-03
1045.169, 3.2311998E-02
1045.651, 6.1120000E-03
1046.134, 0.1120990
1046.616, 0.2385460
1047.098, 0.3100370
1047.580, 0.3383930
1048.062, 0.3728880
1048.544, 0.4419620
1049.026, 0.4320690
1049.508, 0.1981380
1049.991, 5.1644001E-02
1050.473, 0.1703720
1050.955, 0.3524790
1051.437, 0.4224280
1051.919, 0.4168990
1052.401, 0.4740340
1052.883, 0.6434630
1053.365, 0.7363720
1053.848, 0.6935800
1054.330, 0.5868080
1054.812, 0.3622870
1055.294, 0.1684250
1055.776, 0.1872590
1056.258, 0.3257140
1056.740, 0.3330540
1057.222, 0.1196580
1057.704, 2.1729000E-02
1058.187, 0.2701900
1058.669, 0.5225750
1059.151, 0.7242010
1059.633, 0.7769010
1060.115, 0.4620030
1060.597, 3.9545000E-02
1061.079, 8.6740004E-03
1061.561, 1.5467000E-02
1062.043, 1.0289000E-02
1062.526, 0.2332830
1063.008, 0.3832750
1063.490, 0.2534520
1063.972, 9.7507998E-02
1064.454, 0.1790570
1064.936, 0.3973890
1065.418, 0.4965860
1065.900, 0.4400950
1066.383, 0.4254680
1066.865, 0.6831390
1067.347, 0.8527990
1067.829, 0.6432780
1068.311, 0.3718690
1068.793, 0.3425730
1069.275, 0.4509200
1069.757, 0.4645400
1070.240, 0.3502870
1070.722, 0.2834050
1071.204, 0.3841980
1071.686, 0.4971630
1072.168, 0.5566950
1072.650, 0.5609880
1073.132, 0.4775580
1073.614, 0.3669580
1074.096, 0.2992070
1074.578, 0.2945570
1075.061, 0.4015490
1075.543, 0.7878660
1076.025, 1.047964
1076.507, 0.8783010
1076.989, 0.6344720
1077.471, 0.6312620
1077.953, 0.7151430
1078.435, 0.5451610
1078.918, 0.1652720
1079.400, 3.8773999E-02
1079.882, 0.4939040
1080.364, 0.9165930
1080.846, 1.067781
1081.328, 1.025333
1081.810, 0.6447820
1082.292, 0.2306270
1082.774, 0.2678280
1083.257, 0.6932820
1083.739, 0.9324070
1084.221, 0.7221310
1084.703, 0.5255190
1085.185, 0.6372310
1085.667, 0.7382160
1086.149, 0.5212200
1086.631, 0.2529030
1087.114, 0.3333470
1087.596, 0.6528350
1088.078, 0.6945890
1088.560, 0.2299450
1089.042, 2.5083000E-02
1089.524, 5.8849999E-03
1090.006, 0.1157580
1090.488, 0.6587930
1090.970, 1.165497
1091.453, 1.195083
1091.935, 0.8910290
1092.417, 0.6847390
1092.899, 0.6836100
1093.381, 0.7422400
1093.863, 0.9488680
1094.345, 0.9846450
1094.827, 0.4881970
1095.309, 1.4751000E-02
1095.792, 1.9435000E-02
1096.274, 0.3449160
1096.756, 0.3844160
1097.238, 4.5147002E-02
1097.720, 1.6403999E-02
1098.202, 0.4240910
1098.684, 0.7679150
1099.166, 0.4130480
1099.649, 2.6681000E-02
1100.131, 0.1383330
1100.613, 0.4932100
1101.095, 0.6676320
1101.577, 0.6236920
1102.059, 0.5658620
1102.541, 0.5319550
1103.023, 0.5022430
1103.505, 0.4193830
1103.988, 0.4184210
1104.470, 0.6588600
1104.952, 0.9217740
1105.434, 1.028401
1105.916, 0.9748830
1106.398, 0.8032700
1106.880, 0.3798040
1107.362, 0.1730520
1107.844, 0.4278050
1108.327, 0.6898850
1108.809, 0.8699310
1109.291, 0.9180210
1109.773, 0.6824110
1110.255, 0.2945740
1110.737, 0.1546580
1111.219, 0.3746430
1111.701, 0.5090350
1112.184, 0.4519020
1112.666, 0.4107000
1113.148, 0.5027640
1113.630, 0.5511090
1114.112, 0.3388860
1114.594, 4.4217002E-02
1115.076, 2.4723999E-02
1115.558, 0.3170320
1116.041, 0.5180650
1116.523, 0.6044810
1117.005, 0.6359420
1117.487, 0.5729820
1117.969, 0.5210940
1118.451, 0.5516360
1118.933, 0.5918760
1119.415, 0.5462470
1119.897, 0.4288450
1120.380, 0.3704890
1120.862, 0.3897670
1121.344, 0.4367210
1121.826, 0.6122200
1122.308, 0.5593260
1122.790, 4.6468001E-02
1123.272, 0.1836110
1123.754, 5.3966999E-02
1124.236, 0.5167730
1124.719, 0.7672850
1125.201, 0.3496760
1125.683, 3.9691001E-02
1126.165, 2.9718000E-02
1126.647, 1.1799000E-02
1127.129, 0.3384570
1127.611, 0.6931820
1128.093, 0.4777680
1128.576, 1.6213000E-02
1129.058, 3.6807001E-02
1129.540, 4.0344000E-02
1130.022, 5.9239998E-02
1130.504, 0.2560010
1130.986, 0.4674800
1131.468, 0.4801680
1131.950, 0.2969870
1132.432, 4.1044001E-02
1132.915, 4.3807000E-02
1133.397, 2.1648999E-02
1133.879, 0.4282870
1134.361, 0.6551070
1134.843, 0.5220950
1135.325, 0.2762000
1135.807, 3.6846999E-02
1136.289, 4.7708999E-02
1136.771, 0.1132140
1137.254, 0.4626080
1137.736, 0.7945800
1138.218, 1.006939
1138.700, 0.8062150
1139.182, 0.3428060
1139.664, 9.8614998E-02
1140.146, 6.7463003E-02
1140.628, 0.1951940
1141.111, 0.4272410
1141.593, 0.5213240
1142.075, 0.3454380
1142.557, 0.1354500
1143.039, 0.2107470
1143.521, 0.3831150
1144.003, 0.2708380
1144.485, 4.3026000E-02
1144.968, 6.6799998E-02
1145.450, 0.3105330
1145.932, 0.5565760
1146.414, 0.7273600
1146.896, 0.8162640
1147.378, 0.7997980
1147.860, 0.7798890
1148.342, 0.9065070
1148.824, 1.024041
1149.307, 0.9609890
1149.789, 0.7384030
1150.271, 0.2936500
1150.753, 1.3264000E-02
1151.235, 9.4701998E-02
1151.717, 2.5080000E-03
1152.199, 0.2379400
1152.681, 0.3916870
1153.163, 0.4157880
1153.646, 0.2788440
1154.128, 0.1218890
1154.610, 7.9598002E-02
1155.092, 0.1378240
1155.574, 0.2622650
1156.056, 0.4613430
1156.538, 0.5355530
1157.020, 0.2573240
1157.503, 9.3771003E-02
1157.985, 0.2447710
1158.467, 0.4803610
1158.949, 0.7442780
1159.431, 0.9447460
1159.913, 0.9727130
1160.395, 0.8280620
1160.877, 0.5355780
1161.359, 4.9548000E-02
1161.842, 6.4583004E-02
1162.324, 4.4303998E-02
1162.806, 0.4495100
1163.288, 0.4323670
1163.770, 0.2910280
1164.252, 0.1966210
1164.734, 0.1729630
1165.216, 0.3061370
1165.698, 0.6239120
1166.181, 0.6986190
1166.663, 0.4387800
1167.145, 0.2604130
1167.627, 0.1949460
1168.109, 0.3556790
1168.591, 0.8897310
1169.073, 1.341437
1169.555, 1.133182
1170.037, 0.4799770
1170.520, 0.1835210
1171.002, 0.2368400
1171.484, 0.3455730
1171.966, 0.4949270
1172.448, 0.6802470
1172.930, 0.9078850
1173.412, 0.9797460
1173.894, 0.7501910
1174.377, 0.4176820
1174.859, 0.2519320
1175.341, 0.2257230
1175.823, 0.2883460
1176.305, 0.4198880
1176.787, 0.6000160
1177.269, 0.7923680
1177.751, 0.8601390
1178.234, 0.7646640
1178.716, 0.6370740
1179.198, 0.5641770
1179.680, 0.5358750
1180.162, 0.5333660
1180.644, 0.5725180
1181.126, 0.7282990
1181.608, 0.9248190
1182.090, 0.9426340
1182.573, 0.7855230
1183.055, 0.6523640
1183.537, 0.6218910
1184.019, 0.5773770
1184.501, 0.3767050
1184.983, 0.2838240
1185.465, 0.6306550
1185.947, 0.9591940
1186.429, 0.7355650
1186.912, 0.2583260
1187.394, 0.1734580
1187.876, 0.5304270
1188.358, 0.7290110
1188.840, 0.5563320
1189.322, 0.3927840
1189.804, 0.2464510
1190.286, 0.1478470
1190.769, 0.1069090
1191.251, 0.1350980
1191.733, 0.3066270
1192.215, 0.4937180
1192.697, 0.3452420
1193.179, 4.5281999E-02
1193.661, 9.3719997E-03
1194.143, 5.3263001E-02
1194.625, 6.3863002E-02
1195.108, 2.8093999E-02
1195.590, 0.1456570
1196.072, 0.2982590
1196.554, 0.3074390
1197.036, 0.1215610
1197.518, 2.3263000E-02
1198.000, 5.7002001E-02
1198.482, 0.3207260
1198.964, 0.4175110
1199.447, 0.2452320
1199.929, 0.1077290
1200.411, 7.7013001E-02
1200.893, 0.1022150
1201.375, 0.1554480
1201.857, 0.2329860
1202.339, 0.3506870
1202.821, 0.4591550
1203.304, 0.4864570
1203.786, 0.4341810
1204.268, 0.2201090
1204.750, 4.7237001E-02
1205.232, 5.9158999E-02
1205.714, 0.1033140
1206.196, 0.3995590
1206.678, 0.8036900
1207.161, 1.033815
1207.643, 0.6713610
1208.125, 0.3125080
1208.607, 0.4850520
1209.089, 0.7540260
1209.571, 0.6036530
1210.053, 0.1903260
1210.535, 2.4581000E-02
1211.017, 3.2556001E-02
1211.500, 0.1463630
1211.982, 0.3885980
1212.464, 0.5249500
1212.946, 0.3816870
1213.428, 0.3303240
1213.910, 0.6439430
1214.392, 0.9148050
1214.874, 0.6711390
1215.356, 0.1246790
1215.839, 7.0975997E-02
1216.321, 0.1176040
1216.803, 0.3621170
1217.285, 0.6952120
1217.767, 0.8502010
1218.249, 0.7717580
1218.731, 0.5789510
1219.213, 0.2998570
1219.696, 0.1182450
1220.178, 0.3065180
1220.660, 0.6597130
1221.142, 0.6742850
1221.624, 0.4749460
1222.106, 0.4769070
1222.588, 0.6240950
1223.070, 0.6338740
1223.552, 0.4811780
1224.035, 0.3322020
1224.517, 0.2676440
1224.999, 0.2870680
1225.481, 0.4998890
1225.963, 0.6732040
1226.445, 0.5003700
1226.927, 0.2600730
1227.409, 0.3190030
1227.891, 0.4888620
1228.374, 0.3324590
1228.856, 2.6539000E-02
1229.338, 5.9299000E-02
1229.820, 0.3732860
1230.302, 0.7848420
1230.784, 0.8720820
1231.266, 0.8020100
1231.748, 0.4606660
1232.231, 0.1610810
1232.713, 0.1125250
1233.195, 0.2012160
1233.677, 0.2680670
1234.159, 0.3224390
1234.641, 0.4731930
1235.123, 0.7937830
1235.605, 0.8172740
1236.088, 0.4569660
1236.570, 0.2577210
1237.052, 0.3703690
1237.534, 0.5762320
1238.016, 0.7476270
1238.498, 0.8449790
1238.980, 0.7926930
1239.462, 0.6463640
1239.944, 0.5146790
1240.427, 0.3820920
1240.909, 0.3898080
1241.391, 0.5046160
1241.873, 0.5112770
1242.355, 0.3942660
1242.837, 0.4606990
1243.319, 0.8985810
1243.801, 1.180354
1244.283, 0.7066380
1244.766, 0.1615620
1245.248, 3.7524000E-02
1245.730, 0.1221100
1246.212, 0.2753390
1246.694, 0.4498740
1247.176, 0.6028740
1247.658, 0.7196460
1248.140, 0.7211980
1248.622, 0.4959460
1249.105, 0.3638580
1249.587, 0.3732740
1250.069, 0.4253590
1250.551, 0.5397670
1251.033, 0.6110330
1251.515, 0.5289520
1251.997, 0.4419780
1252.479, 0.5603540
1252.962, 0.8315060
1253.444, 0.9631610
1253.926, 0.9563210
1254.408, 0.8145010
1254.890, 0.5599760
1255.372, 0.5670150
1255.854, 0.8918700
1256.336, 1.076883
1256.818, 0.8559510
1257.301, 0.5033830
1257.783, 0.2716000
1258.265, 0.1198860
1258.747, 2.9370000E-03
1259.229, 4.9915999E-02
1259.711, 0.1377370
1260.193, 0.4348500
1260.675, 0.6632120
1261.157, 0.7565650
1261.640, 0.5728420
1262.122, 3.8105998E-02
1262.604, 3.7213001E-02
1263.086, 1.3348000E-02
1263.568, 0.3136270
1264.050, 3.3303998E-02
1264.532, 5.4892998E-02
1265.014, 0.1438670
1265.497, 0.6125250
1265.979, 0.7012370
1266.461, 0.5212550
1266.943, 0.5585540
1267.425, 0.8630970
1267.907, 1.002652
1268.389, 0.9664870
1268.871, 0.8829310
1269.354, 0.7752610
1269.836, 0.5471410
1270.318, 0.1493070
1270.800, 2.8510001E-02
1271.282, 0.2457020
1271.764, 0.7345140
1272.246, 0.6549850
1272.728, 0.3580100
1273.210, 0.5537020
1273.693, 0.9700190
1274.175, 0.8966900
1274.657, 0.3662810
1275.139, 0.2354010
1275.621, 0.5393450
1276.103, 0.7857980
1276.585, 0.6375640
1277.067, 0.4127520
1277.549, 2.9402001E-02
1278.032, 3.7280000E-03
1278.514, 0.1823790
1278.996, 0.5370440
1279.478, 0.4880770
1279.960, 0.1964280
1280.442, 2.5575001E-02
1280.924, 1.0124000E-02
1281.406, 0.1518670
1281.889, 0.5744720
1282.371, 0.6880250
1282.853, 0.7205940
1283.335, 0.6376510
1283.817, 0.3967300
1284.299, 0.1944200
1284.781, 7.0423998E-02
1285.263, 2.5200000E-04
1285.745, 1.7790000E-03
1286.228, 0.0000000E+00
##END=



