##NAMES=Spinel
##RRUFFID=R070013
##IDEAL CHEMISTRY=MgAl_2_O_4_
##LOCALITY=Bo Phloi, Kanchoutabori Province, Thailand
##OWNER=RRUFF
##SOURCE=Michael Scott
##DESCRIPTION=Black glassy fragment with conchoidal fracture
##STATUS=The identification of this mineral has been made only by X-ray diffraction.
##URL=rruff.info/R070013
##MEASURED CHEMISTRY=(Mg_0.69_Fe^2+^_0.31_)_Σ=1_(Al_1.90_Fe^3+^_0.10_)_Σ=2_O_4_ ; trace of Mn, Ti and Cr
143.4313, 0.0000000E+00
143.9134, 0.6983640
144.3955, 2.329590
144.8776, 7.945679
145.3597, 13.90186
145.8419, 19.39893
146.3240, 29.47888
146.8061, 51.78589
147.2882, 72.59668
147.7703, 79.31409
148.2524, 51.74329
148.7346, 33.00146
149.2167, 34.87427
149.6988, 65.52747
150.1809, 80.92554
150.6630, 63.83313
151.1452, 36.54138
151.6273, 26.65601
152.1094, 57.04333
152.5915, 85.86060
153.0736, 100.3673
153.5557, 92.95923
154.0379, 86.28357
154.5200, 82.31409
155.0021, 80.62244
155.4842, 80.27234
155.9663, 86.07263
156.4484, 89.63635
156.9306, 86.29871
157.4127, 66.80127
157.8948, 52.15833
158.3769, 50.62439
158.8590, 58.94873
159.3411, 64.93726
159.8233, 61.00513
160.3054, 55.34888
160.7875, 53.84485
161.2696, 63.63831
161.7517, 72.83215
162.2338, 73.89343
162.7160, 67.85730
163.1981, 67.61829
163.6802, 88.23230
164.1623, 114.6807
164.6444, 130.9708
165.1265, 125.0404
165.6087, 111.7559
166.0908, 96.89050
166.5729, 80.14062
167.0550, 69.99854
167.5371, 76.46753
168.0192, 92.49451
168.5014, 106.7323
168.9835, 113.7129
169.4656, 116.6968
169.9477, 117.9301
170.4298, 117.3323
170.9119, 116.2988
171.3941, 114.3940
171.8762, 112.7156
172.3583, 113.9283
172.8404, 125.2609
173.3225, 138.4730
173.8046, 141.4183
174.2868, 128.6495
174.7689, 113.3611
175.2510, 110.5448
175.7331, 117.9033
176.2152, 124.6924
176.6973, 122.5782
177.1795, 115.1078
177.6616, 108.7539
178.1437, 104.4559
178.6258, 102.4718
179.1079, 105.7708
179.5900, 113.7812
180.0722, 118.9547
180.5543, 109.8351
181.0364, 92.26562
181.5185, 83.83728
182.0006, 94.64111
182.4827, 114.7424
182.9649, 125.4604
183.4470, 126.4703
183.9291, 123.2932
184.4112, 117.8431
184.8933, 111.4622
185.3754, 111.2853
185.8576, 125.5999
186.3397, 148.0405
186.8218, 157.2649
187.3039, 151.9204
187.7860, 140.4739
188.2681, 131.1250
188.7503, 124.0049
189.2324, 119.6584
189.7145, 119.0627
190.1966, 121.8030
190.6787, 126.5483
191.1608, 134.4904
191.6430, 141.1537
192.1251, 137.0267
192.6072, 121.7621
193.0893, 108.7692
193.5714, 106.3650
194.0535, 113.9015
194.5357, 119.5792
195.0178, 123.1594
195.4999, 124.1816
195.9820, 119.4410
196.4641, 106.2804
196.9462, 95.84082
197.4284, 98.42126
197.9105, 114.7620
198.3926, 124.9066
198.8747, 125.4978
199.3568, 119.7264
199.8389, 116.6652
200.3211, 116.2719
200.8032, 116.8708
201.2853, 119.3418
201.7674, 124.5575
202.2495, 126.9755
202.7316, 125.7460
203.2138, 120.7885
203.6959, 110.0488
204.1780, 90.82104
204.6601, 73.49622
205.1422, 68.51611
205.6243, 78.81079
206.1065, 86.08789
206.5886, 86.04712
207.0707, 79.91895
207.5528, 78.87793
208.0349, 84.83984
208.5170, 91.97180
208.9992, 94.36218
209.4813, 90.74963
209.9634, 86.39990
210.4455, 82.83276
210.9276, 80.37463
211.4097, 75.33057
211.8919, 64.27795
212.3740, 53.93921
212.8561, 53.86621
213.3382, 70.04138
213.8203, 82.83887
214.3024, 86.50964
214.7846, 80.21741
215.2667, 73.38391
215.7488, 66.11548
216.2309, 58.29211
216.7130, 48.66968
217.1951, 34.56274
217.6773, 25.28003
218.1594, 24.73621
218.6415, 35.21484
219.1236, 42.41333
219.6057, 45.03284
220.0878, 44.58423
220.5700, 44.74146
221.0521, 47.02429
221.5342, 47.66138
222.0163, 44.76904
222.4984, 36.84656
222.9805, 30.79700
223.4627, 26.44910
223.9448, 24.18860
224.4269, 25.35071
224.9090, 31.94983
225.3911, 38.32678
225.8732, 42.62915
226.3554, 45.08569
226.8375, 44.68005
227.3196, 40.21594
227.8017, 33.34583
228.2838, 27.51721
228.7659, 21.66736
229.2481, 18.61218
229.7302, 20.17871
230.2123, 29.22107
230.6944, 36.44238
231.1765, 42.21985
231.6587, 45.98499
232.1408, 45.63635
232.6229, 39.05505
233.1050, 31.34106
233.5871, 24.89417
234.0692, 19.92737
234.5514, 15.66528
235.0335, 12.07239
235.5156, 9.129639
235.9977, 6.601440
236.4798, 3.302246
236.9619, 2.048462
237.4441, 4.785645
237.9262, 14.25391
238.4083, 22.02612
238.8904, 27.70837
239.3725, 31.35938
239.8546, 33.49219
240.3368, 34.69678
240.8189, 33.70837
241.3010, 29.09021
241.7831, 17.20239
242.2652, 9.130859
242.7473, 7.019043
243.2295, 9.776001
243.7116, 10.87158
244.1937, 8.681885
244.6758, 6.923218
245.1579, 8.638062
245.6400, 17.72156
246.1222, 21.96606
246.6043, 18.54639
247.0864, 8.752563
247.5685, 1.434204
248.0506, 3.710815
248.5327, 5.996216
249.0149, 4.706299
249.4970, 1.269409
249.9791, 8.702148
250.4612, 18.91797
250.9433, 31.01453
251.4254, 37.01843
251.9076, 34.44397
252.3897, 29.15100
252.8718, 25.12695
253.3539, 22.74573
253.8360, 20.97729
254.3181, 20.43628
254.8003, 20.71497
255.2824, 17.68225
255.7645, 8.564697
256.2466, 0.1163330
256.7287, 1.032837
257.2108, 10.73596
257.6930, 15.15125
258.1751, 6.502075
258.6572, 13.16235
259.1393, 25.06165
259.6214, 26.98083
260.1035, 24.22095
260.5857, 20.29675
261.0678, 14.50354
261.5499, 9.454102
262.0320, 5.682373
262.5141, 3.014404
262.9962, 0.4338380
263.4784, 6.270508
263.9605, 10.25610
264.4426, 7.993042
264.9247, 3.332764
265.4068, 11.57581
265.8889, 14.51062
266.3711, 12.72266
266.8532, 10.07825
267.3353, 5.517090
267.8174, 2.209595
268.2995, 4.248413
268.7816, 14.23816
269.2638, 18.19568
269.7459, 11.58899
270.2280, 3.178833
270.7101, 11.35181
271.1922, 10.61670
271.6743, 8.544067
272.1565, 13.12207
272.6386, 26.78296
273.1207, 32.91931
273.6028, 26.40430
274.0849, 10.45593
274.5670, 0.3480220
275.0492, 2.796753
275.5313, 3.207275
276.0134, 4.957764
276.4955, 8.571167
276.9776, 7.776855
277.4597, 0.2850340
277.9419, 13.00671
278.4240, 19.98645
278.9061, 20.43628
279.3882, 18.46851
279.8703, 17.03589
280.3524, 16.14636
280.8346, 14.85876
281.3167, 12.08630
281.7988, 9.383667
282.2809, 13.04553
282.7630, 24.08911
283.2451, 34.48450
283.7273, 36.81152
284.2094, 31.51855
284.6915, 27.70752
285.1736, 27.09705
285.6557, 28.65637
286.1378, 29.73743
286.6200, 30.26355
287.1021, 31.50366
287.5842, 35.14758
288.0663, 40.72192
288.5484, 44.97839
289.0305, 47.07642
289.5127, 48.02014
289.9948, 51.05042
290.4769, 56.09412
290.9590, 58.37061
291.4411, 50.54871
291.9232, 36.05750
292.4054, 29.66785
292.8875, 35.31287
293.3696, 46.68274
293.8517, 55.22180
294.3338, 60.83545
294.8159, 62.03125
295.2981, 54.00647
295.7802, 40.68604
296.2623, 33.13452
296.7444, 34.31860
297.2265, 38.30566
297.7086, 35.61462
298.1908, 27.83582
298.6729, 23.07666
299.1550, 29.54407
299.6371, 41.87708
300.1192, 49.97485
300.6013, 51.86292
301.0835, 51.57300
301.5656, 53.68909
302.0477, 57.35266
302.5298, 59.65222
303.0119, 56.26172
303.4940, 51.61511
303.9762, 52.38977
304.4583, 60.35315
304.9404, 69.14734
305.4225, 75.52637
305.9046, 78.23083
306.3867, 75.14001
306.8689, 56.83911
307.3510, 37.01941
307.8331, 30.11597
308.3152, 38.69214
308.7973, 50.97070
309.2794, 63.55176
309.7616, 73.53467
310.2437, 76.01587
310.7258, 60.02832
311.2079, 41.63757
311.6900, 31.53442
312.1721, 30.99792
312.6543, 35.93152
313.1364, 51.39246
313.6185, 69.28699
314.1006, 78.39282
314.5827, 64.70032
315.0648, 49.84033
315.5470, 45.09631
316.0291, 51.37012
316.5112, 57.41528
316.9933, 60.10364
317.4754, 61.17993
317.9576, 62.09253
318.4397, 61.35327
318.9218, 62.47070
319.4039, 68.27759
319.8860, 78.66125
320.3681, 85.67786
320.8503, 88.14429
321.3324, 86.17468
321.8145, 79.69006
322.2966, 55.96973
322.7787, 40.57422
323.2608, 43.75879
323.7430, 63.90881
324.2251, 78.10864
324.7072, 79.28015
325.1893, 76.75610
325.6714, 76.02832
326.1535, 80.57288
326.6357, 82.10547
327.1178, 78.30688
327.5999, 71.18213
328.0820, 68.89355
328.5641, 76.86780
329.0462, 83.38293
329.5284, 82.34717
330.0105, 62.26562
330.4926, 53.10254
330.9747, 61.07336
331.4568, 79.77295
331.9389, 89.59314
332.4211, 84.05457
332.9032, 78.09375
333.3853, 78.35999
333.8674, 87.30054
334.3495, 96.04260
334.8316, 107.1504
335.3138, 117.4712
335.7959, 117.8300
336.2780, 103.0690
336.7601, 90.45911
337.2422, 88.18555
337.7243, 98.17358
338.2065, 102.1976
338.6886, 98.57947
339.1707, 91.66272
339.6528, 87.61755
340.1349, 86.81018
340.6170, 87.12769
341.0992, 88.39246
341.5813, 90.35364
342.0634, 90.97559
342.5455, 90.31079
343.0276, 88.10144
343.5097, 82.87292
343.9919, 74.71631
344.4740, 68.46790
344.9561, 64.68286
345.4382, 64.03577
345.9203, 71.30420
346.4024, 87.16382
346.8846, 100.9354
347.3667, 100.6678
347.8488, 89.62463
348.3309, 80.44165
348.8130, 76.46948
349.2951, 75.60278
349.7773, 74.66113
350.2594, 73.75818
350.7415, 73.90405
351.2236, 77.70923
351.7057, 82.73303
352.1878, 83.93396
352.6700, 79.01318
353.1521, 73.19641
353.6342, 74.12659
354.1163, 79.21179
354.5984, 80.26611
355.0806, 64.43616
355.5627, 46.30469
356.0448, 43.54761
356.5269, 62.69397
357.0090, 80.18250
357.4911, 74.81763
357.9733, 57.24988
358.4554, 46.61853
358.9375, 58.13342
359.4196, 73.89941
359.9017, 83.92859
360.3839, 87.07678
360.8660, 86.47290
361.3481, 82.46082
361.8302, 75.67053
362.3123, 66.80896
362.7944, 50.44348
363.2766, 37.39661
363.7587, 31.72131
364.2408, 33.58569
364.7229, 37.85608
365.2050, 48.59448
365.6871, 58.44971
366.1693, 62.33911
366.6514, 51.94836
367.1335, 44.28625
367.6156, 42.99146
368.0977, 46.94641
368.5798, 48.03748
369.0620, 41.08093
369.5441, 35.91565
370.0262, 38.10120
370.5083, 58.87708
370.9904, 67.12292
371.4725, 56.09351
371.9547, 34.02759
372.4368, 21.97839
372.9189, 23.07971
373.4010, 28.33716
373.8831, 35.25830
374.3652, 44.57959
374.8474, 51.23340
375.3295, 55.19812
375.8116, 56.51501
376.2937, 53.56726
376.7758, 44.84705
377.2579, 40.84851
377.7401, 48.24402
378.2222, 64.76758
378.7043, 69.32166
379.1864, 60.22058
379.6685, 46.17676
380.1506, 34.17236
380.6328, 24.44739
381.1149, 19.96484
381.5970, 23.49170
382.0791, 30.96484
382.5612, 32.26331
383.0433, 27.76086
383.5255, 24.75146
384.0076, 32.40784
384.4897, 45.23230
384.9718, 50.32971
385.4539, 43.22937
385.9360, 32.73914
386.4182, 27.31799
386.9003, 26.60779
387.3824, 29.14001
387.8645, 37.11792
388.3466, 46.36023
388.8287, 51.45447
389.3109, 50.87805
389.7930, 52.48145
390.2751, 67.09119
390.7572, 85.88379
391.2393, 95.92395
391.7214, 80.53223
392.2036, 64.68372
392.6857, 64.94543
393.1678, 82.00671
393.6499, 93.52551
394.1320, 85.70337
394.6141, 71.71216
395.0963, 62.75195
395.5784, 66.50879
396.0605, 69.89270
396.5426, 68.19946
397.0247, 62.91748
397.5068, 62.57471
397.9890, 77.71899
398.4711, 90.50024
398.9532, 91.96216
399.4353, 70.34900
399.9174, 57.48657
400.3995, 57.35681
400.8817, 64.50818
401.3638, 67.98035
401.8459, 65.19739
402.3280, 62.80151
402.8101, 63.38135
403.2922, 67.63806
403.7744, 70.35669
404.2565, 70.90637
404.7386, 71.00671
405.2207, 73.74304
405.7028, 80.17847
406.1849, 81.75208
406.6671, 74.58533
407.1492, 61.02380
407.6313, 50.74817
408.1134, 43.40051
408.5955, 42.93811
409.0776, 57.90564
409.5598, 83.72876
410.0419, 96.53772
410.5240, 89.92712
411.0061, 73.13049
411.4882, 57.70105
411.9703, 44.43408
412.4525, 36.11047
412.9346, 37.15015
413.4167, 43.27808
413.8988, 49.27393
414.3809, 54.99500
414.8630, 56.61841
415.3452, 46.32202
415.8273, 30.52002
416.3094, 20.02393
416.7915, 21.09375
417.2736, 27.18433
417.7557, 36.69397
418.2379, 49.57312
418.7200, 56.85400
419.2021, 47.87854
419.6842, 34.97400
420.1663, 28.48804
420.6484, 38.01770
421.1306, 45.21997
421.6127, 45.32886
422.0948, 39.58838
422.5769, 31.77844
423.0590, 15.77600
423.5411, 3.725952
424.0233, 2.887573
424.5054, 20.37305
424.9875, 30.10913
425.4696, 22.60303
425.9517, 9.799561
426.4338, 8.550049
426.9160, 27.56628
427.3981, 42.46338
427.8802, 47.27185
428.3623, 42.89197
428.8444, 37.26709
429.3265, 28.16846
429.8087, 20.87817
430.2908, 21.30200
430.7729, 30.46057
431.2550, 36.61328
431.7371, 36.89575
432.2192, 34.51257
432.7014, 36.56982
433.1835, 43.00464
433.6656, 46.46472
434.1477, 39.69800
434.6298, 26.28796
435.1119, 17.86694
435.5941, 15.42017
436.0762, 15.83752
436.5583, 17.29883
437.0404, 19.08740
437.5225, 19.45593
438.0046, 16.24194
438.4868, 12.22864
438.9689, 10.65051
439.4510, 11.21179
439.9331, 11.22070
440.4152, 7.718262
440.8973, 3.557007
441.3795, 1.502075
441.8616, 3.106689
442.3437, 5.339233
442.8258, 7.487549
443.3079, 9.342041
443.7900, 10.40662
444.2722, 8.903564
444.7543, 7.988892
445.2364, 9.775146
445.7185, 15.97290
446.2006, 18.38428
446.6827, 11.47327
447.1649, 3.140137
447.6470, 1.256714
448.1291, 11.76929
448.6112, 18.97339
449.0933, 19.46545
449.5754, 14.45825
450.0576, 11.23877
450.5397, 9.549561
451.0218, 10.19360
451.5039, 15.15991
451.9860, 25.69800
452.4681, 29.99780
452.9503, 25.39941
453.4324, 18.46582
453.9145, 22.88196
454.3966, 38.36707
454.8787, 48.08594
455.3608, 42.14966
455.8430, 25.80029
456.3251, 12.91663
456.8072, 3.531738
457.2893, 2.754028
457.7714, 5.388916
458.2535, 5.206909
458.7357, 3.677368
459.2178, 0.8090820
459.6999, 2.730347
460.1820, 7.901611
460.6641, 13.59143
461.1462, 16.57983
461.6284, 11.37439
462.1105, 5.677490
462.5926, 5.537720
463.0747, 12.72180
463.5568, 19.15881
464.0389, 24.31677
464.5211, 26.31104
465.0032, 22.93835
465.4853, 5.362793
465.9674, 8.503784
466.4495, 14.21655
466.9316, 12.35754
467.4138, 9.334717
467.8959, 3.032471
468.3780, 2.182617
468.8601, 3.913818
469.3422, 0.5671390
469.8243, 2.276245
470.3065, 4.883057
470.7886, 6.722900
471.2707, 6.174683
471.7528, 2.433838
472.2349, 0.5675050
472.7170, 3.193726
473.1992, 9.092041
473.6813, 12.99780
474.1634, 15.14502
474.6455, 12.92078
475.1276, 1.009399
475.6097, 22.01599
476.0919, 33.11841
476.5740, 29.18555
477.0561, 19.40442
477.5382, 13.32214
478.0203, 10.32471
478.5024, 8.558228
478.9846, 8.566528
479.4667, 8.414063
479.9488, 6.997192
480.4309, 4.311646
480.9130, 1.484009
481.3951, 20.17200
481.8773, 38.34949
482.3594, 43.22314
482.8415, 15.08496
483.3236, 8.766235
483.8057, 19.27039
484.2878, 18.47473
484.7700, 13.93518
485.2521, 0.6130370
485.7342, 12.42407
486.2163, 16.23608
486.6984, 9.042358
487.1805, 5.855591
487.6627, 9.945923
488.1448, 14.67310
488.6269, 11.24146
489.1090, 3.590698
489.5911, 13.43079
490.0732, 13.02991
490.5554, 6.315063
491.0375, 7.985229
491.5196, 18.90149
492.0017, 29.36462
492.4838, 32.48425
492.9659, 30.10095
493.4481, 29.17798
493.9302, 30.45361
494.4123, 32.09155
494.8944, 30.14636
495.3765, 27.00000
495.8586, 28.17761
496.3408, 41.61328
496.8229, 55.54236
497.3050, 59.36401
497.7871, 54.50610
498.2692, 49.02734
498.7513, 46.03845
499.2335, 44.49133
499.7156, 43.53687
500.1977, 42.11951
500.6798, 43.52405
501.1619, 48.79810
501.6440, 57.17114
502.1262, 67.80908
502.6083, 93.02600
503.0904, 105.6174
503.5725, 94.15027
504.0546, 61.05005
504.5367, 45.95337
505.0189, 55.52234
505.5010, 71.44702
505.9831, 83.96851
506.4652, 92.80066
506.9473, 97.15674
507.4294, 95.67566
507.9116, 92.23474
508.3937, 92.64038
508.8758, 96.79492
509.3579, 102.5874
509.8400, 110.0438
510.3221, 118.1537
510.8043, 123.6949
511.2864, 126.9734
511.7685, 132.5668
512.2506, 147.3685
512.7327, 165.0698
513.2148, 177.7068
513.6970, 183.5957
514.1791, 185.0044
514.6612, 181.2042
515.1433, 173.9080
515.6254, 166.3259
516.1075, 152.3573
516.5897, 145.5649
517.0718, 155.5043
517.5539, 181.7155
518.0360, 200.2905
518.5181, 200.6337
519.0002, 198.6757
519.4824, 202.2115
519.9645, 212.8823
520.4466, 226.3291
520.9287, 246.6505
521.4108, 266.3376
521.8929, 270.6022
522.3751, 255.0059
522.8572, 245.5895
523.3393, 253.4836
523.8214, 272.2240
524.3035, 275.3702
524.7856, 262.8486
525.2678, 251.5961
525.7499, 255.6016
526.2320, 270.6776
526.7141, 288.9087
527.1962, 310.5414
527.6783, 326.6063
528.1605, 321.4474
528.6426, 305.3260
529.1247, 296.9755
529.6068, 312.4548
530.0889, 330.8389
530.5710, 340.2546
531.0532, 341.2416
531.5353, 341.0048
532.0174, 340.3208
532.4995, 340.5623
532.9816, 343.3494
533.4637, 350.1204
533.9459, 354.1273
534.4280, 353.0240
534.9101, 350.4272
535.3922, 351.8389
535.8743, 362.8199
536.3564, 363.7390
536.8386, 346.1954
537.3207, 316.8779
537.8028, 304.5812
538.2849, 311.6882
538.7670, 321.6608
539.2491, 324.6041
539.7313, 321.4220
540.2134, 317.2910
540.6955, 314.4316
541.1776, 311.7194
541.6597, 304.5659
542.1418, 296.4407
542.6240, 295.3789
543.1061, 309.3361
543.5882, 322.9713
544.0703, 322.9897
544.5524, 314.0020
545.0345, 307.1295
545.5167, 310.1370
545.9988, 313.4657
546.4809, 312.3699
546.9630, 306.2021
547.4451, 299.8555
547.9272, 290.6743
548.4094, 283.8140
548.8915, 283.8594
549.3736, 298.2518
549.8557, 305.5491
550.3378, 301.5953
550.8199, 291.3595
551.3021, 286.6780
551.7842, 289.1675
552.2663, 289.4525
552.7484, 282.8815
553.2305, 271.0640
553.7126, 261.0426
554.1948, 252.7078
554.6769, 248.0570
555.1590, 252.1542
555.6411, 260.6088
556.1232, 263.9811
556.6053, 259.8831
557.0875, 253.2399
557.5696, 249.2760
558.0517, 245.6083
558.5338, 238.1799
559.0159, 217.2534
559.4980, 199.9530
559.9802, 198.2411
560.4623, 209.4879
560.9444, 213.1189
561.4265, 198.2117
561.9086, 180.3837
562.3907, 166.3208
562.8729, 154.9550
563.3550, 151.2006
563.8371, 160.5419
564.3192, 171.5386
564.8013, 169.1704
565.2834, 149.5248
565.7656, 138.1061
566.2477, 141.4178
566.7298, 153.6115
567.2119, 163.3054
567.6940, 170.3995
568.1761, 172.9008
568.6583, 165.9551
569.1404, 155.0111
569.6225, 151.8865
570.1046, 156.7484
570.5867, 157.7352
571.0688, 137.0898
571.5510, 112.1930
572.0331, 103.6359
572.5152, 126.2302
572.9973, 145.0883
573.4794, 142.9891
573.9615, 129.4895
574.4437, 120.5421
574.9258, 124.7021
575.4079, 126.7339
575.8900, 124.0245
576.3721, 116.6677
576.8542, 104.5577
577.3364, 83.06458
577.8185, 65.87317
578.3006, 62.78137
578.7827, 74.62720
579.2648, 84.21570
579.7469, 91.69775
580.2291, 95.91968
580.7112, 92.46423
581.1933, 83.90271
581.6754, 80.98291
582.1575, 89.25024
582.6396, 100.1176
583.1218, 104.7386
583.6039, 103.9850
584.0860, 100.3246
584.5681, 89.83875
585.0502, 80.92834
585.5323, 81.59436
586.0145, 92.15955
586.4966, 97.27979
586.9787, 85.50574
587.4608, 72.16626
587.9429, 67.82239
588.4250, 82.82129
588.9072, 86.21338
589.3893, 70.60364
589.8714, 49.46484
590.3535, 42.82227
590.8356, 54.03235
591.3177, 63.35596
591.7999, 66.01941
592.2820, 63.85156
592.7641, 59.80029
593.2462, 54.12085
593.7283, 52.60889
594.2104, 65.53479
594.6926, 82.38318
595.1747, 83.06445
595.6568, 66.59204
596.1389, 50.16748
596.6210, 48.08667
597.1031, 51.33960
597.5853, 50.63318
598.0674, 41.56140
598.5495, 32.68457
599.0316, 25.94043
599.5137, 21.00781
599.9958, 17.33069
600.4780, 13.52185
600.9601, 12.75256
601.4423, 15.97412
601.9244, 22.75085
602.4065, 32.40869
602.8886, 47.29175
603.3707, 57.85229
603.8528, 57.19604
604.3350, 46.42517
604.8171, 37.26160
605.2992, 29.79761
605.7813, 23.59766
606.2634, 17.20020
606.7455, 11.73694
607.2277, 9.840820
607.7098, 13.25195
608.1919, 17.62756
608.6740, 19.71289
609.1561, 20.35669
609.6382, 21.01172
610.1204, 22.78577
610.6025, 24.08276
611.0846, 25.65625
611.5667, 26.97510
612.0488, 23.57227
612.5309, 10.37280
613.0131, 1.093506
613.4952, 6.135132
613.9773, 4.714600
614.4594, 0.8115230
614.9415, 11.98755
615.4236, 23.30688
615.9058, 30.22144
616.3879, 33.63062
616.8700, 32.37329
617.3521, 23.29529
617.8342, 11.54431
618.3163, 11.53284
618.7985, 19.41553
619.2806, 24.79419
619.7627, 17.26978
620.2448, 9.620483
620.7269, 12.00635
621.2090, 23.07996
621.6912, 35.19824
622.1733, 49.01379
622.6554, 58.75525
623.1375, 61.75391
623.6196, 57.83203
624.1017, 51.78711
624.5839, 39.26672
625.0660, 28.38611
625.5481, 25.52173
626.0302, 31.04297
626.5123, 40.53503
626.9944, 57.41284
627.4766, 72.99829
627.9587, 65.76782
628.4408, 39.42834
628.9229, 27.97302
629.4050, 52.21313
629.8871, 85.25366
630.3693, 92.98840
630.8514, 81.31042
631.3335, 69.88391
631.8156, 67.53040
632.2977, 69.54102
632.7798, 75.45691
633.2620, 85.50085
633.7441, 89.87988
634.2262, 81.54895
634.7083, 70.90601
635.1904, 63.00598
635.6725, 55.04016
636.1547, 59.27954
636.6368, 83.43848
637.1189, 108.4915
637.6010, 105.6791
638.0831, 74.29993
638.5652, 56.42529
639.0474, 64.35681
639.5295, 83.25806
640.0116, 86.78186
640.4937, 79.26538
640.9758, 76.10852
641.4579, 96.31348
641.9401, 115.7019
642.4222, 106.5980
642.9043, 73.78467
643.3864, 52.36169
643.8685, 68.33911
644.3506, 89.38501
644.8328, 96.89636
645.3149, 83.11609
645.7970, 80.43726
646.2791, 98.45752
646.7612, 117.2932
647.2433, 116.7180
647.7255, 90.22217
648.2076, 82.04749
648.6897, 101.0029
649.1718, 128.3605
649.6539, 134.1763
650.1360, 122.0479
650.6182, 110.1886
651.1003, 102.5503
651.5824, 100.7660
652.0645, 112.9958
652.5466, 133.7526
653.0287, 146.3684
653.5109, 136.6049
653.9930, 122.2185
654.4751, 110.7949
654.9572, 102.8563
655.4393, 100.1144
655.9214, 111.1732
656.4036, 119.8546
656.8857, 117.6437
657.3678, 101.2966
657.8499, 88.08826
658.3320, 77.46423
658.8141, 71.41492
659.2963, 74.43201
659.7784, 85.45984
660.2605, 94.32300
660.7426, 100.2737
661.2247, 100.8829
661.7068, 86.98547
662.1890, 65.67444
662.6711, 52.45764
663.1532, 61.76135
663.6353, 73.42139
664.1174, 77.54175
664.5995, 75.20642
665.0817, 69.99023
665.5638, 60.07458
666.0459, 50.07214
666.5280, 41.78296
667.0101, 35.20618
667.4922, 26.38660
667.9744, 13.26025
668.4565, 2.664307
668.9386, 0.6440430
669.4207, 6.572754
669.9028, 7.482666
670.3849, 2.413940
670.8671, 3.523682
671.3492, 4.469116
671.8313, 2.529541
672.3134, 1.016235
672.7955, 0.5208740
673.2776, 1.982300
673.7598, 20.97388
674.2419, 43.09644
674.7240, 48.64893
675.2061, 6.364502
675.6882, 22.58643
676.1703, 17.91553
676.6525, 8.219849
677.1346, 24.02466
677.6167, 25.23865
678.0988, 26.24890
678.5809, 33.19946
679.0630, 43.79688
679.5452, 44.20898
680.0273, 34.32019
680.5094, 25.86047
680.9915, 30.42786
681.4736, 40.53015
681.9557, 43.66260
682.4379, 39.09937
682.9200, 29.85315
683.4021, 9.655396
683.8842, 9.378174
684.3663, 14.70923
684.8484, 7.136719
685.3306, 16.32361
685.8127, 5.171631
686.2948, 35.65198
686.7769, 54.60010
687.2590, 59.75037
687.7411, 58.72717
688.2233, 49.83008
688.7054, 38.62219
689.1875, 36.27319
689.6696, 42.20520
690.1517, 49.71643
690.6339, 55.01868
691.1160, 61.96704
691.5981, 80.10046
692.0802, 105.4161
692.5623, 123.8201
693.0444, 124.3864
693.5266, 119.1978
694.0087, 111.2727
694.4908, 101.3176
694.9729, 101.2812
695.4550, 120.3441
695.9371, 142.4033
696.4193, 162.5911
696.9014, 182.0372
697.3835, 189.0861
697.8656, 180.3711
698.3477, 169.3407
698.8298, 171.3440
699.3120, 182.5029
699.7941, 181.6643
700.2762, 163.9944
700.7583, 148.1221
701.2404, 155.2115
701.7225, 175.1228
702.2047, 193.1826
702.6868, 205.5161
703.1689, 214.3486
703.6510, 220.8660
704.1331, 224.3319
704.6152, 222.9377
705.0974, 209.1666
705.5795, 202.0193
706.0616, 205.5179
706.5437, 217.1586
707.0258, 231.8821
707.5079, 250.7827
707.9901, 263.0845
708.4722, 262.8672
708.9543, 253.7919
709.4364, 241.7200
709.9185, 227.4509
710.4006, 216.2990
710.8828, 210.6964
711.3649, 210.0941
711.8470, 216.8998
712.3291, 231.3820
712.8112, 240.5282
713.2933, 232.4779
713.7755, 224.3478
714.2576, 227.8440
714.7397, 249.7175
715.2218, 256.1244
715.7039, 240.1620
716.1860, 222.0298
716.6682, 225.5769
717.1503, 248.3905
717.6324, 259.9227
718.1145, 255.0596
718.5966, 244.1626
719.0787, 230.5764
719.5609, 220.7177
720.0430, 227.5796
720.5251, 270.8721
721.0072, 306.7461
721.4893, 304.2238
721.9714, 281.7328
722.4536, 272.3228
722.9357, 293.6642
723.4178, 311.1434
723.8999, 321.5170
724.3820, 324.0841
724.8641, 311.1868
725.3463, 278.5504
725.8284, 260.6819
726.3105, 276.3185
726.7926, 311.8679
727.2747, 336.3040
727.7568, 350.8706
728.2390, 364.0366
728.7211, 383.5073
729.2032, 402.2253
729.6853, 413.2609
730.1674, 416.6006
730.6495, 419.6194
731.1317, 422.9658
731.6138, 426.5054
732.0959, 430.3636
732.5780, 435.5549
733.0601, 443.2386
733.5422, 449.6713
734.0244, 461.0768
734.5065, 487.0090
734.9886, 524.0750
735.4707, 549.9097
735.9528, 562.0244
736.4349, 568.1521
736.9171, 575.0881
737.3992, 581.4902
737.8813, 584.4216
738.3634, 580.0688
738.8455, 578.5669
739.3276, 584.9473
739.8098, 596.1302
740.2919, 608.7793
740.7740, 629.2815
741.2561, 639.6196
741.7382, 632.4768
742.2203, 619.0814
742.7025, 622.9287
743.1846, 644.2360
743.6667, 661.0964
744.1488, 663.7009
744.6309, 660.8116
745.1130, 665.1162
745.5952, 674.7222
746.0773, 684.5371
746.5594, 697.4773
747.0415, 704.7898
747.5236, 695.4124
748.0057, 674.8438
748.4879, 666.6007
748.9700, 684.5869
749.4521, 701.1008
749.9342, 709.1199
750.4163, 709.3787
750.8984, 705.7986
751.3806, 697.3813
751.8627, 692.3459
752.3448, 699.8555
752.8269, 713.1724
753.3090, 715.6409
753.7911, 707.7551
754.2733, 696.4940
754.7554, 680.9355
755.2375, 667.6353
755.7196, 663.1222
756.2017, 669.4631
756.6838, 672.7124
757.1660, 670.5359
757.6481, 664.5476
758.1302, 654.9447
758.6123, 641.2079
759.0944, 626.0457
759.5765, 608.2224
760.0587, 593.6394
760.5408, 592.7059
761.0229, 599.7542
761.5050, 595.1398
761.9871, 574.5250
762.4692, 554.8594
762.9514, 553.2075
763.4335, 558.3680
763.9156, 557.6672
764.3977, 544.5339
764.8798, 532.4814
765.3619, 525.7422
765.8441, 519.9143
766.3262, 509.0488
766.8083, 489.4307
767.2904, 480.2515
767.7725, 487.1448
768.2546, 498.2050
768.7368, 494.7395
769.2189, 479.5741
769.7010, 462.7290
770.1831, 446.2195
770.6652, 431.1647
771.1473, 417.3507
771.6295, 405.9573
772.1116, 398.7791
772.5937, 400.2893
773.0758, 401.5199
773.5579, 400.9827
774.0400, 398.7836
774.5222, 394.9946
775.0043, 389.4473
775.4864, 383.2340
775.9685, 377.9795
776.4506, 370.9991
776.9327, 350.9888
777.4149, 321.5142
777.8970, 300.6498
778.3791, 305.3063
778.8612, 316.1106
779.3433, 318.2653
779.8254, 313.3595
780.3076, 305.6509
780.7897, 293.3264
781.2718, 280.3849
781.7539, 265.8641
782.2360, 251.3312
782.7181, 250.8954
783.2003, 269.7638
783.6824, 283.0009
784.1645, 276.7251
784.6466, 256.5667
785.1287, 238.2460
785.6108, 223.4473
786.0930, 213.7524
786.5751, 209.9095
787.0572, 208.3978
787.5393, 208.8170
788.0214, 211.5460
788.5035, 214.1188
788.9857, 217.3602
789.4678, 217.7648
789.9499, 213.1477
790.4320, 203.1467
790.9141, 195.7330
791.3962, 191.0448
791.8784, 187.4062
792.3605, 184.0593
792.8426, 180.9617
793.3247, 177.9648
793.8068, 174.8322
794.2889, 171.0214
794.7711, 161.5645
795.2532, 153.9371
795.7353, 156.3535
796.2174, 174.2996
796.6995, 180.1730
797.1816, 160.3562
797.6638, 141.0602
798.1459, 137.9113
798.6280, 152.9215
799.1101, 165.6086
799.5922, 176.8276
800.0743, 182.6003
800.5565, 176.9012
801.0386, 163.8529
801.5207, 150.5092
802.0028, 137.2747
802.4849, 126.4857
802.9670, 122.9044
803.4492, 120.0957
803.9313, 111.5428
804.4134, 89.51111
804.8955, 80.38684
805.3776, 90.51624
805.8597, 105.5480
806.3419, 113.8093
806.8240, 115.5286
807.3061, 113.6757
807.7882, 107.7649
808.2703, 99.97900
808.7524, 88.49341
809.2346, 77.65271
809.7167, 75.51038
810.1988, 87.14697
810.6809, 95.58325
811.1630, 90.25085
811.6451, 80.74463
812.1273, 75.71436
812.6094, 77.99121
813.0915, 80.07446
813.5736, 82.70679
814.0557, 83.84009
814.5378, 78.13611
815.0200, 67.81189
815.5021, 67.50305
815.9842, 81.42749
816.4663, 95.37805
816.9484, 93.57458
817.4305, 84.78931
817.9127, 79.84583
818.3948, 84.09070
818.8769, 86.73279
819.3590, 86.56140
819.8411, 83.10718
820.3232, 74.25330
820.8054, 57.47852
821.2875, 48.14771
821.7696, 49.01575
822.2517, 53.37549
822.7338, 51.88647
823.2159, 47.35205
823.6981, 47.89673
824.1802, 58.62744
824.6623, 65.76465
825.1444, 53.12854
825.6265, 35.10706
826.1086, 27.38904
826.5908, 44.30078
827.0729, 55.31873
827.5550, 60.44617
828.0371, 59.36182
828.5192, 47.82104
829.0013, 25.64490
829.4835, 16.07410
829.9656, 24.23523
830.4477, 35.95886
830.9298, 34.30750
831.4119, 25.90808
831.8940, 21.29712
832.3762, 24.54749
832.8583, 28.26294
833.3404, 31.34082
833.8225, 32.79724
834.3046, 31.75684
834.7867, 27.98230
835.2689, 22.19873
835.7510, 13.97083
836.2331, 4.787598
836.7152, 5.132202
837.1973, 14.39478
837.6794, 16.79492
838.1616, 10.16150
838.6437, 1.875244
839.1258, 3.733276
839.6079, 7.009888
840.0900, 7.942993
840.5721, 2.815308
841.0543, 3.240601
841.5364, 17.87622
842.0185, 29.84302
842.5006, 16.61755
842.9827, 24.42993
843.4648, 42.11084
843.9470, 28.55054
844.4291, 7.537231
844.9112, 6.432251
845.3933, 15.05786
845.8754, 15.85583
846.3575, 2.593140
846.8397, 8.609497
847.3218, 7.446289
847.8039, 3.630371
848.2860, 6.696533
848.7681, 23.56018
849.2502, 27.82397
849.7324, 16.54443
850.2145, 3.8330000E-02
850.6966, 13.36707
851.1787, 23.32617
851.6608, 29.05396
852.1429, 30.61292
852.6251, 27.00525
853.1072, 8.501953
853.5893, 10.15320
854.0714, 13.17664
854.5535, 10.18066
855.0356, 21.96545
855.5178, 13.88159
855.9999, 1.485962
856.4820, 4.839722
856.9641, 5.012451
857.4462, 1.711670
857.9283, 5.392456
858.4105, 10.61536
858.8926, 6.535156
859.3747, 1.247070
859.8568, 4.256104
860.3389, 1.019409
860.8210, 2.048950
861.3032, 19.45190
861.7853, 35.04395
862.2674, 38.10181
862.7495, 27.25342
863.2316, 14.40100
863.7137, 2.020508
864.1959, 13.32654
864.6780, 9.135986
865.1601, 4.008057
865.6422, 9.657349
866.1243, 7.911743
866.6064, 7.312500
867.0886, 17.69641
867.5707, 26.85071
868.0528, 24.19861
868.5349, 8.355591
869.0170, 4.482910
869.4991, 19.73987
869.9813, 32.86670
870.4634, 33.11536
870.9455, 23.31079
871.4276, 14.49670
871.9097, 6.969604
872.3918, 3.286621
872.8740, 8.012329
873.3561, 14.86731
873.8382, 18.15515
874.3203, 18.46631
874.8024, 20.15637
875.2845, 28.47144
875.7667, 32.81116
876.2488, 28.25671
876.7309, 18.05664
877.2130, 17.19128
877.6951, 25.66895
878.1772, 32.24097
878.6594, 31.94470
879.1415, 27.26294
879.6236, 17.04346
880.1057, 4.980103
880.5878, 0.5875240
881.0699, 15.98193
881.5521, 29.93225
882.0342, 35.84680
882.5163, 36.21594
882.9984, 35.05383
883.4805, 31.57812
883.9626, 31.11267
884.4448, 35.68140
884.9269, 42.27075
885.4090, 47.67371
885.8911, 51.23987
886.3732, 50.88110
886.8553, 39.87219
887.3375, 34.63220
887.8196, 51.76526
888.3017, 75.29163
888.7838, 81.07031
889.2659, 56.02771
889.7480, 47.89526
890.2302, 65.38733
890.7123, 88.22961
891.1944, 86.98035
891.6765, 68.78296
892.1586, 56.37939
892.6407, 54.35657
893.1229, 56.15942
893.6050, 61.48779
894.0871, 65.76892
894.5692, 63.78357
895.0513, 49.22217
895.5334, 41.73596
896.0156, 44.43408
896.4977, 50.15906
896.9798, 52.79712
897.4619, 52.81934
897.9440, 53.70386
898.4261, 55.59998
898.9083, 57.96082
899.3904, 63.58911
899.8725, 67.27014
900.3546, 62.70630
900.8367, 47.01599
901.3188, 33.37769
901.8010, 22.36389
902.2831, 20.01660
902.7652, 31.59790
903.2473, 53.40125
903.7294, 58.12683
904.2115, 47.26917
904.6937, 36.19214
905.1758, 35.09985
905.6579, 37.69397
906.1400, 38.13025
906.6221, 36.84570
907.1042, 35.91174
907.5864, 35.14294
908.0685, 35.57153
908.5506, 37.14136
909.0327, 39.58813
909.5148, 43.03735
909.9969, 47.74634
910.4791, 47.24939
910.9612, 36.17114
911.4433, 25.93481
911.9254, 33.65466
912.4075, 50.76807
912.8896, 63.13110
913.3718, 66.69458
913.8539, 67.09131
914.3360, 63.33643
914.8181, 57.32898
915.3002, 51.24561
915.7823, 44.60852
916.2645, 39.23718
916.7466, 35.70264
917.2287, 35.21448
917.7108, 43.84680
918.1929, 53.58618
918.6750, 50.67969
919.1572, 27.39648
919.6393, 11.46912
920.1214, 16.11633
920.6035, 27.94751
921.0856, 40.30640
921.5677, 54.11450
922.0499, 55.84692
922.5320, 45.47180
923.0141, 31.96289
923.4962, 17.51672
923.9783, 5.759888
924.4604, 4.786865
924.9426, 14.35510
925.4247, 22.84778
925.9068, 25.24194
926.3889, 25.34644
926.8710, 23.19556
927.3531, 20.33630
927.8353, 26.79883
928.3174, 43.88770
928.7995, 56.73828
929.2816, 57.83313
929.7637, 51.85449
930.2459, 41.35632
930.7280, 29.73633
931.2101, 25.09094
931.6923, 35.27258
932.1744, 47.03223
932.6565, 63.58984
933.1386, 76.47437
933.6207, 65.94031
934.1028, 26.11560
934.5850, 6.680420
935.0671, 20.89197
935.5492, 45.43335
936.0313, 51.61633
936.5134, 46.36182
936.9955, 40.63623
937.4777, 36.19604
937.9598, 33.40942
938.4419, 34.79395
938.9240, 37.19543
939.4061, 37.60608
939.8882, 35.20166
940.3704, 35.77539
940.8525, 39.93274
941.3346, 42.53650
941.8167, 37.07336
942.2988, 28.66284
942.7809, 24.47681
943.2631, 24.81323
943.7452, 25.97986
944.2273, 26.81604
944.7094, 27.91052
945.1915, 29.01819
945.6736, 30.62097
946.1558, 36.58142
946.6379, 47.77917
947.1200, 54.40735
947.6021, 51.17969
948.0842, 42.48938
948.5663, 31.05774
949.0485, 18.64783
949.5306, 9.233276
950.0127, 0.5457760
950.4948, 0.3259280
950.9769, 15.74182
951.4590, 35.51489
951.9412, 41.54114
952.4233, 33.28967
952.9054, 32.18237
953.3875, 43.17700
953.8696, 52.93335
954.3517, 44.01855
954.8339, 27.39575
955.3160, 17.36487
955.7981, 18.32056
956.2802, 17.81189
956.7623, 8.800293
957.2444, 3.582764
957.7266, 13.08118
958.2087, 35.54150
958.6908, 45.02820
959.1729, 42.31726
959.6550, 36.59521
960.1371, 31.79150
960.6193, 28.61902
961.1014, 29.53662
961.5835, 33.13940
962.0656, 32.31897
962.5477, 19.07507
963.0298, 11.93555
963.5120, 17.00134
963.9941, 28.65210
964.4762, 33.78052
964.9583, 33.00098
965.4404, 29.41638
965.9225, 22.21204
966.4047, 16.55066
966.8868, 16.06494
967.3689, 19.68115
967.8510, 26.45593
968.3331, 43.33752
968.8152, 49.25720
969.2974, 40.43628
969.7795, 27.64685
970.2616, 20.19690
970.7437, 17.73157
971.2258, 20.93042
971.7079, 29.61182
972.1901, 35.92932
972.6722, 32.71741
973.1543, 26.53101
973.6364, 21.01257
974.1185, 16.43665
974.6006, 14.28931
975.0828, 15.03870
975.5649, 16.72021
976.0470, 19.02686
976.5291, 21.23181
977.0112, 20.70984
977.4933, 18.76868
977.9755, 19.23975
978.4576, 27.17419
978.9397, 33.56067
979.4218, 35.51880
979.9039, 34.00989
980.3860, 28.92285
980.8682, 18.55322
981.3503, 16.03577
981.8324, 23.72522
982.3145, 33.59875
982.7966, 40.66321
983.2787, 42.43018
983.7609, 36.24194
984.2430, 20.62549
984.7251, 10.44690
985.2072, 18.01526
985.6893, 23.70349
986.1714, 17.02124
986.6536, 0.3754880
987.1357, 4.827759
987.6178, 1.023193
988.0999, 7.039429
988.5820, 5.498047
989.0641, 3.278198
989.5463, 9.141846
990.0284, 19.13831
990.5105, 23.99866
990.9926, 12.86169
991.4747, 12.05505
991.9568, 29.59021
992.4390, 49.96851
992.9211, 47.18445
993.4032, 27.32288
993.8853, 17.47314
994.3674, 23.33008
994.8495, 28.04309
995.3317, 11.36951
995.8138, 4.763916
996.2959, 2.942627
996.7780, 39.51062
997.2601, 50.56763
997.7422, 28.81433
998.2244, 7.857178
998.7065, 9.458740
999.1886, 22.45349
999.6707, 20.30457
1000.153, 8.080566
1000.635, 3.154419
1001.117, 23.70984
1001.599, 40.33118
1002.081, 43.03845
1002.563, 36.15955
1003.046, 23.01709
1003.528, 2.519409
1004.010, 8.922852
1004.492, 8.173584
1004.974, 1.706665
1005.456, 7.475342
1005.938, 16.35010
1006.420, 20.89868
1006.902, 19.68591
1007.385, 19.10547
1007.867, 20.28650
1008.349, 21.77808
1008.831, 23.41711
1009.313, 24.75818
1009.795, 23.44934
1010.277, 19.72400
1010.759, 14.92920
1011.242, 4.485596
1011.724, 1.356445
1012.206, 7.230835
1012.688, 24.45825
1013.170, 38.34497
1013.652, 52.42517
1014.134, 47.94653
1014.616, 17.27954
1015.098, 16.05798
1015.581, 20.10449
1016.063, 5.288330
1016.545, 10.70776
1017.027, 25.94641
1017.509, 35.07825
1017.991, 31.19336
1018.473, 25.41699
1018.955, 24.05103
1019.438, 26.27625
1019.920, 21.98291
1020.402, 11.19788
1020.884, 3.189331
1021.366, 3.311646
1021.848, 7.926514
1022.330, 17.71313
1022.812, 28.60620
1023.294, 32.06006
1023.777, 19.64136
1024.259, 11.19849
1024.741, 9.318115
1025.223, 9.228149
1025.705, 3.186523
1026.187, 5.840942
1026.669, 6.872803
1027.151, 1.425903
1027.633, 10.22583
1028.116, 18.13306
1028.598, 21.30652
1029.080, 12.98718
1029.562, 3.985840
1030.044, 3.685791
1030.526, 16.58667
1031.008, 31.26257
1031.490, 26.56665
1031.973, 16.89197
1032.455, 26.33252
1032.937, 43.83545
1033.419, 49.63147
1033.901, 24.37903
1034.383, 7.816650
1034.865, 4.166626
1035.347, 7.885376
1035.829, 17.71582
1036.312, 31.25647
1036.794, 30.64966
1037.276, 15.82800
1037.758, 6.679443
1038.240, 30.81531
1038.722, 52.18042
1039.204, 38.93091
1039.686, 0.4786380
1040.168, 15.11768
1040.651, 1.056641
1041.133, 13.53406
1041.615, 11.94531
1042.097, 4.920776
1042.579, 2.664185
1043.061, 4.658813
1043.543, 11.37378
1044.025, 28.00781
1044.508, 34.76282
1044.990, 19.38477
1045.472, 4.197388
1045.954, 5.222778
1046.436, 20.49097
1046.918, 26.69470
1047.400, 24.42188
1047.882, 19.84521
1048.365, 12.09277
1048.847, 7.830811
1049.329, 14.52893
1049.811, 27.86377
1050.293, 35.03540
1050.775, 33.56055
1051.257, 35.18811
1051.739, 42.77502
1052.221, 50.03748
1052.703, 47.80432
1053.186, 40.60962
1053.668, 34.72180
1054.150, 31.53784
1054.632, 30.95264
1055.114, 34.47681
1055.596, 38.95044
1056.078, 44.86780
1056.560, 50.36829
1057.043, 41.77332
1057.525, 22.45374
1058.007, 15.40271
1058.489, 43.88318
1058.971, 68.83704
1059.453, 58.22046
1059.935, 32.79932
1060.417, 22.98267
1060.900, 35.17053
1061.382, 42.27417
1061.864, 42.47949
1062.346, 40.03589
1062.828, 37.90527
1063.310, 35.61084
1063.792, 32.47083
1064.274, 28.60059
1064.756, 25.05347
1065.239, 15.35327
1065.721, 16.98621
1066.203, 40.51733
1066.685, 70.33887
1067.167, 69.33594
1067.649, 45.19604
1068.131, 33.11560
1068.613, 45.75244
1069.095, 57.60815
1069.578, 48.49829
1070.060, 35.91553
1070.542, 35.33716
1071.024, 47.49670
1071.506, 44.52991
1071.988, 25.00964
1072.470, 9.199219
1072.952, 11.71912
1073.435, 20.19104
1073.917, 20.49036
1074.399, 16.14465
1074.881, 16.34851
1075.363, 26.04529
1075.845, 35.99768
1076.327, 46.81250
1076.809, 55.21118
1077.292, 57.67554
1077.774, 54.84729
1078.256, 46.39709
1078.738, 32.68848
1079.220, 21.63062
1079.702, 19.36646
1080.184, 18.08984
1080.666, 14.05591
1081.148, 8.733643
1081.630, 7.124146
1082.113, 9.034302
1082.595, 10.08093
1083.077, 8.011475
1083.559, 7.901489
1084.041, 18.69861
1084.523, 30.81653
1085.005, 32.09216
1085.487, 17.54089
1085.970, 14.18164
1086.452, 24.54675
1086.934, 34.85168
1087.416, 33.26611
1087.898, 28.60742
1088.380, 41.41663
1088.862, 62.68457
1089.344, 69.03772
1089.827, 29.42639
1090.309, 7.339355
1090.791, 15.49316
1091.273, 34.81763
1091.755, 44.61487
1092.237, 46.37500
1092.719, 43.20203
1093.201, 35.65967
1093.683, 31.61316
1094.166, 43.15820
1094.648, 51.62000
1095.130, 43.33862
1095.612, 25.17493
1096.094, 19.34973
1096.576, 25.92883
1097.058, 32.58728
1097.540, 37.03748
1098.023, 36.54871
1098.505, 25.34021
1098.987, 12.34827
1099.469, 9.490112
1099.951, 20.98877
1100.433, 24.93079
1100.915, 18.14355
1101.397, 14.25562
1101.880, 25.73926
1102.362, 40.60278
1102.844, 33.64929
1103.326, 13.64575
1103.808, 0.4750980
1104.290, 5.574097
1104.772, 12.17322
1105.254, 21.14343
1105.736, 27.09229
1106.219, 21.72791
1106.701, 8.510132
1107.183, 1.750122
1107.665, 1.729736
1108.147, 4.323242
1108.629, 7.557495
1109.111, 12.65454
1109.593, 22.24292
1110.075, 33.10498
1110.558, 39.27197
1111.040, 40.72058
1111.522, 36.60999
1112.004, 25.09827
1112.486, 18.69421
1112.968, 34.66589
1113.450, 56.08423
1113.932, 69.66406
1114.415, 74.40881
1114.897, 64.28198
1115.379, 35.41199
1115.861, 12.10449
1116.343, 4.963867
1116.825, 6.266846
1117.307, 7.553345
1117.789, 9.109619
1118.271, 11.61145
1118.754, 16.97192
1119.236, 18.37805
1119.718, 12.34924
1120.200, 9.494019
1120.682, 21.95203
1121.164, 42.20471
1121.646, 47.38782
1122.128, 41.36511
1122.610, 35.99939
1123.093, 42.86133
1123.575, 40.32776
1124.057, 15.91772
1124.539, 10.94897
1125.021, 11.47961
1125.503, 9.199097
1125.985, 18.50049
1126.467, 13.97351
1126.950, 6.682739
1127.432, 3.520752
1127.914, 7.112427
1128.396, 6.436035
1128.878, 29.59399
1129.360, 43.57361
1129.842, 48.33350
1130.324, 45.07300
1130.807, 32.02307
1131.289, 20.15466
1131.771, 18.58020
1132.253, 23.60498
1132.735, 35.25635
1133.217, 53.84717
1133.699, 57.30542
1134.181, 42.96594
1134.663, 27.70801
1135.146, 17.10449
1135.628, 11.81323
1136.110, 15.20862
1136.592, 23.57629
1137.074, 31.54834
1137.556, 40.96777
1138.038, 41.63257
1138.520, 30.43286
1139.002, 18.16455
1139.485, 10.79346
1139.967, 8.441406
1140.449, 14.97620
1140.931, 26.83118
1141.413, 32.56775
1141.895, 19.93701
1142.377, 12.08704
1142.859, 13.82971
1143.342, 18.94055
1143.824, 20.96875
1144.306, 20.42444
1144.788, 19.30127
1145.270, 17.62952
1145.752, 14.01404
1146.234, 2.427734
1146.716, 4.644165
1147.198, 0.6009520
1147.681, 8.946411
1148.163, 10.52820
1148.645, 5.913208
1149.127, 11.07849
1149.609, 30.69226
1150.091, 47.48206
1150.573, 52.95801
1151.055, 49.96130
1151.537, 35.69666
1152.020, 14.26526
1152.502, 9.429199
1152.984, 21.10217
1153.466, 30.01941
1153.948, 29.12805
1154.430, 27.10754
1154.912, 33.07031
1155.394, 39.88440
1155.877, 39.77332
1156.359, 32.26624
1156.841, 21.40027
1157.323, 6.248291
1157.805, 3.751587
1158.287, 2.564819
1158.769, 5.160278
1159.251, 19.02539
1159.734, 34.38660
1160.216, 43.16370
1160.698, 44.62012
1161.180, 36.81311
1161.662, 16.58105
1162.144, 0.9934080
1162.626, 10.28198
1163.108, 26.89575
1163.590, 23.76428
1164.073, 7.661743
1164.555, 2.457031
1165.037, 24.59924
1165.519, 37.78442
1166.001, 37.78638
1166.483, 31.80139
1166.965, 22.68481
1167.447, 13.56531
1167.929, 15.05554
1168.412, 26.56274
1168.894, 33.36951
1169.376, 24.11914
1169.858, 19.82458
1170.340, 25.11365
1170.822, 36.12952
1171.304, 51.47510
1171.786, 66.84448
1172.269, 69.57458
1172.751, 57.33643
1173.233, 43.48804
1173.715, 28.28711
1174.197, 18.38000
1174.679, 17.34766
1175.161, 21.81995
1175.643, 22.45593
1176.125, 21.01355
1176.608, 24.63806
1177.090, 37.78369
1177.572, 45.69739
1178.054, 39.93274
1178.536, 28.42480
1179.018, 11.72827
1179.500, 6.825439
1179.982, 8.911621
1180.464, 2.806763
1180.947, 15.59546
1181.429, 26.88367
1181.911, 33.94446
1182.393, 31.61523
1182.875, 27.23889
1183.357, 27.62292
1183.839, 31.74231
1184.321, 26.33350
1184.804, 13.28833
1185.286, 7.851074
1185.768, 31.37256
1186.250, 50.45349
1186.732, 40.93469
1187.214, 21.60791
1187.696, 13.34863
1188.178, 16.39429
1188.661, 23.83423
1189.143, 34.73364
1189.625, 41.13794
1190.107, 31.18579
1190.589, 21.62549
1191.071, 25.42859
1191.553, 35.68420
1192.035, 39.34265
1192.517, 35.88953
1193.000, 19.51514
1193.482, 39.38940
1193.964, 49.69617
1194.446, 50.96277
1194.928, 15.39380
1195.410, 27.94165
1195.892, 21.54211
1196.374, 14.59717
1196.856, 34.60278
1197.339, 5.627319
1197.821, 25.69019
1198.303, 26.51489
1198.785, 36.49438
1199.267, 27.41040
1199.749, 24.53064
1200.231, 41.20068
1200.713, 47.41943
1201.196, 37.07898
1201.678, 49.06787
1202.160, 21.82336
1202.642, 29.45837
1203.124, 52.27856
1203.606, 44.10559
1204.088, 57.64929
1204.570, 63.03906
1205.052, 31.68896
1205.535, 49.29443
1206.017, 42.01929
1206.499, 15.30798
1206.981, 6.144287
1207.463, 12.59021
1207.945, 43.63330
1208.427, 53.74622
1208.909, 40.19446
1209.391, 36.24646
1209.874, 43.04517
1210.356, 41.92139
1210.838, 18.30029
1211.320, 6.108398
1211.802, 11.35828
1212.284, 3.973511
1212.766, 9.895508
1213.248, 32.52612
1213.731, 40.02625
1214.213, 31.23315
1214.695, 23.05261
1215.177, 26.25330
1215.659, 32.93396
1216.141, 40.92810
1216.623, 46.08508
1217.105, 40.38379
1217.588, 18.85876
1218.070, 7.877197
1218.552, 8.177856
1219.034, 9.412109
1219.516, 2.435181
1219.998, 9.939331
1220.480, 12.44958
1220.962, 46.70605
1221.444, 56.75598
1221.927, 36.07434
1222.409, 20.04810
1222.891, 10.25049
1223.373, 3.336060
1223.855, 6.003174
1224.337, 11.08716
1224.819, 2.239868
1225.301, 14.30237
1225.783, 22.38318
1226.266, 20.31042
1226.748, 21.37000
1227.230, 27.01123
1227.712, 30.96484
1228.194, 25.73987
1228.676, 19.06433
1229.158, 14.41418
1229.640, 13.78357
1230.123, 24.16101
1230.605, 47.92615
1231.087, 55.95557
1231.569, 43.63330
1232.051, 29.82434
1232.533, 33.73169
1233.015, 38.88867
1233.497, 29.23950
1233.979, 11.11487
1234.462, 4.798828
1234.944, 10.67200
1235.426, 14.93750
1235.908, 15.04980
1236.390, 16.82715
1236.872, 29.21497
1237.354, 40.40564
1237.836, 41.83667
1238.318, 36.96729
1238.801, 32.32483
1239.283, 27.82117
1239.765, 21.39331
1240.247, 11.76379
1240.729, 6.058350
1241.211, 15.83398
1241.693, 24.78027
1242.175, 20.63354
1242.658, 7.849854
1243.140, 1.595459
1243.622, 1.412476
1244.104, 4.061401
1244.586, 9.675415
1245.068, 12.76843
1245.550, 3.244507
1246.032, 2.593262
1246.515, 6.759399
1246.997, 25.74609
1247.479, 32.89612
1247.961, 30.01978
1248.443, 26.12073
1248.925, 23.22620
1249.407, 21.50720
1249.889, 18.32507
1250.371, 20.03760
1250.854, 32.54492
1251.336, 50.89429
1251.818, 56.81250
1252.300, 53.12915
1252.782, 50.09558
1253.264, 51.87561
1253.746, 50.24805
1254.228, 40.09509
1254.710, 28.61108
1255.193, 17.59656
1255.675, 8.770752
1256.157, 9.420044
1256.639, 16.52734
1257.121, 21.31067
1257.603, 21.10742
1258.085, 19.76807
1258.567, 16.75781
1259.050, 15.06921
1259.532, 16.14978
1260.014, 19.92297
1260.496, 29.43762
1260.978, 40.89636
1261.460, 45.68628
1261.942, 39.26611
1262.424, 30.13013
1262.906, 15.44092
1263.389, 7.098755
1263.871, 14.86804
1264.353, 28.01465
1264.835, 26.83386
1265.317, 16.96118
1265.799, 11.02869
1266.281, 10.91675
1266.763, 10.90088
1267.245, 11.11023
1267.728, 10.78796
1268.210, 9.092773
1268.692, 7.046509
1269.174, 2.009888
1269.656, 0.2788090
1270.138, 6.746826
1270.620, 28.95288
1271.102, 31.79785
1271.585, 13.32837
1272.067, 1.883789
1272.549, 18.15076
1273.031, 39.25806
1273.513, 47.79639
1273.995, 47.76990
1274.477, 44.69800
1274.959, 38.30615
1275.442, 33.88562
1275.924, 31.30432
1276.406, 27.40649
1276.888, 15.29346
1277.370, 7.222778
1277.852, 14.75989
1278.334, 27.02307
1278.816, 33.06616
1279.298, 33.03394
1279.781, 29.25964
1280.263, 22.86926
1280.745, 21.43054
1281.227, 36.88232
1281.709, 47.83545
1282.191, 45.28174
1282.673, 37.47217
1283.155, 28.09277
1283.637, 18.17407
1284.120, 11.85632
1284.602, 9.835083
1285.084, 14.78284
1285.566, 41.95801
1286.048, 53.66345
1286.530, 39.99438
1287.012, 21.26440
1287.494, 14.06348
1287.977, 14.66077
1288.459, 16.97681
1288.941, 19.68835
1289.423, 19.28918
1289.905, 4.520142
1290.387, 7.655029
1290.869, 35.53528
1291.351, 59.47546
1291.833, 47.88013
1292.316, 25.86731
1292.798, 28.94043
1293.280, 47.19336
1293.762, 56.90051
1294.244, 54.50049
1294.726, 49.94543
1295.208, 43.28589
1295.690, 35.22839
1296.172, 18.93030
1296.655, 8.815186
1297.137, 26.74402
1297.619, 53.63782
1298.101, 57.45508
1298.583, 35.37451
1299.065, 22.81091
1299.547, 19.95789
1300.029, 18.96790
1300.512, 15.48901
1300.994, 12.18372
1301.476, 9.520264
1301.958, 8.379272
1302.440, 10.58875
1302.922, 15.45325
1303.404, 18.08423
1303.886, 18.51294
1304.369, 17.46057
1304.851, 11.57776
1305.333, 10.05945
1305.815, 16.33484
1306.297, 23.42126
1306.779, 24.81885
1307.261, 22.47192
1307.743, 20.82227
1308.225, 19.60754
1308.708, 17.93652
1309.190, 14.72131
1309.672, 12.04333
1310.154, 9.364502
1310.636, 9.292480
1311.118, 15.45361
1311.600, 24.02966
1312.082, 34.70996
1312.564, 42.89319
1313.047, 36.83765
1313.529, 9.228638
1314.011, 2.030029
1314.493, 3.862915
1314.975, 13.49939
1315.457, 21.36279
1315.939, 26.13684
1316.421, 13.26013
1316.904, 5.762573
1317.386, 1.447144
1317.868, 0.0000000E+00
##END=



