##NAMES=Spurrite
##RRUFFID=R070632
##IDEAL CHEMISTRY=Ca_5_(SiO_4_)_2_(CO_3_)
##LOCALITY=Huka, Okayama, Japan
##OWNER=RRUFF
##SOURCE=Shinichi Kihara
##DESCRIPTION=Massive lavender fragment
##STATUS=The identification of this mineral has been confirmed by single-crystal X-ray diffraction.
##URL=rruff.info/R070632
94.88153, 0.0000000E+00
95.36365, 19.07507
95.84576, 2.562378
96.32788, 5.451416
96.81000, 27.87695
97.29211, 98.03418
97.77423, 182.7340
98.25635, 258.8640
98.73846, 320.9188
99.22058, 384.9285
99.70270, 448.6023
100.1848, 514.5624
100.6669, 585.8418
101.1491, 662.9399
101.6312, 744.2322
102.1133, 762.9019
102.5954, 780.8542
103.0775, 795.4209
103.5596, 798.2063
104.0418, 794.8499
104.5239, 807.2244
105.0060, 853.6172
105.4881, 913.4263
105.9702, 955.5764
106.4523, 975.8665
106.9345, 981.1692
107.4166, 981.0137
107.8987, 979.6699
108.3808, 956.1499
108.8629, 890.9326
109.3450, 802.1643
109.8272, 709.1550
110.3093, 618.2295
110.7914, 529.7576
111.2735, 444.7419
111.7556, 355.4871
112.2377, 280.1819
112.7199, 227.8589
113.2020, 193.9592
113.6841, 167.7449
114.1662, 140.3289
114.6483, 111.4727
115.1304, 81.46655
115.6126, 38.84058
116.0947, 3.193848
116.5768, 11.54370
117.0589, 4.362793
117.5410, 13.09961
118.0231, 22.11499
118.5053, 11.70166
118.9874, 8.388428
119.4695, 13.56958
119.9516, 25.13916
120.4337, 41.37817
120.9158, 61.88550
121.3980, 85.85425
121.8801, 110.9429
122.3622, 133.0283
122.8443, 160.0962
123.3264, 199.1274
123.8085, 247.0591
124.2907, 291.5945
124.7728, 323.8125
125.2549, 346.9548
125.7370, 375.5117
126.2191, 417.9692
126.7012, 461.2891
127.1834, 495.5176
127.6655, 521.7932
128.1476, 534.1130
128.6297, 519.6040
129.1118, 488.1580
129.5939, 455.6672
130.0761, 427.9189
130.5582, 403.9077
131.0403, 380.1860
131.5224, 358.0571
132.0045, 334.3115
132.4866, 305.6790
132.9688, 273.5232
133.4509, 242.8972
133.9330, 215.2607
134.4151, 189.2812
134.8972, 177.0117
135.3793, 185.6436
135.8615, 203.8311
136.3436, 230.4092
136.8257, 263.7849
137.3078, 299.1296
137.7899, 328.7412
138.2720, 348.5083
138.7542, 370.2786
139.2363, 391.1926
139.7184, 415.5161
140.2005, 448.3826
140.6826, 491.5471
141.1647, 541.2922
141.6469, 586.5842
142.1290, 614.5562
142.6111, 652.2781
143.0932, 706.9221
143.5753, 772.4292
144.0574, 840.5320
144.5396, 907.8579
145.0217, 973.4600
145.5038, 1029.365
145.9859, 1060.480
146.4680, 1101.017
146.9502, 1168.705
147.4323, 1255.371
147.9144, 1344.307
148.3965, 1427.345
148.8786, 1504.880
149.3607, 1578.189
149.8429, 1660.788
150.3250, 1732.322
150.8071, 1773.908
151.2892, 1786.620
151.7713, 1781.789
152.2534, 1752.603
152.7356, 1690.624
153.2177, 1626.720
153.6998, 1562.613
154.1819, 1502.990
154.6640, 1457.809
155.1461, 1430.793
155.6283, 1416.205
156.1104, 1406.752
156.5925, 1402.838
157.0746, 1408.114
157.5567, 1425.965
158.0388, 1456.213
158.5210, 1493.381
159.0031, 1533.999
159.4852, 1584.691
159.9673, 1653.098
160.4494, 1738.920
160.9315, 1829.865
161.4137, 1916.776
161.8958, 2005.338
162.3779, 2068.649
162.8600, 2099.082
163.3421, 2108.623
163.8242, 2102.963
164.3064, 2084.037
164.7885, 2052.075
165.2706, 2004.965
165.7527, 1924.736
166.2348, 1858.275
166.7169, 1808.894
167.1991, 1774.890
167.6812, 1754.642
168.1633, 1747.305
168.6454, 1752.749
169.1275, 1770.760
169.6096, 1803.443
170.0918, 1847.729
170.5739, 1921.330
171.0560, 2005.027
171.5381, 2070.638
172.0202, 2101.601
172.5023, 2098.013
172.9845, 2058.334
173.4666, 1970.944
173.9487, 1868.590
174.4308, 1759.381
174.9129, 1644.493
175.3951, 1522.514
175.8772, 1388.204
176.3593, 1241.233
176.8414, 1117.953
177.3235, 1018.179
177.8056, 938.8115
178.2878, 884.6294
178.7699, 854.8782
179.2520, 828.6428
179.7341, 784.7937
180.2162, 723.4434
180.6983, 668.6948
181.1805, 627.0706
181.6626, 591.9143
182.1447, 556.9253
182.6268, 522.4763
183.1089, 483.7979
183.5910, 429.2292
184.0732, 361.9512
184.5553, 304.6038
185.0374, 270.1514
185.5195, 251.0381
186.0016, 228.6489
186.4837, 197.0925
186.9659, 166.7117
187.4480, 146.9604
187.9301, 137.0273
188.4122, 130.4092
188.8943, 125.0537
189.3764, 120.5293
189.8586, 112.6687
190.3407, 96.75854
190.8228, 81.20801
191.3049, 72.86011
191.7870, 71.91626
192.2691, 72.60913
192.7513, 69.99902
193.2334, 63.87085
193.7155, 56.59741
194.1976, 45.88525
194.6797, 35.78101
195.1618, 30.00122
195.6440, 29.06689
196.1261, 27.95703
196.6082, 19.33301
197.0903, 0.1513670
197.5724, 17.52319
198.0546, 36.55933
198.5367, 50.88989
199.0188, 54.53369
199.5009, 45.75732
199.9830, 29.98315
200.4651, 16.89453
200.9473, 7.299561
201.4294, 0.7604980
201.9115, 9.171387
202.3936, 15.76660
202.8757, 17.69116
203.3578, 13.72827
203.8400, 6.491455
204.3221, 3.155029
204.8042, 9.969727
205.2863, 12.43433
205.7684, 9.681396
206.2505, 1.979736
206.7327, 11.02930
207.2148, 29.65845
207.6969, 52.61206
208.1790, 74.80542
208.6611, 110.6226
209.1432, 129.1392
209.6254, 115.7600
210.1075, 84.16479
210.5896, 53.90747
211.0717, 35.92480
211.5538, 28.56592
212.0359, 20.38306
212.5181, 13.33325
213.0002, 3.493896
213.4823, 12.36157
213.9644, 31.88184
214.4465, 50.11816
214.9286, 64.03003
215.4108, 73.87451
215.8929, 83.46777
216.3750, 87.94653
216.8571, 96.88721
217.3392, 112.1743
217.8214, 134.6836
218.3035, 168.0605
218.7856, 218.3621
219.2677, 283.0662
219.7498, 330.2188
220.2319, 343.1230
220.7141, 355.4575
221.1962, 386.7551
221.6783, 435.3279
222.1604, 487.6414
222.6425, 536.3208
223.1246, 580.0540
223.6068, 615.1226
224.0889, 640.7561
224.5710, 658.6248
225.0531, 670.4871
225.5352, 676.2104
226.0173, 673.2227
226.4995, 657.6660
226.9816, 630.1826
227.4637, 601.0757
227.9458, 575.2051
228.4279, 545.1768
228.9100, 499.2915
229.3922, 436.1675
229.8743, 376.7078
230.3564, 337.7002
230.8385, 316.2300
231.3206, 301.3340
231.8027, 295.0667
232.2849, 292.7556
232.7670, 287.8171
233.2491, 279.0227
233.7312, 273.7258
234.2133, 283.8931
234.6954, 302.5151
235.1776, 311.7310
235.6597, 300.3718
236.1418, 279.3364
236.6239, 263.0986
237.1060, 251.4146
237.5881, 246.7009
238.0703, 258.5508
238.5524, 278.9922
239.0345, 291.5752
239.5166, 286.3066
239.9987, 270.7429
240.4808, 257.6963
240.9630, 246.7744
241.4451, 240.0249
241.9272, 241.1367
242.4093, 247.0813
242.8914, 252.3835
243.3735, 250.3340
243.8557, 246.6841
244.3378, 256.0210
244.8199, 282.6851
245.3020, 313.3130
245.7841, 343.0869
246.2662, 371.1006
246.7484, 394.3879
247.2305, 407.1235
247.7126, 414.4329
248.1947, 430.8914
248.6768, 458.1172
249.1589, 491.9521
249.6411, 533.7327
250.1232, 579.3987
250.6053, 621.7991
251.0874, 655.9854
251.5695, 684.1724
252.0517, 713.5718
252.5338, 746.7483
253.0159, 776.5430
253.4980, 795.4685
253.9801, 809.3359
254.4622, 829.3589
254.9444, 866.9419
255.4265, 913.9146
255.9086, 941.8438
256.3907, 943.4084
256.8728, 936.4697
257.3549, 921.2634
257.8370, 906.0452
258.3192, 904.8828
258.8013, 931.5701
259.2834, 976.2217
259.7655, 1000.708
260.2476, 988.7437
260.7297, 981.2373
261.2119, 991.0479
261.6940, 1015.656
262.1761, 1052.304
262.6582, 1103.709
263.1403, 1164.109
263.6224, 1209.921
264.1046, 1234.705
264.5867, 1251.960
265.0688, 1262.854
265.5509, 1271.540
266.0330, 1284.732
266.5151, 1307.857
266.9973, 1334.862
267.4794, 1343.339
267.9615, 1326.104
268.4436, 1303.953
268.9258, 1280.462
269.4079, 1253.381
269.8900, 1222.601
270.3721, 1188.464
270.8542, 1152.401
271.3363, 1116.017
271.8185, 1071.851
272.3006, 1040.970
272.7827, 1035.395
273.2648, 1041.249
273.7469, 1041.995
274.2290, 1028.947
274.7112, 1007.160
275.1933, 990.6750
275.6754, 983.4111
276.1575, 975.4312
276.6396, 963.8215
277.1217, 951.1328
277.6039, 940.1978
278.0860, 932.4990
278.5681, 925.6414
279.0502, 912.9951
279.5323, 888.8687
280.0144, 870.6055
280.4966, 868.1995
280.9787, 869.5022
281.4608, 863.1528
281.9429, 844.7976
282.4250, 818.7749
282.9071, 792.9966
283.3893, 767.0864
283.8714, 742.4731
284.3535, 713.8535
284.8356, 689.2732
285.3177, 677.9324
285.7998, 682.8804
286.2820, 694.1121
286.7641, 694.8845
287.2462, 681.9910
287.7283, 666.9365
288.2104, 647.4089
288.6925, 629.0750
289.1747, 615.7083
289.6568, 608.3210
290.1389, 605.8711
290.6210, 608.7332
291.1031, 620.1807
291.5852, 625.7458
292.0674, 618.6135
292.5495, 608.7415
293.0316, 601.4663
293.5137, 597.8792
293.9958, 596.4448
294.4779, 594.0247
294.9601, 588.7041
295.4422, 591.3625
295.9243, 618.3833
296.4064, 642.2322
296.8885, 648.9370
297.3706, 637.4346
297.8528, 615.4604
298.3349, 584.2563
298.8170, 540.7490
299.2991, 516.4902
299.7812, 534.8601
300.2633, 555.1877
300.7455, 559.0784
301.2276, 547.4690
301.7097, 531.4932
302.1918, 522.2529
302.6739, 520.0063
303.1560, 508.0479
303.6382, 473.9158
304.1203, 442.9861
304.6024, 428.2720
305.0845, 426.1482
305.5666, 425.4082
306.0487, 418.6794
306.5309, 406.5671
307.0130, 393.6458
307.4951, 379.8459
307.9772, 365.2153
308.4593, 349.2307
308.9414, 332.5444
309.4236, 316.1035
309.9057, 298.8884
310.3878, 282.8054
310.8699, 276.1406
311.3520, 286.4060
311.8341, 291.7507
312.3163, 278.3953
312.7984, 256.1792
313.2805, 238.9365
313.7626, 233.7117
314.2447, 235.3997
314.7268, 234.4209
315.2090, 230.7578
315.6911, 224.3611
316.1732, 210.1462
316.6553, 195.2036
317.1374, 189.4456
317.6195, 199.7607
318.1017, 210.7410
318.5838, 198.9470
319.0659, 160.6914
319.5480, 121.7278
320.0301, 85.65088
320.5122, 55.83618
320.9944, 38.10278
321.4765, 35.47070
321.9586, 34.93115
322.4407, 22.37207
322.9228, 1.304688
323.4049, 21.11865
323.8871, 31.04028
324.3692, 37.59741
324.8513, 50.28931
325.3334, 70.63477
325.8155, 82.62231
326.2976, 68.58545
326.7798, 34.17139
327.2619, 9.290771
327.7440, 1.087402
328.2261, 1.278564
328.7082, 3.973877
329.1903, 9.214355
329.6725, 11.43506
330.1546, 9.719971
330.6367, 2.622803
331.1188, 13.54810
331.6009, 39.97876
332.0830, 73.66992
332.5652, 116.3494
333.0473, 163.5149
333.5294, 200.5110
334.0115, 217.7285
334.4936, 226.3472
334.9757, 240.2085
335.4579, 260.0654
335.9400, 282.3877
336.4221, 305.1951
336.9042, 328.3601
337.3863, 350.6719
337.8684, 364.1604
338.3506, 382.7097
338.8327, 422.2742
339.3148, 480.9058
339.7969, 539.3647
340.2791, 587.3616
340.7612, 625.0481
341.2433, 656.8918
341.7254, 670.5093
342.2075, 692.1162
342.6896, 742.7642
343.1718, 812.9509
343.6539, 874.0586
344.1360, 911.9353
344.6181, 936.3342
345.1002, 973.5659
345.5823, 1030.154
346.0645, 1083.911
346.5466, 1124.634
347.0287, 1160.272
347.5108, 1203.767
347.9929, 1259.214
348.4750, 1320.227
348.9572, 1376.022
349.4393, 1425.031
349.9214, 1473.104
350.4035, 1524.404
350.8856, 1572.278
351.3677, 1608.439
351.8499, 1632.333
352.3320, 1654.547
352.8141, 1687.869
353.2962, 1737.861
353.7783, 1770.819
354.2604, 1778.741
354.7426, 1779.026
355.2247, 1782.178
355.7068, 1786.730
356.1889, 1783.606
356.6710, 1764.445
357.1531, 1729.490
357.6353, 1702.198
358.1174, 1692.417
358.5995, 1679.118
359.0816, 1654.481
359.5637, 1622.833
360.0458, 1592.496
360.5280, 1568.233
361.0101, 1547.087
361.4922, 1518.045
361.9743, 1477.231
362.4564, 1433.227
362.9385, 1387.104
363.4207, 1338.375
363.9028, 1284.207
364.3849, 1224.046
364.8670, 1164.110
365.3491, 1116.390
365.8312, 1088.017
366.3134, 1052.856
366.7955, 1007.308
367.2776, 956.2417
367.7597, 902.4541
368.2418, 846.0703
368.7239, 785.6660
369.2061, 714.6719
369.6882, 631.2295
370.1703, 565.7388
370.6524, 526.7373
371.1345, 498.7896
371.6166, 479.4790
372.0988, 465.6450
372.5809, 450.1870
373.0630, 429.2300
373.5451, 403.1211
374.0272, 370.0498
374.5093, 321.2520
374.9915, 285.0381
375.4736, 290.5225
375.9557, 312.6689
376.4378, 314.7041
376.9199, 277.3848
377.4020, 224.9800
377.8842, 190.8003
378.3663, 176.4336
378.8484, 155.1201
379.3305, 110.6558
379.8126, 58.00635
380.2947, 16.36719
380.7769, 12.30371
381.2590, 36.72656
381.7411, 61.32373
382.2232, 85.36621
382.7053, 107.5405
383.1874, 128.0537
383.6696, 146.2349
384.1517, 157.6855
384.6338, 161.0552
385.1159, 167.0293
385.5980, 184.5317
386.0801, 205.4429
386.5623, 218.2832
387.0444, 221.6187
387.5265, 223.2412
388.0086, 229.6011
388.4907, 240.5967
388.9728, 250.5957
389.4550, 269.7949
389.9371, 277.8818
390.4192, 254.4673
390.9013, 207.8994
391.3834, 166.6587
391.8655, 147.8433
392.3477, 146.9624
392.8298, 142.3237
393.3119, 132.7456
393.7940, 120.7642
394.2761, 107.1367
394.7582, 90.97803
395.2404, 73.98633
395.7225, 56.35742
396.2046, 31.96094
396.6867, 12.71094
397.1688, 100.3115
397.6509, 160.8501
398.1331, 169.5542
398.6152, 174.6084
399.0973, 208.2192
399.5794, 270.7896
400.0615, 342.5103
400.5436, 406.1514
401.0258, 461.4536
401.5079, 510.0894
401.9900, 544.6299
402.4721, 579.8867
402.9542, 621.4780
403.4363, 666.7993
403.9185, 711.3296
404.4006, 752.1143
404.8827, 791.2256
405.3648, 835.8032
405.8469, 891.0991
406.3290, 937.9775
406.8112, 966.3594
407.2933, 985.7412
407.7754, 999.5024
408.2575, 1007.140
408.7396, 1022.948
409.2217, 1072.114
409.7039, 1151.120
410.1860, 1202.260
410.6681, 1190.447
411.1502, 1177.965
411.6324, 1230.842
412.1145, 1343.358
412.5966, 1451.098
413.0787, 1522.701
413.5608, 1574.061
414.0429, 1626.718
414.5251, 1681.767
415.0072, 1745.044
415.4893, 1819.819
415.9714, 1907.323
416.4535, 2008.746
416.9356, 2133.436
417.4178, 2262.497
417.8999, 2390.253
418.3820, 2513.580
418.8641, 2621.588
419.3462, 2704.780
419.8283, 2778.955
420.3105, 2886.420
420.7926, 3052.812
421.2747, 3210.124
421.7568, 3345.990
422.2389, 3471.549
422.7210, 3594.350
423.2032, 3717.167
423.6853, 3842.937
424.1674, 3976.171
424.6495, 4117.591
425.1316, 4262.328
425.6137, 4424.368
426.0959, 4575.889
426.5780, 4692.805
427.0601, 4789.845
427.5422, 4903.829
428.0243, 5062.537
428.5064, 5252.068
428.9886, 5414.081
429.4707, 5535.849
429.9528, 5650.993
430.4349, 5753.272
430.9170, 5860.896
431.3991, 5996.263
431.8813, 6166.415
432.3634, 6344.567
432.8455, 6495.273
433.3276, 6617.670
433.8097, 6744.250
434.2918, 6884.778
434.7740, 7025.045
435.2561, 7149.674
435.7382, 7262.135
436.2203, 7384.673
436.7024, 7545.906
437.1845, 7719.392
437.6667, 7849.152
438.1488, 7925.216
438.6309, 8004.165
439.1130, 8129.751
439.5951, 8284.393
440.0772, 8413.426
440.5594, 8496.957
441.0415, 8574.524
441.5236, 8665.398
442.0057, 8768.209
442.4878, 8878.937
442.9699, 8997.691
443.4521, 9120.528
443.9342, 9240.002
444.4163, 9344.886
444.8984, 9478.159
445.3805, 9664.316
445.8626, 9865.521
446.3448, 10046.66
446.8269, 10208.90
447.3090, 10379.49
447.7911, 10581.82
448.2732, 10818.40
448.7553, 11077.73
449.2375, 11365.75
449.7196, 11669.64
450.2017, 11981.96
450.6838, 12310.09
451.1659, 12661.87
451.6480, 13041.68
452.1302, 13445.01
452.6123, 13870.58
453.0944, 14324.92
453.5765, 14778.87
454.0586, 15210.49
454.5407, 15654.49
455.0229, 16137.59
455.5050, 16655.57
455.9871, 17188.26
456.4692, 17708.88
456.9513, 18226.72
457.4334, 18791.29
457.9156, 19424.42
458.3977, 20040.22
458.8798, 20562.07
459.3619, 21033.20
459.8440, 21534.26
460.3261, 22083.12
460.8083, 22659.03
461.2904, 23285.55
461.7725, 23935.94
462.2546, 24509.92
462.7367, 24962.66
463.2188, 25345.43
463.7010, 25734.51
464.1831, 26130.29
464.6652, 26540.14
465.1473, 27024.65
465.6294, 27481.25
466.1115, 27814.87
466.5937, 28024.52
467.0758, 28174.61
467.5579, 28314.12
468.0400, 28442.23
468.5221, 28548.51
469.0042, 28647.16
469.4864, 28706.56
469.9685, 28721.08
470.4506, 28692.75
470.9327, 28615.92
471.4148, 28489.44
471.8969, 28338.96
472.3791, 28212.64
472.8612, 28125.44
473.3433, 27994.60
473.8254, 27789.74
474.3075, 27555.95
474.7896, 27310.24
475.2718, 27054.73
475.7539, 26794.07
476.2360, 26538.55
476.7181, 26276.03
477.2002, 25975.78
477.6823, 25631.94
478.1645, 25279.77
478.6466, 24932.27
479.1287, 24587.37
479.6108, 24240.86
480.0929, 23895.84
480.5751, 23542.83
481.0572, 23190.13
481.5393, 22823.58
482.0214, 22410.28
482.5035, 21939.91
482.9857, 21438.63
483.4678, 20934.74
483.9499, 20430.31
484.4320, 19916.27
484.9141, 19387.94
485.3962, 18848.53
485.8784, 18289.43
486.3605, 17724.83
486.8426, 17184.62
487.3247, 16685.69
487.8068, 16215.21
488.2889, 15736.66
488.7711, 15250.20
489.2532, 14757.84
489.7353, 14248.93
490.2174, 13743.50
490.6995, 13265.41
491.1816, 12812.24
491.6638, 12363.88
492.1459, 11891.56
492.6280, 11402.95
493.1101, 10960.97
493.5922, 10579.18
494.0743, 10218.70
494.5565, 9866.820
495.0386, 9520.340
495.5207, 9169.635
496.0028, 8803.367
496.4849, 8450.985
496.9670, 8144.401
497.4492, 7872.877
497.9313, 7599.140
498.4134, 7308.410
498.8955, 7019.386
499.3776, 6755.310
499.8597, 6519.932
500.3419, 6295.912
500.8240, 6080.042
501.3061, 5876.619
501.7882, 5693.804
502.2703, 5526.497
502.7524, 5363.117
503.2346, 5197.679
503.7167, 5030.375
504.1988, 4868.198
504.6809, 4715.838
505.1630, 4562.046
505.6451, 4400.237
506.1273, 4240.920
506.6094, 4093.440
507.0915, 3958.629
507.5736, 3830.766
508.0557, 3703.678
508.5378, 3578.425
509.0200, 3463.771
509.5021, 3364.259
509.9842, 3267.322
510.4663, 3163.593
510.9484, 3058.618
511.4305, 2960.584
511.9127, 2871.692
512.3948, 2789.050
512.8769, 2708.274
513.3590, 2631.414
513.8411, 2566.862
514.3232, 2519.549
514.8054, 2474.059
515.2875, 2409.232
515.7696, 2320.440
516.2517, 2243.592
516.7338, 2177.646
517.2159, 2125.083
517.6981, 2097.584
518.1802, 2084.463
518.6623, 2061.726
519.1444, 2016.506
519.6265, 1954.899
520.1086, 1893.606
520.5908, 1834.429
521.0729, 1772.057
521.5550, 1712.221
522.0371, 1644.888
522.5192, 1561.994
523.0013, 1464.799
523.4835, 1360.384
523.9656, 1250.948
524.4477, 1138.757
524.9298, 1032.027
525.4119, 929.3262
525.8940, 835.4658
526.3762, 756.5083
526.8583, 685.9258
527.3404, 616.5669
527.8225, 548.2954
528.3046, 479.6445
528.7867, 405.2485
529.2689, 331.1113
529.7510, 267.9824
530.2331, 217.7153
530.7152, 178.1821
531.1973, 148.7305
531.6794, 129.5879
532.1616, 111.0093
532.6437, 100.1406
533.1258, 81.78906
533.6079, 43.73682
534.0900, 1.883301
534.5721, 39.32227
535.0543, 63.10742
535.5364, 77.45850
536.0185, 86.80566
536.5006, 89.03027
536.9827, 96.86133
537.4648, 117.7646
537.9470, 136.5059
538.4291, 147.2686
538.9112, 150.9043
539.3933, 148.8008
539.8754, 137.4326
540.3575, 126.8755
540.8397, 135.5117
541.3218, 160.7354
541.8039, 171.6475
542.2860, 153.4141
542.7681, 126.3574
543.2502, 121.0371
543.7324, 139.4092
544.2145, 151.2617
544.6966, 149.9585
545.1787, 142.6484
545.6608, 132.3325
546.1429, 120.3682
546.6251, 109.0103
547.1072, 99.45166
547.5893, 91.62158
548.0714, 85.44043
548.5535, 80.51221
549.0356, 78.04541
549.5178, 78.62939
549.9999, 80.84424
550.4820, 85.60400
550.9641, 91.63379
551.4462, 95.18701
551.9283, 94.66748
552.4105, 89.22998
552.8926, 73.93799
553.3747, 46.04688
553.8568, 22.08887
554.3389, 9.226563
554.8210, 4.215332
555.3032, 2.115723
555.7853, 3.833496
556.2674, 4.541992
556.7495, 2.382324
557.2316, 1.752441
557.7137, 5.690430
558.1959, 9.738281
558.6780, 18.97900
559.1601, 38.86719
559.6422, 66.62793
560.1243, 82.85986
560.6064, 67.37109
561.0886, 65.48193
561.5707, 93.06885
562.0528, 128.6948
562.5349, 151.5352
563.0170, 159.3110
563.4991, 166.6470
563.9813, 191.2437
564.4634, 229.8247
564.9455, 250.6689
565.4276, 243.5737
565.9097, 241.2646
566.3918, 265.9092
566.8740, 302.5312
567.3561, 332.5796
567.8382, 353.3447
568.3203, 369.2148
568.8024, 374.1040
569.2845, 376.6982
569.7667, 398.7778
570.2488, 443.7471
570.7309, 487.6309
571.2130, 506.0269
571.6951, 498.0591
572.1772, 499.8315
572.6594, 523.0259
573.1415, 544.4229
573.6236, 556.6929
574.1057, 564.6323
574.5878, 572.6914
575.0699, 583.1680
575.5521, 599.9893
576.0342, 630.7637
576.5163, 674.0947
576.9984, 705.6489
577.4805, 723.0273
577.9626, 733.9653
578.4448, 733.3979
578.9269, 732.6196
579.4090, 747.6475
579.8911, 784.9438
580.3732, 821.4712
580.8553, 841.6226
581.3375, 852.4004
581.8196, 865.1650
582.3017, 882.0059
582.7838, 904.2266
583.2659, 936.1689
583.7480, 976.3608
584.2302, 992.9497
584.7123, 956.3179
585.1944, 934.1592
585.6765, 947.5605
586.1587, 976.9600
586.6408, 1002.624
587.1229, 1019.662
587.6050, 1034.058
588.0872, 1053.849
588.5693, 1077.748
589.0514, 1089.599
589.5335, 1082.518
590.0156, 1079.816
590.4977, 1099.411
590.9799, 1128.017
591.4620, 1145.145
591.9441, 1142.550
592.4262, 1145.906
592.9083, 1182.647
593.3904, 1228.091
593.8726, 1240.988
594.3547, 1217.961
594.8368, 1188.694
595.3189, 1175.719
595.8010, 1177.158
596.2831, 1176.346
596.7653, 1173.342
597.2474, 1169.221
597.7295, 1166.175
598.2116, 1161.479
598.6937, 1150.544
599.1758, 1132.806
599.6580, 1113.825
600.1401, 1101.762
600.6222, 1093.716
601.1043, 1073.500
601.5864, 1036.528
602.0685, 1001.855
602.5507, 979.5811
603.0328, 964.8438
603.5149, 949.4351
603.9970, 934.2856
604.4791, 915.1113
604.9612, 882.4629
605.4434, 850.1436
605.9255, 836.6025
606.4076, 838.5151
606.8897, 835.1724
607.3718, 812.7803
607.8539, 776.8623
608.3361, 747.1797
608.8182, 730.2026
609.3003, 706.6562
609.7824, 673.5176
610.2645, 635.6616
610.7466, 591.0190
611.2288, 544.3213
611.7109, 509.0513
612.1930, 499.6685
612.6751, 498.9902
613.1572, 479.9507
613.6393, 443.4287
614.1215, 402.8247
614.6036, 359.5376
615.0857, 321.5098
615.5678, 303.3232
616.0499, 310.9883
616.5320, 306.5605
617.0142, 278.8501
617.4963, 248.9531
617.9784, 225.7856
618.4605, 207.8931
618.9426, 193.5571
619.4247, 182.7344
619.9069, 173.3960
620.3890, 163.4106
620.8711, 153.8887
621.3532, 133.0254
621.8353, 87.72705
622.3174, 48.35303
622.7996, 36.19531
623.2817, 40.67578
623.7638, 40.33398
624.2459, 28.02051
624.7280, 13.60645
625.2101, 0.8608400
625.6923, 8.559082
626.1744, 7.664063
626.6565, 4.485840
627.1386, 12.58350
627.6207, 1.8555000E-02
628.1028, 32.16455
628.5850, 45.69287
629.0671, 17.87598
629.5492, 1.540527
630.0313, 2.552734
630.5134, 12.58252
630.9955, 9.501953
631.4777, 8.185059
631.9598, 24.06982
632.4419, 21.09180
632.9240, 6.354980
633.4061, 1.711914
633.8882, 8.416016
634.3704, 13.88867
634.8525, 12.93555
635.3346, 7.248047
635.8167, 2.386230
636.2988, 20.30127
636.7809, 25.97852
637.2631, 4.257324
637.7452, 20.66357
638.2273, 32.51953
638.7094, 32.58936
639.1915, 27.41553
639.6736, 20.03906
640.1558, 13.23145
640.6379, 13.41016
641.1200, 22.24414
641.6021, 29.70312
642.0842, 37.07715
642.5663, 39.97461
643.0485, 32.55664
643.5306, 19.03467
644.0127, 10.08936
644.4948, 8.006348
644.9769, 12.02393
645.4590, 26.76660
645.9412, 46.17529
646.4233, 57.42676
646.9054, 57.92676
647.3875, 53.96826
647.8696, 50.72852
648.3517, 48.33105
648.8339, 51.29395
649.3160, 64.33057
649.7981, 76.55127
650.2802, 86.70996
650.7623, 95.05615
651.2444, 101.1885
651.7266, 105.3809
652.2087, 109.7031
652.6908, 112.4517
653.1729, 117.4722
653.6550, 137.4810
654.1371, 171.8228
654.6193, 193.0918
655.1014, 185.5063
655.5835, 167.1191
656.0656, 168.8813
656.5477, 199.9375
657.0298, 226.1860
657.5120, 249.3003
657.9941, 265.8047
658.4762, 267.3164
658.9583, 262.4614
659.4404, 268.2749
659.9225, 291.8901
660.4047, 318.4927
660.8868, 321.7319
661.3689, 304.1816
661.8510, 312.1479
662.3331, 359.3916
662.8152, 405.4893
663.2974, 421.9141
663.7795, 418.4292
664.2616, 424.5952
664.7437, 448.6826
665.2258, 468.1489
665.7079, 467.6270
666.1901, 464.5938
666.6722, 480.3115
667.1543, 512.6914
667.6364, 541.5977
668.1185, 551.9404
668.6006, 552.1611
669.0828, 569.1196
669.5649, 608.3413
670.0470, 644.5400
670.5291, 677.5044
671.0112, 701.8896
671.4933, 709.8247
671.9755, 705.5620
672.4576, 706.7212
672.9397, 726.8857
673.4218, 745.1133
673.9039, 738.8496
674.3860, 722.4912
674.8682, 725.7729
675.3503, 755.1958
675.8324, 793.6006
676.3145, 824.7964
676.7966, 848.8667
677.2787, 865.6396
677.7609, 868.2529
678.2430, 874.8560
678.7251, 894.0439
679.2072, 915.3423
679.6893, 928.1416
680.1714, 931.9463
680.6536, 937.7656
681.1357, 954.4966
681.6178, 974.4551
682.0999, 987.7065
682.5820, 995.2441
683.0641, 1002.995
683.5463, 1013.328
684.0284, 1024.848
684.5105, 1036.528
684.9926, 1050.071
685.4747, 1051.093
685.9568, 1011.154
686.4390, 989.2202
686.9211, 1015.424
687.4032, 1065.064
687.8853, 1106.520
688.3674, 1132.103
688.8495, 1156.316
689.3317, 1196.158
689.8138, 1240.521
690.2959, 1262.338
690.7780, 1261.489
691.2601, 1270.499
691.7422, 1308.708
692.2244, 1360.670
692.7065, 1391.441
693.1886, 1383.391
693.6707, 1395.507
694.1528, 1431.550
694.6349, 1481.126
695.1171, 1545.237
695.5992, 1618.761
696.0813, 1697.479
696.5634, 1780.322
697.0455, 1859.208
697.5276, 1919.312
698.0098, 1968.063
698.4919, 2028.167
698.9740, 2101.554
699.4561, 2193.081
699.9382, 2309.054
700.4203, 2443.388
700.9025, 2580.908
701.3846, 2757.377
701.8667, 2876.951
702.3488, 2912.525
702.8309, 2914.891
703.3130, 2922.657
703.7952, 2922.060
704.2773, 2874.027
704.7594, 2756.585
705.2415, 2601.218
705.7236, 2438.762
706.2057, 2271.040
706.6879, 2104.564
707.1700, 1936.696
707.6521, 1798.592
708.1342, 1719.874
708.6163, 1687.736
709.0984, 1644.231
709.5806, 1561.268
710.0627, 1505.732
710.5448, 1503.750
711.0269, 1511.935
711.5090, 1501.148
711.9911, 1474.974
712.4733, 1449.626
712.9554, 1432.107
713.4375, 1418.806
713.9196, 1405.196
714.4017, 1391.367
714.8839, 1377.638
715.3660, 1364.144
715.8481, 1352.533
716.3302, 1345.763
716.8123, 1342.350
717.2944, 1331.816
717.7766, 1310.164
718.2587, 1288.276
718.7408, 1260.332
719.2229, 1238.646
719.7050, 1240.411
720.1871, 1257.962
720.6693, 1260.028
721.1514, 1223.696
721.6335, 1175.488
722.1156, 1156.244
722.5977, 1161.423
723.0798, 1164.113
723.5620, 1160.703
724.0441, 1145.519
724.5262, 1109.452
725.0083, 1056.820
725.4904, 1020.233
725.9725, 1007.004
726.4547, 999.3652
726.9368, 1004.036
727.4189, 1007.148
727.9011, 998.5288
728.3832, 978.8750
728.8653, 952.7749
729.3474, 918.9492
729.8295, 888.1230
730.3116, 878.8447
730.7938, 886.3359
731.2759, 886.6138
731.7580, 874.5679
732.2401, 863.1606
732.7222, 864.2905
733.2043, 874.9663
733.6865, 875.5317
734.1686, 852.5132
734.6507, 838.1533
735.1328, 843.6606
735.6149, 849.7217
736.0970, 844.5752
736.5792, 828.3667
737.0613, 803.1953
737.5434, 762.9497
738.0255, 729.5073
738.5076, 736.0737
738.9897, 768.4048
739.4719, 785.1362
739.9540, 779.2144
740.4361, 766.0576
740.9182, 757.6421
741.4003, 751.2905
741.8824, 734.2847
742.3646, 697.4097
742.8467, 666.5269
743.3288, 641.7070
743.8109, 624.3262
744.2930, 621.6265
744.7751, 626.6978
745.2573, 622.6333
745.7394, 600.7671
746.2215, 575.1055
746.7036, 554.1997
747.1857, 537.9360
747.6678, 529.6372
748.1500, 527.8882
748.6321, 519.2500
749.1142, 494.1147
749.5963, 457.5859
750.0784, 422.4775
750.5605, 384.5166
751.0427, 360.8037
751.5248, 368.5552
752.0069, 372.4180
752.4890, 348.3540
752.9711, 308.8481
753.4532, 279.6606
753.9354, 269.3184
754.4175, 260.1484
754.8996, 242.4375
755.3817, 221.7988
755.8638, 203.6196
756.3459, 188.6729
756.8281, 178.6069
757.3102, 175.0005
757.7923, 170.3286
758.2744, 146.7280
758.7565, 100.9985
759.2386, 70.83838
759.7208, 64.90527
760.2029, 60.21924
760.6850, 42.47949
761.1671, 18.55322
761.6492, 1.291504
762.1313, 9.442871
762.6135, 12.84033
763.0956, 0.1176760
763.5777, 12.23779
764.0598, 12.06299
764.5419, 2.402344
765.0240, 10.32861
765.5062, 23.41797
765.9883, 34.44141
766.4704, 41.78418
766.9525, 44.80908
767.4346, 35.15625
767.9167, 9.585449
768.3989, 0.1762700
768.8810, 26.55664
769.3631, 66.57861
769.8452, 81.48730
770.3273, 63.28711
770.8094, 49.37793
771.2916, 43.70312
771.7737, 37.64307
772.2558, 22.56494
772.7379, 8.215820
773.2200, 10.85596
773.7021, 31.73096
774.1843, 48.08936
774.6664, 34.40869
775.1485, 11.18457
775.6306, 20.55664
776.1127, 52.75781
776.5948, 54.83936
777.0770, 8.843750
777.5591, 49.53906
778.0412, 80.68555
778.5233, 84.86621
779.0054, 85.27148
779.4875, 75.93311
779.9697, 73.30518
780.4518, 90.45020
780.9339, 107.4604
781.4160, 102.3447
781.8981, 80.38281
782.3802, 74.69922
782.8624, 113.9858
783.3445, 153.0264
783.8266, 155.1289
784.3087, 142.0874
784.7908, 147.8506
785.2729, 175.4819
785.7551, 206.2124
786.2372, 226.9307
786.7193, 239.1021
787.2014, 244.7329
787.6835, 242.8896
788.1656, 244.2466
788.6478, 250.4341
789.1299, 260.1167
789.6120, 275.5132
790.0941, 293.4517
790.5762, 301.6226
791.0583, 293.5200
791.5405, 287.4980
792.0226, 283.6870
792.5047, 284.9824
792.9868, 297.9644
793.4689, 316.7568
793.9510, 327.6860
794.4332, 324.4775
794.9153, 321.3662
795.3974, 340.5024
795.8795, 369.4482
796.3616, 368.9209
796.8438, 339.1938
797.3259, 325.6587
797.8080, 352.7129
798.2901, 395.3789
798.7722, 410.0249
799.2543, 389.8770
799.7365, 376.9512
800.2186, 374.1665
800.7007, 374.7275
801.1828, 383.3535
801.6649, 390.0415
802.1470, 379.5400
802.6292, 351.2939
803.1113, 333.1118
803.5934, 343.2109
804.0755, 359.6914
804.5576, 369.6123
805.0397, 373.6719
805.5219, 370.8179
806.0040, 362.6289
806.4861, 359.7881
806.9682, 374.4541
807.4503, 398.2759
807.9324, 403.4512
808.4146, 388.6860
808.8967, 377.2056
809.3788, 376.2476
809.8609, 372.7183
810.3430, 352.8848
810.8251, 320.0247
811.3073, 297.9397
811.7894, 294.1882
812.2715, 289.8259
812.7536, 278.0757
813.2357, 270.2000
813.7178, 280.7759
814.2000, 300.0938
814.6821, 305.1125
815.1642, 285.8098
815.6463, 259.8564
816.1284, 237.4631
816.6105, 219.9038
817.0927, 210.0098
817.5748, 207.2834
818.0569, 209.6772
818.5390, 216.5925
819.0211, 223.4458
819.5032, 222.7207
819.9854, 214.1589
820.4675, 200.2429
820.9496, 177.9463
821.4317, 160.6658
821.9138, 155.2952
822.3959, 154.6821
822.8781, 150.7729
823.3602, 143.7134
823.8423, 131.4045
824.3244, 111.5703
824.8065, 89.61450
825.2886, 64.24609
825.7708, 41.51733
826.2529, 25.09741
826.7350, 14.16772
827.2171, 8.428955
827.6992, 12.25903
828.1813, 20.24390
828.6635, 21.25366
829.1456, 17.26416
829.6277, 17.01929
830.1098, 22.26001
830.5919, 26.57910
831.0740, 24.29688
831.5562, 17.04346
832.0383, 13.57007
832.5204, 19.52197
833.0025, 17.03906
833.4846, 3.567139
833.9667, 25.19238
834.4489, 36.71240
834.9310, 39.18970
835.4131, 38.57983
835.8952, 35.76440
836.3773, 32.36621
836.8594, 33.06763
837.3416, 28.94019
837.8237, 11.82642
838.3058, 12.73584
838.7879, 33.14087
839.2700, 48.04541
839.7521, 71.72559
840.2343, 119.3191
840.7164, 181.2439
841.1985, 235.8301
841.6806, 287.0942
842.1627, 358.6074
842.6448, 456.5886
843.1270, 562.7913
843.6091, 659.4739
844.0912, 750.1365
844.5733, 851.8259
845.0554, 967.9941
845.5375, 1086.396
846.0197, 1199.686
846.5018, 1321.804
846.9839, 1455.244
847.4660, 1603.853
847.9481, 1780.638
848.4302, 1998.334
848.9124, 2212.630
849.3945, 2397.636
849.8766, 2588.427
850.3587, 2825.392
850.8408, 3082.320
851.3229, 3316.070
851.8051, 3511.558
852.2872, 3672.232
852.7693, 3817.580
853.2514, 3923.120
853.7335, 3937.844
854.2156, 3867.586
854.6978, 3735.286
855.1799, 3546.503
855.6620, 3333.193
856.1441, 3123.521
856.6262, 2920.281
857.1083, 2748.160
857.5905, 2607.674
858.0726, 2493.552
858.5547, 2397.180
859.0368, 2337.186
859.5189, 2322.200
860.0010, 2355.188
860.4832, 2449.236
860.9653, 2630.100
861.4474, 2819.979
861.9295, 2972.739
862.4116, 3161.882
862.8937, 3460.421
863.3759, 3819.298
863.8580, 4171.562
864.3401, 4494.348
864.8222, 4746.826
865.3043, 4910.541
865.7864, 4973.254
866.2686, 4904.908
866.7507, 4719.267
867.2328, 4449.685
867.7149, 4107.433
868.1971, 3719.581
868.6792, 3299.771
869.1613, 2863.963
869.6434, 2475.933
870.1255, 2136.656
870.6077, 1827.071
871.0898, 1542.959
871.5719, 1290.031
872.0540, 1071.616
872.5361, 887.7722
873.0182, 739.1970
873.5004, 633.7988
873.9825, 550.7239
874.4646, 500.4124
874.9467, 460.3916
875.4288, 424.9521
875.9109, 391.7532
876.3931, 356.1301
876.8752, 317.0825
877.3573, 289.3147
877.8394, 283.4741
878.3215, 288.7661
878.8036, 303.4236
879.2858, 320.0977
879.7679, 322.7930
880.2500, 311.4612
880.7321, 306.2720
881.2142, 324.1433
881.6964, 354.1782
882.1785, 377.6084
882.6606, 394.3416
883.1427, 399.3167
883.6248, 390.8782
884.1069, 389.4370
884.5891, 408.3601
885.0712, 440.7793
885.5533, 472.6711
886.0354, 507.0935
886.5175, 529.2415
886.9996, 545.3208
887.4818, 538.4529
887.9639, 480.1426
888.4460, 409.7383
888.9281, 375.7498
889.4102, 378.9563
889.8923, 376.4597
890.3745, 357.9290
890.8566, 337.9167
891.3387, 315.7244
891.8208, 298.3508
892.3029, 296.9531
892.7850, 307.4253
893.2672, 314.0986
893.7493, 310.9526
894.2314, 298.9680
894.7135, 273.9802
895.1956, 243.1968
895.6777, 214.2058
896.1599, 189.5796
896.6420, 178.3269
897.1241, 184.1074
897.6062, 192.5298
898.0883, 182.8179
898.5704, 158.9006
899.0526, 147.0908
899.5347, 148.2317
900.0168, 145.5022
900.4989, 132.2822
900.9810, 121.2231
901.4631, 125.7791
901.9453, 143.3479
902.4274, 155.6423
902.9095, 163.7979
903.3916, 164.2058
903.8737, 145.8372
904.3558, 131.3142
904.8380, 136.3005
905.3201, 152.6648
905.8022, 163.1382
906.2843, 164.1758
906.7664, 165.5435
907.2485, 171.3389
907.7307, 176.0676
908.2128, 175.8682
908.6949, 174.2180
909.1770, 178.0393
909.6591, 186.6477
910.1412, 189.1836
910.6234, 173.5876
911.1055, 156.9238
911.5876, 159.1982
912.0697, 172.9880
912.5518, 184.2083
913.0339, 191.4172
913.5161, 200.4998
913.9982, 215.1704
914.4803, 231.2874
914.9624, 241.1035
915.4445, 245.4790
915.9266, 249.6680
916.4088, 253.0581
916.8909, 270.6738
917.3730, 311.7205
917.8551, 356.0042
918.3372, 378.8347
918.8193, 381.4592
919.3015, 385.9570
919.7836, 391.3979
920.2657, 401.4817
920.7478, 420.1306
921.2299, 438.9377
921.7120, 453.5249
922.1942, 464.2009
922.6763, 470.1768
923.1584, 469.0210
923.6405, 469.6206
924.1226, 475.1777
924.6047, 480.4148
925.0869, 483.7795
925.5690, 484.6873
926.0511, 481.4438
926.5332, 474.3362
927.0153, 468.3132
927.4974, 467.7083
927.9796, 467.2388
928.4617, 460.6357
928.9438, 452.9998
929.4259, 447.8901
929.9080, 448.7407
930.3901, 466.2563
930.8723, 507.7878
931.3544, 553.2048
931.8365, 573.7859
932.3186, 579.0793
932.8007, 597.9766
933.2828, 629.1646
933.7650, 653.0378
934.2471, 662.7014
934.7292, 662.9089
935.2113, 656.2334
935.6934, 645.9321
936.1755, 655.0317
936.6577, 688.4360
937.1398, 702.9265
937.6219, 684.5107
938.1040, 666.6711
938.5861, 674.1475
939.0682, 696.3381
939.5504, 703.6013
940.0325, 683.7864
940.5146, 685.1824
940.9967, 725.4800
941.4788, 763.5571
941.9609, 778.3669
942.4431, 790.5388
942.9252, 819.3989
943.4073, 865.3491
943.8894, 922.8184
944.3715, 994.1189
944.8536, 1072.015
945.3358, 1157.159
945.8179, 1245.909
946.3000, 1336.996
946.7821, 1428.963
947.2642, 1521.258
947.7463, 1613.996
948.2285, 1698.469
948.7106, 1777.492
949.1927, 1837.714
949.6748, 1870.630
950.1569, 1872.890
950.6390, 1835.391
951.1212, 1759.421
951.6033, 1661.393
952.0854, 1550.842
952.5675, 1427.673
953.0496, 1286.575
953.5317, 1132.962
954.0139, 979.2871
954.4960, 829.1738
954.9781, 696.1133
955.4602, 587.5034
955.9423, 494.5103
956.4244, 405.1912
956.9066, 320.7686
957.3887, 252.8230
957.8708, 201.2959
958.3529, 168.3237
958.8350, 159.2412
959.3171, 148.7761
959.7993, 113.1021
960.2814, 62.20166
960.7635, 34.03418
961.2456, 39.08325
961.7277, 34.14673
962.2098, 10.63867
962.6920, 9.456665
963.1741, 16.87000
963.6562, 15.91187
964.1383, 10.26526
964.6204, 1.081665
965.1025, 4.458130
965.5847, 3.539917
966.0668, 14.77393
966.5489, 35.49902
967.0310, 52.09656
967.5131, 50.09521
967.9952, 37.20142
968.4774, 32.39941
968.9595, 40.42712
969.4416, 51.84644
969.9237, 71.85754
970.4058, 85.43823
970.8879, 77.06836
971.3701, 60.06799
971.8522, 53.85156
972.3343, 59.34119
972.8164, 61.82727
973.2985, 52.21802
973.7806, 39.66614
974.2628, 29.60620
974.7449, 22.02502
975.2270, 17.75671
975.7091, 16.16382
976.1912, 15.25879
976.6733, 14.21631
977.1555, 13.44165
977.6376, 15.67871
978.1197, 17.25525
978.6018, 9.446533
979.0839, 4.858276
979.5660, 16.87720
980.0482, 24.57886
980.5303, 28.21790
981.0124, 27.07263
981.4945, 25.51355
981.9766, 33.73560
982.4587, 49.55579
982.9409, 56.33594
983.4230, 53.09741
983.9051, 54.85962
984.3872, 67.82068
984.8693, 82.84082
985.3514, 89.57104
985.8336, 89.77869
986.3157, 94.02991
986.7978, 103.0298
987.2799, 112.5518
987.7620, 123.6208
988.2441, 130.1447
988.7263, 126.7094
989.2084, 119.6233
989.6905, 120.8134
990.1726, 131.8837
990.6547, 139.2971
991.1368, 144.5884
991.6190, 142.9470
992.1011, 125.2914
992.5832, 109.4364
993.0653, 113.1892
993.5474, 130.6621
994.0295, 138.6119
994.5117, 128.7000
994.9938, 127.1388
995.4759, 138.7233
995.9580, 154.2281
996.4401, 176.4452
996.9222, 196.6227
997.4044, 203.0404
997.8865, 196.5482
998.3686, 192.7303
998.8507, 195.7018
999.3328, 200.6989
999.8149, 212.4089
1000.297, 219.9169
1000.779, 206.4164
1001.261, 186.1771
1001.743, 188.7882
1002.226, 221.1333
1002.708, 246.8585
1003.190, 244.6665
1003.672, 235.5463
1004.154, 225.3501
1004.636, 221.1078
1005.118, 238.3967
1005.600, 269.1801
1006.082, 284.4980
1006.565, 270.3041
1007.047, 252.8734
1007.529, 252.9160
1008.011, 260.5526
1008.493, 267.1537
1008.975, 271.6017
1009.457, 271.6136
1009.939, 267.7386
1010.422, 265.3677
1010.904, 268.5980
1011.386, 273.0183
1011.868, 272.5223
1012.350, 269.4388
1012.832, 267.9999
1013.314, 268.4589
1013.796, 269.4407
1014.279, 270.7036
1014.761, 275.6412
1015.243, 288.6750
1015.725, 306.2720
1016.207, 325.4080
1016.689, 342.6119
1017.171, 337.3168
1017.653, 309.7468
1018.135, 290.3790
1018.618, 295.2919
1019.100, 309.3949
1019.582, 311.3423
1020.064, 303.2277
1020.546, 294.6472
1021.028, 286.3591
1021.510, 283.4316
1021.992, 287.3655
1022.474, 293.1821
1022.957, 296.4144
1023.439, 298.6885
1023.921, 306.3799
1024.403, 319.2826
1024.885, 323.8107
1025.367, 320.6633
1025.849, 312.8003
1026.331, 299.1678
1026.813, 284.5143
1027.296, 273.7388
1027.778, 265.4824
1028.260, 256.2954
1028.742, 246.0647
1029.224, 245.4536
1029.706, 257.5277
1030.188, 268.3063
1030.670, 274.8115
1031.153, 274.0148
1031.635, 258.0204
1032.117, 228.8926
1032.599, 219.3572
1033.081, 239.5802
1033.563, 250.2048
1034.045, 241.2446
1034.527, 233.2482
1035.010, 237.5107
1035.492, 247.9697
1035.974, 249.3577
1036.456, 236.9065
1036.938, 277.1152
1037.420, 442.1034
1037.902, 526.1062
1038.384, 445.4630
1038.866, 337.7593
1039.349, 275.5923
1039.831, 253.7146
1040.313, 270.1672
1040.795, 350.1094
1041.277, 375.3936
1041.759, 292.6492
1042.241, 228.0002
1042.723, 215.0231
1043.205, 222.8613
1043.688, 234.3223
1044.170, 247.2284
1044.652, 256.3660
1045.134, 262.5050
1045.616, 262.3578
1046.098, 245.3948
1046.580, 234.8761
1047.062, 245.3229
1047.545, 260.9248
1048.027, 266.6738
1048.509, 263.4849
1048.991, 259.6997
1049.473, 255.1309
1049.955, 251.9744
1050.437, 253.3633
1050.919, 253.5242
1051.401, 245.9841
1051.884, 238.0471
1052.366, 238.7258
1052.848, 247.8987
1053.330, 258.3093
1053.812, 271.3787
1054.294, 281.4355
1054.776, 284.4216
1055.258, 286.5967
1055.740, 290.8672
1056.223, 297.4565
1056.705, 308.6619
1057.187, 323.7786
1057.669, 330.7668
1058.151, 316.5183
1058.633, 307.1089
1059.115, 315.0046
1059.597, 327.0554
1060.080, 336.9839
1060.562, 342.8806
1061.044, 340.5342
1061.526, 329.2380
1062.008, 323.3591
1062.490, 333.4238
1062.972, 343.1487
1063.454, 343.3193
1063.937, 341.6833
1064.419, 344.8503
1064.901, 351.8364
1065.383, 357.0674
1065.865, 358.7793
1066.347, 371.3965
1066.829, 404.5901
1067.311, 444.7915
1067.793, 483.0667
1068.276, 527.3953
1068.758, 583.4768
1069.240, 652.2727
1069.722, 729.1721
1070.204, 809.6770
1070.686, 924.2642
1071.168, 1085.425
1071.650, 1284.696
1072.132, 1533.919
1072.615, 1807.621
1073.097, 2068.512
1073.579, 2326.449
1074.061, 2613.518
1074.543, 2931.635
1075.025, 3307.804
1075.507, 3754.703
1075.989, 4264.001
1076.472, 4844.122
1076.954, 5478.093
1077.436, 6131.210
1077.918, 6818.372
1078.400, 7621.077
1078.882, 8604.343
1079.364, 9545.795
1079.846, 10548.77
1080.328, 11244.44
1080.811, 11407.10
1081.293, 11113.07
1081.775, 10338.44
1082.257, 9198.774
1082.739, 8004.552
1083.221, 6820.686
1083.703, 5732.748
1084.185, 4763.024
1084.668, 3927.054
1085.150, 3256.502
1085.632, 2710.503
1086.114, 2258.506
1086.596, 1887.873
1087.078, 1579.829
1087.560, 1336.914
1088.042, 1132.107
1088.525, 951.9167
1089.007, 811.3103
1089.489, 740.5486
1089.971, 701.5886
1090.453, 644.2817
1090.935, 571.4998
1091.417, 525.2952
1091.899, 530.3801
1092.381, 532.6936
1092.864, 504.2485
1093.346, 475.6604
1093.828, 466.4465
1094.310, 467.3225
1094.792, 469.9268
1095.274, 471.3530
1095.756, 463.6763
1096.238, 437.5271
1096.720, 418.8711
1097.203, 422.4512
1097.685, 428.2681
1098.167, 424.2002
1098.649, 417.0886
1099.131, 415.6128
1099.613, 418.9495
1100.095, 420.1924
1100.577, 417.3286
1101.060, 413.8113
1101.542, 409.6541
1102.024, 405.9697
1102.506, 405.1116
1102.988, 403.8955
1103.470, 398.7969
1103.952, 389.8667
1104.434, 379.9526
1104.917, 368.0129
1105.399, 358.2258
1105.881, 344.5452
1106.363, 341.2534
1106.845, 368.2097
1107.327, 398.6553
1107.809, 402.5200
1108.291, 382.6626
1108.773, 361.4080
1109.255, 333.4102
1109.738, 318.8206
1110.220, 335.2104
1110.702, 345.8267
1111.184, 328.5161
1111.666, 305.4663
1112.148, 301.1992
1112.630, 311.9321
1113.112, 313.8813
1113.595, 294.8953
1114.077, 290.4573
1114.559, 324.7866
1115.041, 340.0103
1115.523, 301.2622
1116.005, 253.4329
1116.487, 239.1370
1116.969, 250.4902
1117.452, 252.6797
1117.934, 240.7485
1118.416, 232.5447
1118.898, 233.3975
1119.380, 226.5674
1119.862, 196.5632
1120.344, 173.4094
1120.826, 190.2075
1121.308, 231.1956
1121.791, 243.3860
1122.273, 219.2529
1122.755, 192.4426
1123.237, 157.3235
1123.719, 137.9717
1124.201, 148.9941
1124.683, 158.2349
1125.165, 138.1851
1125.647, 99.74707
1126.130, 70.99146
1126.612, 52.26709
1127.094, 43.02417
1127.576, 44.98657
1128.058, 49.10522
1128.540, 56.26733
1129.022, 48.31592
1129.504, 9.044922
1129.987, 44.55518
1130.469, 79.74878
1130.951, 97.18433
1131.433, 100.3103
1131.915, 70.04541
1132.397, 46.94043
1132.879, 35.38892
1133.361, 35.22412
1133.844, 47.85205
1134.326, 62.18140
1134.808, 60.04395
1135.290, 44.32617
1135.772, 25.66943
1136.254, 5.296143
1136.736, 8.379883
1137.218, 14.17871
1137.700, 16.48340
1138.182, 17.60425
1138.665, 16.10596
1139.147, 6.328613
1139.629, 4.587891
1140.111, 4.352539
1140.593, 24.72314
1141.075, 32.48926
1141.557, 26.50781
1142.039, 18.56201
1142.522, 13.62500
1143.004, 14.00342
1143.486, 23.86377
1143.968, 39.28516
1144.450, 59.11035
1144.932, 78.21875
1145.414, 86.43506
1145.896, 85.45166
1146.379, 81.54492
1146.861, 76.97168
1147.343, 74.77832
1147.825, 78.69922
1148.307, 83.77588
1148.789, 83.10938
1149.271, 81.78613
1149.753, 90.19043
1150.235, 101.9028
1150.718, 100.0635
1151.200, 84.81201
1151.682, 76.34521
1152.164, 88.78906
1152.646, 100.7852
1153.128, 100.0820
1153.610, 99.14893
1154.092, 106.7490
1154.574, 118.7856
1155.057, 131.1870
1155.539, 143.5200
1156.021, 150.3696
1156.503, 146.4170
1156.985, 146.0405
1157.467, 148.8081
1157.949, 155.9146
1158.431, 172.0366
1158.914, 192.8711
1159.396, 220.8247
1159.878, 231.4443
1160.360, 199.2783
1160.842, 122.7822
1161.324, 75.96045
1161.806, 58.48682
1162.288, 47.72217
1162.771, 51.04102
1163.253, 59.51074
1163.735, 61.16260
1164.217, 60.78223
1164.699, 71.83008
1165.181, 103.9438
1165.663, 116.4487
1166.145, 104.1401
1166.627, 92.51953
1167.109, 85.00977
1167.592, 81.21973
1168.074, 78.81738
1168.556, 84.18359
1169.038, 111.5347
1169.520, 152.8208
1170.002, 160.6157
1170.484, 133.6118
1170.966, 125.5947
1171.449, 141.0996
1171.931, 155.6362
1172.413, 159.8735
1172.895, 155.8501
1173.377, 145.0630
1173.859, 131.0601
1174.341, 117.8984
1174.823, 109.1128
1175.306, 107.3091
1175.788, 113.7622
1176.270, 114.4761
1176.752, 106.6416
1177.234, 117.3701
1177.716, 170.3184
1178.198, 214.1167
1178.680, 182.7568
1179.162, 126.9370
1179.645, 105.3301
1180.127, 103.6514
1180.609, 106.6597
1181.091, 108.1489
1181.573, 99.85645
1182.055, 75.74902
1182.537, 60.08691
1183.019, 77.14746
1183.501, 96.01465
1183.984, 96.13672
1184.466, 81.33203
1184.948, 74.03613
1185.430, 72.44434
1185.912, 63.31934
1186.394, 53.57129
1186.876, 40.94434
1187.358, 10.03809
1187.841, 1.166992
1188.323, 26.39355
1188.805, 0.0000000E+00
##END=



