##NAMES=Steacyite
##RRUFFID=R130053
##IDEAL CHEMISTRY=K_0.3_(Na,Ca)_2_Th^4+^Si_8_O_20_
##LOCALITY=Mont Saint-Hilaire, Rouville RCM, Monteregie, Quebec, Canada
##OWNER=RRUFF
##SOURCE=Don Doell
##DESCRIPTION=Light-brown rectangular prism
##STATUS=The identification of this mineral has been confirmed only by single crystal X-ray diffraction.
##URL=rruff.info/R130053
230.1397, 0.0000000E+00
230.6218, 0.1827240
231.1039, 0.3297420
231.5861, 0.4367370
232.0682, 0.4355930
232.5503, 0.5839230
233.0324, 0.8043670
233.5145, 0.8838040
233.9966, 0.9962160
234.4788, 0.4949800
234.9609, 0.1164090
235.4430, 3.8149999E-03
235.9251, 0.2104030
236.4072, 0.2850490
236.8893, 7.5607002E-02
237.3715, 0.1434940
237.8536, 7.7360002E-03
238.3357, 0.8142850
238.8178, 1.484131
239.2999, 1.750320
239.7820, 1.521027
240.2642, 1.559296
240.7463, 2.030914
241.2284, 2.624329
241.7105, 2.955460
242.1926, 2.909790
242.6747, 2.799316
243.1569, 2.660446
243.6390, 2.471252
244.1211, 2.454361
244.6032, 2.757324
245.0853, 3.100098
245.5674, 3.127533
246.0496, 2.616913
246.5317, 2.212570
247.0138, 2.124588
247.4959, 2.419724
247.9780, 2.432175
248.4601, 2.001297
248.9423, 1.441544
249.4244, 1.099258
249.9065, 0.9793850
250.3886, 1.087616
250.8707, 1.551880
251.3528, 2.388596
251.8350, 2.816071
252.3171, 2.681076
252.7992, 2.315887
253.2813, 2.038315
253.7634, 1.855240
254.2455, 1.747833
254.7277, 1.745667
255.2098, 1.850571
255.6919, 1.830582
256.1740, 1.620636
256.6561, 1.362671
257.1382, 1.193344
257.6204, 0.9950410
258.1025, 1.018463
258.5846, 1.424774
259.0667, 2.182037
259.5488, 2.485367
260.0309, 2.098892
260.5131, 1.597046
260.9952, 1.557068
261.4773, 2.254349
261.9594, 2.632813
262.4415, 2.438919
262.9236, 1.734207
263.4058, 1.137741
263.8879, 0.6321110
264.3700, 0.2580410
264.8521, 7.1029998E-02
265.3342, 8.8715002E-02
265.8163, 0.1266330
266.2985, 0.1149900
266.7806, 9.5291004E-02
267.2627, 0.4620670
267.7448, 1.347076
268.2269, 2.054916
268.7090, 2.218216
269.1912, 1.749313
269.6733, 1.289871
270.1554, 0.9104000
270.6375, 0.6129760
271.1196, 0.4035190
271.6017, 0.2535860
272.0839, 0.2653350
272.5660, 0.6282650
273.0481, 1.457535
273.5302, 1.855972
274.0123, 1.604614
274.4944, 0.9704440
274.9766, 0.7403260
275.4587, 0.8971410
275.9408, 1.165390
276.4229, 1.406067
276.9050, 1.636108
277.3871, 1.629227
277.8693, 1.285492
278.3514, 0.7950740
278.8335, 0.6152190
279.3156, 0.7946470
279.7977, 0.9922030
280.2798, 0.9673160
280.7620, 0.7171020
281.2441, 0.7066650
281.7262, 1.052200
282.2083, 1.472733
282.6904, 1.294647
283.1725, 0.4528500
283.6547, 7.3882997E-02
284.1368, 0.5057830
284.6189, 2.046463
285.1010, 2.786118
285.5831, 2.558365
286.0652, 1.890488
286.5474, 1.497940
287.0295, 1.376556
287.5116, 1.316788
287.9937, 1.291977
288.4758, 1.265762
288.9579, 1.088058
289.4401, 0.7269130
289.9222, 0.3751370
290.4043, 0.3186650
290.8864, 0.5674740
291.3685, 0.7693020
291.8506, 0.7116550
292.3328, 0.5315700
292.8149, 0.5332950
293.2970, 0.7300110
293.7791, 0.9604490
294.2612, 1.043411
294.7433, 1.002945
295.2255, 0.9305420
295.7076, 0.8441310
296.1897, 0.7829900
296.6718, 0.9030910
297.1539, 1.196182
297.6360, 1.379547
298.1182, 0.9868470
298.6003, 0.2880100
299.0824, 2.4260001E-03
299.5645, 0.5448610
300.0466, 1.332367
300.5287, 1.448944
301.0109, 0.9721980
301.4930, 0.4512480
301.9751, 0.3426820
302.4572, 0.4480900
302.9393, 0.4194030
303.4214, 0.1297000
303.9036, 0.2170260
304.3857, 0.4647520
304.8678, 0.6007390
305.3499, 0.5809170
305.8320, 0.1864470
306.3141, 0.3076780
306.7963, 0.4996800
307.2784, 0.2061160
307.7605, 3.6850002E-02
308.2426, 0.3411870
308.7247, 1.124084
309.2068, 1.794037
309.6890, 2.178238
310.1711, 2.278564
310.6532, 1.969330
311.1353, 1.138107
311.6174, 0.4253390
312.0995, 0.3607640
312.5817, 0.6721800
313.0638, 0.9189910
313.5459, 0.8157650
314.0280, 0.6735840
314.5101, 0.6655580
314.9922, 0.8053280
315.4744, 1.060181
315.9565, 1.685410
316.4386, 2.332565
316.9207, 2.598312
317.4028, 2.105469
317.8849, 1.450424
318.3671, 0.7140660
318.8492, 7.8383997E-02
319.3313, 0.4925080
319.8134, 1.9455001E-02
320.2955, 0.7592930
320.7776, 1.164108
321.2598, 0.6308590
321.7419, 0.2661900
322.2240, 0.4745640
322.7061, 1.119965
323.1882, 1.536514
323.6703, 1.292023
324.1525, 0.9909210
324.6346, 0.9766080
325.1167, 1.677979
325.5988, 2.131470
326.0809, 2.174332
326.5630, 1.903732
327.0452, 1.582901
327.5273, 0.7628780
328.0094, 0.3027950
328.4915, 0.6432190
328.9736, 2.453049
329.4557, 3.495407
329.9379, 3.512100
330.4200, 2.888199
330.9021, 2.205643
331.3842, 1.205032
331.8663, 0.4820560
332.3484, 0.2720640
332.8306, 0.6786800
333.3127, 0.9097140
333.7948, 0.8398130
334.2769, 0.7049100
334.7590, 0.7974700
335.2411, 1.290451
335.7233, 1.617661
336.2054, 1.586517
336.6875, 1.233505
337.1696, 1.146942
337.6517, 1.400085
338.1339, 1.783676
338.6160, 2.158615
339.0981, 2.552383
339.5802, 2.814880
340.0623, 2.903610
340.5444, 2.853088
341.0266, 2.773926
341.5087, 2.654922
341.9908, 2.499741
342.4729, 2.254578
342.9550, 1.919754
343.4371, 1.602600
343.9193, 1.297272
344.4014, 1.039474
344.8835, 0.9087520
345.3656, 0.9045560
345.8477, 0.9621430
346.3298, 1.213608
346.8120, 1.541183
347.2941, 1.248749
347.7762, 0.2031100
348.2583, 0.8232120
348.7404, 0.7610780
349.2225, 0.1695100
349.7047, 1.028717
350.1868, 1.334396
350.6689, 1.396912
351.1510, 1.932022
351.6331, 2.921478
352.1152, 3.644196
352.5974, 3.254761
353.0795, 2.202255
353.5616, 1.301910
354.0437, 0.7305150
354.5258, 0.4596710
355.0079, 0.6466370
355.4901, 1.182053
355.9722, 1.579208
356.4543, 1.377716
356.9364, 0.9550930
357.4185, 0.7208710
357.9006, 0.7678220
358.3828, 0.9234920
358.8649, 1.243118
359.3470, 1.590973
359.8291, 1.697083
360.3112, 1.157364
360.7933, 0.5545650
361.2755, 0.2349090
361.7576, 0.2386930
362.2397, 0.3093720
362.7218, 0.4139560
363.2039, 0.5272670
363.6860, 0.6338960
364.1682, 0.6410980
364.6503, 0.6898350
365.1324, 0.8940120
365.6145, 1.235626
366.0966, 1.425842
366.5787, 1.239334
367.0609, 0.9824830
367.5430, 0.8520970
368.0251, 1.077576
368.5072, 1.178619
368.9893, 0.9961090
369.4714, 0.6468660
369.9536, 0.5277860
370.4357, 0.9060970
370.9178, 1.233749
371.3999, 1.264282
371.8820, 0.8162840
372.3641, 0.5458530
372.8463, 0.5184940
373.3284, 0.6269230
373.8105, 0.6963650
374.2926, 0.6715850
374.7747, 0.7361760
375.2568, 0.9854280
375.7390, 1.422867
376.2211, 1.729645
376.7032, 1.925964
377.1853, 1.908096
377.6674, 1.557632
378.1495, 0.7842860
378.6317, 0.1833040
379.1138, 0.1433870
379.5959, 0.2192540
380.0780, 3.5537999E-02
380.5601, 0.4356230
381.0422, 0.8560940
381.5244, 0.9739530
382.0065, 0.8333890
382.4886, 0.6180570
382.9707, 0.2956850
383.4528, 5.4290999E-02
383.9349, 0.3788910
384.4171, 1.125793
384.8992, 1.515182
385.3813, 0.6769560
385.8634, 0.6081850
386.3455, 0.8848110
386.8276, 7.6141000E-02
387.3098, 0.9209140
387.7919, 1.475769
388.2740, 1.667816
388.7561, 1.625351
389.2382, 1.146484
389.7203, 0.6891940
390.2025, 0.7223970
390.6846, 1.151276
391.1667, 1.536972
391.6488, 1.578766
392.1309, 1.496948
392.6130, 1.480316
393.0952, 1.597794
393.5773, 1.712570
394.0594, 1.857239
394.5415, 1.952408
395.0236, 1.850266
395.5057, 1.215714
395.9879, 0.6335750
396.4700, 0.3350830
396.9521, 0.3596650
397.4342, 0.5321810
397.9163, 0.9835510
398.3984, 1.496841
398.8806, 1.874329
399.3627, 2.116379
399.8448, 2.201523
400.3269, 2.023712
400.8090, 1.635696
401.2911, 1.446198
401.7733, 1.544388
402.2554, 1.731781
402.7375, 1.911957
403.2196, 2.084610
403.7017, 2.266052
404.1838, 2.510605
404.6660, 2.721344
405.1481, 2.632904
405.6302, 2.110168
406.1123, 1.745880
406.5944, 1.908691
407.0765, 2.604568
407.5587, 3.072479
408.0408, 3.309250
408.5229, 3.342346
409.0050, 3.074677
409.4871, 2.538574
409.9692, 2.207504
410.4514, 2.204346
410.9335, 2.434692
411.4156, 2.803635
411.8977, 3.287399
412.3798, 3.656479
412.8619, 3.673752
413.3441, 3.480743
413.8262, 3.391342
414.3083, 3.479065
414.7904, 3.479736
415.2725, 2.934982
415.7546, 2.118668
416.2368, 1.585251
416.7189, 1.832062
417.2010, 2.290909
417.6831, 2.613144
418.1652, 2.778000
418.6473, 2.680267
419.1295, 1.872955
419.6116, 0.9707340
420.0937, 0.5456850
420.5758, 1.004929
421.0579, 1.556183
421.5400, 2.040115
422.0222, 2.431366
422.5043, 2.682419
422.9864, 2.774994
423.4685, 2.731003
423.9506, 2.515747
424.4327, 2.039398
424.9149, 1.699646
425.3970, 1.427505
425.8791, 1.340775
426.3612, 1.599899
426.8433, 2.653275
427.3254, 3.304306
427.8076, 3.140411
428.2897, 2.342850
428.7718, 2.336304
429.2539, 3.551758
429.7360, 4.674911
430.2181, 4.762894
430.7003, 3.601105
431.1824, 2.883255
431.6645, 2.753952
432.1466, 2.943176
432.6287, 3.009293
433.1108, 2.955368
433.5930, 2.903168
434.0751, 2.886215
434.5572, 2.914825
435.0393, 3.015976
435.5214, 3.191040
436.0035, 3.407593
436.4857, 3.729294
436.9678, 4.063675
437.4499, 4.175262
437.9320, 3.948807
438.4141, 3.626419
438.8962, 3.472336
439.3784, 3.442261
439.8605, 3.408417
440.3426, 3.212433
440.8247, 3.037689
441.3068, 3.101547
441.7889, 3.447525
442.2711, 3.684692
442.7532, 3.568375
443.2353, 3.259750
443.7174, 2.905594
444.1995, 2.369614
444.6816, 2.047150
445.1638, 2.106766
445.6459, 2.461273
446.1280, 2.740295
446.6101, 2.823792
447.0922, 2.828110
447.5743, 2.814880
448.0565, 2.836502
448.5386, 2.792374
449.0207, 2.644455
449.5028, 2.455048
449.9849, 2.317215
450.4670, 2.287292
450.9492, 2.165482
451.4313, 1.813843
451.9134, 1.310120
452.3955, 1.308884
452.8776, 1.943542
453.3597, 2.622498
453.8419, 3.005295
454.3240, 3.076523
454.8061, 2.856644
455.2882, 2.252670
455.7703, 1.588272
456.2524, 1.386871
456.7346, 1.601456
457.2167, 1.935715
457.6988, 2.477295
458.1809, 2.960114
458.6630, 2.832626
459.1451, 2.133621
459.6273, 1.490005
460.1094, 1.439438
460.5915, 1.719345
461.0736, 1.960266
461.5557, 2.063461
462.0378, 2.198334
462.5200, 2.546478
463.0021, 3.003906
463.4842, 3.359406
463.9663, 3.570404
464.4484, 3.633240
464.9305, 3.498642
465.4127, 3.157043
465.8948, 2.830811
466.3769, 2.393738
466.8590, 2.094467
467.3411, 2.117538
467.8232, 3.025284
468.3054, 3.521820
468.7875, 3.364807
469.2696, 2.803558
469.7517, 2.451981
470.2338, 2.404388
470.7159, 2.389999
471.1981, 2.281662
471.6802, 2.067688
472.1623, 2.112396
472.6444, 2.511459
473.1265, 2.906021
473.6086, 2.922546
474.0908, 2.538681
474.5729, 2.073196
475.0550, 1.511490
475.5371, 1.025726
476.0192, 1.074615
476.5013, 1.584167
476.9835, 1.979965
477.4656, 1.777649
477.9477, 1.317673
478.4298, 1.148941
478.9119, 1.298584
479.3940, 1.593552
479.8762, 2.218796
480.3583, 2.805588
480.8404, 2.831940
481.3225, 1.686615
481.8046, 0.5849610
482.2867, 0.2107390
482.7689, 0.3703770
483.2510, 0.5623470
483.7331, 0.7164760
484.2152, 0.7939300
484.6973, 0.7137600
485.1794, 0.3940280
485.6616, 0.3236540
486.1437, 0.9868010
486.6258, 1.645905
487.1079, 1.696060
487.5900, 0.5736240
488.0721, 0.1557620
488.5543, 0.2169340
489.0364, 0.1560360
489.5185, 0.2746580
490.0006, 4.3320000E-02
490.4827, 0.1513980
490.9648, 0.1121370
491.4470, 0.1452640
491.9291, 0.3155060
492.4112, 0.3880770
492.8933, 0.4198910
493.3754, 0.5000310
493.8575, 0.6014250
494.3397, 0.5662230
494.8218, 0.2919620
495.3039, 4.0739998E-03
495.7860, 8.6623996E-02
496.2681, 0.4404600
496.7502, 0.7229310
497.2324, 0.6728210
497.7145, 0.5273590
498.1966, 0.5027160
498.6787, 0.6036220
499.1608, 0.7043460
499.6429, 0.6844940
500.1251, 0.6556550
500.6072, 0.7285460
501.0893, 1.142242
501.5714, 1.352966
502.0535, 1.136749
502.5356, 0.6381530
503.0178, 0.1880800
503.4999, 0.4326780
503.9820, 0.7316280
504.4641, 0.4370270
504.9462, 0.4996030
505.4283, 1.008606
505.9105, 0.8129730
506.3926, 0.4968260
506.8747, 0.5466610
507.3568, 1.040527
507.8389, 1.380295
508.3210, 1.504456
508.8032, 1.458847
509.2853, 1.301758
509.7674, 1.033554
510.2495, 0.6780240
510.7316, 0.1091920
511.2137, 0.4884190
511.6959, 0.6996000
512.1780, 0.5406490
512.6601, 0.2223970
513.1422, 0.3299260
513.6243, 0.8587800
514.1064, 0.9362030
514.5886, 0.3294220
515.0707, 0.1433560
515.5528, 0.3324580
516.0349, 1.187592
516.5170, 1.605515
516.9991, 0.7825160
517.4813, 3.9719000E-02
517.9634, 0.1157990
518.4455, 0.2514950
518.9276, 0.5295560
519.4097, 0.6349330
519.8918, 0.6463010
520.3740, 0.5609130
520.8561, 0.2932430
521.3382, 0.2129360
521.8203, 0.3790440
522.3024, 0.6585240
522.7845, 0.9387970
523.2667, 1.245346
523.7488, 1.376389
524.2309, 1.236893
524.7130, 0.9438930
525.1951, 0.7797700
525.6772, 0.7431180
526.1594, 0.7685390
526.6415, 0.8426970
527.1236, 0.9611820
527.6057, 1.119705
528.0878, 1.306702
528.5699, 1.397522
529.0521, 1.245605
529.5342, 0.9472500
530.0163, 0.5991970
530.4984, 0.1175080
530.9805, 0.1984250
531.4626, 3.3553999E-02
531.9448, 0.4031220
532.4269, 0.7052760
532.9090, 0.5180970
533.3911, 0.4075930
533.8732, 0.6346590
534.3553, 1.218491
534.8375, 1.631470
535.3196, 1.879242
535.8017, 1.926971
536.2838, 1.685272
536.7659, 0.8890230
537.2480, 0.5899050
537.7302, 1.007034
538.2123, 1.677094
538.6944, 1.814911
539.1765, 1.421173
539.6586, 1.164215
540.1407, 1.311005
540.6229, 1.640289
541.1050, 1.559204
541.5871, 1.110687
542.0692, 0.6959990
542.5513, 0.5615840
543.0334, 0.6271820
543.5156, 0.8151090
543.9977, 1.130661
544.4798, 1.380859
544.9619, 1.405624
545.4440, 1.299301
545.9261, 1.150864
546.4083, 0.9351960
546.8904, 0.7655490
547.3725, 0.6333770
547.8546, 0.5625310
548.3367, 0.5990140
548.8188, 0.8772130
549.3010, 1.163010
549.7831, 1.355515
550.2652, 1.469482
550.7473, 1.587952
551.2294, 1.768341
551.7115, 1.856125
552.1937, 1.730072
552.6758, 1.367950
553.1579, 1.020218
553.6400, 0.6910710
554.1221, 0.4077610
554.6042, 0.1732940
555.0864, 4.1870002E-02
555.5685, 0.1030270
556.0506, 0.4814150
556.5327, 0.9267580
557.0148, 0.9655150
557.4969, 0.7028200
557.9791, 0.5370640
558.4612, 0.8209990
558.9433, 1.208359
559.4254, 1.416138
559.9075, 1.423080
560.3896, 1.378525
560.8718, 1.423706
561.3539, 1.368927
561.8360, 1.072128
562.3181, 8.2657002E-02
562.8002, 0.3825230
563.2823, 7.6449998E-03
563.7645, 0.8017430
564.2466, 1.336365
564.7287, 1.599716
565.2108, 1.610703
565.6929, 1.255615
566.1750, 0.6672970
566.6572, 0.4880680
567.1393, 0.7717130
567.6214, 1.079254
568.1035, 1.110947
568.5856, 0.9455720
569.0677, 0.8582150
569.5499, 0.8776550
570.0320, 0.9847720
570.5141, 1.242767
570.9962, 1.538406
571.4783, 1.661438
571.9604, 1.493393
572.4426, 1.292831
572.9247, 1.227249
573.4068, 1.251953
573.8889, 1.243637
574.3710, 1.034988
574.8531, 0.9251710
575.3353, 1.127609
575.8174, 1.598099
576.2995, 1.797699
576.7816, 1.537140
577.2637, 1.192703
577.7458, 0.8941040
578.2280, 0.6196440
578.7101, 0.5299220
579.1922, 0.6575160
579.6743, 0.8971560
580.1564, 1.134354
580.6385, 1.371765
581.1207, 1.756607
581.6028, 2.420975
582.0849, 2.991516
582.5670, 2.791367
583.0491, 2.001144
583.5313, 1.194199
584.0134, 0.4646610
584.4955, 2.6672000E-02
584.9776, 7.2632000E-02
585.4597, 0.2805330
585.9418, 0.7720030
586.4240, 1.588150
586.9061, 2.265610
587.3882, 2.483597
587.8703, 2.062912
588.3524, 1.737457
588.8345, 1.643021
589.3167, 1.644455
589.7988, 1.614807
590.2809, 1.513519
590.7630, 1.449020
591.2451, 1.433823
591.7272, 1.451157
592.2094, 1.508087
592.6915, 1.615387
593.1736, 1.588806
593.6557, 1.335556
594.1378, 0.9292450
594.6199, 0.3687740
595.1021, 0.2806550
595.5842, 0.5272060
596.0663, 0.5096130
596.5484, 1.832687
597.0305, 2.118164
597.5126, 1.223694
597.9948, 0.4556580
598.4769, 0.8315120
598.9590, 1.499908
599.4411, 1.701538
599.9232, 0.8065950
600.4053, 0.2413940
600.8875, 0.5401460
601.3696, 1.174057
601.8517, 1.380310
602.3338, 0.8231960
602.8159, 0.5137180
603.2980, 0.7256470
603.7802, 1.289154
604.2623, 1.644623
604.7444, 1.794846
605.2265, 1.681076
605.7086, 1.014221
606.1907, 5.2460000E-02
606.6729, 0.2230990
607.1550, 0.1741490
607.6371, 0.6938170
608.1192, 0.9774780
608.6013, 1.047775
609.0834, 0.9818730
609.5656, 0.7440490
610.0477, 0.5877530
610.5298, 0.8820800
611.0119, 1.241226
611.4940, 1.234283
611.9761, 0.1368410
612.4583, 0.5837860
612.9404, 0.4866180
613.4225, 0.1029210
613.9046, 0.4615170
614.3867, 0.4544680
614.8688, 0.4658970
615.3510, 0.6097870
615.8331, 0.8649140
616.3152, 1.146469
616.7973, 1.468140
617.2794, 1.644958
617.7615, 1.396606
618.2437, 0.9075780
618.7258, 0.7602690
619.2079, 0.9938200
619.6900, 1.212646
620.1721, 0.9352260
620.6542, 0.4559630
621.1364, 0.3217930
621.6185, 0.7907410
622.1006, 1.224045
622.5827, 1.361786
623.0648, 1.300583
623.5469, 1.174698
624.0291, 0.7253570
624.5112, 0.5808870
624.9933, 1.095016
625.4754, 1.968567
625.9575, 2.085236
626.4396, 1.147934
626.9218, 0.3512420
627.4039, 0.2010960
627.8860, 0.5780180
628.3681, 0.8144990
628.8502, 0.9094090
629.3323, 0.8950200
629.8145, 0.6234440
630.2966, 0.3063200
630.7787, 0.4638670
631.2608, 1.186142
631.7429, 1.798843
632.2250, 1.627472
632.7072, 1.156235
633.1893, 0.9130400
633.6714, 1.156631
634.1535, 1.415359
634.6356, 1.580704
635.1177, 1.681305
635.5999, 1.758240
636.0820, 1.690292
636.5641, 1.825180
637.0462, 2.396194
637.5283, 3.159256
638.0104, 3.174240
638.4926, 2.299866
638.9747, 1.587311
639.4568, 1.527817
639.9389, 1.985153
640.4210, 2.683502
640.9031, 3.598892
641.3853, 4.175934
641.8674, 3.658829
642.3495, 2.773590
642.8316, 2.451630
643.3137, 2.842224
643.7958, 3.067322
644.2780, 2.406036
644.7601, 1.520187
645.2422, 1.000778
645.7243, 1.279907
646.2064, 1.408661
646.6885, 1.247055
647.1707, 0.9627990
647.6528, 0.7417910
648.1349, 0.5150760
648.6170, 0.6179660
649.0991, 1.274445
649.5812, 2.127747
650.0634, 2.263000
650.5455, 1.728561
651.0276, 1.204681
651.5097, 0.9414980
651.9918, 0.9145050
652.4739, 1.159271
652.9561, 1.606567
653.4382, 2.047943
653.9203, 2.493179
654.4024, 2.835953
654.8845, 3.072952
655.3666, 3.215668
655.8488, 3.094910
656.3309, 2.326172
656.8130, 1.513214
657.2951, 1.001419
657.7772, 0.8326720
658.2593, 0.8967440
658.7415, 1.294296
659.2236, 1.751068
659.7057, 1.944061
660.1878, 1.879715
660.6699, 1.831726
661.1520, 1.879639
661.6342, 1.888245
662.1163, 1.551941
662.5984, 1.015381
663.0805, 0.6671450
663.5626, 0.9058840
664.0447, 1.129532
664.5269, 0.7312620
665.0090, 1.2100000E-02
665.4911, 0.4173890
665.9732, 7.1990997E-02
666.4553, 0.5932920
666.9374, 0.8329320
667.4196, 0.8093570
667.9017, 0.7627720
668.3838, 0.6295470
668.8659, 0.6052550
669.3480, 0.8928380
669.8301, 1.478653
670.3123, 1.549164
670.7944, 1.097992
671.2765, 0.6200260
671.7586, 0.3626560
672.2407, 0.3677220
672.7228, 0.9221500
673.2050, 2.200043
673.6871, 3.153061
674.1692, 2.540146
674.6513, 1.357040
675.1334, 0.8073120
675.6155, 1.925537
676.0977, 2.578201
676.5798, 1.721924
677.0619, 0.3028870
677.5440, 0.2260740
678.0261, 0.6579590
678.5082, 1.336609
678.9904, 1.517639
679.4725, 1.345245
679.9546, 1.114120
680.4367, 0.8274230
680.9188, 0.6800990
681.4009, 0.8882140
681.8831, 1.204697
682.3652, 1.116882
682.8473, 0.6948390
683.3294, 0.2780760
683.8115, 2.1942001E-02
684.2936, 0.1228490
684.7758, 0.1825870
685.2579, 0.1600340
685.7400, 0.1022190
686.2221, 5.3543001E-02
686.7042, 4.9591001E-02
687.1863, 0.2647550
687.6685, 0.6479030
688.1506, 0.8739010
688.6327, 0.9023130
689.1148, 0.8679810
689.5969, 0.8706970
690.0790, 0.9097900
690.5612, 1.013626
691.0433, 1.195618
691.5254, 1.371857
692.0075, 1.500366
692.4896, 1.538116
692.9717, 1.354752
693.4539, 0.6989140
693.9360, 0.2469330
694.4181, 0.7411040
694.9002, 1.606339
695.3823, 1.950836
695.8644, 0.7644960
696.3466, 6.4071998E-02
696.8287, 0.3883820
697.3108, 1.315872
697.7929, 1.862808
698.2750, 2.054535
698.7571, 1.816681
699.2393, 0.8650050
699.7214, 0.3809970
700.2035, 0.4288480
700.6856, 0.6045230
701.1677, 1.554840
701.6498, 1.643250
702.1320, 1.392838
702.6141, 1.378143
703.0962, 1.579346
703.5783, 1.689987
704.0604, 1.536972
704.5425, 1.272018
705.0247, 0.8890230
705.5068, 0.2968750
705.9889, 0.1718290
706.4710, 0.8731840
706.9531, 1.577377
707.4352, 1.746002
707.9174, 1.276749
708.3995, 0.8454280
708.8816, 0.4951630
709.3637, 0.3085480
709.8458, 0.4839630
710.3279, 0.8834530
710.8101, 1.196411
711.2922, 1.392822
711.7743, 1.387573
712.2564, 0.8660740
712.7385, 0.2124480
713.2206, 0.1039280
713.7028, 0.4225160
714.1849, 0.7707980
714.6670, 0.5852660
715.1491, 0.1872860
715.6312, 1.0635000E-02
716.1133, 9.1249999E-03
716.5955, 0.2201690
717.0776, 0.7243650
717.5597, 1.286530
718.0418, 1.244247
718.5239, 0.6757510
719.0060, 0.3820950
719.4882, 0.8636930
719.9703, 1.566559
720.4524, 1.805710
720.9345, 1.692551
721.4166, 1.570404
721.8987, 1.673553
722.3809, 1.730347
722.8630, 1.527359
723.3451, 1.085388
723.8272, 0.8730320
724.3093, 1.007584
724.7914, 1.158661
725.2736, 1.196701
725.7557, 1.138229
726.2378, 1.208191
726.7199, 1.426575
727.2020, 1.583282
727.6841, 1.496094
728.1663, 1.261978
728.6484, 1.062897
729.1305, 0.9093170
729.6126, 0.8447270
730.0947, 0.9512480
730.5768, 1.125809
731.0590, 1.324036
731.5411, 1.578033
732.0232, 1.640518
732.5053, 1.170959
732.9874, 0.7334750
733.4695, 0.7086640
733.9517, 1.274719
734.4338, 1.603668
734.9159, 1.648911
735.3980, 1.570587
735.8801, 1.642975
736.3622, 1.782608
736.8444, 1.644958
737.3265, 1.110565
737.8086, 0.6475520
738.2907, 0.8660130
738.7728, 1.363647
739.2549, 1.594162
739.7371, 1.174866
740.2192, 0.8927310
740.7013, 1.141800
741.1834, 1.575851
741.6655, 1.726089
742.1476, 1.451675
742.6298, 1.207428
743.1119, 1.060425
743.5940, 0.9558870
744.0761, 0.6930390
744.5582, 0.3141780
745.0403, 0.2713620
745.5225, 0.8083950
746.0046, 1.547333
746.4867, 2.151352
746.9688, 2.594269
747.4509, 2.815079
747.9330, 2.640671
748.4152, 2.394455
748.8973, 2.206940
749.3794, 2.046692
749.8615, 1.802353
750.3436, 1.365921
750.8257, 1.044647
751.3079, 0.9529110
751.7900, 1.021561
752.2721, 1.046768
752.7542, 1.030594
753.2363, 0.8611910
753.7184, 0.2492070
754.2006, 0.3937680
754.6827, 0.2682950
755.1648, 0.4566350
755.6469, 1.071640
756.1290, 1.322144
756.6111, 1.270554
757.0933, 0.7219700
757.5754, 0.2870790
758.0575, 0.7610470
758.5396, 0.4405670
759.0217, 0.1570130
759.5038, 1.017075
759.9860, 2.061279
760.4681, 2.347260
760.9502, 1.813004
761.4323, 1.221710
761.9144, 1.103973
762.3965, 1.262924
762.8787, 1.462082
763.3608, 1.660995
763.8429, 1.552887
764.3250, 0.3527830
764.8071, 0.7565460
765.2892, 0.7909850
765.7714, 0.5105130
766.2535, 1.360428
766.7356, 1.512680
767.2177, 1.391861
767.6998, 1.179810
768.1819, 0.8651430
768.6641, 0.6229860
769.1462, 0.4465330
769.6283, 0.4143980
770.1104, 0.7699740
770.5925, 1.265839
771.0746, 1.329453
771.5568, 0.9165340
772.0389, 0.5971680
772.5210, 0.8629760
773.0031, 1.277832
773.4852, 1.508713
773.9673, 1.492142
774.4495, 1.362534
774.9316, 1.003113
775.4137, 0.6700290
775.8958, 0.5579530
776.3779, 0.6781010
776.8600, 0.9414060
777.3422, 1.392075
777.8243, 1.712845
778.3064, 1.466660
778.7885, 0.8959200
779.2706, 0.3914490
779.7527, 1.5594000E-02
780.2349, 0.1146090
780.7170, 0.6518710
781.1991, 1.534409
781.6812, 1.845901
782.1633, 1.086700
782.6454, 0.5067140
783.1276, 9.2499003E-02
783.6097, 0.1245420
784.0918, 3.9992999E-02
784.5739, 0.3522950
785.0560, 0.6281890
785.5381, 0.7440030
786.0203, 0.7411350
786.5024, 0.5919950
786.9845, 0.3742830
787.4666, 0.1954960
787.9487, 3.5324000E-02
788.4308, 6.0470998E-02
788.9130, 0.5267490
789.3951, 1.124649
789.8772, 1.547562
790.3593, 1.837524
790.8414, 1.763580
791.3235, 1.056381
791.8057, 0.3547970
792.2878, 0.6171260
792.7699, 1.762100
793.2520, 2.424377
793.7341, 2.356598
794.2162, 2.031311
794.6984, 1.873169
795.1805, 1.828445
795.6626, 1.826355
796.1447, 1.893982
796.6268, 1.900650
797.1089, 1.715332
797.5911, 1.492538
798.0732, 1.403168
798.5553, 1.487167
799.0374, 1.648102
799.5195, 1.952621
800.0016, 2.206024
800.4838, 2.038727
800.9659, 1.555527
801.4480, 1.383270
801.9301, 1.686615
802.4122, 2.117172
802.8943, 2.421265
803.3765, 2.612595
803.8586, 2.709335
804.3407, 2.679810
804.8228, 2.619522
805.3049, 2.371368
805.7870, 2.206924
806.2692, 2.446213
806.7513, 3.226425
807.2334, 3.906754
807.7155, 4.485245
808.1976, 4.776245
808.6797, 4.269867
809.1619, 3.271820
809.6440, 2.714996
810.1261, 2.876907
810.6082, 3.192062
811.0903, 3.352722
811.5724, 3.387833
812.0546, 3.295822
812.5367, 2.982681
813.0188, 2.808395
813.5009, 2.792923
813.9830, 2.887772
814.4651, 3.079559
814.9473, 3.384888
815.4294, 3.560150
815.9115, 3.604156
816.3936, 3.532074
816.8757, 3.382568
817.3578, 3.164673
817.8400, 2.884293
818.3221, 2.487015
818.8042, 2.311890
819.2863, 2.818405
819.7684, 3.537064
820.2505, 4.020737
820.7327, 4.189453
821.2148, 4.223206
821.6969, 4.054779
822.1790, 3.862396
822.6611, 3.900314
823.1432, 4.115036
823.6254, 3.959839
824.1075, 3.281693
824.5896, 2.637070
825.0717, 2.599503
825.5538, 2.851761
826.0359, 3.078430
826.5181, 3.277573
827.0002, 3.261230
827.4823, 2.786942
827.9644, 2.256622
828.4465, 1.921326
828.9286, 1.775818
829.4108, 1.761826
829.8929, 1.931366
830.3750, 2.120529
830.8571, 2.203110
831.3392, 2.188766
831.8214, 2.032608
832.3035, 1.722458
832.7856, 1.546631
833.2677, 1.810455
833.7498, 2.188492
834.2319, 2.457779
834.7141, 2.590897
835.1962, 2.540436
835.6783, 2.110199
836.1604, 1.828003
836.6425, 2.216217
837.1246, 3.174820
837.6068, 3.288055
838.0889, 2.539902
838.5710, 1.918320
839.0531, 2.483704
839.5352, 3.382294
840.0173, 3.603485
840.4995, 3.094147
840.9816, 2.733826
841.4637, 3.130096
841.9458, 3.422012
842.4279, 3.117538
842.9100, 2.233795
843.3922, 1.912384
843.8743, 2.267670
844.3564, 2.546585
844.8385, 2.042664
845.3206, 1.208084
845.8027, 1.243805
846.2849, 2.002151
846.7670, 2.663025
847.2491, 2.758026
847.7312, 2.633957
848.2133, 2.415878
848.6954, 2.130463
849.1776, 1.930740
849.6597, 1.881943
850.1418, 1.796158
850.6239, 1.574905
851.1060, 1.295258
851.5881, 1.229416
852.0703, 1.361023
852.5524, 1.546631
853.0345, 1.778275
853.5166, 1.969025
853.9987, 2.074890
854.4808, 2.075882
854.9630, 1.922882
855.4451, 1.196594
855.9272, 0.8855290
856.4093, 1.391449
856.8914, 2.179169
857.3735, 2.123322
857.8557, 1.133484
858.3378, 0.5869750
858.8199, 0.9804380
859.3020, 1.706421
859.7841, 1.901413
860.2662, 1.742294
860.7484, 1.581177
861.2305, 1.502792
861.7126, 1.502899
862.1947, 1.737488
862.6768, 1.983704
863.1589, 1.894913
863.6411, 1.245621
864.1232, 0.9245450
864.6053, 1.063660
865.0874, 1.420975
865.5695, 1.829086
866.0516, 2.196701
866.5338, 2.198929
867.0159, 1.720032
867.4980, 1.159439
867.9801, 0.6144710
868.4622, 0.2300720
868.9443, 0.1622770
869.4265, 0.6003110
869.9086, 0.9835210
870.3907, 1.340912
870.8728, 1.594452
871.3549, 1.718018
871.8370, 1.697998
872.3192, 1.198471
872.8013, 0.1857600
873.2834, 0.5411990
873.7655, 0.1296540
874.2476, 1.111145
874.7297, 1.142319
875.2119, 5.5160999E-02
875.6940, 0.5765080
876.1761, 5.9810001E-03
876.6582, 0.7314000
877.1403, 1.321884
877.6224, 1.752960
878.1046, 1.810532
878.5867, 1.485092
879.0688, 1.027023
879.5509, 0.3783570
880.0330, 0.1814120
880.5151, 0.1054080
880.9973, 0.4518130
881.4794, 0.8887020
881.9615, 0.8925170
882.4436, 0.8014980
882.9257, 0.7228550
883.4078, 0.6488040
883.8900, 0.5485230
884.3721, 0.4236600
884.8542, 0.2380830
885.3363, 8.2932003E-02
885.8184, 0.3677830
886.3005, 0.2657930
886.7827, 0.1148220
887.2648, 0.5041350
887.7469, 0.8616180
888.2290, 1.114700
888.7111, 1.179367
889.1932, 1.136398
889.6754, 1.091751
890.1575, 0.9863590
890.6396, 1.098770
891.1217, 1.569366
891.6038, 1.977127
892.0859, 1.658783
892.5681, 0.8487240
893.0502, 0.2218480
893.5323, 0.1204680
894.0144, 0.1696780
894.4965, 0.4420780
894.9786, 1.108459
895.4608, 1.241623
895.9429, 0.5339510
896.4250, 0.2282100
896.9071, 0.4026950
897.3892, 0.8078920
897.8713, 1.444366
898.3535, 2.207062
898.8356, 2.289261
899.3177, 1.738571
899.7998, 1.220703
900.2819, 1.349564
900.7640, 1.570816
901.2462, 1.353592
901.7283, 0.7730100
902.2104, 0.5375670
902.6925, 0.9153440
903.1746, 1.344894
903.6567, 1.740723
904.1389, 2.029694
904.6210, 1.885056
905.1031, 1.359772
905.5852, 0.9192500
906.0673, 0.7382660
906.5494, 0.7406770
907.0316, 0.8169400
907.5137, 1.033066
907.9958, 1.511459
908.4779, 3.017197
908.9600, 3.711517
909.4421, 3.091080
909.9243, 1.981415
910.4064, 1.510605
910.8885, 1.643860
911.3706, 1.755676
911.8527, 1.788055
912.3348, 1.573395
912.8170, 0.4983980
913.2991, 0.6698460
913.7812, 0.9691010
914.2633, 3.9980002E-03
914.7454, 0.8282620
915.2275, 1.330276
915.7097, 1.630753
916.1918, 1.737885
916.6739, 1.657288
917.1560, 1.810928
917.6381, 2.199844
918.1202, 2.468231
918.6024, 2.239761
919.0845, 1.849548
919.5666, 1.692200
920.0487, 1.724503
920.5308, 1.631378
921.0129, 1.088104
921.4951, 0.6869810
921.9772, 0.5802460
922.4593, 0.7108460
922.9414, 0.9516910
923.4235, 1.296616
923.9056, 1.610901
924.3878, 1.846939
924.8699, 2.038528
925.3520, 2.352493
925.8341, 2.614319
926.3162, 2.545593
926.7983, 1.750320
927.2805, 1.093430
927.7626, 0.5938870
928.2447, 0.3395230
928.7268, 0.4792940
929.2089, 1.016922
929.6910, 1.718201
930.1732, 2.616959
930.6553, 3.082169
931.1374, 1.872910
931.6195, 0.3218540
932.1016, 2.3190000E-03
932.5837, 1.156860
933.0659, 1.904663
933.5480, 1.305771
934.0301, 0.8141940
934.5122, 0.9935760
934.9943, 1.712616
935.4764, 2.058136
935.9586, 2.039902
936.4407, 2.010178
936.9228, 2.238358
937.4049, 2.453918
937.8870, 2.322296
938.3691, 1.968521
938.8513, 1.648758
939.3334, 1.504684
939.8155, 1.273041
940.2976, 0.8425750
940.7797, 0.4007870
941.2618, 0.2599330
941.7440, 0.4076390
942.2261, 0.6797180
942.7082, 1.090485
943.1903, 1.407135
943.6724, 1.276169
944.1545, 1.018967
944.6367, 0.9587550
945.1188, 1.163712
945.6009, 1.402924
946.0830, 1.783234
946.5651, 1.975769
947.0472, 1.622986
947.5294, 0.8438720
948.0115, 0.8741300
948.4936, 1.629059
948.9757, 2.150543
949.4578, 1.589981
949.9399, 0.7790220
950.4221, 0.3128050
950.9042, 0.1439820
951.3863, 2.6779000E-02
951.8684, 4.8520002E-03
952.3505, 5.6412000E-02
952.8326, 0.1672060
953.3148, 0.3008580
953.7969, 0.4344790
954.2790, 0.5398100
954.7611, 0.4712370
955.2432, 0.1347660
955.7253, 0.1660310
956.2075, 8.5693002E-02
956.6896, 6.8588004E-02
957.1717, 6.6101000E-02
957.6538, 0.7384490
958.1359, 0.8921510
958.6180, 0.2960360
959.1002, 0.2538150
959.5823, 6.3568003E-02
960.0644, 0.6179500
960.5465, 1.073456
961.0286, 1.302444
961.5107, 1.416504
961.9929, 1.406921
962.4750, 1.374542
962.9571, 1.317734
963.4392, 1.282715
963.9213, 1.466064
964.4034, 1.969696
964.8856, 2.250412
965.3677, 2.101120
965.8498, 1.829498
966.3319, 2.052048
966.8140, 2.502899
967.2961, 2.589218
967.7783, 2.014221
968.2604, 1.448395
968.7425, 0.9867550
969.2246, 0.7643740
969.7067, 0.9369960
970.1888, 1.583664
970.6710, 2.015549
971.1531, 2.161316
971.6352, 2.193420
972.1173, 2.219681
972.5994, 2.264709
973.0815, 2.479843
973.5637, 2.818130
974.0458, 3.008728
974.5279, 3.071045
975.0100, 2.786133
975.4921, 1.829315
975.9742, 0.6660920
976.4564, 0.6405790
976.9385, 1.678848
977.4206, 2.288696
977.9027, 1.932358
978.3848, 1.503906
978.8669, 2.103363
979.3491, 3.010010
979.8312, 3.301086
980.3133, 2.408737
980.7954, 1.968491
981.2775, 2.217636
981.7596, 2.594086
982.2418, 2.727524
982.7239, 2.644867
983.2060, 2.387115
983.6881, 1.993454
984.1702, 1.819611
984.6523, 2.113449
985.1345, 2.660400
985.6166, 3.679565
986.0987, 4.849686
986.5808, 5.058578
987.0629, 3.928757
987.5450, 3.023743
988.0272, 2.653427
988.5093, 2.614929
988.9914, 2.809067
989.4735, 3.062103
989.9556, 2.899612
990.4377, 2.072632
990.9199, 1.591934
991.4020, 2.426788
991.8841, 3.282959
992.3662, 3.183060
992.8483, 2.084366
993.3304, 1.662170
993.8126, 1.959595
994.2947, 2.402878
994.7768, 2.578766
995.2589, 2.674637
995.7410, 2.957108
996.2231, 3.321289
996.7053, 3.466080
997.1874, 3.022110
997.6695, 2.745148
998.1516, 2.835022
998.6337, 3.016678
999.1158, 2.733383
999.5980, 2.096802
1000.080, 2.001312
1000.562, 2.640152
1001.044, 3.239853
1001.526, 3.142456
1002.009, 2.868347
1002.491, 2.697510
1002.973, 2.695877
1003.455, 2.938644
1003.937, 3.561401
1004.419, 4.003998
1004.901, 3.966904
1005.383, 3.627930
1005.865, 3.233856
1006.348, 2.860992
1006.830, 2.717468
1007.312, 3.151855
1007.794, 3.509262
1008.276, 3.447159
1008.758, 3.295502
1009.240, 3.494034
1009.722, 4.123276
1010.205, 4.139450
1010.687, 3.406204
1011.169, 2.699142
1011.651, 2.799347
1012.133, 3.226730
1012.615, 3.546555
1013.097, 3.735153
1013.579, 3.803009
1014.061, 3.823090
1014.544, 3.517456
1015.026, 2.562637
1015.508, 1.491501
1015.990, 1.947449
1016.472, 3.516357
1016.954, 4.426331
1017.436, 3.960800
1017.918, 3.318405
1018.401, 3.162338
1018.883, 3.243637
1019.365, 3.353149
1019.847, 3.551926
1020.329, 3.351791
1020.811, 2.654556
1021.293, 2.101852
1021.775, 2.390594
1022.257, 2.995438
1022.740, 3.080383
1023.222, 2.738541
1023.704, 2.380844
1024.186, 1.905884
1024.668, 1.785095
1025.150, 2.295822
1025.632, 3.012512
1026.114, 3.189240
1026.596, 2.878510
1027.079, 2.607635
1027.561, 2.469803
1028.043, 2.286911
1028.525, 1.698273
1029.007, 1.158310
1029.489, 1.147400
1029.971, 1.738586
1030.453, 2.147141
1030.936, 2.404327
1031.418, 2.346771
1031.900, 1.724472
1032.382, 0.9485020
1032.864, 0.9562990
1033.346, 1.457748
1033.828, 1.757523
1034.310, 1.356674
1034.792, 1.117264
1035.275, 1.408401
1035.757, 1.800797
1036.239, 1.926834
1036.721, 1.786621
1037.203, 1.631485
1037.685, 1.472183
1038.167, 1.232635
1038.649, 0.6261290
1039.132, 0.1176910
1039.614, 0.1831050
1040.096, 0.7151640
1040.578, 1.097076
1041.060, 1.353943
1041.542, 1.259583
1042.024, 0.6284480
1042.506, 5.1514000E-02
1042.989, 8.2901001E-02
1043.471, 0.6841890
1043.953, 1.007309
1044.435, 0.8654940
1044.917, 0.7222440
1045.399, 0.7658540
1045.881, 0.8435060
1046.363, 0.8803250
1046.845, 0.8840940
1047.328, 0.9060970
1047.810, 0.9489440
1048.292, 1.013260
1048.774, 1.145874
1049.256, 1.243805
1049.738, 1.326599
1050.220, 1.287750
1050.702, 0.8926700
1051.184, 0.3134610
1051.667, 0.6961360
1052.149, 4.7299999E-04
1052.631, 0.7826390
1053.113, 0.5760500
1053.595, 7.7179000E-02
1054.077, 1.8707000E-02
1054.559, 0.7757720
1055.041, 1.268173
1055.523, 0.8591160
1056.006, 0.4406130
1056.488, 0.2302700
1056.970, 0.1855770
1057.452, 0.3495330
1057.934, 0.6657260
1058.416, 0.4537050
1058.898, 0.5383000
1059.380, 1.264053
1059.863, 0.4843140
1060.345, 0.6410680
1060.827, 1.111038
1061.309, 0.8543400
1061.791, 0.6222840
1062.273, 0.3849640
1062.755, 0.3155210
1063.237, 0.5614170
1063.719, 0.9158480
1064.202, 1.138260
1064.684, 1.214584
1065.166, 1.106781
1065.648, 0.5913240
1066.130, 0.2798310
1066.612, 0.3315580
1067.094, 0.4451900
1067.576, 0.3147890
1068.059, 1.5594000E-02
1068.541, 3.3523999E-02
1069.023, 0.3380130
1069.505, 0.6251830
1069.987, 0.7558900
1070.469, 0.7769010
1070.951, 0.6569980
1071.433, 0.4568630
1071.916, 0.2551880
1072.398, 3.5216998E-02
1072.880, 9.8110000E-03
1073.362, 0.2374270
1073.844, 0.4669800
1074.326, 0.4057010
1074.808, 0.2381590
1075.290, 0.1637420
1075.772, 0.2032470
1076.255, 0.2111050
1076.737, 0.1688230
1077.219, 9.8480001E-02
1077.701, 6.3049003E-02
1078.183, 0.1422120
1078.665, 0.3438420
1079.147, 1.160065
1079.629, 1.780075
1080.111, 2.092484
1080.594, 2.122742
1081.076, 1.512070
1081.558, 0.9728090
1082.040, 1.029327
1082.522, 1.582489
1083.004, 1.466660
1083.486, 0.7683870
1083.968, 0.3314670
1084.450, 0.8928830
1084.933, 1.559052
1085.415, 1.853653
1085.897, 1.843094
1086.379, 1.592575
1086.861, 0.9129330
1087.343, 0.9257350
1087.825, 1.802856
1088.307, 2.569321
1088.790, 2.074417
1089.272, 1.189255
1089.754, 0.9853520
1090.236, 1.397614
1090.718, 1.786240
1091.200, 2.050659
1091.682, 2.256546
1092.164, 2.424164
1092.646, 2.518265
1093.129, 2.413162
1093.611, 2.200806
1094.093, 2.141083
1094.575, 2.285431
1095.057, 2.365417
1095.539, 1.990997
1096.021, 1.846115
1096.503, 2.392380
1096.986, 3.332260
1097.468, 3.455399
1097.950, 2.852951
1098.432, 2.296127
1098.914, 2.044998
1099.396, 1.977280
1099.878, 1.946075
1100.360, 2.002396
1100.843, 2.256927
1101.325, 2.737549
1101.807, 3.255386
1102.289, 3.837280
1102.771, 4.204178
1103.253, 4.060455
1103.735, 3.752365
1104.217, 3.607666
1104.699, 3.617599
1105.182, 3.781326
1105.664, 4.422958
1106.146, 4.585327
1106.628, 4.022125
1107.110, 3.405991
1107.592, 3.369843
1108.074, 3.736572
1108.556, 4.242783
1109.038, 4.811325
1109.521, 5.167374
1110.003, 5.150391
1110.485, 5.052414
1110.967, 4.883453
1111.449, 4.740982
1111.931, 4.800735
1112.413, 5.024506
1112.895, 5.331070
1113.377, 5.718948
1113.860, 5.819122
1114.342, 4.937103
1114.824, 4.197189
1115.306, 4.437958
1115.788, 5.260956
1116.270, 5.196136
1116.752, 4.244751
1117.234, 3.775162
1117.717, 4.354721
1118.199, 5.049225
1118.681, 5.060730
1119.163, 4.762878
1119.645, 4.432480
1120.127, 4.084503
1120.609, 3.971848
1121.091, 4.115875
1121.573, 4.369522
1122.056, 4.785461
1122.538, 5.090500
1123.020, 4.804367
1123.502, 4.222031
1123.984, 3.813889
1124.466, 3.821060
1124.948, 3.635620
1125.430, 3.113403
1125.913, 2.765045
1126.395, 3.167007
1126.877, 3.874054
1127.359, 3.702820
1127.841, 2.981964
1128.323, 2.621918
1128.805, 3.605759
1129.287, 4.007065
1129.770, 3.296295
1130.252, 2.386917
1130.734, 2.185684
1131.216, 2.542664
1131.698, 3.014648
1132.180, 3.519333
1132.662, 3.616821
1133.144, 2.440018
1133.626, 1.567154
1134.109, 1.730469
1134.591, 2.363037
1135.073, 2.676132
1135.555, 2.683014
1136.037, 2.391907
1136.519, 1.796356
1137.001, 1.529373
1137.483, 2.480423
1137.965, 3.477783
1138.448, 3.806091
1138.930, 3.595718
1139.412, 3.165436
1139.894, 2.504623
1140.376, 1.770584
1140.858, 0.9270020
1141.340, 0.4065090
1141.822, 1.002991
1142.304, 1.821045
1142.787, 1.978775
1143.269, 1.418991
1143.751, 0.9723660
1144.233, 0.6036990
1144.715, 0.5875240
1145.197, 1.118011
1145.679, 1.778046
1146.161, 2.110657
1146.644, 2.245529
1147.126, 2.364166
1147.608, 2.512543
1148.090, 2.523834
1148.572, 2.438904
1149.054, 2.090424
1149.536, 1.179291
1150.018, 0.2114410
1150.500, 0.1629030
1150.983, 0.7099000
1151.465, 1.208450
1151.947, 1.468246
1152.429, 1.717087
1152.911, 2.100204
1153.393, 2.226395
1153.875, 1.611618
1154.357, 0.6176150
1154.840, 0.3315730
1155.322, 0.5318910
1155.804, 0.5248570
1156.286, 0.4166110
1156.768, 0.9140780
1157.250, 0.6227870
1157.732, 0.1010890
1158.214, 0.1603090
1158.697, 0.2110440
1159.179, 0.1889040
1159.661, 0.1330570
1160.143, 0.2376100
1160.625, 0.8091430
1161.107, 1.297043
1161.589, 1.657379
1162.071, 1.741974
1162.553, 1.136642
1163.036, 2.0600001E-03
1163.518, 0.5252530
1164.000, 0.3773350
1164.482, 4.0222000E-02
1164.964, 0.4856410
1165.446, 0.8047940
1165.928, 0.5579220
1166.410, 8.5677996E-02
1166.892, 5.4535002E-02
1167.375, 0.4290470
1167.857, 0.6578830
1168.339, 0.6656950
1168.821, 0.6359410
1169.303, 0.6092680
1169.785, 0.6746220
1170.267, 0.9864350
1170.749, 1.417938
1171.231, 1.610367
1171.714, 1.564316
1172.196, 1.429657
1172.678, 1.201248
1173.160, 1.118362
1173.642, 1.698730
1174.124, 2.252060
1174.606, 1.977448
1175.088, 1.091156
1175.571, 0.9844210
1176.053, 1.698898
1176.535, 2.421448
1177.017, 2.986130
1177.499, 3.287659
1177.981, 3.027222
1178.463, 2.595734
1178.945, 2.339401
1179.427, 2.278412
1179.910, 2.500046
1180.392, 3.066910
1180.874, 3.250153
1181.356, 2.618927
1181.838, 1.861771
1182.320, 1.786133
1182.802, 1.960815
1183.284, 1.795258
1183.767, 1.136169
1184.249, 1.088608
1184.731, 1.756195
1185.213, 2.346329
1185.695, 2.514297
1186.177, 2.376724
1186.659, 1.764862
1187.141, 1.067734
1187.624, 0.9547730
1188.106, 1.823547
1188.588, 1.930984
1189.070, 1.141068
1189.552, 0.3806000
1190.034, 0.2059940
1190.516, 0.3235780
1190.998, 0.5532380
1191.480, 0.7527620
1191.963, 0.6374360
1192.445, 0.1031040
1192.927, 0.3917690
1193.409, 0.2016450
1193.891, 5.8533002E-02
1194.373, 2.5803000E-02
1194.855, 6.5154999E-02
1195.337, 0.1659700
1195.819, 0.5647280
1196.302, 0.7791440
1196.784, 0.6259310
1197.266, 0.5806120
1197.748, 0.6545410
1198.230, 0.8224490
1198.712, 1.231216
1199.194, 1.604904
1199.676, 1.476639
1200.158, 1.006912
1200.641, 0.6393130
1201.123, 0.5012510
1201.605, 0.3204500
1202.087, 4.1976999E-02
1202.569, 0.1027830
1203.051, 0.3151250
1203.533, 0.8424380
1204.015, 0.6814120
1204.498, 8.0673002E-02
1204.980, 2.0630000E-02
1205.462, 1.050690
1205.944, 1.577805
1206.426, 1.403656
1206.908, 0.9774780
1207.390, 0.6190340
1207.872, 0.3564610
1208.354, 0.1752010
1208.837, 0.1115880
1209.319, 0.3760530
1209.801, 1.252487
1210.283, 1.691162
1210.765, 1.485184
1211.247, 1.152573
1211.729, 1.297897
1212.211, 1.594574
1212.694, 1.624374
1213.176, 1.404922
1213.658, 1.169418
1214.140, 0.8639070
1214.622, 0.6801300
1215.104, 0.7262420
1215.586, 0.8458100
1216.068, 0.7469330
1216.551, 0.6499630
1217.033, 0.9611360
1217.515, 1.601151
1217.997, 1.851471
1218.479, 1.578094
1218.961, 1.345245
1219.443, 1.234543
1219.925, 1.239899
1220.407, 1.508621
1220.890, 1.771637
1221.372, 1.518250
1221.854, 0.8798370
1222.336, 1.020538
1222.818, 2.303741
1223.300, 2.842499
1223.782, 2.125763
1224.264, 1.224747
1224.746, 1.504868
1225.229, 2.096329
1225.711, 1.962479
1226.193, 1.128372
1226.675, 0.8198550
1227.157, 1.134003
1227.639, 1.563049
1228.121, 2.065536
1228.603, 2.334381
1229.085, 1.728455
1229.568, 0.9692690
1230.050, 0.8217770
1230.532, 1.257645
1231.014, 1.426117
1231.496, 1.261200
1231.978, 1.509415
1232.460, 2.460648
1232.942, 3.262161
1233.425, 2.993408
1233.907, 2.295456
1234.389, 1.593948
1234.871, 0.9621730
1235.353, 0.6939090
1235.835, 0.8081820
1236.317, 0.9116670
1236.799, 0.9201660
1237.281, 0.8543550
1237.764, 0.6333310
1238.246, 0.4319310
1238.728, 0.4045870
1239.210, 0.5200650
1239.692, 0.6660770
1240.174, 0.8404540
1240.656, 1.106293
1241.138, 1.513824
1241.621, 1.813339
1242.103, 1.817047
1242.585, 1.659882
1243.067, 1.358490
1243.549, 0.9933470
1244.031, 0.8054050
1244.513, 0.7994380
1244.995, 1.156281
1245.478, 1.997833
1245.960, 2.628983
1246.442, 2.578125
1246.924, 2.218262
1247.406, 1.628876
1247.888, 0.9445190
1248.370, 0.9453580
1248.852, 1.383301
1249.334, 1.284515
1249.817, 0.2699890
1250.299, 0.3328090
1250.781, 0.6440120
1251.263, 1.543869
1251.745, 1.638779
1252.227, 1.275192
1252.709, 1.334656
1253.191, 1.696640
1253.673, 1.870834
1254.156, 1.782913
1254.638, 1.681076
1255.120, 1.739532
1255.602, 1.609528
1256.084, 1.054565
1256.566, 0.4551850
1257.048, 0.7129670
1257.530, 1.476379
1258.012, 2.046555
1258.495, 2.297302
1258.977, 2.436432
1259.459, 2.614670
1259.941, 2.354126
1260.423, 1.244873
1260.905, 0.1714480
1261.387, 0.9310460
1261.869, 2.457581
1262.352, 3.177399
1262.834, 2.811188
1263.316, 2.296707
1263.798, 1.585037
1264.280, 1.144852
1264.762, 1.137543
1265.244, 1.391724
1265.726, 1.965729
1266.208, 2.508972
1266.691, 2.553268
1267.173, 2.065811
1267.655, 1.719910
1268.137, 1.518066
1268.619, 1.451385
1269.101, 1.559891
1269.583, 1.611572
1270.065, 1.289810
1270.548, 0.8852080
1271.030, 0.6727910
1271.512, 0.6189270
1271.994, 0.6028290
1272.476, 0.6223750
1272.958, 0.5240630
1273.440, 0.2593540
1273.922, 3.7380001E-03
1274.405, 0.2682650
1274.887, 0.3110960
1275.369, 9.7640999E-02
1275.851, 0.7823790
1276.333, 1.286469
1276.815, 1.700485
1277.297, 1.780090
1277.779, 1.463333
1278.261, 1.222656
1278.744, 1.578949
1279.226, 1.667252
1279.708, 1.007828
1280.190, 0.1156010
1280.672, 7.7510001E-03
1281.154, 0.4486390
1281.636, 0.8175200
1282.118, 1.039505
1282.600, 1.440247
1283.083, 2.474182
1283.565, 3.013763
1284.047, 2.643799
1284.529, 2.062393
1285.011, 2.499344
1285.493, 3.262375
1285.975, 3.149887
1286.457, 2.131058
1286.939, 1.503845
1287.422, 1.528046
1287.904, 1.402374
1288.386, 0.8331450
1288.868, 0.3166960
1289.350, 0.4478910
1289.832, 0.8447880
1290.314, 1.414978
1290.796, 2.003937
1291.279, 1.996094
1291.761, 1.306076
1292.243, 0.9055630
1292.725, 0.9114990
1293.207, 1.001404
1293.689, 0.8846280
1294.171, 0.7888180
1294.653, 0.9908290
1295.135, 1.252075
1295.618, 1.032669
1296.100, 0.4248810
1296.582, 0.5267030
1297.064, 1.408264
1297.546, 1.933136
1298.028, 0.7520290
1298.510, 5.2124001E-02
1298.992, 0.3780980
1299.475, 1.197388
1299.957, 1.259369
1300.439, 0.5892940
1300.921, 0.1997530
1301.403, 8.9999998E-04
1301.885, 0.0000000E+00
##END=



