##NAMES=Steacyite
##RRUFFID=R120037
##IDEAL CHEMISTRY=K_0.3_(Na,Ca)_2_Th^4+^Si_8_O_20_
##LOCALITY=Mont Saint-Hilaire, Rouville RCM, Montérégie, Québec, Canada
##OWNER=RRUFF
##SOURCE=Donald Doell
##DESCRIPTION=Brown rectangular prism
##STATUS=The identification of this mineral is not yet confirmed.
##URL=rruff.info/R120037
100.8419, 5947.226
101.3240, 5940.647
101.8061, 5936.244
102.2883, 5934.463
102.7704, 5933.642
103.2525, 5931.709
103.7346, 5927.893
104.2167, 5925.234
104.6988, 5924.755
105.1810, 5925.192
105.6631, 5925.092
106.1452, 5922.728
106.6273, 5918.931
107.1094, 5917.669
107.5915, 5920.381
108.0737, 5923.656
108.5558, 5926.436
109.0379, 5928.545
109.5200, 5929.802
110.0021, 5929.844
110.4842, 5928.325
110.9664, 5927.318
111.4485, 5924.794
111.9306, 5924.299
112.4127, 5928.484
112.8948, 5937.206
113.3769, 5947.813
113.8591, 5956.460
114.3412, 5962.109
114.8233, 5967.364
115.3054, 5973.145
115.7875, 5978.105
116.2696, 5980.128
116.7517, 5978.252
117.2339, 5974.783
117.7160, 5975.474
118.1981, 5981.080
118.6802, 5987.685
119.1623, 5995.209
119.6444, 6002.957
120.1266, 6009.031
120.6087, 6012.116
121.0908, 6013.034
121.5729, 6013.865
122.0550, 6014.034
122.5371, 6014.978
123.0193, 6019.235
123.5014, 6027.499
123.9835, 6033.167
124.4656, 6028.599
124.9477, 6021.336
125.4298, 6018.576
125.9120, 6023.967
126.3941, 6033.858
126.8762, 6039.917
127.3583, 6040.267
127.8404, 6039.725
128.3225, 6038.369
128.8047, 6037.491
129.2868, 6039.047
129.7689, 6044.692
130.2510, 6054.039
130.7331, 6061.135
131.2152, 6064.002
131.6974, 6066.430
132.1795, 6069.709
132.6616, 6073.370
133.1437, 6075.955
133.6258, 6076.009
134.1079, 6072.889
134.5901, 6071.502
135.0722, 6071.619
135.5543, 6073.238
136.0364, 6077.119
136.5185, 6083.042
137.0006, 6089.217
137.4828, 6093.398
137.9649, 6095.049
138.4470, 6097.612
138.9291, 6103.063
139.4112, 6108.864
139.8933, 6111.467
140.3755, 6109.554
140.8576, 6106.542
141.3397, 6106.722
141.8218, 6109.710
142.3039, 6113.938
142.7860, 6119.094
143.2681, 6125.042
143.7503, 6131.529
144.2324, 6139.296
144.7145, 6146.533
145.1966, 6151.457
145.6787, 6154.045
146.1608, 6156.345
146.6430, 6160.542
147.1251, 6166.971
147.6072, 6171.953
148.0893, 6172.446
148.5714, 6172.749
149.0535, 6175.583
149.5357, 6181.422
150.0178, 6188.307
150.4999, 6193.024
150.9820, 6193.886
151.4641, 6196.401
151.9462, 6202.875
152.4284, 6209.922
152.9105, 6214.794
153.3926, 6216.463
153.8747, 6216.061
154.3568, 6216.338
154.8389, 6216.124
155.3211, 6218.311
155.8032, 6223.923
156.2853, 6231.683
156.7674, 6240.632
157.2495, 6250.447
157.7316, 6260.354
158.2138, 6266.826
158.6959, 6266.628
159.1780, 6267.128
159.6601, 6269.993
160.1422, 6274.853
160.6243, 6280.843
161.1065, 6287.500
161.5886, 6294.950
162.0707, 6303.291
162.5528, 6313.833
163.0349, 6323.951
163.5170, 6331.935
163.9991, 6337.951
164.4813, 6343.372
164.9634, 6348.952
165.4455, 6354.503
165.9276, 6359.587
166.4097, 6363.635
166.8918, 6367.641
167.3740, 6373.036
167.8561, 6380.188
168.3382, 6386.921
168.8203, 6390.623
169.3024, 6393.401
169.7845, 6398.271
170.2667, 6407.902
170.7488, 6419.383
171.2309, 6425.063
171.7130, 6420.391
172.1951, 6418.348
172.6772, 6425.478
173.1594, 6437.717
173.6415, 6449.461
174.1236, 6457.433
174.6057, 6462.228
175.0878, 6467.223
175.5699, 6473.205
176.0521, 6478.534
176.5342, 6482.161
177.0163, 6484.885
177.4984, 6488.003
177.9805, 6492.445
178.4626, 6498.231
178.9448, 6504.802
179.4269, 6511.978
179.9090, 6520.094
180.3911, 6530.041
180.8732, 6541.144
181.3553, 6551.669
181.8375, 6559.973
182.3196, 6565.635
182.8017, 6572.991
183.2838, 6581.305
183.7659, 6591.375
184.2480, 6605.568
184.7301, 6622.768
185.2123, 6638.005
185.6944, 6646.111
186.1765, 6645.752
186.6586, 6648.168
187.1407, 6654.467
187.6228, 6662.568
188.1050, 6671.321
188.5871, 6680.511
189.0692, 6689.978
189.5513, 6700.119
190.0334, 6710.771
190.5155, 6719.132
190.9977, 6722.196
191.4798, 6724.041
191.9619, 6730.273
192.4440, 6742.386
192.9261, 6754.479
193.4082, 6757.853
193.8904, 6755.651
194.3725, 6758.398
194.8546, 6774.493
195.3367, 6796.906
195.8188, 6810.767
196.3009, 6811.637
196.7831, 6811.028
197.2652, 6817.853
197.7473, 6830.042
198.2294, 6842.521
198.7115, 6853.085
199.1936, 6861.948
199.6758, 6869.677
200.1579, 6875.102
200.6400, 6881.085
201.1221, 6889.011
201.6042, 6898.547
202.0863, 6908.747
202.5685, 6918.612
203.0506, 6928.271
203.5327, 6940.049
204.0148, 6956.939
204.4969, 6972.800
204.9790, 6984.531
205.4612, 6993.177
205.9433, 7001.650
206.4254, 7012.576
206.9075, 7026.173
207.3896, 7037.747
207.8717, 7045.630
208.3539, 7052.866
208.8360, 7059.622
209.3181, 7066.395
209.8002, 7074.161
210.2823, 7084.150
210.7644, 7096.857
211.2466, 7106.993
211.7287, 7111.243
212.2108, 7116.279
212.6929, 7125.114
213.1750, 7137.315
213.6571, 7150.705
214.1393, 7163.333
214.6214, 7175.075
215.1035, 7187.107
215.5856, 7200.495
216.0677, 7213.262
216.5498, 7224.337
217.0320, 7233.803
217.5141, 7242.425
217.9962, 7250.437
218.4783, 7257.545
218.9604, 7268.275
219.4425, 7284.431
219.9247, 7302.264
220.4068, 7320.544
220.8889, 7338.789
221.3710, 7355.461
221.8531, 7368.621
222.3352, 7378.016
222.8174, 7390.222
223.2995, 7407.264
223.7816, 7425.578
224.2637, 7442.539
224.7458, 7458.031
225.2279, 7473.308
225.7100, 7490.304
226.1922, 7508.147
226.6743, 7521.786
227.1564, 7523.156
227.6385, 7524.990
228.1206, 7542.135
228.6027, 7575.753
229.0849, 7608.408
229.5670, 7625.496
230.0491, 7631.535
230.5312, 7639.408
231.0133, 7652.269
231.4954, 7667.235
231.9776, 7680.763
232.4597, 7692.508
232.9418, 7705.231
233.4239, 7720.984
233.9060, 7738.929
234.3881, 7758.196
234.8703, 7779.405
235.3524, 7801.124
235.8345, 7821.618
236.3166, 7840.928
236.7987, 7859.228
237.2808, 7876.321
237.7630, 7892.591
238.2451, 7908.495
238.7272, 7924.224
239.2093, 7939.563
239.6914, 7952.982
240.1735, 7962.695
240.6557, 7976.599
241.1378, 8001.600
241.6199, 8030.505
242.1020, 8056.895
242.5841, 8078.520
243.0662, 8096.784
243.5484, 8113.851
244.0305, 8129.556
244.5126, 8144.446
244.9947, 8157.792
245.4768, 8170.887
245.9589, 8184.695
246.4410, 8199.548
246.9232, 8215.400
247.4053, 8233.152
247.8874, 8255.053
248.3695, 8273.081
248.8516, 8281.407
249.3337, 8288.295
249.8159, 8300.937
250.2980, 8321.396
250.7801, 8344.793
251.2622, 8363.029
251.7443, 8373.771
252.2264, 8384.115
252.7086, 8395.177
253.1907, 8405.860
253.6728, 8414.310
254.1549, 8420.467
254.6370, 8427.330
255.1191, 8440.363
255.6013, 8464.569
256.0834, 8484.067
256.5655, 8497.714
257.0476, 8508.217
257.5297, 8515.843
258.0118, 8521.385
258.4940, 8527.582
258.9761, 8538.868
259.4582, 8559.753
259.9403, 8574.057
260.4224, 8577.774
260.9045, 8579.596
261.3867, 8585.246
261.8688, 8595.073
262.3509, 8605.174
262.8330, 8610.808
263.3151, 8609.933
263.7972, 8612.057
264.2794, 8619.731
264.7615, 8627.668
265.2436, 8632.624
265.7257, 8634.737
266.2078, 8636.229
266.6899, 8639.041
267.1721, 8642.999
267.6542, 8649.871
268.1363, 8664.777
268.6184, 8677.408
269.1005, 8681.407
269.5826, 8678.012
270.0648, 8672.925
270.5469, 8670.683
271.0290, 8671.399
271.5111, 8671.813
271.9932, 8670.783
272.4753, 8670.580
272.9575, 8672.528
273.4396, 8676.158
273.9217, 8680.364
274.4038, 8684.712
274.8859, 8688.974
275.3680, 8689.992
275.8501, 8684.297
276.3322, 8679.911
276.8144, 8679.883
277.2965, 8683.208
277.7786, 8687.737
278.2607, 8692.542
278.7428, 8697.307
279.2249, 8700.563
279.7071, 8701.305
280.1892, 8702.081
280.6713, 8704.086
281.1534, 8706.507
281.6355, 8707.800
282.1176, 8707.229
282.5998, 8705.428
283.0819, 8704.021
283.5640, 8703.450
284.0461, 8702.459
284.5282, 8699.397
285.0103, 8696.157
285.4925, 8695.630
285.9746, 8698.863
286.4567, 8704.614
286.9388, 8711.276
287.4209, 8719.385
287.9030, 8726.512
288.3852, 8731.279
288.8673, 8735.216
289.3494, 8740.442
289.8315, 8747.481
290.3136, 8754.575
290.7957, 8759.626
291.2779, 8762.399
291.7600, 8764.263
292.2421, 8762.972
292.7242, 8762.120
293.2063, 8765.594
293.6884, 8773.857
294.1706, 8784.224
294.6527, 8795.499
295.1348, 8807.407
295.6169, 8814.393
296.0990, 8809.256
296.5811, 8804.199
297.0633, 8810.450
297.5454, 8827.553
298.0275, 8845.360
298.5096, 8857.205
298.9917, 8863.418
299.4738, 8869.123
299.9560, 8873.551
300.4381, 8878.128
300.9202, 8883.709
301.4023, 8890.173
301.8844, 8896.967
302.3665, 8903.692
302.8487, 8910.687
303.3308, 8919.114
303.8129, 8930.890
304.2950, 8940.947
304.7771, 8944.292
305.2592, 8943.982
305.7414, 8949.021
306.2235, 8964.425
306.7056, 8983.729
307.1877, 8993.063
307.6698, 8989.906
308.1519, 8989.262
308.6341, 8998.612
309.1162, 9013.095
309.5983, 9024.631
310.0804, 9031.220
310.5625, 9034.181
311.0446, 9033.038
311.5268, 9027.318
312.0089, 9026.651
312.4910, 9036.705
312.9731, 9051.047
313.4552, 9062.198
313.9373, 9068.996
314.4195, 9074.337
314.9016, 9081.293
315.3837, 9089.521
315.8658, 9094.718
316.3479, 9094.104
316.8300, 9092.015
317.3121, 9091.422
317.7943, 9092.514
318.2764, 9095.319
318.7585, 9099.963
319.2406, 9106.544
319.7227, 9114.537
320.2048, 9127.116
320.6870, 9138.056
321.1691, 9143.619
321.6512, 9144.642
322.1333, 9143.676
322.6154, 9141.186
323.0975, 9138.316
323.5797, 9137.815
324.0618, 9139.290
324.5439, 9143.283
325.0260, 9152.110
325.5081, 9163.315
325.9902, 9172.308
326.4724, 9177.580
326.9545, 9180.498
327.4366, 9182.559
327.9187, 9183.342
328.4008, 9185.521
328.8829, 9191.438
329.3651, 9198.097
329.8472, 9200.916
330.3293, 9199.069
330.8114, 9197.705
331.2935, 9202.191
331.7756, 9213.096
332.2578, 9223.989
332.7399, 9235.781
333.2220, 9246.537
333.7041, 9253.105
334.1862, 9256.256
334.6683, 9262.158
335.1505, 9275.960
335.6326, 9296.299
336.1147, 9312.114
336.5968, 9323.387
337.0789, 9331.064
337.5610, 9333.314
338.0432, 9332.266
338.5253, 9332.903
339.0074, 9337.679
339.4895, 9345.259
339.9716, 9352.024
340.4537, 9356.816
340.9359, 9363.053
341.4180, 9371.291
341.9001, 9381.389
342.3822, 9393.923
342.8643, 9409.017
343.3464, 9424.286
343.8286, 9435.983
344.3107, 9441.623
344.7928, 9451.218
345.2749, 9465.863
345.7570, 9483.671
346.2391, 9505.581
346.7213, 9530.354
347.2034, 9552.470
347.6855, 9566.040
348.1676, 9570.521
348.6497, 9579.201
349.1318, 9593.631
349.6140, 9609.960
350.0961, 9626.399
350.5782, 9643.359
351.0603, 9662.423
351.5424, 9684.621
352.0245, 9709.137
352.5067, 9732.674
352.9888, 9750.986
353.4709, 9773.499
353.9530, 9803.913
354.4351, 9838.038
354.9172, 9872.012
355.3994, 9904.298
355.8815, 9934.071
356.3636, 9959.864
356.8457, 9977.951
357.3278, 9999.505
357.8099, 10024.10
358.2920, 10052.03
358.7741, 10084.53
359.2563, 10121.06
359.7384, 10158.70
360.2205, 10194.79
360.7026, 10229.13
361.1847, 10263.87
361.6668, 10298.64
362.1490, 10334.09
362.6311, 10372.21
363.1132, 10411.17
363.5953, 10446.45
364.0774, 10475.04
364.5595, 10499.02
365.0417, 10527.24
365.5238, 10559.54
366.0059, 10597.00
366.4880, 10642.10
366.9701, 10690.71
367.4522, 10739.55
367.9344, 10787.17
368.4165, 10833.61
368.8986, 10879.24
369.3807, 10924.77
369.8628, 10967.30
370.3449, 11006.57
370.8271, 11043.38
371.3092, 11076.78
371.7913, 11107.76
372.2734, 11140.18
372.7555, 11177.53
373.2376, 11219.63
373.7198, 11261.92
374.2019, 11304.00
374.6840, 11347.09
375.1661, 11392.42
375.6482, 11438.87
376.1303, 11483.91
376.6125, 11526.14
377.0946, 11567.46
377.5767, 11612.79
378.0588, 11664.00
378.5409, 11713.90
379.0230, 11759.52
379.5052, 11803.67
379.9873, 11848.32
380.4694, 11893.86
380.9515, 11939.79
381.4336, 11986.05
381.9157, 12032.62
382.3979, 12076.64
382.8800, 12116.15
383.3621, 12154.65
383.8442, 12194.47
384.3263, 12235.24
384.8084, 12276.75
385.2906, 12320.16
385.7727, 12363.58
386.2548, 12403.21
386.7369, 12438.93
387.2190, 12470.75
387.7011, 12495.82
388.1833, 12517.80
388.6654, 12542.21
389.1475, 12571.78
389.6296, 12600.99
390.1117, 12624.00
390.5938, 12641.74
391.0760, 12660.72
391.5581, 12683.79
392.0402, 12708.30
392.5223, 12731.50
393.0044, 12753.82
393.4865, 12772.30
393.9687, 12785.65
394.4508, 12794.49
394.9329, 12798.70
395.4150, 12797.98
395.8971, 12795.80
396.3792, 12795.11
396.8614, 12795.68
397.3435, 12795.10
397.8256, 12791.27
398.3077, 12787.86
398.7898, 12788.63
399.2719, 12792.12
399.7540, 12793.31
400.2361, 12789.77
400.7183, 12782.04
401.2004, 12771.57
401.6825, 12759.37
402.1646, 12743.18
402.6467, 12717.99
403.1288, 12690.68
403.6110, 12671.00
404.0931, 12660.77
404.5752, 12651.79
405.0573, 12634.66
405.5394, 12608.49
406.0215, 12577.97
406.5037, 12538.00
406.9858, 12499.30
407.4679, 12469.04
407.9500, 12444.44
408.4321, 12417.39
408.9142, 12382.19
409.3964, 12341.21
409.8785, 12305.00
410.3606, 12278.91
410.8427, 12250.85
411.3248, 12219.32
411.8069, 12185.62
412.2891, 12150.67
412.7712, 12114.82
413.2533, 12078.34
413.7354, 12042.08
414.2175, 12006.76
414.6996, 11967.99
415.1818, 11922.17
415.6639, 11876.38
416.1460, 11832.30
416.6281, 11790.36
417.1102, 11751.52
417.5923, 11716.11
418.0745, 11684.17
418.5566, 11655.88
419.0387, 11633.64
419.5208, 11610.15
420.0029, 11581.95
420.4850, 11552.41
420.9672, 11525.96
421.4493, 11503.89
421.9314, 11479.94
422.4135, 11444.58
422.8956, 11398.72
423.3777, 11361.50
423.8599, 11341.72
424.3420, 11323.04
424.8241, 11290.19
425.3062, 11247.24
425.7883, 11208.75
426.2704, 11182.43
426.7526, 11163.35
427.2347, 11145.59
427.7168, 11129.13
428.1989, 11111.87
428.6810, 11092.47
429.1631, 11071.69
429.6453, 11051.08
430.1274, 11029.44
430.6095, 11010.59
431.0916, 10998.27
431.5737, 10989.82
432.0558, 10979.84
432.5380, 10966.95
433.0201, 10952.75
433.5022, 10938.84
433.9843, 10925.17
434.4664, 10911.94
434.9485, 10897.58
435.4307, 10884.85
435.9128, 10877.21
436.3949, 10873.16
436.8770, 10867.52
437.3591, 10857.21
437.8412, 10843.30
438.3234, 10830.04
438.8055, 10816.92
439.2876, 10805.23
439.7697, 10793.61
440.2518, 10784.41
440.7339, 10781.71
441.2160, 10785.45
441.6982, 10789.89
442.1803, 10788.13
442.6624, 10779.00
443.1445, 10772.29
443.6266, 10768.97
444.1087, 10767.18
444.5909, 10767.50
445.0730, 10768.81
445.5551, 10769.42
446.0372, 10768.45
446.5193, 10766.38
447.0014, 10763.89
447.4836, 10760.12
447.9657, 10758.47
448.4478, 10760.68
448.9299, 10764.44
449.4120, 10768.01
449.8941, 10771.49
450.3763, 10776.80
450.8584, 10787.19
451.3405, 10800.95
451.8226, 10810.06
452.3047, 10812.55
452.7868, 10814.75
453.2690, 10821.26
453.7511, 10829.53
454.2332, 10835.54
454.7153, 10836.85
455.1974, 10838.77
455.6795, 10847.08
456.1617, 10860.17
456.6438, 10871.32
457.1259, 10878.64
457.6080, 10883.43
458.0901, 10886.83
458.5722, 10888.90
459.0544, 10891.00
459.5365, 10893.58
460.0186, 10896.23
460.5007, 10898.42
460.9828, 10900.31
461.4649, 10902.96
461.9471, 10907.40
462.4292, 10912.81
462.9113, 10915.73
463.3934, 10912.54
463.8755, 10911.75
464.3576, 10915.76
464.8398, 10921.81
465.3219, 10927.32
465.8040, 10931.67
466.2861, 10935.49
466.7682, 10939.75
467.2503, 10944.79
467.7325, 10946.51
468.2146, 10941.05
468.6967, 10936.22
469.1788, 10934.72
469.6609, 10934.97
470.1430, 10934.37
470.6252, 10931.74
471.1073, 10928.41
471.5894, 10927.49
472.0715, 10930.40
472.5536, 10929.73
473.0357, 10922.52
473.5179, 10912.95
474.0000, 10902.94
474.4821, 10892.68
474.9642, 10881.93
475.4463, 10871.00
475.9284, 10859.42
476.4106, 10844.57
476.8927, 10825.36
477.3748, 10810.45
477.8569, 10807.07
478.3390, 10808.81
478.8211, 10805.26
479.3033, 10794.78
479.7854, 10783.48
480.2675, 10775.64
480.7496, 10768.68
481.2317, 10757.51
481.7138, 10741.11
482.1959, 10722.49
482.6780, 10703.29
483.1602, 10683.77
483.6423, 10668.14
484.1244, 10659.96
484.6065, 10651.57
485.0886, 10641.34
485.5707, 10628.41
486.0529, 10610.83
486.5350, 10587.88
487.0171, 10562.33
487.4992, 10538.84
487.9813, 10517.83
488.4634, 10497.45
488.9456, 10477.30
489.4277, 10458.11
489.9098, 10441.40
490.3919, 10425.99
490.8740, 10409.42
491.3561, 10390.29
491.8383, 10369.05
492.3204, 10346.97
492.8025, 10324.46
493.2846, 10300.14
493.7667, 10270.60
494.2488, 10241.57
494.7310, 10217.37
495.2131, 10197.99
495.6952, 10179.59
496.1773, 10160.89
496.6594, 10141.17
497.1415, 10117.82
497.6237, 10089.82
498.1058, 10062.42
498.5879, 10037.88
499.0700, 10015.81
499.5521, 9995.482
500.0342, 9977.177
500.5164, 9959.638
500.9985, 9942.653
501.4806, 9925.787
501.9627, 9908.059
502.4448, 9889.318
502.9269, 9869.815
503.4091, 9849.861
503.8912, 9829.302
504.3733, 9807.948
504.8554, 9783.863
505.3375, 9761.271
505.8196, 9742.062
506.3018, 9725.178
506.7839, 9709.933
507.2660, 9695.897
507.7481, 9681.059
508.2302, 9661.712
508.7123, 9635.326
509.1945, 9613.506
509.6766, 9601.660
510.1587, 9589.028
510.6408, 9569.847
511.1229, 9547.030
511.6050, 9526.615
512.0872, 9511.813
512.5693, 9500.065
513.0514, 9486.362
513.5335, 9470.104
514.0156, 9456.453
514.4977, 9450.301
514.9799, 9443.108
515.4620, 9425.849
515.9441, 9400.222
516.4262, 9377.893
516.9083, 9366.085
517.3904, 9358.775
517.8726, 9348.565
518.3547, 9335.465
518.8368, 9321.550
519.3189, 9307.542
519.8010, 9293.560
520.2831, 9280.137
520.7653, 9267.105
521.2474, 9254.714
521.7295, 9244.182
522.2116, 9233.526
522.6937, 9221.327
523.1758, 9207.432
523.6580, 9191.233
524.1401, 9171.616
524.6222, 9150.460
525.1043, 9137.551
525.5864, 9143.753
526.0685, 9142.849
526.5507, 9127.344
527.0328, 9107.861
527.5149, 9093.236
527.9970, 9084.285
528.4791, 9075.975
528.9612, 9063.621
529.4434, 9048.053
529.9255, 9034.063
530.4076, 9021.949
530.8897, 9010.916
531.3718, 9000.267
531.8539, 8990.798
532.3361, 8984.402
532.8182, 8982.122
533.3003, 8977.710
533.7824, 8964.853
534.2645, 8947.380
534.7466, 8933.426
535.2288, 8924.146
535.7109, 8916.890
536.1930, 8910.435
536.6751, 8904.376
537.1572, 8896.563
537.6393, 8883.972
538.1215, 8873.412
538.6036, 8866.456
539.0857, 8862.688
539.5678, 8863.798
540.0499, 8869.088
540.5320, 8871.886
541.0142, 8864.322
541.4963, 8845.920
541.9784, 8832.302
542.4604, 8826.505
542.9426, 8822.251
543.4247, 8819.446
543.9068, 8816.960
544.3889, 8813.626
544.8710, 8809.127
545.3531, 8804.025
545.8353, 8799.834
546.3174, 8796.169
546.7995, 8787.729
547.2816, 8770.933
547.7637, 8756.366
548.2458, 8753.551
548.7280, 8756.775
549.2101, 8756.922
549.6922, 8751.369
550.1743, 8745.052
550.6564, 8741.712
551.1385, 8739.749
551.6207, 8735.911
552.1028, 8729.547
552.5849, 8721.002
553.0670, 8709.424
553.5491, 8694.806
554.0313, 8687.874
554.5134, 8694.450
554.9955, 8700.624
555.4776, 8704.739
555.9597, 8705.412
556.4418, 8698.965
556.9240, 8685.445
557.4061, 8672.092
557.8882, 8667.767
558.3703, 8672.835
558.8524, 8676.477
559.3345, 8679.473
559.8167, 8679.470
560.2988, 8673.474
560.7809, 8665.315
561.2630, 8659.698
561.7451, 8657.919
562.2272, 8657.230
562.7094, 8654.638
563.1915, 8651.131
563.6736, 8651.237
564.1557, 8656.561
564.6378, 8659.650
565.1199, 8653.159
565.6021, 8640.025
566.0842, 8633.545
566.5663, 8637.982
567.0484, 8643.052
567.5305, 8647.351
568.0126, 8649.448
568.4948, 8646.470
568.9769, 8638.537
569.4590, 8629.484
569.9411, 8622.646
570.4232, 8618.060
570.9053, 8616.561
571.3875, 8622.946
571.8696, 8625.948
572.3517, 8618.582
572.8338, 8610.474
573.3159, 8611.985
573.7980, 8623.923
574.2802, 8637.067
574.7623, 8643.873
575.2444, 8645.269
575.7265, 8644.483
576.2086, 8640.812
576.6907, 8637.859
577.1729, 8637.108
577.6550, 8638.329
578.1371, 8640.984
578.6192, 8645.202
579.1013, 8650.258
579.5834, 8656.242
580.0656, 8662.702
580.5477, 8670.410
581.0298, 8678.646
581.5119, 8683.127
581.9940, 8680.336
582.4761, 8673.282
582.9583, 8672.339
583.4404, 8682.666
583.9225, 8691.426
584.4046, 8698.137
584.8867, 8703.472
585.3688, 8707.394
585.8510, 8710.272
586.3331, 8712.924
586.8152, 8715.810
587.2973, 8718.826
587.7794, 8721.715
588.2615, 8724.424
588.7437, 8727.056
589.2258, 8728.248
589.7079, 8731.015
590.1900, 8740.450
590.6721, 8755.001
591.1542, 8764.067
591.6364, 8761.463
592.1185, 8754.678
592.6006, 8746.210
593.0827, 8738.641
593.5648, 8741.514
594.0469, 8759.149
594.5291, 8779.699
595.0112, 8785.732
595.4933, 8772.456
595.9754, 8766.726
596.4575, 8775.491
596.9396, 8783.053
597.4218, 8782.382
597.9039, 8777.644
598.3860, 8774.736
598.8681, 8775.724
599.3502, 8779.449
599.8323, 8783.981
600.3145, 8789.427
600.7966, 8800.099
601.2787, 8819.027
601.7608, 8836.886
602.2429, 8848.441
602.7250, 8855.298
603.2072, 8858.594
603.6893, 8856.895
604.1714, 8856.173
604.6535, 8860.985
605.1356, 8867.911
605.6177, 8871.309
606.0999, 8870.862
606.5820, 8871.036
607.0641, 8875.271
607.5462, 8882.453
608.0283, 8887.476
608.5104, 8886.310
608.9926, 8888.896
609.4747, 8899.444
609.9568, 8910.706
610.4389, 8917.990
610.9210, 8921.267
611.4031, 8922.252
611.8853, 8921.123
612.3674, 8919.913
612.8495, 8923.878
613.3316, 8933.660
613.8137, 8941.152
614.2958, 8942.905
614.7780, 8943.733
615.2601, 8950.634
615.7422, 8962.035
616.2243, 8967.316
616.7064, 8958.736
617.1885, 8948.896
617.6707, 8943.137
618.1528, 8942.446
618.6349, 8951.542
619.1170, 8971.254
619.5991, 8989.777
620.0812, 8991.796
620.5634, 8975.604
621.0455, 8968.649
621.5276, 8980.521
622.0097, 8990.154
622.4918, 8993.340
622.9739, 8992.143
623.4561, 8987.154
623.9382, 8979.110
624.4203, 8972.675
624.9023, 8973.796
625.3845, 8979.154
625.8666, 8978.238
626.3487, 8970.051
626.8308, 8966.173
627.3129, 8975.147
627.7950, 8988.403
628.2772, 8988.162
628.7593, 8971.799
629.2414, 8957.748
629.7235, 8949.081
630.2056, 8943.161
630.6877, 8938.354
631.1699, 8934.728
631.6520, 8933.688
632.1341, 8935.904
632.6162, 8938.207
633.0983, 8934.550
633.5804, 8923.384
634.0626, 8914.376
634.5447, 8910.500
635.0268, 8905.141
635.5089, 8893.304
635.9910, 8879.027
636.4731, 8869.107
636.9553, 8866.198
637.4374, 8863.095
637.9195, 8853.549
638.4016, 8840.660
638.8837, 8830.074
639.3658, 8822.447
639.8480, 8816.049
640.3301, 8810.173
640.8122, 8804.181
641.2943, 8795.940
641.7764, 8785.240
642.2585, 8772.247
642.7407, 8752.649
643.2228, 8734.559
643.7049, 8725.459
644.1870, 8722.108
644.6691, 8715.385
645.1512, 8700.269
645.6334, 8681.087
646.1155, 8663.863
646.5976, 8648.644
647.0797, 8637.184
647.5618, 8631.452
648.0439, 8626.180
648.5261, 8617.771
649.0082, 8606.624
649.4903, 8594.152
649.9724, 8580.596
650.4545, 8565.547
650.9366, 8547.183
651.4188, 8528.167
651.9009, 8512.716
652.3830, 8500.576
652.8651, 8486.972
653.3472, 8467.829
653.8293, 8445.582
654.3115, 8429.783
654.7936, 8423.686
655.2757, 8416.126
655.7578, 8404.389
656.2399, 8391.732
656.7220, 8380.749
657.2042, 8370.331
657.6863, 8356.865
658.1684, 8337.398
658.6505, 8316.858
659.1326, 8301.338
659.6147, 8288.489
660.0969, 8269.778
660.5790, 8243.207
661.0611, 8218.454
661.5432, 8204.505
662.0253, 8200.253
662.5074, 8193.646
662.9896, 8187.523
663.4717, 8175.171
663.9538, 8147.864
664.4359, 8120.325
664.9180, 8106.330
665.4001, 8103.793
665.8823, 8100.023
666.3644, 8087.003
666.8465, 8068.486
667.3286, 8050.306
667.8107, 8032.481
668.2928, 8015.311
668.7750, 7998.119
669.2571, 7983.607
669.7392, 7976.094
670.2213, 7974.599
670.7034, 7969.155
671.1855, 7957.659
671.6677, 7944.504
672.1498, 7930.862
672.6319, 7916.405
673.1140, 7900.136
673.5961, 7882.358
674.0782, 7864.664
674.5604, 7847.975
675.0425, 7832.572
675.5246, 7819.570
676.0067, 7809.508
676.4888, 7799.612
676.9709, 7789.244
677.4531, 7779.031
677.9352, 7769.671
678.4173, 7760.961
678.8994, 7752.172
679.3815, 7744.494
679.8636, 7735.061
680.3458, 7720.728
680.8279, 7704.141
681.3100, 7688.670
681.7921, 7675.252
682.2742, 7664.703
682.7563, 7658.301
683.2385, 7654.599
683.7206, 7645.913
684.2027, 7628.507
684.6848, 7614.206
685.1669, 7607.138
685.6490, 7601.356
686.1312, 7593.734
686.6133, 7584.552
687.0954, 7575.114
687.5775, 7565.568
688.0596, 7556.586
688.5417, 7549.348
689.0239, 7543.096
689.5060, 7536.772
689.9881, 7530.073
690.4702, 7520.486
690.9523, 7504.985
691.4344, 7485.694
691.9166, 7473.148
692.3987, 7472.800
692.8808, 7470.688
693.3629, 7466.209
693.8450, 7459.877
694.3271, 7450.538
694.8093, 7439.628
695.2914, 7430.657
695.7735, 7425.568
696.2556, 7421.534
696.7377, 7414.651
697.2198, 7406.089
697.7020, 7400.617
698.1841, 7399.206
698.6662, 7397.429
699.1483, 7392.334
699.6304, 7384.405
700.1125, 7375.573
700.5947, 7367.094
701.0768, 7355.809
701.5589, 7336.487
702.0410, 7319.263
702.5231, 7312.409
703.0052, 7312.317
703.4874, 7310.243
703.9695, 7302.343
704.4516, 7292.839
704.9337, 7287.657
705.4158, 7285.658
705.8979, 7280.560
706.3801, 7271.269
706.8622, 7262.320
707.3442, 7255.894
707.8264, 7251.804
708.3085, 7250.216
708.7906, 7253.798
709.2727, 7252.757
709.7548, 7243.211
710.2369, 7231.882
710.7191, 7221.239
711.2012, 7212.067
711.6833, 7205.289
712.1654, 7201.176
712.6475, 7198.672
713.1296, 7197.531
713.6118, 7197.182
714.0939, 7194.609
714.5760, 7189.943
715.0581, 7181.505
715.5402, 7165.695
716.0223, 7148.761
716.5045, 7142.341
716.9866, 7148.279
717.4687, 7152.506
717.9508, 7154.879
718.4329, 7154.206
718.9150, 7148.132
719.3972, 7139.344
719.8793, 7131.646
720.3614, 7125.956
720.8435, 7120.161
721.3256, 7110.720
721.8077, 7099.769
722.2899, 7097.774
722.7720, 7106.269
723.2541, 7110.350
723.7362, 7103.647
724.2183, 7093.125
724.7004, 7087.583
725.1826, 7086.827
725.6647, 7082.073
726.1468, 7066.512
726.6289, 7054.535
727.1110, 7054.521
727.5931, 7058.979
728.0753, 7058.807
728.5574, 7053.583
729.0395, 7050.122
729.5216, 7054.701
730.0037, 7061.953
730.4858, 7056.822
730.9680, 7038.626
731.4501, 7029.424
731.9322, 7037.597
732.4143, 7045.742
732.8964, 7037.708
733.3785, 7017.042
733.8607, 7003.575
734.3428, 7001.684
734.8249, 7000.211
735.3070, 6997.435
735.7891, 6993.753
736.2712, 6988.879
736.7534, 6983.394
737.2355, 6978.884
737.7176, 6976.218
738.1997, 6973.653
738.6818, 6968.187
739.1639, 6960.177
739.6461, 6952.702
740.1282, 6945.773
740.6103, 6940.470
741.0924, 6936.929
741.5745, 6935.813
742.0566, 6940.445
742.5388, 6955.616
743.0209, 6959.907
743.5030, 6942.136
743.9851, 6922.918
744.4672, 6912.131
744.9493, 6907.475
745.4315, 6904.765
745.9136, 6902.657
746.3957, 6901.412
746.8778, 6902.267
747.3599, 6904.017
747.8420, 6902.678
748.3242, 6898.174
748.8063, 6893.102
749.2884, 6888.586
749.7705, 6883.063
750.2526, 6873.839
750.7347, 6860.567
751.2169, 6851.023
751.6990, 6846.613
752.1811, 6843.777
752.6632, 6843.509
753.1453, 6843.204
753.6274, 6840.730
754.1096, 6835.967
754.5917, 6829.756
755.0738, 6822.481
755.5559, 6814.127
756.0380, 6803.060
756.5201, 6790.604
757.0023, 6783.764
757.4844, 6784.002
757.9665, 6784.110
758.4486, 6778.210
758.9307, 6769.088
759.4128, 6766.346
759.8950, 6776.309
760.3771, 6781.096
760.8592, 6777.898
761.3413, 6772.782
761.8234, 6768.165
762.3055, 6763.670
762.7877, 6757.929
763.2698, 6750.488
763.7519, 6743.992
764.2340, 6740.688
764.7161, 6739.423
765.1982, 6739.243
765.6804, 6739.634
766.1625, 6738.258
766.6446, 6734.145
767.1267, 6728.772
767.6088, 6724.002
768.0909, 6719.807
768.5731, 6716.209
769.0552, 6714.906
769.5373, 6711.329
770.0194, 6701.732
770.5015, 6691.704
770.9836, 6685.967
771.4658, 6684.030
771.9479, 6682.117
772.4300, 6679.235
772.9121, 6675.578
773.3942, 6670.735
773.8763, 6665.489
774.3585, 6662.086
774.8406, 6660.087
775.3227, 6655.352
775.8048, 6644.885
776.2869, 6631.148
776.7690, 6619.143
777.2512, 6608.365
777.7333, 6603.489
778.2154, 6608.675
778.6975, 6612.735
779.1796, 6608.778
779.6617, 6600.196
780.1439, 6592.010
780.6260, 6583.678
781.1081, 6578.710
781.5902, 6580.964
782.0723, 6583.738
782.5544, 6583.779
783.0366, 6580.892
783.5187, 6573.686
784.0008, 6562.633
784.4829, 6553.280
784.9650, 6551.820
785.4471, 6555.278
785.9293, 6554.622
786.4114, 6549.788
786.8935, 6544.657
787.3756, 6539.910
787.8577, 6535.963
788.3398, 6533.083
788.8220, 6531.366
789.3040, 6531.534
789.7861, 6538.076
790.2682, 6540.058
790.7504, 6533.078
791.2325, 6524.682
791.7146, 6519.860
792.1967, 6517.462
792.6788, 6513.452
793.1609, 6505.978
793.6431, 6500.435
794.1252, 6505.935
794.6073, 6514.766
795.0894, 6511.257
795.5715, 6495.981
796.0536, 6478.175
796.5358, 6461.150
797.0179, 6447.831
797.5000, 6443.140
797.9821, 6447.542
798.4642, 6448.146
798.9464, 6443.301
799.4285, 6437.602
799.9106, 6433.708
800.3927, 6428.123
800.8748, 6415.732
801.3569, 6398.603
801.8391, 6387.007
802.3212, 6386.765
802.8033, 6388.088
803.2854, 6385.346
803.7675, 6381.866
804.2496, 6383.228
804.7318, 6387.987
805.2139, 6388.662
805.6960, 6380.938
806.1781, 6370.958
806.6602, 6369.702
807.1423, 6376.325
807.6245, 6378.934
808.1066, 6376.630
808.5887, 6372.181
809.0708, 6365.853
809.5529, 6359.341
810.0350, 6355.754
810.5172, 6356.007
810.9993, 6352.909
811.4814, 6343.070
811.9635, 6334.264
812.4456, 6329.077
812.9277, 6325.553
813.4099, 6321.514
813.8920, 6317.252
814.3741, 6315.334
814.8562, 6318.530
815.3383, 6321.399
815.8204, 6317.234
816.3026, 6308.705
816.7847, 6300.853
817.2668, 6294.581
817.7489, 6291.243
818.2310, 6291.851
818.7131, 6294.301
819.1953, 6294.592
819.6774, 6292.455
820.1595, 6289.493
820.6416, 6285.021
821.1237, 6280.911
821.6058, 6278.860
822.0880, 6276.768
822.5701, 6271.046
823.0522, 6261.923
823.5343, 6257.010
824.0164, 6264.400
824.4985, 6268.438
824.9807, 6256.977
825.4628, 6242.074
825.9449, 6238.939
826.4270, 6246.324
826.9091, 6251.997
827.3912, 6248.961
827.8734, 6242.006
828.3555, 6237.317
828.8376, 6234.519
829.3197, 6232.333
829.8018, 6230.670
830.2839, 6228.157
830.7661, 6223.752
831.2482, 6219.329
831.7303, 6218.482
832.2124, 6222.295
832.6945, 6221.640
833.1766, 6211.588
833.6588, 6204.150
834.1409, 6204.551
834.6230, 6206.434
835.1051, 6204.854
835.5872, 6199.947
836.0693, 6193.984
836.5515, 6186.311
837.0336, 6179.873
837.5157, 6176.726
837.9978, 6175.377
838.4799, 6175.179
838.9620, 6175.161
839.4442, 6172.451
839.9263, 6165.675
840.4084, 6158.932
840.8905, 6159.084
841.3726, 6164.614
841.8547, 6166.308
842.3369, 6163.797
842.8190, 6161.385
843.3011, 6160.884
843.7832, 6160.231
844.2653, 6156.622
844.7474, 6150.158
845.2296, 6146.163
845.7117, 6147.369
846.1938, 6146.995
846.6759, 6143.078
847.1580, 6138.697
847.6401, 6136.124
848.1223, 6134.490
848.6044, 6131.177
849.0865, 6124.765
849.5686, 6120.089
850.0507, 6122.156
850.5328, 6125.330
851.0150, 6123.690
851.4971, 6118.443
851.9792, 6112.561
852.4613, 6107.264
852.9434, 6103.553
853.4255, 6103.063
853.9077, 6104.435
854.3898, 6103.220
854.8719, 6099.412
855.3540, 6095.242
855.8361, 6090.817
856.3182, 6087.581
856.8004, 6086.943
857.2825, 6088.067
857.7646, 6088.440
858.2467, 6088.907
858.7288, 6086.650
859.2109, 6078.279
859.6931, 6071.186
860.1752, 6068.070
860.6573, 6067.578
861.1394, 6068.311
861.6215, 6070.044
862.1036, 6072.321
862.5858, 6077.647
863.0679, 6080.665
863.5500, 6075.600
864.0321, 6067.110
864.5142, 6061.329
864.9963, 6058.966
865.4785, 6058.688
865.9606, 6059.992
866.4427, 6060.745
866.9248, 6055.870
867.4069, 6047.111
867.8890, 6044.935
868.3712, 6050.152
868.8533, 6054.640
869.3354, 6055.410
869.8175, 6052.471
870.2996, 6044.871
870.7817, 6032.495
871.2639, 6025.932
871.7459, 6029.267
872.2280, 6031.222
872.7101, 6027.638
873.1923, 6024.362
873.6744, 6025.975
874.1565, 6030.489
874.6386, 6032.810
875.1207, 6031.539
875.6028, 6029.856
876.0850, 6030.360
876.5671, 6029.421
877.0492, 6022.252
877.5313, 6012.514
878.0134, 6006.038
878.4955, 6004.340
878.9777, 6006.175
879.4598, 6012.648
879.9419, 6019.662
880.4240, 6018.838
880.9061, 6012.654
881.3882, 6011.075
881.8704, 6015.390
882.3525, 6018.214
882.8346, 6014.446
883.3167, 6008.241
883.7988, 6009.111
884.2809, 6018.581
884.7631, 6023.583
885.2452, 6023.129
885.7273, 6020.476
886.2094, 6015.776
886.6915, 6010.299
887.1736, 6003.688
887.6558, 5996.445
888.1379, 5996.109
888.6200, 6011.216
889.1021, 6021.463
889.5842, 6019.901
890.0663, 6015.687
890.5485, 6015.669
891.0306, 6017.669
891.5127, 6015.867
891.9948, 6008.489
892.4769, 6001.667
892.9590, 6000.930
893.4412, 6001.371
893.9233, 5997.319
894.4054, 5990.499
894.8875, 5984.206
895.3696, 5979.507
895.8517, 5977.162
896.3339, 5978.022
896.8160, 5980.656
897.2981, 5981.413
897.7802, 5980.796
898.2623, 5985.534
898.7444, 5996.935
899.2266, 6003.864
899.7087, 5999.785
900.1908, 5992.336
900.6729, 5993.831
901.1550, 6005.021
901.6371, 6007.422
902.1193, 5995.613
902.6014, 5984.995
903.0835, 5978.563
903.5656, 5974.033
904.0477, 5967.351
904.5298, 5961.611
905.0120, 5966.489
905.4941, 5989.340
905.9762, 6004.704
906.4583, 6001.140
906.9404, 5993.977
907.4225, 5992.611
907.9047, 5993.245
908.3868, 5988.851
908.8689, 5979.239
909.3510, 5971.386
909.8331, 5969.979
910.3152, 5971.198
910.7974, 5971.604
911.2795, 5971.627
911.7616, 5971.434
912.2437, 5971.503
912.7258, 5974.171
913.2079, 5980.533
913.6901, 5987.058
914.1722, 5988.643
914.6543, 5986.135
915.1364, 5983.877
915.6185, 5981.734
916.1006, 5984.062
916.5828, 5993.136
917.0649, 6001.419
917.5470, 6002.391
918.0291, 5997.969
918.5112, 5995.033
918.9933, 5993.539
919.4755, 5993.988
919.9576, 6000.523
920.4397, 6003.132
920.9218, 5992.875
921.4039, 5980.021
921.8860, 5977.116
922.3682, 5983.813
922.8503, 5987.050
923.3324, 5980.078
923.8145, 5976.157
924.2966, 5983.603
924.7787, 5991.369
925.2609, 5988.586
925.7430, 5979.746
926.2251, 5975.692
926.7072, 5979.684
927.1893, 5984.683
927.6714, 5985.798
928.1536, 5985.835
928.6357, 5987.515
929.1178, 5990.307
929.5999, 5993.026
930.0820, 5995.545
930.5641, 5999.176
931.0463, 6005.292
931.5284, 6009.889
932.0105, 6003.938
932.4926, 5990.874
932.9747, 5985.852
933.4568, 5989.252
933.9390, 5992.484
934.4211, 5992.419
934.9032, 5991.117
935.3853, 5991.278
935.8674, 5991.901
936.3495, 5985.313
936.8317, 5967.826
937.3138, 5960.155
937.7959, 5968.734
938.2780, 5978.202
938.7601, 5980.102
939.2422, 5977.733
939.7244, 5977.003
940.2065, 5978.349
940.6886, 5978.453
941.1707, 5974.912
941.6528, 5973.330
942.1349, 5976.439
942.6171, 5980.293
943.0992, 5982.947
943.5813, 5983.886
944.0634, 5981.965
944.5455, 5976.227
945.0276, 5970.572
945.5098, 5964.039
945.9919, 5960.570
946.4740, 5966.451
946.9561, 5975.071
947.4382, 5976.219
947.9203, 5970.071
948.4025, 5966.087
948.8846, 5970.183
949.3667, 5975.963
949.8488, 5977.750
950.3309, 5977.005
950.8130, 5975.586
951.2952, 5973.749
951.7773, 5971.542
952.2594, 5968.990
952.7415, 5966.262
953.2236, 5963.455
953.7057, 5960.625
954.1878, 5957.860
954.6699, 5955.194
955.1520, 5953.453
955.6342, 5952.734
956.1163, 5949.463
956.5984, 5941.235
957.0805, 5932.059
957.5626, 5928.109
958.0447, 5929.366
958.5269, 5936.378
959.0090, 5952.905
959.4911, 5957.845
959.9732, 5941.408
960.4553, 5924.831
960.9374, 5926.205
961.4196, 5937.888
961.9017, 5937.709
962.3838, 5919.757
962.8659, 5907.965
963.3480, 5903.733
963.8301, 5903.805
964.3123, 5910.217
964.7944, 5917.976
965.2765, 5922.760
965.7586, 5925.058
966.2407, 5928.042
966.7228, 5935.364
967.2050, 5936.749
967.6871, 5925.408
968.1692, 5912.539
968.6513, 5902.201
969.1334, 5895.644
969.6155, 5896.185
970.0977, 5902.749
970.5798, 5906.061
971.0619, 5900.026
971.5440, 5893.128
972.0261, 5890.584
972.5082, 5890.030
972.9904, 5890.264
973.4725, 5890.060
973.9546, 5886.642
974.4367, 5879.559
974.9188, 5873.022
975.4009, 5869.974
975.8831, 5869.681
976.3652, 5873.048
976.8473, 5877.763
977.3294, 5878.668
977.8115, 5875.612
978.2936, 5870.852
978.7758, 5865.456
979.2579, 5862.016
979.7400, 5865.258
980.2221, 5872.541
980.7042, 5874.404
981.1863, 5871.555
981.6685, 5869.826
982.1506, 5870.406
982.6327, 5870.206
983.1148, 5867.248
983.5969, 5862.316
984.0790, 5856.150
984.5612, 5848.749
985.0433, 5845.625
985.5254, 5847.746
986.0075, 5847.726
986.4896, 5842.161
986.9717, 5838.960
987.4539, 5845.948
987.9360, 5858.875
988.4181, 5864.146
988.9002, 5859.337
989.3823, 5855.075
989.8644, 5850.927
990.3466, 5848.236
990.8287, 5849.251
991.3108, 5849.808
991.7929, 5844.162
992.2750, 5834.089
992.7571, 5830.385
993.2393, 5839.327
993.7214, 5843.439
994.2035, 5838.319
994.6856, 5833.412
995.1677, 5832.995
995.6498, 5834.188
996.1320, 5833.616
996.6141, 5831.452
997.0962, 5830.388
997.5783, 5831.718
998.0604, 5832.792
998.5425, 5831.501
999.0247, 5831.183
999.5068, 5837.845
999.9889, 5844.683
1000.471, 5838.437
1000.953, 5819.677
1001.435, 5809.236
1001.917, 5822.764
1002.399, 5835.822
1002.882, 5832.560
1003.364, 5824.994
1003.846, 5824.608
1004.328, 5828.729
1004.810, 5830.029
1005.292, 5826.904
1005.774, 5823.500
1006.256, 5822.712
1006.739, 5822.423
1007.221, 5819.217
1007.703, 5816.209
1008.185, 5820.718
1008.667, 5829.311
1009.149, 5829.806
1009.631, 5818.603
1010.113, 5806.928
1010.595, 5804.936
1011.078, 5807.879
1011.560, 5809.578
1012.042, 5810.307
1012.524, 5810.482
1013.006, 5810.317
1013.488, 5810.328
1013.970, 5810.735
1014.452, 5811.648
1014.935, 5812.907
1015.417, 5814.964
1015.899, 5820.499
1016.381, 5828.131
1016.863, 5830.742
1017.345, 5827.633
1017.827, 5823.181
1018.309, 5819.552
1018.791, 5817.436
1019.274, 5818.062
1019.756, 5820.979
1020.238, 5824.779
1020.720, 5829.320
1021.202, 5829.959
1021.684, 5825.772
1022.166, 5819.278
1022.648, 5811.160
1023.130, 5805.333
1023.613, 5809.118
1024.095, 5821.748
1024.577, 5831.132
1025.059, 5837.545
1025.541, 5836.689
1026.023, 5826.125
1026.505, 5814.888
1026.987, 5807.828
1027.469, 5805.246
1027.952, 5808.751
1028.434, 5818.810
1028.916, 5822.769
1029.398, 5818.392
1029.880, 5816.071
1030.362, 5818.880
1030.844, 5821.499
1031.326, 5820.384
1031.809, 5816.961
1032.291, 5813.873
1032.773, 5811.067
1033.255, 5809.346
1033.737, 5807.141
1034.219, 5810.184
1034.701, 5824.479
1035.183, 5836.843
1035.666, 5837.463
1036.148, 5830.809
1036.630, 5825.646
1037.112, 5821.651
1037.594, 5820.817
1038.076, 5825.241
1038.558, 5829.333
1039.040, 5832.527
1039.522, 5834.516
1040.005, 5834.107
1040.487, 5832.566
1040.969, 5832.640
1041.451, 5834.553
1041.933, 5836.726
1042.415, 5838.889
1042.897, 5841.681
1043.379, 5848.971
1043.861, 5853.287
1044.344, 5846.013
1044.826, 5833.682
1045.308, 5830.069
1045.790, 5837.826
1046.272, 5841.930
1046.754, 5837.047
1047.236, 5833.644
1047.718, 5835.241
1048.201, 5838.251
1048.683, 5840.364
1049.165, 5842.003
1049.647, 5844.565
1050.129, 5848.365
1050.611, 5850.500
1051.093, 5847.931
1051.575, 5846.858
1052.057, 5850.265
1052.540, 5854.582
1053.022, 5855.783
1053.504, 5856.517
1053.986, 5863.191
1054.468, 5876.930
1054.950, 5886.508
1055.432, 5888.555
1055.914, 5886.546
1056.396, 5876.335
1056.879, 5867.703
1057.361, 5869.992
1057.843, 5878.272
1058.325, 5883.240
1058.807, 5883.524
1059.289, 5884.630
1059.771, 5890.173
1060.253, 5894.433
1060.736, 5894.423
1061.218, 5893.158
1061.700, 5892.636
1062.182, 5892.625
1062.664, 5891.954
1063.146, 5890.648
1063.628, 5891.321
1064.110, 5897.867
1064.593, 5902.397
1065.075, 5898.302
1065.557, 5894.315
1066.039, 5899.489
1066.521, 5908.114
1067.003, 5909.201
1067.485, 5902.424
1067.967, 5900.247
1068.449, 5912.267
1068.932, 5921.000
1069.414, 5914.063
1069.896, 5905.510
1070.378, 5906.099
1070.860, 5911.747
1071.342, 5915.998
1071.824, 5918.089
1072.306, 5920.766
1072.788, 5925.749
1073.271, 5929.726
1073.753, 5931.706
1074.235, 5931.506
1074.717, 5925.740
1075.199, 5919.745
1075.681, 5921.729
1076.163, 5930.736
1076.645, 5937.951
1077.127, 5940.159
1077.610, 5941.049
1078.092, 5941.299
1078.574, 5941.998
1079.056, 5943.854
1079.538, 5946.640
1080.020, 5950.718
1080.502, 5955.445
1080.984, 5959.142
1081.467, 5961.499
1081.949, 5961.736
1082.431, 5954.984
1082.913, 5951.260
1083.395, 5960.545
1083.877, 5973.068
1084.359, 5977.581
1084.841, 5976.030
1085.323, 5976.625
1085.806, 5981.659
1086.288, 5987.049
1086.770, 5991.507
1087.252, 5995.312
1087.734, 5997.344
1088.216, 5999.908
1088.698, 6007.852
1089.180, 6017.172
1089.662, 6018.069
1090.145, 6008.508
1090.627, 6001.190
1091.109, 5998.710
1091.591, 6002.308
1092.073, 6019.508
1092.555, 6036.259
1093.037, 6040.308
1093.519, 6036.523
1094.002, 6033.832
1094.484, 6033.538
1094.966, 6032.492
1095.448, 6027.778
1095.930, 6025.044
1096.412, 6028.413
1096.894, 6031.880
1097.376, 6029.676
1097.859, 6026.436
1098.341, 6029.755
1098.823, 6038.998
1099.305, 6045.067
1099.787, 6042.739
1100.269, 6043.716
1100.751, 6054.083
1101.233, 6064.758
1101.715, 6072.749
1102.198, 6077.723
1102.680, 6078.687
1103.162, 6076.502
1103.644, 6073.820
1104.126, 6069.999
1104.608, 6069.058
1105.090, 6072.098
1105.572, 6077.686
1106.054, 6087.131
1106.537, 6097.291
1107.019, 6107.860
1107.501, 6116.729
1107.983, 6116.947
1108.465, 6104.542
1108.947, 6103.662
1109.429, 6130.142
1109.911, 6148.694
1110.394, 6146.916
1110.876, 6140.797
1111.358, 6137.890
1111.840, 6137.767
1112.322, 6139.635
1112.804, 6143.466
1113.286, 6149.068
1113.768, 6158.169
1114.250, 6166.146
1114.733, 6172.769
1115.215, 6178.117
1115.697, 6181.623
1116.179, 6184.472
1116.661, 6187.877
1117.143, 6191.874
1117.625, 6196.730
1118.107, 6204.288
1118.589, 6207.908
1119.072, 6203.033
1119.554, 6203.757
1120.036, 6217.350
1120.518, 6233.498
1121.000, 6243.920
1121.482, 6249.766
1121.964, 6253.770
1122.446, 6254.875
1122.929, 6261.422
1123.411, 6276.830
1123.893, 6284.848
1124.375, 6278.825
1124.857, 6274.696
1125.339, 6283.437
1125.821, 6298.139
1126.303, 6306.835
1126.786, 6309.905
1127.268, 6314.810
1127.750, 6321.708
1128.232, 6328.846
1128.714, 6336.144
1129.196, 6342.392
1129.678, 6347.158
1130.160, 6349.524
1130.642, 6347.427
1131.125, 6343.657
1131.607, 6349.643
1132.089, 6364.632
1132.571, 6373.983
1133.053, 6377.092
1133.535, 6381.203
1134.017, 6388.546
1134.499, 6397.525
1134.981, 6407.219
1135.464, 6416.129
1135.946, 6419.674
1136.428, 6420.296
1136.910, 6428.833
1137.392, 6443.553
1137.874, 6455.027
1138.356, 6462.056
1138.838, 6470.778
1139.321, 6484.390
1139.803, 6496.797
1140.285, 6499.008
1140.767, 6497.670
1141.249, 6505.975
1141.731, 6519.901
1142.213, 6531.620
1142.695, 6540.259
1143.177, 6546.063
1143.660, 6549.564
1144.142, 6553.627
1144.624, 6560.246
1145.106, 6568.513
1145.588, 6580.034
1146.070, 6590.650
1146.552, 6591.479
1147.034, 6589.053
1147.516, 6597.607
1147.999, 6616.421
1148.481, 6631.196
1148.963, 6635.231
1149.445, 6638.921
1149.927, 6649.056
1150.409, 6660.845
1150.891, 6671.313
1151.373, 6681.108
1151.856, 6691.088
1152.338, 6701.029
1152.820, 6709.409
1153.302, 6715.935
1153.784, 6726.115
1154.266, 6745.978
1154.748, 6763.907
1155.230, 6775.617
1155.713, 6784.767
1156.195, 6792.133
1156.677, 6799.382
1157.159, 6809.254
1157.641, 6821.290
1158.123, 6831.003
1158.605, 6836.356
1159.087, 6843.187
1159.569, 6852.459
1160.052, 6862.557
1160.534, 6872.390
1161.016, 6883.823
1161.498, 6899.636
1161.980, 6917.178
1162.462, 6930.265
1162.944, 6938.319
1163.426, 6948.407
1163.908, 6961.403
1164.391, 6973.579
1164.873, 6983.806
1165.355, 6994.714
1165.837, 7007.454
1166.319, 7021.757
1166.801, 7037.570
1167.283, 7054.450
1167.765, 7071.338
1168.247, 7088.328
1168.730, 7101.016
1169.212, 7108.961
1169.694, 7121.479
1170.176, 7141.159
1170.658, 7161.805
1171.140, 7179.412
1171.622, 7193.706
1172.104, 7201.260
1172.587, 7206.275
1173.069, 7227.459
1173.551, 7258.598
1174.033, 7272.751
1174.515, 7270.879
1174.997, 7277.252
1175.479, 7300.538
1175.961, 7326.309
1176.443, 7342.569
1176.926, 7355.837
1177.408, 7373.514
1177.890, 7393.882
1178.372, 7417.319
1178.854, 7440.268
1179.336, 7454.915
1179.818, 7462.185
1180.300, 7470.353
1180.782, 7482.725
1181.265, 7497.490
1181.747, 7514.119
1182.229, 7532.097
1182.711, 7553.326
1183.193, 7573.712
1183.675, 7587.628
1184.157, 7598.524
1184.639, 7612.907
1185.122, 7631.721
1185.604, 7652.856
1186.086, 7680.411
1186.568, 7702.950
1187.050, 7714.336
1187.532, 7725.608
1188.014, 7740.492
1188.496, 7758.038
1188.979, 7777.526
1189.461, 7798.694
1189.943, 7820.256
1190.425, 7841.841
1190.907, 7865.910
1191.389, 7893.740
1191.871, 7920.202
1192.353, 7944.292
1192.835, 7967.235
1193.318, 7989.566
1193.800, 8010.954
1194.282, 8030.175
1194.764, 8048.896
1195.246, 8074.274
1195.728, 8106.015
1196.210, 8136.491
1196.692, 8165.227
1197.174, 8193.964
1197.657, 8222.869
1198.139, 8248.206
1198.621, 8267.255
1199.103, 8286.830
1199.585, 8317.208
1200.067, 8353.246
1200.549, 8386.747
1201.031, 8417.355
1201.514, 8444.139
1201.996, 8467.632
1202.478, 8487.534
1202.960, 8505.178
1203.442, 8528.905
1203.924, 8566.207
1204.406, 8603.191
1204.888, 8626.801
1205.370, 8648.372
1205.853, 8679.329
1206.335, 8712.106
1206.817, 8733.312
1207.299, 8749.001
1207.781, 8779.134
1208.263, 8828.645
1208.745, 8871.989
1209.227, 8897.370
1209.709, 8924.191
1210.192, 8957.657
1210.674, 8992.349
1211.156, 9024.246
1211.638, 9057.185
1212.120, 9096.704
1212.602, 9140.143
1213.084, 9176.337
1213.566, 9202.657
1214.049, 9234.520
1214.531, 9272.253
1215.013, 9315.390
1215.495, 9365.771
1215.977, 9412.629
1216.459, 9450.322
1216.941, 9479.785
1217.423, 9499.091
1217.906, 9516.091
1218.388, 9560.032
1218.870, 9623.888
1219.352, 9671.634
1219.834, 9704.230
1220.316, 9736.689
1220.798, 9772.699
1221.280, 9809.714
1221.762, 9846.480
1222.245, 9884.128
1222.727, 9921.240
1223.209, 9962.432
1223.691, 10017.70
1224.173, 10076.71
1224.655, 10125.47
1225.137, 10166.60
1225.619, 10207.23
1226.101, 10248.38
1226.584, 10287.62
1227.066, 10322.12
1227.548, 10359.89
1228.030, 10403.96
1228.512, 10451.33
1228.994, 10502.78
1229.476, 10555.26
1229.958, 10605.44
1230.441, 10655.74
1230.923, 10711.06
1231.405, 10771.40
1231.887, 10830.18
1232.369, 10889.00
1232.851, 10939.62
1233.333, 10977.58
1233.815, 11022.57
1234.297, 11081.20
1234.780, 11146.41
1235.262, 11214.87
1235.744, 11280.46
1236.226, 11330.00
1236.708, 11369.04
1237.190, 11423.19
1237.672, 11488.98
1238.154, 11554.04
1238.636, 11616.52
1239.119, 11676.80
1239.601, 11734.81
1240.083, 11789.29
1240.565, 11838.83
1241.047, 11888.38
1241.529, 11941.34
1242.011, 11998.21
1242.493, 12061.83
1242.975, 12128.65
1243.458, 12197.78
1243.940, 12265.64
1244.422, 12323.05
1244.904, 12370.21
1245.386, 12424.00
1245.868, 12494.22
1246.350, 12561.07
1246.832, 12617.27
1247.315, 12675.30
1247.797, 12743.52
1248.279, 12809.56
1248.761, 12862.62
1249.243, 12909.67
1249.725, 12963.78
1250.207, 13024.33
1250.689, 13085.10
1251.172, 13146.35
1251.654, 13201.99
1252.136, 13251.38
1252.618, 13303.07
1253.100, 13359.58
1253.582, 13415.90
1254.064, 13468.47
1254.546, 13517.28
1255.028, 13562.56
1255.510, 13603.13
1255.993, 13632.64
1256.475, 13657.73
1256.957, 13691.86
1257.439, 13731.63
1257.921, 13766.10
1258.403, 13793.36
1258.885, 13818.93
1259.367, 13844.53
1259.850, 13870.91
1260.332, 13904.67
1260.814, 13931.05
1261.296, 13934.58
1261.778, 13936.76
1262.260, 13956.17
1262.742, 13983.90
1263.224, 14006.71
1263.707, 14024.19
1264.189, 14032.27
1264.671, 14028.65
1265.153, 14023.01
1265.635, 14015.12
1266.117, 14005.35
1266.599, 13992.75
1267.081, 13986.56
1267.563, 13992.78
1268.046, 13999.94
1268.528, 13994.46
1269.010, 13979.76
1269.492, 13963.11
1269.974, 13943.95
1270.456, 13918.58
1270.938, 13889.96
1271.420, 13867.34
1271.902, 13850.19
1272.385, 13830.77
1272.867, 13806.17
1273.349, 13775.74
1273.831, 13732.25
1274.313, 13692.22
1274.795, 13668.65
1275.277, 13645.56
1275.759, 13611.45
1276.242, 13572.51
1276.724, 13536.28
1277.206, 13501.56
1277.688, 13464.84
1278.170, 13426.37
1278.652, 13382.18
1279.134, 13329.20
1279.616, 13282.08
1280.099, 13242.79
1280.581, 13208.41
1281.063, 13178.49
1281.545, 13145.62
1282.027, 13103.28
1282.509, 13055.88
1282.991, 13009.51
1283.473, 12964.42
1283.955, 12924.09
##END=



