##NAMES=Stephanite
##RRUFFID=R050143
##IDEAL CHEMISTRY=Ag^1+^_5_Sb^3+^S^2-^_4_
##LOCALITY=Proano mine, Fresnillo, Zacatecas, Mexico
##OWNER=RRUFF
##SOURCE=Dave Bunk Minerals
##DESCRIPTION=Group of black pseudohexagonal crystals
##STATUS=The identification of this mineral has been confirmed by X-ray diffraction and chemical analysis
##URL=rruff.info/R050143
##MEASURED CHEMISTRY=Ag_5.00_Sb_1.00_S_4.00_
140.330, 0.000
140.812, 26.927
141.294, 83.588
141.777, 165.857
142.259, 269.189
142.741, 389.986
143.223, 526.767
143.705, 677.670
144.187, 838.011
144.669, 1013.845
145.151, 1190.426
145.633, 1359.871
146.116, 1525.854
146.598, 1697.866
147.080, 1884.886
147.562, 2085.252
148.044, 2268.607
148.526, 2434.956
149.008, 2581.122
149.490, 2703.469
149.973, 2804.771
150.455, 2890.714
150.937, 2964.927
151.419, 3027.736
151.901, 3077.653
152.383, 3103.233
152.865, 3126.450
153.347, 3149.531
153.829, 3175.408
154.312, 3208.861
154.794, 3255.736
155.276, 3317.613
155.758, 3375.237
156.240, 3415.826
156.722, 3463.994
157.204, 3526.609
157.686, 3605.033
158.169, 3699.595
158.651, 3810.983
159.133, 3940.257
159.615, 4082.168
160.097, 4230.476
160.579, 4395.297
161.061, 4581.442
161.543, 4789.215
162.025, 5014.737
162.508, 5254.679
162.990, 5509.462
163.472, 5788.673
163.954, 6108.938
164.436, 6434.338
164.918, 6745.123
165.400, 7040.785
165.883, 7340.731
166.365, 7661.562
166.847, 8007.926
167.329, 8346.631
167.811, 8675.788
168.293, 8998.865
168.775, 9318.372
169.257, 9633.484
169.739, 9939.568
170.221, 10233.272
170.704, 10513.903
171.186, 10774.311
171.668, 11002.770
172.150, 11221.765
172.632, 11456.053
173.114, 11702.775
173.596, 11929.117
174.078, 12103.071
174.561, 12215.379
175.043, 12308.432
175.525, 12374.003
176.007, 12427.424
176.489, 12487.094
176.971, 12551.587
177.453, 12593.542
177.935, 12585.211
178.417, 12517.064
178.900, 12444.273
179.382, 12379.777
179.864, 12301.038
180.346, 12189.036
180.828, 12042.870
181.310, 11876.912
181.792, 11702.582
182.274, 11517.990
182.757, 11319.457
183.239, 11100.691
183.721, 10871.714
184.203, 10639.476
184.685, 10404.825
185.167, 10169.184
185.649, 9938.811
186.131, 9712.328
186.613, 9463.373
187.096, 9163.657
187.578, 8859.101
188.060, 8591.474
188.542, 8361.387
189.024, 8142.599
189.506, 7912.919
189.988, 7674.149
190.470, 7443.370
190.952, 7219.358
191.435, 7006.337
191.917, 6808.065
192.399, 6624.272
192.881, 6453.329
193.363, 6298.173
193.845, 6157.929
194.327, 6014.685
194.809, 5854.742
195.292, 5701.428
195.774, 5575.632
196.256, 5476.958
196.738, 5388.516
197.220, 5299.064
197.702, 5210.617
198.184, 5127.987
198.666, 5063.587
199.148, 5002.454
199.631, 4930.254
200.113, 4848.286
200.595, 4774.794
201.077, 4725.792
201.559, 4695.308
202.041, 4651.309
202.523, 4584.505
203.005, 4511.769
203.488, 4437.627
203.970, 4364.109
204.452, 4305.637
204.934, 4276.587
205.416, 4268.382
205.898, 4246.995
206.380, 4204.683
206.862, 4157.271
207.344, 4113.118
207.827, 4071.817
208.309, 4031.334
208.791, 3990.628
209.273, 3950.042
209.755, 3910.151
210.237, 3866.335
210.719, 3829.462
211.201, 3812.101
211.684, 3808.852
212.166, 3796.581
212.648, 3760.167
213.130, 3712.903
213.612, 3687.125
214.094, 3696.876
214.576, 3700.101
215.058, 3668.708
215.540, 3613.760
216.023, 3567.541
216.505, 3541.170
216.987, 3531.720
217.469, 3535.808
217.951, 3561.558
218.433, 3577.718
218.915, 3563.134
219.397, 3530.254
219.880, 3508.074
220.362, 3507.874
220.844, 3517.742
221.326, 3516.258
221.808, 3501.040
222.290, 3488.875
222.772, 3493.558
223.254, 3503.187
223.736, 3492.216
224.219, 3449.754
224.701, 3400.523
225.183, 3386.086
225.665, 3410.646
226.147, 3423.818
226.629, 3403.700
227.111, 3369.438
227.593, 3346.295
228.076, 3339.452
228.558, 3341.825
229.040, 3346.151
229.522, 3352.245
230.004, 3361.542
230.486, 3376.214
230.968, 3393.158
231.450, 3409.958
231.932, 3426.244
232.415, 3440.146
232.897, 3446.092
233.379, 3443.419
233.861, 3459.746
234.343, 3516.507
234.825, 3578.756
235.307, 3611.543
235.789, 3615.866
236.271, 3627.074
236.754, 3677.433
237.236, 3766.517
237.718, 3831.695
238.200, 3842.942
238.682, 3857.755
239.164, 3915.894
239.646, 4010.956
240.128, 4109.597
240.611, 4192.382
241.093, 4259.417
241.575, 4314.694
242.057, 4336.519
242.539, 4370.518
243.021, 4443.857
243.503, 4544.120
243.985, 4641.546
244.467, 4721.518
244.950, 4786.774
245.432, 4848.037
245.914, 4900.234
246.396, 4955.388
246.878, 5025.618
247.360, 5098.998
247.842, 5157.702
248.324, 5194.118
248.807, 5211.891
249.289, 5218.365
249.771, 5210.725
250.253, 5195.347
250.735, 5175.413
251.217, 5146.450
251.699, 5097.902
252.181, 5027.432
252.663, 4951.847
253.146, 4898.729
253.628, 4882.498
254.110, 4861.373
254.592, 4828.380
255.074, 4795.059
255.556, 4770.088
256.038, 4754.857
256.520, 4745.564
257.003, 4737.547
257.485, 4728.874
257.967, 4730.167
258.449, 4754.258
258.931, 4775.559
259.413, 4777.937
259.895, 4763.928
260.377, 4746.316
260.859, 4734.943
261.342, 4729.604
261.824, 4736.466
262.306, 4767.150
262.788, 4797.716
263.270, 4819.685
263.752, 4836.308
264.234, 4855.833
264.716, 4884.438
265.198, 4919.483
265.681, 4943.109
266.163, 4936.870
266.645, 4941.308
267.127, 4971.550
267.609, 5013.038
268.091, 5046.289
268.573, 5062.001
269.056, 5069.390
269.538, 5091.457
270.020, 5135.695
270.502, 5181.139
270.984, 5220.101
271.466, 5261.799
271.948, 5316.349
272.430, 5386.029
272.912, 5460.370
273.395, 5521.220
273.877, 5561.772
274.359, 5615.823
274.841, 5695.900
275.323, 5783.638
275.805, 5867.834
276.287, 5948.637
276.769, 6035.032
277.251, 6135.227
277.734, 6249.274
278.216, 6370.530
278.698, 6503.483
279.180, 6638.574
279.662, 6766.723
280.144, 6891.657
280.626, 7023.989
281.108, 7166.157
281.591, 7320.383
282.073, 7500.054
282.555, 7714.592
283.037, 7932.346
283.519, 8118.457
284.001, 8299.804
284.483, 8521.507
284.965, 8810.355
285.447, 9135.539
285.930, 9455.389
286.412, 9766.174
286.894, 10090.623
287.376, 10436.779
287.858, 10804.448
288.340, 11193.313
288.822, 11599.152
289.304, 12034.707
289.786, 12518.767
290.269, 13046.900
290.751, 13576.526
291.233, 14082.948
291.715, 14602.665
292.197, 15187.343
292.679, 15842.708
293.161, 16517.652
293.643, 17188.332
294.125, 17866.225
294.608, 18583.117
295.090, 19347.404
295.572, 20116.752
296.054, 20840.154
296.536, 21515.105
297.018, 22171.059
297.500, 22817.797
297.983, 23440.564
298.465, 24034.691
298.947, 24593.250
299.429, 25079.717
299.911, 25459.797
300.393, 25730.814
300.875, 25953.682
301.357, 26134.148
301.839, 26264.553
302.322, 26302.857
302.804, 26288.100
303.286, 26303.480
303.768, 26391.920
304.250, 26540.205
304.732, 26705.299
305.214, 26801.389
305.696, 27024.176
306.178, 27407.980
306.661, 27918.320
307.143, 28516.268
307.625, 29192.150
308.107, 29962.273
308.589, 30857.779
309.071, 31892.562
309.553, 33039.133
310.035, 34268.770
310.517, 35604.957
311.000, 37074.691
311.482, 38664.957
311.964, 40349.285
312.446, 42097.688
312.928, 43910.152
313.410, 45783.746
313.892, 47739.602
314.374, 49754.473
314.857, 51898.445
315.339, 54080.898
315.821, 56168.488
316.303, 58101.715
316.785, 59869.074
317.267, 61461.074
317.749, 62954.246
318.231, 64080.105
318.714, 64760.359
319.196, 65078.293
319.678, 65064.961
320.160, 64720.578
320.642, 64122.613
321.124, 63277.828
321.606, 62183.180
322.088, 61130.430
322.570, 60111.680
323.052, 59242.781
323.535, 58589.637
324.017, 58152.461
324.499, 57876.387
324.981, 57791.691
325.463, 57841.988
325.945, 57934.070
326.427, 58103.383
326.909, 58163.820
327.392, 58032.328
327.874, 57681.402
328.356, 56957.496
328.838, 55849.699
329.320, 54348.418
329.802, 52394.641
330.284, 50006.789
330.766, 47336.539
331.249, 44413.691
331.731, 41302.898
332.213, 38246.719
332.695, 35156.809
333.177, 32208.531
333.659, 29416.109
334.141, 26800.898
334.623, 24368.695
335.105, 22133.363
335.588, 20085.941
336.070, 18218.807
336.552, 16561.441
337.034, 15072.389
337.516, 13785.249
337.998, 12631.436
338.480, 11585.525
338.962, 10637.911
339.444, 9780.629
339.927, 9009.903
340.409, 8326.391
340.891, 7699.991
341.373, 7140.085
341.855, 6632.414
342.337, 6180.079
342.819, 5776.121
343.301, 5410.831
343.784, 5083.580
344.266, 4787.998
344.748, 4515.312
345.230, 4266.837
345.712, 4036.957
346.194, 3821.368
346.676, 3622.536
347.158, 3445.775
347.641, 3289.705
348.123, 3144.111
348.605, 2997.799
349.087, 2851.113
349.569, 2719.715
350.051, 2609.690
350.533, 2508.518
351.015, 2406.863
351.497, 2306.694
351.979, 2212.688
352.462, 2129.444
352.944, 2051.863
353.426, 1972.649
353.908, 1891.651
354.390, 1811.327
354.872, 1729.113
355.354, 1650.911
355.836, 1588.232
356.319, 1551.714
356.801, 1508.482
357.283, 1433.621
357.765, 1341.686
358.247, 1263.766
358.729, 1208.522
359.211, 1165.491
359.693, 1122.268
360.176, 1078.527
360.658, 1036.272
361.140, 999.742
361.622, 961.185
362.104, 911.860
362.586, 854.276
363.068, 799.887
363.550, 756.947
364.032, 724.787
364.515, 694.645
364.997, 665.380
365.479, 639.773
365.961, 624.701
366.443, 611.032
366.925, 585.397
367.407, 543.687
367.889, 496.734
368.371, 461.953
368.854, 441.587
369.336, 426.955
369.818, 428.173
370.300, 425.866
370.782, 406.820
371.264, 373.876
371.746, 341.477
372.228, 320.860
372.711, 309.076
373.193, 294.684
373.675, 276.899
374.157, 258.446
374.639, 240.397
375.121, 222.480
375.603, 204.892
376.085, 188.597
376.568, 170.766
377.050, 147.062
377.532, 119.033
378.014, 93.470
378.496, 71.994
378.978, 54.555
379.460, 43.294
379.942, 39.126
380.424, 30.280
380.906, 9.326
381.389, 14.464
381.871, 30.479
382.353, 38.548
382.835, 47.083
383.317, 63.601
383.799, 87.071
384.281, 100.347
384.763, 95.621
385.246, 91.339
385.728, 89.795
386.210, 92.226
386.692, 102.201
387.174, 120.667
387.656, 140.506
388.138, 149.138
388.620, 141.383
389.103, 134.804
389.585, 128.658
390.067, 124.458
390.549, 124.073
391.031, 126.620
391.513, 128.970
391.995, 128.138
392.477, 125.605
392.959, 128.224
393.442, 138.931
393.924, 147.861
394.406, 149.178
394.888, 147.372
395.370, 146.787
395.852, 148.013
396.334, 151.592
396.816, 159.811
397.298, 171.300
397.781, 179.812
398.263, 183.558
398.745, 184.790
399.227, 185.302
399.709, 185.143
400.191, 185.385
400.673, 184.851
401.155, 185.934
401.638, 191.392
402.120, 200.475
402.602, 210.022
403.084, 218.696
403.566, 225.905
404.048, 229.663
404.530, 223.276
405.012, 221.841
405.495, 231.704
405.977, 243.922
406.459, 250.046
406.941, 248.545
407.423, 243.908
407.905, 241.109
408.387, 240.477
408.869, 237.873
409.351, 226.637
409.833, 221.212
410.316, 230.889
410.798, 248.416
411.280, 262.614
411.762, 269.407
412.244, 269.290
412.726, 260.193
413.208, 241.190
413.690, 226.812
414.173, 221.899
414.655, 222.766
415.137, 226.026
415.619, 231.783
416.101, 235.626
416.583, 234.289
417.065, 230.763
417.547, 229.889
418.030, 231.898
418.512, 231.916
418.994, 225.293
419.476, 213.794
419.958, 209.067
420.440, 219.113
420.922, 225.224
421.404, 219.040
421.886, 207.699
422.369, 200.379
422.851, 199.615
423.333, 201.448
423.815, 200.487
424.297, 195.509
424.779, 193.281
425.261, 198.455
425.743, 201.772
426.225, 197.971
426.708, 189.976
427.190, 183.417
427.672, 181.094
428.154, 182.111
428.636, 186.071
429.118, 194.149
429.600, 198.101
430.082, 192.522
430.565, 184.454
431.047, 181.092
431.529, 182.575
432.011, 182.286
432.493, 174.863
432.975, 164.590
433.457, 157.755
433.939, 154.868
434.422, 155.608
434.904, 162.062
435.386, 171.634
435.868, 171.278
436.350, 153.780
436.832, 136.587
437.314, 123.007
437.796, 112.574
438.278, 105.745
438.760, 102.315
439.243, 99.726
439.725, 95.509
440.207, 90.375
440.689, 78.670
441.171, 48.956
441.653, 24.569
442.135, 16.497
442.617, 17.363
443.100, 15.061
443.582, 3.991
444.064, 11.135
444.546, 22.504
445.028, 29.609
445.510, 39.449
445.992, 58.000
446.474, 74.833
446.957, 79.276
447.439, 72.712
447.921, 66.850
448.403, 68.589
448.885, 71.466
449.367, 66.957
449.849, 55.790
450.331, 46.297
450.813, 43.770
451.296, 44.493
451.778, 37.646
452.260, 16.833
452.742, 0.642
453.224, 12.480
453.706, 20.861
454.188, 26.317
454.670, 29.713
455.152, 33.400
455.635, 39.636
456.117, 48.006
456.599, 54.644
457.081, 62.147
457.563, 63.452
458.045, 51.269
458.527, 35.759
459.009, 27.888
459.492, 30.524
459.974, 36.403
460.456, 38.747
460.938, 38.533
461.420, 41.194
461.902, 48.678
462.384, 55.004
462.866, 54.013
463.349, 47.809
463.831, 44.706
464.313, 47.785
464.795, 51.594
465.277, 54.101
465.759, 55.178
466.241, 53.659
466.723, 49.135
467.205, 44.935
467.688, 46.507
468.170, 57.077
468.652, 61.199
469.134, 53.216
469.616, 45.401
470.098, 43.746
470.580, 45.598
471.062, 45.213
471.544, 39.643
472.027, 32.205
472.509, 28.780
472.991, 29.814
473.473, 31.513
473.955, 33.755
474.437, 35.849
474.919, 36.766
475.401, 36.816
475.884, 37.877
476.366, 42.097
476.848, 46.633
477.330, 48.854
477.812, 48.729
478.294, 45.708
478.776, 38.608
479.258, 30.537
479.741, 28.005
480.223, 34.972
480.705, 39.748
481.187, 42.954
481.669, 43.237
482.151, 37.191
482.633, 27.030
483.115, 19.557
483.597, 19.722
484.079, 25.080
484.562, 27.315
485.044, 25.169
485.526, 23.134
486.008, 23.877
486.490, 23.895
486.972, 19.228
487.454, 10.219
487.936, 3.545
488.419, 4.614
488.901, 9.833
489.383, 14.285
489.865, 17.732
490.347, 17.756
490.829, 11.967
491.311, 2.700
491.793, 3.477
492.276, 5.319
492.758, 6.977
493.240, 9.638
493.722, 11.972
494.204, 12.314
494.686, 10.963
495.168, 10.076
495.650, 11.613
496.132, 14.822
496.615, 15.396
497.097, 11.704
497.579, 8.613
498.061, 7.518
498.543, 7.193
499.025, 6.698
499.507, 5.908
499.989, 5.369
500.471, 5.568
500.954, 6.220
501.436, 7.637
501.918, 9.968
502.400, 9.031
502.882, 0.846
503.364, 11.474
503.846, 18.128
504.328, 17.332
504.810, 15.343
505.293, 13.364
505.775, 10.646
506.257, 5.385
506.739, 1.755
507.221, 7.604
507.703, 9.892
508.185, 8.690
508.668, 3.423
509.150, 10.813
509.632, 19.498
510.114, 16.728
510.596, 9.432
511.078, 0.882
511.560, 7.953
512.042, 12.489
512.524, 6.490
513.006, 4.654
513.489, 11.464
513.971, 13.536
514.453, 12.257
514.935, 7.547
515.417, 0.562
515.899, 5.826
516.381, 12.379
516.864, 16.697
517.346, 18.554
517.828, 18.055
518.310, 13.110
518.792, 5.406
519.274, 0.564
519.756, 2.934
520.238, 10.350
520.720, 15.630
521.203, 18.994
521.685, 19.695
522.167, 15.265
522.649, 9.659
523.131, 5.483
523.613, 2.744
524.095, 0.073
524.577, 4.080
525.059, 8.010
525.542, 8.864
526.024, 7.086
526.506, 5.830
526.988, 6.320
527.470, 8.336
527.952, 11.855
528.434, 19.515
528.916, 22.333
529.398, 15.751
529.881, 8.506
530.363, 5.648
530.845, 6.272
531.327, 7.106
531.809, 6.348
532.291, 5.440
532.773, 7.753
533.255, 13.819
533.737, 18.727
534.220, 21.549
534.702, 23.267
535.184, 26.317
535.666, 29.388
536.148, 27.167
536.630, 12.014
537.112, 3.140
537.594, 8.072
538.077, 5.748
538.559, 3.273
539.041, 2.902
539.523, 1.686
540.005, 4.943
540.487, 18.853
540.969, 25.633
541.451, 19.133
541.933, 12.593
542.416, 8.528
542.898, 6.879
543.380, 8.336
543.862, 13.142
544.344, 17.193
544.826, 14.667
545.308, 7.331
545.791, 4.190
546.273, 6.816
546.755, 10.052
547.237, 10.467
547.719, 8.877
548.201, 8.352
548.683, 8.974
549.165, 10.396
549.647, 13.290
550.130, 16.549
550.612, 19.826
551.094, 22.543
551.576, 22.661
552.058, 18.113
552.540, 10.191
553.022, 4.767
553.504, 1.983
553.987, 1.413
554.469, 5.051
554.951, 9.460
555.433, 12.268
555.915, 13.435
556.397, 14.292
556.879, 15.854
557.361, 17.157
557.843, 16.283
558.326, 13.864
558.808, 13.670
559.290, 17.716
559.772, 22.238
560.254, 20.512
560.736, 9.164
561.218, 2.328
561.700, 2.014
562.182, 3.364
562.665, 5.137
563.147, 7.007
563.629, 8.567
564.111, 9.584
564.593, 11.069
565.075, 15.062
565.557, 21.041
566.039, 24.777
566.521, 25.352
567.004, 25.291
567.486, 26.488
567.968, 28.357
568.450, 28.745
568.932, 27.169
569.414, 24.844
569.896, 21.196
570.378, 17.505
570.860, 13.943
571.343, 11.348
571.825, 13.292
572.307, 24.036
572.789, 39.703
573.271, 42.014
573.753, 24.590
574.235, 12.536
574.718, 16.131
575.200, 23.372
575.682, 25.119
576.164, 21.568
576.646, 17.207
577.128, 12.093
577.610, 8.194
578.092, 8.359
578.574, 11.292
579.057, 13.132
579.539, 12.502
580.021, 10.704
580.503, 9.451
580.985, 8.797
581.467, 8.394
581.949, 8.847
582.431, 8.901
582.914, 7.429
583.396, 5.720
583.878, 5.595
584.360, 7.537
584.842, 9.755
585.324, 10.080
585.806, 9.704
586.288, 12.304
586.770, 18.141
587.253, 22.831
587.735, 24.405
588.217, 22.635
588.699, 16.566
589.181, 1.030
589.663, 9.556
590.145, 11.541
590.627, 11.579
591.109, 14.138
591.592, 18.214
592.074, 20.120
592.556, 17.610
593.038, 13.929
593.520, 15.169
594.002, 21.022
594.484, 23.598
594.966, 20.448
595.448, 16.982
595.931, 18.325
596.413, 23.303
596.895, 25.152
597.377, 16.340
597.859, 13.648
598.341, 27.975
598.823, 47.293
599.305, 58.910
599.787, 61.507
600.270, 60.975
600.752, 61.963
601.234, 63.253
601.716, 59.451
602.198, 48.537
602.680, 41.378
603.162, 41.674
603.644, 45.565
604.127, 50.752
604.609, 56.787
605.091, 59.974
605.573, 55.500
606.055, 51.907
606.537, 56.809
607.019, 65.759
607.501, 70.706
607.984, 69.487
608.466, 64.960
608.948, 59.285
609.430, 52.725
609.912, 53.011
610.394, 66.241
610.876, 74.697
611.358, 66.064
611.841, 54.493
612.323, 53.644
612.805, 64.448
613.287, 75.177
613.769, 81.820
614.251, 85.231
614.733, 83.971
615.215, 80.059
615.697, 80.445
616.180, 88.065
616.662, 97.024
617.144, 98.525
617.626, 91.495
618.108, 83.654
618.590, 70.421
619.072, 62.634
619.554, 69.034
620.036, 79.636
620.519, 81.547
621.001, 71.875
621.483, 62.199
621.965, 59.605
622.447, 61.047
622.929, 62.997
623.411, 65.007
623.893, 65.847
624.375, 64.607
624.858, 63.554
625.340, 67.498
625.822, 79.561
626.304, 86.966
626.786, 85.595
627.268, 83.886
627.750, 85.993
628.232, 89.188
628.714, 88.161
629.197, 80.758
629.679, 74.468
630.161, 77.766
630.643, 84.845
631.125, 82.511
631.607, 71.102
632.089, 65.785
632.571, 76.241
633.054, 94.599
633.536, 102.030
634.018, 92.971
634.500, 85.202
634.982, 78.014
635.464, 72.767
635.946, 70.205
636.428, 69.895
636.911, 71.589
637.393, 75.715
637.875, 79.185
638.357, 78.273
638.839, 75.131
639.321, 74.930
639.803, 77.936
640.285, 79.748
640.768, 77.561
641.250, 72.714
641.732, 68.802
642.214, 65.369
642.696, 63.762
643.178, 64.250
643.660, 66.179
644.142, 72.000
644.624, 78.434
645.107, 78.411
645.589, 68.010
646.071, 58.071
646.553, 59.180
647.035, 67.093
647.517, 74.416
647.999, 80.039
648.481, 81.208
648.963, 75.416
649.446, 65.919
649.928, 62.087
650.410, 68.280
650.892, 71.216
651.374, 65.619
651.856, 62.058
652.338, 66.793
652.820, 76.643
653.302, 85.597
653.785, 91.749
654.267, 96.681
654.749, 101.699
655.231, 106.323
655.713, 110.080
656.195, 112.784
656.677, 112.735
657.159, 108.312
657.641, 102.384
658.124, 103.003
658.606, 115.624
659.088, 121.242
659.570, 112.983
660.052, 104.473
660.534, 101.293
661.016, 101.667
661.498, 102.817
661.981, 104.734
662.463, 104.539
662.945, 98.255
663.427, 89.966
663.909, 85.559
664.391, 85.099
664.873, 86.099
665.355, 87.411
665.838, 88.110
666.320, 85.804
666.802, 79.076
667.284, 75.115
667.766, 76.084
668.248, 77.054
668.730, 76.580
669.212, 74.438
669.695, 70.024
670.177, 62.883
670.659, 55.108
671.141, 46.895
671.623, 39.007
672.105, 31.961
672.587, 25.886
673.069, 20.623
673.551, 16.148
674.034, 13.411
674.516, 15.248
674.998, 22.330
675.480, 24.361
675.962, 19.163
676.444, 13.660
676.926, 11.262
677.408, 10.243
677.890, 7.359
678.373, 1.645
678.855, 0.709
679.337, 5.164
679.819, 11.641
680.301, 14.834
680.783, 14.501
681.265, 9.241
681.747, 0.908
682.229, 9.842
682.712, 9.753
683.194, 2.032
683.676, 6.054
684.158, 15.711
684.640, 16.816
685.122, 0.590
685.604, 19.319
686.086, 22.519
686.568, 5.710
687.051, 6.907
687.533, 14.889
688.015, 18.740
688.497, 16.350
688.979, 11.108
689.461, 6.819
689.943, 4.151
690.425, 1.453
690.908, 4.206
691.390, 9.710
691.872, 7.495
692.354, 1.390
692.836, 8.192
693.318, 10.534
693.800, 9.461
694.282, 5.165
694.765, 2.181
695.247, 5.303
695.729, 2.362
696.211, 2.416
696.693, 11.707
697.175, 20.016
697.657, 22.330
698.139, 19.608
698.622, 17.050
699.104, 17.843
699.586, 18.230
700.068, 12.643
700.550, 4.891
701.032, 3.921
701.514, 10.405
701.996, 16.324
702.478, 15.630
702.961, 10.281
703.443, 7.085
703.925, 7.513
704.407, 4.180
704.889, 10.122
705.371, 19.823
705.853, 9.090
706.335, 12.045
706.817, 21.820
707.300, 13.102
707.782, 3.798
708.264, 0.416
708.746, 2.205
709.228, 3.350
709.710, 4.230
710.192, 5.440
710.674, 7.311
711.156, 7.948
711.639, 2.413
712.121, 7.570
712.603, 7.019
713.085, 6.793
713.567, 16.848
714.049, 14.271
714.531, 4.501
715.013, 3.857
715.495, 12.248
715.978, 13.559
716.460, 0.497
716.942, 11.782
717.424, 11.693
717.906, 6.455
718.388, 3.804
718.870, 4.940
719.352, 5.526
719.835, 0.771
720.317, 4.846
720.799, 4.759
721.281, 0.374
721.763, 4.353
722.245, 8.256
722.727, 9.169
723.209, 3.901
723.692, 6.076
724.174, 8.242
724.656, 1.614
725.138, 8.806
725.620, 9.610
726.102, 8.043
726.584, 7.613
727.066, 7.462
727.549, 4.198
728.031, 7.846
728.513, 15.248
728.995, 6.683
729.477, 4.780
729.959, 3.907
730.441, 6.695
730.923, 14.065
731.405, 11.186
731.888, 3.395
732.370, 2.644
732.852, 6.876
733.334, 8.870
733.816, 8.564
734.298, 5.866
734.780, 0.465
735.262, 7.277
735.744, 7.523
736.227, 3.045
736.709, 6.509
737.191, 6.599
737.673, 15.385
738.155, 8.726
738.637, 3.260
739.119, 7.988
739.601, 3.843
740.083, 0.469
740.566, 5.040
741.048, 10.435
741.530, 8.568
742.012, 2.634
742.494, 0.410
742.976, 1.086
743.458, 4.832
743.940, 8.762
744.422, 12.930
744.905, 19.756
745.387, 30.458
745.869, 34.151
746.351, 27.125
746.833, 15.701
747.315, 1.598
747.797, 13.239
748.279, 19.423
748.762, 10.637
749.244, 3.939
749.726, 2.777
750.208, 3.080
750.690, 2.539
751.172, 1.286
751.654, 0.158
752.136, 1.711
752.619, 2.288
753.101, 0.598
753.583, 2.483
754.065, 6.002
754.547, 9.614
755.029, 12.473
755.511, 14.270
755.993, 14.029
756.476, 10.016
756.958, 2.356
757.440, 3.705
757.922, 8.314
758.404, 10.768
758.886, 10.235
759.368, 8.106
759.850, 5.887
760.332, 3.460
760.815, 0.484
761.297, 11.713
761.779, 17.100
762.261, 6.880
762.743, 5.978
763.225, 9.004
763.707, 3.924
764.189, 0.446
764.671, 3.482
765.154, 8.433
765.636, 12.456
766.118, 14.180
766.600, 6.868
767.082, 8.120
767.564, 13.961
768.046, 1.357
768.528, 17.118
769.010, 18.364
769.493, 0.161
769.975, 9.208
770.457, 4.553
770.939, 0.041
771.421, 1.371
771.903, 4.210
772.385, 1.409
772.867, 6.872
773.349, 9.253
773.832, 0.911
774.314, 10.484
774.796, 16.310
775.278, 18.476
775.760, 14.454
776.242, 6.580
776.724, 3.122
777.206, 9.778
777.689, 18.718
778.171, 21.346
778.653, 19.863
779.135, 19.461
779.617, 20.429
780.099, 19.815
780.581, 15.864
781.063, 10.866
781.545, 9.240
782.028, 11.406
782.510, 12.045
782.992, 10.089
783.474, 9.566
783.956, 13.615
784.438, 18.327
784.920, 16.899
785.403, 8.719
785.885, 7.472
786.367, 23.306
786.849, 33.829
787.331, 28.304
787.813, 18.147
788.295, 11.972
788.777, 10.961
789.259, 14.699
789.742, 25.604
790.224, 34.957
790.706, 33.325
791.188, 26.014
791.670, 20.640
792.152, 18.219
792.634, 19.743
793.116, 25.892
793.598, 31.067
794.081, 23.000
794.563, 2.808
795.045, 1.020
795.527, 14.992
796.009, 27.199
796.491, 27.078
796.973, 19.186
797.455, 7.303
797.938, 8.883
798.420, 18.568
798.902, 17.796
799.384, 15.625
799.866, 11.984
800.348, 8.239
800.830, 7.061
801.312, 6.601
801.794, 25.974
802.277, 1.602
802.759, 12.158
803.241, 15.836
803.723, 20.661
804.205, 5.304
804.687, 10.695
805.169, 16.900
805.651, 5.825
806.133, 24.750
806.616, 2.487
807.098, 5.180
807.580, 9.645
808.062, 6.005
808.544, 1.930
809.026, 0.440
809.508, 2.373
809.990, 5.401
810.472, 8.870
810.955, 8.333
811.437, 1.788
811.919, 2.926
812.401, 5.414
812.883, 5.213
813.365, 0.184
813.847, 7.340
814.330, 11.626
814.812, 10.325
815.294, 12.522
815.776, 25.246
816.258, 35.580
816.740, 34.999
817.222, 29.260
817.704, 25.335
818.186, 24.728
818.669, 26.606
819.151, 32.914
819.633, 38.985
820.115, 40.761
820.597, 38.909
821.079, 32.495
821.561, 23.068
822.043, 18.581
822.526, 24.798
823.008, 33.957
823.490, 29.368
823.972, 13.233
824.454, 7.803
824.936, 15.232
825.418, 23.348
825.900, 26.683
826.382, 28.249
826.865, 33.413
827.347, 42.950
827.829, 44.022
828.311, 28.312
828.793, 19.303
829.275, 28.248
829.757, 39.983
830.239, 43.051
830.721, 38.967
831.204, 33.989
831.686, 25.589
832.168, 22.178
832.650, 31.497
833.132, 41.049
833.614, 41.521
834.096, 35.931
834.578, 29.808
835.060, 24.743
835.543, 22.463
836.025, 26.701
836.507, 32.261
836.989, 33.381
837.471, 31.085
837.953, 27.417
838.435, 23.110
838.917, 19.008
839.400, 15.809
839.882, 13.239
840.364, 10.628
840.846, 8.072
841.328, 6.425
841.810, 5.755
842.292, 6.338
842.774, 8.384
843.256, 11.685
843.739, 16.416
844.221, 23.151
844.703, 25.369
845.185, 20.332
845.667, 16.476
846.149, 17.317
846.631, 18.965
847.114, 16.855
847.596, 11.906
848.078, 9.740
848.560, 13.335
849.042, 15.742
849.524, 13.536
850.006, 12.286
850.488, 18.409
850.970, 26.968
851.453, 28.214
851.935, 19.560
852.417, 10.928
852.899, 7.305
853.381, 6.149
853.863, 6.404
854.345, 7.206
854.827, 7.347
855.309, 6.655
855.792, 5.390
856.274, 3.306
856.756, 2.068
857.238, 5.633
857.720, 11.763
858.202, 13.952
858.684, 11.682
859.166, 5.815
859.648, 3.638
860.131, 12.606
860.613, 15.478
861.095, 12.646
861.577, 9.105
862.059, 4.517
862.541, 0.031
863.023, 4.529
863.505, 7.864
863.987, 8.575
864.470, 7.102
864.952, 4.194
865.434, 2.099
865.916, 5.714
866.398, 4.933
866.880, 3.413
867.362, 1.811
867.844, 0.822
868.327, 2.599
868.809, 7.602
869.291, 7.812
869.773, 5.878
870.255, 14.658
870.737, 6.765
871.219, 4.814
871.701, 9.439
872.183, 6.898
872.666, 0.620
873.148, 14.874
873.630, 24.022
874.112, 14.508
874.594, 0.788
875.076, 1.511
875.558, 4.071
876.041, 8.385
876.523, 8.902
877.005, 8.587
877.487, 10.462
877.969, 12.116
878.451, 7.343
878.933, 0.812
879.415, 1.638
879.897, 5.508
880.380, 12.048
880.862, 13.081
881.344, 11.542
881.826, 12.938
882.308, 16.857
882.790, 15.144
883.272, 7.024
883.754, 3.760
884.237, 9.906
884.719, 17.580
885.201, 19.469
885.683, 16.226
886.165, 10.655
886.647, 0.266
887.129, 4.760
887.611, 1.737
888.093, 3.445
888.576, 10.418
889.058, 16.172
889.540, 14.258
890.022, 2.212
890.504, 2.994
890.986, 5.326
891.468, 11.315
891.950, 9.742
892.432, 6.275
892.915, 4.447
893.397, 4.509
893.879, 7.009
894.361, 14.396
894.843, 17.516
895.325, 6.372
895.807, 2.729
896.289, 4.628
896.771, 19.000
897.254, 26.823
897.736, 25.824
898.218, 21.023
898.700, 12.726
899.182, 5.011
899.664, 0.365
900.146, 1.163
900.628, 2.257
901.110, 8.839
901.593, 13.955
902.075, 15.702
902.557, 13.805
903.039, 4.534
903.521, 6.728
904.003, 9.529
904.485, 5.556
904.968, 0.412
905.450, 6.867
905.932, 11.677
906.414, 13.242
906.896, 12.435
907.378, 10.096
907.860, 6.615
908.342, 5.114
908.824, 5.756
909.307, 7.750
909.789, 11.075
910.271, 13.390
910.753, 11.526
911.235, 6.580
911.717, 5.750
912.199, 10.000
912.681, 12.520
913.164, 12.093
913.646, 11.198
914.128, 11.363
914.610, 11.595
915.092, 9.361
915.574, 3.631
916.056, 3.408
916.538, 13.647
917.020, 19.804
917.503, 15.254
917.985, 9.466
918.467, 10.813
918.949, 17.127
919.431, 20.097
919.913, 18.624
920.395, 16.307
920.877, 11.682
921.359, 8.109
921.842, 6.812
922.324, 7.221
922.806, 9.894
923.288, 14.211
923.770, 15.494
924.252, 9.613
924.734, 5.028
925.216, 3.430
925.698, 4.623
926.181, 11.733
926.663, 20.220
927.145, 22.076
927.627, 15.684
928.109, 8.803
928.591, 2.311
929.073, 10.838
929.555, 18.074
930.037, 19.741
930.520, 0.848
931.002, 7.340
931.484, 3.994
931.966, 0.176
932.448, 12.413
932.930, 4.943
933.412, 7.039
933.894, 7.329
934.377, 12.995
934.859, 7.045
935.341, 4.676
935.823, 4.130
936.305, 11.039
936.787, 20.761
937.269, 27.653
937.751, 30.413
938.234, 23.304
938.716, 9.640
939.198, 0.710
939.680, 0.054
940.162, 4.886
940.644, 14.959
941.126, 24.913
941.608, 20.109
942.091, 5.543
942.573, 2.740
943.055, 12.594
943.537, 20.251
944.019, 18.907
944.501, 14.261
944.983, 13.525
945.465, 15.557
945.947, 15.653
946.430, 13.791
946.912, 8.806
947.394, 0.245
947.876, 5.717
948.358, 5.126
948.840, 0.525
949.322, 4.189
949.804, 8.965
950.286, 9.527
950.769, 5.139
951.251, 2.973
951.733, 5.188
952.215, 8.624
952.697, 11.014
953.179, 12.387
953.661, 12.611
954.143, 11.377
954.625, 10.728
955.108, 10.593
955.590, 11.376
956.072, 13.380
956.554, 16.186
957.036, 20.238
957.518, 24.665
958.000, 23.797
958.482, 14.577
958.964, 8.835
959.447, 8.267
959.929, 8.946
960.411, 9.296
960.893, 10.034
961.375, 12.201
961.857, 15.771
962.339, 19.090
962.821, 23.205
963.304, 24.985
963.786, 21.731
964.268, 19.203
964.750, 22.629
965.232, 27.286
965.714, 24.559
966.196, 13.035
966.678, 6.134
967.161, 7.799
967.643, 8.389
968.125, 5.281
968.607, 2.188
969.089, 2.879
969.571, 4.693
970.053, 0.589
970.535, 12.738
971.018, 16.321
971.500, 1.162
971.982, 15.408
972.464, 19.371
972.946, 18.663
973.428, 16.301
973.910, 12.927
974.392, 9.453
974.874, 5.681
975.357, 2.875
975.839, 0.691
976.321, 0.805
976.803, 9.629
977.285, 19.810
977.767, 17.604
978.249, 6.208
978.731, 0.859
979.213, 0.102
979.696, 1.923
980.178, 3.397
980.660, 4.706
981.142, 4.894
981.624, 5.707
982.106, 10.528
982.588, 18.097
983.070, 21.804
983.552, 18.607
984.035, 14.600
984.517, 8.875
984.999, 5.992
985.481, 11.638
985.963, 19.928
986.445, 23.310
986.927, 21.513
987.409, 18.953
987.891, 16.405
988.374, 14.390
988.856, 14.009
989.338, 13.307
989.820, 11.087
990.302, 7.588
990.784, 2.343
991.266, 4.124
991.748, 8.162
992.231, 5.411
992.713, 4.629
993.195, 13.474
993.677, 21.911
994.159, 22.285
994.641, 16.789
995.123, 8.704
995.605, 0.946
996.088, 9.470
996.570, 17.560
997.052, 21.844
997.534, 16.570
998.016, 10.752
998.498, 12.924
998.980, 19.729
999.462, 25.422
999.945, 28.581
1000.427, 27.531
1000.909, 16.515
1001.391, 7.553
1001.873, 7.319
1002.355, 11.116
1002.837, 17.220
1003.319, 23.269
1003.801, 24.982
1004.284, 21.610
1004.766, 19.822
1005.248, 25.432
1005.730, 29.650
1006.212, 28.111
1006.694, 23.201
1007.176, 13.334
1007.658, 3.049
1008.140, 1.963
1008.623, 12.130
1009.105, 20.168
1009.587, 19.109
1010.069, 16.040
1010.551, 13.318
1011.033, 11.226
1011.515, 11.127
1011.997, 11.462
1012.479, 7.661
1012.962, 1.396
1013.444, 5.131
1013.926, 6.376
1014.408, 17.114
1014.890, 19.152
1015.372, 17.339
1015.854, 14.636
1016.336, 12.005
1016.819, 10.228
1017.301, 9.461
1017.783, 10.031
1018.265, 14.566
1018.747, 17.237
1019.229, 15.252
1019.711, 10.538
1020.193, 1.520
1020.675, 7.901
1021.158, 9.642
1021.640, 1.842
1022.122, 5.569
1022.604, 10.742
1023.086, 13.414
1023.568, 11.694
1024.050, 9.112
1024.532, 9.093
1025.015, 10.041
1025.497, 8.234
1025.979, 2.922
1026.461, 1.909
1026.943, 6.223
1027.425, 8.611
1027.907, 7.442
1028.389, 5.352
1028.871, 5.426
1029.354, 5.313
1029.836, 0.630
1030.318, 13.739
1030.800, 21.795
1031.282, 21.118
1031.764, 17.404
1032.246, 7.745
1032.728, 0.200
1033.210, 1.548
1033.693, 2.103
1034.175, 9.578
1034.657, 21.537
1035.139, 26.702
1035.621, 18.264
1036.103, 11.444
1036.585, 9.773
1037.067, 9.081
1037.550, 5.161
1038.032, 1.686
1038.514, 6.199
1038.996, 19.650
1039.478, 26.864
1039.960, 21.650
1040.442, 20.273
1040.924, 28.367
1041.406, 34.966
1041.889, 33.834
1042.371, 28.921
1042.853, 25.369
1043.335, 23.179
1043.817, 21.811
1044.299, 21.986
1044.781, 21.131
1045.263, 16.891
1045.745, 16.077
1046.228, 25.115
1046.710, 34.447
1047.192, 30.670
1047.674, 15.563
1048.156, 7.518
1048.638, 7.817
1049.120, 11.002
1049.602, 17.598
1050.085, 24.859
1050.567, 32.621
1051.049, 38.147
1051.531, 37.918
1052.013, 33.171
1052.495, 29.589
1052.977, 27.183
1053.459, 26.383
1053.942, 27.670
1054.424, 26.800
1054.906, 21.535
1055.388, 17.445
1055.870, 19.830
1056.352, 27.307
1056.834, 37.776
1057.316, 50.936
1057.798, 54.474
1058.281, 47.928
1058.763, 41.081
1059.245, 36.730
1059.727, 36.166
1060.209, 41.233
1060.691, 47.321
1061.173, 43.132
1061.655, 31.618
1062.137, 26.958
1062.620, 28.974
1063.102, 35.633
1063.584, 45.677
1064.066, 51.581
1064.548, 48.205
1065.030, 41.750
1065.512, 40.589
1065.994, 43.082
1066.477, 46.377
1066.959, 49.874
1067.441, 51.279
1067.923, 51.044
1068.405, 54.284
1068.887, 63.730
1069.369, 70.993
1069.851, 66.286
1070.333, 55.726
1070.816, 43.198
1071.298, 33.038
1071.780, 36.098
1072.262, 48.257
1072.744, 53.343
1073.226, 45.794
1073.708, 38.824
1074.190, 44.884
1074.672, 51.415
1075.155, 46.697
1075.637, 38.615
1076.119, 35.940
1076.601, 36.955
1077.083, 35.412
1077.565, 30.377
1078.047, 29.422
1078.530, 41.385
1079.012, 50.264
1079.494, 47.004
1079.976, 40.714
1080.458, 35.587
1080.940, 32.987
1081.422, 36.443
1081.904, 44.888
1082.386, 47.183
1082.869, 38.004
1083.351, 28.146
1083.833, 14.728
1084.315, 6.467
1084.797, 10.811
1085.279, 19.326
1085.761, 25.015
1086.243, 27.430
1086.725, 24.290
1087.208, 9.189
1087.690, 6.207
1088.172, 26.499
1088.654, 37.277
1089.136, 25.044
1089.618, 9.197
1090.100, 3.782
1090.582, 5.448
1091.065, 6.519
1091.547, 6.855
1092.029, 8.072
1092.511, 9.826
1092.993, 14.800
1093.475, 24.186
1093.957, 33.709
1094.439, 41.767
1094.922, 44.945
1095.404, 36.497
1095.886, 19.639
1096.368, 11.591
1096.850, 11.658
1097.332, 12.568
1097.814, 13.417
1098.296, 14.687
1098.778, 16.552
1099.260, 17.732
1099.743, 16.613
1100.225, 14.850
1100.707, 16.158
1101.189, 18.963
1101.671, 20.600
1102.153, 20.105
1102.635, 12.633
1103.117, 0.826
1103.600, 6.666
1104.082, 5.584
1104.564, 19.648
1105.046, 18.701
1105.528, 12.650
1106.010, 11.217
1106.492, 13.022
1106.974, 15.703
1107.457, 18.652
1107.939, 21.623
1108.421, 24.570
1108.903, 27.235
1109.385, 30.140
1109.867, 31.905
1110.349, 28.524
1110.831, 26.671
1111.313, 36.116
1111.796, 50.055
1112.278, 53.481
1112.760, 44.035
1113.242, 36.762
1113.724, 33.077
1114.206, 32.508
1114.688, 38.550
1115.170, 43.331
1115.652, 41.925
1116.135, 39.122
1116.617, 41.043
1117.099, 46.622
1117.581, 48.724
1118.063, 46.177
1118.545, 44.421
1119.027, 43.532
1119.509, 43.888
1119.992, 46.043
1120.474, 47.430
1120.956, 45.649
1121.438, 42.913
1121.920, 45.631
1122.402, 52.527
1122.884, 47.589
1123.366, 32.842
1123.849, 29.366
1124.331, 39.804
1124.813, 50.142
1125.295, 53.428
1125.777, 53.624
1126.259, 53.998
1126.741, 55.284
1127.223, 62.696
1127.705, 69.900
1128.188, 59.540
1128.670, 38.876
1129.152, 32.493
1129.634, 44.594
1130.116, 54.305
1130.598, 48.124
1131.080, 40.631
1131.562, 43.172
1132.044, 47.365
1132.527, 46.922
1133.009, 43.695
1133.491, 39.347
1133.973, 34.930
1134.455, 32.569
1134.937, 32.720
1135.419, 34.890
1135.901, 42.517
1136.384, 47.257
1136.866, 43.835
1137.348, 39.955
1137.830, 39.975
1138.312, 42.961
1138.794, 48.619
1139.276, 56.796
1139.758, 58.161
1140.240, 50.428
1140.723, 43.681
1141.205, 38.481
1141.687, 35.673
1142.169, 35.988
1142.651, 36.420
1143.133, 33.526
1143.615, 30.373
1144.097, 37.161
1144.579, 50.979
1145.062, 51.525
1145.544, 41.223
1146.026, 39.204
1146.508, 47.496
1146.990, 50.918
1147.472, 41.587
1147.954, 29.833
1148.436, 25.187
1148.919, 25.445
1149.401, 30.820
1149.883, 37.244
1150.365, 37.189
1150.847, 33.509
1151.329, 35.220
1151.811, 43.231
1152.293, 47.035
1152.776, 40.748
1153.258, 32.265
1153.740, 20.769
1154.222, 12.691
1154.704, 14.029
1155.186, 18.610
1155.668, 19.666
1156.150, 18.352
1156.632, 20.141
1157.115, 26.577
1157.597, 29.241
1158.079, 25.435
1158.561, 24.404
1159.043, 29.306
1159.525, 32.803
1160.007, 30.889
1160.489, 26.196
1160.971, 21.780
1161.454, 17.743
1161.936, 14.063
1162.418, 10.945
1162.900, 12.066
1163.382, 17.014
1163.864, 19.993
1164.346, 19.541
1164.828, 18.024
1165.311, 16.876
1165.793, 16.093
1166.275, 17.170
1166.757, 17.350
1167.239, 8.234
1167.721, 1.592
1168.203, 5.402
1168.685, 23.291
1169.167, 32.719
1169.650, 28.949
1170.132, 22.099
1170.614, 12.436
1171.096, 6.673
1171.578, 8.688
1172.060, 13.454
1172.542, 20.925
1173.024, 27.561
1173.506, 28.893
1173.989, 26.197
1174.471, 24.241
1174.953, 23.344
1175.435, 21.605
1175.917, 18.812
1176.399, 15.407
1176.881, 10.552
1177.363, 10.127
1177.846, 18.583
1178.328, 26.112
1178.810, 18.673
1179.292, 3.510
1179.774, 5.485
1180.256, 19.006
1180.738, 19.453
1181.220, 8.848
1181.703, 1.357
1182.185, 0.742
1182.667, 6.240
1183.149, 18.294
1183.631, 29.032
1184.113, 31.966
1184.595, 30.402
1185.077, 23.178
1185.559, 16.446
1186.042, 18.455
1186.524, 25.381
1187.006, 29.214
1187.488, 28.745
1187.970, 25.813
1188.452, 17.207
1188.934, 11.946
1189.416, 12.757
1189.898, 13.752
1190.381, 11.932
1190.863, 12.149
1191.345, 20.225
1191.827, 30.227
1192.309, 28.322
1192.791, 15.373
1193.273, 7.255
1193.755, 3.904
1194.238, 3.614
1194.720, 6.028
1195.202, 11.481
1195.684, 19.640
1196.166, 21.534
1196.648, 7.302
1197.130, 8.487
1197.612, 6.271
1198.094, 4.197
1198.577, 14.268
1199.059, 20.916
1199.541, 17.438
1200.023, 7.584
1200.505, 4.160
1200.987, 10.867
1201.469, 16.701
1201.951, 21.509
1202.433, 20.174
1202.916, 4.812
1203.398, 8.853
1203.880, 13.261
1204.362, 12.893
1204.844, 11.790
1205.326, 9.682
1205.808, 4.323
1206.290, 5.337
1206.773, 1.788
1207.255, 15.702
1207.737, 23.894
1208.219, 18.954
1208.701, 8.997
1209.183, 2.230
1209.665, 11.908
1210.147, 17.774
1210.630, 19.503
1211.112, 14.146
1211.594, 6.303
1212.076, 2.451
1212.558, 1.409
1213.040, 0.685
1213.522, 2.847
1214.004, 1.747
1214.486, 16.708
1214.969, 25.403
1215.451, 16.852
1215.933, 10.154
1216.415, 10.357
1216.897, 13.665
1217.379, 21.560
1217.861, 27.342
1218.343, 22.288
1218.825, 10.124
1219.308, 4.098
1219.790, 4.386
1220.272, 9.187
1220.754, 18.296
1221.236, 22.446
1221.718, 20.390
1222.200, 19.245
1222.682, 22.159
1223.165, 23.655
1223.647, 16.723
1224.129, 9.602
1224.611, 15.863
1225.093, 24.190
1225.575, 17.930
1226.057, 6.357
1226.539, 6.336
1227.021, 15.420
1227.504, 17.847
1227.986, 8.899
1228.468, 2.821
1228.950, 3.758
1229.432, 5.134
1229.914, 7.758
1230.396, 7.455
1230.878, 0.827
1231.360, 5.711
1231.843, 5.663
1232.325, 1.461
1232.807, 1.284
1233.289, 2.437
1233.771, 0.114
1234.253, 4.886
1234.735, 9.540
1235.217, 12.893
1235.700, 12.020
1236.182, 6.436
1236.664, 2.394
1237.146, 5.217
1237.628, 8.303
1238.110, 5.322
1238.592, 2.676
1239.074, 6.514
1239.557, 11.462
1240.039, 12.408
1240.521, 9.913
1241.003, 4.419
1241.485, 4.243
1241.967, 12.162
1242.449, 19.773
1242.931, 25.421
1243.413, 29.308
1243.896, 28.699
1244.378, 22.318
1244.860, 15.326
1245.342, 11.275
1245.824, 9.619
1246.306, 9.709
1246.788, 11.524
1247.270, 16.469
1247.752, 22.207
1248.235, 24.716
1248.717, 24.523
1249.199, 24.193
1249.681, 23.766
1250.163, 19.831
1250.645, 8.769
1251.127, 2.169
1251.609, 6.839
1252.092, 10.785
1252.574, 10.001
1253.056, 8.631
1253.538, 8.153
1254.020, 8.672
1254.502, 10.936
1254.984, 14.488
1255.466, 15.439
1255.948, 14.522
1256.431, 18.970
1256.913, 26.848
1257.395, 26.006
1257.877, 16.134
1258.359, 7.950
1258.841, 5.785
1259.323, 6.286
1259.805, 9.243
1260.287, 10.454
1260.770, 4.302
1261.252, 1.229
1261.734, 0.874
1262.216, 5.096
1262.698, 6.075
1263.180, 4.030
1263.662, 0.501
1264.144, 7.595
1264.627, 10.158
1265.109, 7.751
1265.591, 3.560
1266.073, 2.172
1266.555, 10.692
1267.037, 21.938
1267.519, 24.326
1268.001, 9.778
1268.484, 5.373
1268.966, 0.847
1269.448, 12.251
1269.930, 6.289
1270.412, 3.842
1270.894, 1.160
1271.376, 8.524
1271.858, 11.336
1272.340, 7.090
1272.823, 0.000
##END=



