##NAMES=Stephanite
##RRUFFID=R050143
##IDEAL CHEMISTRY=Ag^1+^_5_Sb^3+^S^2-^_4_
##LOCALITY=Proano mine, Fresnillo, Zacatecas, Mexico
##OWNER=RRUFF
##SOURCE=Dave Bunk Minerals
##DESCRIPTION=Group of black pseudohexagonal crystals
##STATUS=The identification of this mineral has been confirmed by X-ray diffraction and chemical analysis
##URL=rruff.info/R050143
##MEASURED CHEMISTRY=Ag_5.00_Sb_1.00_S_4.00_
162.508, 0.000
162.990, 5.986
163.472, 12.417
163.954, 19.442
164.436, 26.249
164.918, 32.370
165.400, 37.781
165.883, 42.862
166.365, 47.845
166.847, 52.598
167.329, 57.943
167.811, 64.314
168.293, 70.809
168.775, 77.146
169.257, 83.175
169.739, 88.509
170.221, 92.664
170.704, 95.327
171.186, 98.468
171.668, 99.930
172.150, 103.407
172.632, 113.570
173.114, 129.684
173.596, 144.663
174.078, 151.291
174.561, 147.627
175.043, 145.980
175.525, 147.943
176.007, 150.639
176.489, 152.154
176.971, 152.322
177.453, 151.885
177.935, 151.174
178.417, 150.027
178.900, 151.236
179.382, 158.328
179.864, 165.247
180.346, 166.433
180.828, 161.798
181.310, 156.686
181.792, 156.265
182.274, 161.315
182.757, 163.298
183.239, 160.149
183.721, 155.331
184.203, 150.692
184.685, 146.565
185.167, 144.131
185.649, 145.061
186.131, 149.598
186.613, 152.128
187.096, 151.535
187.578, 149.655
188.060, 148.326
188.542, 147.556
189.024, 145.347
189.506, 139.498
189.988, 130.085
190.470, 122.116
190.952, 116.733
191.435, 112.166
191.917, 106.353
192.399, 99.369
192.881, 94.103
193.363, 93.207
193.845, 96.523
194.327, 99.432
194.809, 101.994
195.292, 104.021
195.774, 105.139
196.256, 105.399
196.738, 105.532
197.220, 105.939
197.702, 106.675
198.184, 107.756
198.666, 109.740
199.148, 111.647
199.631, 112.834
200.113, 113.302
200.595, 113.216
201.077, 112.721
201.559, 111.654
202.041, 109.815
202.523, 106.728
203.005, 103.262
203.488, 98.229
203.970, 92.302
204.452, 90.997
204.934, 100.005
205.416, 115.504
205.898, 123.504
206.380, 118.862
206.862, 112.220
207.344, 110.278
207.827, 112.233
208.309, 113.564
208.791, 111.286
209.273, 107.241
209.755, 106.703
210.237, 111.890
210.719, 117.374
211.201, 119.850
211.684, 120.009
212.166, 121.037
212.648, 125.538
213.130, 130.556
213.612, 128.886
214.094, 115.925
214.576, 105.524
215.058, 106.149
215.540, 114.850
216.023, 122.925
216.505, 127.341
216.987, 129.095
217.469, 130.017
217.951, 129.604
218.433, 129.815
218.915, 132.642
219.397, 136.641
219.880, 138.117
220.362, 135.141
220.844, 130.559
221.326, 129.322
221.808, 131.886
222.290, 134.445
222.772, 135.985
223.254, 136.713
223.736, 136.951
224.219, 136.761
224.701, 136.169
225.183, 135.120
225.665, 133.595
226.147, 131.925
226.629, 129.598
227.111, 127.361
227.593, 125.890
228.076, 125.213
228.558, 126.219
229.040, 130.974
229.522, 139.945
230.004, 146.510
230.486, 148.984
230.968, 149.065
231.450, 148.120
231.932, 146.353
232.415, 144.319
232.897, 142.321
233.379, 140.370
233.861, 139.511
234.343, 140.459
234.825, 142.053
235.307, 143.966
235.789, 145.989
236.271, 146.671
236.754, 144.231
237.236, 138.784
237.718, 136.228
238.200, 138.387
238.682, 141.661
239.164, 144.627
239.646, 147.022
240.128, 148.115
240.611, 146.993
241.093, 144.156
241.575, 143.714
242.057, 148.511
242.539, 152.401
243.021, 153.172
243.503, 151.164
243.985, 146.666
244.467, 139.114
244.950, 130.120
245.432, 126.506
245.914, 133.292
246.396, 138.500
246.878, 138.573
247.360, 135.679
247.842, 133.153
248.324, 132.385
248.807, 132.699
249.289, 132.578
249.771, 132.499
250.253, 131.232
250.735, 126.732
251.217, 121.835
251.699, 119.772
252.181, 121.450
252.663, 125.374
253.146, 129.395
253.628, 134.946
254.110, 137.253
254.592, 133.403
255.074, 128.407
255.556, 126.659
256.038, 128.543
256.520, 130.826
257.003, 129.624
257.485, 123.697
257.967, 119.085
258.449, 115.191
258.931, 112.856
259.413, 114.120
259.895, 117.814
260.377, 119.948
260.859, 116.499
261.342, 106.946
261.824, 102.241
262.306, 106.072
262.788, 110.708
263.270, 114.984
263.752, 118.284
264.234, 119.848
264.716, 119.088
265.198, 116.314
265.681, 113.443
266.163, 108.773
266.645, 106.179
267.127, 109.319
267.609, 113.836
268.091, 113.541
268.573, 105.420
269.056, 93.439
269.538, 87.830
270.020, 92.957
270.502, 96.492
270.984, 95.966
271.466, 93.963
271.948, 92.250
272.430, 91.395
272.912, 91.588
273.395, 93.834
273.877, 99.504
274.359, 102.172
274.841, 98.403
275.323, 93.536
275.805, 89.954
276.287, 88.005
276.769, 87.225
277.251, 87.270
277.734, 88.140
278.216, 89.836
278.698, 93.123
279.180, 96.401
279.662, 98.731
280.144, 100.354
280.626, 102.021
281.108, 104.354
281.591, 107.087
282.073, 109.576
282.555, 112.484
283.037, 113.618
283.519, 109.687
284.001, 103.751
284.483, 100.795
284.965, 103.946
285.447, 109.455
285.930, 111.824
286.412, 110.664
286.894, 109.341
287.376, 108.666
287.858, 109.031
288.340, 110.877
288.822, 114.269
289.304, 119.138
289.786, 125.702
290.269, 133.839
290.751, 142.578
291.233, 151.404
291.715, 161.074
292.197, 173.754
292.679, 190.454
293.161, 203.489
293.643, 206.469
294.125, 204.396
294.608, 206.232
295.090, 213.818
295.572, 224.850
296.054, 238.442
296.536, 254.705
297.018, 266.761
297.500, 268.604
297.983, 269.203
298.465, 278.534
298.947, 296.250
299.429, 312.172
299.911, 317.887
300.393, 313.913
300.875, 313.009
301.357, 319.766
301.839, 324.624
302.322, 321.572
302.804, 313.435
303.286, 307.033
303.768, 306.046
304.250, 308.659
304.732, 308.728
305.214, 301.692
305.696, 297.821
306.178, 300.408
306.661, 305.487
307.143, 308.448
307.625, 307.984
308.107, 306.581
308.589, 307.894
309.071, 311.962
309.553, 319.094
310.035, 330.290
310.517, 343.108
311.000, 355.676
311.482, 368.259
311.964, 382.484
312.446, 398.796
312.928, 416.948
313.410, 444.719
313.892, 493.034
314.374, 540.375
314.857, 579.468
315.339, 613.497
315.821, 648.007
316.303, 685.563
316.785, 726.489
317.267, 772.498
317.749, 826.443
318.231, 879.132
318.714, 927.848
319.196, 974.442
319.678, 1021.702
320.160, 1070.838
320.642, 1116.173
321.124, 1154.650
321.606, 1186.337
322.088, 1200.325
322.570, 1186.499
323.052, 1160.487
323.535, 1134.344
324.017, 1108.412
324.499, 1082.187
324.981, 1056.341
325.463, 1030.076
325.945, 1000.231
326.427, 965.270
326.909, 931.328
327.392, 903.564
327.874, 880.709
328.356, 859.149
328.838, 844.973
329.320, 826.958
329.802, 792.883
330.284, 744.441
330.766, 695.035
331.249, 651.270
331.731, 611.799
332.213, 572.917
332.695, 533.926
333.177, 496.003
333.659, 457.401
334.141, 420.556
334.623, 388.678
335.105, 362.904
335.588, 342.539
336.070, 327.202
336.552, 319.954
337.034, 310.140
337.516, 293.333
337.998, 277.518
338.480, 269.972
338.962, 269.458
339.444, 268.571
339.927, 261.118
340.409, 247.214
340.891, 232.675
341.373, 219.463
341.855, 203.389
342.337, 180.089
342.819, 154.272
343.302, 132.519
343.784, 118.246
344.266, 108.488
344.748, 96.433
345.230, 79.447
345.712, 66.640
346.194, 62.423
346.676, 60.270
347.158, 55.471
347.641, 47.532
348.123, 39.686
348.605, 35.349
349.087, 34.244
349.569, 32.216
350.051, 28.261
350.533, 24.494
351.015, 22.832
351.497, 22.377
351.980, 20.761
352.462, 15.711
352.944, 9.787
353.426, 7.001
353.908, 7.499
354.390, 8.116
354.872, 7.473
355.354, 5.876
355.836, 3.873
356.319, 0.444
356.801, 1.291
357.283, 2.610
357.765, 9.036
358.247, 10.790
358.729, 5.462
359.211, 2.019
359.693, 5.056
360.176, 2.209
360.658, 0.524
361.140, 1.283
361.622, 2.409
362.104, 1.673
362.586, 0.370
363.068, 0.724
363.550, 3.197
364.033, 10.683
364.515, 14.984
364.997, 13.296
365.479, 11.587
365.961, 11.019
366.443, 10.816
366.925, 9.530
367.407, 6.726
367.889, 4.095
368.371, 5.117
368.854, 12.006
369.336, 15.598
369.818, 12.046
370.300, 7.876
370.782, 6.383
371.264, 7.347
371.746, 8.661
372.228, 8.821
372.711, 8.141
373.193, 7.832
373.675, 8.030
374.157, 8.228
374.639, 7.825
375.121, 7.373
375.603, 7.730
376.085, 9.434
376.568, 11.279
377.050, 12.407
377.532, 12.806
378.014, 12.176
378.496, 9.816
378.978, 7.374
379.460, 8.177
379.942, 12.667
380.424, 14.510
380.907, 8.872
381.389, 1.970
381.871, 0.635
382.353, 5.019
382.835, 10.679
383.317, 14.578
383.799, 16.728
384.281, 17.324
384.763, 14.952
385.246, 12.938
385.728, 12.108
386.210, 12.118
386.692, 12.657
387.174, 13.575
387.656, 14.452
388.138, 14.384
388.620, 12.406
389.103, 11.916
389.585, 14.900
390.067, 17.562
390.549, 17.600
391.031, 15.472
391.513, 13.249
391.995, 12.427
392.477, 12.650
392.960, 12.633
393.442, 12.596
393.924, 11.771
394.406, 8.791
394.888, 5.294
395.370, 3.125
395.852, 2.794
396.334, 3.217
396.816, 3.360
397.298, 3.464
397.781, 4.730
398.263, 7.758
398.745, 11.168
399.227, 13.503
399.709, 14.819
400.191, 15.346
400.673, 14.376
401.155, 13.216
401.638, 13.232
402.120, 14.140
402.602, 14.514
403.084, 13.537
403.566, 11.396
404.048, 8.733
404.530, 3.930
405.012, 0.719
405.495, 0.170
405.977, 0.357
406.459, 2.076
406.941, 4.609
407.423, 6.642
407.905, 6.217
408.387, 2.866
408.869, 2.093
409.351, 6.371
409.834, 10.587
410.316, 14.175
410.798, 16.324
411.280, 15.373
411.762, 9.728
412.244, 2.886
412.726, 0.868
413.208, 4.077
413.690, 6.295
414.173, 4.978
414.655, 2.888
415.137, 3.454
415.619, 6.743
416.101, 8.946
416.583, 7.876
417.065, 5.146
417.547, 2.625
418.030, 0.484
418.512, 0.998
418.994, 1.553
419.476, 1.260
419.958, 0.666
420.440, 0.920
420.922, 1.912
421.404, 1.725
421.887, 0.840
422.369, 0.316
422.851, 1.601
423.333, 2.804
423.815, 3.557
424.297, 3.598
424.779, 4.356
425.261, 8.149
425.743, 10.343
426.225, 7.839
426.708, 2.602
427.190, 1.399
427.672, 1.847
428.154, 0.526
428.636, 1.552
429.118, 5.731
429.600, 7.494
430.082, 3.290
430.565, 2.299
431.047, 5.093
431.529, 4.967
432.011, 4.219
432.493, 3.361
432.975, 2.799
433.457, 3.787
433.939, 6.406
434.422, 7.850
434.904, 5.930
435.386, 1.345
435.868, 2.201
436.350, 5.045
436.832, 6.587
437.314, 6.083
437.796, 4.497
438.278, 2.973
438.761, 1.773
439.243, 0.388
439.725, 1.982
440.207, 5.725
440.689, 7.617
441.171, 5.970
441.653, 4.152
442.135, 3.152
442.617, 2.660
443.100, 2.056
443.582, 1.062
444.064, 0.138
444.546, 1.407
445.028, 2.791
445.510, 3.573
445.992, 3.219
446.474, 2.612
446.957, 2.768
447.439, 3.570
447.921, 3.836
448.403, 2.585
448.885, 0.897
449.367, 0.248
449.849, 0.508
450.331, 0.082
450.814, 2.231
451.296, 5.341
451.778, 5.988
452.260, 2.338
452.742, 0.585
453.224, 2.897
453.706, 3.934
454.188, 2.099
454.670, 2.062
455.152, 5.576
455.635, 5.701
456.117, 2.763
456.599, 0.363
457.081, 2.256
457.563, 2.999
458.045, 0.417
458.527, 4.801
459.009, 6.600
459.492, 4.895
459.974, 2.461
460.456, 2.145
460.938, 3.397
461.420, 3.379
461.902, 1.352
462.384, 0.745
462.866, 1.837
463.349, 1.794
463.831, 0.176
464.313, 5.676
464.795, 10.437
465.277, 10.749
465.759, 8.119
466.241, 5.027
466.723, 2.245
467.205, 0.245
467.688, 0.102
468.170, 1.972
468.652, 2.741
469.134, 1.596
469.616, 0.004
470.098, 2.264
470.580, 4.445
471.062, 5.188
471.544, 3.710
472.027, 1.128
472.509, 0.673
472.991, 1.635
473.473, 2.039
473.955, 1.243
474.437, 0.666
474.919, 1.807
475.401, 4.342
475.884, 6.254
476.366, 6.986
476.848, 6.615
477.330, 4.496
477.812, 1.033
478.294, 1.532
478.776, 2.140
479.258, 1.412
479.741, 0.526
480.223, 0.741
480.705, 1.707
481.187, 2.448
481.669, 2.815
482.151, 2.254
482.633, 1.168
483.115, 0.794
483.597, 2.069
484.079, 4.429
484.562, 6.033
485.044, 6.717
485.526, 7.047
486.008, 7.214
486.490, 7.007
486.972, 5.666
487.454, 3.366
487.936, 2.278
488.419, 4.792
488.901, 8.830
489.383, 10.992
489.865, 11.157
490.347, 10.300
490.829, 8.648
491.311, 6.548
491.793, 4.933
492.276, 3.634
492.758, 3.034
493.240, 3.622
493.722, 4.640
494.204, 5.675
494.686, 6.545
495.168, 6.940
495.650, 6.541
496.132, 5.527
496.615, 4.788
497.097, 3.908
497.579, 4.139
498.061, 7.223
498.543, 10.476
499.025, 11.825
499.507, 11.015
499.989, 8.905
500.471, 4.360
500.954, 0.656
501.436, 1.140
501.918, 3.354
502.400, 7.160
502.882, 6.658
503.364, 3.515
503.846, 2.960
504.328, 6.551
504.811, 9.306
505.293, 9.671
505.775, 9.229
506.257, 9.902
506.739, 11.484
507.221, 11.732
507.703, 8.465
508.185, 2.741
508.668, 0.786
509.150, 5.015
509.632, 8.391
510.114, 8.933
510.596, 8.405
511.078, 7.941
511.560, 7.725
512.042, 7.769
512.524, 8.587
513.006, 9.492
513.489, 8.739
513.971, 6.247
514.453, 4.737
514.935, 6.362
515.417, 9.301
515.899, 8.302
516.381, 0.227
516.864, 4.904
517.346, 4.819
517.828, 2.078
518.310, 3.223
518.792, 9.565
519.274, 12.721
519.756, 9.113
520.238, 1.240
520.720, 1.944
521.203, 1.324
521.685, 4.727
522.167, 7.557
522.649, 9.599
523.131, 10.518
523.613, 10.384
524.095, 9.806
524.577, 9.238
525.059, 8.304
525.542, 5.898
526.024, 2.351
526.506, 0.200
526.988, 0.877
527.470, 2.851
527.952, 3.176
528.434, 0.875
528.916, 0.916
529.398, 1.867
529.881, 2.596
530.363, 3.835
530.845, 5.132
531.327, 5.253
531.809, 3.410
532.291, 0.818
532.773, 0.132
533.255, 0.739
533.737, 1.872
534.220, 3.431
534.702, 4.693
535.184, 5.443
535.666, 5.543
536.148, 4.359
536.630, 0.328
537.112, 3.770
537.594, 5.997
538.077, 6.723
538.559, 6.499
539.041, 5.489
539.523, 4.501
540.005, 4.588
540.487, 5.881
540.969, 7.394
541.451, 11.167
541.933, 12.855
542.416, 9.404
542.898, 3.931
543.380, 0.500
543.862, 0.339
544.344, 1.541
544.826, 2.291
545.308, 2.738
545.791, 3.646
546.273, 5.164
546.755, 6.790
547.237, 8.448
547.719, 9.900
548.201, 10.361
548.683, 8.833
549.165, 7.953
549.647, 9.111
550.130, 10.840
550.612, 11.696
551.094, 11.512
551.576, 10.861
552.058, 10.239
552.540, 9.460
553.022, 7.265
553.504, 2.220
553.987, 0.822
554.469, 0.856
554.951, 3.833
555.433, 6.218
555.915, 7.803
556.397, 8.366
556.879, 7.125
557.361, 5.266
557.843, 3.927
558.326, 3.162
558.808, 3.149
559.290, 4.027
559.772, 5.396
560.254, 6.658
560.736, 8.071
561.218, 8.506
561.700, 8.057
562.182, 6.683
562.665, 3.427
563.147, 0.499
563.629, 3.377
564.111, 4.553
564.593, 4.250
565.075, 1.877
565.557, 2.136
566.039, 4.322
566.521, 3.973
567.004, 2.893
567.486, 2.095
567.968, 1.575
568.450, 1.233
568.932, 1.467
569.414, 1.300
569.896, 0.061
570.378, 1.643
570.860, 2.916
571.343, 3.498
571.825, 2.216
572.307, 2.342
572.789, 8.886
573.271, 11.566
573.753, 9.002
574.235, 6.595
574.718, 5.313
575.200, 4.817
575.682, 5.005
576.164, 5.803
576.646, 6.699
577.128, 8.130
577.610, 9.069
578.092, 7.999
578.574, 5.622
579.057, 4.101
579.539, 4.205
580.021, 5.035
580.503, 5.266
580.985, 4.605
581.467, 5.153
581.949, 8.703
582.431, 11.486
582.914, 12.066
583.396, 11.534
583.878, 11.090
584.360, 11.035
584.842, 11.488
585.324, 13.140
585.806, 15.268
586.288, 16.083
586.770, 15.451
587.253, 14.041
587.735, 11.949
588.217, 9.621
588.699, 8.270
589.181, 8.640
589.663, 8.711
590.145, 8.033
590.627, 7.416
591.109, 7.618
591.592, 8.281
592.074, 8.331
592.556, 7.064
593.038, 5.665
593.520, 6.626
594.002, 9.784
594.484, 10.846
594.966, 8.088
595.448, 5.898
595.931, 8.980
596.413, 15.952
596.895, 18.987
597.377, 14.735
597.859, 10.611
598.341, 8.850
598.823, 8.253
599.305, 7.581
599.788, 6.699
600.270, 6.179
600.752, 6.504
601.234, 7.488
601.716, 8.645
602.198, 10.192
602.680, 10.992
603.162, 10.842
603.644, 9.744
604.127, 6.938
604.609, 2.816
605.091, 0.564
605.573, 3.000
606.055, 5.435
606.537, 3.649
607.019, 0.124
607.502, 0.179
607.984, 4.936
608.466, 9.876
608.948, 9.563
609.430, 4.281
609.912, 1.621
610.394, 2.763
610.876, 4.319
611.358, 5.623
611.841, 6.636
612.323, 7.299
612.805, 7.606
613.287, 7.649
613.769, 7.339
614.251, 6.882
614.733, 5.774
615.215, 4.646
615.697, 6.092
616.180, 11.255
616.662, 16.679
617.144, 16.817
617.626, 10.381
618.108, 6.997
618.590, 9.734
619.072, 11.584
619.554, 9.236
620.036, 5.429
620.519, 3.558
621.001, 4.349
621.483, 5.438
621.965, 5.242
622.447, 4.607
622.929, 5.037
623.411, 6.340
623.893, 6.728
624.375, 5.184
624.858, 3.012
625.340, 2.778
625.822, 5.134
626.304, 7.420
626.786, 10.765
627.268, 12.801
627.750, 11.600
628.232, 8.971
628.715, 7.766
629.197, 8.896
629.679, 10.239
630.161, 10.122
630.643, 9.170
631.125, 8.152
631.607, 7.257
632.089, 7.710
632.571, 10.460
633.054, 14.278
633.536, 16.175
634.018, 14.944
634.500, 14.450
634.982, 15.785
635.464, 16.689
635.946, 15.831
636.429, 13.968
636.911, 12.505
637.393, 11.947
637.875, 11.558
638.357, 10.597
638.839, 9.406
639.321, 8.875
639.803, 9.031
640.285, 8.676
640.768, 6.865
641.250, 4.497
641.732, 4.172
642.214, 7.705
642.696, 9.742
643.178, 8.594
643.660, 7.769
644.142, 10.011
644.625, 13.493
645.107, 14.262
645.589, 10.388
646.071, 6.418
646.553, 7.159
647.035, 10.323
647.517, 11.265
647.999, 9.577
648.481, 6.463
648.964, 2.230
649.446, 1.940
649.928, 2.576
650.410, 2.820
650.892, 6.622
651.374, 8.179
651.856, 8.767
652.338, 8.838
652.820, 8.358
653.303, 6.903
653.785, 3.937
654.267, 1.634
654.749, 2.471
655.231, 4.807
655.713, 5.570
656.195, 4.606
656.677, 3.411
657.159, 2.698
657.642, 2.884
658.124, 5.426
658.606, 12.592
659.088, 16.509
659.570, 14.389
660.052, 11.698
660.534, 10.855
661.016, 10.913
661.498, 9.942
661.981, 7.138
662.463, 4.710
662.945, 3.702
663.427, 4.086
663.909, 6.731
664.391, 11.059
664.873, 14.103
665.356, 14.176
665.838, 12.703
666.320, 12.813
666.802, 15.302
667.284, 16.151
667.766, 13.514
668.248, 11.692
668.730, 14.552
669.212, 18.678
669.695, 18.120
670.177, 10.667
670.659, 5.010
671.141, 6.206
671.623, 10.112
672.105, 13.477
672.587, 15.743
673.069, 16.225
673.552, 14.597
674.034, 12.173
674.516, 11.085
674.998, 11.444
675.480, 11.520
675.962, 10.901
676.444, 10.939
676.926, 13.083
677.408, 15.801
677.891, 16.506
678.373, 14.652
678.855, 13.649
679.337, 15.360
679.819, 17.191
680.301, 17.415
680.783, 16.441
681.265, 15.153
681.747, 13.862
682.230, 12.444
682.712, 10.499
683.194, 8.221
683.676, 7.172
684.158, 7.621
684.640, 7.442
685.122, 5.201
685.604, 2.799
686.086, 3.184
686.569, 6.939
687.051, 9.764
687.533, 11.483
688.015, 12.389
688.497, 12.775
688.979, 12.306
689.461, 10.000
689.943, 6.063
690.425, 2.869
690.908, 2.810
691.390, 4.248
691.872, 3.174
692.354, 0.152
692.836, 0.750
693.318, 7.169
693.800, 13.915
694.282, 15.037
694.765, 10.660
695.247, 6.767
695.729, 2.044
696.211, 0.226
696.693, 2.279
697.175, 5.804
697.657, 7.813
698.139, 8.224
698.622, 7.880
699.104, 7.055
699.586, 5.721
700.068, 3.460
700.550, 0.780
701.032, 1.628
701.514, 3.515
701.996, 4.057
702.479, 2.546
702.961, 0.510
703.443, 4.150
703.925, 9.920
704.407, 10.269
704.889, 1.253
705.371, 10.944
705.853, 7.512
706.335, 3.377
706.818, 9.708
707.300, 8.335
707.782, 6.413
708.264, 6.095
708.746, 6.546
709.228, 7.225
709.710, 8.006
710.192, 8.746
710.674, 9.374
711.157, 10.173
711.639, 12.117
712.121, 14.829
712.603, 14.892
713.085, 11.692
713.567, 9.080
714.049, 9.106
714.531, 10.412
715.013, 10.582
715.496, 9.155
715.978, 8.237
716.460, 7.949
716.942, 7.987
717.424, 8.932
717.906, 9.769
718.388, 8.442
718.870, 5.011
719.352, 3.402
719.835, 8.414
720.317, 15.225
720.799, 17.525
721.281, 16.112
721.763, 13.009
722.245, 8.831
722.727, 5.923
723.209, 7.037
723.692, 11.444
724.174, 13.186
724.656, 11.030
725.138, 9.281
725.620, 9.230
726.102, 9.274
726.584, 7.424
727.066, 4.580
727.549, 4.160
728.031, 9.625
728.513, 13.151
728.995, 9.530
729.477, 4.005
729.959, 1.859
730.441, 2.826
730.923, 4.034
731.406, 3.985
731.888, 3.406
732.370, 3.177
732.852, 3.327
733.334, 4.195
733.816, 5.887
734.298, 7.627
734.780, 9.285
735.262, 10.276
735.745, 9.146
736.227, 4.446
736.709, 2.278
737.191, 5.111
737.673, 7.466
738.155, 7.779
738.637, 6.604
739.119, 3.955
739.601, 0.027
740.084, 2.582
740.566, 2.130
741.048, 0.134
741.530, 2.850
742.012, 6.066
742.494, 7.654
742.976, 7.341
743.458, 7.165
743.940, 9.452
744.423, 12.753
744.905, 10.234
745.387, 0.468
745.869, 4.262
746.351, 0.409
746.833, 6.365
747.315, 7.093
747.797, 3.759
748.279, 2.235
748.762, 3.888
749.244, 5.073
749.726, 4.280
750.208, 3.949
750.690, 6.613
751.172, 10.716
751.654, 12.595
752.136, 10.768
752.619, 9.201
753.101, 12.416
753.583, 17.397
754.065, 18.943
754.547, 17.376
755.029, 15.519
755.511, 14.477
755.993, 13.658
756.476, 12.129
756.958, 9.932
757.440, 9.515
757.922, 12.347
758.404, 12.547
758.886, 5.942
759.368, 1.323
759.850, 1.911
760.333, 3.199
760.815, 6.446
761.297, 5.474
761.779, 4.868
762.261, 6.578
762.743, 8.654
763.225, 9.941
763.707, 10.019
764.189, 7.972
764.672, 2.851
765.154, 2.597
765.636, 5.725
766.118, 6.910
766.600, 6.955
767.082, 5.930
767.564, 3.330
768.046, 1.283
768.528, 6.196
769.011, 8.413
769.493, 7.758
769.975, 6.015
770.457, 2.093
770.939, 0.407
771.421, 0.923
771.903, 3.349
772.385, 3.259
772.867, 0.720
773.350, 0.480
773.832, 1.084
774.314, 2.801
774.796, 4.202
775.278, 5.040
775.760, 4.951
776.242, 4.072
776.724, 2.774
777.206, 0.789
777.689, 0.275
778.171, 2.752
778.653, 7.644
779.135, 8.778
779.617, 6.055
780.099, 3.950
780.581, 4.940
781.063, 7.233
781.546, 7.240
782.028, 4.536
782.510, 4.260
782.992, 7.474
783.474, 10.312
783.956, 11.461
784.438, 11.357
784.920, 10.079
785.403, 7.508
785.885, 6.264
786.367, 7.054
786.849, 8.416
787.331, 10.630
787.813, 12.720
788.295, 13.841
788.777, 14.013
789.260, 13.762
789.742, 13.332
790.224, 12.520
790.706, 10.423
791.188, 8.162
791.670, 8.070
792.152, 9.829
792.634, 10.967
793.116, 10.243
793.599, 8.740
794.081, 8.081
794.563, 8.235
795.045, 8.551
795.527, 9.195
796.009, 8.866
796.491, 6.606
796.973, 4.111
797.455, 3.691
797.938, 5.428
798.420, 5.775
798.902, 2.750
799.384, 1.005
799.866, 1.214
800.348, 2.740
800.830, 6.360
801.312, 10.889
801.794, 13.019
802.277, 11.246
802.759, 8.504
803.241, 5.389
803.723, 2.746
804.205, 1.718
804.687, 1.886
805.169, 2.068
805.651, 1.836
806.133, 1.864
806.616, 3.434
807.098, 5.702
807.580, 5.809
808.062, 4.042
808.544, 3.473
809.026, 5.034
809.508, 7.340
809.990, 9.291
810.473, 10.687
810.955, 9.966
811.437, 5.940
811.919, 3.345
812.401, 3.219
812.883, 3.947
813.365, 5.435
813.847, 6.843
814.330, 5.900
814.812, 0.921
815.294, 1.400
815.776, 2.188
816.258, 6.170
816.740, 7.390
817.222, 7.543
817.704, 9.791
818.187, 14.243
818.669, 16.666
819.151, 12.665
819.633, 7.533
820.115, 6.574
820.597, 8.061
821.079, 8.682
821.561, 8.154
822.043, 8.493
822.526, 11.111
823.008, 14.377
823.490, 15.332
823.972, 14.168
824.454, 12.356
824.936, 9.914
825.418, 7.943
825.900, 7.043
826.382, 6.548
826.865, 5.408
827.347, 3.521
827.829, 2.627
828.311, 2.585
828.793, 3.855
829.275, 8.956
829.757, 13.179
830.239, 11.789
830.721, 6.328
831.204, 2.929
831.686, 2.758
832.168, 3.937
832.650, 7.586
833.132, 10.931
833.614, 12.015
834.096, 11.351
834.578, 9.744
835.060, 7.443
835.543, 5.711
836.025, 5.826
836.507, 6.630
836.989, 6.785
837.471, 6.585
837.953, 6.792
838.435, 7.526
838.917, 8.461
839.400, 9.516
839.882, 10.116
840.364, 7.996
840.846, 3.731
841.328, 3.741
841.810, 9.016
842.292, 13.229
842.774, 12.845
843.256, 10.107
843.739, 8.887
844.221, 9.404
844.703, 9.292
845.185, 7.919
845.667, 7.294
846.149, 8.729
846.631, 10.314
847.114, 10.210
847.596, 8.649
848.078, 6.939
848.560, 4.518
849.042, 2.844
849.524, 1.040
850.006, 1.094
850.488, 6.259
850.970, 13.467
851.453, 17.236
851.935, 16.189
852.417, 13.921
852.899, 11.379
853.381, 9.316
853.863, 8.698
854.345, 8.862
854.827, 8.851
855.309, 8.446
855.792, 7.766
856.274, 6.916
856.756, 5.769
857.238, 3.321
857.720, 0.521
858.202, 0.617
858.684, 3.615
859.166, 6.863
859.648, 9.207
860.131, 10.715
860.613, 11.452
861.095, 11.438
861.577, 10.784
862.059, 9.338
862.541, 8.187
863.023, 7.557
863.505, 7.453
863.987, 8.162
864.470, 9.312
864.952, 9.060
865.434, 5.544
865.916, 4.553
866.398, 9.438
866.880, 12.846
867.362, 9.592
867.844, 4.283
868.327, 3.549
868.809, 8.011
869.291, 10.732
869.773, 9.007
870.255, 7.362
870.737, 7.938
871.219, 8.851
871.701, 7.448
872.183, 4.815
872.666, 5.055
873.148, 10.631
873.630, 15.352
874.112, 13.976
874.594, 10.720
875.076, 9.803
875.558, 10.607
876.041, 11.347
876.523, 11.484
877.005, 11.340
877.487, 11.174
877.969, 10.880
878.451, 10.323
878.933, 9.489
879.415, 8.006
879.897, 5.997
880.380, 4.951
880.862, 5.771
881.344, 7.331
881.826, 7.659
882.308, 6.860
882.790, 6.626
883.272, 6.985
883.754, 7.494
884.237, 7.953
884.719, 8.852
885.201, 10.845
885.683, 13.608
886.165, 15.502
886.647, 16.718
887.129, 16.440
887.611, 14.509
888.093, 11.145
888.576, 4.568
889.058, 2.217
889.540, 3.670
890.022, 1.480
890.504, 4.629
890.986, 3.612
891.468, 3.544
891.950, 7.524
892.432, 11.101
892.915, 9.590
893.397, 4.801
893.879, 2.706
894.361, 5.568
894.843, 8.034
895.325, 8.040
895.807, 7.415
896.289, 7.225
896.771, 7.238
897.254, 7.195
897.736, 6.947
898.218, 5.911
898.700, 2.310
899.182, 0.113
899.664, 3.598
900.146, 9.142
900.628, 10.760
901.110, 8.708
901.593, 5.729
902.075, 2.959
902.557, 0.633
903.039, 2.187
903.521, 3.774
904.003, 0.973
904.485, 9.725
904.968, 14.575
905.450, 14.106
905.932, 12.117
906.414, 11.126
906.896, 10.941
907.378, 11.441
907.860, 12.495
908.342, 13.156
908.824, 13.374
909.307, 12.910
909.789, 11.620
910.271, 9.992
910.753, 8.442
911.235, 7.109
911.717, 6.927
912.199, 8.063
912.681, 9.399
913.164, 10.850
913.646, 12.542
914.128, 15.393
914.610, 17.277
915.092, 13.335
915.574, 1.840
916.056, 2.584
916.538, 4.643
917.020, 10.124
917.503, 9.256
917.985, 7.649
918.467, 10.604
918.949, 16.471
919.431, 18.954
919.913, 16.755
920.395, 14.064
920.877, 10.225
921.359, 6.892
921.842, 4.016
922.324, 2.410
922.806, 3.977
923.288, 8.202
923.770, 10.224
924.252, 7.148
924.734, 4.343
925.216, 2.629
925.698, 2.370
926.181, 5.465
926.663, 9.556
927.145, 10.183
927.627, 6.452
928.109, 3.622
928.591, 4.589
929.073, 6.684
929.555, 8.840
930.038, 10.779
930.520, 12.933
931.002, 14.571
931.484, 13.281
931.966, 7.798
932.448, 2.578
932.930, 0.734
933.412, 1.222
933.894, 4.502
934.377, 8.576
934.859, 9.379
935.341, 6.734
935.823, 3.859
936.305, 2.617
936.787, 2.440
937.269, 2.835
937.752, 3.729
938.234, 5.325
938.716, 7.293
939.198, 8.421
939.680, 8.402
940.162, 8.305
940.644, 9.164
941.126, 10.418
941.608, 11.507
942.091, 12.020
942.573, 9.210
943.055, 3.376
943.537, 0.159
944.019, 1.064
944.501, 4.718
944.983, 8.736
945.465, 12.320
945.947, 10.963
946.430, 5.013
946.912, 1.866
947.394, 2.890
947.876, 5.130
948.358, 6.904
948.840, 8.082
949.322, 8.248
949.804, 7.417
950.286, 6.973
950.769, 6.933
951.251, 7.131
951.733, 7.530
952.215, 8.161
952.697, 9.111
953.179, 10.206
953.661, 11.058
954.143, 11.803
954.625, 11.442
955.108, 9.627
955.590, 7.678
956.072, 5.487
956.554, 4.526
957.036, 6.897
957.518, 11.689
958.000, 13.410
958.482, 10.953
958.965, 8.416
959.447, 5.126
959.929, 3.567
960.411, 6.036
960.893, 9.335
961.375, 9.156
961.857, 5.630
962.339, 3.147
962.821, 1.527
963.304, 1.325
963.786, 3.080
964.268, 5.664
964.750, 9.567
965.232, 13.361
965.714, 14.602
966.196, 12.999
966.679, 6.442
967.161, 14.227
967.643, 18.531
968.125, 19.540
968.607, 7.388
969.089, 12.231
969.571, 10.263
970.053, 8.016
970.535, 15.251
971.018, 5.013
971.500, 12.098
971.982, 12.267
972.464, 15.602
972.946, 10.668
973.428, 9.505
973.910, 5.971
974.392, 2.716
974.875, 0.542
975.357, 1.507
975.839, 2.067
976.321, 5.698
976.803, 8.097
977.285, 9.463
977.767, 9.375
978.249, 8.445
978.731, 8.824
979.214, 11.825
979.696, 13.557
980.178, 11.210
980.660, 9.518
981.142, 12.711
981.624, 16.421
982.106, 14.801
982.588, 8.801
983.070, 5.262
983.553, 7.271
984.035, 8.740
984.517, 6.422
984.999, 4.456
985.481, 6.040
985.963, 8.998
986.445, 10.234
986.927, 9.754
987.409, 10.115
987.892, 13.363
988.374, 15.263
988.856, 14.252
989.338, 11.301
989.820, 5.456
990.302, 1.024
990.784, 5.681
991.266, 7.921
991.748, 6.822
992.231, 1.562
992.713, 7.767
993.195, 5.593
993.677, 1.781
994.159, 0.966
994.641, 2.414
995.123, 4.904
995.606, 7.969
996.088, 9.823
996.570, 9.323
997.052, 8.001
997.534, 6.199
998.016, 4.199
998.498, 1.875
998.980, 0.332
999.462, 1.856
999.945, 2.542
1000.427, 1.974
1000.909, 0.808
1001.391, 3.886
1001.873, 7.111
1002.355, 9.490
1002.837, 9.632
1003.319, 8.450
1003.801, 7.864
1004.284, 8.254
1004.766, 8.053
1005.248, 5.359
1005.730, 3.445
1006.212, 4.509
1006.694, 6.626
1007.176, 8.857
1007.658, 10.499
1008.141, 10.133
1008.623, 7.470
1009.105, 5.664
1009.587, 7.841
1010.069, 8.975
1010.551, 4.861
1011.033, 0.051
1011.515, 1.600
1011.997, 0.591
1012.480, 1.963
1012.962, 5.856
1013.444, 7.892
1013.926, 4.178
1014.408, 1.576
1014.890, 5.294
1015.372, 9.842
1015.854, 10.068
1016.336, 7.348
1016.819, 4.670
1017.301, 2.590
1017.783, 3.300
1018.265, 11.878
1018.747, 17.918
1019.229, 15.030
1019.711, 9.334
1020.193, 4.970
1020.676, 2.177
1021.158, 0.335
1021.640, 0.695
1022.122, 0.221
1022.604, 3.741
1023.086, 6.915
1023.568, 7.608
1024.050, 6.900
1024.532, 4.322
1025.015, 1.462
1025.497, 1.725
1025.979, 5.902
1026.461, 8.457
1026.943, 5.879
1027.425, 4.403
1027.907, 8.138
1028.389, 11.598
1028.871, 9.570
1029.354, 4.894
1029.836, 3.442
1030.318, 6.183
1030.800, 7.606
1031.282, 4.633
1031.764, 3.253
1032.246, 7.067
1032.728, 10.683
1033.211, 10.106
1033.693, 7.208
1034.175, 5.180
1034.657, 4.258
1035.139, 3.834
1035.621, 4.427
1036.103, 4.687
1036.585, 2.883
1037.068, 2.329
1037.550, 6.736
1038.032, 12.661
1038.514, 14.155
1038.996, 10.760
1039.478, 9.086
1039.960, 10.437
1040.442, 11.418
1040.924, 11.782
1041.406, 11.637
1041.889, 10.288
1042.371, 9.074
1042.853, 10.722
1043.335, 15.145
1043.817, 14.868
1044.299, 6.395
1044.781, 0.949
1045.263, 0.428
1045.746, 1.065
1046.228, 1.461
1046.710, 1.796
1047.192, 2.084
1047.674, 2.468
1048.156, 4.810
1048.638, 10.597
1049.120, 12.808
1049.603, 9.567
1050.085, 6.987
1050.567, 7.711
1051.049, 9.621
1051.531, 10.522
1052.013, 10.486
1052.495, 9.543
1052.977, 7.360
1053.459, 7.239
1053.942, 9.839
1054.424, 11.417
1054.906, 10.496
1055.388, 8.944
1055.870, 8.283
1056.352, 8.794
1056.834, 12.442
1057.316, 19.019
1057.798, 19.648
1058.281, 14.001
1058.763, 11.133
1059.245, 13.781
1059.727, 16.847
1060.209, 16.245
1060.691, 13.779
1061.173, 12.973
1061.655, 13.477
1062.138, 13.804
1062.620, 13.851
1063.102, 13.273
1063.584, 11.998
1064.066, 9.943
1064.548, 6.846
1065.030, 4.700
1065.512, 7.957
1065.995, 13.516
1066.477, 13.568
1066.959, 9.851
1067.441, 7.414
1067.923, 7.016
1068.405, 6.911
1068.887, 6.212
1069.369, 6.343
1069.851, 9.853
1070.333, 14.118
1070.816, 16.072
1071.298, 16.020
1071.780, 13.624
1072.262, 9.843
1072.744, 7.191
1073.226, 6.550
1073.708, 6.726
1074.190, 6.466
1074.673, 7.167
1075.155, 12.178
1075.637, 16.916
1076.119, 14.666
1076.601, 8.660
1077.083, 6.631
1077.565, 10.029
1078.047, 12.724
1078.530, 12.278
1079.012, 10.249
1079.494, 5.452
1079.976, 1.202
1080.458, 0.038
1080.940, 0.845
1081.422, 2.117
1081.904, 3.628
1082.386, 5.218
1082.869, 7.240
1083.351, 8.660
1083.833, 9.362
1084.315, 9.392
1084.797, 8.408
1085.279, 7.044
1085.761, 5.370
1086.243, 3.808
1086.726, 4.334
1087.208, 8.023
1087.690, 11.123
1088.172, 15.083
1088.654, 15.367
1089.136, 7.666
1089.618, 1.386
1090.100, 5.015
1090.583, 13.605
1091.065, 15.155
1091.547, 8.857
1092.029, 5.460
1092.511, 5.392
1092.993, 6.151
1093.475, 7.492
1093.957, 8.569
1094.439, 8.991
1094.922, 8.441
1095.404, 6.011
1095.886, 2.412
1096.368, 1.807
1096.850, 3.876
1097.332, 4.301
1097.814, 2.851
1098.296, 3.970
1098.778, 9.372
1099.261, 13.855
1099.743, 11.980
1100.225, 6.914
1100.707, 4.267
1101.189, 3.075
1101.671, 0.170
1102.153, 4.029
1102.635, 2.234
1103.118, 5.658
1103.600, 12.098
1104.082, 12.227
1104.564, 10.170
1105.046, 8.760
1105.528, 8.215
1106.010, 9.829
1106.492, 11.853
1106.974, 11.320
1107.457, 8.577
1107.939, 6.135
1108.421, 4.802
1108.903, 4.108
1109.385, 3.779
1109.867, 4.098
1110.349, 6.262
1110.831, 8.181
1111.313, 7.343
1111.796, 5.139
1112.278, 4.767
1112.760, 6.731
1113.242, 7.713
1113.724, 5.942
1114.206, 5.190
1114.688, 7.644
1115.170, 9.117
1115.653, 7.102
1116.135, 3.897
1116.617, 2.088
1117.099, 1.463
1117.581, 0.374
1118.063, 2.032
1118.545, 1.160
1119.027, 4.665
1119.510, 7.149
1119.992, 2.821
1120.474, 0.957
1120.956, 2.012
1121.438, 8.114
1121.920, 9.082
1122.402, 5.648
1122.884, 5.646
1123.366, 8.621
1123.849, 9.993
1124.331, 9.096
1124.813, 8.267
1125.295, 8.663
1125.777, 8.955
1126.259, 7.319
1126.741, 5.089
1127.223, 4.407
1127.705, 4.898
1128.188, 6.546
1128.670, 8.577
1129.152, 8.930
1129.634, 7.323
1130.116, 5.911
1130.598, 5.972
1131.080, 6.435
1131.562, 6.762
1132.045, 6.952
1132.527, 6.488
1133.009, 6.255
1133.491, 7.463
1133.973, 9.923
1134.455, 13.054
1134.937, 17.666
1135.419, 18.966
1135.901, 12.105
1136.384, 7.232
1136.866, 9.358
1137.348, 11.990
1137.830, 10.734
1138.312, 7.609
1138.794, 5.684
1139.276, 4.934
1139.758, 5.258
1140.240, 7.549
1140.723, 7.262
1141.205, 3.111
1141.687, 0.410
1142.169, 1.407
1142.651, 3.131
1143.133, 2.811
1143.615, 1.200
1144.097, 0.427
1144.580, 1.754
1145.062, 0.003
1145.544, 4.126
1146.026, 5.764
1146.508, 4.376
1146.990, 3.754
1147.472, 5.868
1147.954, 8.133
1148.437, 7.945
1148.919, 6.278
1149.401, 3.119
1149.883, 0.158
1150.365, 0.328
1150.847, 2.456
1151.329, 3.681
1151.811, 3.348
1152.293, 2.124
1152.776, 0.884
1153.258, 2.376
1153.740, 0.932
1154.222, 3.823
1154.704, 2.139
1155.186, 0.421
1155.668, 0.367
1156.150, 3.672
1156.632, 6.063
1157.115, 7.307
1157.597, 8.233
1158.079, 8.408
1158.561, 9.498
1159.043, 12.839
1159.525, 14.242
1160.007, 10.993
1160.489, 6.246
1160.972, 4.132
1161.454, 3.876
1161.936, 1.656
1162.418, 2.173
1162.900, 3.095
1163.382, 1.142
1163.864, 0.958
1164.346, 2.378
1164.828, 2.696
1165.311, 1.402
1165.793, 0.934
1166.275, 5.621
1166.757, 11.696
1167.239, 13.719
1167.721, 13.652
1168.203, 15.442
1168.685, 17.962
1169.167, 16.308
1169.650, 9.574
1170.132, 5.006
1170.614, 7.251
1171.096, 10.033
1171.578, 12.073
1172.060, 12.882
1172.542, 11.466
1173.024, 9.239
1173.507, 7.766
1173.989, 6.840
1174.471, 5.429
1174.953, 3.131
1175.435, 2.300
1175.917, 3.472
1176.399, 4.111
1176.881, 3.470
1177.364, 3.811
1177.846, 6.768
1178.328, 8.974
1178.810, 5.425
1179.292, 0.963
1179.774, 0.536
1180.256, 5.018
1180.738, 9.031
1181.220, 10.963
1181.703, 10.430
1182.185, 7.754
1182.667, 5.042
1183.149, 3.420
1183.631, 2.358
1184.113, 1.158
1184.595, 0.599
1185.077, 2.800
1185.559, 4.785
1186.042, 2.031
1186.524, 2.952
1187.006, 4.655
1187.488, 2.378
1187.970, 0.099
1188.452, 3.395
1188.934, 4.923
1189.416, 3.731
1189.899, 1.788
1190.381, 1.434
1190.863, 3.295
1191.345, 1.215
1191.827, 2.501
1192.309, 3.535
1192.791, 1.745
1193.273, 2.005
1193.755, 3.944
1194.238, 5.577
1194.720, 5.923
1195.202, 4.157
1195.684, 0.000
##END=



