##NAMES=Stibarsen
##RRUFFID=R060115
##IDEAL CHEMISTRY=SbAs
##LOCALITY=Moctezuma, Sonora, Mexico
##OWNER=RRUFF
##SOURCE=University of Arizona Mineral Museum
##DESCRIPTION=Tin-white reniform mass with many small inclusions of antimony
##STATUS=The identification of this mineral is confirmed by single-crystal X-ray diffraction and chemical analysis.
##URL=rruff.info/R060115
##MEASURED CHEMISTRY=gray phase: Sb_1.00_As_1.00_; light inclusions: Sb_2.00_(Sb_1.12_As_0.88_)_Σ=2_
126.7378, 0.0000000E+00
127.2199, 4.9509998E-02
127.7020, 4.8699998E-03
128.1841, 5.0074998E-02
128.6662, 0.1368700
129.1483, 0.2890720
129.6305, 0.4431200
130.1126, 0.5582350
130.5947, 0.6277800
131.0768, 0.6537170
131.5589, 0.6311500
132.0410, 0.5318200
132.5232, 0.4722580
133.0053, 0.5393490
133.4874, 0.6399190
133.9695, 0.7298300
134.4516, 0.8164670
134.9337, 0.8856210
135.4159, 0.9627460
135.8980, 1.004872
136.3801, 1.102188
136.8622, 1.364392
137.3443, 1.684371
137.8264, 1.993772
138.3086, 2.215274
138.7907, 2.354736
139.2728, 2.415953
139.7549, 2.252010
140.2370, 2.092604
140.7191, 1.977490
141.2013, 1.933464
141.6834, 1.899128
142.1655, 1.678776
142.6476, 1.388404
143.1297, 1.288234
143.6118, 1.501524
144.0939, 1.673327
144.5761, 1.515161
145.0582, 1.120013
145.5403, 0.7726280
146.0224, 0.6744600
146.5045, 0.7570360
146.9866, 0.7727650
147.4688, 0.6536780
147.9509, 0.5143430
148.4330, 0.4919520
148.9151, 0.6048790
149.3972, 0.6976740
149.8793, 0.6152730
150.3615, 0.3546120
150.8436, 0.4744250
151.3257, 0.5247530
151.8078, 0.5093300
152.2899, 0.2313270
152.7720, 0.2923270
153.2542, 0.2174270
153.7363, 0.1369410
154.2184, 0.2455910
154.7005, 7.1760002E-03
155.1826, 4.3860000E-02
155.6647, 4.3368999E-02
156.1469, 3.6766998E-02
156.6290, 5.1000002E-03
157.1111, 2.4080001E-02
157.5932, 5.4010000E-02
158.0753, 7.0322998E-02
158.5574, 2.1741999E-02
159.0396, 0.1357320
159.5217, 3.1629000E-02
160.0038, 0.1295560
160.4859, 0.1617810
160.9680, 6.8530001E-02
161.4501, 4.0201999E-02
161.9323, 1.3082000E-02
162.4144, 1.9574000E-02
162.8965, 0.1369120
163.3786, 5.5153999E-02
163.8607, 9.8346002E-02
164.3428, 0.1051000
164.8250, 9.6256003E-02
165.3071, 0.1023160
165.7892, 0.1373840
166.2713, 0.1802970
166.7534, 0.1680640
167.2355, 8.2009003E-02
167.7177, 9.9482000E-02
168.1998, 0.3479440
168.6819, 0.6690050
169.1640, 0.8551960
169.6461, 0.8342650
170.1282, 0.7484850
170.6104, 0.7424510
171.0925, 0.8265980
171.5746, 0.9108690
172.0567, 0.9769870
172.5388, 1.030277
173.0209, 1.054580
173.5031, 1.029946
173.9852, 0.9989370
174.4673, 1.021856
174.9494, 1.090282
175.4315, 0.9870300
175.9136, 1.159802
176.3958, 1.259522
176.8779, 1.290114
177.3600, 1.044492
177.8421, 1.155567
178.3242, 0.9891180
178.8063, 1.190518
179.2885, 1.318868
179.7706, 1.378080
180.2527, 1.161077
180.7348, 1.300773
181.2169, 1.297534
181.6990, 1.288445
182.1812, 1.478380
182.6633, 1.301605
183.1454, 1.488399
183.6275, 1.530077
184.1096, 1.559246
184.5917, 1.687183
185.0738, 1.988971
185.5560, 2.283145
186.0381, 2.421483
186.5202, 2.374169
187.0023, 2.242050
187.4844, 2.196820
187.9665, 2.306583
188.4487, 2.402572
188.9308, 2.570878
189.4129, 2.684819
189.8950, 2.605911
190.3771, 2.291373
190.8592, 1.830844
191.3414, 1.381952
191.8235, 0.8833010
192.3056, 0.5179460
192.7877, 0.2274950
193.2698, 0.3570920
193.7519, 0.4172320
194.2341, 0.4116390
194.7162, 0.1434960
195.1983, 0.2143770
195.6804, 0.1493870
196.1625, 7.8821003E-02
196.6446, 0.1889810
197.1268, 3.4626000E-02
197.6089, 1.5714001E-02
198.0910, 0.1070430
198.5731, 0.1571160
199.0552, 0.2028390
199.5373, 0.2502250
200.0195, 0.2658020
200.5016, 0.1859490
200.9837, 4.1873001E-02
201.4658, 4.5090001E-03
201.9479, 3.0478001E-02
202.4300, 0.1764770
202.9122, 0.2529930
203.3943, 0.2638120
203.8764, 1.2090000E-02
204.3585, 9.9404998E-02
204.8406, 5.0859001E-02
205.3227, 3.3693001E-02
205.8048, 7.1575001E-02
206.2870, 0.2079120
206.7691, 0.2262300
207.2512, 0.1118880
207.7333, 2.6086999E-02
208.2154, 2.1539001E-02
208.6975, 4.0003002E-02
209.1797, 7.5891003E-02
209.6618, 7.6780997E-02
210.1439, 0.1600050
210.6260, 0.1775130
211.1081, 6.7527004E-02
211.5902, 2.6442001E-02
212.0724, 1.5455000E-02
212.5545, 6.3330002E-02
213.0366, 5.4040000E-02
213.5187, 0.1225860
214.0008, 4.5584999E-02
214.4829, 0.1461570
214.9651, 0.1812930
215.4472, 4.6123002E-02
215.9293, 6.5481000E-02
216.4114, 4.1218001E-02
216.8935, 3.1160000E-03
217.3756, 0.1624430
217.8578, 2.6784001E-02
218.3399, 0.2872750
218.8220, 0.5135770
219.3041, 0.7329810
219.7862, 0.8582870
220.2683, 0.8465550
220.7505, 0.8030050
221.2326, 0.6821510
221.7147, 0.5720850
222.1968, 0.5628540
222.6789, 0.6670050
223.1610, 0.7884270
223.6432, 0.6460620
224.1253, 0.8167590
224.6074, 0.9143930
225.0895, 0.9428720
225.5716, 0.6950950
226.0537, 0.8039750
226.5358, 0.7699160
227.0180, 0.7299690
227.5001, 0.8890070
227.9822, 0.7445110
228.4643, 0.7051920
228.9464, 0.7064440
229.4285, 0.7360100
229.9107, 0.7963460
230.3928, 0.8906330
230.8749, 0.9714850
231.3570, 0.9637180
231.8391, 0.8579250
232.3212, 0.7740900
232.8034, 0.7248750
233.2855, 0.7101500
233.7676, 0.7470630
234.2497, 0.8476490
234.7318, 0.9436710
235.2139, 0.9110990
235.6961, 0.6424830
236.1782, 0.8416910
236.6603, 0.9714540
237.1424, 1.035505
237.6245, 0.8370120
238.1066, 0.9775560
238.5888, 0.9822450
239.0709, 0.9813610
239.5530, 1.169637
240.0351, 1.009361
240.5172, 1.194650
240.9993, 1.242004
241.4815, 1.276199
241.9636, 1.384467
242.4457, 1.525090
242.9278, 1.746978
243.4099, 1.993501
243.8920, 2.135186
244.3742, 2.039213
244.8563, 1.811381
245.3384, 1.707990
245.8205, 1.792192
246.3026, 1.860062
246.7847, 1.770330
247.2668, 1.595358
247.7490, 1.448915
248.2311, 1.396555
248.7132, 1.399416
249.1953, 1.356046
249.6774, 1.228184
250.1595, 1.134388
250.6417, 1.176047
251.1238, 1.264465
251.6059, 1.277322
252.0880, 1.140731
252.5701, 0.9183310
253.0522, 0.7694410
253.5344, 0.7226930
254.0165, 0.6792340
254.4986, 0.6353790
254.9807, 0.5970190
255.4628, 0.5477240
255.9449, 0.4733920
256.4271, 0.3947290
256.9092, 0.2361670
257.3913, 0.3799850
257.8734, 0.4507360
258.3555, 0.4523500
258.8376, 0.1777420
259.3198, 0.2588150
259.8019, 0.1979540
260.2840, 0.1322570
260.7661, 0.2670250
261.2482, 3.2747000E-02
261.7303, 0.1617920
262.2125, 0.1458070
262.6946, 0.1962500
263.1767, 0.1000670
263.6588, 5.1112000E-02
264.1409, 0.1460340
264.6230, 2.9537000E-02
265.1052, 4.1524000E-02
265.5873, 0.1355830
266.0694, 0.2347680
266.5515, 0.2636610
267.0336, 1.4081000E-02
267.5157, 0.1267280
267.9979, 9.6435003E-02
268.4800, 6.0281999E-02
268.9621, 0.2181450
269.4442, 1.4292000E-02
269.9263, 0.1722830
270.4084, 0.1821690
270.8906, 0.2591630
271.3727, 0.1881280
271.8548, 0.1697760
272.3369, 0.2953110
272.8190, 0.3411850
273.3011, 0.2585320
273.7833, 0.3438320
274.2654, 0.4631400
274.7475, 0.6164240
275.2296, 0.6550390
275.7117, 0.6741280
276.1938, 0.7818490
276.6760, 1.009771
277.1581, 1.112782
277.6402, 0.9539480
278.1223, 0.8258400
278.6044, 0.9286910
279.0865, 1.200521
279.5686, 1.420978
280.0508, 1.402409
280.5329, 1.138157
281.0150, 0.9268280
281.4971, 0.7353940
281.9792, 0.6162510
282.4613, 0.6613560
282.9435, 0.8007780
283.4256, 0.8586200
283.9077, 0.7046960
284.3898, 0.3783170
284.8719, 0.2444420
285.3540, 0.5014510
285.8362, 0.6890920
286.3183, 0.6576120
286.8004, 0.2309000
287.2825, 0.5500150
287.7646, 0.7395480
288.2467, 0.8050580
288.7289, 0.3634450
289.2110, 0.5706320
289.6931, 0.5166430
290.1752, 0.4515950
290.6573, 0.7487180
291.1394, 0.3782360
291.6216, 0.6733920
292.1037, 0.7101450
292.5858, 0.7368850
293.0679, 0.4315270
293.5500, 0.2641290
294.0321, 0.4229410
294.5143, 0.6889670
294.9964, 0.8095720
295.4785, 0.7171790
295.9606, 0.5211930
296.4427, 0.3663880
296.9248, 0.2581380
297.4070, 0.1861270
297.8891, 0.1779010
298.3712, 0.1888450
298.8533, 0.1719040
299.3354, 0.1222600
299.8175, 8.8390000E-02
300.2997, 0.1170320
300.7818, 0.2298880
301.2639, 2.7674001E-02
301.7460, 0.3399060
302.2281, 0.5145420
302.7102, 0.5634770
303.1924, 0.1096860
303.6745, 0.3042540
304.1566, 0.2430410
304.6387, 0.1667910
305.1208, 0.4528170
305.6029, 7.0772998E-02
306.0851, 0.3516880
306.5672, 0.3685790
307.0493, 0.5102960
307.5314, 0.3906160
308.0135, 0.3529140
308.4956, 0.5746560
308.9778, 0.6476720
309.4599, 0.4921890
309.9420, 0.5271260
310.4241, 0.4952770
310.9062, 0.3424930
311.3883, 0.2211360
311.8705, 0.1974750
312.3526, 0.2265690
312.8347, 0.2015010
313.3168, 7.3009998E-02
313.7989, 1.1542000E-02
314.2810, 0.1113500
314.7632, 0.2762190
315.2453, 0.3862940
315.7274, 0.4085440
316.2095, 0.3636930
316.6916, 0.2656550
317.1737, 8.8027000E-02
317.6559, 2.3546999E-02
318.1380, 4.6595000E-02
318.6201, 5.6260000E-03
319.1022, 0.1119550
319.5843, 0.2984900
320.0664, 0.4491030
320.5485, 0.4564930
321.0306, 0.3046700
321.5128, 0.1643800
321.9949, 2.3910001E-02
322.4770, 3.1562999E-02
322.9591, 8.8959999E-02
323.4412, 0.1053600
323.9233, 0.2684430
324.4055, 0.2628330
324.8876, 0.1181440
325.3697, 5.1456999E-02
325.8518, 9.9062003E-02
326.3339, 0.1685440
326.8160, 0.2559540
327.2982, 0.3398930
327.7803, 0.3645830
328.2624, 0.2934890
328.7445, 0.1731560
329.2266, 0.1356930
329.7087, 0.2550440
330.1909, 0.3212230
330.6730, 0.2324080
331.1551, 8.2396001E-02
331.6372, 1.5898000E-02
332.1193, 7.4091002E-02
332.6014, 0.1868250
333.0836, 0.2483000
333.5657, 0.2466700
334.0478, 0.2315240
334.5299, 0.2119120
335.0120, 0.1763760
335.4941, 9.1651998E-02
335.9763, 4.1120000E-02
336.4584, 1.6491000E-02
336.9405, 3.9060999E-02
337.4226, 4.1492999E-02
337.9047, 3.0363999E-02
338.3868, 3.7130001E-03
338.8690, 3.1394001E-02
339.3511, 0.1258970
339.8332, 0.2613370
340.3153, 0.3620120
340.7974, 0.3659310
341.2795, 0.2824240
341.7617, 0.1787310
342.2438, 3.5746001E-02
342.7259, 4.3529000E-02
343.2080, 4.7571000E-02
343.6901, 0.1168660
344.1722, 0.1992150
344.6544, 9.0622999E-02
345.1365, 1.2305000E-02
345.6186, 5.0721001E-02
346.1007, 9.5389998E-03
346.5828, 0.1664090
347.0649, 0.3705070
347.5471, 0.5156490
348.0292, 0.4558050
348.5113, 0.1874940
348.9934, 2.5180001E-03
349.4755, 0.1221550
349.9576, 1.6574999E-02
350.4398, 5.3579998E-03
350.9219, 0.1794360
351.4040, 0.3324690
351.8861, 0.3926240
352.3682, 0.3726620
352.8503, 0.3329560
353.3325, 0.3106530
353.8146, 0.3109620
354.2967, 0.3220200
354.7788, 0.4022310
355.2609, 0.4262760
355.7430, 0.2898910
356.2252, 0.1019050
356.7073, 1.8711001E-02
357.1894, 4.0484998E-02
357.6715, 0.1856550
358.1536, 0.3655820
358.6357, 0.4179350
359.1179, 4.1873001E-02
359.5999, 0.1589400
360.0821, 9.5122002E-02
360.5642, 2.0416001E-02
361.0463, 0.3132390
361.5284, 1.3085000E-02
362.0105, 0.2155800
362.4926, 0.2341400
362.9748, 0.3759640
363.4569, 5.5473000E-02
363.9390, 1.6163001E-02
364.4211, 3.5319999E-02
364.9032, 3.6623001E-02
365.3853, 5.2129000E-02
365.8675, 2.4520000E-02
366.3496, 0.1863210
366.8317, 0.3071370
367.3138, 0.2516720
367.7959, 0.2120700
368.2780, 0.2312480
368.7602, 0.2881720
369.2423, 0.3653950
369.7244, 0.4573610
370.2065, 0.5408070
370.6886, 0.5659500
371.1707, 0.5154110
371.6529, 0.4483390
372.1350, 0.3299060
372.6171, 0.2296130
373.0992, 0.2044880
373.5813, 0.2568860
374.0634, 0.3296140
374.5456, 0.3544060
375.0277, 0.3265400
375.5098, 0.3476590
375.9919, 0.4919090
376.4740, 0.6092110
376.9561, 0.6183640
377.4383, 0.5456260
377.9204, 0.4547320
378.4025, 0.3807480
378.8846, 0.3142360
379.3667, 0.2133490
379.8488, 3.9076999E-02
380.3310, 1.3993000E-02
380.8131, 4.5790002E-03
381.2952, 0.1479500
381.7773, 0.2061910
382.2594, 0.1232670
382.7415, 3.7154000E-02
383.2237, 0.1376270
383.7058, 0.4236440
384.1879, 0.6256570
384.6700, 0.6710590
385.1521, 0.6098830
385.6342, 0.4646150
386.1164, 0.2467420
386.5985, 7.1505003E-02
387.0806, 1.2417000E-02
387.5627, 4.5108002E-02
388.0448, 2.6218999E-02
388.5269, 0.2078010
389.0091, 0.3924530
389.4912, 0.4486320
389.9733, 6.2520001E-03
390.4554, 0.1993050
390.9375, 0.1406060
391.4196, 7.0873998E-02
391.9018, 7.9804003E-02
392.3839, 7.5210002E-03
392.8660, 3.7425000E-02
393.3481, 3.2621998E-02
393.8302, 2.9820999E-02
394.3123, 0.1164250
394.7945, 0.2473530
395.2766, 0.3354400
395.7587, 0.3426480
396.2408, 0.2871580
396.7229, 0.1560520
397.2050, 3.8692001E-02
397.6872, 0.1193810
398.1693, 2.2206999E-02
398.6514, 0.3917260
399.1335, 0.6564410
399.6156, 0.5143810
400.0977, 0.2862160
400.5798, 0.2038160
401.0620, 0.2531310
401.5441, 0.3066860
402.0262, 0.2777430
402.5083, 0.1843770
402.9904, 0.1195090
403.4725, 6.7890003E-02
403.9547, 6.7281999E-02
404.4368, 0.1835520
404.9189, 0.3265700
405.4010, 0.3504370
405.8831, 0.2167980
406.3652, 6.3472003E-02
406.8474, 0.1103720
407.3295, 0.5022070
407.8116, 0.6658630
408.2937, 0.4304360
408.7758, 0.1416900
409.2579, 5.4092001E-02
409.7401, 3.6070000E-03
410.2222, 3.6632001E-02
410.7043, 5.7209000E-02
411.1864, 0.3199420
411.6685, 0.4892470
412.1506, 0.5053180
412.6328, 0.4925910
413.1149, 0.4628180
413.5970, 0.4172950
414.0791, 0.3441610
414.5612, 0.2422280
415.0433, 0.1397740
415.5255, 9.6507996E-02
416.0076, 0.1170290
416.4897, 0.1604260
416.9718, 0.2321960
417.4539, 0.3204400
417.9360, 0.4375130
418.4182, 0.5635500
418.9003, 0.6425430
419.3824, 0.6241700
419.8645, 0.5295760
420.3466, 0.3990510
420.8287, 0.2054590
421.3109, 3.3767000E-02
421.7930, 4.7782000E-02
422.2751, 4.4674002E-02
422.7572, 2.3181001E-02
423.2393, 1.4929000E-02
423.7214, 0.1881250
424.2036, 0.2487650
424.6857, 0.1695050
425.1678, 0.1145650
425.6499, 0.1209460
426.1320, 0.1635060
426.6141, 0.2460210
427.0963, 0.3571740
427.5784, 0.4023640
428.0605, 0.2637660
428.5426, 6.6621996E-02
429.0247, 2.9836999E-02
429.5068, 0.1739670
429.9890, 0.3086560
430.4711, 0.2934580
430.9532, 0.1832330
431.4353, 0.1661410
431.9174, 0.3239650
432.3995, 0.4549340
432.8817, 0.4278460
433.3638, 0.3065620
433.8459, 0.2252860
434.3280, 0.2268210
434.8101, 0.2732140
435.2922, 0.3225790
435.7744, 0.3865130
436.2565, 0.3941980
436.7386, 0.2743630
437.2207, 0.1520530
437.7028, 0.1328830
438.1849, 0.1947930
438.6671, 0.2569530
439.1492, 0.2391760
439.6313, 0.1492950
440.1134, 0.1112900
440.5955, 0.1589170
441.0776, 0.2198760
441.5598, 0.3471590
442.0418, 0.4533130
442.5240, 0.4142380
443.0061, 0.2139750
443.4882, 1.4259000E-02
443.9703, 8.7030001E-02
444.4524, 3.9271999E-02
444.9345, 0.1267330
445.4167, 0.1013070
445.8988, 6.6238999E-02
446.3809, 8.7886997E-02
446.8630, 0.1404990
447.3451, 0.1766930
447.8272, 0.1610190
448.3094, 0.1290020
448.7915, 0.1609550
449.2736, 0.2853350
449.7557, 0.3923110
450.2378, 0.4735980
450.7199, 0.5096860
451.2021, 0.4692930
451.6842, 0.3584970
452.1663, 0.2507170
452.6484, 0.1922090
453.1305, 0.1837940
453.6126, 0.2589180
454.0948, 0.4700350
454.5769, 0.6414920
455.0590, 0.5747070
455.5411, 0.3888250
456.0232, 0.3146540
456.5053, 0.4782780
456.9875, 0.6529750
457.4696, 0.6191750
457.9517, 0.4247440
458.4338, 0.3043950
458.9159, 0.3482990
459.3980, 0.4456530
459.8802, 0.4160880
460.3623, 0.2464550
460.8444, 0.1409340
461.3265, 0.1922850
461.8086, 0.2847480
462.2907, 0.3059120
462.7729, 0.2592020
463.2550, 0.2220380
463.7371, 0.2431190
464.2192, 0.3136080
464.7013, 0.4136440
465.1834, 0.6777590
465.6656, 0.8002730
466.1477, 0.6092540
466.6298, 0.3251990
467.1119, 0.1793760
467.5940, 0.2224900
468.0761, 0.3482220
468.5583, 0.4313030
469.0404, 0.4573250
469.5225, 0.4914900
470.0046, 0.5923770
470.4867, 0.6399590
470.9688, 0.5509800
471.4510, 0.3925720
471.9331, 0.2747660
472.4152, 0.2509260
472.8973, 0.2824380
473.3794, 0.2951400
473.8615, 0.2794870
474.3437, 0.2887180
474.8258, 0.3858490
475.3079, 0.4664630
475.7900, 0.4340690
476.2721, 0.3099990
476.7542, 0.2232980
477.2364, 0.3107410
477.7185, 0.4794660
478.2006, 0.4901900
478.6827, 0.3105760
479.1648, 0.1636620
479.6469, 0.1968860
480.1291, 0.3150370
480.6112, 0.3251730
481.0933, 0.1678840
481.5754, 6.5871000E-02
482.0575, 0.2123620
482.5396, 0.4731770
483.0217, 0.5875790
483.5038, 0.5004560
483.9860, 0.3467910
484.4681, 0.2393700
484.9502, 0.1817560
485.4323, 0.1739370
485.9144, 0.2506300
486.3965, 0.3360380
486.8787, 0.4418470
487.3608, 0.5275690
487.8429, 0.5001180
488.3250, 0.3225710
488.8071, 8.8591002E-02
489.2892, 3.2458998E-02
489.7714, 5.0349999E-03
490.2535, 4.6948001E-02
490.7356, 9.1181003E-02
491.2177, 0.1408380
491.6998, 0.2044410
492.1819, 0.2747330
492.6641, 0.3356070
493.1462, 0.3768330
493.6283, 0.4038060
494.1104, 0.4374510
494.5925, 0.5161930
495.0746, 0.4904100
495.5568, 0.1409670
496.0389, 2.3118000E-02
496.5210, 1.7193001E-02
497.0031, 2.0010000E-02
497.4852, 0.2787620
497.9673, 0.3082300
498.4495, 0.1848810
498.9316, 0.1059900
499.4137, 7.4242003E-02
499.8958, 0.1120870
500.3779, 0.3398900
500.8600, 0.6075580
501.3422, 0.5775330
501.8243, 4.5302998E-02
502.3064, 0.1523800
502.7885, 7.9590000E-02
503.2706, 5.0776999E-02
503.7527, 0.3121860
504.2349, 0.4006800
504.7170, 0.4045550
505.1991, 0.4013920
505.6812, 0.3905710
506.1633, 0.3753440
506.6454, 0.3401680
507.1276, 0.3188120
507.6097, 0.3584380
508.0918, 0.4097200
508.5739, 0.3752560
509.0560, 0.2261550
509.5381, 5.6524001E-02
510.0203, 1.9517001E-02
510.5024, 0.1667190
510.9845, 0.2758850
511.4666, 0.3299710
511.9487, 0.3641170
512.4308, 0.3885890
512.9130, 0.4036960
513.3951, 0.4135490
513.8772, 0.4269250
514.3593, 0.4152980
514.8414, 0.2962620
515.3235, 4.4016000E-02
515.8057, 7.4763998E-02
516.2878, 6.5684997E-02
516.7699, 5.0190002E-02
517.2520, 7.8515999E-02
517.7341, 0.2464610
518.2162, 0.3937250
518.6984, 0.5296040
519.1805, 0.6026850
519.6626, 0.4865540
520.1447, 0.1984930
520.6268, 2.0361001E-02
521.1089, 4.0711999E-02
521.5911, 6.0694002E-02
522.0732, 0.1177470
522.5553, 0.1372440
523.0374, 0.1127380
523.5195, 3.1420998E-02
524.0016, 1.0458000E-02
524.4838, 3.4040999E-02
524.9659, 2.5886999E-02
525.4480, 0.2065240
525.9301, 0.3195990
526.4122, 0.3654560
526.8943, 0.3417400
527.3765, 0.1614410
527.8586, 3.9912999E-02
528.3407, 2.0229001E-02
528.8228, 4.2601001E-02
529.3049, 7.9441004E-02
529.7870, 0.1179070
530.2692, 0.1383840
530.7513, 0.1001560
531.2334, 2.1509999E-02
531.7155, 5.9292000E-02
532.1976, 0.2658510
532.6797, 0.4675800
533.1619, 0.6139010
533.6440, 0.7045480
534.1261, 0.7403900
534.6082, 0.7161840
535.0903, 0.6762510
535.5724, 0.6383030
536.0546, 0.6011000
536.5367, 0.5456880
537.0188, 0.4661560
537.5009, 0.4137780
537.9830, 0.4263310
538.4651, 0.4929870
538.9473, 0.5294730
539.4294, 0.4678110
539.9115, 0.4638500
540.3936, 0.6637260
540.8757, 0.8965610
541.3578, 0.9084090
541.8400, 0.6718400
542.3221, 0.4130820
542.8042, 0.3646730
543.2863, 0.5333030
543.7684, 0.6465970
544.2505, 0.6907990
544.7326, 0.6899890
545.2147, 0.5973680
545.6968, 0.4878350
546.1790, 0.4578460
546.6611, 0.5265330
547.1432, 0.6016280
547.6253, 0.5582470
548.1074, 0.4127140
548.5895, 0.3987500
549.0717, 0.6183120
549.5538, 0.7692090
550.0359, 0.5644610
550.5180, 0.2019880
551.0001, 2.1891000E-02
551.4822, 2.3298999E-02
551.9644, 3.0441999E-02
552.4465, 2.7595000E-02
552.9286, 6.6940002E-03
553.4107, 7.2866999E-02
553.8928, 0.2409420
554.3749, 0.3816850
554.8571, 0.3684230
555.3392, 0.1985060
555.8213, 0.1199850
556.3034, 0.2032120
556.7855, 0.2808000
557.2676, 0.3096330
557.7498, 0.3108550
558.2319, 0.2994220
558.7140, 0.2861980
559.1961, 0.2815250
559.6782, 0.2939020
