##NAMES=Stillwellite-(Ce)
##RRUFFID=R060911
##IDEAL CHEMISTRY=CeBSiO_5_
##LOCALITY=Dimbulah, Queensland, Australia
##OWNER=RRUFF
##SOURCE=Royal Ontario Museum
##DESCRIPTION=Dark orange crystalline blebs intergrown with fluorapatite
##STATUS=The identification of this mineral has been confirmed by single-crystal X-ray diffraction.
##URL=rruff.info/R060911
157.1714, 1878.229
157.6535, 1885.779
158.1356, 1891.898
158.6177, 1897.259
159.0999, 1903.341
159.5820, 1911.753
160.0641, 1923.074
160.5462, 1932.580
161.0283, 1933.450
161.5104, 1937.037
161.9926, 1956.918
162.4747, 1994.444
162.9568, 2030.398
163.4389, 2039.601
163.9210, 2023.758
164.4031, 2016.720
164.8853, 2028.281
165.3674, 2050.727
165.8495, 2075.747
166.3316, 2105.758
166.8137, 2128.252
167.2958, 2124.085
167.7780, 2100.179
168.2601, 2082.710
168.7422, 2089.814
169.2243, 2114.946
169.7064, 2131.138
170.1885, 2130.619
170.6707, 2126.530
171.1528, 2125.416
171.6349, 2127.799
172.1170, 2134.934
172.5991, 2154.250
173.0812, 2187.212
173.5634, 2200.826
174.0455, 2166.579
174.5276, 2133.098
175.0097, 2119.355
175.4918, 2126.036
175.9739, 2144.690
176.4561, 2170.167
176.9382, 2210.020
177.4203, 2230.516
177.9024, 2214.326
178.3845, 2194.575
178.8666, 2189.854
179.3488, 2201.740
179.8309, 2218.869
180.3130, 2225.532
180.7951, 2215.498
181.2772, 2208.338
181.7593, 2205.846
182.2415, 2204.677
182.7236, 2202.901
183.2057, 2199.912
183.6878, 2195.581
184.1699, 2189.519
184.6520, 2179.869
185.1342, 2172.326
185.6163, 2164.481
186.0984, 2159.874
186.5805, 2165.022
187.0626, 2182.477
187.5447, 2202.792
188.0269, 2207.940
188.5090, 2193.677
188.9911, 2184.524
189.4732, 2189.701
189.9553, 2202.901
190.4374, 2213.922
190.9196, 2220.614
191.4017, 2222.527
191.8838, 2218.012
192.3659, 2206.897
192.8480, 2195.469
193.3301, 2184.877
193.8123, 2175.870
194.2944, 2171.706
194.7765, 2175.636
195.2586, 2181.933
195.7407, 2183.341
196.2228, 2179.743
196.7050, 2177.883
197.1871, 2185.289
197.6692, 2201.336
198.1513, 2211.625
198.6334, 2209.635
199.1155, 2203.751
199.5977, 2197.473
200.0798, 2191.567
200.5619, 2189.533
201.0440, 2199.346
201.5261, 2224.957
202.0082, 2236.121
202.4904, 2212.673
202.9725, 2185.176
203.4546, 2166.759
203.9367, 2159.727
204.4188, 2160.544
204.9009, 2167.198
205.3831, 2184.217
205.8652, 2192.753
206.3473, 2182.321
206.8294, 2171.324
207.3115, 2172.951
207.7936, 2187.942
208.2758, 2205.469
208.7579, 2209.476
209.2400, 2190.724
209.7221, 2178.348
210.2042, 2177.237
210.6863, 2177.944
211.1685, 2171.330
211.6506, 2156.816
212.1327, 2143.755
212.6148, 2146.750
213.0969, 2179.632
213.5790, 2199.461
214.0612, 2201.124
214.5433, 2194.069
215.0254, 2180.968
215.5075, 2163.808
215.9896, 2151.585
216.4717, 2159.074
216.9539, 2201.865
217.4360, 2226.396
217.9181, 2221.727
218.4002, 2203.509
218.8823, 2183.344
219.3644, 2163.984
219.8466, 2150.198
220.3287, 2150.963
220.8108, 2169.452
221.2929, 2183.927
221.7750, 2189.116
222.2571, 2189.705
222.7393, 2191.239
223.2214, 2194.876
223.7035, 2199.460
224.1856, 2205.661
224.6677, 2213.474
225.1498, 2214.599
225.6320, 2196.994
226.1141, 2173.767
226.5962, 2170.583
227.0783, 2197.750
227.5604, 2226.751
228.0425, 2222.498
228.5247, 2193.130
229.0068, 2171.249
229.4889, 2175.019
229.9710, 2194.596
230.4531, 2207.850
230.9352, 2210.685
231.4174, 2211.115
231.8995, 2214.923
232.3816, 2221.259
232.8637, 2228.023
233.3458, 2236.058
233.8279, 2243.932
234.3101, 2245.590
234.7922, 2234.954
235.2743, 2228.456
235.7564, 2237.903
236.2385, 2257.609
236.7206, 2276.543
237.2028, 2290.194
237.6849, 2298.161
238.1670, 2297.355
238.6491, 2278.370
239.1312, 2264.904
239.6133, 2268.867
240.0955, 2283.745
240.5776, 2298.297
241.0597, 2304.938
241.5418, 2306.232
242.0239, 2315.275
242.5060, 2341.773
242.9882, 2362.635
243.4703, 2367.571
243.9524, 2363.927
244.4345, 2362.936
244.9166, 2371.725
245.3987, 2387.324
245.8809, 2394.986
246.3630, 2383.690
246.8451, 2378.700
247.3272, 2391.315
247.8093, 2411.188
248.2914, 2424.385
248.7736, 2423.028
249.2557, 2410.933
249.7378, 2403.426
250.2199, 2399.485
250.7020, 2402.453
251.1841, 2415.014
251.6663, 2433.705
252.1484, 2456.189
252.6305, 2481.621
253.1126, 2507.011
253.5947, 2523.299
254.0768, 2519.861
254.5590, 2519.258
255.0411, 2524.401
255.5232, 2532.468
256.0053, 2539.975
256.4874, 2545.448
256.9695, 2550.491
257.4517, 2558.947
257.9338, 2571.757
258.4159, 2587.529
258.8980, 2610.567
259.3801, 2634.718
259.8622, 2652.798
260.3444, 2662.418
260.8265, 2668.090
261.3086, 2678.356
261.7907, 2698.491
262.2728, 2715.087
262.7549, 2724.521
263.2371, 2732.078
263.7192, 2743.132
264.2013, 2759.112
264.6834, 2777.468
265.1655, 2794.835
265.6476, 2812.023
266.1298, 2825.292
266.6119, 2828.002
267.0940, 2830.455
267.5761, 2843.472
268.0582, 2868.983
268.5403, 2899.123
269.0225, 2925.657
269.5046, 2948.265
269.9867, 2966.157
270.4688, 2975.170
270.9509, 2981.980
271.4330, 2991.230
271.9152, 3003.662
272.3973, 3019.768
272.8794, 3040.580
273.3615, 3066.667
273.8436, 3092.652
274.3257, 3119.052
274.8079, 3145.035
275.2900, 3169.150
275.7721, 3191.580
276.2542, 3214.650
276.7363, 3242.071
277.2184, 3271.919
277.7006, 3293.209
278.1827, 3296.594
278.6648, 3298.642
279.1469, 3311.876
279.6290, 3335.226
280.1111, 3358.841
280.5933, 3376.150
281.0754, 3389.625
281.5575, 3407.871
282.0396, 3431.669
282.5217, 3459.097
283.0038, 3491.422
283.4860, 3527.448
283.9681, 3561.812
284.4502, 3593.985
284.9323, 3620.861
285.4144, 3635.827
285.8965, 3632.052
286.3787, 3633.248
286.8608, 3657.662
287.3429, 3698.967
287.8250, 3733.924
288.3071, 3752.774
288.7892, 3764.938
289.2714, 3784.306
289.7535, 3811.311
290.2356, 3839.561
290.7177, 3869.591
291.1998, 3898.762
291.6819, 3919.660
292.1641, 3928.895
292.6462, 3932.736
293.1283, 3937.815
293.6104, 3943.927
294.0925, 3949.065
294.5746, 3949.948
295.0568, 3949.715
295.5389, 3954.729
296.0210, 3966.187
296.5031, 3981.531
296.9852, 3999.433
297.4673, 4019.520
297.9495, 4041.695
298.4316, 4074.071
298.9137, 4105.329
299.3958, 4114.739
299.8779, 4097.702
300.3600, 4079.069
300.8422, 4074.132
301.3243, 4079.078
301.8064, 4088.835
302.2885, 4104.170
302.7706, 4122.200
303.2527, 4142.354
303.7349, 4165.376
304.2170, 4180.627
304.6991, 4176.592
305.1812, 4164.729
305.6633, 4160.988
306.1454, 4169.370
306.6276, 4180.853
307.1097, 4187.760
307.5918, 4190.338
308.0739, 4193.316
308.5560, 4200.001
309.0381, 4205.887
309.5203, 4204.230
310.0024, 4193.837
310.4845, 4186.582
310.9666, 4196.139
311.4487, 4217.708
311.9308, 4226.089
312.4130, 4210.379
312.8951, 4188.649
313.3772, 4175.988
313.8593, 4171.697
314.3414, 4173.161
314.8235, 4182.269
315.3057, 4196.023
315.7878, 4208.195
316.2699, 4220.494
316.7520, 4225.507
317.2341, 4207.942
317.7162, 4178.850
318.1984, 4163.534
318.6805, 4184.406
319.1626, 4218.189
319.6447, 4225.048
320.1268, 4199.764
320.6089, 4173.912
321.0911, 4168.082
321.5732, 4171.973
322.0553, 4170.727
322.5374, 4156.833
323.0195, 4144.503
323.5016, 4151.622
323.9838, 4178.395
324.4659, 4203.370
324.9480, 4223.506
325.4301, 4233.078
325.9122, 4222.182
326.3943, 4185.828
326.8765, 4152.291
327.3586, 4145.875
327.8407, 4161.660
328.3228, 4172.037
328.8049, 4168.212
329.2870, 4160.568
329.7692, 4160.314
330.2513, 4166.773
330.7334, 4172.800
331.2155, 4175.614
331.6976, 4175.467
332.1797, 4171.557
332.6619, 4161.722
333.1440, 4153.978
333.6261, 4159.829
334.1082, 4173.333
334.5903, 4179.829
335.0724, 4166.060
335.5546, 4147.334
336.0367, 4144.806
336.5188, 4159.796
337.0009, 4178.057
337.4830, 4194.610
337.9651, 4208.025
338.4473, 4215.852
338.9294, 4217.278
339.4115, 4213.934
339.8936, 4203.853
340.3757, 4188.337
340.8578, 4177.463
341.3400, 4175.111
341.8221, 4179.434
342.3042, 4188.620
342.7863, 4204.472
343.2684, 4215.574
343.7505, 4210.045
344.2327, 4195.845
344.7148, 4195.163
345.1969, 4217.251
345.6790, 4241.256
346.1611, 4237.175
346.6432, 4209.914
347.1254, 4190.959
347.6075, 4195.955
348.0896, 4209.990
348.5717, 4213.934
349.0538, 4205.892
349.5359, 4196.762
350.0181, 4193.339
350.5002, 4195.711
350.9823, 4202.035
351.4644, 4217.556
351.9465, 4232.419
352.4286, 4240.914
352.9108, 4243.273
353.3929, 4239.623
353.8750, 4227.291
354.3571, 4211.703
354.8392, 4206.280
355.3214, 4212.751
355.8035, 4223.251
356.2856, 4237.450
356.7677, 4253.355
357.2498, 4269.183
357.7319, 4285.364
358.2141, 4296.139
358.6962, 4291.177
359.1783, 4267.551
359.6604, 4247.236
360.1425, 4228.752
360.6246, 4216.999
361.1068, 4220.923
361.5889, 4239.916
362.0710, 4258.530
362.5531, 4263.418
363.0352, 4254.607
363.5173, 4249.217
363.9995, 4251.440
364.4816, 4252.584
364.9637, 4245.678
365.4458, 4234.181
365.9279, 4227.112
366.4100, 4229.282
366.8922, 4238.710
367.3743, 4249.380
367.8564, 4267.572
368.3385, 4278.151
368.8206, 4270.883
369.3027, 4258.499
369.7849, 4258.148
370.2670, 4274.040
370.7491, 4293.458
371.2312, 4298.401
371.7133, 4282.653
372.1954, 4270.167
372.6776, 4261.282
373.1597, 4255.096
373.6418, 4249.186
374.1239, 4244.893
374.6060, 4248.180
375.0881, 4265.709
375.5703, 4296.589
376.0524, 4311.430
376.5345, 4302.015
377.0166, 4286.662
377.4987, 4261.624
377.9808, 4235.125
378.4630, 4219.621
378.9451, 4220.923
379.4272, 4231.848
379.9093, 4234.852
380.3914, 4220.495
380.8735, 4214.162
381.3557, 4221.551
381.8378, 4232.945
382.3199, 4243.724
382.8020, 4251.855
383.2841, 4254.487
383.7662, 4246.715
384.2484, 4226.009
384.7305, 4212.373
385.2126, 4213.294
385.6947, 4214.276
386.1768, 4206.533
386.6589, 4195.634
387.1411, 4195.223
387.6232, 4216.683
388.1053, 4249.642
388.5874, 4254.359
389.0695, 4212.342
389.5516, 4176.513
390.0338, 4156.725
390.5159, 4148.700
390.9980, 4151.529
391.4801, 4164.741
391.9622, 4180.884
392.4443, 4192.156
392.9265, 4198.702
393.4086, 4198.793
393.8907, 4185.392
394.3728, 4171.756
394.8549, 4164.351
395.3370, 4163.169
395.8192, 4166.818
396.3013, 4180.825
396.7834, 4198.860
397.2655, 4197.200
397.7476, 4168.292
398.2297, 4139.322
398.7119, 4124.482
399.1940, 4118.093
399.6761, 4113.842
400.1582, 4110.078
400.6403, 4108.159
401.1224, 4111.950
401.6046, 4120.839
402.0867, 4123.524
402.5688, 4113.463
403.0509, 4099.138
403.5330, 4090.018
404.0151, 4086.028
404.4973, 4085.515
404.9794, 4092.403
405.4615, 4101.003
405.9436, 4101.163
406.4257, 4091.384
406.9078, 4075.749
407.3900, 4053.168
407.8721, 4026.723
408.3542, 4011.055
408.8363, 4011.363
409.3184, 4019.052
409.8005, 4032.910
410.2827, 4050.512
410.7648, 4063.401
411.2469, 4067.565
411.7290, 4065.561
412.2111, 4063.093
412.6932, 4062.424
413.1754, 4056.108
413.6575, 4035.634
414.1396, 4012.748
414.6217, 4000.194
415.1038, 3999.907
415.5859, 4005.045
416.0681, 4009.164
416.5502, 4012.063
417.0323, 4016.134
417.5144, 4026.962
417.9965, 4033.032
418.4786, 4024.426
418.9608, 4008.211
419.4429, 3998.479
419.9250, 4002.709
420.4071, 4016.115
420.8892, 4025.693
421.3713, 4031.382
421.8535, 4032.661
422.3356, 4030.050
422.8177, 4023.138
423.2998, 4007.095
423.7819, 3984.040
424.2640, 3966.207
424.7462, 3969.519
425.2283, 3996.588
425.7104, 4005.712
426.1925, 3976.845
426.6746, 3950.884
427.1567, 3939.630
427.6389, 3938.834
428.1210, 3941.502
428.6031, 3944.522
429.0852, 3948.384
429.5673, 3955.505
430.0494, 3968.569
430.5316, 3975.328
431.0137, 3964.085
431.4958, 3951.510
431.9779, 3950.821
432.4600, 3961.790
432.9421, 3970.276
433.4243, 3962.744
433.9064, 3943.212
434.3885, 3928.897
434.8706, 3920.961
435.3527, 3917.341
435.8348, 3918.084
436.3170, 3921.934
436.7991, 3927.426
437.2812, 3935.383
437.7633, 3943.173
438.2454, 3948.227
438.7275, 3950.813
439.2097, 3953.282
439.6918, 3957.891
440.1739, 3960.483
440.6560, 3950.836
441.1381, 3926.919
441.6202, 3914.206
442.1024, 3933.852
442.5845, 3960.668
443.0666, 3960.950
443.5487, 3933.409
444.0308, 3907.729
444.5129, 3906.926
444.9951, 3928.359
445.4772, 3944.798
445.9593, 3959.373
446.4414, 3966.209
446.9235, 3955.818
447.4056, 3938.774
447.8878, 3931.037
448.3699, 3938.001
448.8520, 3953.686
449.3341, 3970.220
449.8162, 3991.763
450.2983, 4001.114
450.7805, 3990.891
451.2626, 3977.267
451.7447, 3964.941
452.2268, 3956.241
452.7089, 3954.587
453.1910, 3963.000
453.6732, 3978.750
454.1553, 3990.215
454.6374, 3994.711
455.1195, 3999.317
455.6016, 4008.635
456.0837, 4016.370
456.5659, 4014.575
457.0480, 4002.881
457.5301, 3991.754
458.0122, 3995.061
458.4943, 4012.367
458.9764, 4019.120
459.4586, 4005.912
459.9407, 3995.131
460.4228, 3999.389
460.9049, 4013.545
461.3870, 4029.608
461.8691, 4047.712
462.3513, 4061.763
462.8334, 4061.430
463.3155, 4047.324
463.7976, 4035.015
464.2797, 4028.525
464.7618, 4026.969
465.2440, 4028.913
465.7261, 4034.193
466.2082, 4042.959
466.6903, 4059.688
467.1724, 4077.601
467.6545, 4088.012
468.1367, 4090.461
468.6188, 4090.348
469.1009, 4091.458
469.5830, 4092.810
470.0651, 4089.417
470.5472, 4073.011
471.0294, 4062.920
471.5115, 4071.163
471.9936, 4085.444
472.4757, 4088.868
472.9578, 4077.583
473.4399, 4061.657
473.9221, 4052.495
474.4042, 4050.156
474.8863, 4054.759
475.3684, 4079.223
475.8505, 4096.216
476.3326, 4089.193
476.8148, 4069.033
477.2969, 4056.134
477.7790, 4060.781
478.2611, 4072.212
478.7432, 4063.204
479.2253, 4017.809
479.7075, 3997.747
480.1896, 4038.798
480.6717, 4083.005
481.1538, 4098.483
481.6359, 4087.092
482.1180, 4069.343
482.6002, 4057.642
483.0823, 4050.108
483.5644, 4041.477
484.0465, 4031.818
484.5286, 4020.741
485.0107, 4002.624
485.4929, 3986.022
485.9750, 3983.343
486.4571, 3998.701
486.9392, 4013.211
487.4213, 4013.895
487.9034, 4005.707
488.3856, 4000.361
488.8677, 4000.211
489.3498, 3997.921
489.8319, 3983.495
490.3140, 3959.307
490.7961, 3951.658
491.2783, 3981.814
491.7604, 4005.805
492.2425, 3992.442
492.7246, 3960.928
493.2067, 3951.788
493.6888, 3979.293
494.1710, 4016.674
494.6531, 4020.496
495.1352, 3973.348
495.6173, 3947.553
496.0994, 3964.091
496.5815, 3978.439
497.0637, 3961.926
497.5458, 3926.736
498.0279, 3903.332
498.5100, 3909.906
498.9921, 3933.129
499.4742, 3938.193
499.9564, 3916.500
500.4385, 3898.246
500.9206, 3889.067
501.4027, 3883.346
501.8848, 3879.605
502.3669, 3876.802
502.8491, 3872.142
503.3312, 3861.370
503.8133, 3847.886
504.2954, 3843.968
504.7775, 3853.387
505.2596, 3853.929
505.7418, 3824.729
506.2239, 3786.672
506.7060, 3771.500
507.1881, 3786.256
507.6702, 3800.991
508.1523, 3801.370
508.6345, 3791.839
509.1166, 3776.896
509.5987, 3757.137
510.0808, 3741.413
510.5629, 3738.270
511.0450, 3746.389
511.5272, 3749.277
512.0093, 3750.021
512.4914, 3742.716
512.9735, 3715.483
513.4556, 3683.332
513.9377, 3667.092
514.4199, 3671.829
514.9020, 3685.465
515.3841, 3693.724
515.8662, 3696.451
516.3483, 3694.896
516.8304, 3688.232
517.3126, 3677.935
517.7947, 3660.698
518.2768, 3641.168
518.7589, 3625.858
519.2410, 3617.399
519.7231, 3613.013
520.2053, 3609.314
520.6874, 3606.379
521.1695, 3602.829
521.6516, 3596.979
522.1337, 3592.477
522.6158, 3598.130
523.0980, 3607.598
523.5801, 3601.385
524.0622, 3557.610
524.5443, 3510.120
525.0264, 3500.508
525.5085, 3522.128
525.9907, 3535.685
526.4728, 3526.305
526.9549, 3505.845
527.4370, 3491.028
527.9191, 3482.430
528.4012, 3474.581
528.8834, 3467.985
529.3655, 3461.103
529.8476, 3451.713
530.3297, 3441.008
530.8118, 3432.235
531.2939, 3427.048
531.7761, 3425.262
532.2582, 3427.779
532.7403, 3447.098
533.2224, 3446.615
533.7045, 3406.629
534.1866, 3366.037
534.6688, 3350.679
535.1509, 3355.799
535.6330, 3360.043
536.1151, 3348.456
536.5972, 3327.941
537.0793, 3316.574
537.5615, 3315.369
538.0436, 3319.655
538.5257, 3334.229
539.0078, 3349.134
539.4899, 3355.708
539.9720, 3353.927
540.4542, 3349.041
540.9363, 3343.692
541.4184, 3336.723
541.9005, 3325.165
542.3826, 3309.262
542.8647, 3294.786
543.3469, 3285.035
543.8290, 3278.231
544.3111, 3269.552
544.7932, 3257.327
545.2753, 3247.408
545.7574, 3237.396
546.2396, 3232.229
546.7217, 3243.840
547.2038, 3266.651
547.6859, 3275.815
548.1680, 3251.550
548.6501, 3204.329
549.1323, 3181.464
549.6144, 3198.056
550.0965, 3213.833
550.5786, 3229.550
551.0607, 3239.074
551.5428, 3232.057
552.0250, 3212.032
552.5071, 3198.656
552.9892, 3215.385
553.4713, 3246.284
553.9534, 3237.404
554.4355, 3178.156
554.9177, 3133.380
555.3998, 3137.711
555.8819, 3163.774
556.3640, 3173.343
556.8461, 3164.012
557.3282, 3154.114
557.8104, 3150.914
558.2925, 3150.770
558.7746, 3149.756
559.2567, 3147.589
559.7388, 3145.787
560.2209, 3146.055
560.7031, 3146.056
561.1852, 3138.271
561.6673, 3107.620
562.1494, 3090.611
562.6315, 3101.364
563.1136, 3115.234
563.5958, 3108.564
564.0779, 3086.673
564.5600, 3077.088
565.0421, 3103.327
565.5242, 3148.958
566.0063, 3153.817
566.4885, 3099.273
566.9706, 3058.351
567.4527, 3057.435
567.9348, 3069.506
568.4169, 3081.917
568.8990, 3092.164
569.3812, 3093.617
569.8633, 3073.837
570.3454, 3047.915
570.8275, 3036.397
571.3096, 3039.216
571.7917, 3054.848
572.2739, 3089.353
572.7560, 3125.870
573.2381, 3131.316
573.7202, 3097.082
574.2023, 3068.367
574.6844, 3048.106
575.1666, 3035.584
575.6487, 3033.928
576.1308, 3039.545
576.6129, 3044.243
577.0950, 3043.745
577.5771, 3040.150
578.0593, 3038.185
578.5414, 3038.816
579.0235, 3038.396
579.5056, 3036.547
579.9877, 3033.733
580.4698, 3027.942
580.9520, 3021.446
581.4341, 3020.539
581.9162, 3031.672
582.3983, 3041.879
582.8804, 3028.921
583.3625, 2995.519
583.8447, 2970.087
584.3268, 2957.126
584.8089, 2958.858
585.2910, 2989.455
585.7731, 3044.059
586.2552, 3070.308
586.7374, 3045.729
587.2195, 3010.583
587.7016, 2974.226
588.1837, 2944.504
588.6658, 2938.878
589.1479, 2961.264
589.6301, 2989.743
590.1122, 2996.127
590.5943, 2977.049
591.0764, 2968.155
591.5585, 2985.264
592.0406, 2993.983
592.5228, 2975.486
593.0049, 2949.359
593.4870, 2939.542
593.9691, 2951.958
594.4512, 2972.427
594.9333, 2995.422
595.4155, 3016.547
595.8976, 3009.045
596.3797, 2962.329
596.8618, 2929.366
597.3439, 2954.527
597.8260, 3009.594
598.3082, 3022.174
598.7903, 2970.590
599.2724, 2931.527
599.7545, 2938.861
600.2366, 2965.150
600.7188, 2987.220
601.2009, 3000.122
601.6830, 2998.477
602.1651, 2976.591
602.6472, 2942.518
603.1293, 2927.420
603.6115, 2948.421
604.0936, 2956.795
604.5757, 2934.695
605.0578, 2913.100
605.5399, 2914.192
606.0220, 2933.130
606.5042, 2949.524
606.9863, 2950.580
607.4684, 2945.197
607.9505, 2950.477
608.4326, 2965.943
608.9147, 2970.652
609.3969, 2954.630
609.8790, 2934.595
610.3611, 2931.393
610.8432, 2943.183
611.3253, 2946.584
611.8074, 2933.038
612.2896, 2916.940
612.7717, 2903.919
613.2538, 2894.018
613.7359, 2887.192
614.2180, 2883.316
614.7001, 2881.390
615.1823, 2880.005
615.6644, 2879.012
616.1465, 2881.924
616.6286, 2895.678
617.1107, 2903.512
617.5928, 2898.482
618.0750, 2887.443
618.5571, 2875.813
619.0392, 2864.975
619.5213, 2857.670
620.0034, 2857.087
620.4855, 2861.253
620.9677, 2867.460
621.4498, 2875.780
621.9319, 2879.264
622.4140, 2872.664
622.8961, 2861.143
623.3782, 2856.785
623.8604, 2864.052
624.3425, 2863.602
624.8246, 2846.731
625.3067, 2827.309
625.7888, 2811.961
626.2709, 2802.013
626.7531, 2798.905
627.2352, 2803.496
627.7173, 2811.751
628.1994, 2816.823
628.6815, 2818.685
629.1636, 2817.826
629.6458, 2817.410
630.1279, 2809.715
630.6100, 2784.610
631.0921, 2751.933
631.5742, 2728.972
632.0563, 2720.427
632.5385, 2720.849
633.0206, 2733.227
633.5027, 2750.044
633.9848, 2755.610
634.4669, 2747.751
634.9490, 2734.816
635.4312, 2722.295
635.9133, 2710.005
636.3954, 2696.857
636.8775, 2676.095
637.3596, 2664.031
637.8417, 2670.864
638.3239, 2678.716
638.8060, 2668.255
639.2881, 2646.468
639.7702, 2640.764
640.2523, 2672.492
640.7344, 2716.493
641.2166, 2720.424
641.6987, 2682.408
642.1808, 2646.310
642.6629, 2617.110
643.1450, 2597.377
643.6271, 2593.271
644.1093, 2601.257
644.5914, 2609.733
645.0735, 2622.995
645.5556, 2629.708
646.0377, 2619.835
646.5198, 2602.152
647.0020, 2588.311
647.4841, 2580.908
647.9662, 2576.938
648.4483, 2572.994
648.9304, 2570.508
649.4125, 2582.313
649.8947, 2627.082
650.3768, 2650.359
650.8589, 2630.200
651.3410, 2596.503
651.8231, 2565.035
652.3052, 2538.307
652.7874, 2517.669
653.2695, 2505.789
653.7516, 2498.404
654.2337, 2490.889
654.7158, 2483.437
655.1979, 2475.843
655.6801, 2467.309
656.1622, 2463.676
656.6443, 2474.620
657.1264, 2501.873
657.6085, 2508.932
658.0906, 2472.365
658.5728, 2447.838
659.0549, 2463.382
659.5370, 2488.393
660.0191, 2487.457
660.5012, 2458.144
660.9833, 2427.703
661.4655, 2420.175
661.9476, 2427.464
662.4297, 2422.190
662.9118, 2401.710
663.3939, 2390.457
663.8760, 2400.879
664.3582, 2417.744
664.8403, 2424.459
665.3224, 2421.707
665.8045, 2412.433
666.2866, 2389.982
666.7687, 2368.560
667.2509, 2358.020
667.7330, 2353.232
668.2151, 2345.184
668.6972, 2331.708
669.1793, 2317.425
669.6614, 2306.535
670.1436, 2299.114
670.6257, 2296.817
671.1078, 2303.886
671.5899, 2307.277
672.0720, 2295.512
672.5541, 2284.214
673.0363, 2291.076
673.5184, 2314.164
674.0005, 2326.596
674.4826, 2305.493
674.9647, 2277.755
675.4468, 2273.326
675.9290, 2284.791
676.4111, 2288.280
676.8932, 2276.281
677.3753, 2259.466
677.8574, 2250.671
678.3395, 2250.386
678.8217, 2245.423
679.3038, 2230.489
679.7859, 2217.563
680.2680, 2208.207
680.7501, 2202.086
681.2322, 2200.034
681.7144, 2201.410
682.1965, 2202.569
682.6786, 2199.229
683.1607, 2195.579
683.6428, 2200.191
684.1249, 2211.962
684.6071, 2222.374
685.0892, 2230.050
685.5713, 2230.954
686.0534, 2218.883
686.5355, 2192.892
687.0176, 2170.775
687.4998, 2145.600
687.9819, 2132.516
688.4640, 2146.423
688.9461, 2167.262
689.4282, 2173.590
689.9103, 2164.079
690.3925, 2153.370
690.8746, 2152.817
691.3567, 2158.507
691.8388, 2162.094
692.3209, 2163.653
692.8030, 2161.189
693.2852, 2153.042
693.7673, 2142.841
694.2494, 2133.972
694.7315, 2126.362
695.2136, 2118.843
695.6957, 2108.250
696.1779, 2101.489
696.6600, 2102.855
697.1421, 2108.128
697.6242, 2111.873
698.1063, 2114.059
698.5884, 2120.562
699.0706, 2138.284
699.5527, 2159.299
700.0348, 2157.389
700.5169, 2127.839
700.9990, 2106.031
701.4811, 2102.353
701.9633, 2103.151
702.4454, 2094.611
702.9275, 2080.628
703.4096, 2074.840
703.8917, 2085.924
704.3738, 2095.972
704.8560, 2096.154
705.3381, 2092.066
705.8202, 2089.486
706.3023, 2089.515
706.7844, 2092.090
707.2665, 2097.579
707.7487, 2104.045
708.2308, 2106.947
708.7129, 2107.176
709.1950, 2098.503
709.6771, 2070.006
710.1592, 2046.071
710.6414, 2048.022
711.1235, 2064.731
711.6056, 2071.608
712.0877, 2058.959
712.5698, 2049.640
713.0519, 2061.638
713.5341, 2078.811
714.0162, 2079.325
714.4983, 2065.032
714.9804, 2054.049
715.4625, 2057.040
715.9446, 2066.582
716.4268, 2065.983
716.9089, 2051.979
717.3910, 2042.334
717.8731, 2037.216
718.3552, 2037.079
718.8373, 2047.263
719.3195, 2060.174
719.8016, 2064.614
720.2837, 2058.233
720.7658, 2047.976
721.2479, 2032.802
721.7300, 2018.514
722.2122, 2011.932
722.6943, 2012.052
723.1764, 2014.173
723.6585, 2016.269
724.1406, 2018.878
724.6227, 2022.937
725.1049, 2028.657
725.5870, 2034.738
726.0691, 2046.925
726.5512, 2049.895
727.0333, 2030.562
727.5154, 2004.656
727.9976, 1985.597
728.4797, 1974.856
728.9618, 1973.810
729.4439, 1992.847
729.9260, 2013.457
730.4081, 2016.335
730.8903, 2007.708
731.3724, 2004.902
731.8545, 2012.462
732.3366, 2018.130
732.8187, 2007.537
733.3008, 1982.671
733.7830, 1967.703
734.2651, 1966.603
734.7472, 1966.865
735.2293, 1967.122
735.7114, 1966.745
736.1935, 1961.930
736.6757, 1955.249
737.1578, 1958.282
737.6399, 1986.568
738.1220, 2009.877
738.6041, 2001.128
739.0862, 1976.997
739.5684, 1966.596
740.0505, 1972.074
740.5326, 1972.235
741.0147, 1950.312
741.4968, 1916.029
741.9789, 1900.286
742.4611, 1909.144
742.9432, 1914.130
743.4253, 1910.253
743.9074, 1905.019
744.3895, 1899.729
744.8716, 1896.801
745.3538, 1902.800
745.8359, 1923.450
746.3180, 1937.484
746.8001, 1928.092
747.2822, 1912.637
747.7643, 1912.093
748.2465, 1922.123
748.7286, 1922.900
749.2107, 1905.390
749.6928, 1882.406
750.1749, 1873.646
750.6570, 1879.853
751.1392, 1885.343
751.6213, 1891.872
752.1034, 1893.426
752.5855, 1882.085
753.0676, 1868.348
753.5497, 1867.380
754.0319, 1879.840
754.5140, 1885.492
754.9961, 1876.751
755.4782, 1862.727
755.9603, 1841.634
756.4424, 1821.822
756.9246, 1819.618
757.4067, 1835.665
757.8888, 1850.231
758.3709, 1845.522
758.8530, 1827.302
759.3351, 1814.588
759.8173, 1807.740
760.2994, 1804.077
760.7815, 1805.178
761.2636, 1805.567
761.7457, 1798.855
762.2278, 1787.184
762.7100, 1781.002
763.1921, 1784.994
763.6742, 1787.590
764.1563, 1785.742
764.6384, 1781.831
765.1205, 1778.894
765.6027, 1775.533
766.0848, 1765.741
766.5669, 1746.157
767.0490, 1728.044
767.5311, 1729.434
768.0132, 1746.358
768.4954, 1757.161
768.9775, 1760.416
769.4596, 1757.869
769.9417, 1747.906
770.4238, 1736.224
770.9059, 1734.033
771.3881, 1746.017
771.8702, 1748.279
772.3523, 1736.632
772.8344, 1720.639
773.3165, 1698.865
773.7986, 1677.288
774.2808, 1661.333
774.7629, 1652.213
775.2450, 1649.287
775.7271, 1654.279
776.2092, 1663.238
776.6913, 1671.730
777.1735, 1679.264
777.6556, 1684.077
778.1377, 1685.834
778.6198, 1683.345
779.1019, 1675.322
779.5840, 1662.433
780.0662, 1647.628
780.5483, 1626.106
781.0304, 1611.872
781.5125, 1606.691
781.9946, 1607.943
782.4767, 1619.775
782.9589, 1635.837
783.4410, 1645.561
783.9231, 1647.043
784.4052, 1638.793
784.8873, 1607.754
785.3694, 1574.600
785.8516, 1569.631
786.3337, 1586.446
786.8158, 1597.302
787.2979, 1591.176
787.7800, 1580.393
788.2621, 1582.656
788.7443, 1597.203
789.2264, 1598.113
789.7085, 1578.538
790.1906, 1564.623
790.6727, 1567.753
791.1548, 1575.839
791.6370, 1577.581
792.1191, 1573.548
792.6012, 1567.244
793.0833, 1553.119
793.5654, 1544.310
794.0475, 1551.010
794.5297, 1561.822
795.0118, 1565.426
795.4939, 1561.651
795.9760, 1556.422
796.4581, 1553.325
796.9402, 1548.136
797.4224, 1531.177
797.9045, 1505.078
798.3866, 1487.972
798.8687, 1481.682
799.3508, 1482.675
799.8329, 1491.959
800.3151, 1503.129
800.7972, 1503.653
801.2793, 1489.917
801.7614, 1479.726
802.2435, 1472.792
802.7256, 1469.356
803.2078, 1473.437
803.6899, 1478.518
804.1720, 1474.639
804.6541, 1463.235
805.1362, 1459.992
805.6183, 1482.444
806.1005, 1506.079
806.5826, 1499.244
807.0647, 1475.342
807.5468, 1467.976
808.0289, 1480.928
808.5110, 1488.886
808.9932, 1472.749
809.4753, 1443.256
809.9574, 1429.627
810.4395, 1435.861
810.9216, 1440.076
811.4037, 1442.466
811.8859, 1440.597
812.3680, 1426.256
812.8501, 1410.184
813.3322, 1410.949
813.8143, 1432.752
814.2964, 1445.838
814.7786, 1438.954
815.2607, 1426.292
815.7428, 1409.637
816.2249, 1395.464
816.7070, 1395.885
817.1891, 1410.257
817.6713, 1421.864
818.1534, 1416.237
818.6355, 1402.621
819.1176, 1400.483
819.5997, 1407.908
820.0818, 1408.161
820.5640, 1397.261
821.0461, 1388.900
821.5282, 1393.912
822.0103, 1407.198
822.4924, 1413.342
822.9745, 1410.802
823.4567, 1404.546
823.9388, 1388.463
824.4209, 1375.663
824.9030, 1372.910
825.3851, 1374.951
825.8672, 1375.469
826.3494, 1373.499
826.8315, 1370.513
827.3136, 1367.965
827.7957, 1363.985
828.2778, 1354.813
828.7599, 1343.832
829.2421, 1336.027
829.7242, 1332.978
830.2063, 1337.195
830.6884, 1352.376
831.1705, 1371.188
831.6526, 1372.641
832.1348, 1355.930
832.6169, 1348.689
833.0990, 1358.584
833.5811, 1362.614
834.0632, 1342.305
834.5453, 1310.846
835.0275, 1297.571
835.5096, 1309.390
835.9917, 1319.605
836.4738, 1333.323
836.9559, 1339.251
837.4380, 1326.461
837.9202, 1307.913
838.4023, 1295.991
838.8844, 1293.110
839.3665, 1298.669
839.8486, 1319.420
840.3307, 1339.686
840.8129, 1342.383
841.2950, 1333.300
841.7771, 1320.373
842.2592, 1306.718
842.7413, 1301.970
843.2234, 1313.335
843.7056, 1330.195
844.1877, 1328.606
844.6698, 1306.439
845.1519, 1293.712
845.6340, 1295.443
846.1161, 1294.331
846.5983, 1279.262
847.0804, 1261.257
847.5625, 1258.321
848.0446, 1271.838
848.5267, 1275.911
849.0089, 1257.423
849.4910, 1244.946
849.9731, 1253.437
850.4552, 1265.886
850.9373, 1265.653
851.4194, 1255.037
851.9016, 1247.139
852.3837, 1248.346
852.8658, 1251.104
853.3479, 1249.083
853.8300, 1243.646
854.3121, 1235.154
854.7943, 1225.125
855.2764, 1220.783
855.7585, 1225.349
856.2406, 1230.405
856.7227, 1222.955
857.2048, 1204.804
857.6870, 1200.860
858.1691, 1214.900
858.6512, 1228.690
859.1333, 1239.048
859.6154, 1245.804
860.0975, 1248.765
860.5797, 1247.904
861.0618, 1243.517
861.5439, 1232.068
862.0260, 1223.110
862.5081, 1217.250
862.9902, 1214.517
863.4724, 1218.957
863.9545, 1224.969
864.4366, 1221.946
864.9187, 1207.631
865.4008, 1195.625
865.8829, 1199.640
866.3651, 1206.844
866.8472, 1198.934
867.3293, 1182.949
867.8114, 1177.555
868.2935, 1185.769
868.7756, 1195.586
869.2578, 1198.002
869.7399, 1195.266
870.2220, 1192.139
870.7041, 1188.506
871.1862, 1187.191
871.6683, 1188.835
872.1505, 1191.613
872.6326, 1196.085
873.1147, 1199.421
873.5968, 1196.310
874.0789, 1185.245
874.5610, 1175.838
875.0432, 1165.059
875.5253, 1159.880
876.0074, 1166.167
876.4895, 1175.252
876.9716, 1181.153
877.4537, 1183.270
877.9359, 1182.706
878.4180, 1181.007
878.9001, 1173.799
879.3822, 1150.899
879.8643, 1126.480
880.3464, 1118.218
880.8286, 1122.585
881.3107, 1126.630
881.7928, 1125.617
882.2749, 1123.840
882.7570, 1126.176
883.2391, 1131.253
883.7213, 1135.337
884.2034, 1138.354
884.6855, 1137.514
885.1676, 1131.264
885.6497, 1128.094
886.1318, 1135.709
886.6140, 1150.276
887.0961, 1158.796
887.5782, 1159.773
888.0603, 1158.314
888.5424, 1151.396
889.0245, 1146.243
889.5067, 1148.531
889.9888, 1152.401
890.4709, 1150.576
890.9530, 1142.813
891.4351, 1135.685
891.9172, 1128.931
892.3994, 1125.021
892.8815, 1127.199
893.3636, 1130.991
893.8457, 1131.751
894.3278, 1130.106
894.8099, 1129.552
895.2921, 1131.721
895.7742, 1134.072
896.2563, 1132.799
896.7384, 1130.841
897.2205, 1136.344
897.7026, 1146.286
898.1848, 1146.099
898.6669, 1131.749
899.1490, 1116.358
899.6311, 1112.695
900.1132, 1118.136
900.5953, 1125.576
901.0775, 1136.362
901.5596, 1129.993
902.0417, 1095.621
902.5238, 1071.582
903.0059, 1086.795
903.4880, 1120.505
903.9702, 1128.729
904.4523, 1102.217
904.9344, 1087.340
905.4165, 1088.446
905.8986, 1095.557
906.3807, 1117.743
906.8629, 1136.172
907.3450, 1126.956
907.8271, 1098.127
908.3092, 1086.208
908.7913, 1111.417
909.2734, 1131.899
909.7556, 1122.559
910.2377, 1106.081
910.7198, 1101.280
911.2019, 1105.692
911.6840, 1113.227
912.1661, 1121.139
912.6483, 1123.782
913.1304, 1111.044
913.6125, 1094.977
914.0946, 1099.279
914.5767, 1116.891
915.0588, 1122.236
915.5410, 1112.552
916.0231, 1109.397
916.5052, 1127.605
916.9873, 1153.245
917.4694, 1157.380
917.9515, 1138.987
918.4337, 1126.992
918.9158, 1121.517
919.3979, 1123.846
919.8800, 1139.101
920.3621, 1152.784
920.8442, 1147.475
921.3264, 1125.496
921.8085, 1111.559
922.2906, 1106.432
922.7727, 1108.204
923.2548, 1125.223
923.7369, 1139.637
924.2191, 1140.210
924.7012, 1134.165
925.1833, 1133.422
925.6654, 1139.672
926.1475, 1142.274
926.6296, 1136.375
927.1118, 1128.053
927.5939, 1114.799
928.0760, 1104.617
928.5581, 1109.656
929.0402, 1126.076
929.5223, 1138.708
930.0045, 1140.759
930.4866, 1138.649
930.9687, 1137.388
931.4508, 1136.217
931.9329, 1131.062
932.4150, 1125.028
932.8972, 1130.496
933.3793, 1149.477
933.8614, 1166.920
934.3435, 1169.512
934.8256, 1161.885
935.3077, 1152.588
935.7899, 1142.272
936.2720, 1143.231
936.7541, 1158.148
937.2362, 1166.815
937.7183, 1157.407
938.2004, 1142.707
938.6826, 1142.831
939.1647, 1158.259
939.6468, 1165.475
940.1289, 1158.833
940.6110, 1158.205
941.0931, 1174.066
941.5753, 1187.966
942.0574, 1184.612
942.5395, 1169.907
943.0216, 1159.325
943.5037, 1151.930
943.9858, 1151.661
944.4680, 1170.255
944.9501, 1182.130
945.4322, 1165.876
945.9143, 1146.775
946.3964, 1156.255
946.8785, 1189.380
947.3607, 1211.367
947.8428, 1206.219
948.3249, 1198.075
948.8070, 1196.614
949.2891, 1200.913
949.7712, 1217.544
950.2534, 1236.983
950.7355, 1237.634
951.2176, 1216.235
951.6997, 1196.104
952.1818, 1195.252
952.6639, 1204.671
953.1461, 1215.514
953.6282, 1226.197
954.1103, 1231.827
954.5924, 1232.798
955.0745, 1234.844
955.5566, 1240.853
956.0388, 1247.726
956.5209, 1251.216
957.0030, 1251.942
957.4851, 1252.791
957.9672, 1253.776
958.4493, 1254.731
958.9315, 1255.262
959.4136, 1259.385
959.8957, 1271.343
960.3778, 1286.447
960.8599, 1291.516
961.3420, 1283.308
961.8242, 1281.824
962.3063, 1289.268
962.7884, 1298.302
963.2705, 1308.507
963.7526, 1316.719
964.2347, 1318.264
964.7169, 1314.464
965.1990, 1315.115
965.6811, 1325.641
966.1632, 1332.294
966.6453, 1330.356
967.1274, 1329.938
967.6096, 1337.399
968.0917, 1347.543
968.5738, 1353.216
969.0559, 1354.216
969.5380, 1356.770
970.0201, 1365.351
970.5023, 1371.809
970.9844, 1369.326
971.4665, 1367.171
971.9486, 1374.519
972.4307, 1387.590
972.9128, 1397.193
973.3950, 1401.032
973.8771, 1406.546
974.3592, 1423.845
974.8413, 1439.069
975.3234, 1437.676
975.8055, 1427.722
976.2877, 1416.981
976.7698, 1409.593
977.2519, 1415.402
977.7340, 1439.547
978.2161, 1462.916
978.6982, 1461.043
979.1804, 1446.210
979.6625, 1437.564
980.1446, 1436.769
980.6267, 1452.324
981.1088, 1483.412
981.5909, 1508.929
982.0731, 1513.929
982.5552, 1507.826
983.0373, 1506.666
983.5194, 1509.897
984.0015, 1513.429
984.4836, 1517.149
984.9658, 1522.464
985.4479, 1529.975
985.9300, 1537.644
986.4121, 1543.315
986.8942, 1548.079
987.3763, 1557.069
987.8585, 1572.119
988.3406, 1577.290
988.8227, 1566.635
989.3048, 1564.749
989.7869, 1585.517
990.2690, 1612.315
990.7512, 1624.687
991.2333, 1624.122
991.7154, 1629.206
992.1975, 1643.204
992.6796, 1655.942
993.1617, 1665.690
993.6439, 1675.557
994.1260, 1689.453
994.6081, 1702.969
995.0902, 1708.850
995.5723, 1706.782
996.0544, 1706.849
996.5366, 1702.931
997.0187, 1710.512
997.5008, 1749.770
997.9829, 1783.196
998.4650, 1778.899
998.9471, 1756.981
999.4293, 1754.651
999.9114, 1777.855
1000.393, 1795.112
1000.876, 1791.468
1001.358, 1788.181
1001.840, 1791.831
1002.322, 1801.522
1002.804, 1819.008
1003.286, 1841.072
1003.768, 1862.433
1004.250, 1881.800
1004.733, 1896.022
1005.215, 1899.279
1005.697, 1901.104
1006.179, 1907.829
1006.661, 1917.856
1007.143, 1928.902
1007.625, 1940.941
1008.107, 1955.807
1008.589, 1974.423
1009.072, 1993.051
1009.554, 2008.123
1010.036, 2021.695
1010.518, 2034.939
1011.000, 2049.065
1011.482, 2068.173
1011.964, 2091.219
1012.446, 2109.992
1012.929, 2119.517
1013.411, 2129.521
1013.893, 2158.257
1014.375, 2192.724
1014.857, 2199.891
1015.339, 2189.021
1015.821, 2197.444
1016.303, 2231.240
1016.785, 2265.275
1017.268, 2282.824
1017.750, 2289.071
1018.232, 2286.085
1018.714, 2279.324
1019.196, 2296.229
1019.678, 2334.264
1020.160, 2363.695
1020.642, 2376.489
1021.125, 2386.519
1021.607, 2405.198
1022.089, 2428.073
1022.571, 2442.769
1023.053, 2467.220
1023.535, 2472.018
1024.017, 2509.455
1024.499, 2538.871
1024.981, 2552.360
1025.464, 2559.133
1025.946, 2566.243
1026.428, 2575.287
1026.910, 2592.459
1027.392, 2618.933
1027.874, 2641.279
1028.356, 2657.223
1028.838, 2678.621
1029.321, 2711.172
1029.803, 2745.889
1030.285, 2774.201
1030.767, 2797.602
1031.249, 2822.942
1031.731, 2851.333
1032.213, 2877.958
1032.695, 2903.695
1033.177, 2924.307
1033.660, 2933.660
1034.142, 2944.943
1034.624, 2974.185
1035.106, 3017.608
1035.588, 3049.868
1036.070, 3063.613
1036.552, 3084.030
1037.034, 3114.770
1037.516, 3146.790
1037.999, 3177.323
1038.481, 3206.665
1038.963, 3234.157
1039.445, 3260.383
1039.927, 3290.048
1040.409, 3331.087
1040.891, 3361.426
1041.373, 3365.690
1041.855, 3378.680
1042.338, 3421.351
1042.820, 3472.642
1043.302, 3510.715
1043.784, 3537.293
1044.266, 3567.435
1044.748, 3605.834
1045.230, 3640.458
1045.712, 3663.112
1046.195, 3690.850
1046.677, 3731.998
1047.159, 3780.651
1047.641, 3835.646
1048.123, 3893.792
1048.605, 3937.700
1049.087, 3958.645
1049.569, 3978.188
1050.052, 3988.165
1050.534, 4010.348
1051.016, 4063.058
1051.498, 4127.240
1051.980, 4180.357
1052.462, 4223.905
1052.944, 4277.205
1053.426, 4355.020
1053.908, 4419.935
1054.391, 4459.485
1054.873, 4488.537
1055.355, 4501.361
1055.837, 4517.085
1056.319, 4560.632
1056.801, 4628.371
1057.283, 4692.911
1057.765, 4743.952
1058.248, 4800.092
1058.730, 4870.501
1059.212, 4943.540
1059.694, 5014.635
1060.176, 5083.570
1060.658, 5147.554
1061.140, 5209.530
1061.622, 5283.723
1062.104, 5384.785
1062.587, 5466.348
1063.069, 5480.947
1063.551, 5505.815
1064.033, 5600.359
1064.515, 5719.656
1064.997, 5812.241
1065.479, 5878.377
1065.961, 5944.153
1066.443, 6016.978
1066.926, 6089.069
1067.408, 6152.372
1067.890, 6219.431
1068.372, 6300.603
1068.854, 6387.893
1069.336, 6474.570
1069.818, 6558.513
1070.300, 6636.728
1070.782, 6706.501
1071.265, 6781.803
1071.747, 6873.384
1072.229, 6967.678
1072.711, 7051.889
1073.193, 7138.182
1073.675, 7245.795
1074.157, 7365.741
1074.639, 7470.334
1075.122, 7550.655
1075.604, 7625.972
1076.086, 7699.088
1076.568, 7777.022
1077.050, 7863.876
1077.532, 7957.680
1078.014, 8059.220
1078.496, 8164.943
1078.979, 8266.672
1079.461, 8362.290
1079.943, 8456.748
1080.425, 8550.044
1080.907, 8644.441
1081.389, 8745.261
1081.871, 8843.623
1082.353, 8931.299
1082.835, 9009.620
1083.318, 9076.582
1083.800, 9132.225
1084.282, 9208.132
1084.764, 9352.955
1085.246, 9476.590
1085.728, 9507.867
1086.210, 9523.014
1086.692, 9585.876
1087.175, 9682.994
1087.657, 9784.169
1088.139, 9882.742
1088.621, 9976.859
1089.103, 10068.40
1089.585, 10151.59
1090.067, 10219.96
1090.549, 10283.00
1091.031, 10341.42
1091.514, 10402.43
1091.996, 10477.86
1092.478, 10567.44
1092.960, 10656.11
1093.442, 10744.22
1093.924, 10820.44
1094.406, 10874.67
1094.888, 10922.97
1095.370, 10965.75
1095.853, 11015.67
1096.335, 11097.24
1096.817, 11203.05
1097.299, 11286.71
1097.781, 11328.26
1098.263, 11367.44
1098.745, 11401.91
1099.227, 11454.94
1099.709, 11560.85
1100.192, 11674.92
1100.674, 11740.62
1101.156, 11771.84
1101.638, 11829.90
1102.120, 11937.55
1102.602, 12029.10
1103.084, 12068.67
1103.566, 12114.97
1104.049, 12211.38
1104.531, 12306.08
1105.013, 12338.57
1105.495, 12338.08
1105.977, 12381.02
1106.459, 12483.24
1106.941, 12582.97
1107.423, 12679.47
1107.906, 12759.25
1108.388, 12808.85
1108.870, 12850.42
1109.352, 12898.34
1109.834, 12947.99
1110.316, 12986.96
1110.798, 13014.00
1111.280, 13054.32
1111.762, 13131.60
1112.245, 13190.03
1112.727, 13192.32
1113.209, 13209.76
1113.691, 13293.28
1114.173, 13400.54
1114.655, 13479.78
1115.137, 13532.19
1115.619, 13580.68
1116.102, 13619.98
1116.584, 13664.47
1117.066, 13721.63
1117.548, 13772.56
1118.030, 13805.36
1118.512, 13834.93
1118.994, 13872.94
1119.476, 13920.20
1119.958, 13983.69
1120.441, 14082.81
1120.923, 14132.67
1121.405, 14103.33
1121.887, 14089.25
1122.369, 14110.55
1122.851, 14162.32
1123.333, 14253.78
1123.815, 14360.45
1124.297, 14426.54
1124.780, 14448.34
1125.262, 14476.20
1125.744, 14512.41
1126.226, 14545.92
1126.708, 14574.91
1127.190, 14600.22
1127.672, 14620.70
1128.154, 14641.98
1128.636, 14673.67
1129.119, 14713.57
1129.601, 14737.99
1130.083, 14781.09
1130.565, 14831.20
1131.047, 14861.14
1131.529, 14932.16
1132.011, 14972.60
1132.493, 15001.99
1132.976, 15040.44
1133.458, 15081.99
1133.940, 15106.62
1134.422, 15116.33
1134.904, 15136.63
1135.386, 15168.19
1135.868, 15202.05
1136.350, 15235.63
1136.833, 15261.30
1137.315, 15272.29
1137.797, 15282.78
1138.279, 15322.04
1138.761, 15379.48
1139.243, 15420.58
1139.725, 15446.00
1140.207, 15450.82
1140.689, 15440.56
1141.172, 15451.94
1141.654, 15502.28
1142.136, 15569.07
1142.618, 15642.09
1143.100, 15700.50
1143.582, 15685.29
1144.064, 15638.69
1144.546, 15660.80
1145.029, 15734.89
1145.511, 15773.86
1145.993, 15757.13
1146.475, 15746.38
1146.957, 15787.96
1147.439, 15792.35
1147.921, 15855.38
1148.403, 15864.90
1148.885, 15925.67
1149.368, 16001.55
1149.850, 16015.46
1150.332, 15973.06
1150.814, 15947.67
1151.296, 15968.91
1151.778, 16013.16
1152.260, 16081.42
1152.742, 16150.21
1153.224, 16203.30
1153.707, 16249.61
1154.189, 16310.20
1154.671, 16369.51
1155.153, 16383.29
1155.635, 16342.15
1156.117, 16318.37
1156.599, 16346.07
1157.081, 16378.28
1157.563, 16392.19
1158.046, 16415.21
1158.528, 16478.89
1159.010, 16552.48
1159.492, 16594.49
1159.974, 16605.69
1160.456, 16614.95
1160.938, 16618.67
1161.420, 16631.49
1161.903, 16655.98
1162.385, 16686.54
1162.867, 16724.33
1163.349, 16764.51
1163.831, 16802.94
1164.313, 16841.32
1164.795, 16884.63
1165.277, 16934.87
1165.760, 16974.50
1166.242, 17003.75
1166.724, 17017.02
1167.206, 17000.41
1167.688, 17013.81
1168.170, 17097.82
1168.652, 17199.40
1169.134, 17250.91
1169.616, 17260.36
1170.099, 17259.73
1170.581, 17248.79
1171.063, 17249.53
1171.545, 17263.29
1172.027, 17283.51
1172.509, 17308.23
1172.991, 17349.11
1173.473, 17418.55
1173.956, 17488.88
1174.438, 17502.60
1174.920, 17480.66
1175.402, 17494.83
1175.884, 17534.13
1176.366, 17552.15
1176.848, 17548.15
1177.330, 17559.54
1177.813, 17601.77
1178.295, 17647.87
1178.777, 17665.16
1179.259, 17687.47
1179.741, 17768.40
1180.223, 17872.91
1180.705, 17969.95
1181.187, 18041.61
1181.669, 18044.00
1182.151, 17985.17
1182.634, 17943.59
1183.116, 17958.40
1183.598, 17981.86
1184.080, 17979.29
1184.562, 17983.83
1185.044, 18025.34
1185.526, 18078.76
1186.008, 18123.34
1186.490, 18156.14
1186.973, 18174.18
1187.455, 18175.71
1187.937, 18183.76
1188.419, 18204.23
1188.901, 18229.55
1189.383, 18255.48
1189.865, 18289.30
1190.347, 18349.43
1190.830, 18407.53
1191.312, 18430.46
1191.794, 18424.50
1192.276, 18419.41
1192.758, 18409.59
1193.240, 18420.71
1193.722, 18457.99
1194.204, 18502.88
1194.687, 18556.27
1195.169, 18599.30
1195.651, 18618.27
1196.133, 18625.25
1196.615, 18637.84
1197.097, 18656.55
1197.579, 18686.57
1198.061, 18727.42
1198.543, 18768.87
1199.026, 18809.35
1199.508, 18836.34
1199.990, 18846.47
1200.472, 18865.52
1200.954, 18917.48
1201.436, 18970.50
1201.918, 18961.20
1202.400, 18997.67
1202.883, 19012.12
1203.365, 19014.16
1203.847, 19040.67
1204.329, 19035.52
1204.811, 19050.97
1205.293, 19105.30
1205.775, 19156.27
1206.257, 19167.90
1206.740, 19175.87
1207.222, 19213.54
1207.704, 19251.98
1208.186, 19247.40
1208.668, 19236.51
1209.150, 19288.63
1209.632, 19392.83
1210.114, 19461.16
1210.596, 19461.21
1211.078, 19467.62
1211.561, 19488.73
1212.043, 19527.04
1212.525, 19613.15
1213.007, 19683.73
1213.489, 19681.19
1213.971, 19651.18
1214.453, 19663.62
1214.935, 19716.46
1215.417, 19777.23
1215.900, 19854.23
1216.382, 19902.03
1216.864, 19907.22
1217.346, 19934.71
1217.828, 20010.63
1218.310, 20082.22
1218.792, 20108.72
1219.274, 20111.06
1219.757, 20127.09
1220.239, 20153.78
1220.721, 20168.46
1221.203, 20179.29
1221.685, 20231.78
1222.167, 20324.82
1222.649, 20428.56
1223.131, 20528.77
1223.614, 20593.51
1224.096, 20586.12
1224.578, 20572.01
1225.060, 20618.99
1225.542, 20703.27
1226.024, 20820.01
1226.506, 20939.44
1226.988, 21019.39
1227.470, 21061.33
1227.953, 21082.10
1228.435, 21084.92
1228.917, 21098.42
1229.399, 21144.81
1229.881, 21187.02
1230.363, 21181.35
1230.845, 21204.41
1231.327, 21332.80
1231.810, 21490.88
1232.292, 21589.99
1232.774, 21640.67
1233.256, 21684.87
1233.738, 21718.37
1234.220, 21762.09
1234.702, 21811.61
1235.184, 21888.23
1235.667, 22003.32
1236.149, 22118.10
1236.631, 22214.42
1237.113, 22291.34
1237.595, 22347.21
1238.077, 22384.23
1238.559, 22395.00
1239.041, 22392.82
1239.523, 22454.02
1240.005, 22569.86
1240.488, 22688.86
1240.970, 22794.51
1241.452, 22858.21
1241.934, 22865.70
1242.416, 22898.11
1242.898, 23065.82
1243.380, 23253.35
1243.862, 23327.80
1244.344, 23373.96
1244.827, 23495.83
1245.309, 23657.28
1245.791, 23785.79
1246.273, 23877.10
1246.755, 23971.40
1247.237, 24081.06
1247.719, 24186.80
1248.201, 24268.19
1248.684, 24368.40
1249.166, 24524.80
1249.648, 24673.82
1250.130, 24764.49
1250.612, 24843.29
1251.094, 24980.21
1251.576, 25079.32
1252.058, 25207.34
1252.541, 25350.64
1253.023, 25477.69
1253.505, 25684.31
1253.987, 25838.18
1254.469, 25907.39
1254.951, 26000.40
1255.433, 26181.29
1255.915, 26382.16
1256.397, 26515.75
1256.880, 26620.41
1257.362, 26767.95
1257.844, 26943.39
1258.326, 27115.46
1258.808, 27289.55
1259.290, 27506.26
1259.772, 27750.72
1260.254, 27926.89
1260.737, 27983.74
1261.219, 28065.27
1261.701, 28296.10
1262.183, 28504.78
1262.665, 28547.50
1263.147, 28603.27
1263.629, 28831.54
1264.111, 29135.69
1264.594, 29386.06
1265.076, 29581.10
1265.558, 29735.94
1266.040, 29958.22
1266.522, 30160.41
1267.004, 30319.04
1267.486, 30576.91
1267.968, 30711.38
1268.450, 30863.20
1268.932, 31109.50
1269.415, 31365.75
1269.897, 31532.26
1270.379, 31656.09
1270.861, 31849.66
1271.343, 32097.05
1271.825, 32362.19
1272.307, 32635.21
1272.789, 32897.77
1273.271, 33143.17
1273.754, 33355.26
1274.236, 33530.48
1274.718, 33704.70
1275.200, 33876.99
1275.682, 34091.67
1276.164, 34418.23
1276.646, 34748.55
1277.128, 34998.77
1277.611, 35213.60
1278.093, 35442.89
1278.575, 35684.97
1279.057, 35914.54
1279.539, 36128.94
1280.021, 36359.26
1280.503, 36589.61
1280.985, 36871.65
1281.468, 37251.73
1281.950, 37555.48
1282.432, 37701.71
1282.914, 37843.02
1283.396, 38108.95
1283.878, 38447.16
1284.360, 38777.81
1284.842, 39080.81
1285.324, 39303.52
##END=



