##NAMES=Strashimirite
##RRUFFID=R060142
##IDEAL CHEMISTRY=Cu^2+^_4_(As^5+^O_4_)_2_(OH)_2_&#183;2.5H_2_O
##LOCALITY=Majuba Hill, Pershing County, Nevada, USA
##OWNER=RRUFF
##SOURCE=Marcus Origlieri
##DESCRIPTION=White to colorless fibrous or hair-like aggregate
##STATUS=The identification of this mineral is not yet confirmed.
##URL=rruff.info/R060142
111.8524, 0.0000000E+00
112.3345, 0.4544320
112.8167, 0.2333730
113.2988, 1.9254001E-02
113.7809, 0.1673500
114.2630, 0.4917050
114.7451, 1.099313
115.2272, 1.295667
115.7094, 1.396901
116.1915, 1.270997
116.6736, 0.5246820
117.1557, 4.7656000E-02
117.6378, 4.4930998E-02
118.1199, 0.4143920
118.6021, 0.8734640
119.0842, 0.9220710
119.5663, 0.5224800
120.0484, 0.3574220
120.5305, 0.4813060
121.0126, 0.7956940
121.4948, 1.351803
121.9769, 2.201037
122.4590, 2.906721
122.9411, 2.778372
123.4232, 2.045452
123.9053, 1.413399
124.3875, 1.158044
124.8696, 1.182009
125.3517, 1.230221
125.8338, 1.305261
126.3159, 1.359423
126.7980, 1.361193
127.2802, 1.316534
127.7623, 1.254884
128.2444, 1.183866
128.7265, 1.093394
129.2086, 1.059169
129.6907, 1.153450
130.1729, 1.259773
130.6550, 1.369319
131.1371, 1.460781
131.6192, 1.471172
132.1013, 1.264142
132.5834, 0.5494810
133.0656, 0.2106580
133.5477, 0.4133660
134.0298, 0.8319420
134.5119, 1.294941
134.9940, 1.728653
135.4761, 2.067545
135.9583, 2.164115
136.4404, 1.771383
136.9225, 1.427206
137.4046, 1.047470
137.8867, 0.7520140
138.3688, 0.8001780
138.8510, 1.397088
139.3331, 2.317346
139.8152, 2.595332
140.2973, 1.892041
140.7794, 1.228155
141.2615, 1.095441
141.7437, 1.395437
142.2258, 1.660955
142.7079, 1.576612
143.1900, 1.348182
143.6721, 1.454391
144.1542, 2.160842
144.6364, 2.815967
145.1185, 3.067990
145.6006, 2.871910
146.0827, 2.551639
146.5648, 2.115215
147.0469, 1.681716
147.5291, 1.396247
148.0112, 1.326128
148.4933, 1.423235
148.9754, 1.603559
149.4575, 2.007067
149.9396, 2.255705
150.4218, 2.162986
150.9039, 1.896871
151.3860, 1.679502
151.8681, 1.586562
152.3502, 1.628236
152.8323, 1.571704
153.3145, 1.242562
153.7966, 0.9921070
154.2787, 0.9138430
154.7608, 0.9564760
155.2429, 1.041420
155.7250, 1.115333
156.2072, 1.186615
156.6893, 1.197181
157.1714, 0.9119800
157.6535, 0.7241210
158.1356, 0.9371350
158.6177, 1.496195
159.0999, 2.005024
159.5820, 1.980556
160.0641, 1.350410
160.5462, 0.9576750
161.0283, 0.9590800
161.5104, 1.081321
161.9926, 1.116445
162.4747, 1.037578
162.9568, 0.9517270
163.4389, 1.022197
163.9210, 1.235087
164.4031, 1.274320
164.8853, 0.9404890
165.3674, 0.4438690
165.8495, 8.4833004E-02
166.3316, 9.3370996E-02
166.8137, 0.1339310
167.2958, 3.8619999E-02
167.7780, 0.1634690
168.2601, 0.3801620
168.7422, 0.5628600
169.2243, 0.7238160
169.7064, 0.9356550
170.1885, 1.276845
170.6707, 1.538297
171.1528, 1.574395
171.6349, 1.419575
172.1170, 1.213011
172.5991, 1.050907
173.0812, 0.9364920
173.5634, 0.8318390
174.0455, 0.8111520
174.5276, 0.7342990
175.0097, 0.3948800
175.4918, 0.1212200
175.9739, 0.4817520
176.4561, 0.2295200
176.9382, 0.9598250
177.4203, 1.652498
177.9024, 1.554276
178.3845, 1.252447
178.8666, 0.9862660
179.3488, 0.8191100
179.8309, 0.7209630
180.3130, 0.6501460
180.7951, 0.5736440
181.2772, 0.6194750
181.7593, 0.9719730
182.2415, 1.313669
182.7236, 1.370537
183.2057, 1.092384
183.6878, 0.6714720
184.1699, 0.3905050
184.6520, 0.2821410
185.1342, 0.2927440
185.6163, 0.5564520
186.0984, 0.8830550
186.5805, 1.055946
187.0626, 1.006339
187.5447, 0.8513800
188.0269, 0.8028760
188.5090, 0.9151400
188.9911, 0.9069850
189.4732, 0.5525440
189.9553, 6.1468001E-02
190.4374, 0.1603190
190.9196, 6.6579998E-02
191.4017, 0.4534280
191.8838, 0.5436480
192.3659, 0.3159680
192.8480, 0.1500620
193.3301, 0.3157720
193.8123, 0.7079530
194.2944, 0.9263360
194.7765, 0.8005450
195.2586, 0.5442070
195.7407, 0.3544090
196.2228, 0.2310370
196.7050, 0.2332180
197.1871, 0.4786620
197.6692, 0.9530140
198.1513, 1.336161
198.6334, 1.639399
199.1155, 1.745899
199.5977, 1.496792
200.0798, 0.9071500
200.5619, 0.2821000
201.0440, 7.3365003E-02
201.5261, 0.1262110
202.0082, 0.1409990
202.4904, 0.1822440
202.9725, 0.1638750
203.4546, 5.5009998E-02
203.9367, 0.4400750
204.4188, 0.7624980
204.9009, 0.7054730
205.3831, 3.3101998E-02
205.8652, 0.2785870
206.3473, 0.1130370
206.8294, 0.6078220
207.3115, 0.8268770
207.7936, 0.7294580
208.2758, 0.5668800
208.7579, 0.7395080
209.2400, 1.607101
209.7221, 1.994306
210.2042, 1.499937
210.6863, 0.8920620
211.1685, 0.7251810
211.6506, 1.094923
212.1327, 1.665483
212.6148, 2.029766
213.0969, 2.084112
213.5790, 2.114981
214.0612, 2.119812
214.5433, 2.104920
215.0254, 2.084752
215.5075, 2.060036
215.9896, 1.998560
216.4717, 1.828640
216.9539, 1.396918
217.4360, 1.267839
217.9181, 1.806641
218.4002, 2.475032
218.8823, 2.648729
219.3644, 2.172508
219.8466, 1.564649
220.3287, 1.609044
220.8108, 2.474095
221.2929, 3.009485
221.7750, 2.753196
222.2571, 2.202966
222.7393, 2.036828
223.2214, 2.437876
223.7035, 2.950112
224.1856, 2.928130
224.6677, 2.424242
225.1498, 2.042947
225.6320, 2.039400
226.1141, 2.223167
226.5962, 2.259322
227.0783, 2.039784
227.5604, 1.833878
228.0425, 2.078227
228.5247, 2.639237
229.0068, 2.896506
229.4889, 2.306187
229.9710, 1.270588
230.4531, 0.7208980
230.9352, 0.8891100
231.4174, 1.263084
231.8995, 1.483247
232.3816, 1.589088
232.8637, 1.678724
233.3458, 1.783747
233.8279, 1.887911
234.3101, 2.000727
234.7922, 2.107706
235.2743, 2.245521
235.7564, 2.546926
236.2385, 2.902573
236.7206, 3.084443
237.2028, 2.893957
237.6849, 2.415914
238.1670, 2.001974
238.6491, 1.691889
239.1312, 1.391448
239.6133, 0.9761540
240.0955, 0.5486320
240.5776, 0.2819590
241.0597, 0.2998540
241.5418, 0.5543520
242.0239, 0.8195500
242.5060, 1.078219
242.9882, 1.380009
243.4703, 1.914409
243.9524, 2.465669
244.4345, 2.686323
244.9166, 2.325916
245.3987, 1.541695
245.8809, 1.093801
246.3630, 1.287508
246.8451, 1.448396
247.3272, 1.446886
247.8093, 1.326257
248.2914, 1.099836
248.7736, 0.7870370
249.2557, 0.4639720
249.7378, 0.4984660
250.2199, 1.543476
250.7020, 2.119835
251.1841, 1.631116
251.6663, 0.7191000
252.1484, 0.1820140
252.6305, 0.4081860
253.1126, 1.131447
253.5947, 1.518951
254.0768, 1.216537
254.5590, 0.9712830
255.0411, 0.8947430
255.5232, 0.8754850
256.0053, 0.7569840
256.4874, 0.4755580
256.9695, 0.1302930
257.4517, 3.9057001E-02
257.9338, 0.1963740
258.4159, 0.3782660
258.8980, 0.4834090
259.3801, 0.5164820
259.8622, 0.3879210
260.3444, 7.1125999E-02
260.8265, 0.2680810
261.3086, 0.3061170
261.7907, 0.2308180
262.2728, 0.6286870
262.7549, 0.8738110
263.2371, 0.9716950
263.7192, 0.8571000
264.2013, 0.5667700
264.6834, 0.2452020
265.1655, 0.1308000
265.6476, 0.3024310
266.1298, 0.5228000
266.6119, 1.015676
267.0940, 1.433290
267.5761, 1.314800
268.0582, 0.5949100
268.5403, 0.1868340
269.0225, 0.3771970
269.5046, 0.2015140
269.9867, 0.6516330
270.4688, 0.9889090
270.9509, 1.167996
271.4330, 1.068495
271.9152, 0.6955900
272.3973, 0.3074220
272.8794, 0.1540280
273.3615, 0.2599110
273.8436, 0.3471160
274.3257, 0.3971090
274.8079, 0.4372910
275.2900, 0.4959250
275.7721, 0.5722400
276.2542, 0.6348560
276.7363, 0.6705120
277.2184, 0.6682930
277.7006, 0.6041680
278.1827, 0.3136490
278.6648, 9.2462003E-02
279.1469, 0.2219490
279.6290, 0.6607510
280.1111, 1.080559
280.5933, 1.328130
281.0754, 1.378582
281.5575, 1.240597
282.0396, 0.7230830
282.5217, 0.2509340
283.0038, 0.1089250
283.4860, 0.2521880
283.9681, 0.4444690
284.4502, 0.5828080
284.9323, 0.7081180
285.4144, 0.9386810
285.8965, 1.389145
286.3787, 1.672604
286.8608, 1.447691
287.3429, 0.8501600
287.8250, 0.3712560
288.3071, 0.1861320
288.7892, 0.1725190
289.2714, 0.1503060
289.7535, 0.1172050
290.2356, 9.3339004E-02
290.7177, 7.6232001E-02
291.1998, 7.4955001E-02
291.6819, 0.1340120
292.1641, 0.3050190
292.6462, 0.4537050
293.1283, 0.3682270
293.6104, 8.2189001E-02
294.0925, 9.6060999E-02
294.5746, 4.8920000E-03
295.0568, 0.2702600
295.5389, 0.5882090
296.0210, 0.9628750
296.5031, 1.289510
296.9852, 1.475831
297.4673, 1.550390
297.9495, 1.541274
298.4316, 1.391435
298.9137, 1.199175
299.3958, 1.115843
299.8779, 1.157296
300.3600, 1.244134
300.8422, 1.429359
301.3243, 1.608594
301.8064, 1.564286
302.2885, 1.075222
302.7706, 0.5109330
303.2527, 0.3560920
303.7349, 0.6429530
304.2170, 0.8646870
304.6991, 0.7029280
305.1812, 0.3742260
305.6633, 0.1545060
306.1454, 6.5277003E-02
306.6276, 0.1186550
307.1097, 0.4400660
307.5918, 1.004552
308.0739, 1.360793
308.5560, 1.268382
309.0381, 0.9677570
309.5203, 0.7043970
310.0024, 0.4735260
310.4845, 0.3697020
310.9666, 0.5875160
311.4487, 1.031882
311.9308, 1.192271
312.4130, 0.8066640
312.8951, 0.3479320
313.3772, 0.3452630
313.8593, 0.7186070
314.3414, 0.9332290
314.8235, 0.4298230
315.3057, 0.4200570
315.7878, 0.5326370
316.2699, 0.4721820
316.7520, 1.505604
317.2341, 1.638767
317.7162, 1.193954
318.1984, 0.8412530
318.6805, 0.9162270
319.1626, 1.168858
319.6447, 1.181934
320.1268, 0.8866150
320.6089, 0.5780530
321.0911, 0.3683510
321.5732, 0.2679030
322.0553, 0.3414660
322.5374, 0.7181990
323.0195, 1.075788
323.5016, 0.9853360
323.9838, 0.4415270
324.4659, 8.4573999E-02
324.9480, 0.1796870
325.4301, 0.4843940
325.9122, 0.7873780
326.3943, 1.088075
326.8765, 1.298572
327.3586, 1.273129
327.8407, 1.067613
328.3228, 1.159806
328.8049, 1.843357
329.2870, 2.599031
329.7692, 2.903028
330.2513, 2.787762
330.7334, 2.535265
331.2155, 2.224239
331.6976, 1.878874
332.1797, 1.534719
332.6619, 1.166166
333.1440, 0.8822940
333.6261, 0.8006280
334.1082, 0.8715020
334.5903, 1.019632
335.0724, 1.370946
335.5546, 1.682538
336.0367, 1.604235
336.5188, 1.104373
337.0009, 0.6600390
337.4830, 0.5733080
337.9651, 0.7188340
338.4473, 0.8618170
338.9294, 0.9953790
339.4115, 1.094261
339.8936, 1.113045
340.3757, 1.064411
340.8578, 1.035627
341.3400, 1.035903
341.8221, 1.103275
342.3042, 1.331356
342.7863, 1.773347
343.2684, 2.088294
343.7505, 1.955920
344.2327, 1.578473
344.7148, 1.507371
345.1969, 1.958786
345.6790, 2.465800
346.1611, 2.381903
346.6432, 1.808498
347.1254, 1.361859
347.6075, 1.255543
348.0896, 1.335281
348.5717, 1.441809
349.0538, 1.563906
349.5359, 1.680958
350.0181, 1.817046
350.5002, 1.932465
350.9823, 1.886824
351.4644, 1.491598
351.9465, 1.084424
352.4286, 0.9654480
352.9108, 1.066407
353.3929, 1.026970
353.8750, 0.5813360
354.3571, 1.4761000E-02
354.8392, 9.9583000E-02
355.3214, 0.5281120
355.8035, 1.124629
356.2856, 1.390260
356.7677, 1.451950
357.2498, 1.530022
357.7319, 1.686700
358.2141, 1.876748
358.6962, 2.078539
359.1783, 2.329812
359.6604, 2.356417
360.1425, 1.883296
360.6246, 1.322179
361.1068, 1.084796
361.5889, 1.196260
362.0710, 1.392920
362.5531, 1.465650
363.0352, 1.413064
363.5173, 1.364180
363.9995, 1.331498
364.4816, 1.289698
364.9637, 1.229511
365.4458, 1.150481
365.9279, 1.039024
366.4100, 0.8773870
366.8922, 0.7036700
367.3743, 0.6512270
367.8564, 0.8566910
368.3385, 0.9816800
368.8206, 0.9055630
369.3027, 0.7598170
369.7849, 0.6974800
370.2670, 0.7606520
370.7491, 0.8910440
371.2312, 1.025888
371.7133, 1.221571
372.1954, 1.216704
372.6776, 0.8152170
373.1597, 0.3713200
373.6418, 0.1169470
374.1239, 9.1348998E-02
374.6060, 0.1755440
375.0881, 0.3202060
375.5703, 0.5228010
376.0524, 0.5707760
376.5345, 0.2419030
377.0166, 2.9690000E-03
377.4987, 5.0120000E-03
377.9808, 0.1430310
378.4630, 0.2191330
378.9451, 0.1430820
379.4272, 1.9500000E-04
379.9093, 1.3246000E-02
380.3914, 0.4410610
380.8735, 0.5775070
381.3557, 3.8874999E-02
381.8378, 0.5169550
382.3199, 0.5678220
382.8020, 6.7515001E-02
383.2841, 0.6513140
383.7662, 1.275475
384.2484, 1.843374
384.7305, 2.057936
385.2126, 1.540735
385.6947, 1.019577
386.1768, 0.6532640
386.6589, 0.4624510
387.1411, 0.4587050
387.6232, 0.6774280
388.1053, 1.043536
388.5874, 1.286413
389.0695, 1.366110
389.5516, 1.389393
390.0338, 1.475731
390.5159, 1.477442
390.9980, 1.171476
391.4801, 0.5026290
391.9622, 0.1813350
392.4443, 0.4206690
392.9265, 0.1511480
393.4086, 0.1077950
393.8907, 0.2917130
394.3728, 0.4649410
394.8549, 0.6834930
395.3370, 0.9236420
395.8192, 1.099476
396.3013, 1.105937
396.7834, 1.030695
397.2655, 1.165426
397.7476, 1.641660
398.2297, 1.983852
398.7119, 1.800006
399.1940, 1.376521
399.6761, 1.061527
400.1582, 0.9437360
400.6403, 0.9526720
401.1224, 1.101396
401.6046, 1.373860
402.0867, 1.450445
402.5688, 1.100573
403.0509, 0.6656710
403.5330, 0.5844600
404.0151, 0.8629730
404.4973, 1.114853
404.9794, 1.148092
405.4615, 1.051862
405.9436, 0.9482140
406.4257, 0.8399540
406.9078, 0.8175420
407.3900, 0.9710070
407.8721, 1.285074
408.3542, 1.647551
408.8363, 2.213758
409.3184, 2.679765
409.8005, 2.749492
410.2827, 2.530138
410.7648, 2.418638
411.2469, 2.626493
411.7290, 2.967108
412.2111, 2.971878
412.6932, 2.442469
413.1754, 2.122898
413.6575, 2.308190
414.1396, 2.664200
414.6217, 2.883510
415.1038, 2.900807
415.5859, 2.732873
416.0681, 2.357078
416.5502, 1.736989
417.0323, 1.335243
417.5144, 1.180663
417.9965, 1.172554
418.4786, 1.336065
418.9608, 1.608426
419.4429, 1.927892
419.9250, 2.272012
420.4071, 2.556400
420.8892, 2.528548
421.3713, 1.815801
421.8535, 1.353854
422.3356, 1.267362
422.8177, 1.351716
423.2998, 1.518122
423.7819, 1.715113
424.2640, 1.849339
424.7462, 1.804454
425.2283, 1.563271
425.7104, 1.395939
426.1925, 1.344197
426.6746, 1.328025
427.1567, 1.308735
427.6389, 1.313096
428.1210, 1.422750
428.6031, 1.705553
429.0852, 1.995542
429.5673, 1.898784
430.0494, 1.273767
430.5316, 0.7740590
431.0137, 0.6927990
431.4958, 0.6952660
431.9779, 0.5584960
432.4600, 0.2751200
432.9421, 1.3382000E-02
433.4243, 0.1038120
433.9064, 9.4237000E-02
434.3885, 4.6801999E-02
434.8706, 6.7420001E-03
435.3527, 0.1625640
435.8348, 0.6318850
436.3170, 1.221156
436.7991, 1.586049
437.2812, 1.526976
437.7633, 1.378040
438.2454, 1.517727
438.7275, 1.886379
439.2097, 2.042147
439.6918, 1.729710
440.1739, 1.242465
440.6560, 1.018054
441.1381, 1.037474
441.6202, 1.057557
442.1024, 0.9555860
442.5845, 0.8514330
443.0666, 0.9310790
443.5487, 1.195395
444.0308, 1.415908
444.5129, 1.406320
444.9951, 1.194173
445.4772, 1.056850
445.9593, 1.088501
446.4414, 1.075255
446.9235, 0.8832320
447.4056, 0.6256450
447.8878, 0.5082120
448.3699, 0.5967990
448.8520, 0.7212650
449.3341, 0.6000700
449.8162, 5.5764999E-02
450.2983, 0.2736850
450.7805, 0.1842840
451.2626, 5.0081000E-02
451.7447, 0.1267270
452.2268, 0.3373920
452.7089, 0.4275330
453.1910, 0.2107460
453.6732, 0.2250750
454.1553, 0.5044810
454.6374, 0.5324940
455.1195, 0.5591080
455.6016, 0.6670670
456.0837, 0.7645740
456.5659, 0.7249410
457.0480, 0.5451820
457.5301, 0.4106530
458.0122, 0.5744450
458.4943, 1.028604
458.9764, 1.325932
459.4586, 1.452518
459.9407, 1.407458
460.4228, 1.062391
460.9049, 0.5880180
461.3870, 0.2996830
461.8691, 0.3541990
462.3513, 0.5607150
462.8334, 0.6583980
463.3155, 0.6568390
463.7976, 0.8451330
464.2797, 1.507443
464.7618, 2.240929
465.2440, 2.452723
465.7261, 2.135451
466.2082, 1.750270
466.6903, 1.275138
467.1724, 0.8936350
467.6545, 0.9195840
468.1367, 1.350107
468.6188, 1.781412
469.1009, 1.962525
469.5830, 1.917627
470.0651, 1.777279
470.5472, 1.463789
471.0294, 1.168827
471.5115, 0.8560640
471.9936, 0.6235350
472.4757, 0.6783890
472.9578, 1.047809
473.4399, 1.429148
473.9221, 1.442844
474.4042, 1.007887
474.8863, 0.6705290
475.3684, 0.3286440
475.8505, 0.1741230
476.3326, 0.4387090
476.8148, 0.9079480
477.2969, 1.220073
477.7790, 1.195329
478.2611, 0.9766330
478.7432, 0.8703520
479.2253, 0.9371030
479.7075, 0.9453400
480.1896, 0.7440350
480.6717, 0.5822970
481.1538, 0.6205310
481.6359, 0.8358700
482.1180, 1.090781
482.6002, 1.347340
483.0823, 1.559055
483.5644, 1.541033
484.0465, 1.204583
484.5286, 0.9704320
485.0107, 1.187143
485.4929, 1.521306
485.9750, 1.514803
486.4571, 1.037558
486.9392, 0.6616800
487.4213, 0.8425470
487.9034, 1.359304
488.3856, 1.766241
488.8677, 2.009633
489.3498, 2.021189
489.8319, 1.629066
490.3140, 0.8857080
490.7961, 0.4829540
491.2783, 0.6715650
491.7604, 0.9297290
492.2425, 0.9982580
492.7246, 0.9733410
493.2067, 1.084902
493.6888, 1.409539
494.1710, 1.746264
494.6531, 1.763197
495.1352, 1.306040
495.6173, 1.011895
496.0994, 0.9910870
496.5815, 1.001129
497.0637, 0.8644680
497.5458, 0.6710800
498.0279, 0.6625640
498.5100, 0.9958080
498.9921, 1.486369
499.4742, 1.636398
499.9564, 1.260324
500.4385, 1.013429
500.9206, 1.140602
501.4027, 1.301842
501.8848, 1.292355
502.3669, 1.113707
502.8491, 0.8844140
503.3312, 0.6326550
503.8133, 0.4009970
504.2954, 0.3014890
504.7775, 0.3352740
505.2596, 0.5095440
505.7418, 0.9978410
506.2239, 1.532909
506.7060, 1.714561
507.1881, 1.451355
507.6702, 1.132908
508.1523, 0.9028690
508.6345, 0.7613960
509.1166, 0.6492680
509.5987, 0.5435120
510.0808, 0.5440970
510.5629, 0.7875790
511.0450, 1.261590
511.5272, 1.599188
512.0093, 1.852410
512.4914, 1.900634
512.9735, 1.540170
513.4556, 1.024132
513.9377, 0.6812830
514.4199, 0.6000340
514.9020, 0.6370940
515.3841, 0.6076680
515.8662, 0.4824720
516.3483, 0.4923500
516.8304, 0.8674500
517.3126, 1.133626
517.7947, 1.064121
518.2768, 0.8296800
518.7589, 0.7035070
519.2410, 0.7997060
519.7231, 0.9446340
520.2053, 0.8989270
520.6874, 0.6559900
521.1695, 0.2695830
521.6516, 0.5806760
522.1337, 1.135587
522.6158, 0.6390520
523.0980, 0.5481690
523.5801, 1.377948
524.0622, 1.243647
524.5443, 0.8476820
525.0264, 0.9528970
525.5085, 1.444182
525.9907, 1.738307
526.4728, 1.596039
526.9549, 1.247281
527.4370, 0.9973540
527.9191, 0.8351460
528.4012, 0.8270020
528.8834, 1.223477
529.3655, 1.530491
529.8476, 1.396262
530.3297, 0.9636440
530.8118, 0.6919860
531.2939, 0.8391550
531.7761, 1.224889
532.2582, 1.386540
532.7403, 1.179566
533.2224, 1.006648
533.7045, 0.9210460
534.1866, 0.8263150
534.6688, 0.5957460
535.1509, 0.3065470
535.6330, 0.2029260
536.1151, 0.4990630
536.5972, 1.015809
537.0793, 1.248779
537.5615, 1.119434
538.0436, 1.027063
538.5257, 1.145059
539.0078, 1.299389
539.4899, 1.299973
539.9720, 1.154172
540.4542, 1.095960
540.9363, 1.353452
541.4184, 1.708751
541.9005, 1.836429
542.3826, 1.733518
542.8647, 1.586644
543.3469, 1.489235
543.8290, 1.412883
544.3111, 1.281238
544.7932, 1.083067
545.2753, 0.8681500
545.7574, 0.4629900
546.2396, 0.1712450
546.7217, 0.3930440
547.2038, 1.027457
547.6859, 1.558379
548.1680, 1.611732
548.6501, 1.298838
549.1323, 1.108125
549.6144, 1.069701
550.0965, 1.111997
550.5786, 1.358635
551.0607, 1.571447
551.5428, 1.502497
552.0250, 1.193534
552.5071, 0.9546040
552.9892, 1.033113
553.4713, 1.340620
553.9534, 1.707118
554.4355, 2.208850
554.9177, 2.347616
555.3998, 1.635413
555.8819, 0.6620120
556.3640, 0.2365760
556.8461, 0.4256190
557.3282, 0.7059780
557.8104, 1.016787
558.2925, 1.227935
558.7746, 1.077246
559.2567, 0.6149990
559.7388, 0.3036720
560.2209, 0.4388580
560.7031, 0.8923670
561.1852, 1.261923
561.6673, 1.569014
562.1494, 1.736427
562.6315, 1.752785
563.1136, 1.654008
563.5958, 1.385454
564.0779, 1.011281
564.5600, 0.7092100
565.0421, 0.5975680
565.5242, 0.6603220
566.0063, 0.9016090
566.4885, 1.461102
566.9706, 1.787324
567.4527, 1.556441
567.9348, 1.185075
568.4169, 0.8687590
568.8990, 0.6477330
569.3812, 0.6284490
569.8633, 1.058083
570.3454, 1.622736
570.8275, 1.859161
571.3096, 1.778976
571.7917, 1.608790
572.2739, 1.427009
572.7560, 1.228491
573.2381, 0.9904390
573.7202, 0.6841490
574.2023, 0.4483650
574.6844, 0.2958200
575.1666, 0.2165770
575.6487, 0.2002000
576.1308, 0.2510220
576.6129, 0.4091860
577.0950, 0.7031050
577.5771, 1.036628
578.0593, 1.172538
578.5414, 0.9871250
579.0235, 0.9426850
579.5056, 1.345743
579.9877, 1.556162
580.4698, 1.202624
580.9520, 0.5092180
581.4341, 6.8007000E-02
581.9162, 0.3297260
582.3983, 0.3318070
582.8804, 5.5337999E-02
583.3625, 0.4692660
583.8447, 0.9472630
584.3268, 1.393618
584.8089, 1.579433
585.2910, 1.009955
585.7731, 0.1968000
586.2552, 0.7776600
586.7374, 5.3862002E-02
587.2195, 0.7243320
587.7016, 0.8276890
588.1837, 0.5651310
588.6658, 0.5565680
589.1479, 0.9719300
589.6301, 1.382921
590.1122, 1.197884
590.5943, 0.3060170
591.0764, 0.1090280
591.5585, 0.4913580
592.0406, 0.9501480
592.5228, 0.8257860
593.0049, 0.5126220
593.4870, 0.4676880
593.9691, 0.8280270
594.4512, 1.215417
594.9333, 1.248518
595.4155, 1.001727
595.8976, 0.7828430
596.3797, 0.5991240
596.8618, 0.4906730
597.3439, 0.5233840
597.8260, 0.6340240
598.3082, 0.6523850
598.7903, 0.5105480
599.2724, 0.4481240
599.7545, 0.6524120
600.2366, 0.9060210
600.7188, 0.9328750
601.2009, 0.7494690
601.6830, 0.6007620
602.1651, 0.6575660
602.6472, 0.8608760
603.1293, 0.9959790
603.6115, 1.057096
604.0936, 1.055517
604.5757, 0.9212230
605.0578, 0.7941520
605.5399, 0.7719600
606.0220, 0.8354270
606.5042, 0.9003880
606.9863, 0.9187000
607.4684, 0.9153160
607.9505, 0.9146430
608.4326, 0.9181240
608.9147, 0.9958480
609.3969, 1.210841
609.8790, 1.424375
610.3611, 1.512697
610.8432, 1.477501
611.3253, 1.273197
611.8074, 0.5898940
612.2896, 5.4597002E-02
612.7717, 0.1731680
613.2538, 0.6135180
613.7359, 0.7682180
614.2180, 0.4713440
614.7001, 6.4946003E-02
615.1823, 5.1176000E-02
615.6644, 0.1351890
616.1465, 0.3727570
616.6286, 0.9007970
617.1107, 1.147171
617.5928, 0.7951850
618.0750, 0.2595490
618.5571, 8.4045000E-02
619.0392, 0.1554570
619.5213, 5.2270000E-03
620.0034, 0.5564600
620.4855, 1.272193
620.9677, 1.592892
621.4498, 1.482927
621.9319, 1.371597
622.4140, 1.476794
622.8961, 1.701487
623.3782, 1.863758
623.8604, 2.009949
624.3425, 1.963305
624.8246, 1.413128
625.3067, 0.9213550
625.7888, 0.9770070
626.2709, 1.414332
626.7531, 1.737895
627.2352, 1.722501
627.7173, 1.518595
628.1994, 1.404123
628.6815, 1.419972
629.1636, 1.282174
629.6458, 0.6981460
630.1279, 0.2738660
630.6100, 0.4872450
631.0921, 1.026098
631.5742, 1.327983
632.0563, 1.205717
632.5385, 0.9744640
633.0206, 0.8043730
633.5027, 0.7026120
633.9848, 0.6970620
634.4669, 0.7890590
634.9490, 0.9072520
635.4312, 1.021399
635.9133, 1.105412
636.3954, 1.033418
636.8775, 0.5507500
637.3596, 0.2605740
637.8417, 0.2478580
638.3239, 0.3733100
638.8060, 0.5672530
639.2881, 0.8073770
639.7702, 1.100559
640.2523, 1.520964
640.7344, 1.916198
641.2166, 1.868134
641.6987, 1.350139
642.1808, 0.9122690
642.6629, 0.5939790
643.1450, 0.4892300
643.6271, 0.8749130
644.1093, 1.552674
644.5914, 1.938830
645.0735, 1.667437
645.5556, 1.306674
646.0377, 1.067038
646.5198, 0.9229810
647.0020, 0.8216660
647.4841, 0.7632600
647.9662, 0.8598400
648.4483, 1.278693
648.9304, 1.901543
649.4125, 1.867485
649.8947, 0.5110470
650.3768, 0.2580450
650.8589, 0.4434540
651.3410, 1.373175
651.8231, 1.674028
652.3052, 1.374430
652.7874, 0.9988990
653.2695, 0.7798310
653.7516, 0.6428580
654.2337, 0.4930580
654.7158, 0.3345050
655.1979, 0.2703710
655.6801, 0.3333480
656.1622, 0.4772500
656.6443, 0.6732760
657.1264, 0.9285390
657.6085, 1.084624
658.0906, 1.040768
658.5728, 1.038054
659.0549, 1.171068
659.5370, 1.350962
660.0191, 1.514558
660.5012, 1.634327
660.9833, 1.660671
661.4655, 1.502686
661.9476, 1.248994
662.4297, 1.244020
662.9118, 1.544413
663.3939, 1.658780
663.8760, 1.224962
664.3582, 0.6569700
664.8403, 0.5304250
665.3224, 0.8048690
665.8045, 0.9933230
666.2866, 0.9141370
666.7687, 0.8399620
667.2509, 0.9481550
667.7330, 1.154249
668.2151, 1.353541
668.6972, 1.502464
669.1793, 1.541044
669.6614, 1.332354
670.1436, 0.8956530
670.6257, 0.5960260
671.1078, 0.4228870
671.5899, 0.4066150
672.0720, 0.8643770
672.5541, 1.264763
673.0363, 0.9988820
673.5184, 0.1395660
674.0005, 0.3902600
674.4826, 1.5871000E-02
674.9647, 0.7572080
675.4468, 1.431098
675.9290, 1.946596
676.4111, 1.944236
676.8932, 1.306628
677.3753, 0.5562750
677.8574, 0.2881670
678.3395, 0.5211680
678.8217, 0.7215540
679.3038, 0.9318420
679.7859, 1.049594
680.2680, 0.9638810
680.7501, 0.8414910
681.2322, 0.9097220
681.7144, 1.138217
682.1965, 1.189705
682.6786, 0.6716550
683.1607, 3.6892001E-02
683.6428, 0.2562330
684.1249, 4.3822002E-02
684.6071, 0.1130920
685.0892, 6.1048001E-02
685.5713, 7.7877000E-02
686.0534, 0.2151940
686.5355, 0.3649950
687.0176, 0.1968410
687.4998, 0.6209870
687.9819, 1.308314
688.4640, 1.761521
688.9461, 1.933176
689.4282, 1.643473
689.9103, 0.9732010
690.3925, 0.3516090
690.8746, 7.2603002E-02
691.3567, 9.9575996E-02
691.8388, 0.5081060
692.3209, 1.335145
692.8030, 1.699605
693.2852, 1.208013
693.7673, 0.4796480
694.2494, 8.8483997E-02
694.7315, 2.8416000E-02
695.2136, 0.1146690
695.6957, 0.4218770
696.1779, 0.7761900
696.6600, 1.238135
697.1421, 1.645656
697.6242, 1.758681
698.1063, 1.596794
698.5884, 1.443954
699.0706, 1.545107
699.5527, 1.759893
700.0348, 1.626493
700.5169, 1.065107
700.9990, 0.6759000
701.4811, 0.6305820
701.9633, 0.7086730
702.4454, 0.7152830
702.9275, 0.6885070
703.4096, 0.7730210
703.8917, 1.178548
704.3738, 1.435409
704.8560, 1.215354
705.3381, 0.8176760
705.8202, 0.5681110
706.3023, 0.5134980
706.7844, 0.5823700
707.2665, 0.7366820
707.7487, 0.9393940
708.2308, 1.063945
708.7129, 1.131013
709.1950, 1.225468
709.6771, 1.505699
710.1592, 1.616835
710.6414, 1.133415
711.1235, 0.3548460
711.6056, 6.6482998E-02
712.0877, 7.4032001E-02
712.5698, 0.3477870
713.0519, 0.6543250
713.5341, 0.9164040
714.0162, 1.003772
714.4983, 0.9436930
714.9804, 0.8693700
715.4625, 0.8476870
715.9446, 0.9251570
716.4268, 1.287581
716.9089, 2.107598
717.3910, 2.415702
717.8731, 1.818006
718.3552, 1.208002
718.8373, 1.159700
719.3195, 1.319312
719.8016, 1.060362
720.2837, 0.1711780
720.7658, 0.4842210
721.2479, 0.2549240
721.7300, 0.2813920
722.2122, 0.5020330
722.6943, 0.4545330
723.1764, 0.4723620
723.6585, 0.7017350
724.1406, 1.007610
724.6227, 1.212457
725.1049, 1.334100
725.5870, 1.165071
726.0691, 0.3823230
726.5512, 0.1743860
727.0333, 7.9132996E-02
727.5154, 0.3081920
727.9976, 0.7193240
728.4797, 1.118706
728.9618, 1.339640
729.4439, 1.133405
729.9260, 0.8706480
730.4081, 0.9544090
730.8903, 1.240585
731.3724, 1.321905
731.8545, 1.066260
732.3366, 0.8489640
732.8187, 1.032513
733.3008, 1.554110
733.7830, 1.695830
734.2651, 1.217268
734.7472, 0.8171870
735.2293, 0.6626490
735.7114, 0.6673950
736.1935, 0.8643470
736.6757, 1.190837
737.1578, 1.396951
737.6399, 1.368611
738.1220, 1.247623
738.6041, 1.034540
739.0862, 0.8282470
739.5684, 0.8382550
740.0505, 1.060369
740.5326, 1.265482
741.0147, 1.282018
741.4968, 1.141829
741.9789, 0.9693120
742.4611, 0.7244190
742.9432, 0.5526430
743.4253, 0.4228440
743.9074, 0.4162250
744.3895, 0.7696230
744.8716, 1.241774
745.3538, 1.275951
745.8359, 0.5623400
746.3180, 7.0127003E-02
746.8001, 0.5273070
747.2822, 1.207670
747.7643, 1.365587
748.2465, 1.057023
748.7286, 0.6184890
749.2107, 0.2068300
749.6928, 8.1765004E-02
750.1749, 6.4065002E-02
750.6570, 0.2786680
751.1392, 0.5467620
751.6213, 0.7551130
752.1034, 0.8507730
752.5855, 0.7207830
753.0676, 0.5340620
753.5497, 0.4826810
754.0319, 0.5703130
754.5140, 0.7149020
754.9961, 1.106294
755.4782, 1.330796
755.9603, 0.8409920
756.4424, 0.1407520
756.9246, 0.1659990
757.4067, 1.001369
757.8888, 1.734918
758.3709, 1.530824
758.8530, 0.6860220
759.3351, 0.1913620
759.8173, 7.3638998E-02
760.2994, 0.1041040
760.7815, 0.3196570
761.2636, 0.5210770
761.7457, 0.4766110
762.2278, 0.2627330
762.7100, 0.2537600
763.1921, 0.6170620
763.6742, 0.9371630
764.1563, 1.159152
764.6384, 1.267428
765.1205, 1.201976
765.6027, 1.014484
766.0848, 0.8140030
766.5669, 0.6464790
767.0490, 0.5453910
767.5311, 0.5700450
768.0132, 0.7044920
768.4954, 0.8944320
768.9775, 1.155775
769.4596, 1.286966
769.9417, 1.176656
770.4238, 0.9418560
770.9059, 0.7805760
771.3881, 0.6853130
771.8702, 0.7124010
772.3523, 1.123247
772.8344, 1.342596
773.3165, 0.9410190
773.7986, 0.3804320
774.2808, 0.2728760
774.7629, 0.6346520
775.2450, 0.8585750
775.7271, 0.4058640
776.2092, 0.2846210
776.6913, 0.6035310
777.1735, 0.5932710
777.6556, 0.3842940
778.1377, 2.5600000E-04
778.6198, 0.4167810
779.1019, 0.8707360
779.5840, 1.306451
780.0662, 1.335063
780.5483, 0.5780480
781.0304, 0.1341010
781.5125, 0.4070620
781.9946, 0.6605620
782.4767, 0.3800480
782.9589, 0.1369350
783.4410, 0.2725710
783.9231, 0.1878090
784.4052, 0.6818070
784.8873, 0.8981660
785.3694, 1.003550
785.8516, 1.194950
786.3337, 1.445319
786.8158, 1.618570
787.2979, 1.659991
787.7800, 1.605709
788.2621, 1.491443
788.7443, 1.319652
789.2264, 1.167567
789.7085, 1.087992
790.1906, 0.8645970
790.6727, 0.2252860
791.1548, 0.3828230
791.6370, 0.4209750
792.1191, 1.9066000E-02
792.6012, 0.2959140
793.0833, 7.0110999E-02
793.5654, 2.6373999E-02
794.0475, 0.3271350
794.5297, 0.8671540
795.0118, 1.457229
795.4939, 1.981656
795.9760, 2.165659
796.4581, 1.820005
796.9402, 1.320135
797.4224, 1.288631
797.9045, 1.639331
798.3866, 1.768365
798.8687, 1.602219
799.3508, 1.454245
799.8329, 1.532939
800.3151, 1.641630
800.7972, 1.369825
801.2793, 0.5194130
801.7614, 7.3779002E-02
802.2435, 0.2072100
802.7256, 0.4884840
803.2078, 0.9388710
803.6899, 1.381239
804.1720, 1.590764
804.6541, 1.585192
805.1362, 1.654853
805.6183, 2.081680
806.1005, 2.502842
806.5826, 2.476943
807.0647, 2.168939
807.5468, 1.932077
808.0289, 1.835331
808.5110, 1.789097
808.9932, 1.723564
809.4753, 1.652065
809.9574, 1.594664
810.4395, 1.526484
810.9216, 1.606418
811.4037, 1.998203
811.8859, 2.277882
812.3680, 2.135068
812.8501, 1.796497
813.3322, 1.548848
813.8143, 1.390829
814.2964, 1.424137
814.7786, 1.868510
815.2607, 2.301334
815.7428, 2.353106
816.2249, 2.296953
816.7070, 2.604682
817.1891, 3.298529
817.6713, 3.950619
818.1534, 4.284836
818.6355, 4.295061
819.1176, 3.786611
819.5997, 2.858622
820.0818, 2.326973
820.5640, 2.359813
821.0461, 2.577674
821.5282, 2.738791
822.0103, 2.862363
822.4924, 3.014737
822.9745, 3.292451
823.4567, 3.384064
823.9388, 3.174972
824.4209, 2.912922
824.9030, 2.644011
825.3851, 2.392109
825.8672, 2.145063
826.3494, 1.906032
826.8315, 1.842493
827.3136, 2.076319
827.7957, 2.475258
828.2778, 3.099210
828.7599, 3.749358
829.2421, 4.015193
829.7242, 3.862991
830.2063, 3.642731
830.6884, 3.617139
831.1705, 3.714673
831.6526, 3.727806
832.1348, 3.648053
832.6169, 3.781101
833.0990, 4.255573
833.5811, 4.625454
834.0632, 4.526516
834.5453, 4.198439
835.0275, 4.243484
835.5096, 4.923863
835.9917, 5.236228
836.4738, 4.761198
836.9559, 4.365532
837.4380, 4.405772
837.9202, 4.668658
838.4023, 4.950414
838.8844, 5.200509
839.3665, 5.385282
839.8486, 5.477629
840.3307, 5.509688
840.8129, 5.439692
841.2950, 5.348485
841.7771, 5.459417
842.2592, 5.761552
842.7413, 6.080483
843.2234, 6.322267
843.7056, 6.455597
844.1877, 6.120331
844.6698, 5.161169
845.1519, 5.094080
845.6340, 6.363029
846.1161, 7.415319
846.5983, 7.534837
847.0804, 7.168284
847.5625, 6.854986
848.0446, 6.583533
848.5267, 6.539287
849.0089, 7.046733
849.4910, 7.352048
849.9731, 7.190104
850.4552, 6.820497
850.9373, 6.342184
851.4194, 5.845355
851.9016, 5.576336
852.3837, 5.663010
852.8658, 5.878757
853.3479, 6.058776
853.8300, 6.224849
854.3121, 6.420496
854.7943, 6.587883
855.2764, 6.540535
855.7585, 6.191547
856.2406, 5.743247
856.7227, 5.466580
857.2048, 5.344506
857.6870, 5.116518
858.1691, 4.744202
858.6512, 4.422312
859.1333, 4.205233
859.6154, 4.042237
860.0975, 3.886577
860.5797, 3.746433
861.0618, 3.662672
861.5439, 3.686262
862.0260, 3.679841
862.5081, 3.615370
862.9902, 3.531169
863.4724, 3.484556
863.9545, 3.419377
864.4366, 3.205405
864.9187, 2.816430
865.4008, 2.482986
865.8829, 2.400213
866.3651, 2.416481
866.8472, 2.333853
867.3293, 2.212848
867.8114, 2.273494
868.2935, 2.523728
868.7756, 2.614621
869.2578, 2.243098
869.7399, 1.653752
870.2220, 1.488569
870.7041, 1.770478
871.1862, 2.037579
871.6683, 2.309214
872.1505, 2.319929
872.6326, 1.773549
873.1147, 1.072813
873.5968, 0.9572260
874.0789, 1.611017
874.5610, 1.852071
875.0432, 1.224984
875.5253, 0.8029470
876.0074, 1.084130
876.4895, 1.460771
876.9716, 1.371369
877.4537, 0.8990030
877.9359, 0.4984410
878.4180, 0.3038800
878.9001, 0.2480750
879.3822, 0.3505280
879.8643, 0.5245040
880.3464, 0.6934720
880.8286, 0.8681450
881.3107, 1.045671
881.7928, 1.217620
882.2749, 1.257829
882.7570, 0.8768830
883.2391, 0.3060000
883.7213, 0.4077240
884.2034, 1.129711
884.6855, 1.574113
885.1676, 1.520547
885.6497, 1.224951
886.1318, 0.8203020
886.6140, 0.4037110
887.0961, 0.3323850
887.5782, 0.7997270
888.0603, 1.118303
888.5424, 1.273573
889.0245, 1.293708
889.5067, 1.087205
889.9888, 0.8146690
890.4709, 0.6603770
890.9530, 0.6309010
891.4351, 0.6222510
891.9172, 0.6148720
892.3994, 0.6218520
892.8815, 0.6651510
893.3636, 0.7127640
893.8457, 0.7550460
894.3278, 0.7715100
894.8099, 0.6915780
895.2921, 0.4672510
895.7742, 0.2993580
896.2563, 0.4660030
896.7384, 0.7579820
897.2205, 0.7915370
897.7026, 0.6100380
898.1848, 0.4453850
898.6669, 0.3707090
899.1490, 0.3420980
899.6311, 0.3408720
900.1132, 0.3181800
900.5953, 2.8863000E-02
901.0775, 0.7739080
901.5596, 0.9267700
902.0417, 0.1838140
902.5238, 0.6222820
903.0059, 1.042552
903.4880, 1.163817
903.9702, 1.136343
904.4523, 0.8982610
904.9344, 0.7611710
905.4165, 0.9108340
905.8986, 0.9202800
906.3807, 0.5733280
906.8629, 0.1437600
907.3450, 0.2431620
907.8271, 0.5124670
908.3092, 0.4052630
908.7913, 0.4295550
909.2734, 1.057450
909.7556, 0.9494810
910.2377, 0.5550860
910.7198, 9.9839002E-02
911.2019, 0.2747440
911.6840, 0.3302250
912.1661, 2.0608000E-02
912.6483, 0.3668980
913.1304, 0.6758900
913.6125, 0.8443530
914.0946, 0.6252020
914.5767, 0.1816530
915.0588, 6.6717997E-02
915.5410, 0.3543380
916.0231, 0.7699240
916.5052, 1.159983
916.9873, 1.469807
917.4694, 1.573665
917.9515, 1.463627
918.4337, 1.389504
918.9158, 1.392189
919.3979, 1.200984
919.8800, 0.5740750
920.3621, 3.3408001E-02
920.8442, 0.2470060
921.3264, 1.106201
921.8085, 1.446859
922.2906, 0.8437570
922.7727, 0.4169600
923.2548, 0.2395750
923.7369, 0.2130040
924.2191, 0.3962500
924.7012, 0.6555320
925.1833, 0.8065910
925.6654, 0.8281660
926.1475, 0.7696650
926.6296, 0.5083630
927.1118, 0.3003820
927.5939, 0.2856630
928.0760, 0.4182170
928.5581, 0.7633180
929.0402, 1.198264
929.5223, 1.338607
930.0045, 0.9662650
930.4866, 0.6063090
930.9687, 0.9026080
931.4508, 1.415665
931.9329, 1.400261
932.4150, 0.9873200
932.8972, 0.6758850
933.3793, 0.6062780
933.8614, 0.6360500
934.3435, 0.6606620
934.8256, 0.6578110
935.3077, 0.5174880
935.7899, 0.2575770
936.2720, 0.2772790
936.7541, 0.6581460
937.2362, 0.7942660
937.7183, 0.3077880
938.2004, 0.2946410
938.6826, 0.1700490
939.1647, 0.7127950
939.6468, 1.181761
940.1289, 1.053491
940.6110, 0.9544160
941.0931, 0.9993070
941.5753, 1.104310
942.0574, 1.256768
942.5395, 1.417014
943.0216, 1.481764
943.5037, 1.437858
943.9858, 1.337773
944.4680, 1.169529
944.9501, 0.9657830
945.4322, 0.5887960
945.9143, 0.2886070
946.3964, 0.4410050
946.8785, 0.9395000
947.3607, 1.211886
947.8428, 0.9361340
948.3249, 0.7233320
948.8070, 1.119230
949.2891, 1.523488
949.7712, 1.197011
950.2534, 0.4984640
950.7355, 0.2420090
951.2176, 0.5927010
951.6997, 0.9223770
952.1818, 0.6908390
952.6639, 0.2692260
953.1461, 0.1100780
953.6282, 0.1698520
954.1103, 0.4417600
954.5924, 0.8598470
955.0745, 1.109532
955.5566, 1.033460
956.0388, 0.8378290
956.5209, 0.7838510
957.0030, 0.8560490
957.4851, 0.9986560
957.9672, 1.211751
958.4493, 1.411052
958.9315, 1.550370
959.4136, 1.528346
959.8957, 1.265170
960.3778, 0.8600670
960.8599, 0.6487790
961.3420, 0.6571370
961.8242, 0.7451570
962.3063, 0.9658900
962.7884, 1.139868
963.2705, 1.239041
963.7526, 1.224091
964.2347, 0.9800940
964.7169, 0.5624420
965.1990, 0.3631800
965.6811, 0.5536110
966.1632, 0.7232330
966.6453, 0.9771560
967.1274, 1.095641
967.6096, 0.8353540
968.0917, 0.4873590
968.5738, 0.4836680
969.0559, 0.8088940
969.5380, 0.9464130
970.0201, 0.5470360
970.5023, 0.2712200
970.9844, 0.4443460
971.4665, 0.7511010
971.9486, 1.021101
972.4307, 1.198128
972.9128, 1.206712
973.3950, 1.030928
973.8771, 0.8331500
974.3592, 0.6218290
974.8413, 0.5166370
975.3234, 0.7484660
975.8055, 1.083758
976.2877, 1.165180
976.7698, 1.000093
977.2519, 0.7684000
977.7340, 0.5504270
978.2161, 0.4331280
978.6982, 0.5896070
979.1804, 0.8710230
979.6625, 0.9982990
980.1446, 0.9977370
980.6267, 0.9754160
981.1088, 0.9549420
981.5909, 0.9227820
982.0731, 0.8770850
982.5552, 0.7687310
983.0373, 0.4115550
983.5194, 0.1232550
984.0015, 0.2832190
984.4836, 5.3835001E-02
984.9658, 0.2114040
985.4479, 0.4055980
985.9300, 0.5755580
986.4121, 0.7733960
986.8942, 0.9673500
987.3763, 1.010603
987.8585, 0.8593510
988.3406, 0.8819580
988.8227, 1.189042
989.3048, 1.339419
989.7869, 1.093443
990.2690, 0.7198250
990.7512, 0.5428800
991.2333, 0.5420490
991.7154, 0.4507020
992.1975, 0.1191620
992.6796, 2.8696001E-02
993.1617, 0.4769940
993.6439, 0.8000370
994.1260, 0.5319970
994.6081, 4.9982999E-02
995.0902, 0.1396220
995.5723, 4.8004001E-02
996.0544, 0.2089340
996.5366, 1.031938
997.0187, 1.527114
997.5008, 1.346806
997.9829, 0.9737040
998.4650, 0.5423190
998.9471, 0.1845740
999.4293, 0.1517980
999.9114, 0.4936590
1000.393, 0.7462710
1000.876, 0.7140590
1001.358, 0.6541270
1001.840, 0.7388510
1002.322, 0.7854980
1002.804, 0.5578570
1003.286, 0.1745190
1003.768, 6.3901998E-02
1004.250, 6.7699999E-02
1004.733, 5.5450998E-02
1005.215, 0.1898580
1005.697, 0.3014280
1006.179, 0.3106740
1006.661, 0.1906080
1007.143, 0.2312510
1007.625, 0.8086820
1008.107, 1.043320
1008.589, 0.6967950
1009.072, 0.3797780
1009.554, 0.7992940
1010.036, 1.367084
1010.518, 1.291518
1011.000, 0.8482480
1011.482, 0.5812580
1011.964, 0.5901770
1012.446, 0.8271040
1012.929, 1.302559
1013.411, 1.660128
1013.893, 1.273341
1014.375, 0.5601760
1014.857, 0.4460950
1015.339, 0.7729040
1015.821, 0.8760350
1016.303, 0.6339640
1016.785, 0.4269560
1017.268, 0.5201810
1017.750, 0.7472520
1018.232, 0.8210540
1018.714, 0.7938600
1019.196, 0.9019030
1019.678, 1.135108
1020.160, 1.353822
1020.642, 1.519547
1021.125, 1.630996
1021.607, 1.706021
1022.089, 1.661894
1022.571, 1.177320
1023.053, 0.2948110
1023.535, 1.3486000E-02
1024.017, 0.3112600
1024.499, 0.5730300
1024.981, 0.5546230
1025.464, 0.4272940
1025.946, 0.3431380
1026.428, 0.3094360
1026.910, 0.2984360
1027.392, 0.2759510
1027.874, 0.6551670
1028.356, 1.626684
1028.838, 2.055804
1029.321, 1.360425
1029.803, 0.5739620
1030.285, 0.7794830
1030.767, 1.656607
1031.249, 1.871043
1031.731, 1.148603
1032.213, 0.8720880
1032.695, 1.350751
1033.177, 1.533873
1033.660, 0.8136530
1034.142, 2.0935999E-02
1034.624, 7.2036996E-02
1035.106, 0.8124500
1035.588, 1.329682
1036.070, 1.619254
1036.552, 1.670028
1037.034, 1.209101
1037.516, 1.002697
1037.999, 1.678984
1038.481, 2.370798
1038.963, 1.937258
1039.445, 0.5973950
1039.927, 6.6118002E-02
1040.409, 1.090566
1040.891, 1.601231
1041.373, 1.191593
1041.855, 0.7498300
1042.338, 0.5245820
1042.820, 0.5112060
1043.302, 0.8506790
1043.784, 1.460492
1044.266, 1.714299
1044.748, 1.286485
1045.230, 1.019907
1045.712, 1.103458
1046.195, 1.179820
1046.677, 1.016427
1047.159, 0.8396700
1047.641, 0.9497160
1048.123, 1.300452
1048.605, 1.520986
1049.087, 1.533990
1049.569, 1.485686
1050.052, 1.448092
1050.534, 1.291031
1051.016, 0.8181730
1051.498, 0.2962370
1051.980, 2.3019001E-02
1052.462, 0.1075930
1052.944, 3.4660999E-02
1053.426, 0.5991490
1053.908, 1.021158
1054.391, 1.049151
1054.873, 1.040284
1055.355, 1.237432
1055.837, 1.443908
1056.319, 1.360138
1056.801, 1.046435
1057.283, 0.9251060
1057.765, 1.282437
1058.248, 1.390264
1058.730, 0.6407700
1059.212, 3.6320999E-02
1059.694, 0.3451360
1060.176, 0.9560030
1060.658, 1.105598
1061.140, 0.8486150
1061.622, 0.7652740
1062.104, 1.091527
1062.587, 1.400113
1063.069, 1.576960
1063.551, 1.628566
1064.033, 1.440813
1064.515, 1.230180
1064.997, 1.307096
1065.479, 1.580561
1065.961, 1.661281
1066.443, 1.367251
1066.926, 1.130557
1067.408, 1.151010
1067.890, 1.252278
1068.372, 1.382528
1068.854, 1.497707
1069.336, 1.594784
1069.818, 1.636002
1070.300, 1.501570
1070.782, 1.126649
1071.265, 0.7961260
1071.747, 0.6431180
1072.229, 0.5483920
1072.711, 0.2991230
1073.193, 0.1663160
1073.675, 0.5161900
1074.157, 1.240381
1074.639, 2.087599
1075.122, 3.082318
1075.604, 3.442627
1076.086, 2.120224
1076.568, 0.8817640
1077.050, 0.9337450
1077.532, 1.453997
1078.014, 1.621227
1078.496, 1.489000
1078.979, 1.467806
1079.461, 1.675860
1079.943, 1.742011
1080.425, 1.433090
1080.907, 1.014755
1081.389, 0.4842850
1081.871, 4.2537998E-02
1082.353, 6.4603001E-02
1082.835, 4.2560000E-02
1083.318, 6.4470001E-02
1083.800, 6.4193003E-02
1084.282, 8.2029998E-02
1084.764, 0.1851170
1085.246, 0.5121150
1085.728, 1.029651
1086.210, 1.335503
1086.692, 0.7767470
1087.175, 0.1237460
1087.657, 0.3142150
1088.139, 0.3392510
1088.621, 0.8189860
1089.103, 0.4988900
1089.585, 0.2371030
1090.067, 0.6200060
1090.549, 0.9864660
1091.031, 0.6302700
1091.514, 2.2143001E-02
1091.996, 4.7917999E-02
1092.478, 0.4687620
1092.960, 0.9618040
1093.442, 1.296826
1093.924, 1.450095
1094.406, 1.333334
1094.888, 1.120014
1095.370, 0.8051200
1095.853, 0.5378750
1096.335, 0.5340900
1096.817, 0.7614360
1097.299, 0.9627860
1097.781, 1.064452
1098.263, 1.151422
1098.745, 1.317823
1099.227, 1.396439
1099.709, 1.194329
1100.192, 0.9399450
1100.674, 0.8784640
1101.156, 0.9834150
1101.638, 1.116288
1102.120, 1.292380
1102.602, 1.335807
1103.084, 1.037202
1103.566, 0.8123110
1104.049, 0.9887240
1104.531, 1.160225
1105.013, 0.8002470
1105.495, 0.2015570
1105.977, 0.1656100
1106.459, 0.9118440
1106.941, 1.358013
1107.423, 1.167649
1107.906, 0.8764240
1108.388, 0.5424390
1108.870, 0.2366950
1109.352, 1.6348001E-02
1109.834, 0.2032120
1110.316, 0.3226680
1110.798, 0.3665490
1111.280, 0.2250240
1111.762, 0.4350860
1112.245, 0.7913290
1112.727, 0.4374790
1113.209, 0.1115710
1113.691, 0.2611100
1114.173, 0.5798150
1114.655, 0.6398380
1115.137, 0.4695720
1115.619, 0.4830470
1116.102, 0.8370280
1116.584, 1.098485
1117.066, 1.256644
1117.548, 1.330074
1118.030, 1.333097
1118.512, 1.235802
1118.994, 0.8979340
1119.476, 0.4510210
1119.958, 0.4646160
1120.441, 1.195905
1120.923, 1.543237
1121.405, 1.273932
1121.887, 1.135312
1122.369, 1.366516
1122.851, 1.702746
1123.333, 2.047802
1123.815, 2.281821
1124.297, 1.987285
1124.780, 1.096547
1125.262, 0.5431520
1125.744, 0.3991290
1126.226, 0.3634720
1126.708, 0.4418460
1127.190, 0.4145660
1127.672, 0.1091570
1128.154, 0.2353120
1128.636, 0.2549170
1129.119, 8.1610000E-03
1129.601, 0.1992040
1130.083, 0.3120090
1130.565, 0.4483670
1131.047, 0.6298350
1131.529, 0.6952450
1132.011, 0.5567260
1132.493, 0.4499400
1132.976, 0.6306900
1133.458, 0.9895180
1133.940, 1.238108
1134.422, 1.375773
1134.904, 1.355127
1135.386, 1.201355
1135.868, 1.065548
1136.350, 0.9349960
1136.833, 0.8605590
1137.315, 0.8548800
1137.797, 0.8891640
1138.279, 0.9367670
1138.761, 0.9796500
1139.243, 0.9173600
1139.725, 0.7898400
1140.207, 0.7656950
1140.689, 0.8750820
1141.172, 1.075053
1141.654, 1.340934
1142.136, 1.529711
1142.618, 1.511115
1143.100, 1.303883
1143.582, 0.7204290
1144.064, 7.7776000E-02
1144.546, 0.2057810
1145.029, 0.8833010
1145.511, 1.191826
1145.993, 0.9397220
1146.475, 0.7033070
1146.957, 0.9169740
1147.439, 1.231443
1147.921, 1.398779
1148.403, 1.392231
1148.885, 0.9566880
1149.368, 0.4304240
1149.850, 0.5018690
1150.332, 1.110738
1150.814, 1.548133
1151.296, 1.519386
1151.778, 1.313991
1152.260, 0.9214040
1152.742, 0.6246170
1153.224, 0.7664910
1153.707, 0.9793480
1154.189, 0.7768090
1154.671, 0.3430210
1155.153, 0.1758470
1155.635, 0.3769070
1156.117, 0.6329270
1156.599, 0.9593600
1157.081, 1.163706
1157.563, 1.153886
1158.046, 1.040081
1158.528, 0.7970220
1159.010, 0.5498000
1159.492, 0.4769530
1159.974, 0.5637080
1160.456, 0.6006630
1160.938, 0.4254640
1161.420, 0.4871200
1161.903, 1.084310
1162.385, 1.519207
1162.867, 1.589495
1163.349, 1.438443
1163.831, 1.064038
1164.313, 0.6114050
1164.795, 0.4360260
1165.277, 0.5537280
1165.760, 0.8433020
1166.242, 1.410933
1166.724, 1.815768
1167.206, 1.991014
1167.688, 1.972503
1168.170, 1.773315
1168.652, 1.413586
1169.134, 0.8607060
1169.616, 0.2387250
1170.099, 0.2092760
1170.581, 0.7839900
1171.063, 1.016629
1171.545, 0.8476470
1172.027, 0.6315340
1172.509, 0.4726280
1172.991, 0.4862920
1173.473, 0.7881360
1173.956, 1.150983
1174.438, 1.098235
1174.920, 0.8076390
1175.402, 0.9758440
1175.884, 1.418472
1176.366, 1.370820
1176.848, 0.8369800
1177.330, 0.4425290
1177.813, 0.4447540
1178.295, 0.5531750
1178.777, 0.5088810
1179.259, 0.4518550
1179.741, 0.7112780
1180.223, 0.9571400
1180.705, 0.4130150
1181.187, 0.4239630
1181.669, 0.2488650
1182.151, 0.9335420
1182.634, 1.688248
1183.116, 1.261942
1183.598, 0.7031080
1184.080, 0.5600560
1184.562, 0.5648790
1185.044, 0.6022060
1185.526, 0.6426590
1186.008, 0.6179580
1186.490, 0.5869090
1186.973, 0.6715470
1187.455, 0.8763840
1187.937, 1.143066
1188.419, 1.683633
1188.901, 1.955271
1189.383, 1.721333
1189.865, 1.343537
1190.347, 0.8010740
1190.830, 0.3789950
1191.312, 0.5609170
1191.794, 1.140610
1192.276, 1.006746
1192.758, 0.3364050
1193.240, 0.6246150
1193.722, 0.6406220
1194.204, 1.418963
1194.687, 1.069829
1195.169, 0.7308710
1195.651, 1.173700
1196.133, 1.894637
1196.615, 2.111260
1197.097, 1.871029
1197.579, 1.365137
1198.061, 0.6189660
1198.543, 0.1375710
1199.026, 3.3227000E-02
1199.508, 0.1647800
1199.990, 0.7249320
1200.472, 1.142996
1200.954, 0.9879810
1201.436, 0.6093820
1201.918, 0.5159620
1202.400, 0.5934600
1202.883, 0.6360700
1203.365, 0.6483360
1203.847, 0.6131660
1204.329, 0.5761160
1204.811, 0.7094940
1205.293, 1.068594
1205.775, 1.409430
1206.257, 1.641237
1206.740, 1.689589
1207.222, 1.324916
1207.704, 0.9270350
1208.186, 0.8045840
1208.668, 0.8932200
1209.150, 1.179040
1209.632, 1.575041
1210.114, 1.730154
1210.596, 1.440641
1211.078, 1.327525
1211.561, 1.812834
1212.043, 2.076433
1212.525, 1.667923
1213.007, 1.179737
1213.489, 1.020764
1213.971, 0.9924220
1214.453, 0.7285040
1214.935, 0.2628980
1215.417, 0.2787630
1215.900, 1.014259
1216.382, 1.241847
1216.864, 0.6971970
1217.346, 0.6206300
1217.828, 1.527167
1218.310, 2.287952
1218.792, 2.005322
1219.274, 1.211237
1219.757, 0.8625380
1220.239, 0.8736860
1220.721, 0.8231640
1221.203, 0.7462770
1221.685, 0.8765900
1222.167, 1.189956
1222.649, 1.377682
1223.131, 1.291321
1223.614, 1.158851
1224.096, 1.142127
1224.578, 1.119710
1225.060, 0.9422590
1225.542, 0.6970950
1226.024, 0.3975550
1226.506, 0.1607260
1226.988, 0.2189130
1227.470, 0.4921630
1227.953, 0.7048260
1228.435, 0.7923660
1228.917, 0.7954780
1229.399, 0.4388770
1229.881, 0.4254030
1230.363, 1.543000
1230.845, 2.432983
1231.327, 2.015527
1231.810, 1.148038
1232.292, 0.9226420
1232.774, 1.148818
1233.256, 0.9973040
1233.738, 0.2704580
1234.220, 0.1277660
1234.702, 0.1930600
1235.184, 0.1227920
1235.667, 4.8682000E-02
1236.149, 0.3916980
1236.631, 0.9955180
1237.113, 1.522623
1237.595, 1.520525
1238.077, 1.215727
1238.559, 1.352518
1239.041, 1.809695
1239.523, 1.893557
1240.005, 1.760386
1240.488, 1.546640
1240.970, 1.311683
1241.452, 1.051891
1241.934, 0.7617820
1242.416, 0.6135750
1242.898, 0.9307790
1243.380, 1.291571
1243.862, 1.227444
1244.344, 1.016326
1244.827, 1.028612
1245.309, 1.098387
1245.791, 0.7381460
1246.273, 6.8732001E-02
1246.755, 2.1921000E-02
1247.237, 1.155762
1247.719, 1.793573
1248.201, 1.168357
1248.684, 0.5497350
1249.166, 0.1137120
1249.648, 3.1622998E-02
1250.130, 0.6889850
1250.612, 1.446445
1251.094, 1.331682
1251.576, 0.5549920
1252.058, 0.5975440
1252.541, 1.662655
1253.023, 1.994852
1253.505, 1.483244
1253.987, 1.021283
1254.469, 0.8158050
1254.951, 0.6582980
1255.433, 0.4229590
1255.915, 0.2936470
1256.397, 0.5809610
1256.880, 1.005637
1257.362, 0.9019240
1257.844, 0.5608300
1258.326, 0.5526420
1258.808, 0.8152950
1259.290, 1.117707
1259.772, 1.402860
1260.254, 1.692692
1260.737, 2.120653
1261.219, 2.330772
1261.701, 1.890766
1262.183, 1.461388
1262.665, 1.453844
1263.147, 1.477712
1263.629, 1.234213
1264.111, 0.8495610
1264.594, 0.4324190
1265.076, 3.8690001E-02
1265.558, 6.0226999E-02
1266.040, 0.1660590
1266.522, 0.5887220
1267.004, 1.327102
1267.486, 1.881976
1267.968, 2.172155
1268.450, 2.216719
1268.932, 1.977239
1269.415, 1.706899
1269.897, 1.698576
1270.379, 1.841673
1270.861, 1.922105
1271.343, 1.919756
1271.825, 1.621362
1272.307, 1.151873
1272.789, 0.8952180
1273.271, 0.8813040
1273.754, 0.9014610
1274.236, 0.8795140
1274.718, 0.9795950
1275.200, 1.517659
1275.682, 1.820647
1276.164, 1.445093
1276.646, 0.9978430
1277.128, 0.8088970
1277.611, 0.8682150
1278.093, 1.436646
1278.575, 2.188457
1279.057, 1.887904
1279.539, 0.2430670
1280.021, 0.1863110
1280.503, 1.233238
1280.985, 2.051438
1281.468, 1.899874
1281.950, 1.527355
1282.432, 1.151458
1282.914, 0.2841040
1283.396, 0.2458880
1283.878, 0.3363250
1284.360, 0.4690700
1284.842, 0.4840480
1285.324, 0.0000000E+00
##END=



