##NAMES=Stromeyerite
##RRUFFID=R060909
##IDEAL CHEMISTRY=Cu^1+^Ag^1+^S^2-^
##LOCALITY=Gowganda, Ontario, Canada
##OWNER=RRUFF
##SOURCE=Royal Ontario Museum
##DESCRIPTION=Grey, metallic, pseudohexagonal flakes, conchoidal fracture
##STATUS=The identification of this mineral has been confirmed by X-ray diffraction and chemical analysis
##URL=rruff.info/R060909
##MEASURED CHEMISTRY=Ag_1.00_Cu_1.00_S_1.00_
196.2511, 0.0000000E+00
196.7332, 4.176697
197.2153, 5.4319999E-03
197.6974, 1.983887
198.1795, 5.876038
198.6616, 8.368652
199.1438, 10.17877
199.6259, 12.14642
200.1080, 13.15350
200.5901, 13.77032
201.0722, 11.33588
201.5543, 4.901794
202.0364, 0.7231450
202.5186, 1.624695
203.0007, 2.884094
203.4828, 5.816223
203.9649, 5.194702
204.4470, 2.709900
204.9291, 6.281738
205.4113, 18.39172
205.8934, 29.34259
206.3755, 29.97101
206.8576, 17.30988
207.3397, 9.429199
207.8218, 10.14783
208.3040, 18.02606
208.7861, 24.52277
209.2682, 29.53644
209.7503, 33.33197
210.2324, 36.79138
210.7145, 41.02356
211.1967, 40.51782
211.6788, 32.25110
212.1609, 17.20087
212.6430, 8.884521
213.1251, 9.531860
213.6072, 13.52893
214.0894, 15.37665
214.5715, 13.65808
215.0536, 13.92310
215.5357, 17.91986
216.0178, 25.63660
216.4999, 32.11682
216.9820, 37.46869
217.4642, 41.26477
217.9463, 42.66467
218.4284, 40.40247
218.9105, 38.63257
219.3926, 38.01312
219.8747, 38.47479
220.3569, 41.31769
220.8390, 48.24237
221.3211, 55.85626
221.8032, 60.65570
222.2853, 63.25421
222.7674, 61.57031
223.2496, 53.56903
223.7317, 37.68677
224.2138, 26.59186
224.6959, 19.96710
225.1780, 18.34064
225.6601, 23.53833
226.1423, 40.78070
226.6244, 54.88531
227.1065, 61.21649
227.5886, 58.70105
228.0707, 53.40015
228.5528, 42.59113
229.0350, 30.69794
229.5171, 25.03784
229.9992, 28.80011
230.4813, 32.97815
230.9634, 34.37744
231.4455, 31.55859
231.9276, 31.76331
232.4098, 36.46771
232.8919, 43.35144
233.3740, 48.54462
233.8561, 52.40039
234.3382, 54.03973
234.8203, 52.43665
235.3025, 45.63831
235.7846, 42.21747
236.2667, 43.10138
236.7488, 46.90985
237.2309, 51.77600
237.7130, 60.89014
238.1952, 66.03638
238.6773, 62.43994
239.1594, 44.37598
239.6415, 35.50238
240.1236, 39.52325
240.6057, 51.15302
241.0879, 60.53241
241.5700, 68.56580
242.0521, 72.03412
242.5342, 68.47815
243.0163, 52.78131
243.4984, 43.23956
243.9806, 42.09204
244.4627, 46.20074
244.9448, 48.96558
245.4269, 49.37915
245.9090, 49.98334
246.3911, 52.18921
246.8732, 57.85736
247.3554, 60.31573
247.8375, 56.18896
248.3196, 48.86505
248.8017, 47.13916
249.2838, 55.84723
249.7659, 62.51599
250.2481, 61.20105
250.7302, 46.88300
251.2123, 38.37964
251.6944, 37.71179
252.1765, 42.03888
252.6586, 45.41003
253.1408, 49.19226
253.6229, 49.84552
254.1050, 44.54791
254.5871, 28.33533
255.0692, 20.44861
255.5513, 24.38116
256.0334, 35.15466
256.5156, 41.38464
256.9977, 40.01300
257.4798, 39.52386
257.9619, 44.89465
258.4440, 61.14502
258.9261, 67.26318
259.4083, 58.59351
259.8904, 42.17749
260.3725, 34.52399
260.8546, 38.73737
261.3367, 45.49976
261.8188, 51.53595
262.3010, 58.49054
262.7831, 60.98798
263.2652, 58.65521
263.7473, 53.65625
264.2294, 51.15973
264.7115, 50.98871
265.1937, 50.73474
265.6758, 49.29834
266.1579, 45.92792
266.6400, 42.95746
267.1221, 38.40411
267.6042, 33.85266
268.0864, 31.39954
268.5685, 31.91034
269.0506, 32.19409
269.5327, 30.85181
270.0148, 27.75684
270.4969, 23.74982
270.9791, 17.95038
271.4612, 12.23425
271.9433, 10.78204
272.4254, 14.70636
272.9075, 18.87219
273.3896, 20.24811
273.8718, 18.07684
274.3539, 20.78015
274.8360, 30.47510
275.3181, 42.12384
275.8002, 46.34583
276.2823, 41.70203
276.7645, 36.86139
277.2466, 37.06940
277.7287, 42.99255
278.2108, 39.41504
278.6929, 22.79535
279.1750, 3.221558
279.6572, 1.997620
280.1393, 8.779785
280.6214, 19.49731
281.1035, 22.83789
281.5856, 19.20129
282.0677, 18.96289
282.5499, 23.25049
283.0320, 28.09174
283.5141, 27.44543
283.9962, 21.12823
284.4783, 13.92645
284.9604, 6.156433
285.4425, 1.279541
285.9247, 2.009521
286.4068, 4.855591
286.8889, 12.95752
287.3710, 11.64722
287.8531, 1.667297
288.3352, 3.186646
288.8174, 6.562317
289.2995, 25.92676
289.7816, 33.06659
290.2637, 26.67285
290.7458, 15.76520
291.2279, 8.796997
291.7101, 5.554565
292.1922, 4.827209
292.6743, 7.283752
293.1564, 11.68365
293.6385, 14.81921
294.1206, 16.62054
294.6028, 17.99530
295.0849, 20.98450
295.5670, 24.61646
296.0491, 25.14142
296.5312, 20.07098
297.0133, 11.96857
297.4955, 4.455078
297.9776, 2.291260
298.4597, 6.478943
298.9418, 4.782593
299.4239, 0.8100590
299.9060, 5.485962
300.3882, 7.207153
300.8703, 7.774292
301.3524, 10.03772
301.8345, 13.76483
302.3166, 16.75189
302.7987, 16.71027
303.2809, 14.90369
303.7630, 13.42273
304.2451, 12.85876
304.7272, 12.62677
305.2093, 10.55634
305.6914, 7.480774
306.1736, 8.080750
306.6557, 21.75946
307.1378, 38.66248
307.6199, 45.31488
308.1020, 33.81909
308.5841, 20.75751
309.0663, 20.60510
309.5484, 29.88086
310.0305, 35.74243
310.5126, 25.81610
310.9947, 12.01923
311.4768, 6.174805
311.9590, 13.72784
312.4411, 21.98993
312.9232, 21.59363
313.4053, 15.89471
313.8874, 12.70532
314.3695, 19.96747
314.8517, 27.96729
315.3337, 29.52570
315.8159, 21.74884
316.2980, 13.35059
316.7801, 7.073303
317.2622, 2.795654
317.7443, 0.1725460
318.2264, 0.5727540
318.7086, 1.469910
319.1907, 2.555176
319.6728, 13.77765
320.1549, 11.71631
320.6370, 26.21552
321.1191, 30.28802
321.6013, 7.338074
322.0834, 8.810486
322.5655, 3.363647
323.0476, 2.969849
323.5297, 20.71411
324.0118, 10.92493
324.4940, 12.32965
324.9761, 16.20831
325.4582, 20.99127
325.9403, 11.45660
326.4224, 7.423584
326.9045, 16.94037
327.3867, 41.30469
327.8688, 54.70300
328.3509, 47.41400
328.8330, 34.58777
329.3151, 26.71429
329.7972, 27.48889
330.2794, 28.39111
330.7615, 29.04614
331.2436, 29.36584
331.7257, 28.35199
332.2078, 24.48560
332.6899, 20.95276
333.1721, 20.15033
333.6542, 25.34174
334.1363, 26.25073
334.6184, 20.02112
335.1005, 9.415833
335.5826, 3.752014
336.0648, 4.217590
336.5469, 7.515564
337.0290, 12.66467
337.5111, 20.73749
337.9932, 26.86554
338.4753, 31.33356
338.9575, 33.22607
339.4396, 28.75958
339.9217, 15.60254
340.4038, 6.761963
340.8859, 11.46753
341.3680, 30.64264
341.8502, 34.91473
342.3323, 19.71991
342.8144, 0.3859250
343.2965, 1.869324
343.7786, 16.01514
344.2607, 32.61530
344.7429, 40.03247
345.2250, 39.51904
345.7071, 37.24188
346.1892, 32.83203
346.6713, 28.20264
347.1534, 24.35748
347.6355, 21.40143
348.1176, 19.80426
348.5998, 19.30627
349.0819, 20.44232
349.5640, 26.39612
350.0461, 37.08844
350.5282, 45.06110
351.0103, 41.15088
351.4925, 30.11987
351.9746, 22.41943
352.4567, 21.36639
352.9388, 23.85583
353.4209, 27.65826
353.9030, 32.29108
354.3852, 35.49615
354.8673, 35.10822
355.3494, 32.78003
355.8315, 30.33606
356.3136, 27.86346
356.7957, 25.73407
357.2779, 24.35773
357.7600, 23.33563
358.2421, 22.22266
358.7242, 21.50635
359.2063, 20.15765
359.6884, 16.68634
360.1706, 10.19867
360.6527, 5.411316
361.1348, 4.404663
361.6169, 6.475037
362.0990, 10.62531
362.5811, 17.95850
363.0633, 26.00970
363.5454, 36.69629
364.0275, 50.62146
364.5096, 54.97394
364.9917, 35.14923
365.4738, 9.896484
365.9560, 4.533081
366.4381, 5.769897
366.9202, 14.84638
367.4023, 18.33704
367.8844, 16.56622
368.3665, 13.98431
368.8487, 7.918030
369.3308, 3.174988
369.8129, 2.548462
370.2950, 10.97809
370.7771, 15.88727
371.2592, 15.22101
371.7414, 10.93658
372.2235, 8.574158
372.7056, 7.283142
373.1877, 9.186951
373.6698, 16.48090
374.1519, 32.24994
374.6341, 41.72699
375.1162, 43.70978
375.5983, 40.49396
376.0804, 34.94958
376.5625, 26.11859
377.0446, 18.08844
377.5267, 11.14392
378.0089, 7.191956
378.4910, 6.672913
378.9731, 9.695923
379.4552, 15.14758
379.9373, 27.51721
380.4194, 45.96155
380.9016, 52.16168
381.3837, 36.23914
381.8658, 8.371460
382.3479, 3.374756
382.8300, 20.39520
383.3121, 37.64166
383.7943, 34.28613
384.2764, 17.39624
384.7585, 7.809143
385.2406, 10.88794
385.7227, 18.70361
386.2048, 20.32367
386.6870, 17.40955
387.1691, 16.10187
387.6512, 23.94775
388.1333, 33.61963
388.6154, 34.91119
389.0975, 25.55920
389.5797, 15.42175
390.0618, 10.73700
390.5439, 10.36035
391.0260, 13.01123
391.5081, 23.88959
391.9902, 33.02374
392.4724, 32.29901
392.9545, 21.68311
393.4366, 13.37878
393.9187, 14.84479
394.4008, 20.05615
394.8829, 23.88574
395.3651, 27.20819
395.8472, 26.68164
396.3293, 18.80524
396.8114, 5.526672
397.2935, 4.712830
397.7756, 10.42480
398.2578, 12.88257
398.7399, 12.52264
399.2220, 7.968140
399.7041, 2.923950
400.1862, 3.976501
400.6683, 10.70239
401.1505, 14.14062
401.6326, 12.40344
402.1147, 10.72339
402.5968, 9.796814
403.0789, 9.133484
403.5610, 14.64276
404.0432, 30.74933
404.5253, 47.25879
405.0074, 52.79346
405.4895, 45.01978
405.9716, 35.06274
406.4537, 23.77924
406.9359, 12.26727
407.4180, 5.820374
407.9001, 4.907837
408.3822, 6.454529
408.8643, 9.411377
409.3464, 13.46655
409.8285, 15.10681
410.3106, 13.43835
410.7928, 10.28308
411.2749, 8.252808
411.7570, 7.242188
412.2391, 6.532410
412.7212, 4.715820
413.2033, 3.174072
413.6855, 5.436340
414.1676, 11.88971
414.6497, 18.34100
415.1318, 20.25116
415.6139, 19.55914
416.0960, 19.66296
416.5782, 22.72485
417.0603, 26.30347
417.5424, 28.69135
418.0245, 29.90717
418.5066, 30.17847
418.9887, 27.46588
419.4709, 25.18756
419.9530, 26.67670
420.4351, 36.61511
420.9172, 43.18237
421.3993, 40.81537
421.8814, 32.29205
422.3636, 23.34015
422.8457, 10.05487
423.3278, 1.157532
423.8099, 0.9595950
424.2920, 14.29266
424.7741, 24.79474
425.2563, 30.94373
425.7384, 33.65295
426.2205, 32.48694
426.7026, 22.36157
427.1847, 16.49152
427.6668, 18.00250
428.1490, 26.07300
428.6311, 34.26868
429.1132, 44.84241
429.5953, 51.38629
430.0774, 47.84723
430.5595, 31.91028
431.0417, 21.82965
431.5238, 20.54004
432.0059, 23.10956
432.4880, 19.15656
432.9701, 8.303101
433.4522, 0.1020510
433.9344, 0.9486080
434.4165, 4.881287
434.8986, 14.10815
435.3807, 27.14642
435.8628, 37.59747
436.3449, 36.18243
436.8271, 26.65820
437.3092, 18.91162
437.7913, 15.29382
438.2734, 15.41797
438.7555, 20.76727
439.2376, 30.24750
439.7197, 38.96204
440.2018, 46.20013
440.6840, 50.23517
441.1661, 47.34229
441.6482, 34.17816
442.1303, 24.14569
442.6124, 27.74658
443.0945, 38.22540
443.5767, 45.16608
444.0588, 44.18219
444.5409, 41.07166
445.0230, 36.37836
445.5051, 30.49780
445.9872, 24.10394
446.4694, 13.21741
446.9515, 4.433472
447.4336, 2.426636
447.9157, 15.08337
448.3978, 23.40912
448.8799, 23.95441
449.3621, 20.04291
449.8442, 21.10944
450.3263, 29.63574
450.8084, 38.51001
451.2905, 46.35120
451.7726, 53.91992
452.2548, 51.04333
452.7369, 33.50806
453.2190, 13.96735
453.7011, 7.827637
454.1832, 15.48871
454.6653, 26.15912
455.1475, 40.09717
455.6296, 52.64795
456.1117, 47.52875
456.5938, 25.61011
457.0759, 7.270935
457.5580, 13.65228
458.0402, 33.45935
458.5223, 40.51373
459.0044, 29.10297
459.4865, 14.73602
459.9686, 11.66937
460.4507, 16.90918
460.9329, 24.19604
461.4150, 32.87402
461.8971, 40.79059
462.3792, 47.43109
462.8613, 52.54755
463.3434, 53.66089
463.8256, 44.16803
464.3077, 33.28064
464.7898, 28.35486
465.2719, 38.85492
465.7540, 44.69232
466.2361, 36.50122
466.7183, 20.80823
467.2004, 14.08746
467.6825, 27.68756
468.1646, 39.93018
468.6467, 44.20911
469.1288, 38.88812
469.6110, 34.66510
470.0930, 31.76825
470.5752, 29.62109
471.0573, 27.31036
471.5394, 24.21320
472.0215, 23.84442
472.5036, 27.67554
472.9857, 34.01807
473.4679, 38.12372
473.9500, 39.93787
474.4321, 39.74268
474.9142, 37.76605
475.3963, 33.95251
475.8784, 26.89435
476.3606, 15.87738
476.8427, 5.670227
477.3248, 1.530884
477.8069, 2.447205
478.2890, 6.141113
478.7711, 14.13635
479.2533, 22.51984
479.7354, 29.24988
480.2175, 33.65924
480.6996, 32.23492
481.1817, 11.99066
481.6638, 8.312134
482.1460, 11.66223
482.6281, 11.59167
483.1102, 32.54175
483.5923, 42.74689
484.0744, 44.36346
484.5565, 40.46045
485.0387, 21.89722
485.5208, 7.854858
486.0029, 4.759705
486.4850, 12.13934
486.9671, 17.25250
487.4492, 18.32159
487.9314, 19.05579
488.4135, 22.13391
488.8956, 29.45795
489.3777, 33.70715
489.8598, 35.22192
490.3419, 33.04932
490.8241, 22.79230
491.3062, 1.992676
491.7883, 11.65826
492.2704, 7.183899
492.7525, 10.22986
493.2346, 21.21802
493.7168, 25.48871
494.1989, 26.37744
494.6810, 25.47565
495.1631, 23.29114
495.6452, 20.81085
496.1273, 17.93280
496.6095, 15.53900
497.0916, 14.77521
497.5737, 15.20483
498.0558, 15.88977
498.5379, 16.38300
499.0201, 16.99878
499.5022, 19.51141
499.9843, 23.98309
500.4664, 23.62915
500.9485, 8.637024
501.4306, 7.741089
501.9127, 15.59491
502.3948, 5.495667
502.8770, 3.065796
503.3591, 9.138672
503.8412, 12.68726
504.3233, 13.09827
504.8054, 6.506226
505.2875, 2.710999
505.7697, 6.378723
506.2518, 17.81042
506.7339, 21.86877
507.2160, 16.44086
507.6981, 8.741516
508.1802, 4.966248
508.6624, 5.097412
509.1445, 6.019348
509.6266, 7.122864
510.1087, 9.141235
510.5908, 14.49707
511.0729, 22.47620
511.5551, 29.42926
512.0372, 33.30750
512.5193, 33.71124
513.0014, 29.86835
513.4835, 21.93903
513.9656, 15.56775
514.4478, 17.14911
514.9299, 21.21124
515.4120, 21.21973
515.8941, 10.12244
516.3762, 3.879272
516.8583, 14.28363
517.3405, 33.63702
517.8226, 46.44043
518.3047, 43.02478
518.7868, 38.72491
519.2689, 39.70093
519.7510, 46.91687
520.2332, 47.28387
520.7153, 35.26794
521.1974, 22.58942
521.6795, 18.16052
522.1616, 24.91583
522.6437, 29.61340
523.1259, 30.32068
523.6080, 29.67035
524.0901, 34.42889
524.5722, 45.13672
525.0543, 51.21350
525.5364, 45.19275
526.0186, 32.41388
526.5007, 29.43988
526.9828, 36.10999
527.4649, 43.71832
527.9470, 45.94952
528.4291, 44.33295
528.9113, 40.19684
529.3934, 31.92273
529.8755, 27.04077
530.3576, 36.82825
530.8397, 52.87695
531.3218, 60.79395
531.8040, 44.79431
532.2861, 29.43256
532.7682, 27.75757
533.2503, 38.77539
533.7324, 43.26849
534.2145, 29.59625
534.6967, 15.91217
535.1788, 11.81635
535.6609, 24.54425
536.1430, 29.75946
536.6251, 23.06464
537.1072, 12.90692
537.5894, 12.66589
538.0715, 25.05670
538.5536, 33.69025
539.0357, 33.83185
539.5178, 27.06689
539.9999, 17.65540
540.4821, 6.586670
540.9642, 1.872925
541.4463, 16.58350
541.9284, 40.82349
542.4105, 50.80762
542.8926, 43.65613
543.3748, 32.38470
543.8569, 26.65204
544.3390, 24.69440
544.8211, 23.84479
545.3032, 23.37024
545.7853, 23.62146
546.2675, 28.03009
546.7495, 33.83575
547.2316, 32.41162
547.7137, 7.939758
548.1959, 12.07794
548.6780, 14.71808
549.1601, 5.129456
549.6422, 18.98621
550.1243, 26.70715
550.6064, 30.82880
551.0886, 32.53522
551.5707, 31.59039
552.0528, 28.07629
552.5349, 19.49438
553.0170, 11.32129
553.4991, 19.32458
553.9813, 43.86212
554.4634, 60.20288
554.9455, 52.51599
555.4276, 30.43726
555.9097, 18.46198
556.3918, 16.19727
556.8740, 16.78223
557.3561, 15.21753
557.8382, 13.46429
558.3203, 14.73676
558.8024, 20.95496
559.2845, 25.28912
559.7667, 22.12646
560.2488, 16.48047
560.7309, 13.44043
561.2130, 15.51953
561.6951, 18.64594
562.1772, 23.08783
562.6594, 28.24115
563.1415, 29.85712
563.6236, 23.47253
564.1057, 19.00006
564.5878, 22.13239
565.0699, 35.27271
565.5521, 39.60333
566.0342, 32.27863
566.5163, 22.09033
566.9984, 20.44031
567.4805, 26.83319
567.9626, 24.83368
568.4448, 7.519287
568.9269, 12.64227
569.4090, 13.66559
569.8911, 0.6711430
570.3732, 15.17255
570.8553, 22.23328
571.3375, 25.31787
571.8196, 27.04205
572.3017, 27.61346
572.7838, 27.99738
573.2659, 28.26654
573.7480, 28.81244
574.2302, 29.53174
574.7123, 28.40350
575.1944, 31.60095
575.6765, 46.20477
576.1586, 63.34131
576.6407, 71.54932
577.1229, 68.28766
577.6050, 60.11292
578.0871, 44.69250
578.5692, 25.54517
579.0513, 20.03619
579.5334, 31.00946
580.0156, 41.82660
580.4977, 42.84839
580.9798, 35.73083
581.4619, 28.62885
581.9440, 21.42096
582.4261, 17.06744
582.9083, 23.05286
583.3904, 33.06726
583.8725, 34.16638
584.3546, 18.80157
584.8367, 4.319458
585.3188, 6.469177
585.8010, 17.75909
586.2831, 24.23834
586.7652, 16.29382
587.2473, 7.286926
587.7294, 0.1381840
588.2115, 4.750122
588.6937, 3.200989
589.1758, 11.53662
589.6579, 25.31744
590.1400, 31.40869
590.6221, 28.32257
591.1042, 24.32501
591.5864, 18.79492
592.0685, 14.22021
592.5506, 13.93085
593.0327, 17.79578
593.5148, 22.31525
593.9969, 27.40741
594.4791, 31.72516
594.9612, 33.68555
595.4433, 33.20953
595.9254, 29.92413
596.4075, 17.12115
596.8896, 5.928650
597.3718, 9.623657
597.8539, 26.72418
598.3360, 41.40942
598.8181, 44.93024
599.3002, 44.68958
599.7823, 45.24060
600.2645, 47.17322
600.7466, 49.95441
601.2287, 57.72107
601.7108, 63.64233
602.1929, 59.67920
602.6750, 41.16364
603.1572, 24.21863
603.6393, 9.191711
604.1214, 1.590271
604.6035, 0.1339720
605.0856, 14.99890
605.5677, 28.07904
606.0499, 31.23730
606.5320, 27.31299
607.0141, 26.68610
607.4962, 28.62762
607.9783, 32.15765
608.4604, 40.09229
608.9425, 47.44952
609.4246, 46.29218
609.9067, 32.05341
610.3889, 24.19714
610.8710, 42.15350
611.3531, 66.66321
611.8352, 76.67242
612.3173, 53.65417
612.7994, 34.34741
613.2816, 21.56519
613.7637, 15.07550
614.2458, 14.83630
614.7279, 22.96216
615.2100, 32.24976
615.6921, 41.94177
616.1743, 51.10022
616.6564, 51.26276
617.1385, 41.31177
617.6206, 30.89667
618.1027, 27.69446
618.5848, 29.15869
619.0670, 28.46820
619.5491, 24.49414
620.0312, 22.56946
620.5133, 32.63202
620.9954, 45.34021
621.4775, 48.20062
621.9597, 26.87335
622.4418, 9.817932
622.9239, 9.747742
623.4060, 20.24579
623.8881, 27.83801
624.3702, 31.53247
624.8524, 31.32117
625.3345, 23.96735
625.8166, 11.18250
626.2987, 12.07056
626.7808, 31.55670
627.2629, 47.48376
627.7451, 42.69635
628.2272, 19.85425
628.7093, 9.400452
629.1914, 12.64008
629.6735, 21.38898
630.1556, 32.39014
630.6378, 42.14764
631.1199, 41.56732
631.6020, 22.26532
632.0841, 8.997742
632.5662, 28.29895
633.0483, 62.54547
633.5305, 84.99707
634.0126, 78.32257
634.4947, 68.63507
634.9768, 60.24951
635.4589, 52.74786
635.9410, 48.08801
636.4232, 48.95953
636.9053, 49.65698
637.3874, 48.30969
637.8695, 44.90125
638.3516, 38.11072
638.8337, 26.81439
639.3159, 17.74799
639.7980, 19.04272
640.2801, 27.32031
640.7622, 30.25488
641.2443, 25.74738
641.7264, 20.29486
642.2086, 20.05914
642.6907, 22.87946
643.1728, 25.54163
643.6549, 26.67975
644.1370, 28.01685
644.6191, 31.57465
645.1013, 36.43384
645.5834, 38.54669
646.0655, 37.11896
646.5476, 31.85864
647.0297, 19.36481
647.5118, 1.286682
647.9940, 4.856812
648.4761, 4.237671
648.9582, 15.07416
649.4403, 19.99829
649.9224, 19.64850
650.4045, 20.73541
650.8867, 23.46204
651.3688, 25.36621
651.8509, 23.42218
652.3330, 19.28290
652.8151, 15.57556
653.2972, 12.76556
653.7794, 11.54169
654.2615, 11.39771
654.7436, 11.50647
655.2257, 12.12878
655.7078, 15.38934
656.1899, 16.94513
656.6721, 13.32202
657.1542, 7.628235
657.6363, 8.191284
658.1184, 17.66553
658.6005, 27.20190
659.0826, 34.26886
659.5648, 39.01624
660.0469, 42.37695
660.5290, 44.36316
661.0111, 44.58173
661.4932, 44.45563
661.9753, 41.94464
662.4575, 28.58820
662.9396, 3.502686
663.4217, 13.18842
663.9038, 1.126221
664.3859, 23.54053
664.8680, 46.24011
665.3502, 68.59521
665.8323, 78.54132
666.3144, 63.29486
666.7965, 37.98059
667.2786, 21.69629
667.7607, 17.91119
668.2429, 16.74396
668.7250, 18.03546
669.2071, 20.37909
669.6892, 19.79333
670.1713, 16.06000
670.6534, 13.56915
671.1355, 14.93658
671.6176, 18.12305
672.0997, 19.46088
672.5818, 18.90527
673.0640, 16.10553
673.5461, 5.009277
674.0282, 4.320679
674.5103, 3.4729000E-02
674.9924, 19.56738
675.4745, 32.25439
675.9567, 19.76740
676.4388, 5.712524
676.9209, 8.023743
677.4030, 40.04871
677.8851, 53.08337
678.3672, 37.92334
678.8494, 15.73840
679.3315, 12.31207
679.8136, 28.62024
680.2957, 41.04102
680.7778, 45.21881
681.2599, 44.49042
681.7421, 43.08795
682.2242, 40.70349
682.7063, 36.47784
683.1884, 28.04004
683.6705, 19.49658
684.1526, 11.33966
684.6348, 5.270752
685.1169, 6.395935
685.5990, 26.42230
686.0811, 44.27606
686.5632, 50.40631
687.0453, 45.43823
687.5275, 44.35846
688.0096, 51.99951
688.4917, 54.68945
688.9738, 40.54791
689.4559, 10.11316
689.9380, 2.275879
690.4202, 5.694214
690.9023, 16.09717
691.3844, 8.674133
691.8665, 8.130249
692.3486, 15.27460
692.8307, 7.895020
693.3129, 1.767883
693.7950, 7.833252
694.2771, 10.54706
694.7592, 13.44983
695.2413, 16.59064
695.7234, 20.74518
696.2056, 26.93958
696.6877, 33.86371
697.1698, 39.61926
697.6519, 44.38129
698.1340, 47.62384
698.6161, 49.47095
699.0983, 49.59650
699.5804, 46.73859
700.0625, 41.03619
700.5446, 33.89032
701.0267, 24.81470
701.5089, 15.39142
701.9910, 4.105225
702.4731, 7.324036
702.9552, 8.158508
703.4373, 23.25134
703.9194, 54.60315
704.4016, 62.69049
704.8837, 40.78333
705.3658, 28.96948
705.8479, 39.88409
706.3300, 51.93616
706.8121, 50.86096
707.2943, 33.34912
707.7764, 19.36383
708.2585, 9.131531
708.7406, 4.077087
709.2227, 11.18958
709.7048, 25.78204
710.1870, 27.98059
710.6691, 10.20160
711.1512, 8.348022
711.6333, 8.995239
712.1154, 1.003174
712.5975, 10.45758
713.0797, 17.29449
713.5618, 21.30481
714.0439, 20.85950
714.5260, 17.58765
715.0081, 15.34570
715.4902, 14.62189
715.9724, 13.94434
716.4545, 12.20880
716.9366, 10.55017
717.4187, 14.22858
717.9008, 23.42731
718.3829, 31.73328
718.8651, 34.50610
719.3472, 34.84229
719.8293, 41.60681
720.3114, 52.96967
720.7935, 56.69293
721.2756, 34.11731
721.7578, 9.835205
722.2399, 0.7819820
722.7220, 10.06732
723.2041, 18.45001
723.6862, 22.20435
724.1683, 25.02698
724.6505, 29.17261
725.1326, 35.53308
725.6147, 39.01868
726.0968, 39.47968
726.5789, 37.37292
727.0610, 31.57605
727.5432, 23.33203
728.0253, 17.85614
728.5074, 16.27484
728.9895, 16.04547
729.4716, 13.60602
729.9537, 11.43738
730.4359, 13.36041
730.9180, 26.97876
731.4001, 35.47461
731.8822, 28.66254
732.3643, 15.63568
732.8464, 11.36969
733.3285, 20.53949
733.8106, 28.85773
734.2927, 34.87451
734.7748, 37.86853
735.2570, 34.06256
735.7391, 23.70618
736.2212, 17.22528
736.7033, 20.90308
737.1854, 29.80377
737.6675, 40.85272
738.1497, 51.83484
738.6318, 55.08936
739.1139, 37.66321
739.5960, 19.82489
740.0781, 13.22021
740.5602, 17.79987
741.0424, 20.82373
741.5245, 21.63098
742.0066, 20.52405
742.4887, 16.82220
742.9708, 10.63342
743.4529, 6.996338
743.9351, 5.984741
744.4172, 6.791443
744.8993, 9.588257
745.3814, 13.55078
745.8635, 16.58813
746.3456, 18.50891
746.8278, 3.450500
747.3099, 20.82068
747.7920, 33.84888
748.2741, 36.66565
748.7562, 2.189148
749.2383, 12.76184
749.7205, 5.547546
750.2026, 3.002075
750.6847, 18.91992
751.1668, 13.91364
751.6489, 8.119812
752.1310, 8.259705
752.6132, 18.41864
753.0953, 6.879822
753.5774, 2.042053
754.0595, 18.90778
754.5416, 23.75525
755.0237, 9.716125
755.5059, 10.74377
755.9880, 28.89709
756.4701, 40.60223
756.9522, 37.38373
757.4343, 30.88568
757.9164, 20.07886
758.3986, 8.494873
758.8807, 2.704224
759.3628, 4.614929
759.8449, 6.130188
760.3270, 4.348328
760.8091, 1.568787
761.2913, 1.695984
761.7734, 4.236206
762.2555, 10.18677
762.7376, 28.13147
763.2197, 43.01312
763.7018, 33.52197
764.1840, 7.828979
764.6661, 7.267639
765.1482, 4.265869
765.6303, 19.00543
766.1124, 30.19391
766.5945, 37.67706
767.0767, 39.41266
767.5588, 33.05676
768.0409, 26.94226
768.5230, 25.66919
769.0051, 26.94873
769.4872, 23.32117
769.9694, 15.74615
770.4515, 9.670288
770.9336, 9.827759
771.4157, 12.95850
771.8978, 15.73907
772.3799, 17.99487
772.8621, 20.87585
773.3442, 26.96252
773.8263, 32.02686
774.3084, 33.59064
774.7905, 31.31012
775.2726, 27.76318
775.7548, 21.46277
776.2369, 17.44299
776.7190, 21.82678
777.2011, 32.76025
777.6832, 37.06720
778.1653, 33.97876
778.6475, 29.17896
779.1296, 26.91699
779.6117, 26.01294
780.0938, 24.60767
780.5759, 22.17389
781.0580, 21.79401
781.5402, 26.18628
782.0223, 31.90143
782.5044, 36.57910
782.9865, 41.65741
783.4686, 41.01544
783.9507, 32.63007
784.4329, 22.77203
784.9150, 17.04285
785.3971, 15.38660
785.8792, 18.14014
786.3613, 26.57141
786.8434, 33.44830
787.3256, 30.45685
787.8077, 22.25409
788.2898, 14.29303
788.7719, 4.940796
789.2540, 1.390381
789.7361, 10.68713
790.2183, 24.05121
790.7004, 32.16913
791.1825, 35.44568
791.6646, 30.50891
792.1467, 13.38391
792.6288, 4.761414
793.1110, 5.712036
793.5930, 7.333923
794.0751, 22.71704
794.5573, 40.59717
795.0394, 52.00098
795.5215, 40.63562
796.0036, 19.48108
796.4857, 8.569519
796.9678, 26.43823
797.4500, 39.22540
797.9321, 39.14117
798.4142, 32.20984
798.8963, 27.97919
799.3784, 25.93732
799.8605, 30.84113
800.3427, 48.09967
800.8248, 65.35321
801.3069, 53.96552
801.7890, 22.78607
802.2711, 1.469177
802.7532, 6.647949
803.2354, 19.33130
803.7175, 33.19025
804.1996, 45.48596
804.6817, 49.93359
805.1638, 36.12091
805.6459, 27.47687
806.1281, 30.23309
806.6102, 38.94958
807.0923, 39.83191
807.5744, 32.12103
808.0565, 24.33234
808.5386, 20.28186
809.0208, 16.83966
809.5029, 11.16907
809.9850, 4.372437
810.4671, 2.766846
810.9492, 13.41187
811.4313, 25.67352
811.9135, 37.41827
812.3956, 47.09381
812.8777, 49.49927
813.3598, 41.26361
813.8419, 31.67188
814.3240, 21.78809
814.8062, 12.79108
815.2883, 7.166382
815.7704, 6.037231
816.2525, 11.22321
816.7346, 32.27625
817.2167, 53.36151
817.6989, 49.38654
818.1810, 28.13245
818.6631, 14.31152
819.1452, 25.92816
819.6273, 37.78900
820.1094, 42.49274
820.5916, 40.28204
821.0737, 27.99329
821.5558, 1.081299
822.0379, 16.76617
822.5200, 2.573853
823.0021, 27.86383
823.4843, 32.70447
823.9664, 16.78552
824.4485, 5.134399
824.9306, 14.82916
825.4127, 30.63873
825.8948, 45.43109
826.3770, 57.36841
826.8591, 60.48950
827.3412, 42.50385
827.8233, 28.12842
828.3054, 23.95587
828.7875, 27.69226
829.2697, 29.55042
829.7518, 29.25922
830.2339, 31.23706
830.7160, 41.54797
831.1981, 51.95038
831.6802, 44.29468
832.1624, 23.79877
832.6445, 8.709534
833.1266, 9.617249
833.6087, 16.23572
834.0908, 28.67719
834.5729, 43.88831
835.0551, 48.10132
835.5372, 35.90131
836.0193, 24.39893
836.5014, 19.01141
836.9835, 17.67072
837.4656, 13.42590
837.9478, 6.942444
838.4299, 2.959778
838.9120, 3.570984
839.3941, 7.932922
839.8762, 20.78070
840.3583, 37.30817
840.8405, 42.96851
841.3226, 14.20862
841.8047, 2.803162
842.2868, 11.16486
842.7689, 43.45972
843.2510, 51.32306
843.7332, 31.33044
844.2153, 14.98859
844.6974, 14.83740
845.1795, 22.70990
845.6616, 22.91418
846.1437, 18.58740
846.6259, 18.83929
847.1080, 37.37952
847.5901, 51.63147
848.0722, 46.48615
848.5543, 28.65039
849.0364, 19.51215
849.5186, 25.08063
850.0007, 26.51379
850.4828, 17.61646
850.9649, 4.553589
851.4470, 4.681946
851.9291, 15.63025
852.4113, 22.60217
852.8934, 17.94763
853.3755, 10.45819
853.8576, 7.031799
854.3397, 6.583984
854.8218, 7.374634
855.3040, 10.04980
855.7860, 12.43250
856.2681, 13.02777
856.7502, 13.77661
857.2324, 20.84406
857.7145, 35.27496
858.1966, 39.29962
858.6787, 25.54968
859.1608, 6.743835
859.6429, 2.719727
860.1251, 3.368347
860.6072, 4.233337
861.0893, 31.74768
861.5714, 49.90741
862.0535, 40.23065
862.5356, 17.71747
863.0178, 4.570740
863.4999, 3.312317
863.9820, 5.044067
864.4641, 9.467712
864.9462, 15.20172
865.4283, 21.44446
865.9105, 27.32898
866.3926, 29.93390
866.8747, 28.24567
867.3568, 24.25183
867.8389, 15.10657
868.3210, 6.641663
868.8032, 5.561096
869.2853, 23.18604
869.7674, 30.81946
870.2495, 22.85925
870.7316, 12.19080
871.2137, 16.26752
871.6959, 33.32666
872.1780, 32.71228
872.6601, 9.024414
873.1422, 13.34076
873.6243, 7.775085
874.1064, 10.34332
874.5886, 22.98730
875.0707, 26.23450
875.5528, 27.00641
876.0349, 21.42664
876.5170, 18.69617
876.9991, 26.56030
877.4813, 47.78802
877.9634, 60.14288
878.4455, 63.46130
878.9276, 58.92517
879.4097, 40.60944
879.8918, 16.92767
880.3740, 5.734009
880.8561, 7.440674
881.3382, 12.74670
881.8203, 23.98114
882.3024, 31.74811
882.7845, 27.44849
883.2667, 10.57019
883.7488, 4.886475
884.2309, 13.46686
884.7130, 22.46484
885.1951, 22.61908
885.6772, 17.25775
886.1594, 16.89185
886.6415, 20.60431
887.1236, 22.33118
887.6057, 13.93048
888.0878, 6.624207
888.5699, 9.097168
889.0521, 20.18555
889.5342, 27.28851
890.0163, 29.25995
890.4984, 28.56769
890.9805, 24.14587
891.4626, 18.82227
891.9448, 23.61322
892.4269, 36.60333
892.9090, 46.68811
893.3911, 48.08612
893.8732, 44.82550
894.3553, 36.51343
894.8375, 26.08154
895.3196, 20.73413
895.8017, 24.77905
896.2838, 30.08014
896.7659, 36.54602
897.2480, 42.94312
897.7302, 49.99548
898.2123, 56.66840
898.6944, 48.48657
899.1765, 15.69409
899.6586, 16.65009
900.1407, 22.24969
900.6229, 10.14575
901.1050, 7.484619
901.5871, 38.27222
902.0692, 57.05829
902.5513, 58.13287
903.0334, 52.15253
903.5156, 44.41187
903.9977, 34.35303
904.4798, 34.02545
904.9619, 45.47607
905.4440, 59.40796
905.9261, 73.60895
906.4083, 81.15521
906.8904, 68.07251
907.3725, 26.80621
907.8546, 2.906067
908.3367, 1.690247
908.8188, 8.946350
909.3010, 18.69751
909.7831, 28.15759
910.2652, 26.08417
910.7473, 10.38208
911.2294, 1.625854
911.7115, 25.23492
912.1937, 60.41516
912.6758, 74.14569
913.1579, 66.78735
913.6400, 54.98041
914.1221, 41.50763
914.6042, 29.30200
915.0864, 18.06287
915.5685, 8.687073
916.0506, 8.966675
916.5327, 21.14996
917.0148, 30.57104
917.4969, 29.41882
917.9790, 23.39337
918.4611, 21.71686
918.9432, 22.71698
919.4254, 22.36920
919.9075, 12.72388
920.3896, 8.444458
920.8717, 19.26831
921.3538, 37.70630
921.8359, 51.17761
922.3181, 60.02338
922.8002, 61.48322
923.2823, 53.02039
923.7644, 42.18970
924.2465, 40.59412
924.7286, 44.90778
925.2108, 48.71277
925.6929, 50.65179
926.1750, 51.06659
926.6571, 52.26892
927.1392, 50.52148
927.6213, 40.49847
928.1035, 15.20038
928.5856, 9.276611
929.0677, 26.87579
929.5498, 47.99707
930.0319, 56.30762
930.5140, 54.77295
930.9962, 45.72894
931.4783, 30.91150
931.9604, 21.73169
932.4425, 26.69336
932.9246, 35.25226
933.4067, 42.68048
933.8889, 48.70496
934.3710, 50.88086
934.8531, 49.33240
935.3352, 42.83069
935.8173, 25.97339
936.2994, 7.247314
936.7816, 8.482178
937.2637, 24.23853
937.7458, 35.81360
938.2279, 24.74170
938.7100, 18.19519
939.1921, 32.95349
939.6743, 58.76599
940.1564, 74.93188
940.6385, 80.50598
941.1206, 79.21143
941.6027, 70.23389
942.0848, 58.41101
942.5670, 50.55408
943.0491, 45.21887
943.5312, 38.79968
944.0133, 28.85779
944.4954, 21.87817
944.9775, 21.04089
945.4597, 24.15686
945.9418, 29.78772
946.4239, 39.64270
946.9060, 46.66272
947.3881, 52.14478
947.8702, 53.69226
948.3524, 46.42102
948.8345, 34.96094
949.3166, 26.58167
949.7987, 21.69299
950.2808, 19.15637
950.7629, 17.42712
951.2451, 19.24207
951.7272, 27.43335
952.2093, 40.60583
952.6914, 49.39258
953.1735, 53.84558
953.6556, 52.65906
954.1378, 40.60864
954.6199, 27.66260
955.1020, 33.22278
955.5841, 49.28027
956.0662, 56.84277
956.5483, 34.44373
957.0305, 21.13269
957.5126, 32.45886
957.9947, 51.82239
958.4768, 56.09045
958.9589, 44.75354
959.4410, 24.72595
959.9232, 6.422485
960.4053, 29.16852
960.8874, 14.44641
961.3695, 17.18762
961.8516, 39.31885
962.3337, 46.14783
962.8159, 48.37830
963.2980, 46.11401
963.7801, 42.05798
964.2622, 39.68970
964.7443, 38.79199
965.2264, 30.53247
965.7086, 14.78528
966.1907, 4.987915
966.6728, 17.74060
967.1549, 34.15308
967.6370, 34.08936
968.1191, 21.13745
968.6013, 14.19482
969.0834, 21.50940
969.5655, 28.18445
970.0476, 31.27112
970.5297, 31.85242
971.0118, 32.64600
971.4940, 33.30518
971.9761, 31.82385
972.4582, 27.40857
972.9403, 21.05029
973.4224, 8.282227
973.9045, 3.563965
974.3867, 5.021729
974.8688, 11.22485
975.3509, 23.58191
975.8330, 30.25867
976.3151, 37.01501
976.7972, 54.06689
977.2794, 74.93225
977.7615, 75.84497
978.2436, 56.59216
978.7257, 38.11890
979.2078, 32.87646
979.6899, 31.35876
980.1720, 26.17566
980.6541, 18.55591
981.1362, 20.79968
981.6183, 35.91919
982.1005, 48.28503
982.5826, 52.36438
983.0647, 50.70728
983.5468, 45.64978
984.0289, 38.60193
984.5110, 33.01770
984.9932, 30.16431
985.4753, 28.85193
985.9574, 31.02979
986.4395, 33.11853
986.9216, 29.88977
987.4037, 19.79248
987.8859, 20.01672
988.3680, 33.15955
988.8501, 45.42578
989.3322, 40.67371
989.8143, 29.20178
990.2964, 24.37744
990.7786, 27.84753
991.2607, 28.02026
991.7428, 13.87354
992.2249, 7.357300
992.7070, 21.05664
993.1891, 48.28528
993.6713, 55.18250
994.1534, 43.78040
994.6355, 31.51013
995.1176, 25.59302
995.5997, 22.89941
996.0818, 21.95996
996.5640, 22.24695
997.0461, 22.68140
997.5282, 21.11755
998.0103, 24.59204
998.4924, 36.24609
998.9745, 47.48767
999.4567, 46.57385
999.9388, 36.97754
1000.421, 27.03174
1000.903, 17.41443
1001.385, 13.79187
1001.867, 31.81177
1002.349, 46.25317
1002.831, 33.89905
1003.314, 2.688354
1003.796, 14.02954
1004.278, 3.318359
1004.760, 23.02124
1005.242, 34.28784
1005.724, 39.43689
1006.206, 40.03162
1006.688, 38.29004
1007.171, 37.73035
1007.653, 37.56384
1008.135, 40.63281
1008.617, 50.29016
1009.099, 60.30615
1009.581, 62.00232
1010.063, 55.71912
1010.545, 50.15930
1011.027, 46.31494
1011.510, 42.28394
1011.992, 36.03760
1012.474, 29.14954
1012.956, 22.26270
1013.438, 15.58337
1013.920, 12.81055
1014.402, 14.16760
1014.884, 19.66431
1015.367, 32.03711
1015.849, 46.63696
1016.331, 47.75037
1016.813, 39.42786
1017.295, 35.09155
1017.777, 45.64832
1018.259, 53.23120
1018.741, 56.41101
1019.223, 53.40259
1019.706, 37.08203
1020.188, 1.370850
1020.670, 10.14905
1021.152, 8.663086
1021.634, 33.93457
1022.116, 42.78381
1022.598, 43.38940
1023.080, 48.22778
1023.563, 59.25574
1024.045, 58.63586
1024.527, 27.27271
1025.009, 4.470093
1025.491, 6.289795
1025.973, 24.62805
1026.455, 32.71753
1026.937, 31.68713
1027.419, 28.23718
1027.901, 24.40747
1028.384, 19.99268
1028.866, 11.38904
1029.348, 3.747925
1029.830, 4.782959
1030.312, 18.13831
1030.794, 30.26111
1031.276, 41.36890
1031.758, 49.42627
1032.241, 53.29529
1032.723, 53.49329
1033.205, 48.14172
1033.687, 37.80151
1034.169, 28.36438
1034.651, 23.14453
1035.133, 17.78174
1035.615, 6.564209
1036.098, 4.075928
1036.580, 10.35376
1037.062, 47.41394
1037.544, 76.53577
1038.026, 89.65491
1038.508, 89.35559
1038.990, 65.63171
1039.472, 36.17017
1039.954, 23.81213
1040.437, 41.77380
1040.919, 44.42969
1041.401, 26.31030
1041.883, 8.556274
1042.365, 9.240601
1042.847, 20.85742
1043.329, 25.30359
1043.811, 23.46240
1044.293, 21.32275
1044.776, 17.23865
1045.258, 18.92493
1045.740, 33.54077
1046.222, 52.69287
1046.704, 59.97839
1047.186, 55.34167
1047.668, 49.52576
1048.150, 44.18677
1048.633, 40.85608
1049.115, 42.90613
1049.597, 46.58838
1050.079, 48.54871
1050.561, 48.47681
1051.043, 44.63330
1051.525, 35.32019
1052.007, 26.68237
1052.490, 21.07947
1052.972, 18.83105
1053.454, 23.42114
1053.936, 32.25952
1054.418, 37.47705
1054.900, 33.16614
1055.382, 27.66675
1055.864, 22.28162
1056.346, 17.64307
1056.828, 14.31738
1057.311, 12.14172
1057.793, 13.14270
1058.275, 17.92676
1058.757, 22.66614
1059.239, 23.94116
1059.721, 23.85962
1060.203, 25.39709
1060.685, 28.72998
1061.168, 32.19849
1061.650, 37.05225
1062.132, 39.80261
1062.614, 39.95398
1063.096, 36.06067
1063.578, 16.38464
1064.060, 7.748291
1064.542, 10.14929
1065.025, 27.75671
1065.507, 60.36072
1065.989, 74.87000
1066.471, 77.27271
1066.953, 66.71985
1067.435, 43.64929
1067.917, 33.67798
1068.399, 36.03210
1068.881, 37.46655
1069.364, 27.72827
1069.846, 15.67859
1070.328, 3.812500
1070.810, 4.892578
1071.292, 1.504761
1071.774, 21.19812
1072.256, 29.64392
1072.738, 15.34192
1073.220, 0.8156740
1073.703, 11.84851
1074.185, 37.73206
1074.667, 52.21826
1075.149, 51.66284
1075.631, 49.95007
1076.113, 53.30603
1076.595, 53.95337
1077.077, 48.26831
1077.559, 38.12830
1078.042, 28.67554
1078.524, 19.68506
1079.006, 14.28223
1079.488, 15.25745
1079.970, 14.50195
1080.452, 1.6845999E-02
1080.934, 13.60999
1081.416, 8.323730
1081.899, 22.68469
1082.381, 32.93835
1082.863, 20.08215
1083.345, 8.259766
1083.827, 23.37219
1084.309, 43.06519
1084.791, 39.17419
1085.273, 17.66858
1085.755, 8.613403
1086.238, 26.04944
1086.720, 35.90491
1087.202, 31.45654
1087.684, 20.39697
1088.166, 10.98438
1088.648, 4.195923
1089.130, 2.642944
1089.612, 7.078369
1090.094, 13.05457
1090.577, 20.67725
1091.059, 27.48938
1091.541, 33.69824
1092.023, 38.23206
1092.505, 31.26343
1092.987, 14.86987
1093.469, 7.689209
1093.951, 21.79773
1094.434, 38.84839
1094.916, 49.69446
1095.398, 52.67590
1095.880, 43.74133
1096.362, 15.77148
1096.844, 4.602051
1097.326, 12.10181
1097.808, 23.22192
1098.291, 24.47644
1098.773, 24.18384
1099.255, 38.85376
1099.737, 62.49463
1100.219, 70.83789
1100.701, 43.97900
1101.183, 26.04041
1101.665, 25.16138
1102.147, 30.49976
1102.630, 26.30750
1103.112, 16.00159
1103.594, 6.933960
1104.076, 3.1860001E-02
1104.558, 1.583618
1105.040, 7.942627
1105.522, 18.66309
1106.004, 27.05017
1106.486, 32.84753
1106.969, 34.68030
1107.451, 32.64062
1107.933, 26.60352
1108.415, 13.69763
1108.897, 3.544312
1109.379, 7.647339
1109.861, 15.53455
1110.343, 14.30945
1110.826, 0.5146480
1111.308, 1.721802
1111.790, 20.05823
1112.272, 34.59912
1112.754, 28.04553
1113.236, 13.53027
1113.718, 3.521606
1114.200, 1.793091
1114.682, 2.322021
1115.165, 7.151611
1115.647, 9.981812
1116.129, 1.958374
1116.611, 5.861694
1117.093, 4.461670
1117.575, 22.09937
1118.057, 21.16370
1118.539, 1.276489
1119.021, 11.38232
1119.504, 2.552612
1119.986, 13.31860
1120.468, 11.52527
1120.950, 2.819702
1121.432, 1.142456
1121.914, 1.267090
1122.396, 2.214966
1122.878, 11.20667
1123.361, 18.34509
1123.843, 17.11487
1124.325, 15.05774
1124.807, 17.86609
1125.289, 25.00085
1125.771, 29.52734
1126.253, 31.48450
1126.735, 32.99841
1127.218, 37.18298
1127.700, 38.23975
1128.182, 24.85779
1128.664, 6.867676
1129.146, 0.8140870
1129.628, 4.420044
1130.110, 15.03784
1130.592, 33.16541
1131.074, 43.38721
1131.557, 24.49414
1132.039, 2.170288
1132.521, 7.476074
1133.003, 3.726563
1133.485, 13.73486
1133.967, 20.15198
1134.449, 23.57568
1134.931, 23.93213
1135.413, 21.88721
1135.896, 14.49426
1136.378, 6.687866
1136.860, 10.48413
1137.342, 26.56226
1137.824, 39.02612
1138.306, 40.87549
1138.788, 38.68738
1139.270, 34.76318
1139.752, 30.29163
1140.235, 26.00500
1140.717, 22.28125
1141.199, 20.29333
1141.681, 20.13953
1142.163, 22.58057
1142.645, 29.90442
1143.127, 38.38745
1143.609, 47.69788
1144.092, 56.50708
1144.574, 50.18896
1145.056, 30.83667
1145.538, 18.36658
1146.020, 26.79126
1146.502, 35.80188
1146.984, 31.56604
1147.466, 21.04700
1147.948, 11.76257
1148.431, 3.484741
1148.913, 1.913818
1149.395, 4.552490
1149.877, 2.065796
1150.359, 11.83777
1150.841, 27.20435
1151.323, 37.70435
1151.805, 42.72144
1152.287, 40.56458
1152.770, 27.52002
1153.252, 21.75562
1153.734, 25.96240
1154.216, 31.36523
1154.698, 28.17969
1155.180, 21.87988
1155.662, 17.48462
1156.144, 16.47742
1156.627, 20.69495
1157.109, 36.52991
1157.591, 43.33997
1158.073, 33.57397
1158.555, 21.27490
1159.037, 32.62976
1159.519, 52.81335
1160.001, 54.20398
1160.484, 30.46899
1160.966, 14.41052
1161.448, 14.13245
1161.930, 18.91064
1162.412, 27.23730
1162.894, 35.86169
1163.376, 34.55273
1163.858, 26.96973
1164.340, 22.52063
1164.823, 24.68982
1165.305, 27.52600
1165.787, 30.05725
1166.269, 32.12256
1166.751, 33.26636
1167.233, 33.96387
1167.715, 36.74646
1168.197, 40.90881
1168.679, 43.28040
1169.162, 41.78125
1169.644, 39.41931
1170.126, 39.67664
1170.608, 37.13220
1171.090, 21.89685
1171.572, 3.876221
1172.054, 2.213379
1172.536, 24.62793
1173.019, 44.11035
1173.501, 24.86194
1173.983, 6.445801
1174.465, 13.28748
1174.947, 30.41675
1175.429, 35.75769
1175.911, 29.30701
1176.393, 20.36548
1176.875, 9.070801
1177.358, 1.831787
1177.840, 2.303955
1178.322, 6.779419
1178.804, 14.50330
1179.286, 24.05603
1179.768, 32.06042
1180.250, 38.47632
1180.732, 45.21216
1181.214, 53.01746
1181.697, 57.97815
1182.179, 54.71851
1182.661, 48.63245
1183.143, 45.95581
1183.625, 45.69897
1184.107, 33.26160
1184.589, 6.234497
1185.071, 7.051147
1185.554, 3.494751
1186.036, 25.04419
1186.518, 58.41113
1187.000, 86.67993
1187.482, 84.72070
1187.964, 47.54968
1188.446, 32.39111
1188.928, 42.85388
1189.411, 49.19910
1189.893, 32.82275
1190.375, 14.51794
1190.857, 28.21021
1191.339, 53.03406
1191.821, 57.59961
1192.303, 28.82080
1192.785, 14.15381
1193.267, 14.96155
1193.750, 22.98193
1194.232, 40.78723
1194.714, 56.17322
1195.196, 48.60388
1195.678, 27.99634
1196.160, 14.50122
1196.642, 13.50183
1197.124, 15.22925
1197.606, 19.51843
1198.089, 25.70557
1198.571, 38.25061
1199.053, 48.82166
1199.535, 42.30884
1200.017, 23.61084
1200.499, 9.441895
1200.981, 0.6279300
1201.463, 2.972046
1201.945, 24.68506
1202.428, 47.13330
1202.910, 52.81360
1203.392, 47.68079
1203.874, 36.62256
1204.356, 21.68066
1204.838, 13.73853
1205.320, 19.23877
1205.802, 20.13806
1206.285, 11.25439
1206.767, 0.6787110
1207.249, 0.3111570
1207.731, 6.322754
1208.213, 14.93359
1208.695, 25.26636
1209.177, 27.48718
1209.659, 14.95581
1210.141, 8.175659
1210.624, 13.10474
1211.106, 23.94775
1211.588, 39.75586
1212.070, 52.09326
1212.552, 41.95251
1213.034, 3.152466
1213.516, 14.39734
1213.998, 1.659546
1214.480, 19.42468
1214.963, 28.81384
1215.445, 32.72937
1215.927, 35.78992
1216.409, 37.11804
1216.891, 34.37830
1217.373, 25.39001
1217.855, 21.32788
1218.337, 24.84766
1218.820, 27.32288
1219.302, 23.71765
1219.784, 18.79529
1220.266, 22.70813
1220.748, 31.73621
1221.230, 39.38843
1221.712, 44.55249
1222.194, 46.61572
1222.677, 45.44812
1223.159, 41.68286
1223.641, 34.44482
1224.123, 25.75635
1224.605, 17.07959
1225.087, 10.68250
1225.569, 11.41260
1226.051, 25.93738
1226.533, 39.57349
1227.016, 55.04810
1227.498, 61.04749
1227.980, 36.82605
1228.462, 5.965332
1228.944, 15.45642
1229.426, 48.95581
1229.908, 66.33276
1230.390, 43.18713
1230.872, 33.32605
1231.355, 43.12073
1231.837, 51.70227
1232.319, 33.63269
1232.801, 9.257080
1233.283, 10.17603
1233.765, 29.84802
1234.247, 46.11816
1234.729, 55.88611
1235.212, 59.43811
1235.694, 55.61499
1236.176, 50.38000
1236.658, 50.02979
1237.140, 51.02441
1237.622, 46.89978
1238.104, 39.82605
1238.586, 40.56226
1239.068, 54.15430
1239.551, 60.51465
1240.033, 56.58020
1240.515, 49.02039
1240.997, 42.41357
1241.479, 37.24573
1241.961, 33.03955
1242.443, 30.80164
1242.925, 35.67407
1243.407, 51.97705
1243.890, 53.84692
1244.372, 34.44348
1244.854, 15.49573
1245.336, 23.28613
1245.818, 40.02478
1246.300, 40.86865
1246.782, 28.67944
1247.264, 33.66309
1247.747, 59.19543
1248.229, 77.06494
1248.711, 81.89795
1249.193, 76.46887
1249.675, 48.82446
1250.157, 23.98474
1250.639, 31.23340
1251.121, 63.34717
1251.604, 78.60083
1252.086, 76.49036
1252.568, 66.40430
1253.050, 49.39563
1253.532, 32.07751
1254.014, 10.78271
1254.496, 9.2896000E-02
1254.978, 21.44824
1255.460, 63.92163
1255.943, 74.18164
1256.425, 54.04236
1256.907, 39.32300
1257.389, 39.67847
1257.871, 44.78333
1258.353, 53.32886
1258.835, 57.82837
1259.317, 50.24817
1259.799, 35.15784
1260.281, 37.75146
1260.764, 54.61865
1261.246, 65.78967
1261.728, 66.44019
1262.210, 56.99976
1262.692, 22.48047
1263.174, 5.413696
1263.656, 6.406128
1264.138, 11.56665
1264.621, 19.56372
1265.103, 19.94397
1265.585, 20.45398
1266.067, 24.40845
1266.549, 30.29419
1267.031, 44.27905
1267.513, 51.04785
1267.995, 37.35999
1268.478, 14.76282
1268.960, 21.68713
1269.442, 47.77209
1269.924, 59.75000
1270.406, 47.56824
1270.888, 45.64709
1271.370, 58.21252
1271.852, 63.02234
1272.334, 41.60974
1272.817, 9.617798
1273.299, 7.362549
1273.781, 22.60010
1274.263, 27.67126
1274.745, 5.994873
1275.227, 0.1174320
1275.709, 13.79163
1276.191, 0.0000000E+00
##END=



