##NAMES=Stutzite
##RRUFFID=R070701
##IDEAL CHEMISTRY=Ag_4.64-4.76_Te_3_
##LOCALITY=Klondike mine, Saguache County, Colorado, USA
##OWNER=RRUFF
##SOURCE=Michael Scott
##DESCRIPTION=Black, highly reflective, chonchoidal fracture, blebs scattered throughout the matrix, associated with altaite, R060692
##STATUS=The identification of this mineral is confirmed by single-crystal X-ray diffraction and chemical analysis.
##URL=rruff.info/R070701
##MEASURED CHEMISTRY=Ag_4.94_Te_3.00_
159.4562, 0.0000000E+00
159.9383, 0.1773080
160.4205, 0.3621490
160.9026, 0.4268220
161.3847, 0.1990400
161.8668, 1.9823000E-02
162.3489, 0.1168730
162.8310, 0.3780500
163.3132, 0.4325420
163.7953, 0.3867150
164.2774, 0.3409080
164.7595, 0.2822730
165.2416, 8.9922003E-02
165.7237, 2.9077001E-02
166.2059, 7.7128999E-02
166.6880, 0.2858400
167.1701, 0.4352970
167.6522, 0.3848770
168.1343, 0.2606070
168.6164, 0.1471900
169.0986, 4.3772001E-02
169.5807, 1.2881000E-02
170.0628, 4.1370999E-02
170.5449, 0.1607060
171.0270, 0.2630990
171.5091, 0.2762950
171.9913, 0.2499800
172.4734, 0.2425410
172.9555, 0.2929800
173.4376, 0.3720890
173.9197, 0.4077900
174.4018, 0.3314330
174.8840, 0.2661920
175.3661, 0.2895560
175.8482, 0.3567200
176.3303, 0.4038740
176.8124, 0.3825950
177.2945, 0.3376360
177.7767, 0.2992650
178.2588, 0.2648020
178.7409, 0.2354050
179.2230, 0.2350070
179.7051, 0.2667070
180.1872, 0.3244440
180.6694, 0.4346260
181.1515, 0.5462480
181.6336, 0.5618310
182.1157, 0.4179860
182.5978, 0.2634910
183.0799, 0.1463410
183.5621, 7.0230000E-02
184.0442, 8.4505998E-02
184.5263, 0.1790910
185.0084, 0.2947810
185.4905, 0.3585310
185.9726, 0.3769340
186.4547, 0.3457450
186.9369, 0.2007210
187.4190, 1.4147000E-02
187.9011, 7.8506000E-02
188.3832, 2.1436000E-02
188.8653, 0.2287410
189.3474, 0.3783520
189.8296, 0.4680310
190.3117, 0.5047460
190.7938, 0.4750410
191.2759, 0.3845460
191.7580, 0.2862180
192.2401, 0.1644870
192.7223, 4.8574999E-02
193.2044, 5.0133001E-02
193.6865, 0.1810760
194.1686, 0.3191590
194.6507, 0.3391500
195.1328, 0.2468850
195.6150, 0.1596640
196.0971, 9.1241002E-02
196.5792, 5.1699001E-02
197.0613, 0.1007830
197.5434, 0.2555490
198.0255, 0.4055080
198.5077, 0.4158970
198.9898, 0.2790970
199.4719, 0.1768310
199.9540, 0.1607900
200.4361, 0.2142610
200.9182, 0.2466700
201.4004, 0.2590290
201.8825, 0.2415740
202.3646, 0.1512870
202.8467, 3.2898001E-02
203.3288, 0.1329110
203.8109, 7.1024001E-02
204.2931, 0.1265190
204.7752, 0.2247750
205.2573, 0.2008960
205.7394, 0.1357540
206.2215, 0.1128920
206.7036, 0.1453670
207.1858, 0.1481960
207.6679, 8.3183996E-02
208.1500, 4.1490000E-02
208.6321, 9.5608003E-02
209.1142, 6.0993999E-02
209.5963, 1.2176000E-02
210.0785, 7.8993000E-02
210.5606, 0.1460660
211.0427, 0.1751230
211.5248, 0.1436970
212.0069, 5.3413998E-02
212.4890, 1.8960000E-03
212.9712, 2.0940001E-03
213.4533, 1.9412000E-02
213.9354, 5.2003998E-02
214.4175, 0.1124550
214.8996, 0.1292550
215.3817, 5.8185998E-02
215.8639, 0.1006610
216.3460, 0.1321960
216.8281, 2.8219000E-02
217.3102, 0.2705210
217.7923, 0.3721140
218.2744, 0.2753700
218.7566, 0.1873990
219.2387, 0.1616090
219.7208, 0.1981670
220.2029, 0.2184240
220.6850, 0.2012080
221.1671, 0.1932990
221.6493, 0.2617970
222.1314, 0.4675610
222.6135, 0.6070880
223.0956, 0.6065260
223.5777, 0.4551270
224.0598, 0.3896190
224.5420, 0.4444040
225.0241, 0.5409870
225.5062, 0.5938270
225.9883, 0.5737880
226.4704, 0.5710920
226.9525, 0.6176020
227.4347, 0.7172340
227.9168, 0.7650890
228.3989, 0.7466030
228.8810, 0.6902920
229.3631, 0.6195460
229.8452, 0.5095220
230.3274, 0.4321460
230.8095, 0.4045630
231.2916, 0.4276090
231.7737, 0.4763350
232.2558, 0.5790230
232.7379, 0.6779170
233.2201, 0.7077970
233.7022, 0.6234070
234.1843, 0.5605040
234.6664, 0.5564910
235.1485, 0.6124560
235.6306, 0.6306870
236.1128, 0.5845660
236.5949, 0.5281880
237.0770, 0.5164250
237.5591, 0.5811180
238.0412, 0.6285660
238.5233, 0.6323550
239.0055, 0.5923070
239.4876, 0.5863060
239.9697, 0.6407980
240.4518, 0.6994720
240.9339, 0.7052080
241.4160, 0.6069600
241.8982, 0.5616250
242.3803, 0.6335540
242.8624, 0.8161210
243.3445, 0.8635760
243.8266, 0.6969160
244.3087, 0.4838980
244.7909, 0.3610380
245.2730, 0.3549580
245.7551, 0.3760440
246.2372, 0.4372310
246.7193, 0.5318400
247.2014, 0.5953180
247.6836, 0.6105050
248.1657, 0.6124360
248.6478, 0.6300950
249.1299, 0.6819390
249.6120, 0.7088690
250.0941, 0.7037290
250.5762, 0.6666820
251.0584, 0.5942680
251.5405, 0.4356160
252.0226, 0.3139640
252.5047, 0.3338270
252.9868, 0.5869740
253.4689, 0.7626610
253.9511, 0.8165090
254.4332, 0.7654120
254.9153, 0.6983750
255.3974, 0.5963060
255.8795, 0.5090160
256.3617, 0.4731730
256.8438, 0.5113910
257.3259, 0.5392170
257.8080, 0.5526670
258.2901, 0.5522820
258.7722, 0.5353110
259.2544, 0.4920610
259.7365, 0.4481890
260.2186, 0.4148050
260.7007, 0.3888800
261.1828, 0.3692550
261.6649, 0.3698680
262.1471, 0.3880780
262.6292, 0.4008670
263.1113, 0.3976720
263.5934, 0.4069370
264.0755, 0.4496580
264.5576, 0.5424820
265.0398, 0.6130690
265.5219, 0.6608920
266.0040, 0.6814400
266.4861, 0.6704620
266.9682, 0.6294690
267.4503, 0.5742420
267.9325, 0.4958520
268.4146, 0.3743210
268.8967, 0.3211670
269.3788, 0.3546160
269.8609, 0.4366370
270.3430, 0.5040420
270.8252, 0.5620240
271.3073, 0.5893730
271.7894, 0.5608260
272.2715, 0.4672670
272.7536, 0.4282360
273.2357, 0.4609710
273.7179, 0.5165960
274.2000, 0.5252640
274.6821, 0.4816300
275.1642, 0.4613630
275.6463, 0.5100880
276.1284, 0.6272810
276.6106, 0.6678400
277.0927, 0.6087690
277.5748, 0.5241960
278.0569, 0.5230520
278.5390, 0.6195650
279.0211, 0.6770820
279.5032, 0.6251290
279.9854, 0.4855910
280.4675, 0.4612320
280.9496, 0.5738530
281.4317, 0.7245320
281.9138, 0.8158620
282.3959, 0.8473430
282.8781, 0.8483000
283.3602, 0.8178710
283.8423, 0.7629300
284.3244, 0.7128420
284.8065, 0.6672310
285.2886, 0.6305800
285.7708, 0.6081780
286.2529, 0.5991990
286.7350, 0.5953920
287.2171, 0.5985090
287.6992, 0.6029760
288.1813, 0.5823170
288.6635, 0.5340540
289.1456, 0.5072080
289.6277, 0.5660660
290.1098, 0.6938140
290.5919, 0.7724130
291.0740, 0.7772000
291.5562, 0.7329570
292.0383, 0.6821240
292.5204, 0.6245770
293.0025, 0.5631020
293.4846, 0.4747810
293.9667, 0.3792670
294.4489, 0.3547460
294.9310, 0.4235720
295.4131, 0.5333260
295.8952, 0.6170260
296.3773, 0.6755690
296.8594, 0.7182310
297.3416, 0.7662000
297.8237, 0.8014920
298.3058, 0.7578180
298.7879, 0.6123090
299.2700, 0.4779200
299.7521, 0.5413170
300.2343, 0.7449110
300.7164, 0.8877980
301.1985, 0.8165200
301.6806, 0.6483810
302.1627, 0.5656090
302.6448, 0.5779240
303.1270, 0.6155650
303.6091, 0.6166630
304.0912, 0.6021930
304.5733, 0.5977370
305.0554, 0.6434060
305.5375, 0.6985440
306.0197, 0.7104900
306.5018, 0.6808980
306.9839, 0.6370420
307.4660, 0.5981350
307.9481, 0.5580220
308.4302, 0.5062410
308.9124, 0.4126970
309.3945, 0.3316280
309.8766, 0.3271600
310.3587, 0.3850300
310.8408, 0.4281910
311.3229, 0.3751840
311.8051, 0.2977040
312.2872, 0.2772000
312.7693, 0.3760020
313.2514, 0.4614760
313.7335, 0.4340410
314.2156, 0.3273500
314.6978, 0.2395720
315.1799, 0.2421760
315.6620, 0.2637040
316.1441, 0.2434360
316.6262, 0.1414540
317.1083, 8.2718000E-02
317.5905, 0.1640140
318.0726, 0.3193100
318.5547, 0.4347500
319.0368, 0.4496740
319.5189, 0.4307990
320.0010, 0.4045590
320.4832, 0.3709750
320.9653, 0.3434960
321.4474, 0.3315510
321.9295, 0.3260920
322.4116, 0.3172810
322.8937, 0.2797290
323.3759, 0.2628660
323.8580, 0.2962300
324.3401, 0.3873790
324.8222, 0.4410670
325.3043, 0.4298230
325.7864, 0.3832480
326.2686, 0.3239070
326.7507, 0.2224830
327.2328, 0.1437070
327.7149, 9.2683002E-02
328.1970, 7.0044003E-02
328.6791, 7.9981998E-02
329.1613, 0.1796160
329.6434, 0.2666340
330.1255, 0.2875780
330.6076, 0.1679000
331.0897, 9.0389997E-02
331.5718, 7.8245997E-02
332.0540, 0.1098460
332.5361, 0.1231650
333.0182, 0.1098480
333.5003, 8.9133002E-02
333.9824, 6.4358003E-02
334.4645, 2.3544000E-02
334.9467, 1.9166000E-02
335.4288, 7.7183001E-02
335.9109, 0.1532610
336.3930, 0.1663200
336.8751, 8.1951998E-02
337.3572, 1.6473001E-02
337.8394, 1.5635001E-02
338.3215, 8.0899999E-02
338.8036, 0.1044860
339.2857, 7.0389003E-02
339.7678, 2.3740999E-02
340.2499, 1.1695000E-02
340.7321, 3.7262999E-02
341.2142, 8.4582999E-02
341.6963, 0.1653840
342.1784, 0.2638370
342.6605, 0.2957850
343.1426, 0.2448130
343.6248, 0.1766090
344.1069, 0.1585450
344.5890, 0.1914070
345.0711, 0.2195870
345.5532, 0.2370020
346.0353, 0.2424980
346.5175, 0.2271330
346.9996, 0.1911780
347.4817, 0.1587070
347.9638, 0.1480180
348.4459, 0.1516410
348.9280, 0.1433390
349.4102, 0.1158940
349.8923, 9.9771999E-02
350.3744, 0.1668980
350.8565, 0.2894710
351.3386, 0.3604030
351.8207, 0.2706750
352.3029, 0.1163400
352.7850, 6.1466001E-02
353.2671, 0.1085560
353.7492, 0.1828310
354.2313, 0.2438410
354.7134, 0.2839830
355.1956, 0.2896860
355.6777, 0.2477260
356.1598, 0.1772570
356.6419, 6.4779997E-02
357.1240, 7.5066000E-02
357.6061, 0.1636270
358.0883, 0.1189770
358.5704, 1.5811000E-02
359.0525, 8.1625998E-02
359.5346, 0.1831950
360.0167, 0.2282580
360.4988, 0.1137480
360.9810, 8.5263997E-02
361.4631, 0.2025850
361.9452, 0.1081820
362.4273, 4.1044001E-02
362.9094, 0.1685470
363.3915, 0.2692620
363.8737, 0.3302740
364.3558, 0.3142510
364.8379, 0.2666860
365.3200, 0.2413490
365.8021, 0.2813310
366.2842, 0.3126420
366.7664, 0.3079900
367.2485, 0.2665340
367.7306, 0.2360620
368.2127, 0.2079320
368.6948, 0.2013220
369.1769, 0.2289140
369.6591, 0.3880540
370.1412, 0.4610120
370.6233, 0.3969010
371.1054, 0.2331080
371.5875, 0.1083430
372.0696, 1.8932000E-02
372.5518, 2.5394000E-02
373.0339, 1.2912000E-02
373.5160, 8.4801003E-02
373.9981, 0.1596870
374.4802, 0.2128270
374.9623, 0.2429530
375.4445, 0.2385810
375.9266, 0.1774760
376.4087, 0.1443400
376.8908, 0.1791280
377.3729, 0.2781930
377.8550, 0.3227720
378.3372, 0.3071190
378.8193, 0.2513710
379.3014, 0.1510020
379.7835, 4.1700000E-04
380.2656, 8.6251996E-02
380.7477, 8.1428997E-02
381.2299, 5.5370000E-03
381.7120, 0.1254980
382.1941, 0.3157150
382.6762, 0.4548290
383.1583, 0.4187760
383.6404, 0.2596880
384.1226, 0.1732890
384.6047, 0.1879910
385.0868, 0.2422270
385.5689, 0.2666990
386.0510, 0.2671310
386.5331, 0.2629300
387.0153, 0.2528280
387.4974, 0.2442380
387.9795, 0.2527640
388.4616, 0.2783710
388.9437, 0.2896160
389.4258, 0.2379500
389.9080, 0.1633350
390.3901, 0.1245570
390.8722, 0.1571030
391.3543, 0.2099590
391.8364, 0.2618060
392.3185, 0.3069990
392.8007, 0.3269110
393.2828, 0.3071460
393.7649, 0.2627170
394.2470, 0.1924270
394.7291, 7.0982002E-02
395.2112, 6.0910000E-03
395.6934, 2.1831000E-02
396.1755, 0.1098450
396.6576, 0.1901630
397.1397, 0.2704690
397.6218, 0.3174210
398.1039, 0.3169210
398.5861, 0.2664450
399.0682, 0.1946980
399.5503, 4.6870001E-02
400.0324, 8.6997002E-02
400.5145, 0.1386980
400.9966, 3.5105001E-02
401.4788, 4.7825001E-02
401.9609, 9.5049001E-02
402.4430, 0.1128670
402.9251, 0.1260930
403.4072, 0.1407550
403.8893, 0.1413940
404.3714, 0.1115440
404.8535, 3.1135000E-02
405.3357, 1.0165000E-02
405.8178, 7.3083997E-02
406.2999, 0.1630700
406.7820, 0.1910710
407.2641, 0.1442850
407.7462, 0.1101350
408.2284, 0.1226480
408.7105, 0.1690260
409.1926, 0.1797330
409.6747, 0.1495180
410.1568, 0.1222340
410.6389, 0.1443810
411.1211, 0.2067400
411.6032, 0.2537660
412.0853, 0.2727510
412.5674, 0.2795680
413.0495, 0.3067650
413.5316, 0.3477460
414.0138, 0.3685070
414.4959, 0.3326090
414.9780, 0.2676100
415.4601, 0.2147070
415.9422, 0.1832140
416.4243, 0.1782790
416.9065, 0.2129010
417.3886, 0.2668870
417.8707, 0.3108830
418.3528, 0.3502550
418.8349, 0.3572160
419.3170, 0.2866640
419.7992, 0.1700290
420.2813, 9.7687997E-02
420.7634, 0.1585680
421.2455, 0.2337440
421.7276, 0.2349330
422.2097, 0.1036800
422.6919, 6.4860000E-03
423.1740, 8.4349997E-03
423.6561, 6.3878000E-02
424.1382, 0.1029160
424.6203, 7.7275001E-02
425.1024, 7.1184002E-02
425.5846, 0.1213770
426.0667, 0.2330070
426.5488, 0.3016950
427.0309, 0.3196830
427.5130, 0.3021690
427.9951, 0.2531790
428.4773, 0.1407400
428.9594, 6.8222001E-02
429.4415, 5.3860001E-02
429.9236, 7.8001000E-02
430.4057, 9.2649996E-02
430.8878, 0.1005670
431.3700, 9.8852001E-02
431.8521, 7.1147002E-02
432.3342, 1.7229000E-02
432.8163, 3.2659002E-02
433.2984, 0.1343500
433.7805, 0.2466490
434.2627, 0.2801310
434.7448, 0.2411810
435.2269, 0.1886580
435.7090, 0.1229950
436.1911, 6.8519004E-02
436.6732, 0.1149510
437.1554, 0.2486210
437.6375, 0.3439530
438.1196, 0.2780180
438.6017, 0.1311580
439.0838, 2.0977000E-02
439.5659, 4.5130000E-02
440.0481, 6.3323997E-02
440.5302, 1.2552000E-02
441.0123, 0.1324100
441.4944, 0.2121300
441.9765, 0.1954180
442.4586, 0.1462140
442.9408, 7.6828003E-02
443.4229, 3.4850000E-03
443.9050, 3.2209001E-02
444.3871, 8.8280000E-02
444.8692, 0.2222510
445.3513, 0.2743130
445.8335, 0.1668700
446.3156, 8.9552999E-02
446.7977, 8.0599003E-02
447.2798, 0.1223970
447.7619, 0.1857450
448.2440, 0.3440610
448.7262, 0.4397260
449.2083, 0.4101500
449.6904, 0.2457200
450.1725, 0.1568170
450.6546, 0.1859530
451.1367, 0.2372930
451.6189, 0.2509250
452.1010, 0.2201490
452.5831, 0.1948170
453.0652, 0.1778560
453.5473, 0.1698860
454.0294, 0.1626450
454.5116, 0.1542690
454.9937, 0.1583140
455.4758, 0.1939750
455.9579, 0.2508940
456.4400, 0.2653690
456.9221, 0.2340910
457.4043, 0.1920910
457.8864, 0.1566420
458.3685, 0.1343880
458.8506, 0.1512010
459.3327, 0.2282580
459.8148, 0.3058360
460.2970, 0.3111560
460.7791, 0.2589040
461.2612, 0.1973620
461.7433, 0.1108600
462.2254, 5.3700998E-02
462.7076, 0.1011070
463.1897, 0.2698990
463.6718, 0.4039550
464.1539, 0.3920280
464.6360, 0.3151610
465.1181, 0.2539990
465.6003, 0.2360700
466.0824, 0.2294680
466.5645, 0.2365500
467.0466, 0.2512640
467.5287, 0.2507500
468.0108, 0.2206580
468.4930, 0.1854040
468.9751, 0.1516810
469.4572, 0.1169920
469.9393, 9.3886003E-02
470.4214, 8.6583003E-02
470.9035, 8.7237999E-02
471.3857, 8.5652001E-02
471.8678, 7.7289000E-02
472.3499, 8.7171003E-02
472.8320, 0.1297250
473.3141, 0.1865530
473.7962, 0.1883490
474.2784, 0.1276900
474.7605, 6.7699999E-02
475.2426, 4.9862999E-02
475.7247, 6.6917002E-02
476.2068, 6.6757999E-02
476.6889, 4.1939002E-02
477.1711, 3.5381999E-02
477.6532, 0.1349020
478.1353, 0.2943630
478.6174, 0.3821360
479.0995, 0.3187430
479.5816, 0.2068330
480.0638, 0.1527140
480.5459, 0.1463930
481.0280, 0.1549390
481.5101, 0.1709870
481.9922, 0.1871410
482.4743, 0.1946690
482.9565, 0.1897260
483.4386, 0.1931840
483.9207, 0.2305110
484.4028, 0.2733350
484.8849, 0.2917810
485.3670, 0.2702180
485.8492, 0.2341360
486.3313, 0.1550650
486.8134, 5.4382000E-02
487.2955, 4.1692000E-02
487.7776, 0.2199350
488.2597, 0.3623770
488.7419, 0.3599630
489.2240, 0.1654830
489.7061, 5.9257001E-02
490.1882, 6.4267002E-02
490.6703, 0.1223820
491.1524, 0.1884100
491.6346, 0.2714690
492.1167, 0.2757140
492.5988, 0.1421770
493.0809, 4.2199999E-02
493.5630, 1.7920000E-02
494.0451, 0.2081160
494.5273, 0.4117290
495.0094, 0.4448390
495.4915, 0.3627030
495.9736, 0.2756060
496.4557, 0.1871910
496.9378, 0.1282940
497.4200, 0.1534510
497.9021, 0.2187200
498.3842, 0.2557750
498.8663, 0.2127830
499.3484, 0.1699590
499.8305, 0.1830200
500.3127, 0.2362370
500.7948, 0.2894540
501.2769, 0.3589620
501.7590, 0.3968970
502.2411, 0.3669420
502.7232, 0.2482770
503.2054, 0.1744910
503.6875, 0.2066830
504.1696, 0.2677020
504.6517, 0.2949780
505.1338, 0.2615640
505.6159, 0.2401040
506.0981, 0.2557870
506.5802, 0.2761330
507.0623, 0.1990990
507.5444, 3.5404000E-02
508.0265, 0.1719820
508.5086, 7.0950001E-02
508.9908, 0.2265690
509.4729, 0.3704290
509.9550, 0.3479000
510.4371, 0.2712690
510.9192, 0.2187260
511.4013, 0.1908900
511.8835, 0.1973600
512.3655, 0.2480560
512.8477, 0.3051300
513.3298, 0.3260830
513.8119, 0.3191290
514.2940, 0.3037390
514.7761, 0.2783570
515.2582, 0.2560030
515.7404, 0.2531750
516.2225, 0.2661900
516.7046, 0.2674900
517.1867, 0.2420510
517.6688, 0.2029850
518.1509, 0.1544660
518.6331, 8.4403001E-02
519.1152, 3.4724001E-02
519.5973, 7.2000001E-04
520.0794, 3.9679999E-03
520.5615, 4.1533001E-02
521.0436, 0.2147540
521.5258, 0.3187170
522.0079, 0.2861230
522.4900, 0.1516190
522.9721, 9.0202004E-02
523.4542, 0.1268320
523.9363, 0.1662430
524.4185, 0.1487130
524.9006, 7.4777998E-02
525.3827, 4.2567000E-02
525.8648, 5.3897999E-02
526.3469, 9.5812999E-02
526.8290, 0.1931800
527.3112, 0.3176290
527.7933, 0.3539840
528.2754, 0.2423940
528.7575, 8.8896997E-02
529.2396, 6.7540002E-03
529.7217, 1.2777000E-02
530.2039, 8.2270000E-03
530.6860, 1.0430000E-02
531.1681, 3.7863001E-02
531.6502, 6.6292003E-02
532.1323, 9.6033998E-02
532.6144, 0.1458330
533.0966, 0.2771420
533.5787, 0.3968530
534.0608, 0.4370760
534.5429, 0.3230830
535.0250, 0.2325680
535.5071, 0.1800610
535.9893, 0.1591790
536.4714, 0.1680490
536.9535, 0.2350690
537.4356, 0.2754800
537.9177, 0.2608480
538.3998, 0.2026190
538.8820, 0.1734280
539.3641, 0.1777720
539.8462, 0.1915410
540.3283, 0.1994470
540.8104, 0.2031770
541.2925, 0.2130150
541.7747, 0.2283440
542.2568, 0.2566530
542.7389, 0.3310210
543.2210, 0.4239300
543.7031, 0.4667830
544.1852, 0.4212400
544.6674, 0.3503910
545.1495, 0.3167550
545.6316, 0.3036250
546.1137, 0.2690530
546.5958, 0.1365490
547.0779, 2.6535001E-02
547.5601, 2.5846999E-02
548.0422, 0.1441490
548.5243, 0.2225350
549.0064, 0.1886410
549.4885, 0.1350700
549.9706, 0.1205550
550.4528, 0.1816430
550.9349, 0.2100440
551.4170, 0.1970950
551.8991, 0.1683790
552.3812, 0.1551570
552.8633, 0.1552660
553.3455, 0.1686500
553.8276, 0.2010450
554.3097, 0.2458390
554.7918, 0.2745450
555.2739, 0.2867430
555.7560, 0.3031340
556.2382, 0.3544300
556.7203, 0.4154720
557.2024, 0.4209300
557.6845, 0.3665300
558.1666, 0.3073770
558.6487, 0.3062730
559.1309, 0.3215420
559.6130, 0.2959350
560.0951, 0.1921770
560.5772, 9.0888999E-02
561.0593, 7.9399999E-04
561.5414, 5.6487001E-02
562.0236, 4.2100001E-02
562.5057, 0.1625940
562.9878, 0.3261260
563.4699, 0.3606070
563.9520, 0.2803210
564.4341, 0.2424140
564.9163, 0.2765310
565.3984, 0.3087350
565.8805, 0.2948570
566.3626, 0.2410920
566.8447, 0.2084870
567.3268, 0.1962410
567.8090, 0.1903600
568.2911, 0.1652950
568.7732, 0.1271530
569.2553, 0.1359850
569.7374, 0.2255760
570.2195, 0.3225630
570.7017, 0.3067350
571.1838, 0.2096910
571.6659, 0.1320790
572.1480, 0.1437110
572.6301, 0.1800550
573.1122, 0.1934630
573.5944, 0.1836880
574.0765, 0.1581570
574.5586, 8.3810002E-02
575.0407, 2.1724001E-02
575.5228, 1.3357000E-02
576.0049, 8.5302003E-02
576.4871, 0.1510420
576.9692, 0.2368560
577.4513, 0.2927120
577.9334, 0.2578460
578.4155, 6.0183000E-02
578.8976, 4.8168000E-02
579.3798, 1.1828000E-02
579.8619, 0.1098700
580.3440, 0.1744890
580.8261, 0.1781320
581.3082, 0.1732320
581.7903, 0.1808900
582.2725, 0.1962000
582.7546, 0.2134940
583.2367, 0.2310050
583.7188, 0.2237190
584.2009, 0.1467140
584.6830, 4.4886999E-02
585.1652, 2.9806999E-02
585.6473, 7.3284999E-02
586.1294, 7.2223999E-02
586.6115, 1.9463001E-02
587.0936, 0.1419620
587.5757, 0.2313720
588.0579, 0.2551530
588.5400, 0.2677270
589.0221, 0.2728920
589.5042, 0.2726660
589.9863, 0.2713140
590.4684, 0.2592280
590.9506, 0.2623620
591.4327, 0.2947020
591.9148, 0.3508940
592.3969, 0.3854220
592.8790, 0.3987580
593.3611, 0.3886350
593.8433, 0.3334990
594.3254, 0.2479470
594.8075, 0.2196810
595.2896, 0.2580050
595.7717, 0.2948260
596.2538, 0.2418200
596.7360, 0.1443880
597.2181, 8.4112003E-02
597.7002, 9.0558000E-02
598.1823, 0.1260080
598.6644, 0.1908500
599.1465, 0.2665360
599.6287, 0.3189150
600.1108, 0.3180310
600.5929, 0.3111890
601.0750, 0.3086190
601.5571, 0.3113690
602.0392, 0.3239450
602.5214, 0.3636710
603.0035, 0.3904520
603.4856, 0.3933070
603.9677, 0.3719020
604.4498, 0.2897670
604.9319, 0.1177430
605.4141, 2.7133999E-02
605.8962, 1.3839999E-03
606.3783, 0.1650900
606.8604, 0.2750580
607.3425, 0.3036420
607.8246, 0.2761000
608.3068, 0.1882440
608.7889, 6.8792999E-02
609.2710, 1.8828001E-02
609.7531, 4.7754999E-02
610.2352, 4.2463001E-02
610.7173, 1.4455000E-02
611.1995, 3.5439000E-02
611.6816, 0.1045660
612.1637, 0.2461840
612.6458, 0.3556550
613.1279, 0.3780960
613.6100, 0.3081350
614.0922, 0.2674660
614.5743, 0.2709940
615.0564, 0.2836390
615.5385, 0.2855000
616.0206, 0.2732840
616.5027, 0.2732850
616.9849, 0.2908770
617.4670, 0.3045640
617.9491, 0.2782750
618.4312, 0.2222050
618.9133, 0.1905340
619.3954, 0.1969030
619.8776, 0.2199950
620.3597, 0.2314650
620.8418, 0.2350570
621.3239, 0.2476740
621.8060, 0.3059540
622.2881, 0.3484130
622.7703, 0.3363550
623.2524, 0.2776240
623.7345, 0.2057730
624.2166, 7.7423997E-02
624.6987, 1.1334000E-02
625.1808, 7.3670000E-03
625.6630, 9.9423997E-02
626.1451, 0.1488510
626.6272, 0.1058450
627.1093, 6.3132003E-02
627.5914, 9.9831000E-02
628.0735, 0.2249560
628.5557, 0.2910010
629.0378, 0.2822410
629.5199, 0.2467440
630.0020, 0.2311080
630.4841, 0.2345460
630.9662, 0.2581270
631.4484, 0.3114790
631.9305, 0.3649020
632.4126, 0.3879000
632.8947, 0.3895090
633.3768, 0.3891740
633.8589, 0.4085230
634.3411, 0.4144500
634.8232, 0.3913570
635.3053, 0.3419170
635.7874, 0.2824240
636.2695, 0.1854960
636.7516, 0.1088330
637.2338, 8.7076001E-02
637.7159, 0.1131290
638.1980, 0.1464410
638.6801, 0.1951000
639.1622, 0.2284950
639.6443, 0.2062680
640.1265, 0.1381850
640.6086, 0.1148460
641.0907, 0.1484950
641.5728, 0.1951820
642.0549, 0.2108930
642.5370, 0.2060800
643.0192, 0.1958500
643.5013, 0.1774060
643.9834, 0.1721650
644.4655, 0.2276670
644.9476, 0.2983620
645.4297, 0.3170120
645.9119, 0.1849290
646.3940, 8.6638004E-02
646.8761, 9.3080997E-02
647.3582, 0.1741270
647.8403, 0.2177770
648.3224, 0.2160540
648.8046, 0.1919420
649.2867, 0.1434640
649.7688, 7.5943001E-02
650.2509, 4.1781999E-02
650.7330, 4.0899001E-02
651.2151, 7.1277998E-02
651.6973, 0.1666900
652.1794, 0.2875980
652.6615, 0.3314030
653.1436, 0.2891780
653.6257, 0.2132900
654.1078, 0.1077110
654.5900, 8.3459998E-03
655.0721, 4.4751000E-02
655.5542, 2.8374000E-02
656.0363, 6.7480002E-03
656.5184, 6.7569003E-02
657.0005, 0.1298080
657.4827, 0.1598380
657.9648, 0.1220340
658.4469, 0.1141930
658.9290, 0.1766620
659.4111, 0.2629940
659.8932, 0.2372930
660.3754, 8.6405002E-02
660.8575, 1.2958000E-02
661.3396, 2.8369000E-02
661.8217, 0.1496150
662.3038, 0.2051370
662.7859, 0.2012260
663.2681, 0.1790110
663.7502, 0.1404750
664.2323, 0.1186750
664.7144, 0.1591520
665.1965, 0.2614160
665.6786, 0.3545540
666.1608, 0.4517920
666.6429, 0.4982500
667.1250, 0.4389120
667.6071, 0.1935050
668.0892, 5.7145000E-02
668.5714, 8.8091999E-02
669.0535, 0.1759050
669.5356, 0.2112420
670.0177, 0.1866070
670.4998, 0.1727700
670.9819, 0.1772130
671.4641, 0.1903850
671.9462, 0.2074490
672.4283, 0.2231480
672.9104, 0.2144340
673.3925, 0.1586490
673.8746, 0.1021970
674.3568, 0.1017670
674.8389, 0.1360630
675.3210, 0.1595520
675.8031, 0.1308810
676.2852, 0.1106510
676.7673, 0.1415060
677.2495, 0.2097030
677.7316, 0.2254130
678.2137, 0.1335590
678.6958, 6.4214997E-02
679.1779, 7.3751003E-02
679.6600, 0.1574390
680.1422, 0.1990390
680.6243, 0.1968800
681.1064, 0.1667760
681.5885, 8.0614001E-02
682.0706, 2.5303001E-02
682.5527, 5.9790001E-03
683.0349, 0.1511000
683.5170, 0.2988100
683.9991, 0.3061320
684.4812, 0.2478550
684.9633, 0.2000270
685.4454, 0.1690880
685.9276, 0.1770900
686.4097, 0.2846740
686.8918, 0.4097600
687.3739, 0.4618350
687.8560, 0.4086610
688.3381, 0.3327660
688.8203, 0.2183430
689.3024, 0.1005380
689.7845, 3.7510999E-02
690.2666, 3.0805999E-02
690.7487, 5.3133000E-02
691.2308, 0.1018580
691.7130, 0.1690320
692.1951, 0.2849090
692.6772, 0.4180980
693.1593, 0.4576330
693.6414, 0.2352540
694.1235, 7.4450001E-03
694.6057, 6.9730997E-02
695.0878, 1.5206000E-02
695.5699, 9.7162001E-02
696.0520, 0.1383310
696.5341, 0.1584590
697.0162, 0.1490120
697.4984, 0.1112360
697.9805, 0.1369280
698.4626, 0.2741820
698.9447, 0.3765110
699.4268, 0.3225900
699.9089, 0.1252530
700.3911, 7.7632003E-02
700.8732, 0.1911790
701.3553, 0.3092270
701.8374, 0.2758370
702.3195, 0.1588190
702.8016, 6.9931000E-02
703.2838, 2.3647999E-02
703.7659, 7.3259999E-03
704.2480, 4.0550999E-02
704.7301, 8.5534997E-02
705.2122, 0.1056130
705.6943, 7.5104997E-02
706.1765, 4.9959999E-02
706.6586, 3.0701000E-02
707.1407, 2.1152001E-02
707.6228, 2.7272001E-02
708.1049, 5.2482001E-02
708.5870, 8.1432000E-02
709.0692, 0.1161750
709.5513, 0.1459520
710.0334, 0.1451520
710.5155, 0.1207540
710.9976, 0.1102220
711.4797, 0.1316050
711.9618, 0.1657090
712.4439, 0.1923970
712.9260, 0.2136290
713.4081, 0.2442460
713.8903, 0.3454390
714.3724, 0.3984460
714.8545, 0.3289710
715.3366, 0.1585850
715.8187, 3.3169001E-02
716.3008, 6.3257001E-02
716.7830, 8.3253004E-02
717.2651, 2.2747001E-02
717.7472, 0.2291950
718.2293, 0.3117350
718.7114, 0.2636000
719.1935, 0.1940030
719.6757, 0.1712570
720.1578, 0.1737260
720.6399, 0.1556230
721.1220, 0.1174010
721.6041, 8.8739999E-02
722.0862, 8.8096999E-02
722.5684, 0.1056400
723.0505, 0.1424710
723.5326, 0.2076280
724.0147, 0.2443950
724.4968, 0.2523990
724.9789, 0.2222170
725.4611, 0.1273640
725.9432, 7.7698000E-02
726.4253, 0.1532170
726.9074, 7.1161002E-02
727.3895, 5.8752000E-02
727.8716, 0.1236070
728.3538, 0.1360350
728.8359, 0.1410100
729.3180, 0.1436510
729.8001, 0.1504360
730.2822, 0.1802670
730.7643, 0.2134340
731.2465, 0.2205060
731.7286, 0.1589400
732.2107, 0.1242000
732.6928, 0.1729920
733.1749, 0.2535440
733.6570, 0.2836340
734.1392, 0.2294330
734.6213, 0.2026270
735.1034, 0.2309660
735.5855, 0.2828080
736.0676, 0.2754360
736.5497, 0.2093120
737.0319, 0.1720130
737.5140, 0.2143500
737.9961, 0.2792500
738.4782, 0.2897390
738.9603, 0.2604830
739.4424, 0.2292110
739.9246, 0.2160550
740.4067, 0.2011620
740.8888, 0.1619530
741.3709, 0.1079610
741.8530, 8.5825004E-02
742.3351, 0.1189200
742.8173, 0.1500550
743.2994, 0.1610560
743.7815, 0.1570290
744.2636, 0.1717320
744.7457, 0.2075990
745.2278, 0.2284040
745.7100, 0.1886720
746.1921, 0.1355620
746.6742, 0.1623020
747.1563, 0.2468270
747.6384, 0.3022430
748.1205, 0.2251990
748.6027, 0.1384440
749.0848, 0.1373010
749.5669, 0.2312150
750.0490, 0.2968850
750.5311, 0.3044050
751.0132, 0.2973800
751.4954, 0.2941310
751.9775, 0.2946160
752.4596, 0.2839970
752.9417, 0.2664660
753.4238, 0.2618440
753.9059, 0.2992070
754.3881, 0.3625900
754.8702, 0.4186790
755.3523, 0.4648800
755.8344, 0.4854760
756.3165, 0.4538270
756.7986, 0.4001160
757.2808, 0.3485440
757.7629, 0.3000210
758.2450, 0.2622070
758.7271, 0.2259770
759.2092, 0.2090600
759.6913, 0.2292220
760.1735, 0.2993460
760.6556, 0.3546080
761.1377, 0.3946990
761.6198, 0.4157850
762.1019, 0.4135860
762.5840, 0.3888650
763.0662, 0.3338140
763.5483, 0.2382960
764.0304, 0.1610310
764.5125, 0.1884930
764.9946, 0.2465730
765.4767, 0.2443010
765.9589, 9.4414003E-02
766.4410, 1.8530000E-03
766.9231, 2.5807999E-02
767.4052, 0.1074350
767.8873, 0.2040370
768.3694, 0.3385440
768.8516, 0.3824190
769.3337, 0.3013840
769.8158, 0.1733060
770.2979, 0.1014680
770.7800, 7.8873001E-02
771.2621, 8.1592999E-02
771.7443, 0.1059660
772.2264, 0.1473160
772.7085, 0.2295690
773.1906, 0.3182870
773.6727, 0.3620960
774.1548, 0.3065640
774.6370, 0.2472370
775.1191, 0.1917740
775.6012, 0.1488410
776.0833, 0.1433450
776.5654, 0.1812750
777.0475, 0.2367620
777.5297, 0.3164230
778.0118, 0.3914980
778.4939, 0.4131580
778.9760, 0.3858640
779.4581, 0.3201690
779.9402, 0.1798310
780.4224, 6.2224001E-02
780.9045, 6.4041004E-02
781.3866, 0.1421930
781.8687, 0.2161050
782.3508, 0.2787420
782.8329, 0.3158420
783.3151, 0.3164480
783.7972, 0.2892590
784.2793, 0.2678650
784.7614, 0.2681090
785.2435, 0.2453260
785.7256, 0.1627700
786.2078, 7.3087998E-02
786.6899, 0.1085410
787.1720, 0.2357430
787.6541, 0.3304820
788.1362, 0.3169500
788.6183, 0.2740580
789.1005, 0.2348140
789.5826, 0.2068640
790.0647, 0.2104780
790.5468, 0.3246610
791.0289, 0.3778100
791.5110, 0.3192050
791.9932, 0.1822670
792.4753, 5.9091002E-02
792.9574, 5.5268001E-02
793.4395, 0.1171880
793.9216, 9.6224003E-02
794.4037, 3.0901000E-02
794.8859, 6.9260001E-03
795.3680, 2.6295001E-02
795.8501, 5.4145001E-02
796.3322, 0.1192470
796.8143, 0.1817800
797.2964, 0.2294080
797.7786, 0.2580810
798.2607, 0.2506420
798.7428, 0.1778150
799.2249, 0.1113260
799.7070, 6.1639000E-02
800.1891, 3.2287002E-02
800.6713, 4.8710998E-02
801.1534, 0.1117360
801.6355, 0.1530100
802.1176, 0.1396120
802.5997, 9.2395000E-02
803.0818, 4.0989998E-03
803.5640, 0.1142310
804.0461, 0.1295720
804.5282, 0.1530870
805.0103, 0.3831140
805.4924, 0.3599680
805.9745, 0.1437980
806.4567, 3.4689002E-02
806.9388, 7.6582998E-02
807.4209, 0.1388320
807.9030, 0.2002980
808.3851, 0.2473550
808.8672, 0.2104240
809.3494, 0.1025650
809.8315, 4.4158000E-02
810.3136, 0.1283130
810.7957, 0.2565220
811.2778, 0.3411850
811.7599, 0.3883010
812.2421, 0.4147480
812.7242, 0.4222660
813.2063, 0.4142870
813.6884, 0.3933170
814.1705, 0.3578460
814.6526, 0.2913200
815.1348, 0.1748090
815.6169, 0.1056190
816.0990, 0.1252390
816.5811, 0.1970960
817.0632, 0.2542530
817.5453, 0.2951150
818.0275, 0.3124230
818.5096, 0.2922200
818.9917, 0.2575850
819.4738, 0.1981830
819.9559, 0.1354170
820.4380, 0.1269880
820.9202, 0.2686870
821.4023, 0.3539360
821.8844, 0.3199040
822.3665, 0.2208780
822.8486, 0.2088970
823.3307, 0.2872210
823.8129, 0.3448000
824.2950, 0.3361560
824.7771, 0.3002700
825.2592, 0.2963080
825.7413, 0.3092290
826.2234, 0.3028620
826.7056, 0.2253580
827.1877, 0.1661770
827.6698, 0.1713210
828.1519, 0.2173620
828.6340, 0.2466270
829.1161, 0.2454630
829.5983, 0.2623560
830.0804, 0.3168960
830.5625, 0.3789090
831.0446, 0.3761830
831.5267, 0.3230120
832.0089, 0.2982910
832.4910, 0.3491880
832.9731, 0.3975740
833.4552, 0.3571300
833.9373, 0.2708770
834.4194, 0.2083730
834.9016, 0.2192810
835.3837, 0.2126060
835.8658, 0.1554430
836.3479, 9.0337999E-02
836.8300, 9.1449000E-02
837.3121, 0.1676610
837.7943, 0.2203130
838.2764, 0.2282950
838.7585, 0.2214720
839.2406, 0.2388120
839.7227, 0.2722580
840.2048, 0.3090490
840.6870, 0.3594230
841.1691, 0.3823690
841.6512, 0.3375610
842.1333, 0.2682260
842.6154, 0.2223870
843.0975, 0.1899830
843.5797, 0.1804000
844.0618, 0.2052450
844.5439, 0.2347470
845.0260, 0.2193530
845.5081, 0.1728460
845.9902, 0.1732810
846.4724, 0.2399230
846.9545, 0.3045660
847.4366, 0.3096260
847.9187, 0.2798150
848.4008, 0.2384030
848.8829, 0.1799990
849.3651, 0.1364100
849.8472, 0.1011540
850.3293, 9.3124002E-02
850.8114, 0.1409830
851.2935, 0.2451900
851.7756, 0.2910480
852.2578, 0.2766780
852.7399, 0.2434330
853.2220, 0.2221810
853.7041, 0.2083430
854.1862, 0.1885520
854.6683, 0.1603910
855.1505, 0.1571360
855.6326, 0.2073090
856.1147, 0.2776160
856.5968, 0.3535560
857.0789, 0.4385320
857.5610, 0.4964260
858.0432, 0.5298840
858.5253, 0.5265750
859.0074, 0.4673730
859.4895, 0.3645340
859.9716, 0.2329460
860.4537, 8.1064999E-02
860.9359, 1.2610001E-03
861.4180, 0.1321480
861.9001, 0.2828850
862.3822, 0.3179730
862.8643, 0.2266220
863.3464, 0.1416620
863.8286, 3.9852001E-02
864.3107, 6.9970000E-03
864.7928, 0.1003840
865.2749, 0.2825330
865.7570, 0.3705870
866.2391, 0.3703780
866.7213, 0.3651980
867.2034, 0.4203800
867.6855, 0.4753060
868.1676, 0.4518600
868.6497, 0.3742340
869.1318, 0.3124470
869.6140, 0.3357040
870.0961, 0.3199430
870.5782, 0.1822930
871.0603, 9.1499998E-04
871.5424, 2.0190000E-03
872.0245, 0.2038930
872.5067, 0.3434810
872.9888, 0.3262870
873.4709, 0.2458380
873.9530, 0.2342770
874.4351, 0.2701430
874.9172, 0.3074360
875.3994, 0.3360620
875.8815, 0.3559090
876.3636, 0.3770780
876.8457, 0.3840610
877.3278, 0.3545660
877.8099, 0.2730960
878.2921, 0.1973200
878.7742, 0.1228950
879.2563, 7.9524003E-02
879.7384, 0.1423810
880.2205, 0.2647550
880.7026, 0.3058410
881.1848, 0.2293920
881.6669, 0.1384160
882.1490, 6.3914999E-02
882.6311, 2.5847999E-02
883.1132, 5.2377999E-02
883.5953, 0.1893400
884.0775, 0.2525190
884.5596, 0.2157870
885.0417, 0.1542030
885.5238, 0.1175690
886.0059, 0.1045900
886.4880, 0.1115760
886.9702, 0.1381030
887.4523, 0.1749530
887.9344, 0.2423290
888.4165, 0.2972810
888.8986, 0.2869990
889.3807, 0.2101040
889.8629, 0.1684800
890.3450, 0.2035980
890.8271, 0.2345030
891.3092, 0.2230150
891.7913, 0.1830770
892.2734, 0.2099740
892.7556, 0.2995930
893.2377, 0.3487290
893.7198, 0.2462040
894.2019, 0.1262730
894.6840, 0.1633120
895.1661, 0.2967160
895.6483, 0.3578520
896.1304, 0.1703000
896.6125, 6.6636004E-02
897.0946, 0.1689390
897.5767, 0.3618840
898.0588, 0.3865520
898.5410, 0.2368750
899.0231, 8.5339002E-02
899.5052, 4.6599999E-02
899.9873, 0.1173330
900.4694, 1.1247000E-02
900.9515, 0.1731740
901.4337, 0.2630650
901.9158, 0.1410600
902.3979, 5.9953000E-02
902.8800, 0.1507450
903.3621, 0.2696990
903.8442, 0.2793800
904.3264, 0.1555300
904.8085, 7.7440001E-02
905.2906, 5.4074999E-02
905.7727, 6.2734999E-02
906.2548, 0.1187510
906.7369, 0.1765750
907.2191, 0.1360200
907.7012, 1.5828000E-02
908.1833, 0.1229810
908.6654, 8.9426003E-02
909.1475, 1.2077000E-02
909.6296, 6.6748999E-02
910.1118, 0.1457030
910.5939, 0.1772750
911.0760, 0.1516780
911.5581, 0.1298050
912.0402, 0.1493430
912.5223, 0.1930960
913.0045, 0.2372700
913.4866, 0.2772460
913.9687, 0.2935010
914.4508, 0.2564290
914.9329, 0.2154120
915.4150, 0.1934310
915.8972, 0.1824620
916.3793, 0.1567900
916.8614, 0.1055670
917.3435, 9.1401003E-02
917.8256, 0.1437270
918.3077, 0.2054880
918.7899, 0.1597330
919.2720, 5.3045001E-02
919.7541, 4.8940000E-03
920.2362, 2.8601000E-02
920.7183, 9.6886002E-02
921.2004, 0.2560520
921.6826, 0.3964190
922.1647, 0.3982620
922.6468, 0.1900330
923.1289, 5.8742002E-02
923.6110, 1.2700000E-02
924.0931, 2.1952000E-02
924.5753, 9.5149003E-02
925.0574, 0.1933080
925.5395, 0.2226590
926.0216, 0.1772180
926.5037, 0.1148570
926.9858, 3.0115001E-02
927.4680, 2.9681001E-02
927.9501, 2.7896000E-02
928.4322, 3.0847000E-02
928.9143, 0.1102890
929.3964, 0.2282630
929.8785, 0.3053310
930.3607, 0.3020090
930.8428, 0.2458960
931.3249, 0.1761060
931.8070, 0.1043930
932.2891, 6.9219999E-02
932.7712, 9.8261997E-02
933.2534, 0.1557700
933.7355, 0.2794920
934.2176, 0.4063700
934.6997, 0.4043500
935.1818, 0.2132360
935.6639, 0.1084990
936.1461, 0.1419420
936.6282, 0.2205610
937.1103, 0.2289960
937.5924, 0.1874100
938.0745, 0.1242520
938.5566, 3.0402999E-02
939.0388, 7.6910001E-03
939.5209, 0.1332690
940.0030, 0.2835970
940.4851, 0.3015060
940.9672, 0.1603690
941.4493, 0.1115990
941.9315, 0.1731540
942.4136, 0.2464930
942.8957, 0.2590980
943.3778, 0.2365290
943.8599, 0.2303790
944.3420, 0.2380030
944.8242, 0.2417170
945.3063, 0.2346280
945.7884, 0.2200860
946.2705, 0.1836250
946.7526, 0.1429180
947.2347, 0.1624820
947.7169, 0.2605000
948.1990, 0.2925660
948.6811, 0.2041610
949.1632, 7.4426003E-02
949.6453, 8.4429998E-03
950.1274, 4.3336999E-02
950.6096, 1.9668000E-02
951.0917, 0.1046140
951.5738, 0.1997100
952.0559, 0.2181860
952.5380, 0.1983120
953.0201, 0.1614640
953.5023, 0.1026330
953.9844, 6.0268000E-02
954.4665, 3.3571001E-02
954.9486, 4.0399000E-02
955.4307, 0.1362260
955.9128, 0.2507540
956.3950, 0.2886460
956.8771, 0.2498690
957.3591, 0.1977830
957.8412, 0.1106600
958.3234, 7.7798001E-02
958.8055, 0.1496010
959.2876, 0.2772950
959.7697, 0.2553170
960.2518, 8.7605998E-02
960.7339, 2.1569001E-02
961.2161, 2.2396000E-02
961.6982, 0.1149910
962.1803, 0.1686850
962.6624, 0.1874040
963.1445, 0.1775040
963.6266, 7.6288998E-02
964.1088, 5.0625999E-02
964.5909, 0.1555820
965.0730, 0.2746800
965.5551, 0.2702170
966.0372, 0.1534680
966.5193, 8.1952997E-02
967.0015, 6.9360003E-02
967.4836, 7.6586999E-02
967.9657, 7.5296998E-02
968.4478, 8.0449000E-02
968.9299, 0.1146890
969.4120, 0.1781360
969.8942, 0.2081740
970.3763, 0.1948870
970.8584, 0.1630950
971.3405, 0.1110790
971.8226, 5.4924000E-02
972.3047, 3.3957001E-02
972.7869, 4.6590000E-02
973.2690, 8.9207001E-02
973.7511, 0.2070880
974.2332, 0.2858950
974.7153, 0.2142090
975.1974, 8.6024001E-02
975.6796, 4.2957999E-02
976.1617, 0.1453420
976.6438, 0.1561610
977.1259, 3.7096001E-02
977.6080, 7.9061002E-02
978.0901, 1.6023001E-02
978.5723, 0.1417960
979.0544, 0.2298400
979.5365, 0.2323940
980.0186, 0.1964570
980.5007, 8.9184999E-02
980.9828, 5.8129998E-03
981.4650, 7.3600002E-04
981.9471, 6.1859000E-02
982.4292, 0.1104690
982.9113, 0.1463070
983.3934, 0.1723270
983.8755, 0.1903000
984.3577, 0.1981290
984.8398, 0.1980720
985.3219, 0.1824090
985.8040, 0.1435780
986.2861, 9.7899996E-03
986.7682, 3.8605001E-02
987.2504, 6.8627000E-02
987.7325, 0.2102130
988.2146, 0.2577170
988.6967, 0.2163540
989.1788, 0.1794930
989.6609, 0.1527800
990.1431, 0.1317650
990.6252, 9.8503999E-02
991.1073, 7.9925001E-02
991.5894, 0.1196870
992.0715, 0.2146150
992.5536, 0.2468690
993.0358, 0.1800330
993.5179, 0.1135780
994.0000, 7.2984003E-02
994.4821, 6.0456999E-02
994.9642, 0.1023650
995.4464, 0.1799140
995.9285, 0.2282470
996.4106, 0.2116520
996.8927, 0.1831220
997.3748, 0.1825620
997.8569, 0.1806760
998.3391, 0.1420310
998.8212, 4.5325000E-02
999.3033, 1.3461000E-02
999.7854, 3.0207001E-02
1000.268, 2.1384999E-02
1000.750, 1.4768000E-02
1001.232, 5.9939999E-02
1001.714, 8.7174997E-02
1002.196, 9.5371999E-02
1002.678, 9.0250999E-02
1003.160, 5.4864001E-02
1003.642, 2.7980000E-02
1004.124, 1.3369000E-02
1004.607, 1.8710000E-02
1005.089, 9.0493001E-02
1005.571, 0.2232420
1006.053, 0.2811560
1006.535, 0.2093630
1007.017, 0.1052360
1007.499, 3.7544999E-02
1007.981, 1.3790000E-03
1008.464, 1.5990000E-02
1008.946, 1.2990000E-03
1009.428, 3.0594001E-02
1009.910, 9.8566003E-02
1010.392, 0.1446280
1010.874, 9.7902998E-02
1011.356, 2.1180001E-03
1011.838, 1.9319000E-02
1012.320, 0.1268350
1012.803, 0.2089690
1013.285, 0.1555760
1013.767, 0.1076880
1014.249, 0.1760640
1014.731, 0.2880110
1015.213, 0.2623330
1015.695, 5.8200002E-02
1016.177, 1.4136000E-02
1016.659, 0.1237800
1017.142, 0.2978740
1017.624, 0.2830500
1018.106, 0.1775700
1018.588, 0.1117810
1019.070, 0.1127810
1019.552, 0.1457930
1020.034, 0.2523310
1020.516, 0.3237640
1020.999, 0.2922010
1021.481, 0.1840910
1021.963, 0.1390150
1022.445, 0.1525490
1022.927, 0.1979120
1023.409, 0.3007490
1023.891, 0.3858300
1024.373, 0.3936180
1024.855, 0.3526980
1025.338, 0.3113140
1025.820, 0.2675170
1026.302, 0.2361670
1026.784, 0.2150760
1027.266, 0.2170590
1027.748, 0.2951700
1028.230, 0.3909030
1028.712, 0.3759100
1029.195, 0.2469820
1029.677, 0.1372150
1030.159, 8.1955999E-02
1030.641, 8.2841001E-02
1031.123, 0.1657680
1031.605, 0.2924790
1032.087, 0.3245820
1032.569, 0.2664590
1033.052, 0.1963980
1033.534, 0.1254790
1034.016, 8.5877001E-02
1034.498, 0.1368200
1034.980, 0.2239400
1035.462, 0.2646510
1035.944, 0.2461220
1036.426, 0.2340370
1036.908, 0.2261530
1037.391, 0.2275800
1037.873, 0.2450530
1038.355, 0.2738050
1038.837, 0.3242950
1039.319, 0.3812700
1039.801, 0.3753920
1040.283, 0.1523460
1040.765, 9.6990000E-03
1041.247, 0.1080210
1041.730, 0.3017020
1042.212, 0.3472510
1042.694, 0.2415460
1043.176, 0.1784000
1043.658, 0.1879670
1044.140, 0.2147110
1044.622, 0.2184200
1045.104, 0.2075680
1045.587, 0.1791430
1046.069, 0.1314660
1046.551, 9.2960000E-02
1047.033, 5.4912999E-02
1047.515, 5.3881001E-02
1047.997, 0.1219890
1048.479, 0.2159370
1048.961, 0.2393510
1049.443, 0.2108520
1049.926, 0.1801130
1050.408, 0.1463360
1050.890, 0.1471230
1051.372, 0.2578790
1051.854, 0.3589840
1052.336, 0.3337730
1052.818, 0.1710640
1053.300, 0.1197710
1053.782, 0.1828710
1054.265, 0.2385680
1054.747, 0.1668890
1055.229, 7.9043001E-02
1055.711, 7.6862998E-02
1056.193, 0.1396190
1056.675, 0.1806640
1057.157, 0.1911760
1057.639, 0.1848120
1058.122, 0.1537580
1058.604, 0.1248270
1059.086, 0.1710030
1059.568, 0.2469650
1060.050, 0.2550060
1060.532, 0.1646330
1061.014, 9.7686000E-02
1061.496, 0.1308020
1061.979, 0.1888160
1062.461, 0.2497980
1062.943, 0.3077130
1063.425, 0.3372170
1063.907, 0.3386000
1064.389, 0.3104680
1064.871, 0.2298370
1065.353, 0.1613850
1065.835, 0.1823000
1066.318, 0.2329870
1066.800, 0.2358810
1067.282, 0.1751740
1067.764, 9.9390998E-02
1068.246, 7.6800003E-04
1068.728, 6.9286004E-02
1069.210, 5.0466999E-02
1069.692, 2.0664999E-02
1070.174, 0.1088360
1070.657, 0.1991350
1071.139, 0.2658750
1071.621, 0.3241230
1072.103, 0.3182790
1072.585, 0.2084040
1073.067, 7.2371997E-02
1073.549, 2.9097000E-02
1074.031, 6.2802002E-02
1074.514, 0.1185460
1074.996, 0.1905530
1075.478, 0.2277780
1075.960, 0.1463660
1076.442, 6.6124000E-02
1076.924, 6.6639997E-02
1077.406, 0.1335940
1077.888, 0.2413320
1078.370, 0.3968480
1078.853, 0.4567670
1079.335, 0.3324990
1079.817, 0.1835810
1080.299, 0.2142410
1080.781, 0.3170370
1081.263, 0.3418990
1081.745, 0.2124820
1082.227, 0.1417570
1082.709, 0.1487850
1083.192, 0.1680800
1083.674, 0.1590540
1084.156, 0.1305300
1084.638, 9.6657999E-02
1085.120, 6.2215000E-02
1085.602, 4.2571999E-02
1086.084, 1.5039000E-02
1086.566, 4.5343999E-02
1087.048, 0.1817140
1087.531, 0.3463750
1088.013, 0.4623450
1088.495, 0.5279070
1088.977, 0.4982680
1089.459, 0.3713410
1089.941, 0.2582100
1090.423, 0.2826480
1090.905, 0.3058960
1091.388, 0.1956160
1091.870, 6.9600000E-04
1092.352, 5.4467998E-02
1092.834, 5.2955002E-02
1093.316, 0.1316210
1093.798, 0.1291650
1094.280, 0.1174720
1094.762, 0.2278580
1095.245, 0.3539940
1095.727, 0.3334260
1096.209, 0.1013450
1096.691, 1.0764000E-02
1097.173, 0.1444270
1097.655, 0.2702670
1098.137, 0.2773690
1098.619, 0.2153390
1099.101, 0.1952420
1099.583, 0.2026530
1100.066, 0.1985110
1100.548, 0.1562720
1101.030, 0.1245840
1101.512, 0.1127560
1101.994, 0.1196150
1102.476, 0.1643550
1102.958, 0.2396620
1103.440, 0.2128330
1103.923, 9.4554998E-02
1104.405, 4.7040000E-03
1104.887, 5.5645999E-02
1105.369, 0.1114730
1105.851, 6.8772003E-02
1106.333, 1.1488000E-02
1106.815, 8.2700001E-04
1107.297, 0.1207730
1107.780, 0.1810370
1108.262, 0.1583850
1108.744, 0.1198710
1109.226, 0.1120320
1109.708, 0.1303130
1110.190, 0.1942040
1110.672, 0.2926140
1111.154, 0.3155650
1111.636, 0.2266000
1112.119, 0.1549140
1112.601, 0.1337430
1113.083, 0.1343520
1113.565, 0.1212940
1114.047, 9.5927998E-02
1114.529, 4.8517998E-02
1115.011, 3.5151001E-02
1115.493, 5.2878998E-02
1115.975, 9.6124001E-02
1116.458, 0.1897790
1116.940, 9.8472998E-02
1117.422, 9.4465002E-02
1117.904, 0.1066160
1118.386, 1.7898001E-02
1118.868, 0.1283100
1119.350, 0.1644880
1119.832, 0.1871120
1120.315, 0.2465000
1120.797, 0.2786910
1121.279, 0.2133480
1121.761, 5.4503001E-02
1122.243, 2.4540001E-03
1122.725, 4.0637001E-02
1123.207, 0.1147260
1123.689, 0.2166120
1124.172, 0.2959860
1124.654, 0.2888230
1125.136, 0.2486780
1125.618, 0.2903920
1126.100, 0.4598430
1126.582, 0.4363800
1127.064, 0.1842780
1127.546, 4.8255000E-02
1128.028, 1.0138000E-02
1128.510, 0.1207220
1128.993, 0.1752680
1129.475, 0.1544630
1129.957, 0.1144820
1130.439, 3.5565000E-02
1130.921, 1.2191000E-02
1131.403, 7.0580997E-02
1131.885, 0.1571780
1132.367, 0.2360950
1132.850, 0.2813260
1133.332, 0.2256760
1133.814, 5.9299000E-02
1134.296, 3.4582999E-02
1134.778, 1.5790001E-02
1135.260, 8.6672999E-02
1135.742, 0.1483540
1136.224, 0.2003760
1136.707, 0.2356620
1137.189, 0.2622810
1137.671, 0.3097790
1138.153, 0.3995900
1138.635, 0.4491090
1139.117, 0.4084720
1139.599, 0.3333080
1140.081, 0.2230910
1140.563, 0.1039710
1141.046, 0.1122230
1141.528, 0.2273790
1142.010, 0.3511200
1142.492, 0.4799210
1142.974, 0.5401590
1143.456, 0.4165960
1143.938, 0.2635770
1144.420, 0.2394370
1144.902, 0.3513920
1145.385, 0.3848710
1145.867, 0.3428980
1146.349, 0.2897590
1146.831, 0.2647360
1147.313, 0.2427400
1147.795, 0.2065280
1148.277, 0.1625700
1148.759, 0.1149900
1149.242, 5.2749000E-02
1149.724, 6.3398004E-02
1150.206, 0.1548440
1150.688, 0.2356310
1151.170, 0.2014530
1151.652, 0.1290800
1152.134, 6.7348003E-02
1152.616, 2.9910000E-02
1153.099, 5.1148001E-02
1153.581, 0.1629320
1154.063, 0.2339810
1154.545, 0.2448980
1155.027, 0.2217240
1155.509, 0.1489970
1155.991, 8.6452998E-02
1156.473, 0.1499620
1156.955, 0.3324450
1157.438, 0.3848860
1157.920, 0.2126550
1158.402, 9.6552998E-02
1158.884, 0.1142420
1159.366, 0.1878720
1159.848, 0.2179870
1160.330, 0.2167480
1160.812, 0.1972670
1161.294, 0.1582050
1161.777, 0.1424400
1162.259, 0.1776010
1162.741, 0.2013910
1163.223, 0.1916690
1163.705, 0.1568850
1164.187, 9.4297998E-02
1164.669, 2.4419000E-02
1165.151, 1.8239999E-02
1165.634, 0.1280160
1166.116, 0.1911040
1166.598, 0.1180340
1167.080, 5.2570999E-02
1167.562, 7.3270001E-02
1168.044, 0.1522250
1168.526, 0.1957980
1169.008, 0.2097960
1169.490, 0.2155960
1169.973, 0.2227160
1170.455, 0.2193820
1170.937, 0.1879530
1171.419, 0.1584850
1171.901, 0.1564830
1172.383, 0.1764750
1172.865, 0.1664330
1173.347, 0.1332310
1173.829, 0.1105400
1174.312, 0.1282390
1174.794, 0.1322620
1175.276, 6.8034001E-02
1175.758, 1.3750000E-03
1176.240, 6.0930001E-03
1176.722, 4.4532999E-02
1177.204, 7.3394999E-02
1177.686, 7.8969002E-02
1178.169, 6.6541001E-02
1178.651, 6.9189998E-03
1179.133, 4.6631001E-02
1179.615, 4.0134002E-02
1180.097, 0.1675020
1180.579, 0.2087150
1181.061, 0.1610450
1181.543, 0.1390520
1182.026, 0.1506850
1182.508, 0.1603080
1182.990, 0.1396900
1183.472, 0.1107650
1183.954, 8.3535999E-02
1184.436, 6.0116999E-02
1184.918, 4.0874001E-02
1185.400, 2.1723000E-02
1185.882, 3.0347001E-02
1186.365, 7.1134999E-02
1186.847, 0.1004850
1187.329, 5.7248000E-02
1187.811, 1.1801000E-02
1188.293, 2.4770999E-02
1188.775, 8.3988003E-02
1189.257, 0.1456500
1189.739, 0.2123390
1190.221, 0.2398480
1190.704, 0.2141760
1191.186, 0.1809580
1191.668, 0.1818990
1192.150, 0.1936280
1192.632, 0.2081130
1193.114, 0.2202880
1193.596, 0.2201760
1194.078, 0.2080680
1194.561, 0.1734350
1195.043, 0.1022880
1195.525, 4.9286000E-02
1196.007, 9.1480002E-02
1196.489, 0.1655030
1196.971, 0.2089740
1197.453, 0.2175910
1197.935, 0.2261070
1198.417, 0.2368460
1198.900, 0.2259840
1199.382, 0.1804770
1199.864, 0.1219290
1200.346, 2.2806000E-02
1200.828, 4.7187001E-02
1201.310, 3.5099000E-02
1201.792, 0.3069660
1202.274, 0.3621990
1202.756, 0.1716430
1203.239, 2.0385001E-02
1203.721, 5.4984000E-02
1204.203, 0.1498680
1204.685, 0.1955680
1205.167, 0.2034260
1205.649, 0.1778360
1206.131, 0.1059430
1206.613, 8.6188003E-02
1207.096, 0.1226480
1207.578, 0.1758710
1208.060, 0.2563180
1208.542, 0.3020460
1209.024, 0.1837710
1209.506, 8.7400004E-03
1209.988, 4.0872999E-02
1210.470, 8.0213003E-02
1210.953, 0.1801630
1211.435, 0.2609160
1211.917, 0.3110020
1212.399, 0.3128720
1212.881, 0.2913430
1213.363, 0.2511730
1213.845, 0.2130530
1214.327, 0.2224790
1214.809, 0.3165270
1215.292, 0.3273480
1215.774, 0.2458800
1216.256, 0.1491420
1216.738, 6.3018002E-02
1217.220, 1.6744999E-02
1217.702, 8.0302000E-02
1218.184, 0.1928600
1218.666, 0.2171020
1219.148, 0.1113650
1219.631, 8.0926001E-02
1220.113, 0.1443300
1220.595, 0.1849500
1221.077, 4.7688000E-02
1221.559, 9.5564000E-02
1222.041, 6.2192999E-02
1222.523, 8.1168003E-02
1223.005, 0.1595280
1223.488, 0.1536350
1223.970, 0.1471620
1224.452, 0.1444780
1224.934, 0.1556030
1225.416, 0.2179930
1225.898, 0.2724460
1226.380, 0.2458950
1226.862, 0.1701120
1227.344, 0.1432770
1227.827, 0.1753470
1228.309, 0.1974850
1228.791, 0.2041780
1229.273, 0.1929170
1229.755, 0.1324820
1230.237, 8.0206998E-02
1230.719, 9.6037999E-02
1231.201, 0.1547120
1231.683, 0.1668190
1232.166, 0.1215960
1232.648, 0.1839940
1233.130, 0.3811100
1233.612, 0.5337860
1234.094, 0.4516330
1234.576, 0.3145210
1235.058, 0.2273290
1235.540, 0.1959390
1236.023, 0.2390020
1236.505, 0.3554530
1236.987, 0.3958090
1237.469, 0.3432870
1237.951, 0.2756690
1238.433, 0.2374210
1238.915, 0.2222810
1239.397, 0.2505120
1239.880, 0.2908430
1240.362, 0.2600840
1240.844, 0.1652170
1241.326, 0.1068840
1241.808, 0.1015410
1242.290, 0.1192520
1242.772, 0.1501400
1243.254, 0.1880590
1243.736, 0.2389950
1244.219, 0.2891700
1244.701, 0.3021310
1245.183, 0.2832870
1245.665, 0.2655620
1246.147, 0.2541160
1246.629, 0.2488170
1247.111, 0.2583020
1247.593, 0.2617520
1248.075, 0.2379710
1248.558, 0.2146210
1249.040, 0.2937490
1249.522, 0.4354750
1250.004, 0.4596980
1250.486, 0.3303720
1250.968, 0.2069540
1251.450, 0.1559890
1251.932, 0.1381020
1252.415, 0.1474420
1252.897, 0.1708230
1253.379, 0.1751990
1253.861, 0.1736280
1254.343, 0.1932320
1254.825, 0.2423150
1255.307, 0.2506340
1255.789, 0.1317970
1256.271, 6.9636002E-02
1256.754, 0.1367910
1257.236, 0.2595160
1257.718, 0.3174740
1258.200, 0.3248620
1258.682, 0.2792880
1259.164, 0.1747670
1259.646, 0.1127120
1260.128, 0.1123350
1260.610, 0.1446120
1261.093, 0.2142190
1261.575, 0.2815180
1262.057, 0.2646990
1262.539, 0.2169310
1263.021, 0.2276720
1263.503, 0.3070540
1263.985, 0.3309340
1264.467, 0.2786480
1264.950, 0.2294170
1265.432, 0.2110720
1265.914, 0.1957250
1266.396, 0.1173730
1266.878, 4.2040002E-02
1267.360, 6.9977000E-02
1267.842, 0.2105850
1268.324, 0.2567750
1268.807, 0.1952670
1269.289, 0.1471280
1269.771, 0.1470070
1270.253, 0.1704010
1270.735, 0.2131460
1271.217, 0.2526020
1271.699, 0.2644440
1272.181, 0.2521140
1272.663, 0.2219090
1273.146, 0.1750780
1273.628, 0.1790910
1274.110, 0.2616340
1274.592, 0.3526360
1275.074, 0.4468360
1275.556, 0.4803950
1276.038, 0.3812070
1276.520, 0.2033300
1277.002, 0.1644040
1277.485, 0.2409940
1277.967, 0.2916740
1278.449, 0.2802260
1278.931, 0.2507310
1279.413, 0.1948110
1279.895, 0.1660090
1280.377, 0.1996110
1280.859, 0.2647680
1281.342, 0.2970420
1281.824, 0.2932660
1282.306, 0.2280340
1282.788, 8.3392002E-02
1283.270, 1.3531000E-02
1283.752, 8.1289997E-03
1284.234, 2.2808000E-02
1284.716, 5.6276999E-02
1285.198, 0.1002550
1285.681, 0.2079720
1286.163, 0.3221350
1286.645, 0.3211990
1287.127, 0.1727140
1287.609, 9.6827999E-02
1288.091, 0.1324370
1288.573, 0.1846260
1289.055, 0.2338700
1289.537, 0.2635830
1290.020, 0.2183200
1290.502, 0.1617450
1290.984, 0.1983740
1291.466, 0.3328300
1291.948, 0.3173030
1292.430, 0.1236720
1292.912, 1.2718000E-02
1293.394, 2.6151000E-02
1293.877, 1.3025000E-02
1294.359, 5.7943001E-02
1294.841, 0.1024620
1295.323, 0.1364430
1295.805, 0.1616410
1296.287, 0.2274050
1296.769, 0.3273970
1297.251, 0.3316910
1297.734, 0.1987020
1298.216, 0.1008360
1298.698, 0.1923970
1299.180, 0.2840000
1299.662, 0.2967910
1300.144, 0.2985890
1300.626, 0.2706320
1301.108, 0.2146370
1301.590, 0.1474500
1302.073, 6.6868000E-02
1302.555, 1.3513000E-02
1303.037, 3.0300001E-04
1303.519, 8.3120000E-03
1304.001, 3.2435000E-02
1304.483, 2.3450000E-02
1304.965, 0.0000000E+00
##END=



