##NAMES=Surite
##RRUFFID=R110145
##IDEAL CHEMISTRY=(Pb^2+^,Ca)_3_Al_2_(Si,Al)_4_O_10_(CO_3_)_2_(OH)_3_&#183;0.3H_2_O
##LOCALITY=Mammoth mine, Tiger, Arizona, USA
##OWNER=RRUFF
##SOURCE=Joe Ruiz
##DESCRIPTION=Spherical aggregates of white to transparent waxy platy crystals associated with yellow mimetite
##STATUS=The identification of this mineral is not yet confirmed.
##URL=rruff.info/R110145
218.7352, 0.0000000E+00
219.2173, 5.259766
219.6994, 2.527344
220.1816, 5.296875
220.6637, 33.91211
221.1458, 62.09375
221.6279, 73.26367
222.1100, 56.18359
222.5921, 50.65234
223.0743, 65.76953
223.5564, 94.88867
224.0385, 107.9062
224.5206, 96.00586
225.0027, 81.46875
225.4848, 77.72266
225.9670, 87.15820
226.4491, 103.2695
226.9312, 129.6758
227.4133, 163.2266
227.8954, 191.1738
228.3775, 215.2500
228.8597, 230.2773
229.3418, 230.7500
229.8239, 208.3809
230.3060, 189.1953
230.7881, 171.2168
231.2702, 156.6484
231.7524, 158.1133
232.2345, 179.1289
232.7166, 208.8945
233.1987, 243.2871
233.6808, 292.4512
234.1629, 320.7168
234.6451, 317.2383
235.1272, 290.0859
235.6093, 277.6250
236.0914, 292.3477
236.5735, 304.6680
237.0556, 296.1992
237.5378, 252.5703
238.0199, 221.2891
238.5020, 209.9414
238.9841, 213.7812
239.4662, 212.5234
239.9483, 207.8008
240.4305, 197.7520
240.9126, 179.4121
241.3947, 142.3926
241.8768, 122.2246
242.3589, 125.5273
242.8410, 146.6836
243.3232, 167.1758
243.8053, 190.4395
244.2874, 207.6348
244.7695, 211.7812
245.2516, 191.6562
245.7337, 182.1367
246.2159, 186.2402
246.6980, 200.4102
247.1801, 215.2656
247.6622, 235.9883
248.1443, 248.6426
248.6264, 242.6445
249.1086, 200.2598
249.5907, 182.7109
250.0728, 201.0410
250.5549, 242.2227
251.0370, 272.5430
251.5191, 292.9043
252.0013, 302.3066
252.4834, 298.2168
252.9655, 271.5332
253.4476, 257.0469
253.9297, 259.0898
254.4118, 271.9434
254.8940, 282.8633
255.3761, 290.0391
255.8582, 298.3691
256.3403, 309.5430
256.8224, 323.5762
257.3046, 337.8906
257.7867, 349.9355
258.2688, 362.5703
258.7509, 384.4277
259.2330, 424.4688
259.7151, 453.3008
260.1973, 455.2148
260.6794, 420.5000
261.1615, 401.7266
261.6436, 405.3535
262.1257, 419.7324
262.6078, 427.0820
263.0900, 429.9121
263.5721, 420.9121
264.0542, 392.0957
264.5363, 337.2559
265.0184, 310.1992
265.5005, 321.4102
265.9827, 349.0332
266.4648, 360.5254
266.9469, 349.2852
267.4290, 341.5078
267.9111, 348.5078
268.3932, 371.6973
268.8754, 376.8105
269.3575, 354.3398
269.8396, 326.9844
270.3217, 326.4453
270.8038, 359.5000
271.2859, 389.9902
271.7681, 407.5723
272.2502, 412.0859
272.7323, 410.3613
273.2144, 398.0488
273.6965, 387.4375
274.1786, 396.1719
274.6608, 430.3965
275.1429, 451.9473
275.6250, 448.7480
276.1071, 423.0840
276.5892, 404.3711
277.0714, 397.2305
277.5535, 395.6719
278.0356, 393.3691
278.5177, 389.5098
278.9998, 391.3574
279.4819, 403.0566
279.9641, 420.8145
280.4462, 430.6816
280.9283, 434.4668
281.4104, 422.0156
281.8925, 377.1504
282.3746, 299.4316
282.8568, 232.3926
283.3389, 183.9297
283.8210, 151.2070
284.3031, 128.7988
284.7852, 118.4844
285.2673, 110.2715
285.7495, 95.52539
286.2316, 75.67383
286.7137, 63.69141
287.1958, 62.59375
287.6779, 69.00000
288.1600, 78.31250
288.6422, 90.83789
289.1243, 99.84180
289.6064, 96.03125
290.0885, 82.79883
290.5706, 77.32617
291.0527, 82.19141
291.5349, 92.65039
292.0170, 103.8477
292.4991, 115.5410
292.9812, 123.4668
293.4633, 122.4902
293.9454, 115.2031
294.4276, 108.6953
294.9097, 102.4883
295.3918, 101.0820
295.8739, 113.3750
296.3560, 136.8574
296.8381, 160.3691
297.3203, 178.9473
297.8024, 193.7363
298.2845, 208.1016
298.7666, 222.6094
299.2487, 233.5664
299.7308, 239.3633
300.2130, 239.1953
300.6951, 230.1914
301.1772, 197.9922
301.6593, 162.6992
302.1414, 157.6602
302.6235, 182.1016
303.1057, 210.9531
303.5878, 225.6172
304.0699, 229.5703
304.5520, 228.4570
305.0341, 221.5586
305.5162, 212.9922
305.9984, 207.0195
306.4805, 203.3867
306.9626, 200.4688
307.4447, 198.6758
307.9268, 196.4023
308.4089, 190.5430
308.8911, 176.2930
309.3732, 164.6172
309.8553, 166.7383
310.3374, 179.4023
310.8195, 191.9766
311.3016, 200.3359
311.7838, 204.4531
312.2659, 203.5508
312.7480, 195.2461
313.2301, 186.6055
313.7122, 182.2070
314.1943, 180.4375
314.6765, 177.8984
315.1586, 170.1680
315.6407, 163.3125
316.1228, 161.5117
316.6049, 166.0586
317.0870, 172.9336
317.5692, 190.0898
318.0513, 207.6719
318.5334, 208.6523
319.0155, 175.4688
319.4976, 135.0977
319.9797, 92.44922
320.4619, 45.94141
320.9440, 22.21875
321.4261, 50.92578
321.9082, 97.12109
322.3903, 126.7969
322.8724, 123.1172
323.3546, 111.3555
323.8367, 93.55859
324.3188, 70.40234
324.8009, 53.64453
325.2830, 47.05078
325.7651, 45.93359
326.2473, 47.37891
326.7294, 66.26953
327.2115, 71.74609
327.6936, 52.33594
328.1757, 15.30469
328.6578, 5.742188
329.1400, 5.437500
329.6221, 20.71484
330.1042, 28.85547
330.5863, 29.09375
331.0684, 23.32422
331.5505, 2.042969
332.0327, 24.17578
332.5148, 30.89453
332.9969, 9.109375
333.4790, 17.89844
333.9611, 41.78906
334.4432, 59.69922
334.9254, 81.94141
335.4075, 110.4648
335.8896, 139.8242
336.3717, 163.8594
336.8538, 183.1562
337.3359, 192.2891
337.8180, 186.3281
338.3001, 165.0000
338.7823, 149.6094
339.2644, 142.3594
339.7465, 140.0547
340.2286, 144.2422
340.7107, 159.2695
341.1928, 158.3281
341.6750, 130.8711
342.1571, 84.46094
342.6392, 54.78906
343.1213, 44.07422
343.6034, 39.02344
344.0855, 31.26562
344.5677, 20.93750
345.0498, 8.167969
345.5319, 9.265625
346.0140, 25.30469
346.4961, 23.73828
346.9782, 5.468750
347.4604, 7.699219
347.9425, 7.238281
348.4246, 39.03516
348.9067, 42.59766
349.3888, 11.88281
349.8709, 28.92969
350.3531, 56.19531
350.8352, 70.11719
351.3173, 71.50000
351.7994, 47.35156
352.2815, 15.05859
352.7636, 3.226563
353.2458, 11.51953
353.7279, 31.37500
354.2100, 64.17969
354.6921, 101.8594
355.1742, 130.4883
355.6563, 144.3906
356.1385, 148.8242
356.6206, 145.6641
357.1027, 136.0859
357.5848, 126.3516
358.0669, 120.2070
358.5490, 115.8477
359.0312, 111.7969
359.5133, 108.3594
359.9954, 105.0039
360.4775, 103.1016
360.9596, 101.6211
361.4417, 97.89453
361.9239, 86.25781
362.4060, 76.31641
362.8881, 75.93750
363.3702, 88.94922
363.8523, 96.67578
364.3344, 87.05078
364.8166, 70.61719
365.2987, 59.77734
365.7808, 59.79297
366.2629, 63.47656
366.7450, 70.37891
367.2271, 80.32031
367.7093, 88.58203
368.1914, 95.28125
368.6735, 99.19141
369.1556, 99.40234
369.6377, 90.84375
370.1198, 83.82031
370.6020, 75.63672
371.0841, 68.31250
371.5662, 70.59375
372.0483, 91.63281
372.5304, 110.3398
373.0125, 119.1836
373.4947, 119.5469
373.9768, 102.7031
374.4589, 57.22266
374.9410, 3.554688
375.4231, 23.85156
375.9052, 17.67578
376.3874, 4.003906
376.8695, 14.40625
377.3516, 37.89062
377.8337, 42.25000
378.3158, 23.67578
378.7979, 0.4335940
379.2801, 12.35547
379.7622, 11.37109
380.2443, 10.20312
380.7264, 10.88672
381.2085, 13.19531
381.6906, 18.60156
382.1728, 27.50000
382.6549, 30.70703
383.1370, 25.20312
383.6191, 13.60156
384.1012, 0.8242190
384.5833, 18.02344
385.0655, 34.20312
385.5476, 45.19922
386.0297, 50.94531
386.5118, 51.21484
386.9939, 37.03125
387.4760, 21.24609
387.9582, 27.23438
388.4403, 56.01953
388.9224, 84.23828
389.4045, 96.91016
389.8866, 96.25000
390.3687, 85.17969
390.8509, 56.14453
391.3330, 28.32031
391.8151, 18.98828
392.2972, 24.11328
392.7793, 26.21484
393.2614, 11.09375
393.7436, 6.738281
394.2257, 17.83984
394.7078, 21.16797
395.1899, 16.75391
395.6720, 3.125000
396.1541, 28.85547
396.6363, 45.24219
397.1184, 42.85156
397.6005, 35.35156
398.0826, 22.27734
398.5647, 1.195313
399.0468, 3.769531
399.5290, 30.66406
400.0111, 70.39453
400.4932, 87.82812
400.9753, 59.67969
401.4574, 40.74609
401.9395, 38.57812
402.4217, 50.14453
402.9038, 60.94141
403.3859, 70.39453
403.8680, 79.50000
404.3501, 89.80078
404.8322, 102.4414
405.3144, 113.5312
405.7965, 122.4258
406.2786, 128.8203
406.7607, 134.3789
407.2428, 140.1172
407.7249, 146.2539
408.2071, 152.4688
408.6892, 158.8359
409.1713, 167.5703
409.6534, 180.5117
410.1355, 192.9648
410.6176, 196.5586
411.0998, 192.9336
411.5819, 195.6367
412.0640, 210.0898
412.5461, 228.0938
413.0282, 236.3438
413.5103, 236.0234
413.9925, 234.6641
414.4746, 239.2891
414.9567, 244.1719
415.4388, 239.6875
415.9209, 224.5859
416.4030, 205.1797
416.8852, 183.9570
417.3673, 162.6289
417.8494, 143.8242
418.3315, 133.1328
418.8136, 122.0625
419.2957, 103.6523
419.7779, 79.61328
420.2600, 58.26562
420.7421, 39.44531
421.2242, 28.16016
421.7063, 30.21484
422.1884, 57.73828
422.6706, 78.44141
423.1527, 76.83203
423.6348, 64.28125
424.1169, 62.15234
424.5990, 90.49609
425.0811, 112.9531
425.5633, 112.7070
426.0454, 83.43750
426.5275, 72.47266
427.0096, 86.96875
427.4917, 112.9102
427.9738, 139.9492
428.4560, 171.0547
428.9381, 195.4258
429.4202, 211.2852
429.9023, 218.9414
430.3844, 220.8086
430.8665, 216.9727
431.3487, 206.7617
431.8308, 185.8008
432.3129, 153.1875
432.7950, 135.8047
433.2771, 137.1914
433.7592, 143.6680
434.2414, 135.3711
434.7235, 113.4766
435.2056, 89.85938
435.6877, 65.23047
436.1698, 44.15625
436.6519, 37.57031
437.1341, 44.98828
437.6162, 56.92969
438.0983, 76.81250
438.5804, 94.01172
439.0625, 83.12109
439.5446, 30.07031
440.0268, 18.05469
440.5089, 9.503906
440.9910, 35.48047
441.4731, 74.61719
441.9552, 85.86328
442.4373, 87.21484
442.9195, 87.93359
443.4016, 88.21094
443.8837, 87.94922
444.3658, 83.79688
444.8479, 80.09766
445.3300, 80.06250
445.8122, 82.09375
446.2943, 89.85156
446.7764, 112.6016
447.2585, 141.6133
447.7406, 154.5703
448.2227, 126.5859
448.7049, 106.0547
449.1870, 113.3125
449.6691, 157.8828
450.1512, 172.1211
450.6333, 138.5391
451.1154, 94.14844
451.5976, 75.83594
452.0797, 94.07422
452.5618, 107.8242
453.0439, 112.9492
453.5260, 110.6016
454.0081, 97.58984
454.4903, 71.13281
454.9724, 49.39062
455.4545, 44.12500
455.9366, 53.08594
456.4187, 61.40625
456.9008, 68.73047
457.3830, 75.98047
457.8651, 77.21094
458.3472, 75.67969
458.8293, 84.25391
459.3114, 117.1094
459.7935, 150.6641
460.2757, 149.3359
460.7578, 119.1055
461.2399, 91.85547
461.7220, 91.24219
462.2041, 101.2266
462.6862, 108.7617
463.1684, 113.3516
463.6505, 110.5078
464.1326, 93.86719
464.6147, 70.33203
465.0968, 48.44531
465.5789, 37.66016
466.0611, 23.57031
466.5432, 3.714844
467.0253, 41.48438
467.5074, 64.17578
467.9895, 56.27344
468.4716, 42.11328
468.9538, 33.91797
469.4359, 39.19531
469.9180, 33.94141
470.4001, 12.57031
470.8822, 14.88672
471.3643, 32.99219
471.8465, 38.19531
472.3286, 42.87891
472.8107, 50.22656
473.2928, 59.15625
473.7749, 65.39453
474.2570, 68.49219
474.7392, 69.62500
475.2213, 71.93359
475.7034, 74.12109
476.1855, 63.03516
476.6676, 33.05078
477.1497, 5.347656
477.6319, 18.01172
478.1140, 59.14453
478.5961, 89.03516
479.0782, 81.50000
479.5603, 59.60547
480.0424, 47.17188
480.5246, 43.54297
481.0067, 45.66016
481.4888, 56.05859
481.9709, 68.43359
482.4530, 77.19531
482.9352, 80.60938
483.4173, 81.02734
483.8994, 74.15625
484.3815, 65.48438
484.8636, 63.58203
485.3457, 73.22656
485.8279, 86.41797
486.3100, 106.3281
486.7921, 132.8828
487.2742, 143.4648
487.7563, 127.3789
488.2384, 107.4258
488.7206, 96.40625
489.2027, 97.56250
489.6848, 101.6172
490.1669, 112.1094
490.6490, 122.3711
491.1311, 118.2227
491.6133, 96.47656
492.0954, 82.98438
492.5775, 87.42969
493.0596, 105.4141
493.5417, 122.3359
494.0238, 137.7383
494.5060, 150.7422
494.9881, 157.1797
495.4702, 160.0781
495.9523, 169.0234
496.4344, 185.7266
496.9165, 203.4531
497.3987, 213.2539
497.8808, 217.6758
498.3629, 226.9570
498.8450, 264.4805
499.3271, 291.7383
499.8092, 276.3633
500.2914, 225.6914
500.7735, 180.3516
501.2556, 153.4062
501.7377, 138.7969
502.2198, 136.3203
502.7019, 155.9492
503.1841, 162.8555
503.6662, 142.2812
504.1483, 111.7109
504.6304, 91.70703
505.1125, 91.18750
505.5946, 86.84766
506.0768, 71.51172
506.5589, 48.93750
507.0410, 38.89844
507.5231, 43.33594
508.0052, 53.55078
508.4873, 67.05469
508.9695, 83.48828
509.4516, 94.33203
509.9337, 98.69531
510.4158, 99.49609
510.8979, 97.53516
511.3800, 94.00391
511.8622, 96.25781
512.3443, 111.0703
512.8264, 125.2852
513.3085, 113.1562
513.7906, 83.26953
514.2728, 66.13672
514.7549, 101.3789
515.2370, 142.6172
515.7191, 146.9062
516.2012, 109.7031
516.6833, 68.24609
517.1655, 23.46875
517.6476, 8.910156
518.1297, 14.98438
518.6118, 41.75781
519.0939, 83.50000
519.5760, 89.19922
520.0582, 72.17969
520.5403, 64.92578
521.0224, 72.67969
521.5045, 82.35547
521.9866, 88.02344
522.4688, 89.57422
522.9509, 107.1992
523.4330, 148.0859
523.9151, 187.5625
524.3972, 200.6953
524.8793, 184.9570
525.3615, 184.3672
525.8436, 207.5000
526.3257, 239.2617
526.8078, 259.4727
527.2899, 267.7344
527.7720, 265.6016
528.2542, 249.0156
528.7363, 226.8320
529.2184, 209.3555
529.7005, 196.1250
530.1826, 183.8984
530.6647, 175.0469
531.1469, 164.1953
531.6290, 142.6484
532.1111, 105.1016
532.5932, 80.51953
533.0753, 92.22656
533.5574, 118.1602
534.0396, 135.1953
534.5217, 144.1680
535.0038, 139.2422
535.4859, 107.4219
535.9680, 60.83984
536.4501, 38.38281
536.9323, 51.76562
537.4144, 69.55469
537.8965, 80.70312
538.3786, 84.87109
538.8607, 88.04688
539.3428, 88.33203
539.8250, 91.98828
540.3071, 108.0312
540.7892, 134.2539
541.2713, 154.4570
541.7534, 166.2070
542.2355, 169.9648
542.7177, 162.2617
543.1998, 146.3203
543.6819, 132.6719
544.1640, 124.4336
544.6461, 122.1289
545.1282, 128.7031
545.6104, 143.0117
546.0925, 157.7266
546.5746, 172.8125
547.0567, 184.5781
547.5388, 189.1250
548.0209, 182.7188
548.5031, 180.3945
548.9852, 183.8594
549.4673, 193.4570
549.9494, 210.6133
550.4315, 254.1250
550.9136, 273.9219
551.3958, 253.1133
551.8779, 207.6680
552.3600, 187.9961
552.8421, 200.8125
553.3242, 214.6289
553.8063, 216.1094
554.2885, 206.8242
554.7706, 199.8555
555.2527, 195.7344
555.7348, 189.4805
556.2169, 172.7578
556.6990, 150.9727
557.1812, 138.5430
557.6633, 139.3945
558.1454, 144.6953
558.6275, 148.8633
559.1096, 151.6445
559.5917, 151.7891
560.0739, 145.6094
560.5560, 139.9258
561.0381, 141.7852
561.5202, 148.1484
562.0023, 145.8125
562.4844, 116.5430
562.9666, 90.08594
563.4487, 81.96875
563.9308, 97.05078
564.4129, 105.2227
564.8950, 103.2578
565.3771, 97.38672
565.8593, 91.39062
566.3414, 83.55469
566.8235, 83.14844
567.3056, 93.80859
567.7877, 108.7227
568.2698, 114.2148
568.7520, 111.5195
569.2341, 111.1094
569.7162, 123.1055
570.1983, 137.4648
570.6804, 131.5820
571.1625, 107.0938
571.6447, 81.13281
572.1268, 64.40234
572.6089, 54.44922
573.0910, 50.13672
573.5731, 52.02734
574.0552, 54.66797
574.5374, 48.37891
575.0195, 44.57812
575.5016, 54.17188
575.9837, 99.89062
576.4658, 132.8164
576.9479, 136.8945
577.4301, 126.5000
577.9122, 131.3203
578.3943, 159.0625
578.8764, 184.4297
579.3585, 199.5000
579.8406, 205.4258
580.3228, 213.4531
580.8049, 224.0430
581.2870, 232.9180
581.7691, 238.6953
582.2512, 241.2539
582.7333, 240.2578
583.2155, 236.7812
583.6976, 225.9453
584.1797, 191.5703
584.6617, 151.0117
585.1439, 133.2539
585.6260, 154.1484
586.1081, 185.9922
586.5902, 223.8477
587.0723, 259.9805
587.5544, 278.6523
588.0366, 258.5820
588.5187, 237.3086
589.0008, 226.1094
589.4829, 224.0977
589.9650, 219.7188
590.4471, 204.5391
590.9293, 196.5039
591.4114, 209.0352
591.8935, 248.1094
592.3756, 258.8477
592.8577, 233.2031
593.3398, 199.6758
593.8220, 197.2383
594.3041, 221.1133
594.7862, 226.9648
595.2683, 202.5664
595.7504, 169.7031
596.2325, 158.0938
596.7147, 161.2031
597.1968, 161.4922
597.6789, 144.3242
598.1610, 128.0312
598.6431, 130.2852
599.1252, 146.7383
599.6074, 156.4180
600.0895, 150.7930
600.5716, 137.4883
601.0537, 116.9336
601.5358, 85.67969
602.0179, 65.60938
602.5001, 63.52734
602.9822, 66.01953
603.4643, 62.85547
603.9464, 51.93359
604.4285, 43.68359
604.9106, 38.43359
605.3928, 36.42188
605.8749, 35.79297
606.3570, 37.13672
606.8391, 49.69922
607.3212, 82.19531
607.8033, 119.3711
608.2855, 139.2305
608.7676, 143.6406
609.2497, 140.9414
609.7318, 129.2891
610.2139, 115.9180
610.6960, 102.7461
611.1782, 90.44141
611.6603, 91.99609
612.1424, 140.4375
612.6245, 183.5547
613.1066, 184.6836
613.5887, 110.0000
614.0709, 68.63281
614.5530, 82.85156
615.0351, 111.0000
615.5172, 105.0625
615.9993, 53.51172
616.4814, 22.41016
616.9636, 24.97266
617.4457, 46.75781
617.9278, 63.82031
618.4099, 75.83984
618.8920, 81.30078
619.3741, 73.71875
619.8563, 62.79688
620.3384, 66.27344
620.8205, 80.66797
621.3026, 89.80859
621.7847, 81.37109
622.2668, 65.97266
622.7490, 51.07422
623.2311, 37.53125
623.7132, 23.73438
624.1953, 6.742188
624.6774, 7.910156
625.1595, 15.45703
625.6417, 6.769531
626.1238, 6.859375
626.6059, 16.55469
627.0880, 32.62500
627.5701, 56.78125
628.0522, 91.96875
628.5344, 101.5195
629.0165, 69.75781
629.4986, 20.28516
629.9807, 0.3906250
630.4628, 3.695313
630.9449, 10.00781
631.4271, 10.27734
631.9092, 6.085938
632.3913, 3.363281
632.8734, 16.39453
633.3555, 25.08594
633.8376, 16.92969
634.3198, 9.027344
634.8019, 12.69141
635.2840, 31.33203
635.7661, 48.49609
636.2482, 67.71875
636.7303, 80.94141
637.2125, 81.32422
637.6946, 63.10547
638.1767, 50.78906
638.6588, 48.18750
639.1409, 47.60547
639.6230, 34.91406
640.1052, 11.58594
640.5873, 1.585938
641.0694, 4.363281
641.5515, 17.33984
642.0336, 17.79688
642.5157, 9.835938
642.9979, 5.464844
643.4800, 14.43750
643.9621, 25.57422
644.4442, 31.48047
644.9263, 32.47266
645.4084, 31.73438
645.8906, 23.57422
646.3727, 19.87891
646.8548, 29.41406
647.3369, 55.07031
647.8190, 72.05859
648.3011, 82.28906
648.7833, 80.91797
649.2654, 56.18359
649.7475, 3.695313
650.2296, 16.48438
650.7117, 3.515625
651.1938, 37.54688
651.6760, 51.08203
652.1581, 51.57422
652.6402, 63.36328
653.1223, 98.16797
653.6044, 134.2148
654.0865, 152.3633
654.5687, 157.8008
655.0508, 160.8594
655.5329, 168.3281
656.0150, 171.0273
656.4971, 160.4492
656.9792, 140.4180
657.4614, 131.0938
657.9435, 136.1289
658.4256, 147.9531
658.9077, 169.4648
659.3898, 199.3281
659.8719, 200.7969
660.3541, 167.5195
660.8362, 135.4805
661.3183, 135.8125
661.8004, 160.0938
662.2825, 169.1641
662.7646, 160.7969
663.2468, 148.0586
663.7289, 141.0195
664.2110, 137.1133
664.6931, 134.5391
665.1752, 137.0664
665.6573, 130.6523
666.1395, 94.10156
666.6216, 51.40234
667.1037, 31.95703
667.5858, 58.41406
668.0679, 86.28516
668.5500, 115.3008
669.0322, 142.3711
669.5143, 160.1289
669.9964, 168.2305
670.4785, 167.7344
670.9606, 154.9688
671.4427, 136.1641
671.9249, 126.0820
672.4070, 124.8281
672.8891, 135.3711
673.3712, 175.8281
673.8533, 219.1367
674.3354, 228.1406
674.8176, 205.5312
675.2997, 185.0195
675.7818, 184.1758
676.2639, 190.3164
676.7460, 196.1758
677.2281, 200.5547
677.7103, 206.5195
678.1924, 212.0820
678.6745, 221.3828
679.1566, 240.1523
679.6387, 272.7578
680.1208, 290.0352
680.6030, 284.6250
681.0851, 278.8555
681.5672, 314.2812
682.0493, 376.8359
682.5314, 403.9844
683.0135, 369.1797
683.4957, 322.1445
683.9778, 311.0586
684.4599, 324.4648
684.9420, 339.7773
685.4241, 364.0547
685.9063, 372.4023
686.3884, 344.9609
686.8705, 298.5742
687.3526, 276.5625
687.8347, 291.9180
688.3168, 313.8281
688.7990, 337.8047
689.2811, 363.1055
689.7632, 379.1094
690.2453, 385.5742
690.7274, 387.6055
691.2095, 390.6367
691.6917, 395.1836
692.1738, 400.6680
692.6559, 406.8320
693.1380, 411.0859
693.6201, 413.6719
694.1022, 411.0352
694.5844, 395.2852
695.0665, 361.6094
695.5486, 338.2344
696.0307, 333.8672
696.5128, 343.8516
696.9949, 366.9453
697.4771, 422.8242
697.9592, 447.0000
698.4413, 426.2305
698.9234, 391.8359
699.4055, 384.9414
699.8876, 406.5820
700.3698, 412.4414
700.8519, 391.9688
701.3340, 363.8711
701.8161, 359.9570
702.2982, 369.2812
702.7803, 362.6016
703.2625, 310.7188
703.7446, 262.1602
704.2267, 254.2539
704.7088, 273.6328
705.1909, 291.0508
705.6730, 297.3672
706.1552, 300.6680
706.6373, 297.9844
707.1194, 292.1797
707.6015, 301.3555
708.0836, 332.5430
708.5657, 354.3594
709.0479, 346.1758
709.5300, 316.4258
710.0121, 305.7148
710.4942, 313.1758
710.9763, 322.7656
711.4584, 330.2500
711.9406, 329.9258
712.4227, 308.3086
712.9048, 265.9570
713.3869, 233.3203
713.8690, 244.1758
714.3511, 256.7344
714.8333, 240.1250
715.3154, 177.0547
715.7975, 135.1797
716.2796, 128.7148
716.7617, 127.7500
717.2438, 106.7891
717.7260, 63.93359
718.2081, 27.19141
718.6902, 2.769531
719.1723, 19.69531
719.6544, 7.726563
720.1365, 22.84375
720.6187, 45.90234
721.1008, 54.77344
721.5829, 57.30078
722.0650, 55.28125
722.5471, 51.41406
723.0292, 49.51562
723.5114, 46.59766
723.9935, 49.56250
724.4756, 60.67969
724.9577, 76.73828
725.4398, 93.89062
725.9219, 112.6328
726.4041, 127.8164
726.8862, 134.8789
727.3683, 140.9688
727.8504, 170.8945
728.3325, 219.6211
728.8146, 252.6602
729.2968, 247.7695
729.7789, 224.5547
730.2610, 195.7148
730.7431, 165.6953
731.2252, 149.4258
731.7073, 171.2109
732.1895, 190.8477
732.6716, 187.0781
733.1537, 161.5508
733.6358, 148.0586
734.1179, 158.5352
734.6000, 160.9141
735.0822, 138.3125
735.5643, 94.41406
736.0464, 63.39844
736.5285, 45.63281
737.0106, 37.64844
737.4927, 43.10547
737.9749, 54.61328
738.4570, 58.87109
738.9391, 55.39453
739.4212, 51.66016
739.9033, 57.67578
740.3854, 60.81641
740.8676, 46.56641
741.3497, 2.281250
741.8318, 13.12109
742.3139, 30.25000
742.7960, 72.48828
743.2781, 65.34766
743.7603, 3.125000
744.2424, 30.42188
744.7245, 6.839844
745.2066, 29.50391
745.6887, 45.12891
746.1708, 43.57422
746.6530, 22.33984
747.1351, 26.60547
747.6172, 59.38281
748.0993, 21.63281
748.5814, 41.10156
749.0635, 77.19531
749.5457, 53.97656
750.0278, 36.91016
750.5099, 24.98047
750.9920, 28.33984
751.4741, 68.25781
751.9562, 160.7188
752.4384, 212.8516
752.9205, 201.9609
753.4026, 164.8711
753.8847, 157.7305
754.3668, 174.6328
754.8489, 194.5039
755.3311, 214.8711
755.8132, 227.9609
756.2953, 219.9297
756.7774, 201.0508
757.2595, 189.4922
757.7416, 205.8789
758.2238, 213.2656
758.7059, 196.5781
759.1880, 168.0078
759.6701, 153.3789
760.1522, 158.9141
760.6343, 160.1680
761.1165, 150.1953
761.5986, 133.8711
762.0807, 121.2148
762.5628, 112.3555
763.0449, 107.0273
763.5270, 106.3906
764.0092, 107.9531
764.4913, 110.6250
764.9734, 113.4414
765.4555, 113.8906
765.9376, 101.6562
766.4197, 96.22266
766.9019, 110.3125
767.3840, 137.7539
767.8661, 150.5039
768.3482, 144.9180
768.8303, 133.9922
769.3124, 120.6133
769.7946, 106.4727
770.2767, 96.34375
770.7588, 90.38672
771.2409, 90.06641
771.7230, 100.6680
772.2051, 114.5078
772.6873, 126.6445
773.1694, 136.2852
773.6515, 138.7109
774.1336, 131.5586
774.6157, 117.7305
775.0978, 91.70312
775.5800, 54.93359
776.0621, 48.31250
776.5442, 83.10938
777.0263, 114.9609
777.5084, 114.7188
777.9905, 91.98047
778.4727, 97.76172
778.9548, 130.2461
779.4369, 159.8906
779.9190, 161.9922
780.4011, 152.6836
780.8832, 146.8477
781.3654, 146.0664
781.8475, 145.3789
782.3296, 152.1602
782.8117, 149.8359
783.2938, 124.5391
783.7759, 72.07812
784.2581, 49.67578
784.7402, 64.82422
785.2223, 88.81641
785.7044, 110.5234
786.1865, 126.0859
786.6686, 113.0312
787.1508, 71.54297
787.6329, 31.13672
788.1150, 9.718750
788.5971, 2.468750
789.0792, 5.382813
789.5613, 17.74219
790.0435, 39.51953
790.5256, 84.97266
791.0077, 126.0430
791.4898, 145.6367
791.9719, 138.7305
792.4540, 143.9570
792.9362, 164.2695
793.4183, 178.7461
793.9004, 161.3477
794.3825, 124.9805
794.8646, 109.6055
795.3467, 118.2578
795.8289, 125.9180
796.3110, 114.3672
796.7931, 94.70312
797.2752, 74.67969
797.7573, 53.92969
798.2394, 41.97266
798.7216, 49.64844
799.2037, 56.76562
799.6858, 45.84375
800.1679, 12.82812
800.6500, 11.82812
801.1321, 48.48438
801.6143, 82.71875
802.0964, 71.34766
802.5785, 34.69531
803.0606, 1.476563
803.5427, 25.78125
804.0248, 41.42188
804.5070, 40.10547
804.9891, 29.70703
805.4712, 15.26172
805.9533, 7.929688
806.4354, 35.95703
806.9175, 72.94141
807.3997, 105.0430
807.8818, 122.6523
808.3639, 125.6445
808.8460, 114.7578
809.3281, 89.05469
809.8102, 61.27734
810.2924, 37.24609
810.7745, 21.01172
811.2566, 21.11719
811.7387, 40.53516
812.2208, 59.53125
812.7029, 73.02344
813.1851, 81.57812
813.6672, 84.14062
814.1493, 77.91797
814.6314, 80.79688
815.1135, 95.76172
815.5956, 112.2812
816.0778, 121.7852
816.5599, 125.1641
817.0420, 125.5664
817.5241, 122.7344
818.0062, 121.0820
818.4883, 118.9766
818.9705, 122.1445
819.4526, 139.2109
819.9347, 173.3047
820.4168, 200.9414
820.8989, 223.3789
821.3810, 231.6758
821.8632, 217.0391
822.3453, 176.0508
822.8274, 151.4023
823.3095, 147.0039
823.7916, 141.3789
824.2737, 108.4727
824.7559, 65.76562
825.2380, 55.07422
825.7201, 78.06641
826.2022, 94.26953
826.6843, 69.68750
827.1664, 37.56641
827.6486, 18.49219
828.1307, 15.04297
828.6128, 23.12109
829.0949, 51.89844
829.5770, 75.26562
830.0591, 72.22656
830.5413, 46.70312
831.0234, 52.88672
831.5055, 89.98047
831.9876, 118.1953
832.4697, 100.3867
832.9518, 64.23828
833.4340, 34.23828
833.9161, 12.87891
834.3982, 6.527344
834.8803, 38.86719
835.3624, 65.63281
835.8445, 65.02344
836.3267, 38.60156
836.8088, 21.57812
837.2909, 16.25391
837.7730, 10.98438
838.2551, 5.878906
838.7372, 25.45703
839.2194, 20.72656
839.7015, 4.296875
840.1836, 25.78906
840.6657, 24.99219
841.1478, 20.67969
841.6299, 25.38281
842.1121, 37.94531
842.5942, 45.23047
843.0763, 46.71875
843.5584, 41.12500
844.0405, 22.02344
844.5226, 2.996094
845.0048, 4.894531
845.4869, 42.68750
845.9690, 67.57031
846.4511, 42.22656
846.9332, 6.257813
847.4153, 9.812500
847.8975, 38.85547
848.3796, 53.29297
848.8617, 22.98828
849.3438, 4.304688
849.8259, 14.53125
850.3080, 11.85547
850.7902, 5.265625
851.2723, 6.722656
851.7544, 14.23828
852.2365, 11.55859
852.7186, 7.835938
853.2007, 23.34766
853.6829, 51.26172
854.1650, 72.80078
854.6471, 73.93750
855.1292, 75.08203
855.6113, 89.28125
856.0934, 108.5469
856.5756, 118.1523
857.0577, 110.9102
857.5398, 106.4453
858.0219, 105.6797
858.5040, 109.8125
858.9861, 123.6289
859.4683, 144.9727
859.9504, 162.8984
860.4325, 175.2109
860.9146, 181.1523
861.3967, 177.2070
861.8788, 166.0508
862.3610, 150.6680
862.8431, 121.3125
863.3252, 109.2578
863.8073, 127.5312
864.2894, 152.0078
864.7715, 158.3984
865.2537, 146.0664
865.7358, 139.7344
866.2179, 142.4453
866.7000, 147.3281
867.1821, 152.6445
867.6642, 154.2891
868.1464, 140.6055
868.6285, 105.7383
869.1106, 87.62109
869.5927, 117.1289
870.0748, 155.0195
870.5569, 174.8086
871.0391, 172.9648
871.5212, 170.9453
872.0033, 167.4961
872.4854, 163.6289
872.9675, 156.8750
873.4496, 149.5742
873.9318, 150.0234
874.4139, 157.2656
874.8960, 164.2578
875.3781, 171.9375
875.8602, 173.4297
876.3423, 164.5625
876.8245, 145.1758
877.3066, 119.1797
877.7887, 85.34766
878.2708, 53.98828
878.7529, 25.39453
879.2350, 2.589844
879.7172, 4.230469
880.1993, 27.52734
880.6814, 45.08203
881.1635, 35.37891
881.6456, 20.52344
882.1277, 12.94531
882.6099, 12.54297
883.0920, 19.06250
883.5741, 35.05859
884.0562, 51.92188
884.5383, 67.07422
885.0204, 81.29688
885.5026, 99.23047
885.9847, 119.4648
886.4668, 129.8203
886.9489, 121.7500
887.4310, 112.9453
887.9131, 122.9648
888.3953, 145.4922
888.8774, 172.0859
889.3595, 220.7500
889.8416, 242.5039
890.3237, 214.9297
890.8058, 172.9727
891.2880, 156.3125
891.7701, 168.7930
892.2522, 155.3281
892.7343, 106.7070
893.2164, 60.58203
893.6985, 59.59766
894.1807, 84.60547
894.6628, 113.9688
895.1449, 147.4375
895.6270, 158.8281
896.1091, 114.9297
896.5912, 65.71484
897.0734, 43.24219
897.5555, 50.85156
898.0376, 58.87109
898.5197, 69.09375
899.0018, 71.95312
899.4839, 50.63672
899.9661, 22.15234
900.4482, 23.98438
900.9303, 51.90625
901.4124, 73.67969
901.8945, 61.83984
902.3766, 49.27344
902.8588, 52.72656
903.3409, 69.24219
903.8230, 82.99609
904.3051, 91.47656
904.7872, 108.9336
905.2693, 145.0938
905.7515, 184.7227
906.2336, 193.3008
906.7157, 179.2266
907.1978, 167.3008
907.6799, 167.7305
908.1620, 174.8672
908.6442, 192.8633
909.1263, 214.0234
909.6084, 225.8828
910.0905, 227.2148
910.5726, 222.8398
911.0547, 211.6094
911.5369, 199.8281
912.0190, 198.3789
912.5011, 203.1133
912.9832, 199.4688
913.4653, 182.9609
913.9474, 171.8438
914.4296, 184.7070
914.9117, 203.1172
915.3938, 209.7578
915.8759, 197.2734
916.3580, 195.0352
916.8401, 207.7656
917.3223, 220.4453
917.8044, 224.1094
918.2865, 219.5508
918.7686, 204.6641
919.2507, 181.2773
919.7328, 161.3281
920.2150, 162.4570
920.6971, 160.9375
921.1792, 134.2656
921.6613, 88.05078
922.1434, 65.88281
922.6255, 77.58203
923.1077, 93.66406
923.5898, 108.0391
924.0719, 119.1172
924.5540, 119.6406
925.0361, 112.4727
925.5182, 110.4180
926.0004, 120.2656
926.4825, 131.4648
926.9646, 137.5703
927.4467, 139.7227
927.9288, 142.6328
928.4109, 149.9375
928.8931, 151.0039
929.3752, 143.4766
929.8573, 133.5781
930.3394, 132.5586
930.8215, 135.8125
931.3036, 123.3125
931.7858, 92.09766
932.2679, 61.89453
932.7500, 46.83203
933.2321, 38.97266
933.7142, 35.01172
934.1964, 36.85156
934.6785, 24.90625
935.1606, 8.761719
935.6427, 34.81250
936.1248, 33.66016
936.6069, 14.08984
937.0891, 6.812500
937.5712, 9.289063
938.0533, 8.691406
938.5354, 1.804688
939.0175, 16.64062
939.4996, 37.85938
939.9818, 59.80469
940.4639, 65.11719
940.9460, 39.18359
941.4281, 35.75000
941.9102, 70.62109
942.3923, 116.1562
942.8745, 124.4648
943.3566, 106.2188
943.8387, 94.63281
944.3208, 98.29297
944.8029, 109.1602
945.2850, 130.8633
945.7672, 153.2383
946.2493, 169.7617
946.7314, 185.5977
947.2135, 175.6836
947.6956, 133.7344
948.1777, 89.32422
948.6599, 65.88281
949.1420, 57.65234
949.6241, 52.35938
950.1062, 49.43750
950.5883, 48.65234
951.0704, 42.49219
951.5526, 45.12500
952.0347, 74.35938
952.5168, 119.2148
952.9989, 136.7773
953.4810, 121.4922
953.9631, 104.6875
954.4453, 95.63281
954.9274, 88.95703
955.4095, 72.91797
955.8916, 53.06641
956.3737, 41.98438
956.8558, 52.65234
957.3380, 56.25391
957.8201, 35.01953
958.3022, 8.253906
958.7843, 6.476563
959.2664, 7.601563
959.7485, 1.386719
960.2307, 13.58203
960.7128, 24.72266
961.1949, 14.56641
961.6770, 3.281250
962.1591, 7.964844
962.6412, 0.9453130
963.1234, 7.539063
963.6055, 4.066406
964.0876, 7.449219
964.5697, 11.70703
965.0518, 45.03516
965.5339, 53.21484
966.0161, 35.90234
966.4982, 22.34375
966.9803, 20.11328
967.4624, 31.82031
967.9445, 79.76953
968.4266, 138.7266
968.9088, 166.2109
969.3909, 117.7109
969.8730, 85.57422
970.3551, 85.66016
970.8372, 91.89453
971.3193, 73.38672
971.8015, 34.18750
972.2836, 6.757813
972.7657, 5.882813
973.2478, 5.910156
973.7299, 21.27344
974.2120, 48.45703
974.6942, 47.19141
975.1763, 15.44922
975.6584, 1.578125
976.1405, 14.67969
976.6226, 29.55859
977.1047, 37.04297
977.5869, 39.36719
978.0690, 36.91797
978.5511, 33.58984
979.0332, 45.79688
979.5153, 94.94531
979.9974, 139.0859
980.4796, 158.9062
980.9617, 158.0781
981.4438, 141.1445
981.9259, 99.99219
982.4080, 70.30859
982.8901, 55.94922
983.3723, 45.33203
983.8544, 18.33203
984.3365, 9.671875
984.8186, 3.1250000E-02
985.3007, 49.10547
985.7828, 81.46094
986.2650, 52.21094
986.7471, 22.33594
987.2292, 20.61328
987.7113, 42.29297
988.1934, 52.68750
988.6755, 46.95312
989.1577, 51.26562
989.6398, 79.79297
990.1219, 112.7812
990.6040, 129.0664
991.0861, 131.9961
991.5682, 127.2422
992.0504, 104.5977
992.5325, 92.40234
993.0146, 95.70703
993.4967, 103.4805
993.9788, 111.3594
994.4609, 119.4414
994.9431, 114.2500
995.4252, 94.84375
995.9073, 75.63281
996.3894, 72.58203
996.8715, 69.76953
997.3536, 53.22656
997.8358, 23.96875
998.3179, 0.7773440
998.8000, 16.46875
999.2821, 25.91016
999.7642, 26.49609
1000.246, 19.71875
1000.728, 1.000000
1001.211, 22.16406
1001.693, 27.68750
1002.175, 1.804688
1002.657, 25.73828
1003.139, 22.57031
1003.621, 8.097656
1004.103, 2.523438
1004.585, 7.265625
1005.068, 21.80078
1005.550, 47.20312
1006.032, 69.41016
1006.514, 73.60938
1006.996, 70.50781
1007.478, 73.92578
1007.960, 82.49219
1008.442, 87.41406
1008.924, 79.35547
1009.407, 75.76172
1009.889, 82.23047
1010.371, 92.75391
1010.853, 98.14453
1011.335, 97.65625
1011.817, 81.27734
1012.299, 41.81641
1012.781, 10.55859
1013.263, 21.24219
1013.746, 46.26562
1014.228, 58.82812
1014.710, 54.91797
1015.192, 55.91016
1015.674, 65.43750
1016.156, 69.23047
1016.638, 49.01953
1017.120, 21.14062
1017.603, 24.87109
1018.085, 52.02344
1018.567, 73.64453
1019.049, 66.69531
1019.531, 61.79297
1020.013, 64.94922
1020.495, 76.59766
1020.977, 102.4531
1021.459, 141.8516
1021.942, 156.8398
1022.424, 140.9492
1022.906, 120.0977
1023.388, 129.9297
1023.870, 140.6289
1024.352, 111.9023
1024.834, 35.89844
1025.316, 3.562500
1025.799, 44.98438
1026.281, 80.17578
1026.763, 73.50781
1027.245, 44.00781
1027.727, 39.38281
1028.209, 54.52734
1028.691, 72.27344
1029.173, 95.70312
1029.656, 104.7188
1030.138, 68.53906
1030.620, 25.37109
1031.102, 19.03125
1031.584, 59.08594
1032.066, 81.63281
1032.548, 83.28906
1033.030, 83.30469
1033.512, 95.81250
1033.995, 116.3789
1034.477, 140.7773
1034.959, 167.6211
1035.441, 192.4023
1035.923, 229.8789
1036.405, 238.4531
1036.887, 199.0039
1037.369, 139.6367
1037.851, 117.2852
1038.334, 123.3828
1038.816, 122.6680
1039.298, 106.2227
1039.780, 88.22266
1040.262, 71.83984
1040.744, 62.33984
1041.226, 68.97266
1041.708, 94.07031
1042.191, 88.53906
1042.673, 49.87891
1043.155, 18.25781
1043.637, 25.82812
1044.119, 42.89844
1044.601, 15.67578
1045.083, 33.42578
1045.565, 52.19141
1046.047, 13.59375
1046.530, 52.43750
1047.012, 43.47266
1047.494, 21.69141
1047.976, 25.98438
1048.458, 51.83203
1048.940, 81.72266
1049.422, 113.7852
1049.904, 134.4609
1050.386, 127.4766
1050.869, 113.7148
1051.351, 98.57031
1051.833, 86.55859
1052.315, 100.1328
1052.797, 143.3398
1053.279, 181.7422
1053.761, 210.2695
1054.243, 220.0977
1054.726, 176.0273
1055.208, 116.7539
1055.690, 101.0664
1056.172, 160.2969
1056.654, 199.1562
1057.136, 206.8477
1057.618, 201.0977
1058.100, 187.9023
1058.583, 171.6211
1059.065, 168.5117
1059.547, 175.2656
1060.029, 177.0938
1060.511, 157.6719
1060.993, 141.5117
1061.475, 132.8555
1061.957, 137.2031
1062.439, 167.7461
1062.922, 229.9023
1063.404, 268.9570
1063.886, 279.4844
1064.368, 277.9727
1064.850, 271.7031
1065.332, 266.2109
1065.814, 266.5312
1066.296, 272.9062
1066.778, 284.1406
1067.261, 301.2266
1067.743, 319.1211
1068.225, 336.6094
1068.707, 353.4297
1069.189, 365.6055
1069.671, 376.8164
1070.153, 398.6914
1070.635, 439.2812
1071.118, 469.3281
1071.600, 462.4023
1072.082, 455.5078
1072.564, 472.7773
1073.046, 511.8008
1073.528, 535.2500
1074.010, 544.6914
1074.492, 557.7148
1074.974, 584.2539
1075.457, 614.5625
1075.939, 647.9844
1076.421, 680.8008
1076.903, 705.6250
1077.385, 718.6328
1077.867, 734.0273
1078.349, 752.8281
1078.831, 770.0117
1079.313, 773.7070
1079.796, 776.0156
1080.278, 806.5117
1080.760, 858.7148
1081.242, 881.8125
1081.724, 824.7734
1082.206, 784.4609
1082.688, 790.4531
1083.170, 810.8594
1083.652, 786.0469
1084.135, 724.9023
1084.617, 658.0547
1085.099, 589.8789
1085.581, 529.2852
1086.063, 488.6953
1086.545, 450.3594
1087.027, 398.9219
1087.509, 337.1797
1087.992, 295.1445
1088.474, 273.1758
1088.956, 245.9805
1089.438, 198.1484
1089.920, 149.7852
1090.402, 118.6914
1090.884, 99.69531
1091.366, 86.12500
1091.849, 76.74219
1092.331, 75.28516
1092.813, 84.90234
1093.295, 91.93359
1093.777, 82.38281
1094.259, 65.14453
1094.741, 55.69141
1095.223, 52.85938
1095.705, 52.48828
1096.188, 47.22266
1096.670, 52.16016
1097.152, 71.99219
1097.634, 98.15234
1098.116, 123.5781
1098.598, 146.3125
1099.080, 154.4492
1099.562, 147.2188
1100.044, 141.8047
1100.527, 163.5820
1101.009, 175.3477
1101.491, 151.0469
1101.973, 103.4219
1102.455, 68.94531
1102.937, 46.49609
1103.419, 34.17578
1103.901, 36.44141
1104.384, 46.25000
1104.866, 66.64453
1105.348, 87.72266
1105.830, 98.09766
1106.312, 94.91406
1106.794, 97.61719
1107.276, 109.8359
1107.758, 111.2305
1108.240, 84.89453
1108.723, 51.27734
1109.205, 37.88281
1109.687, 41.95703
1110.169, 58.62109
1110.651, 93.32031
1111.133, 129.6914
1111.615, 175.1953
1112.097, 206.4805
1112.579, 194.2852
1113.062, 154.1484
1113.544, 143.4141
1114.026, 157.0977
1114.508, 169.6602
1114.990, 173.2500
1115.472, 167.6914
1115.954, 146.0820
1116.436, 122.0469
1116.919, 116.7305
1117.401, 128.4492
1117.883, 125.8594
1118.365, 106.5820
1118.847, 93.50781
1119.329, 114.7734
1119.811, 137.1211
1120.293, 134.2930
1120.776, 114.0508
1121.258, 102.0195
1121.740, 97.33984
1122.222, 111.1562
1122.704, 151.9258
1123.186, 181.9922
1123.668, 144.2617
1124.150, 86.85547
1124.632, 63.80078
1125.115, 85.17969
1125.597, 89.90234
1126.079, 69.30078
1126.561, 60.94922
1127.043, 89.51562
1127.525, 122.2227
1128.007, 97.23438
1128.489, 41.10156
1128.971, 0.7656250
1129.454, 11.16406
1129.936, 20.46094
1130.418, 31.37109
1130.900, 41.07422
1131.382, 51.01562
1131.864, 56.98047
1132.346, 41.19531
1132.828, 10.32812
1133.311, 13.90625
1133.793, 11.43750
1134.275, 14.01172
1134.757, 28.51953
1135.239, 49.08203
1135.721, 70.73438
1136.203, 92.79688
1136.685, 120.5703
1137.167, 151.9453
1137.650, 168.0078
1138.132, 140.1094
1138.614, 112.7812
1139.096, 119.6523
1139.578, 135.5781
1140.060, 112.4727
1140.542, 49.21875
1141.024, 26.63281
1141.506, 56.08594
1141.989, 81.53125
1142.471, 39.70703
1142.953, 5.929688
1143.435, 3.734375
1143.917, 55.55469
1144.399, 69.75781
1144.881, 37.78906
1145.363, 27.45703
1145.846, 56.02734
1146.328, 98.10156
1146.810, 144.1641
1147.292, 175.9844
1147.774, 162.8477
1148.256, 96.11719
1148.738, 73.41016
1149.220, 112.1523
1149.703, 132.9766
1150.185, 99.02344
1150.667, 51.66016
1151.149, 53.48047
1151.631, 83.39453
1152.113, 109.7188
1152.595, 127.8984
1153.077, 133.9922
1153.559, 126.8281
1154.042, 111.8477
1154.524, 85.51562
1155.006, 59.13281
1155.488, 69.39844
1155.970, 98.91797
1156.452, 104.0508
1156.934, 47.85156
1157.416, 9.062500
1157.898, 1.015625
1158.381, 4.496094
1158.863, 23.02734
1159.345, 48.85938
1159.827, 56.84375
1160.309, 50.16406
1160.791, 41.76562
1161.273, 25.97266
1161.755, 24.57812
1162.238, 49.66406
1162.720, 82.08984
1163.202, 104.8125
1163.684, 117.1992
1164.166, 112.4688
1164.648, 92.38281
1165.130, 77.27734
1165.612, 87.51953
1166.094, 94.78906
1166.577, 83.28516
1167.059, 64.90234
1167.541, 61.06641
1168.023, 70.21094
1168.505, 65.17969
1168.987, 43.39453
1169.469, 26.07812
1169.951, 26.66797
1170.433, 38.01172
1170.916, 63.32812
1171.398, 94.29297
1171.880, 110.2695
1172.362, 111.3672
1172.844, 108.0508
1173.326, 100.9805
1173.808, 97.49219
1174.290, 106.9336
1174.773, 119.1445
1175.255, 126.2227
1175.737, 128.6875
1176.219, 134.4570
1176.701, 144.6680
1177.183, 148.1367
1177.665, 141.5391
1178.147, 130.7734
1178.630, 119.5703
1179.112, 107.8750
1179.594, 89.39062
1180.076, 64.02734
1180.558, 76.81250
1181.040, 134.1719
1181.522, 181.9492
1182.004, 197.6797
1182.486, 191.9922
1182.969, 160.5586
1183.451, 129.0234
1183.933, 132.0430
1184.415, 179.6562
1184.897, 212.1562
1185.379, 228.8594
1185.861, 232.0469
1186.343, 211.6719
1186.825, 192.9688
1187.308, 219.7852
1187.790, 262.8320
1188.272, 273.8594
1188.754, 234.1250
1189.236, 199.9766
1189.718, 172.8164
1190.200, 149.6406
1190.682, 124.6953
1191.165, 105.6328
1191.647, 111.5000
1192.129, 130.2656
1192.611, 136.7383
1193.093, 121.5859
1193.575, 112.3242
1194.057, 105.9258
1194.539, 100.8359
1195.021, 87.80859
1195.504, 77.25391
1195.986, 88.36328
1196.468, 113.5781
1196.950, 130.6992
1197.432, 134.0117
1197.914, 129.9219
1198.396, 114.4727
1198.878, 106.0391
1199.360, 137.6758
1199.843, 177.5586
1200.325, 169.5664
1200.807, 126.1562
1201.289, 108.2266
1201.771, 145.9570
1202.253, 164.0508
1202.735, 151.2500
1203.217, 129.3633
1203.700, 115.1250
1204.182, 111.7578
1204.664, 124.3945
1205.146, 152.2695
1205.628, 191.9062
1206.110, 257.5898
1206.592, 296.5508
1207.074, 295.2500
1207.557, 277.7031
1208.039, 267.2617
1208.521, 263.0781
1209.003, 264.7109
1209.485, 271.5938
1209.967, 282.0469
1210.449, 298.8047
1210.931, 310.6406
1211.413, 315.2812
1211.896, 315.0195
1212.378, 312.1094
1212.860, 307.3477
1213.342, 304.8984
1213.824, 305.4258
1214.306, 288.8438
1214.788, 243.0156
1215.270, 213.2773
1215.752, 217.2539
1216.235, 228.8633
1216.717, 203.6055
1217.199, 164.4453
1217.681, 147.0742
1218.163, 158.4062
1218.645, 160.4258
1219.127, 145.8398
1219.609, 135.6523
1220.092, 136.3008
1220.574, 144.6953
1221.056, 163.7734
1221.538, 183.6055
1222.020, 187.9727
1222.502, 171.4102
1222.984, 158.0508
1223.466, 147.8438
1223.948, 141.4883
1224.431, 135.8242
1224.913, 140.0117
1225.395, 187.1641
1225.877, 243.0547
1226.359, 256.4766
1226.841, 207.0117
1227.323, 175.6250
1227.805, 167.6602
1228.287, 158.3984
1228.770, 136.4727
1229.252, 110.1562
1229.734, 80.65234
1230.216, 59.20312
1230.698, 70.00391
1231.180, 131.2344
1231.662, 134.0703
1232.144, 67.16406
1232.627, 9.375000
1233.109, 1.632813
1233.591, 12.60156
1234.073, 11.70312
1234.555, 2.894531
1235.037, 9.769531
1235.519, 26.26562
1236.001, 38.88281
1236.484, 47.12109
1236.966, 50.33984
1237.448, 44.94922
1237.930, 39.16016
1238.412, 50.77344
1238.894, 62.56250
1239.376, 47.30078
1239.858, 0.3945310
1240.340, 33.10547
1240.823, 51.44141
1241.305, 68.93750
1241.787, 97.75000
1242.269, 119.9180
1242.751, 108.3086
1243.233, 87.01172
1243.715, 89.38672
1244.197, 119.7305
1244.679, 129.1914
1245.162, 118.3203
1245.644, 104.2773
1246.126, 94.77734
1246.608, 88.34375
1247.090, 90.17969
1247.572, 91.62109
1248.054, 82.71875
1248.536, 63.65625
1249.019, 49.86328
1249.501, 41.22266
1249.983, 28.94922
1250.465, 15.53906
1250.947, 34.42578
1251.429, 35.48438
1251.911, 118.4922
1252.393, 137.7422
1252.875, 97.24219
1253.358, 86.25000
1253.840, 100.7656
1254.322, 117.6289
1254.804, 126.2500
1255.286, 131.5195
1255.768, 133.4961
1256.250, 133.7227
1256.732, 133.3438
1257.214, 132.6250
1257.697, 130.7656
1258.179, 129.2891
1258.661, 133.1758
1259.143, 161.4805
1259.625, 171.6680
1260.107, 149.5234
1260.589, 120.8750
1261.071, 102.5469
1261.554, 96.20312
1262.036, 114.5508
1262.518, 149.8867
1263.000, 177.0977
1263.482, 184.5859
1263.964, 183.1562
1264.446, 169.7266
1264.928, 155.9531
1265.411, 160.8477
1265.893, 167.0742
1266.375, 124.8945
1266.857, 56.96484
1267.339, 25.61719
1267.821, 74.38672
1268.303, 111.0352
1268.785, 139.4492
1269.267, 156.0781
1269.750, 160.0000
1270.232, 150.1289
1270.714, 118.8516
1271.196, 71.51562
1271.678, 42.39844
1272.160, 36.25391
1272.642, 37.39453
1273.124, 45.13281
1273.606, 58.98828
1274.089, 84.77734
1274.571, 109.4023
1275.053, 118.7148
1275.535, 118.6406
1276.017, 120.0938
1276.499, 122.5312
1276.981, 132.6367
1277.463, 152.3047
1277.946, 161.9062
1278.428, 121.7578
1278.910, 74.52344
1279.392, 42.73047
1279.874, 22.80469
1280.356, 9.445313
1280.838, 3.183594
1281.320, 12.66797
1281.802, 35.50781
1282.285, 50.21094
1282.767, 35.69922
1283.249, 22.96484
1283.731, 26.22266
1284.213, 31.57031
1284.695, 22.64453
1285.177, 4.609375
1285.659, 7.921875
1286.141, 27.58203
1286.624, 39.06641
1287.106, 16.78516
1287.588, 11.18750
1288.070, 36.62109
1288.552, 60.30469
1289.034, 48.64844
1289.516, 18.78906
1289.998, 5.000000
1290.481, 6.109375
1290.963, 17.72656
1291.445, 57.92188
1291.927, 69.20312
1292.409, 42.46875
1292.891, 22.28125
1293.373, 54.37891
1293.855, 100.2461
1294.338, 113.4141
1294.820, 103.4688
1295.302, 84.62891
1295.784, 49.92578
1296.266, 44.76172
1296.748, 70.71094
1297.230, 98.19141
1297.712, 107.6758
1298.194, 112.9102
1298.677, 127.4922
1299.159, 140.4258
1299.641, 135.6172
1300.123, 112.0742
1300.605, 97.29688
1301.087, 90.17578
1301.569, 79.36719
1302.051, 60.35156
1302.533, 31.98828
1303.016, 0.0000000E+00
##END=



