##NAMES=Swinefordite
##RRUFFID=R070707
##IDEAL CHEMISTRY=Ca_0.2_(Li,Al,Mg,Fe^3+^,Fe^2+^)_3_(Si,Al)_4_O_10_(OH,F)_2_&#183;nH_2_O
##LOCALITY=Foote Lithium Co. mine, Kings Mountain District, Cleveland County, North Carolina, USA
##OWNER=RRUFF
##SOURCE=Michael Scott
##DESCRIPTION=Gunmetal dark grey with brownish tint; massive curled and folded sheets associated with quartz
##STATUS=The identification of this mineral is not yet confirmed.
##URL=rruff.info/R070707
106.9509, 0.0000000E+00
107.4331, 18.81250
107.9152, 0.3398440
108.3973, 1.479492
108.8794, 21.18066
109.3615, 31.69629
109.8436, 24.73242
110.3258, 16.59473
110.8079, 10.49219
111.2900, 6.648438
111.7721, 4.126953
112.2542, 1.028320
112.7363, 3.233398
113.2185, 6.030273
113.7006, 39.58105
114.1827, 77.75879
114.6648, 111.4453
115.1469, 139.0078
115.6290, 152.5410
116.1112, 130.3965
116.5933, 70.63184
117.0754, 32.09766
117.5575, 48.38281
118.0396, 95.88086
118.5217, 121.4756
119.0039, 103.2715
119.4860, 69.01465
119.9681, 52.59277
120.4502, 54.89453
120.9323, 66.26855
121.4144, 86.24316
121.8966, 115.9785
122.3787, 131.9268
122.8608, 111.0664
123.3429, 78.96094
123.8250, 53.19336
124.3071, 39.04590
124.7893, 32.25781
125.2714, 22.57422
125.7535, 1.587891
126.2356, 5.270508
126.7177, 36.00293
127.1998, 95.18164
127.6820, 139.6006
128.1641, 148.2842
128.6462, 124.2891
129.1283, 103.3750
129.6104, 81.78418
130.0925, 67.76270
130.5747, 68.90918
131.0568, 80.70020
131.5389, 91.64648
132.0210, 90.12988
132.5031, 71.25586
132.9852, 62.17871
133.4674, 71.71582
133.9495, 82.63672
134.4316, 83.77734
134.9137, 73.42676
135.3958, 57.86816
135.8779, 45.21680
136.3601, 32.72656
136.8422, 30.31641
137.3243, 49.81738
137.8064, 76.47754
138.2885, 89.22656
138.7706, 78.81738
139.2528, 56.92773
139.7349, 50.53711
140.2170, 66.51465
140.6991, 77.96582
141.1812, 65.31738
141.6633, 35.48340
142.1455, 18.48828
142.6276, 32.81055
143.1097, 67.05469
143.5918, 97.06738
144.0739, 123.7246
144.5561, 143.8828
145.0382, 149.3320
145.5203, 136.4092
146.0024, 130.7793
146.4845, 162.9072
146.9666, 206.8330
147.4488, 230.9648
147.9309, 215.2539
148.4130, 175.4893
148.8951, 151.0352
149.3772, 148.1230
149.8593, 152.1367
150.3415, 155.6992
150.8236, 160.2715
151.3057, 168.9111
151.7878, 186.0889
152.2699, 211.6396
152.7520, 229.1875
153.2342, 235.8984
153.7163, 235.6104
154.1984, 223.3984
154.6805, 202.9941
155.1626, 185.1299
155.6447, 182.1641
156.1269, 199.8984
156.6090, 214.1465
157.0911, 223.9541
157.5732, 231.7119
158.0553, 237.3555
158.5374, 241.5039
159.0196, 246.6445
159.5017, 257.6279
159.9838, 290.3984
160.4659, 302.6191
160.9480, 278.9248
161.4301, 243.0742
161.9123, 217.7080
162.3944, 211.5703
162.8765, 218.5732
163.3586, 223.3955
163.8407, 220.6895
164.3228, 222.8438
164.8050, 239.6064
165.2871, 262.0449
165.7692, 271.5293
166.2513, 256.9092
166.7334, 225.0107
167.2155, 204.4131
167.6977, 194.1318
168.1798, 193.3320
168.6619, 205.5186
169.1440, 228.6699
169.6261, 253.6738
170.1082, 275.0166
170.5904, 292.0850
171.0725, 303.5078
171.5546, 307.0352
172.0367, 306.2178
172.5188, 304.0879
173.0009, 300.7578
173.4831, 296.1465
173.9652, 290.1045
174.4473, 282.4111
174.9294, 271.0742
175.4115, 251.3936
175.8936, 228.4697
176.3758, 211.7061
176.8579, 200.5742
177.3400, 197.6338
177.8221, 204.9951
178.3042, 220.6094
178.7864, 240.6279
179.2685, 271.3086
179.7506, 308.3994
180.2327, 322.0049
180.7148, 293.9150
181.1969, 260.5732
181.6791, 240.1211
182.1612, 230.9551
182.6433, 158.8213
183.1254, 240.9678
183.6075, 287.2695
184.0896, 298.3252
184.5718, 171.6201
185.0539, 222.0293
185.5360, 201.4717
186.0181, 178.0107
186.5002, 253.3721
186.9823, 146.6553
187.4645, 220.4639
187.9466, 222.2217
188.4287, 256.9678
188.9108, 220.3066
189.3929, 205.7090
189.8750, 262.5557
190.3572, 279.8555
190.8393, 235.0010
191.3214, 271.9141
191.8035, 162.7754
192.2856, 181.7842
192.7677, 256.0889
193.2499, 214.8545
193.7320, 184.7061
194.2141, 167.6211
194.6962, 162.5156
195.1783, 187.8311
195.6604, 204.3311
196.1426, 204.6621
196.6247, 197.8066
197.1068, 194.7158
197.5889, 200.5029
198.0710, 212.1367
198.5531, 219.2637
199.0353, 231.9531
199.5174, 229.3701
199.9995, 190.1426
200.4816, 134.8398
200.9637, 101.4824
201.4458, 113.0986
201.9280, 157.1514
202.4101, 174.6016
202.8922, 144.6553
203.3743, 117.2500
203.8564, 111.4980
204.3385, 123.4268
204.8207, 140.6484
205.3028, 157.0928
205.7849, 172.8311
206.2670, 188.2861
206.7491, 206.5361
207.2312, 221.9502
207.7134, 234.9375
208.1955, 244.3398
208.6776, 240.7725
209.1597, 212.8965
209.6418, 166.0459
210.1239, 127.1260
210.6061, 91.61426
211.0882, 67.89648
211.5703, 65.02246
212.0524, 83.56250
212.5345, 113.3594
213.0166, 159.6436
213.4988, 212.0371
213.9809, 240.7773
214.4630, 229.2598
214.9451, 196.3574
215.4272, 159.4082
215.9094, 114.5225
216.3915, 83.16602
216.8736, 98.47363
217.3557, 139.2051
217.8378, 165.8838
218.3199, 150.4219
218.8021, 115.6953
219.2842, 110.8975
219.7663, 152.7686
220.2484, 185.9453
220.7305, 161.5732
221.2126, 102.3828
221.6948, 54.18262
222.1769, 42.48242
222.6590, 58.59180
223.1411, 77.75488
223.6232, 105.4756
224.1053, 126.3193
224.5875, 135.6533
225.0696, 133.2012
225.5517, 117.3125
226.0338, 70.67773
226.5159, 3.375977
226.9980, 20.98047
227.4802, 32.15039
227.9623, 85.86914
228.4444, 102.9746
228.9265, 90.00488
229.4086, 65.90820
229.8907, 36.94141
230.3729, 4.113281
230.8550, 11.56543
231.3371, 0.2988280
231.8192, 20.24414
232.3013, 46.20312
232.7834, 74.04199
233.2656, 94.11426
233.7477, 96.08984
234.2298, 79.30469
234.7119, 65.41309
235.1940, 57.46191
235.6761, 50.39746
236.1583, 42.43945
236.6404, 32.39453
237.1225, 22.58008
237.6046, 18.56934
238.0867, 21.76465
238.5688, 21.17773
239.0510, 14.29004
239.5331, 5.528320
240.0152, 9.285156
240.4973, 26.30664
240.9794, 34.03125
241.4615, 16.68457
241.9437, 33.44238
242.4258, 61.92188
242.9079, 48.79492
243.3900, 31.26172
243.8721, 24.10547
244.3542, 27.16895
244.8364, 31.62305
245.3185, 26.88184
245.8006, 8.565430
246.2827, 2.650391
246.7648, 25.89941
247.2469, 46.31934
247.7291, 43.74219
248.2112, 21.54688
248.6933, 0.3271480
249.1754, 3.496094
249.6575, 39.82910
250.1397, 63.16016
250.6218, 67.66309
251.1039, 66.15039
251.5860, 62.81055
252.0681, 58.99609
252.5502, 55.27344
253.0324, 51.81934
253.5145, 49.21191
253.9966, 42.97949
254.4787, 25.62793
254.9608, 11.63867
255.4429, 12.68262
255.9251, 26.40137
256.4072, 38.87207
256.8893, 34.54297
257.3714, 7.486328
257.8535, 11.63379
258.3356, 25.62891
258.8177, 32.25195
259.2999, 25.81836
259.7820, 8.829102
260.2641, 8.425781
260.7462, 14.21387
261.2283, 3.357422
261.7104, 4.211914
262.1926, 30.41602
262.6747, 54.37891
263.1568, 58.63086
263.6389, 44.84082
264.1210, 27.75586
264.6031, 22.75977
265.0853, 34.12793
265.5674, 35.83398
266.0495, 18.44141
266.5316, 1.636719
267.0138, 4.632813
267.4959, 0.2792970
267.9780, 10.13770
268.4601, 23.62402
268.9422, 42.29980
269.4243, 49.29297
269.9065, 34.12695
270.3886, 20.80859
270.8707, 19.97070
271.3528, 28.03613
271.8349, 37.33691
272.3170, 37.92773
272.7992, 26.53027
273.2813, 35.31934
273.7634, 88.54590
274.2455, 135.2285
274.7276, 147.4873
275.2097, 130.0117
275.6919, 106.2236
276.1740, 96.35352
276.6561, 102.3789
277.1382, 93.31543
277.6203, 46.73438
278.1024, 9.992188
278.5846, 10.91797
279.0667, 41.12305
279.5488, 71.95410
280.0309, 81.62402
280.5130, 68.73730
280.9951, 62.55762
281.4773, 70.26172
281.9594, 75.41602
282.4415, 67.29199
282.9236, 51.08789
283.4057, 40.58008
283.8878, 45.99707
284.3700, 66.28711
284.8521, 78.16699
285.3342, 77.46094
285.8163, 76.34863
286.2984, 78.54883
286.7805, 82.56250
287.2627, 85.36523
287.7448, 84.96680
288.2269, 82.08301
288.7090, 81.77246
289.1911, 84.86816
289.6732, 90.37305
290.1554, 104.6553
290.6375, 120.6982
291.1196, 126.2891
291.6017, 114.4258
292.0838, 87.87891
292.5659, 59.11328
293.0481, 7.729492
293.5302, 22.15723
294.0123, 16.45312
294.4944, 13.59180
294.9765, 57.98145
295.4586, 113.5264
295.9408, 169.9141
296.4229, 193.6396
296.9050, 141.5088
297.3871, 105.7930
297.8692, 101.8535
298.3513, 113.7422
298.8335, 126.0127
299.3156, 133.4912
299.7977, 134.9727
300.2798, 127.3779
300.7619, 99.22852
301.2440, 76.18457
301.7262, 59.46387
302.2083, 47.39453
302.6904, 38.78516
303.1725, 33.33496
303.6546, 30.66797
304.1367, 30.04102
304.6189, 28.49902
305.1010, 34.85840
305.5831, 58.97363
306.0652, 84.39941
306.5473, 97.47070
307.0294, 95.50098
307.5116, 85.68164
307.9937, 78.59082
308.4758, 78.64355
308.9579, 70.35254
309.4400, 37.36133
309.9221, 9.553711
310.4043, 11.42090
310.8864, 42.46289
311.3685, 79.70801
311.8506, 97.59570
312.3327, 90.86914
312.8148, 84.75391
313.2970, 83.33789
313.7791, 78.83691
314.2612, 59.73730
314.7433, 31.72363
315.2254, 14.73145
315.7076, 31.03418
316.1897, 85.71680
316.6718, 112.2246
317.1539, 84.23242
317.6360, 56.04883
318.1181, 44.38672
318.6003, 45.90918
319.0824, 50.40625
319.5645, 50.82031
320.0466, 47.36621
320.5287, 42.85059
321.0108, 29.37500
321.4930, 24.04492
321.9751, 38.44727
322.4572, 62.25586
322.9393, 79.08789
323.4214, 78.71777
323.9035, 65.18262
324.3857, 54.33398
324.8678, 44.54688
325.3499, 40.59570
325.8320, 53.06348
326.3141, 67.43750
326.7962, 62.76562
327.2784, 27.60254
327.7605, 17.35449
328.2426, 23.13086
328.7247, 35.19629
329.2068, 78.51953
329.6889, 83.65234
330.1711, 73.57520
330.6532, 64.41602
331.1353, 60.92188
331.6174, 62.96582
332.0995, 73.48926
332.5816, 96.64746
333.0638, 110.5488
333.5459, 102.0391
334.0280, 89.38867
334.5101, 85.75195
334.9922, 92.45898
335.4743, 95.38574
335.9565, 76.27637
336.4386, 34.34766
336.9207, 0.2578130
337.4028, 27.09570
337.8849, 39.82422
338.3671, 25.38574
338.8492, 11.35156
339.3313, 43.41699
339.8134, 46.79688
340.2955, 27.41797
340.7776, 18.68262
341.2598, 29.53320
341.7419, 39.56934
342.2240, 32.90918
342.7061, 14.98535
343.1882, 0.2412110
343.6703, 4.800781
344.1525, 2.275391
344.6346, 4.249023
345.1167, 15.64453
345.5988, 28.00293
346.0809, 37.46680
346.5630, 46.37109
347.0452, 59.72949
347.5273, 87.29590
348.0094, 112.3447
348.4915, 110.5605
348.9736, 81.25000
349.4557, 56.53809
349.9379, 53.19336
350.4200, 64.93457
350.9021, 78.27637
351.3842, 95.92480
351.8663, 108.1689
352.3484, 103.8164
352.8306, 85.79688
353.3127, 72.21777
353.7948, 70.46484
354.2769, 75.48047
354.7590, 77.64160
355.2411, 75.10791
355.7233, 76.04443
356.2054, 91.31592
356.6875, 110.3999
357.1696, 112.1494
357.6517, 89.20215
358.1339, 58.74023
358.6160, 41.94922
359.0981, 39.24121
359.5802, 46.96777
360.0623, 77.89111
360.5444, 111.2231
361.0266, 127.7715
361.5087, 125.2480
361.9908, 110.1211
362.4729, 84.90869
362.9550, 47.26953
363.4371, 28.09180
363.9193, 39.61084
364.4014, 56.60254
364.8835, 68.07227
365.3656, 73.71094
365.8477, 77.09326
366.3298, 81.25244
366.8120, 85.07910
367.2941, 77.46240
367.7762, 35.54541
368.2583, 8.885254
368.7404, 18.83643
369.2225, 48.23193
369.7047, 73.06934
370.1868, 82.35596
370.6689, 80.64893
371.1510, 79.27295
371.6331, 79.99512
372.1152, 78.03320
372.5974, 65.47754
373.0795, 54.44385
373.5616, 58.92090
374.0437, 80.64307
374.5258, 106.7451
375.0079, 120.4409
375.4901, 118.9424
375.9722, 112.7686
376.4543, 90.46436
376.9364, 73.54248
377.4185, 79.10303
377.9006, 101.9355
378.3828, 120.5625
378.8649, 113.6709
379.3470, 82.92236
379.8291, 62.86621
380.3112, 56.73486
380.7933, 58.38525
381.2755, 71.20752
381.7576, 88.57520
382.2397, 98.98975
382.7218, 95.35449
383.2039, 83.02002
383.6860, 72.12305
384.1682, 61.16992
384.6503, 56.31885
385.1324, 67.89844
385.6145, 81.72754
386.0966, 86.26025
386.5787, 79.77783
387.0609, 69.34424
387.5430, 61.55176
388.0251, 56.59912
388.5072, 58.97021
388.9893, 79.33252
389.4714, 97.22656
389.9536, 83.75000
390.4357, 37.25049
390.9178, 6.6895001E-02
391.3999, 3.410645
391.8820, 15.06152
392.3641, 34.08252
392.8463, 53.98633
393.3284, 69.17188
393.8105, 65.22803
394.2926, 44.19531
394.7747, 41.60742
395.2568, 87.85303
395.7390, 134.4976
396.2211, 133.4150
396.7032, 90.69482
397.1853, 53.99023
397.6674, 57.48828
398.1495, 93.55908
398.6317, 109.5723
399.1138, 88.73877
399.5959, 71.01855
400.0780, 75.73730
400.5601, 90.14307
401.0422, 90.31299
401.5244, 66.14307
402.0065, 30.81250
402.4886, 10.85645
402.9707, 13.08350
403.4528, 22.02246
403.9349, 49.64990
404.4171, 75.74951
404.8992, 79.78418
405.3813, 61.50635
405.8634, 41.32959
406.3455, 44.73096
406.8276, 77.61865
407.3098, 93.42529
407.7919, 74.14844
408.2740, 57.25830
408.7561, 60.63525
409.2383, 76.41406
409.7204, 84.58301
410.2025, 69.12939
410.6846, 40.03809
411.1667, 40.40820
411.6488, 97.59863
412.1310, 131.6382
412.6131, 101.5273
413.0952, 48.48975
413.5773, 13.42236
414.0594, 8.945313
414.5415, 20.67041
415.0237, 36.59424
415.5058, 57.22217
415.9879, 66.72266
416.4700, 52.28467
416.9521, 34.54004
417.4342, 34.64746
417.9164, 51.85400
418.3985, 64.24316
418.8806, 52.15967
419.3627, 28.35156
419.8448, 23.49072
420.3269, 44.42920
420.8091, 65.49658
421.2912, 61.28125
421.7733, 39.12207
422.2554, 31.02539
422.7375, 59.68555
423.2196, 87.48193
423.7018, 82.23389
424.1839, 50.85107
424.6660, 23.52881
425.1481, 15.19824
425.6302, 20.68555
426.1123, 26.42920
426.5945, 35.26709
427.0766, 41.38330
427.5587, 39.17188
428.0408, 35.56934
428.5229, 40.67285
429.0050, 56.26074
429.4872, 73.40771
429.9693, 80.61279
430.4514, 75.55176
430.9335, 68.19043
431.4156, 55.81250
431.8977, 44.21191
432.3799, 37.24023
432.8620, 33.46924
433.3441, 29.03516
433.8262, 22.59814
434.3083, 15.05225
434.7904, 11.05029
435.2726, 10.76514
435.7547, 14.23096
436.2368, 25.65479
436.7189, 38.21729
437.2010, 41.76660
437.6831, 32.61182
438.1653, 25.58789
438.6474, 47.24805
439.1295, 100.8867
439.6116, 132.8594
440.0937, 123.5269
440.5758, 100.0234
441.0580, 79.76904
441.5401, 63.44189
442.0222, 51.63965
442.5043, 47.06592
442.9864, 46.69189
443.4685, 48.72949
443.9507, 55.42969
444.4328, 57.63086
444.9149, 46.37939
445.3970, 25.79834
445.8791, 10.85156
446.3612, 4.013184
446.8434, 6.126953
447.3255, 26.95459
447.8076, 78.52002
448.2897, 105.8057
448.7718, 90.64453
449.2539, 49.95996
449.7361, 11.47412
450.2182, 35.94043
450.7003, 55.86035
451.1824, 24.80713
451.6645, 18.77148
452.1466, 48.48291
452.6288, 60.53125
453.1109, 60.55371
453.5930, 51.18555
454.0751, 32.36768
454.5572, 23.23486
455.0393, 34.79297
455.5215, 44.49756
456.0036, 47.38916
456.4857, 45.79736
456.9678, 42.25635
457.4499, 37.57129
457.9320, 34.18408
458.4142, 36.88770
458.8963, 47.04443
459.3784, 58.00684
459.8605, 78.29102
460.3426, 90.78174
460.8247, 79.49023
461.3069, 46.69189
461.7890, 16.05225
462.2711, 5.206543
462.7532, 7.859863
463.2353, 5.103516
463.7174, 6.844238
464.1996, 13.04883
464.6817, 2.791992
465.1638, 30.97803
465.6459, 46.97852
466.1280, 37.15430
466.6101, 27.49658
467.0923, 39.20166
467.5744, 64.60645
468.0565, 82.40039
468.5386, 84.88818
469.0207, 77.16260
469.5028, 65.97803
469.9850, 45.32227
470.4671, 37.43652
470.9492, 59.20654
471.4313, 81.94189
471.9134, 82.11230
472.3955, 61.61670
472.8777, 37.65625
473.3598, 23.03760
473.8419, 17.42969
474.3240, 17.49268
474.8061, 33.52686
475.2882, 42.59033
475.7704, 32.09521
476.2525, 16.80469
476.7346, 15.48145
477.2167, 34.17090
477.6988, 57.44092
478.1809, 64.07129
478.6631, 52.39014
479.1452, 38.99658
479.6273, 21.06934
480.1094, 6.950684
480.5916, 3.804688
481.0737, 9.210938
481.5558, 14.08740
482.0379, 8.876953
482.5200, 2.820313
483.0021, 15.53418
483.4843, 47.90430
483.9664, 71.31396
484.4485, 66.63232
484.9306, 45.73389
485.4127, 39.22852
485.8948, 54.73389
486.3770, 68.27100
486.8591, 73.26660
487.3412, 70.88379
487.8233, 60.54688
488.3054, 42.60742
488.7875, 22.59912
489.2697, 5.164063
489.7518, 11.18115
490.2339, 13.12354
490.7160, 14.27197
491.1981, 37.80420
491.6802, 38.87012
492.1624, 28.30518
492.6445, 27.48682
493.1266, 47.79883
493.6087, 77.27783
494.0908, 88.34570
494.5729, 73.32617
495.0551, 62.06348
495.5372, 65.48096
496.0193, 68.70996
496.5014, 58.97363
496.9835, 38.75586
497.4656, 22.48779
497.9478, 26.95117
498.4299, 42.16260
498.9120, 36.37793
499.3941, 3.306152
499.8762, 23.36621
500.3583, 19.28467
500.8405, 3.507324
501.3226, 15.84814
501.8047, 7.697266
502.2868, 3.566406
502.7689, 20.69189
503.2510, 49.19385
503.7332, 71.22656
504.2153, 81.60352
504.6974, 84.69336
505.1795, 85.75439
505.6616, 83.41748
506.1437, 79.82178
506.6259, 68.74707
507.1080, 62.71436
507.5901, 74.98291
508.0722, 93.20801
508.5543, 95.97852
509.0364, 73.09229
509.5186, 40.76123
510.0007, 39.87354
510.4828, 88.08691
510.9649, 121.8506
511.4470, 130.4180
511.9291, 123.4961
512.4113, 96.20312
512.8934, 53.85791
513.3755, 23.01660
513.8576, 30.80615
514.3397, 62.75146
514.8218, 77.87988
515.3040, 72.38281
515.7861, 68.49951
516.2682, 82.45166
516.7503, 104.8442
517.2324, 113.3848
517.7145, 100.7627
518.1967, 87.04590
518.6788, 81.96240
519.1609, 81.06885
519.6430, 76.48926
520.1251, 66.44287
520.6072, 56.49512
521.0894, 52.19971
521.5715, 53.55713
522.0536, 56.27051
522.5357, 68.72998
523.0178, 75.44971
523.4999, 61.34570
523.9821, 40.61719
524.4642, 39.67871
524.9463, 70.44580
525.4284, 109.4243
525.9105, 108.6797
526.3926, 54.39111
526.8748, 27.45166
527.3569, 64.06201
527.8390, 104.4873
528.3211, 111.5186
528.8032, 91.28711
529.2853, 71.74072
529.7675, 66.84570
530.2496, 69.83740
530.7317, 72.79688
531.2138, 75.61621
531.6959, 74.84766
532.1780, 66.72803
532.6602, 56.50000
533.1423, 58.05127
533.6244, 79.80225
534.1065, 87.08594
534.5886, 52.36865
535.0707, 14.24219
535.5529, 16.10010
536.0350, 55.43311
536.5171, 92.79541
536.9992, 96.67822
537.4813, 71.83398
537.9634, 59.20508
538.4456, 73.20166
538.9277, 79.52686
539.4098, 68.82520
539.8919, 50.97803
540.3740, 32.21338
540.8561, 14.98828
541.3383, 4.358398
541.8204, 6.711426
542.3025, 20.69287
542.7846, 37.45410
543.2667, 57.23535
543.7488, 78.20215
544.2310, 109.6948
544.7131, 139.9424
545.1952, 141.6353
545.6773, 89.33740
546.1594, 40.35596
546.6415, 35.82520
547.1237, 57.35840
547.6058, 66.42822
548.0879, 53.69336
548.5700, 33.10498
549.0521, 18.03369
549.5342, 7.404297
550.0164, 10.58740
550.4985, 51.43506
550.9806, 78.33008
551.4627, 62.20801
551.9448, 22.55908
552.4269, 12.75879
552.9091, 32.06055
553.3912, 33.87939
553.8733, 7.903320
554.3554, 52.38770
554.8375, 91.30225
555.3196, 93.22803
555.8018, 82.43262
556.2839, 69.79297
556.7660, 57.64307
557.2481, 53.17236
557.7302, 65.32764
558.2123, 80.14160
558.6945, 82.75391
559.1766, 73.52344
559.6587, 58.13135
560.1408, 35.94336
560.6229, 14.35938
561.1050, 10.06006
561.5872, 31.88281
562.0693, 47.19385
562.5514, 46.20215
563.0335, 47.08154
563.5156, 69.85547
563.9977, 103.6455
564.4799, 118.9990
564.9620, 97.49365
565.4441, 54.94727
565.9262, 32.03320
566.4083, 34.64697
566.8904, 39.33350
567.3726, 42.79199
567.8547, 47.09131
568.3368, 55.50244
568.8189, 66.75586
569.3010, 74.08594
569.7831, 76.01025
570.2653, 70.95264
570.7474, 49.01611
571.2295, 12.15967
571.7116, 6.669434
572.1937, 12.39111
572.6758, 49.68701
573.1580, 64.58691
573.6401, 46.58740
574.1222, 36.08887
574.6043, 43.68799
575.0864, 54.63281
575.5685, 57.34180
576.0507, 53.20703
576.5328, 50.54590
577.0149, 55.00732
577.4970, 64.12891
577.9791, 70.40527
578.4612, 74.24121
578.9434, 74.15918
579.4255, 63.50049
579.9076, 53.58691
580.3897, 54.36719
580.8718, 64.55566
581.3539, 71.31885
581.8361, 65.92334
582.3182, 53.50781
582.8003, 40.56641
583.2824, 27.31836
583.7645, 15.43213
584.2467, 3.837402
584.7288, 3.361328
585.2109, 5.421875
585.6931, 43.23730
586.1752, 64.60596
586.6573, 52.41064
587.1394, 33.13330
587.6215, 26.46143
588.1036, 30.59473
588.5858, 32.84912
589.0679, 24.69922
589.5500, 10.38135
590.0321, 1.601563
590.5142, 2.422363
590.9963, 1.657715
591.4785, 27.18799
591.9606, 51.14160
592.4427, 56.15625
592.9248, 43.69238
593.4069, 29.41211
593.8890, 15.24561
594.3712, 6.434570
594.8533, 14.84424
595.3354, 37.52295
595.8175, 51.85107
596.2996, 46.42480
596.7817, 31.67139
597.2639, 27.61865
597.7460, 41.14258
598.2281, 49.95459
598.7102, 50.72266
599.1923, 49.79004
599.6744, 49.87744
600.1566, 51.38037
600.6387, 55.38965
601.1208, 63.29395
601.6029, 70.18311
602.0850, 63.54883
602.5671, 40.15039
603.0493, 23.94434
603.5314, 24.18164
604.0135, 26.67139
604.4956, 15.78662
604.9777, 3.973633
605.4598, 11.64795
605.9420, 15.32422
606.4241, 42.65283
606.9062, 35.16455
607.3883, 5.195313
607.8704, 10.28174
608.3525, 2.250488
608.8347, 25.21533
609.3168, 33.34180
609.7989, 22.39941
610.2810, 13.68164
610.7631, 1.006348
611.2452, 3.155273
611.7274, 13.04053
612.2095, 38.88037
612.6916, 60.36475
613.1737, 72.67432
613.6558, 76.40576
614.1379, 67.97363
614.6201, 49.34570
615.1022, 40.05762
615.5843, 47.20801
616.0664, 50.50684
616.5485, 24.55078
617.0306, 18.94727
617.5128, 30.85938
617.9949, 25.62842
618.4770, 72.52100
618.9591, 69.45557
619.4412, 45.28027
619.9233, 42.35645
620.4055, 66.36572
620.8876, 85.73926
621.3697, 65.23633
621.8518, 9.023926
622.3339, 11.42285
622.8160, 28.01660
623.2982, 63.58936
623.7803, 80.05371
624.2624, 84.74072
624.7445, 80.59229
625.2266, 68.38086
625.7087, 60.62793
626.1909, 69.90820
626.6730, 86.69238
627.1551, 95.53369
627.6372, 95.72949
628.1193, 90.11279
628.6014, 78.54102
629.0836, 64.58643
629.5657, 57.51416
630.0478, 63.09424
630.5299, 66.96289
631.0120, 64.15967
631.4941, 63.87500
631.9763, 75.61377
632.4584, 94.99805
632.9405, 109.4678
633.4226, 111.2583
633.9047, 106.1567
634.3868, 104.9331
634.8690, 107.7969
635.3511, 111.4829
635.8332, 118.3970
636.3153, 121.5581
636.7974, 106.3052
637.2795, 78.10791
637.7617, 68.64160
638.2438, 110.9175
638.7259, 144.0181
639.2080, 122.6646
639.6901, 72.76807
640.1722, 38.01025
640.6544, 30.85498
641.1365, 39.40723
641.6186, 50.81104
642.1007, 65.15186
642.5828, 80.00293
643.0649, 101.9204
643.5471, 114.2915
644.0292, 105.3125
644.5113, 88.44727
644.9934, 76.69092
645.4755, 72.01025
645.9576, 76.58252
646.4398, 99.21143
646.9219, 128.9902
647.4040, 149.3745
647.8861, 159.0493
648.3682, 157.9448
648.8503, 144.6396
649.3325, 123.4087
649.8146, 111.3843
650.2967, 118.4087
650.7788, 121.8774
651.2609, 121.7393
651.7430, 118.8452
652.2252, 111.4194
652.7073, 101.3560
653.1894, 92.11719
653.6715, 83.85352
654.1536, 79.42725
654.6357, 88.60059
655.1179, 109.7012
655.6000, 120.7676
656.0821, 115.3223
656.5642, 104.3853
657.0463, 97.17188
657.5284, 93.63867
658.0106, 89.95117
658.4927, 82.36279
658.9748, 79.01953
659.4569, 84.82471
659.9390, 95.25684
660.4211, 105.5894
660.9033, 114.5835
661.3854, 122.9946
661.8675, 132.7744
662.3496, 142.5610
662.8317, 141.4473
663.3138, 122.7656
663.7960, 115.1284
664.2781, 142.6792
664.7602, 174.4224
665.2423, 168.6543
665.7244, 121.6904
666.2065, 87.09863
666.6887, 89.37549
667.1708, 102.7300
667.6529, 105.3159
668.1350, 101.0181
668.6171, 106.1006
669.0992, 127.6343
669.5814, 151.5581
670.0635, 152.6079
670.5456, 124.6978
671.0277, 105.4951
671.5098, 102.8657
671.9919, 99.13672
672.4741, 76.22949
672.9562, 51.62305
673.4383, 56.30615
673.9204, 105.1108
674.4025, 148.4966
674.8846, 147.7402
675.3668, 122.8018
675.8489, 106.0288
676.3310, 99.25488
676.8131, 94.54199
677.2952, 83.62061
677.7773, 69.49609
678.2595, 70.99170
678.7416, 106.9058
679.2237, 122.8691
679.7058, 96.57129
680.1879, 69.93799
680.6700, 70.51611
681.1522, 89.86768
681.6343, 102.2949
682.1164, 92.55566
682.5985, 80.72021
683.0806, 95.43848
683.5627, 126.3726
684.0449, 136.1792
684.5270, 115.9751
685.0091, 90.45996
685.4912, 81.55273
685.9733, 87.38770
686.4554, 85.44727
686.9376, 58.63770
687.4197, 46.44775
687.9018, 62.81152
688.3839, 88.08398
688.8660, 114.5112
689.3481, 135.9668
689.8303, 136.6016
690.3124, 93.16357
690.7945, 35.64111
691.2766, 20.46484
691.7587, 43.58350
692.2408, 58.98926
692.7230, 52.69482
693.2051, 37.11182
693.6872, 23.88477
694.1693, 12.53564
694.6514, 11.63477
695.1335, 34.10693
695.6157, 53.24170
696.0978, 51.72363
696.5799, 43.21875
697.0620, 45.26758
697.5441, 59.36475
698.0262, 69.85400
698.5084, 56.73096
698.9905, 31.53369
699.4726, 32.75586
699.9547, 62.08936
700.4368, 78.48096
700.9189, 63.41162
701.4011, 34.51025
701.8832, 15.66309
702.3653, 7.801270
702.8474, 7.630371
703.3295, 24.56689
703.8116, 38.97266
704.2938, 45.08203
704.7759, 42.40430
705.2580, 25.39307
705.7401, 5.366699
706.2222, 30.10449
706.7043, 20.00977
707.1865, 14.72119
707.6686, 27.44141
708.1507, 14.87549
708.6328, 0.4228520
709.1149, 7.002441
709.5970, 9.515625
710.0792, 11.60986
710.5613, 15.68066
711.0434, 10.42236
711.5255, 11.05811
712.0076, 35.69873
712.4897, 63.52832
712.9719, 88.05518
713.4540, 95.10791
713.9361, 80.48535
714.4182, 61.74316
714.9003, 58.83691
715.3824, 69.27100
715.8646, 80.34668
716.3467, 92.79688
716.8288, 102.2832
717.3109, 108.2812
717.7930, 108.5308
718.2751, 94.73535
718.7573, 59.37891
719.2394, 35.38672
719.7215, 30.10107
720.2036, 32.49854
720.6857, 41.24658
721.1678, 51.88477
721.6500, 57.39404
722.1321, 54.93604
722.6142, 48.42578
723.0963, 39.29492
723.5784, 29.36377
724.0605, 29.93018
724.5427, 43.09961
725.0248, 56.70264
725.5070, 66.05322
725.9891, 70.31885
726.4712, 66.26172
726.9533, 47.39307
727.4354, 37.07959
727.9175, 44.26123
728.3997, 52.55664
728.8818, 53.70117
729.3639, 49.36426
729.8460, 43.74658
730.3281, 38.57129
730.8102, 31.92822
731.2924, 16.37256
731.7745, 2.732422
732.2566, 1.9530000E-03
732.7387, 28.68311
733.2208, 44.72021
733.7029, 20.82422
734.1851, 19.36719
734.6672, 22.31738
735.1493, 41.80322
735.6314, 74.49902
736.1135, 48.18506
736.5956, 19.63672
737.0778, 15.97021
737.5599, 28.47705
738.0420, 41.05859
738.5241, 48.49170
739.0062, 52.39258
739.4883, 55.59180
739.9705, 55.99854
740.4526, 42.02783
740.9347, 14.09961
741.4168, 5.724609
741.8989, 38.94092
742.3810, 89.44141
742.8632, 108.3428
743.3453, 82.00977
743.8274, 62.06299
744.3095, 50.20166
744.7916, 42.56738
745.2737, 39.29346
745.7559, 38.63916
746.2380, 38.75879
746.7201, 39.27686
747.2022, 39.91992
747.6843, 41.60889
748.1664, 43.26855
748.6486, 38.05762
749.1307, 27.50049
749.6128, 35.02686
750.0949, 74.78076
750.5770, 120.3755
751.0591, 127.4751
751.5413, 89.05225
752.0234, 51.24854
752.5055, 4.074219
752.9876, 33.19971
753.4697, 4.187988
753.9518, 45.86963
754.4340, 77.12646
754.9161, 83.89551
755.3982, 83.75293
755.8803, 84.98584
756.3624, 82.68115
756.8445, 68.59717
757.3267, 47.58398
757.8088, 32.59863
758.2909, 28.07422
758.7730, 30.86523
759.2551, 38.87500
759.7372, 51.91797
760.2194, 56.06396
760.7015, 44.68262
761.1836, 40.57666
761.6657, 61.00098
762.1478, 84.66650
762.6299, 85.32080
763.1121, 62.72363
763.5942, 45.65137
764.0763, 44.61719
764.5584, 46.60352
765.0405, 42.47266
765.5226, 35.40479
766.0048, 34.73047
766.4869, 41.67188
766.9690, 47.93457
767.4511, 43.32959
767.9332, 31.32959
768.4153, 30.88379
768.8975, 44.43604
769.3796, 46.56104
769.8617, 22.68115
770.3438, 1.598145
770.8259, 3.549316
771.3080, 38.00342
771.7902, 58.88623
772.2723, 59.93018
772.7544, 51.70996
773.2365, 24.74463
773.7186, 0.4594730
774.2007, 0.2446290
774.6829, 20.87500
775.1650, 35.77686
775.6471, 24.60498
776.1292, 7.001953
776.6113, 14.44238
777.0934, 38.87744
777.5756, 46.58691
778.0577, 30.66113
778.5398, 12.86426
779.0219, 9.431641
779.5040, 18.06689
779.9861, 28.81152
780.4683, 44.85156
780.9504, 56.72705
781.4325, 60.05078
781.9146, 62.99902
782.3967, 72.17578
782.8788, 83.79883
783.3610, 89.48486
783.8431, 87.12402
784.3252, 77.76660
784.8073, 49.41650
785.2894, 21.76807
785.7715, 30.57373
786.2537, 67.42480
786.7358, 85.81982
787.2179, 60.66895
787.7000, 19.66504
788.1821, 15.42920
788.6642, 51.42627
789.1464, 71.35791
789.6285, 68.53271
790.1106, 62.05127
790.5927, 59.06787
791.0748, 58.54053
791.5569, 59.12988
792.0391, 59.91992
792.5212, 59.53613
793.0033, 61.76465
793.4854, 60.53076
793.9675, 49.59473
794.4496, 35.23242
794.9318, 27.93994
795.4139, 29.75098
795.8960, 31.83643
796.3781, 22.86182
796.8602, 9.927246
797.3423, 11.62500
797.8245, 26.40820
798.3066, 37.49268
798.7887, 39.76270
799.2708, 35.89600
799.7529, 26.80957
800.2350, 12.69287
800.7172, 14.30713
801.1993, 52.30566
801.6814, 73.71094
802.1635, 54.03516
802.6456, 30.23291
803.1277, 35.37500
803.6099, 62.45557
804.0920, 75.18701
804.5741, 54.33105
805.0562, 26.68701
805.5383, 0.3422850
806.0204, 17.08008
806.5026, 8.606934
806.9847, 22.41504
807.4668, 51.95264
807.9489, 64.90967
808.4310, 66.58789
808.9131, 69.30859
809.3953, 73.71777
809.8774, 62.65039
810.3595, 25.71045
810.8416, 4.331055
811.3237, 2.509766
811.8058, 29.96387
812.2880, 37.14502
812.7701, 12.91406
813.2522, 3.725586
813.7343, 28.35693
814.2164, 50.89697
814.6985, 49.70459
815.1807, 37.11963
815.6628, 33.01611
816.1449, 42.00098
816.6270, 52.15039
817.1091, 52.68750
817.5912, 50.15186
818.0734, 56.61377
818.5555, 69.13965
819.0376, 75.16846
819.5197, 70.70068
820.0018, 61.68604
820.4839, 54.81641
820.9661, 49.45898
821.4482, 37.30078
821.9303, 12.82617
822.4124, 2.289063
822.8945, 3.261230
823.3766, 12.62012
823.8588, 5.832520
824.3409, 11.05322
824.8230, 10.00586
825.3051, 36.88818
825.7872, 68.52832
826.2693, 52.64258
826.7515, 25.99756
827.2336, 25.36084
827.7157, 43.48535
828.1978, 45.86621
828.6799, 14.23438
829.1620, 17.97607
829.6442, 5.584961
830.1263, 36.50586
830.6084, 68.08203
831.0905, 86.24707
831.5726, 91.79590
832.0547, 85.89209
832.5369, 74.30322
833.0190, 65.68262
833.5011, 60.72900
833.9832, 52.65967
834.4653, 36.72656
834.9474, 26.94141
835.4296, 34.52539
835.9117, 46.66553
836.3938, 49.52441
836.8759, 43.01416
837.3580, 41.06641
837.8401, 51.17188
838.3223, 61.62305
838.8044, 70.03125
839.2865, 73.56055
839.7686, 61.87842
840.2507, 39.71191
840.7328, 32.49170
841.2150, 62.79541
841.6971, 102.2271
842.1792, 103.2173
842.6613, 73.59717
843.1434, 47.96289
843.6255, 31.39209
844.1077, 21.13867
844.5898, 15.33447
845.0719, 14.17529
845.5540, 19.90527
846.0361, 37.50684
846.5182, 47.03320
847.0004, 36.27734
847.4825, 33.69336
847.9646, 62.16943
848.4467, 99.66455
848.9288, 116.4917
849.4109, 108.6504
849.8931, 101.9663
850.3752, 108.3164
850.8573, 112.6904
851.3394, 99.22314
851.8215, 80.32031
852.3036, 77.35986
852.7858, 92.12158
853.2679, 108.4067
853.7500, 116.6636
854.2321, 116.6875
854.7142, 105.3848
855.1964, 83.92920
855.6785, 69.96777
856.1606, 67.05518
856.6427, 63.25244
857.1248, 49.07275
857.6069, 29.65479
858.0891, 19.92578
858.5712, 20.84863
859.0533, 30.20312
859.5354, 55.92920
860.0175, 77.09668
860.4996, 79.44385
860.9818, 72.32129
861.4639, 70.56592
861.9460, 76.05713
862.4281, 78.65771
862.9102, 72.86914
863.3923, 67.24512
863.8745, 65.39404
864.3566, 67.45850
864.8387, 76.40820
865.3208, 88.83105
865.8029, 88.51221
866.2850, 54.75439
866.7672, 14.13770
867.2493, 6.239258
867.7314, 17.89844
868.2136, 12.03516
868.6957, 15.20898
869.1778, 25.96191
869.6599, 8.252930
870.1420, 67.72217
870.6241, 108.3604
871.1063, 130.7739
871.5884, 123.7935
872.0705, 72.76367
872.5526, 27.83984
873.0347, 15.62939
873.5168, 23.98535
873.9990, 31.86426
874.4811, 39.65674
874.9632, 45.10498
875.4453, 48.40967
875.9274, 49.13965
876.4095, 43.37354
876.8917, 37.39355
877.3738, 37.96338
877.8559, 45.20508
878.3380, 54.05127
878.8201, 62.94873
879.3022, 71.75244
879.7844, 85.08789
880.2665, 95.44531
880.7486, 89.00488
881.2307, 67.99365
881.7128, 48.18311
882.1949, 37.74268
882.6771, 34.94531
883.1592, 39.82275
883.6413, 49.71289
884.1234, 54.13379
884.6055, 48.44922
885.0876, 41.79980
885.5698, 36.94043
886.0519, 35.36133
886.5340, 41.19043
887.0161, 54.88281
887.4982, 51.85791
887.9803, 14.14160
888.4625, 8.213379
888.9446, 4.157227
889.4267, 29.51514
889.9088, 61.20898
890.3909, 93.10449
890.8730, 96.38330
891.3552, 36.16699
891.8373, 6.226563
892.3194, 0.3662110
892.8015, 24.64600
893.2836, 54.92188
893.7657, 83.86182
894.2479, 104.3140
894.7300, 113.8545
895.2121, 112.7578
895.6942, 94.47656
896.1763, 70.06494
896.6584, 54.40381
897.1406, 47.18359
897.6227, 44.41748
898.1048, 44.56250
898.5869, 44.15576
899.0690, 38.69189
899.5511, 31.04785
900.0333, 34.82324
900.5154, 50.86279
900.9975, 51.01807
901.4796, 24.71533
901.9617, 6.415039
902.4438, 22.93848
902.9260, 62.16895
903.4081, 90.55762
903.8902, 109.6724
904.3723, 113.5435
904.8544, 88.89209
905.3365, 65.22266
905.8187, 55.29834
906.3008, 50.37988
906.7829, 39.39062
907.2650, 21.65674
907.7471, 7.822266
908.2292, 5.305664
908.7114, 7.058105
909.1935, 15.41797
909.6756, 46.09473
910.1577, 77.89990
910.6398, 102.4692
911.1219, 95.49023
911.6041, 34.28027
912.0862, 21.52588
912.5683, 3.764160
913.0504, 52.44580
913.5325, 95.94727
914.0146, 121.0479
914.4968, 123.8647
914.9789, 103.2817
915.4610, 76.86133
915.9431, 66.05420
916.4252, 67.80566
916.9073, 64.64258
917.3895, 56.14160
917.8716, 56.97168
918.3537, 72.59180
918.8358, 89.76904
919.3179, 97.30078
919.8000, 97.20752
920.2822, 99.04346
920.7643, 106.9434
921.2464, 106.1577
921.7285, 88.11816
922.2106, 72.23145
922.6927, 76.42920
923.1749, 85.23047
923.6570, 69.66162
924.1391, 21.98438
924.6212, 5.580078
925.1033, 6.248047
925.5854, 26.28467
926.0676, 51.15381
926.5497, 71.11572
927.0318, 78.64502
927.5139, 76.32275
927.9960, 65.30078
928.4781, 38.73389
928.9603, 20.73975
929.4424, 42.46582
929.9245, 73.01953
930.4066, 68.02441
930.8887, 38.65918
931.3708, 25.83984
931.8530, 43.87500
932.3351, 66.77490
932.8172, 64.45068
933.2993, 48.63721
933.7814, 52.85547
934.2635, 72.38428
934.7457, 79.23584
935.2278, 66.74854
935.7099, 48.71338
936.1920, 34.83936
936.6741, 27.05078
937.1563, 32.17285
937.6384, 51.52686
938.1205, 75.86133
938.6026, 110.1943
939.0847, 131.4316
939.5668, 128.7358
940.0490, 106.2119
940.5311, 66.20166
941.0132, 1.740723
941.4953, 26.00488
941.9774, 7.717285
942.4595, 42.01709
942.9417, 64.64258
943.4238, 84.65527
943.9059, 118.9712
944.3880, 156.9502
944.8701, 158.6348
945.3522, 89.88135
945.8344, 43.42090
946.3165, 65.86475
946.7986, 95.09521
947.2807, 85.21240
947.7628, 56.12549
948.2449, 46.54199
948.7271, 62.98145
949.2092, 71.96191
949.6913, 38.79834
950.1734, 5.143066
950.6555, 10.84131
951.1376, 36.96582
951.6198, 58.23926
952.1019, 70.04932
952.5840, 75.46436
953.0661, 76.47412
953.5482, 69.46582
954.0303, 37.04980
954.5125, 3.670410
954.9946, 0.9282230
955.4767, 40.29883
955.9588, 77.99121
956.4409, 97.73486
956.9230, 102.4336
957.4052, 91.52393
957.8873, 71.66211
958.3694, 73.04443
958.8515, 97.20068
959.3336, 110.8887
959.8157, 109.3262
960.2979, 94.64746
960.7800, 62.54102
961.2621, 26.85303
961.7442, 18.81348
962.2263, 45.63086
962.7084, 60.95068
963.1906, 60.88232
963.6727, 56.94531
964.1548, 49.95508
964.6369, 42.93701
965.1190, 37.70410
965.6011, 34.65332
966.0833, 36.39111
966.5654, 48.54980
967.0475, 58.73877
967.5296, 67.69678
968.0117, 71.41016
968.4938, 59.96826
968.9760, 45.53174
969.4581, 49.52051
969.9402, 74.17188
970.4223, 93.09375
970.9044, 99.94775
971.3865, 93.53516
971.8687, 59.71875
972.3508, 22.29785
972.8329, 8.330566
973.3150, 15.09473
973.7971, 23.39355
974.2792, 24.09668
974.7614, 24.56641
975.2435, 26.91455
975.7256, 34.47314
976.2077, 59.52637
976.6898, 90.91895
977.1719, 103.3237
977.6541, 91.44873
978.1362, 70.50732
978.6183, 50.25098
979.1004, 31.25684
979.5825, 12.93164
980.0646, 3.134277
980.5468, 14.02832
981.0289, 18.68555
981.5110, 10.43164
981.9931, 14.58838
982.4752, 38.51025
982.9573, 33.15527
983.4395, 6.096191
983.9216, 5.917969
984.4037, 31.85156
984.8858, 41.63965
985.3679, 23.51562
985.8500, 5.079590
986.3322, 9.439453
986.8143, 26.44971
987.2964, 24.96582
987.7785, 1.019531
988.2606, 14.46191
988.7427, 21.34912
989.2249, 15.18018
989.7070, 12.79395
990.1891, 41.76514
990.6712, 43.19678
991.1533, 18.93164
991.6354, 14.64697
992.1176, 48.67480
992.5997, 63.77441
993.0818, 39.18066
993.5639, 13.83887
994.0460, 11.47070
994.5281, 22.56836
995.0103, 30.12402
995.4924, 35.14600
995.9745, 32.13965
996.4566, 6.314453
996.9387, 8.470703
997.4208, 2.796387
997.9030, 23.23340
998.3851, 44.66016
998.8672, 63.08398
999.3493, 67.06934
999.8314, 52.78320
1000.314, 39.99609
1000.796, 32.41553
1001.278, 29.87500
1001.760, 34.66846
1002.242, 42.92969
1002.724, 46.08594
1003.206, 45.60205
1003.688, 59.91602
1004.170, 120.8076
1004.653, 162.0522
1005.135, 123.3203
1005.617, 65.01025
1006.099, 47.43115
1006.581, 61.25195
1007.063, 75.55225
1007.545, 80.59229
1008.027, 78.75781
1008.510, 68.83838
1008.992, 55.71240
1009.474, 41.40771
1009.956, 28.79248
1010.438, 24.39160
1010.920, 26.98291
1011.402, 29.01953
1011.884, 26.77490
1012.367, 22.42041
1012.849, 15.39990
1013.331, 11.05713
1013.813, 25.63623
1014.295, 50.63721
1014.777, 54.14746
1015.259, 32.45996
1015.741, 19.59033
1016.223, 43.62256
1016.706, 79.91016
1017.188, 82.69434
1017.670, 61.93945
1018.152, 54.84961
1018.634, 62.02148
1019.116, 66.29053
1019.598, 61.43799
1020.080, 52.96631
1020.563, 45.34082
1021.045, 40.35107
1021.527, 47.43408
1022.009, 65.14453
1022.491, 68.83643
1022.973, 54.81006
1023.455, 50.29053
1023.937, 71.17480
1024.419, 95.74268
1024.901, 89.55127
1025.384, 56.11133
1025.866, 36.89160
1026.348, 32.06641
1026.830, 45.72900
1027.312, 84.91895
1027.794, 113.0425
1028.276, 103.4360
1028.758, 70.96777
1029.241, 47.86768
1029.723, 35.43359
1030.205, 19.33154
1030.687, 5.141113
1031.169, 15.86914
1031.651, 3.968750
1032.133, 17.80225
1032.615, 42.45801
1033.098, 65.90479
1033.580, 69.62891
1034.062, 38.98535
1034.544, 34.08984
1035.026, 71.10205
1035.508, 101.8281
1035.990, 110.3135
1036.472, 103.1709
1036.954, 81.80371
1037.437, 49.11426
1037.919, 33.52881
1038.401, 43.08691
1038.883, 53.13623
1039.365, 63.02393
1039.847, 74.91406
1040.329, 96.23877
1040.811, 114.6812
1041.293, 109.8198
1041.776, 80.13086
1042.258, 61.02295
1042.740, 55.79199
1043.222, 56.30078
1043.704, 68.97412
1044.186, 79.80811
1044.668, 74.80420
1045.150, 65.48779
1045.633, 75.07520
1046.115, 107.8511
1046.597, 126.2461
1047.079, 121.7974
1047.561, 112.5078
1048.043, 94.02344
1048.525, 78.16553
1049.007, 78.62109
1049.490, 88.19092
1049.972, 88.24121
1050.454, 72.65723
1050.936, 66.92725
1051.418, 88.84277
1051.900, 103.8999
1052.382, 91.55029
1052.864, 74.51709
1053.346, 74.50781
1053.828, 87.02246
1054.311, 93.60303
1054.793, 88.85889
1055.275, 84.12842
1055.757, 82.86133
1056.239, 80.64746
1056.721, 72.50781
1057.203, 62.22607
1057.685, 57.23193
1058.168, 56.12646
1058.650, 50.13770
1059.132, 27.17285
1059.614, 20.71338
1060.096, 64.50586
1060.578, 102.4756
1061.060, 93.90430
1061.542, 65.27393
1062.025, 45.85547
1062.507, 40.67773
1062.989, 51.90088
1063.471, 98.31787
1063.953, 120.5718
1064.435, 68.90430
1064.917, 13.01318
1065.399, 0.6606450
1065.881, 12.85205
1066.364, 33.93701
1066.846, 56.94385
1067.328, 69.31201
1067.810, 59.47168
1068.292, 49.13330
1068.774, 45.83838
1069.256, 47.29248
1069.738, 54.03271
1070.220, 63.17871
1070.703, 73.04004
1071.185, 82.34668
1071.667, 81.45459
1072.149, 54.40234
1072.631, 31.97266
1073.113, 35.70215
1073.595, 43.40088
1074.077, 29.03906
1074.560, 7.292969
1075.042, 9.993652
1075.524, 42.75879
1076.006, 72.06348
1076.488, 91.32666
1076.970, 93.40479
1077.452, 58.90283
1077.934, 19.33936
1078.417, 0.2319340
1078.899, 0.2944340
1079.381, 13.12354
1079.863, 38.92334
1080.345, 57.10986
1080.827, 52.98926
1081.309, 46.25439
1081.791, 52.08301
1082.273, 55.93408
1082.756, 35.08838
1083.238, 3.501465
1083.720, 3.848145
1084.202, 22.47803
1084.684, 44.73145
1085.166, 40.22656
1085.648, 35.49658
1086.130, 50.31055
1086.613, 66.53467
1087.095, 64.42773
1087.577, 49.71582
1088.059, 38.18945
1088.541, 33.76514
1089.023, 32.38184
1089.505, 33.25537
1089.987, 38.00977
1090.469, 52.63135
1090.952, 67.02686
1091.434, 69.67627
1091.916, 64.61035
1092.398, 62.57568
1092.880, 65.90527
1093.362, 73.23291
1093.844, 95.69141
1094.326, 107.5239
1094.808, 88.63477
1095.291, 59.96484
1095.773, 34.87598
1096.255, 17.50830
1096.737, 13.49805
1097.219, 24.85107
1097.701, 43.13525
1098.183, 88.23828
1098.665, 111.2202
1099.148, 68.30176
1099.630, 14.31396
1100.112, 2.113770
1100.594, 10.08398
1101.076, 19.36426
1101.558, 19.81201
1102.040, 23.80518
1102.522, 38.75049
1103.005, 52.27344
1103.487, 70.13867
1103.969, 77.45752
1104.451, 47.72949
1104.933, 1.220703
1105.415, 10.59814
1105.897, 27.02539
1106.379, 53.60986
1106.861, 54.94238
1107.344, 48.76709
1107.826, 29.89795
1108.308, 15.21484
1108.790, 23.41455
1109.272, 43.93408
1109.754, 51.36377
1110.236, 41.33350
1110.718, 31.31250
1111.200, 16.24219
1111.683, 10.50586
1112.165, 33.24219
1112.647, 50.73047
1113.129, 27.69580
1113.611, 13.39746
1114.093, 18.53662
1114.575, 25.10010
1115.057, 42.96045
1115.540, 11.60107
1116.022, 9.372559
1116.504, 4.919434
1116.986, 5.458984
1117.468, 10.08594
1117.950, 12.73779
1118.432, 23.58057
1118.914, 46.28516
1119.396, 44.32031
1119.879, 7.732910
1120.361, 28.39307
1120.843, 16.08545
1121.325, 57.36279
1121.807, 50.97412
1122.289, 23.03174
1122.771, 19.82275
1123.253, 42.57471
1123.735, 51.74707
1124.218, 43.61084
1124.700, 32.97412
1125.182, 19.04688
1125.664, 11.11670
1126.146, 15.19287
1126.628, 26.10596
1127.110, 37.98047
1127.592, 49.94678
1128.075, 47.51514
1128.557, 27.20459
1129.039, 17.30078
1129.521, 23.10254
1130.003, 27.99658
1130.485, 23.22656
1130.967, 17.72705
1131.449, 23.95020
1131.932, 38.63330
1132.414, 44.56250
1132.896, 41.83008
1133.378, 40.81641
1133.860, 42.59668
1134.342, 43.10840
1134.824, 40.80615
1135.306, 33.87598
1135.788, 18.46240
1136.271, 0.3125000
1136.753, 3.732422
1137.235, 4.210938
1137.717, 14.02393
1138.199, 24.05420
1138.681, 28.87451
1139.163, 26.82617
1139.645, 22.12695
1140.127, 18.35938
1140.610, 14.31592
1141.092, 4.849121
1141.574, 5.650391
1142.056, 2.737305
1142.538, 9.937500
1143.020, 16.95410
1143.502, 15.15576
1143.984, 14.08057
1144.467, 21.47314
1144.949, 27.16602
1145.431, 12.32812
1145.913, 6.700195
1146.395, 4.829590
1146.877, 11.77148
1147.359, 32.89209
1147.841, 52.91406
1148.323, 59.37598
1148.806, 42.68164
1149.288, 28.23975
1149.770, 42.47266
1150.252, 60.74463
1150.734, 59.78711
1151.216, 49.21387
1151.698, 43.69141
1152.180, 42.60352
1152.662, 35.06152
1153.145, 15.63867
1153.627, 3.514160
1154.109, 11.40381
1154.591, 24.54932
1155.073, 42.37939
1155.555, 55.53125
1156.037, 53.93750
1156.519, 41.28760
1157.002, 23.05322
1157.484, 2.364258
1157.966, 7.837891
1158.448, 43.31787
1158.930, 71.91943
1159.412, 29.49854
1159.894, 12.69238
1160.376, 0.8549800
1160.859, 39.92139
1161.341, 48.98242
1161.823, 25.05518
1162.305, 15.73975
1162.787, 35.67969
1163.269, 42.00439
1163.751, 23.11572
1164.233, 6.062988
1164.715, 0.4726560
1165.198, 5.795898
1165.680, 23.89648
1166.162, 52.21777
1166.644, 74.57959
1167.126, 93.64160
1167.608, 91.64990
1168.090, 61.51123
1168.572, 39.80127
1169.054, 40.45117
1169.537, 46.19629
1170.019, 40.77344
1170.501, 30.74512
1170.983, 36.18262
1171.465, 54.81592
1171.947, 59.43359
1172.429, 51.31836
1172.911, 41.31494
1173.394, 32.64551
1173.876, 32.11670
1174.358, 45.81641
1174.840, 64.15967
1175.322, 73.48975
1175.804, 75.98047
1176.286, 78.06250
1176.768, 77.91455
1177.250, 68.05762
1177.733, 49.96826
1178.215, 33.18896
1178.697, 24.66064
1179.179, 21.77295
1179.661, 24.03320
1180.143, 30.74658
1180.625, 50.12451
1181.107, 67.07129
1181.589, 48.50781
1182.072, 13.79443
1182.554, 17.10986
1183.036, 66.24902
1183.518, 100.4956
1184.000, 77.89453
1184.482, 53.45947
1184.964, 56.44434
1185.446, 65.75000
1185.929, 70.09082
1186.411, 68.92871
1186.893, 58.20410
1187.375, 41.33203
1187.857, 38.08789
1188.339, 63.84766
1188.821, 77.32568
1189.303, 69.05127
1189.786, 55.29980
1190.268, 30.39600
1190.750, 12.92871
1191.232, 23.47559
1191.714, 49.73926
1192.196, 59.33936
1192.678, 48.54053
1193.160, 47.12549
1193.642, 61.50293
1194.125, 61.29590
1194.607, 33.93945
1195.089, 17.94336
1195.571, 38.15576
1196.053, 68.34766
1196.535, 67.93164
1197.017, 45.13965
1197.499, 51.39551
1197.981, 82.91064
1198.464, 86.07031
1198.946, 58.89404
1199.428, 44.78174
1199.910, 59.29004
1200.392, 74.43848
1200.874, 63.53857
1201.356, 45.93311
1201.838, 61.53271
1202.321, 90.35107
1202.803, 83.95020
1203.285, 55.53320
1203.767, 46.40088
1204.249, 60.17969
1204.731, 67.47217
1205.213, 51.72607
1205.695, 39.95752
1206.177, 64.46484
1206.660, 88.78760
1207.142, 80.11523
1207.624, 20.93115
1208.106, 65.02637
1208.588, 89.46875
1209.070, 95.32031
1209.552, 26.88086
1210.034, 54.37646
1210.516, 43.41895
1210.999, 30.88232
1211.481, 71.87646
1211.963, 14.24316
1212.445, 54.39258
1212.927, 55.50342
1213.409, 74.48047
1213.891, 54.77588
1214.373, 47.02148
1214.856, 77.94385
1215.338, 87.30371
1215.820, 62.73535
1216.302, 82.85059
1216.784, 23.87451
1217.266, 34.28271
1217.748, 74.00049
1218.230, 51.76709
1218.713, 29.03955
1219.195, 10.74561
1219.677, 17.81494
1220.159, 46.11572
1220.641, 53.16895
1221.123, 35.72070
1221.605, 29.20654
1222.087, 48.71826
1222.569, 64.33154
1223.052, 40.50195
1223.534, 7.688965
1224.016, 16.26025
1224.498, 41.65918
1224.980, 43.36377
1225.462, 29.58008
1225.944, 26.28760
1226.426, 36.11572
1226.909, 39.90088
1227.391, 25.94873
1227.873, 16.04639
1228.355, 23.40332
1228.837, 36.41650
1229.319, 55.94971
1229.801, 69.76660
1230.283, 61.66309
1230.766, 39.60059
1231.248, 25.00049
1231.730, 20.75439
1232.212, 17.05957
1232.694, 14.07715
1233.176, 9.216309
1233.658, 4.991699
1234.140, 5.229980
1234.622, 28.16602
1235.104, 61.11719
1235.587, 50.24756
1236.069, 11.53613
1236.551, 14.90137
1237.033, 60.78906
1237.515, 66.87988
1237.997, 32.30811
1238.479, 16.71533
1238.961, 33.65723
1239.444, 54.75830
1239.926, 63.29443
1240.408, 61.64697
1240.890, 46.19482
1241.372, 27.65332
1241.854, 24.48633
1242.336, 32.05078
1242.818, 48.13135
1243.301, 65.82666
1243.783, 70.09570
1244.265, 57.65332
1244.747, 37.94287
1245.229, 6.387695
1245.711, 13.65771
1246.193, 0.5053710
1246.675, 15.98047
1247.157, 16.17578
1247.640, 10.23926
1248.122, 10.90381
1248.604, 16.16211
1249.086, 15.46777
1249.568, 6.268066
1250.050, 0.1411130
1250.532, 3.166992
1251.014, 3.032715
1251.496, 9.0820000E-02
1251.979, 9.698242
1252.461, 30.97900
1252.943, 49.29053
1253.425, 45.42334
1253.907, 25.04736
1254.389, 4.012207
1254.871, 15.37939
1255.353, 10.24512
1255.836, 15.86475
1256.318, 33.75635
1256.800, 36.41846
1257.282, 29.91406
1257.764, 16.34766
1258.246, 9.928223
1258.728, 39.35498
1259.210, 69.35303
1259.693, 53.76807
1260.175, 21.01514
1260.657, 3.348145
1261.139, 1.336914
1261.621, 11.26611
1262.103, 30.97900
1262.585, 40.15332
1263.067, 19.27979
1263.549, 8.367188
1264.031, 19.96826
1264.514, 36.80957
1264.996, 61.67773
1265.478, 78.06689
1265.960, 68.37061
1266.442, 43.74463
1266.924, 30.36328
1267.406, 28.52539
1267.888, 28.07617
1268.371, 34.50635
1268.853, 36.13721
1269.335, 31.60156
1269.817, 35.78662
1270.299, 53.73096
1270.781, 70.50049
1271.263, 67.89648
1271.745, 55.32764
1272.228, 42.87158
1272.710, 33.39502
1273.192, 22.83154
1273.674, 12.72021
1274.156, 10.94092
1274.638, 18.43066
1275.120, 35.36279
1275.602, 63.27832
1276.084, 81.91064
1276.567, 72.69580
1277.049, 62.72412
1277.531, 67.41406
1278.013, 68.44922
1278.495, 44.79150
1278.977, 17.82910
1279.459, 15.85889
1279.941, 34.14307
1280.423, 51.14502
1280.906, 69.61865
1281.388, 73.06201
1281.870, 57.72607
1282.352, 46.55273
1282.834, 43.93750
1283.316, 44.47314
1283.798, 45.44434
1284.280, 46.15918
1284.763, 47.25391
1285.245, 45.27246
1285.727, 23.12109
1286.209, 1.990723
1286.691, 13.52881
1287.173, 52.90479
1287.655, 70.30518
1288.137, 37.13428
1288.620, 13.16602
1289.102, 0.0000000E+00
##END=



