##NAMES=Sylvite
##RRUFFID=R050166
##IDEAL CHEMISTRY=KCl
##LOCALITY=Salton Sea, Imperial County, California, USA
##OWNER=RRUFF
##SOURCE=Marcus Origlieri
##DESCRIPTION=Pale blue octahedral crystals
##STATUS=The identification of this mineral has been confirmed by X-ray diffraction.
##URL=rruff.info/R050166
175.4918, 20.62404
175.9739, 20.75867
176.4561, 20.23543
176.9382, 18.65743
177.4203, 17.78194
177.9024, 18.05195
178.3845, 18.58972
178.8666, 19.07798
179.3488, 19.40394
179.8309, 19.51070
180.3130, 19.25951
180.7951, 18.25337
181.2772, 17.83041
181.7593, 18.47370
182.2415, 19.30847
182.7236, 19.68496
183.2057, 19.45402
183.6878, 18.91123
184.1699, 18.48735
184.6520, 18.20013
185.1342, 18.03533
185.6163, 18.00854
186.0984, 18.09889
186.5805, 18.41482
187.0626, 19.01637
187.5447, 19.52573
188.0269, 19.11909
188.5090, 17.49581
188.9911, 16.32968
189.4732, 16.33358
189.9553, 16.98332
190.4374, 17.35184
190.9196, 17.11856
191.4017, 16.65102
191.8838, 16.46811
192.3659, 16.56625
192.8480, 16.75475
193.3301, 17.00869
193.8123, 17.29779
194.2944, 17.51656
194.7765, 17.64733
195.2586, 17.67452
195.7407, 17.55490
196.2228, 17.28523
196.7050, 17.07434
197.1871, 17.18288
197.6692, 17.58668
198.1513, 17.72628
198.6334, 17.30559
199.1155, 16.72700
199.5977, 16.19876
200.0798, 15.74822
200.5619, 15.42674
201.0440, 15.32532
201.5261, 15.48234
202.0082, 15.60083
202.4904, 15.45768
202.9725, 15.40476
203.4546, 15.72852
203.9367, 16.41561
204.4188, 17.13315
204.9009, 17.44870
205.3831, 17.22911
205.8652, 17.00292
206.3473, 16.66670
206.8294, 16.41792
207.3115, 16.45706
207.7936, 16.77397
208.2758, 17.13452
208.7579, 17.19866
209.2400, 16.80409
209.7221, 16.45035
210.2042, 16.04702
210.6863, 15.73672
211.1685, 15.64553
211.6506, 15.78421
212.1327, 16.04280
212.6148, 16.28207
213.0969, 16.59525
213.5790, 16.64417
214.0612, 16.15820
214.5433, 15.59522
215.0254, 15.37062
215.5075, 15.56651
215.9896, 15.88401
216.4717, 15.90308
216.9539, 15.49453
217.4360, 15.04179
217.9181, 14.34537
218.4002, 13.70804
218.8823, 13.47914
219.3644, 13.74644
219.8466, 14.22276
220.3287, 14.54052
220.8108, 14.68192
221.2929, 14.78101
221.7750, 14.97607
222.2571, 15.09176
222.7393, 14.77905
223.2214, 13.89605
223.7035, 13.00538
224.1856, 12.96373
224.6677, 13.69658
225.1498, 14.28686
225.6320, 14.45756
226.1141, 14.35258
226.5962, 14.14520
227.0783, 13.79711
227.5604, 13.54221
228.0425, 13.71485
228.5247, 14.21352
229.0068, 14.65091
229.4889, 14.94625
229.9710, 15.06901
230.4531, 14.89905
230.9352, 14.30690
231.4174, 13.66571
231.8995, 13.19057
232.3816, 12.87782
232.8637, 12.75611
233.3458, 12.93784
233.8279, 13.33072
234.3101, 13.63677
234.7922, 13.81681
235.2743, 13.95521
235.7564, 14.22571
236.2385, 14.50152
236.7206, 14.50561
237.2028, 13.95815
237.6849, 13.00578
238.1670, 12.22041
238.6491, 11.41233
239.1312, 11.12383
239.6133, 11.86739
240.0955, 13.15898
240.5776, 14.18963
241.0597, 14.43187
241.5418, 14.04545
242.0239, 13.80371
242.5060, 13.88240
242.9882, 13.86173
243.4703, 13.41924
243.9524, 12.84726
244.4345, 12.61807
244.9166, 13.06817
245.3987, 13.99356
245.8809, 14.41459
246.3630, 13.98049
246.8451, 13.44269
247.3272, 12.76869
247.8093, 12.13907
248.2914, 11.80060
248.7736, 11.89980
249.2557, 12.33231
249.7378, 12.67822
250.2199, 12.97599
250.7020, 13.11827
251.1841, 12.97816
251.6663, 12.71681
252.1484, 12.54743
252.6305, 12.57526
253.1126, 12.70185
253.5947, 12.61288
254.0768, 12.08249
254.5590, 11.59029
255.0411, 11.03753
255.5232, 10.58508
256.0053, 10.45558
256.4874, 10.74191
256.9695, 11.27068
257.4517, 11.62258
257.9338, 11.58912
258.4159, 11.61577
258.8980, 11.84544
259.3801, 12.07660
259.8622, 12.06908
260.3444, 11.74351
260.8265, 11.24641
261.3086, 10.84330
261.7907, 10.42862
262.2728, 10.31725
262.7549, 10.89054
263.2371, 11.58517
263.7192, 11.77086
264.2013, 11.29145
264.6834, 10.56080
265.1655, 10.19772
265.6476, 10.42079
266.1298, 10.50722
266.6119, 10.23782
267.0940, 9.939437
267.5761, 9.992711
268.0582, 10.45789
268.5403, 10.97386
269.0225, 11.09514
269.5046, 10.69398
269.9867, 10.45389
270.4688, 10.53438
270.9509, 10.69192
271.4330, 10.67895
271.9152, 10.47621
272.3973, 10.31371
272.8794, 10.46818
273.3615, 10.96435
273.8436, 11.16144
274.3257, 10.82466
274.8079, 10.34492
275.2900, 9.979369
275.7721, 9.749872
276.2542, 9.652113
276.7363, 9.694773
277.2184, 9.885953
277.7006, 10.14504
278.1827, 10.61387
278.6648, 11.03586
279.1469, 11.23956
279.6290, 11.23119
280.1111, 11.06552
280.5933, 10.68713
281.0754, 10.20221
281.5575, 9.957074
282.0396, 10.11352
282.5217, 10.30981
283.0038, 10.30853
283.4860, 10.14495
283.9681, 9.994838
284.4502, 9.908942
284.9323, 9.915883
285.4144, 10.06141
285.8965, 10.39702
286.3787, 10.73780
286.8608, 10.95705
287.3429, 11.09137
287.8250, 11.29991
288.3071, 11.69637
288.7892, 12.09942
289.2714, 12.29847
289.7535, 12.31605
290.2356, 12.07254
290.7177, 11.32201
291.1998, 10.27448
291.6819, 9.461726
292.1641, 8.984420
292.6462, 8.811252
293.1283, 9.021693
293.6104, 9.563853
294.0925, 10.01914
294.5746, 10.27949
295.0568, 10.33069
295.5389, 10.04320
296.0210, 9.264871
296.5031, 8.559137
296.9852, 8.498847
297.4673, 8.905338
297.9495, 9.358967
298.4316, 9.947704
298.9137, 10.42016
299.3958, 10.28865
299.8779, 9.428034
300.3600, 8.522425
300.8422, 7.976664
301.3243, 7.705203
301.8064, 7.611427
302.2885, 7.730133
302.7706, 7.963243
303.2527, 8.216094
303.7349, 8.491010
304.2170, 8.773451
304.6991, 9.136978
305.1812, 9.458364
305.6633, 9.577402
306.1454, 9.459812
306.6276, 9.170697
307.1097, 8.615505
307.5918, 7.825105
308.0739, 7.355621
308.5560, 7.570771
309.0381, 8.046447
309.5203, 8.325065
310.0024, 8.393585
310.4845, 8.293652
310.9666, 7.909744
311.4487, 7.330790
311.9308, 7.018829
312.4130, 7.147944
312.8951, 7.457741
313.3772, 7.754371
313.8593, 8.029835
314.3414, 8.203834
314.8235, 8.123082
315.3057, 7.915927
315.7878, 7.973734
316.2699, 8.464610
316.7520, 8.888886
317.2341, 8.778592
317.7162, 8.326684
318.1984, 7.933667
318.6805, 7.814326
319.1626, 7.803742
319.6447, 7.568342
320.1268, 7.026721
320.6089, 6.671405
321.0911, 6.965607
321.5732, 7.575417
322.0553, 8.062776
322.5374, 8.345963
323.0195, 8.478388
323.5016, 8.487432
323.9838, 8.372727
324.4659, 8.208873
324.9480, 7.990354
325.4301, 7.759183
325.9122, 7.563218
326.3943, 7.403026
326.8765, 7.279477
327.3586, 7.213441
327.8407, 7.192407
328.3228, 7.140326
328.8049, 7.008934
329.2870, 6.886450
329.7692, 6.828452
330.2513, 6.835544
330.7334, 6.967400
331.2155, 7.393476
331.6976, 7.952497
332.1797, 8.248673
332.6619, 8.191619
333.1440, 8.009535
333.6261, 7.850517
334.1082, 7.708177
334.5903, 7.568019
335.0724, 7.381788
335.5546, 7.218516
336.0367, 7.192307
336.5188, 7.315978
337.0009, 7.452748
337.4830, 7.621427
337.9651, 7.712105
338.4473, 7.484697
338.9294, 6.671235
339.4115, 5.918381
339.8936, 5.828496
340.3757, 6.320516
340.8578, 6.809209
341.3400, 7.147372
341.8221, 7.299031
342.3042, 7.162137
342.7863, 6.651361
343.2684, 6.323846
343.7505, 6.607763
344.2327, 7.270794
344.7148, 7.798338
345.1969, 8.124247
345.6790, 8.181988
346.1611, 7.608164
346.6432, 6.524084
347.1254, 5.889630
347.6075, 6.405994
348.0896, 7.286397
348.5717, 7.453559
349.0538, 6.792987
349.5359, 6.143308
350.0181, 6.178004
350.5002, 6.755583
350.9823, 7.143596
351.4644, 7.146814
351.9465, 7.082672
352.4286, 7.211412
352.9108, 7.479445
353.3929, 7.603935
353.8750, 7.381915
354.3571, 6.998284
354.8392, 6.950847
355.3214, 7.449119
355.8035, 7.769170
356.2856, 7.520560
356.7677, 6.943361
357.2498, 6.429568
357.7319, 6.075511
358.2141, 5.887570
358.6962, 5.910897
359.1783, 6.177598
359.6604, 6.445467
360.1425, 6.788607
360.6246, 7.060225
361.1068, 7.075162
361.5889, 6.833072
362.0710, 6.538156
362.5531, 6.344008
363.0352, 6.255836
363.5173, 6.239947
363.9995, 6.365335
364.4816, 6.487381
364.9637, 6.545367
365.4458, 6.545342
365.9279, 6.505048
366.4100, 6.429593
366.8922, 6.329864
367.3743, 6.243212
367.8564, 6.226028
368.3385, 6.142200
368.8206, 5.772011
369.3027, 5.411873
369.7849, 5.504090
370.2670, 6.149539
370.7491, 6.940295
371.2312, 7.314270
371.7133, 7.137336
372.1954, 6.887642
372.6776, 6.366561
373.1597, 5.942784
373.6418, 5.939008
374.1239, 6.278602
374.6060, 6.586877
375.0881, 6.547389
375.5703, 6.175892
376.0524, 6.027233
376.5345, 6.386858
377.0166, 6.637067
377.4987, 6.658075
377.9808, 6.478307
378.4630, 6.065579
378.9451, 5.401660
379.4272, 4.703221
379.9093, 4.509339
380.3914, 5.218500
380.8735, 5.789421
381.3557, 6.270463
381.8378, 6.557982
382.3199, 6.460674
382.8020, 6.020346
383.2841, 5.561242
383.7662, 5.438324
384.2484, 5.679934
384.7305, 6.059565
385.2126, 7.056260
385.6947, 7.723596
386.1768, 7.521602
386.6589, 6.766803
387.1411, 6.111866
387.6232, 5.963215
388.1053, 6.173470
388.5874, 6.194227
389.0695, 5.839767
389.5516, 5.652206
390.0338, 5.916555
390.5159, 6.291324
390.9980, 6.461259
391.4801, 6.339519
391.9622, 6.076117
392.4443, 5.872016
392.9265, 5.748963
393.4086, 5.459886
393.8907, 4.579590
394.3728, 3.918839
394.8549, 4.123101
395.3370, 5.004539
395.8192, 5.803606
396.3013, 6.023025
396.7834, 5.790109
397.2655, 5.469422
397.7476, 4.975461
398.2297, 4.619147
398.7119, 4.567599
399.1940, 4.748244
399.6761, 5.166414
400.1582, 5.977038
400.6403, 6.681490
401.1224, 6.604378
401.6046, 5.802107
402.0867, 5.266593
402.5688, 5.404375
403.0509, 5.818033
403.5330, 5.973252
404.0151, 5.859815
404.4973, 5.902634
404.9794, 6.641264
405.4615, 7.557580
405.9436, 7.609670
406.4257, 6.591008
406.9078, 5.417892
407.3900, 4.759799
407.8721, 4.589011
408.3542, 4.629338
408.8363, 5.144754
409.3184, 5.615485
409.8005, 5.645562
410.2827, 5.334523
410.7648, 5.029336
411.2469, 4.883635
411.7290, 4.827482
412.2111, 4.672467
412.6932, 4.261353
413.1754, 4.143206
413.6575, 4.753401
414.1396, 5.519525
414.6217, 5.787101
415.1038, 5.467931
415.5859, 4.985168
416.0681, 4.739488
416.5502, 4.748282
417.0323, 4.850839
417.5144, 5.221883
417.9965, 5.490669
418.4786, 5.396116
418.9608, 5.101071
419.4429, 4.964064
419.9250, 5.181052
420.4071, 5.571668
420.8892, 5.619509
421.3713, 4.904295
421.8535, 4.482260
422.3356, 4.604760
422.8177, 4.854894
423.2998, 4.836595
423.7819, 4.548304
424.2640, 4.356064
424.7462, 4.690973
425.2283, 5.605605
425.7104, 6.288763
426.1925, 6.810097
426.6746, 6.985713
427.1567, 6.465898
427.6389, 5.637071
428.1210, 5.085823
428.6031, 5.103361
429.0852, 5.488670
429.5673, 5.904241
430.0494, 6.423683
430.5316, 6.712733
431.0137, 6.549287
431.4958, 6.214134
431.9779, 5.814262
432.4600, 5.378850
432.9421, 4.999887
433.4243, 4.771391
433.9064, 4.662804
434.3885, 4.552323
434.8706, 4.457359
435.3527, 4.304803
435.8348, 3.884487
436.3170, 3.398902
436.7991, 3.234046
437.2812, 3.668097
437.7633, 4.193164
438.2454, 4.213530
438.7275, 3.828809
439.2097, 3.783195
439.6918, 4.469946
440.1739, 5.399579
440.6560, 5.840345
441.1381, 5.795846
441.6202, 5.607077
442.1024, 5.233272
442.5845, 4.837145
443.0666, 4.530915
443.5487, 4.344697
444.0308, 4.494728
444.5129, 5.298529
444.9951, 6.613123
445.4772, 7.125981
445.9593, 6.311809
446.4414, 5.435674
446.9235, 4.769347
447.4056, 4.312063
447.8878, 4.093606
448.3699, 4.118571
448.8520, 4.245730
449.3341, 4.249897
449.8162, 4.036631
450.2983, 3.974781
450.7805, 4.151007
451.2626, 4.373919
451.7447, 4.612178
452.2268, 4.815497
452.7089, 4.861566
453.1910, 4.633844
453.6732, 4.254617
454.1553, 4.300045
454.6374, 5.314153
455.1195, 5.805059
455.6016, 5.005110
456.0837, 3.996304
456.5659, 3.777884
457.0480, 4.490613
457.5301, 5.412366
458.0122, 5.790559
458.4943, 5.637561
458.9764, 5.541120
459.4586, 5.590782
459.9407, 5.586185
460.4228, 5.306237
460.9049, 4.925435
461.3870, 4.778706
461.8691, 5.068545
462.3513, 5.496641
462.8334, 5.769915
463.3155, 5.885108
463.7976, 5.703087
464.2797, 4.964894
464.7618, 4.169764
465.2440, 3.984568
465.7261, 4.408798
466.2082, 4.874643
466.6903, 5.342229
467.1724, 5.670449
467.6545, 5.574095
468.1367, 5.063588
468.6188, 4.609345
469.1009, 4.537724
469.5830, 4.777212
470.0651, 4.959646
470.5472, 5.118679
471.0294, 5.187638
471.5115, 5.013391
471.9936, 4.795993
472.4757, 4.855689
472.9578, 5.252693
473.4399, 5.676145
473.9221, 5.724977
474.4042, 5.291932
474.8863, 5.109873
475.3684, 5.434752
475.8505, 5.707119
476.3326, 5.736200
476.8148, 5.567758
477.2969, 5.258270
477.7790, 4.829330
478.2611, 4.395320
478.7432, 4.195357
479.2253, 4.241740
479.7075, 4.495226
480.1896, 5.311461
480.6717, 6.035149
481.1538, 6.300972
481.6359, 6.128357
482.1180, 5.734450
482.6002, 5.100732
483.0823, 4.404062
483.5644, 4.233109
484.0465, 4.758785
484.5286, 5.185361
485.0107, 5.091657
485.4929, 4.741308
485.9750, 4.392700
486.4571, 4.041607
486.9392, 3.855155
487.4213, 4.039927
487.9034, 4.448256
488.3856, 4.765216
488.8677, 4.944411
489.3498, 5.020978
489.8319, 4.991848
490.3140, 4.867725
490.7961, 4.808601
491.2783, 4.917878
491.7604, 4.981799
492.2425, 4.763250
492.7246, 4.456275
493.2067, 4.522570
493.6888, 5.124562
494.1710, 5.803253
494.6531, 5.789371
495.1352, 4.680999
495.6173, 4.160110
496.0994, 4.786039
496.5815, 5.368583
497.0637, 5.265178
497.5458, 4.668169
498.0279, 4.039896
498.5100, 3.621068
498.9921, 3.430293
499.4742, 3.567310
499.9564, 4.231646
500.4385, 4.715382
500.9206, 4.857617
501.4027, 4.841835
501.8848, 4.657171
502.3669, 4.373172
502.8491, 4.247752
503.3312, 4.621068
503.8133, 5.243904
504.2954, 5.377036
504.7775, 4.916643
505.2596, 4.445846
505.7418, 4.116582
506.2239, 4.007787
506.7060, 4.323956
507.1881, 5.240207
507.6702, 5.878864
508.1523, 5.574137
508.6345, 4.780993
509.1166, 4.225348
509.5987, 4.013520
510.0808, 3.996776
510.5629, 4.088361
511.0450, 4.277933
511.5272, 4.438144
512.0093, 4.571860
512.4914, 4.678277
512.9735, 4.751296
513.4556, 4.799788
513.9377, 4.834174
514.4199, 4.857631
514.9020, 4.869588
515.3841, 4.866180
515.8662, 4.880123
516.3483, 4.835871
516.8304, 4.891980
517.3126, 4.914464
517.7947, 4.927265
518.2768, 4.873101
518.7589, 4.603703
519.2410, 4.044147
519.7231, 3.502203
520.2053, 3.528127
520.6874, 4.180042
521.1695, 4.529133
521.6516, 4.283899
522.1337, 3.922143
522.6158, 3.747379
523.0980, 3.722601
523.5801, 3.746995
524.0622, 3.823998
524.5443, 3.897029
525.0264, 3.873465
525.5085, 3.777335
525.9907, 3.769947
526.4728, 3.938538
526.9549, 4.148767
527.4370, 4.159680
527.9191, 3.909984
528.4012, 3.864232
528.8834, 4.201356
529.3655, 4.642433
529.8476, 5.175615
530.3297, 5.660003
530.8118, 5.676973
531.2939, 4.964236
531.7761, 3.891299
532.2582, 3.418590
532.7403, 3.954720
533.2224, 4.357287
533.7045, 4.527236
534.1866, 4.645152
534.6688, 4.869269
535.1509, 5.144698
535.6330, 5.281478
536.1151, 5.138726
536.5972, 4.795822
537.0793, 4.369184
537.5615, 3.737421
538.0436, 3.547886
538.5257, 4.485449
539.0078, 5.560509
539.4899, 5.844130
539.9720, 5.344908
540.4542, 4.826241
540.9363, 4.657614
541.4184, 4.688484
541.9005, 4.701280
542.3826, 4.692407
542.8647, 4.790004
543.3469, 5.122066
543.8290, 5.541536
544.3111, 5.640899
544.7932, 5.278467
545.2753, 4.982695
545.7574, 4.870004
546.2396, 4.821054
546.7217, 4.723577
547.2038, 4.584535
547.6859, 4.486724
548.1680, 4.488495
548.6501, 4.576321
549.1323, 4.696555
549.6144, 4.895261
550.0965, 5.043785
550.5786, 5.213645
551.0607, 5.273091
551.5428, 5.013663
552.0250, 4.502797
552.5071, 4.118539
552.9892, 4.256000
553.4713, 4.682778
553.9534, 4.629238
554.4355, 3.960322
554.9177, 3.504219
555.3998, 3.707750
555.8819, 4.216228
556.3640, 4.540963
556.8461, 4.656928
557.3282, 4.745013
557.8104, 4.926944
558.2925, 5.088920
558.7746, 5.110834
559.2567, 4.982646
559.7388, 4.687372
560.2209, 4.169028
560.7031, 3.544815
561.1852, 3.185873
561.6673, 3.144676
562.1494, 3.317211
562.6315, 4.006589
563.1136, 4.671616
563.5958, 4.883920
564.0779, 4.687069
564.5600, 4.386553
565.0421, 4.190552
565.5242, 4.063907
566.0063, 3.849969
566.4885, 3.438931
566.9706, 3.265061
567.4527, 3.717804
567.9348, 4.231930
568.4169, 4.406341
568.8990, 4.253114
569.3812, 4.049634
569.8633, 3.938404
570.3454, 3.862362
570.8275, 3.710994
571.3096, 3.494208
571.7917, 3.341282
572.2739, 3.275805
572.7560, 3.354262
573.2381, 3.775271
573.7202, 4.749349
574.2023, 5.230484
574.6844, 4.733126
575.1666, 4.052693
575.6487, 3.659019
576.1308, 3.544734
576.6129, 3.594759
577.0950, 3.758077
577.5771, 3.947003
578.0593, 3.939349
578.5414, 3.603009
579.0235, 3.431884
579.5056, 3.644493
579.9877, 3.846137
580.4698, 3.794979
580.9520, 3.596978
581.4341, 3.543871
581.9162, 3.848671
582.3983, 4.179236
582.8804, 3.969566
583.3625, 3.288285
583.8447, 2.913119
584.3268, 3.107107
584.8089, 3.462004
585.2910, 3.531365
585.7731, 3.353710
586.2552, 3.335622
586.7374, 3.710238
587.2195, 4.045186
587.7016, 4.021400
588.1837, 3.829394
588.6658, 3.825122
589.1479, 4.109732
589.6301, 4.495599
590.1122, 4.777303
590.5943, 4.965266
591.0764, 4.937177
591.5585, 4.593862
592.0406, 4.134359
592.5228, 3.391938
593.0049, 2.659562
593.4870, 2.300841
593.9691, 2.402477
594.4512, 2.704436
594.9333, 3.067518
595.4155, 3.441885
595.8976, 3.568764
596.3797, 3.382775
596.8618, 3.171571
597.3439, 3.037884
597.8260, 3.025033
598.3082, 3.252428
598.7903, 3.919540
599.2724, 4.322927
599.7545, 3.910365
600.2366, 3.324173
600.7188, 3.371949
601.2009, 4.009366
601.6830, 4.513158
602.1651, 4.363158
602.6472, 3.788716
603.1293, 3.675284
603.6115, 4.495516
604.0936, 4.900157
604.5757, 4.505170
605.0578, 3.972969
605.5399, 3.609438
606.0220, 3.462110
606.5042, 3.562694
606.9863, 4.076326
607.4684, 4.624003
607.9505, 4.472101
608.4326, 3.641320
608.9147, 2.989460
609.3969, 2.757606
609.8790, 2.739916
610.3611, 2.732184
610.8432, 2.738840
611.3253, 2.844687
611.8074, 3.209840
612.2896, 3.518529
612.7717, 3.513702
613.2538, 3.365497
613.7359, 3.403182
614.2180, 3.711645
614.7001, 4.052543
615.1823, 4.133379
615.6644, 3.938357
616.1465, 3.814830
616.6286, 3.850796
617.1107, 3.836947
617.5928, 3.600397
618.0750, 3.359030
618.5571, 3.389718
619.0392, 3.732063
619.5213, 4.066415
620.0034, 4.146352
620.4855, 4.047184
620.9677, 3.905421
621.4498, 3.724148
621.9319, 3.601255
622.4140, 3.606515
622.8961, 3.676189
623.3782, 3.657619
623.8604, 3.486411
624.3425, 3.439675
624.8246, 3.660949
625.3067, 3.916416
625.7888, 4.058039
626.2709, 4.101904
626.7531, 4.159137
627.2352, 4.287964
627.7173, 4.343954
628.1994, 3.927954
628.6815, 2.840091
629.1636, 2.418534
629.6458, 3.261132
630.1279, 4.106416
630.6100, 4.242224
631.0921, 3.975072
631.5742, 3.864831
632.0563, 4.115956
632.5385, 4.341834
633.0206, 4.202583
633.5027, 3.856589
633.9848, 3.600709
634.4669, 3.479940
634.9490, 3.448072
635.4312, 3.478497
635.9133, 3.565007
636.3954, 3.679849
636.8775, 3.985031
637.3596, 4.092249
637.8417, 3.777902
638.3239, 3.433833
638.8060, 3.287243
639.2881, 3.364709
639.7702, 3.676757
640.2523, 4.306479
640.7344, 4.973676
641.2166, 5.051425
641.6987, 4.509384
642.1808, 4.077868
642.6629, 3.908969
643.1450, 3.866014
643.6271, 3.904099
644.1093, 3.982516
644.5914, 3.934214
645.0735, 3.493897
645.5556, 3.200601
646.0377, 3.385816
646.5198, 3.838398
647.0020, 4.388074
647.4841, 4.935292
647.9662, 5.160746
648.4483, 4.712638
648.9304, 3.723927
649.4125, 3.136869
649.8947, 3.164826
650.3768, 3.207462
650.8589, 3.003714
651.3410, 2.903037
651.8231, 3.371955
652.3052, 4.249926
652.7874, 4.703526
653.2695, 3.969384
653.7516, 2.936825
654.2337, 2.762230
654.7158, 3.279915
655.1979, 3.740181
655.6801, 3.934354
656.1622, 3.990237
656.6443, 4.038285
657.1264, 4.079434
657.6085, 4.090256
658.0906, 4.174420
658.5728, 4.105345
659.0549, 3.613184
659.5370, 3.070956
660.0191, 2.912060
660.5012, 3.159643
660.9833, 3.453212
661.4655, 3.462792
661.9476, 3.313479
662.4297, 3.484032
662.9118, 4.052581
663.3939, 4.297071
663.8760, 3.839704
664.3582, 3.152305
664.8403, 2.737735
665.3224, 2.578740
665.8045, 2.632152
666.2866, 3.146394
666.7687, 3.604722
667.2509, 3.682486
667.7330, 3.522794
668.2151, 3.288815
668.6972, 3.057827
669.1793, 3.019101
669.6614, 3.446370
670.1436, 4.280062
670.6257, 4.637049
671.1078, 4.286836
671.5899, 3.938589
672.0720, 3.676005
672.5541, 3.570195
673.0363, 3.804507
673.5184, 4.331872
674.0005, 4.669090
674.4826, 4.541500
674.9647, 4.187747
675.4468, 3.666260
675.9290, 3.111037
676.4111, 2.978063
676.8932, 3.415236
677.3753, 4.042889
677.8574, 4.463006
678.3395, 4.683159
678.8217, 4.491857
679.3038, 3.196941
679.7859, 2.381391
680.2680, 2.566849
680.7501, 3.169635
681.2322, 3.850481
681.7144, 4.466458
682.1965, 4.702665
682.6786, 3.986949
683.1607, 3.016912
683.6428, 3.176169
684.1249, 4.300055
684.6071, 4.911054
685.0892, 4.486805
685.5713, 3.688506
686.0534, 3.223780
686.5355, 3.110690
687.0176, 3.093071
687.4998, 3.273656
687.9819, 3.411382
688.4640, 3.518903
688.9461, 3.509217
689.4282, 3.156286
689.9103, 2.535916
690.3925, 2.130560
690.8746, 2.410951
691.3567, 3.058055
691.8388, 3.232246
692.3209, 2.906914
692.8030, 2.833466
693.2852, 3.327064
693.7673, 3.914522
694.2494, 4.125959
694.7315, 3.973534
695.2136, 3.736087
695.6957, 3.302375
696.1779, 2.931072
696.6600, 2.619244
697.1421, 2.468769
697.6242, 2.834260
698.1063, 3.575772
698.5884, 3.871863
699.0706, 2.975771
699.5527, 1.399805
700.0348, 0.6251152
700.5169, 0.7534074
700.9990, 1.072662
701.4811, 1.569091
701.9633, 2.047470
702.4454, 2.295343
702.9275, 2.382952
703.4096, 2.554355
703.8917, 3.008858
704.3738, 3.321146
704.8560, 3.215819
705.3381, 2.930328
705.8202, 2.715253
706.3023, 2.613367
706.7844, 2.575992
707.2665, 2.565474
707.7487, 2.610878
708.2308, 2.851337
708.7129, 3.387745
709.1950, 3.637894
709.6771, 3.427655
710.1592, 3.054225
710.6414, 2.506329
711.1235, 1.968639
711.6056, 1.886020
712.0877, 2.510505
712.5698, 3.170180
713.0519, 3.524554
713.5341, 3.743194
714.0162, 4.058969
714.4983, 4.448075
714.9804, 4.721837
715.4625, 4.774642
715.9446, 4.637587
716.4268, 4.305568
716.9089, 3.650210
717.3910, 3.400494
717.8731, 3.944177
718.3552, 4.387334
718.8373, 4.114859
719.3195, 3.570438
719.8016, 3.447418
720.2837, 3.928992
720.7658, 4.324608
721.2479, 4.285446
721.7300, 4.008887
722.2122, 3.623420
722.6943, 3.187575
723.1764, 2.823267
723.6585, 2.583408
724.1406, 2.438331
724.6227, 2.313641
725.1049, 2.176000
725.5870, 2.404922
726.0691, 3.336878
726.5512, 4.086628
727.0333, 4.251863
727.5154, 4.158864
727.9976, 4.146924
728.4797, 4.240174
728.9618, 4.152551
729.4439, 3.426136
729.9260, 2.758228
730.4081, 2.949164
730.8903, 3.682660
731.3724, 4.169319
731.8545, 4.185237
732.3366, 4.070649
732.8187, 4.227800
733.3008, 4.598449
733.7830, 4.413180
734.2651, 3.239609
734.7472, 2.446276
735.2293, 2.643337
735.7114, 3.075253
736.1935, 3.270634
736.6757, 3.240815
737.1578, 3.130763
737.6399, 2.831496
738.1220, 2.664361
738.6041, 3.042690
739.0862, 3.613205
739.5684, 3.729817
740.0505, 3.360300
740.5326, 3.023017
741.0147, 3.104600
741.4968, 3.457005
741.9789, 3.649477
742.4611, 3.685564
742.9432, 3.531947
743.4253, 2.978800
743.9074, 2.497344
744.3895, 2.346459
744.8716, 2.446525
745.3538, 2.697098
745.8359, 3.167912
746.3180, 3.507608
746.8001, 3.421811
747.2822, 3.225291
747.7643, 3.254658
748.2465, 3.472784
748.7286, 3.677335
749.2107, 3.775844
749.6928, 3.819897
750.1749, 3.932289
750.6570, 4.130080
751.1392, 3.977411
751.6213, 3.269501
752.1034, 2.675899
752.5855, 2.412779
753.0676, 2.439436
753.5497, 2.855394
754.0319, 3.680331
754.5140, 4.066802
754.9961, 3.378731
755.4782, 2.648802
755.9603, 2.558411
756.4424, 2.810833
756.9246, 2.897801
757.4067, 2.732439
757.8888, 2.624405
758.3709, 2.885212
758.8530, 3.357411
759.3351, 3.452001
759.8173, 3.108080
760.2994, 2.935869
760.7815, 3.188510
761.2636, 3.413753
761.7457, 3.112175
762.2278, 2.435505
762.7100, 2.133514
763.1921, 2.579654
763.6742, 2.845399
764.1563, 2.471920
764.6384, 2.036892
765.1205, 1.997856
765.6027, 2.315903
766.0848, 2.822115
766.5669, 3.458131
767.0490, 3.955913
767.5311, 3.832988
768.0132, 3.222769
768.4954, 2.901901
768.9775, 2.949974
769.4596, 2.980649
769.9417, 2.768579
770.4238, 2.492110
770.9059, 2.472708
771.3881, 2.785148
771.8702, 3.067420
772.3523, 3.395909
772.8344, 3.606820
773.3165, 3.561378
773.7986, 3.416332
774.2808, 3.381267
774.7629, 3.460404
775.2450, 3.431417
775.7271, 3.002403
776.2092, 2.520991
776.6913, 2.576022
777.1735, 3.046362
777.6556, 3.473934
778.1377, 3.760442
778.6198, 3.846138
779.1019, 3.638896
779.5840, 3.217193
780.0662, 2.989845
780.5483, 3.069701
781.0304, 3.131135
781.5125, 3.115612
781.9946, 3.117223
782.4767, 3.305695
782.9589, 3.513011
783.4410, 3.362219
783.9231, 2.674449
784.4052, 2.075650
784.8873, 2.044798
785.3694, 2.239384
785.8516, 2.179449
786.3337, 1.954144
786.8158, 2.029570
787.2979, 2.586686
787.7800, 3.202175
788.2621, 3.275525
788.7443, 2.830336
789.2264, 2.656727
789.7085, 2.839688
790.1906, 3.067003
790.6727, 3.347357
791.1548, 3.541281
791.6370, 3.490917
792.1191, 3.222495
792.6012, 2.908840
793.0833, 2.360091
793.5654, 2.036207
794.0475, 2.310791
794.5297, 2.757062
795.0118, 2.948257
795.4939, 2.880953
795.9760, 2.749368
796.4581, 2.650082
796.9402, 2.605482
797.4224, 2.637082
797.9045, 2.749785
798.3866, 3.050714
798.8687, 3.590856
799.3508, 3.902277
799.8329, 3.681224
800.3151, 3.189847
800.7972, 2.895565
801.2793, 2.808348
801.7614, 2.884387
802.2435, 3.480966
802.7256, 3.788687
803.2078, 3.163287
803.6899, 2.399035
804.1720, 2.485098
804.6541, 3.382302
805.1362, 4.042802
805.6183, 3.792144
806.1005, 3.188415
806.5826, 2.634573
807.0647, 2.208265
807.5468, 2.148249
808.0289, 2.463688
808.5110, 2.871464
808.9932, 3.187805
809.4753, 3.405536
809.9574, 3.477556
810.4395, 3.344013
810.9216, 3.362381
811.4037, 3.744083
811.8859, 3.954658
812.3680, 3.574905
812.8501, 2.931267
813.3322, 2.441057
813.8143, 2.106574
814.2964, 2.043242
814.7786, 2.454612
815.2607, 2.954909
815.7428, 3.517827
816.2249, 3.933791
816.7070, 3.818311
817.1891, 3.186046
817.6713, 2.507447
818.1534, 2.076977
818.6355, 1.922777
819.1176, 2.221408
819.5997, 2.903907
820.0818, 3.471869
820.5640, 3.857843
821.0461, 3.891882
821.5282, 3.314385
822.0103, 2.453792
822.4924, 2.360440
822.9745, 3.674880
823.4567, 4.324336
823.9388, 3.682228
824.4209, 3.100914
824.9030, 3.192230
825.3851, 3.546265
825.8672, 3.629528
826.3494, 3.365911
826.8315, 3.026391
827.3136, 2.525926
827.7957, 2.200955
828.2778, 2.508365
828.7599, 3.140937
829.2421, 3.559288
829.7242, 3.654902
830.2063, 3.562990
830.6884, 3.347103
831.1705, 3.123900
831.6526, 3.315039
832.1348, 3.949489
832.6169, 3.962265
833.0990, 2.973586
833.5811, 2.217054
834.0632, 2.576710
834.5453, 3.526765
835.0275, 3.893846
835.5096, 3.409126
835.9917, 3.127361
836.4738, 3.199280
836.9559, 3.302912
837.4380, 3.278342
837.9202, 3.248544
838.4023, 3.420831
838.8844, 3.773078
839.3665, 3.995538
839.8486, 3.861393
840.3307, 3.601267
840.8129, 3.434014
841.2950, 3.317923
841.7771, 3.081278
842.2592, 2.757886
842.7413, 2.776412
843.2234, 3.454770
843.7056, 4.324739
844.1877, 4.306060
844.6698, 3.291180
845.1519, 2.748456
845.6340, 2.815925
846.1161, 3.101628
846.5983, 3.581618
847.0804, 4.066639
847.5625, 4.296321
848.0446, 4.265209
848.5267, 4.096838
849.0089, 3.603610
849.4910, 3.221908
849.9731, 3.071018
850.4552, 3.083683
850.9373, 3.383638
851.4194, 3.791677
851.9016, 3.738033
852.3837, 2.814420
852.8658, 1.955548
853.3479, 2.156715
853.8300, 2.933707
854.3121, 3.578344
854.7943, 3.986695
855.2764, 3.973362
855.7585, 3.452551
856.2406, 2.814768
856.7227, 2.620328
857.2048, 2.812696
857.6870, 2.524525
858.1691, 1.527915
858.6512, 0.9947042
859.1333, 1.407982
859.6154, 2.059296
860.0975, 2.313192
860.5797, 2.262104
861.0618, 2.448650
861.5439, 3.211288
862.0260, 3.640851
862.5081, 3.383375
862.9902, 3.030266
863.4724, 2.889155
863.9545, 2.909960
864.4366, 2.986247
864.9187, 3.089347
865.4008, 3.184451
865.8829, 3.279501
866.3651, 3.330471
866.8472, 3.264620
867.3293, 3.118437
867.8114, 2.961586
868.2935, 2.817672
868.7756, 2.721857
869.2578, 2.706389
869.7399, 2.739475
870.2220, 2.724619
870.7041, 2.655146
871.1862, 2.698839
871.6683, 2.898690
872.1505, 3.101065
872.6326, 3.207189
873.1147, 3.295362
873.5968, 3.528244
874.0789, 3.971586
874.5610, 4.198602
875.0432, 4.015430
875.5253, 3.880120
876.0074, 3.916401
876.4895, 4.024471
876.9716, 4.292087
877.4537, 4.566384
877.9359, 4.305510
878.4180, 3.032390
878.9001, 1.925437
879.3822, 1.683311
879.8643, 2.004035
880.3464, 2.868191
880.8286, 3.958114
881.3107, 4.498480
881.7928, 4.236654
882.2749, 3.778057
882.7570, 3.794983
883.2391, 4.115426
883.7213, 4.177541
884.2034, 3.998080
884.6855, 3.857600
885.1676, 3.823114
885.6497, 3.826313
886.1318, 3.830961
886.6140, 3.812234
887.0961, 3.655482
887.5782, 3.180299
888.0603, 3.046439
888.5424, 3.558810
889.0245, 3.996254
889.5067, 4.135778
889.9888, 4.010964
890.4709, 3.493087
890.9530, 2.590187
891.4351, 2.119540
891.9172, 2.633544
892.3994, 3.128484
892.8815, 3.184487
893.3636, 3.040219
893.8457, 2.868268
894.3278, 2.722087
894.8099, 2.653600
895.2921, 2.690493
895.7742, 2.761282
896.2563, 2.830177
896.7384, 2.871566
897.2205, 2.755914
897.7026, 2.560113
898.1848, 2.662795
898.6669, 3.163367
899.1490, 3.612075
899.6311, 3.545219
900.1132, 3.113058
900.5953, 2.893930
901.0775, 2.909184
901.5596, 2.876245
902.0417, 2.713899
902.5238, 2.651613
903.0059, 2.868474
903.4880, 3.231051
903.9702, 3.490795
904.4523, 3.683625
904.9344, 3.621713
905.4165, 2.933851
905.8986, 2.472936
906.3807, 2.652997
906.8629, 2.954099
907.3450, 2.859944
907.8271, 2.465554
908.3092, 2.276162
908.7913, 2.518671
909.2734, 2.776277
909.7556, 2.856854
910.2377, 2.878394
910.7198, 2.952930
911.2019, 3.049755
911.6840, 3.054503
912.1661, 2.950532
912.6483, 2.925979
913.1304, 3.239989
913.6125, 3.637733
914.0946, 3.647724
914.5767, 3.388519
915.0588, 3.238976
915.5410, 3.259019
916.0231, 3.338665
916.5052, 3.421109
916.9873, 3.448112
917.4694, 3.255043
917.9515, 2.826741
918.4337, 2.597301
918.9158, 2.582294
919.3979, 2.727118
919.8800, 3.095758
920.3621, 3.447076
920.8442, 3.476166
921.3264, 3.716907
921.8085, 3.889688
922.2906, 3.777576
922.7727, 4.041205
923.2548, 3.779429
923.7369, 3.450598
924.2191, 3.221217
924.7012, 3.081491
925.1833, 3.034290
925.6654, 3.084877
926.1475, 3.082067
926.6296, 2.881271
927.1118, 2.734037
927.5939, 2.834820
928.0760, 3.007866
928.5581, 2.968529
929.0402, 2.812637
929.5223, 3.034552
930.0045, 3.956277
930.4866, 4.586353
930.9687, 3.475145
931.4508, 1.827583
931.9329, 1.758538
932.4150, 2.836332
932.8972, 3.387332
933.3793, 2.984840
933.8614, 2.489784
934.3435, 2.677599
934.8256, 3.227482
935.3077, 3.315183
935.7899, 2.977468
936.2720, 2.759299
936.7541, 2.728681
937.2362, 2.671897
937.7183, 2.432114
938.2004, 2.287637
938.6826, 2.723691
939.1647, 3.762165
939.6468, 4.379433
940.1289, 4.453432
940.6110, 4.392830
941.0931, 4.172004
941.5753, 3.964321
942.0574, 3.852600
942.5395, 3.853889
943.0216, 4.062288
943.5037, 4.684097
943.9858, 4.879429
944.4680, 4.247386
944.9501, 3.586469
945.4322, 3.116703
945.9143, 2.817103
946.3964, 2.750584
946.8785, 2.837400
947.3607, 2.730687
947.8428, 2.104933
948.3249, 1.722163
948.8070, 2.341758
949.2891, 3.092958
949.7712, 2.966308
950.2534, 2.380348
950.7355, 2.362936
951.2176, 3.115165
951.6997, 3.809507
952.1818, 3.815371
952.6639, 3.432709
953.1461, 2.819109
953.6282, 2.200810
954.1103, 2.299289
954.5924, 3.038231
955.0745, 3.466456
955.5566, 3.107978
956.0388, 2.541421
956.5209, 2.583657
957.0030, 3.101488
957.4851, 3.475569
957.9672, 3.706279
958.4493, 3.533617
958.9315, 2.814700
959.4136, 2.422720
959.8957, 3.122490
960.3778, 4.354771
960.8599, 4.607399
961.3420, 3.617750
961.8242, 2.983339
962.3063, 2.766727
962.7884, 2.776055
963.2705, 3.084793
963.7526, 3.420403
964.2347, 3.490081
964.7169, 3.333319
965.1990, 3.240959
965.6811, 3.404345
966.1632, 3.335502
966.6453, 2.570408
967.1274, 2.105066
967.6096, 2.795192
968.0917, 3.762555
968.5738, 3.734359
969.0559, 2.695277
969.5380, 2.072488
970.0201, 2.563923
970.5023, 3.048034
970.9844, 3.044572
971.4665, 2.953724
971.9486, 3.214780
972.4307, 3.610195
972.9128, 3.621711
973.3950, 3.121525
973.8771, 2.592998
974.3592, 2.117624
974.8413, 1.939435
975.3234, 2.628665
975.8055, 3.554414
976.2877, 3.675094
976.7698, 3.078953
977.2519, 2.567684
977.7340, 2.514523
978.2161, 2.662196
978.6982, 2.825447
979.1804, 2.950914
979.6625, 2.862206
980.1446, 2.643794
980.6267, 2.692444
981.1088, 3.031901
981.5909, 3.028678
982.0731, 2.181146
982.5552, 1.142373
983.0373, 1.200354
983.5194, 2.194739
984.0015, 3.090512
984.4836, 3.851840
984.9658, 3.878866
985.4479, 2.892569
985.9300, 1.980337
986.4121, 2.206895
986.8942, 3.206051
987.3763, 3.670811
987.8585, 3.547488
988.3406, 3.156525
988.8227, 2.337071
989.3048, 1.888738
989.7869, 2.276702
990.2690, 2.936856
990.7512, 3.222942
991.2333, 3.158098
991.7154, 3.005984
992.1975, 2.624176
992.6796, 2.464512
993.1617, 2.710087
993.6439, 2.968666
994.1260, 3.012321
994.6081, 2.989224
995.0902, 3.178483
995.5723, 3.597388
996.0544, 3.717569
996.5366, 3.217830
997.0187, 2.851443
997.5008, 2.850448
997.9829, 2.902351
998.4650, 2.806898
998.9471, 2.636169
999.4293, 2.505864
999.9114, 2.427683
1000.393, 2.464326
1000.876, 2.705031
1001.358, 2.972244
1001.840, 3.134096
1002.322, 3.337924
1002.804, 4.018590
1003.286, 4.781252
1003.768, 4.550288
1004.250, 2.959940
1004.733, 1.764755
1005.215, 2.208078
1005.697, 3.070565
1006.179, 3.647740
1006.661, 3.967729
1007.143, 4.000850
1007.625, 3.848490
1008.107, 3.820657
1008.589, 4.067912
1009.072, 4.159182
1009.554, 3.493186
1010.036, 2.672376
1010.518, 2.428378
1011.000, 2.583023
1011.482, 2.790278
1011.964, 2.969536
1012.446, 3.135668
1012.929, 3.298536
1013.411, 3.449282
1013.893, 3.667192
1014.375, 3.822732
1014.857, 3.484839
1015.339, 2.848082
1015.821, 2.701806
1016.303, 3.149719
1016.785, 3.441738
1017.268, 3.036856
1017.750, 2.393283
1018.232, 2.244116
1018.714, 2.502934
1019.196, 2.977663
1019.678, 3.582599
1020.160, 3.546770
1020.642, 2.664825
1021.125, 1.855495
1021.607, 1.860510
1022.089, 2.399160
1022.571, 2.962392
1023.053, 3.529680
1023.535, 3.532497
1024.017, 2.925372
1024.499, 2.393489
1024.981, 2.143869
1025.464, 2.080914
1025.946, 2.132977
1026.428, 2.279683
1026.910, 2.512676
1027.392, 2.874872
1027.874, 2.827746
1028.356, 2.218478
1028.838, 1.907349
1029.321, 2.309553
1029.803, 2.745798
1030.285, 2.483005
1030.767, 1.740959
1031.249, 1.544930
1031.731, 2.087863
1032.213, 2.450223
1032.695, 2.628717
1033.177, 2.533100
1033.660, 1.941943
1034.142, 1.371835
1034.624, 1.378094
1035.106, 1.881264
1035.588, 2.411378
1036.070, 3.130527
1036.552, 3.466298
1037.034, 3.159126
1037.516, 2.905117
1037.999, 3.083683
1038.481, 3.301465
1038.963, 3.047874
1039.445, 2.417903
1039.927, 2.152516
1040.409, 2.476698
1040.891, 2.770189
1041.373, 3.099756
1041.855, 3.307830
1042.338, 3.325520
1042.820, 3.200317
1043.302, 2.863050
1043.784, 2.377072
1044.266, 2.218025
1044.748, 2.603774
1045.230, 2.973440
1045.712, 3.383150
1046.195, 3.669671
1046.677, 3.754991
1047.159, 3.695779
1047.641, 3.500599
1048.123, 3.201494
1048.605, 2.978799
1049.087, 2.857803
1049.569, 2.801048
1050.052, 2.869358
1050.534, 2.923547
1051.016, 2.767791
1051.498, 2.657388
1051.980, 3.032182
1052.462, 3.771745
1052.944, 4.085028
1053.426, 3.650413
1053.908, 3.157141
1054.391, 2.529382
1054.873, 2.145511
1055.355, 2.360034
1055.837, 2.806355
1056.319, 3.056521
1056.801, 3.126307
1057.283, 3.344823
1057.765, 4.035059
1058.248, 4.287871
1058.730, 3.316793
1059.212, 2.432952
1059.694, 2.687440
1060.176, 3.202535
1060.658, 2.655516
1061.140, 1.325075
1061.622, 0.9082840
1062.104, 2.281056
1062.587, 3.388686
1063.069, 3.163661
1063.551, 2.837314
1064.033, 3.312893
1064.515, 3.946854
1064.997, 3.905659
1065.479, 3.281748
1065.961, 2.708478
1066.443, 2.314285
1066.926, 2.178297
1067.408, 2.538466
1067.890, 2.931115
1068.372, 3.081487
1068.854, 3.113150
1069.336, 3.212690
1069.818, 3.337524
1070.300, 3.248650
1070.782, 2.797786
1071.265, 2.528398
1071.747, 2.983015
1072.229, 3.337822
1072.711, 2.969949
1073.193, 2.336631
1073.675, 1.791527
1074.157, 1.465906
1074.639, 1.598334
1075.122, 2.330395
1075.604, 2.925757
1076.086, 2.968259
1076.568, 2.872127
1077.050, 2.849885
1077.532, 2.835433
1078.014, 2.718035
1078.496, 2.549282
1078.979, 2.463975
1079.461, 2.496175
1079.943, 2.613786
1080.425, 2.822897
1080.907, 3.088018
1081.389, 3.548868
1081.871, 3.919057
1082.353, 3.855743
1082.835, 3.504875
1083.318, 3.165536
1083.800, 2.909883
1084.282, 2.832517
1084.764, 3.231183
1085.246, 3.489325
1085.728, 3.180203
1086.210, 2.708836
1086.692, 2.343954
1087.175, 2.114146
1087.657, 2.002317
1088.139, 2.008109
1088.621, 2.171115
1089.103, 2.668994
1089.585, 3.099955
1090.067, 3.283098
1090.549, 3.341428
1091.031, 3.343025
1091.514, 3.296282
1091.996, 3.123574
1092.478, 2.864509
1092.960, 2.855017
1093.442, 3.393314
1093.924, 3.847228
1094.406, 4.041072
1094.888, 4.013277
1095.370, 3.681743
1095.853, 3.214554
1096.335, 2.725744
1096.817, 2.285583
1097.299, 2.127535
1097.781, 2.444996
1098.263, 2.706296
1098.745, 2.808097
1099.227, 2.735542
1099.709, 2.254250
1100.192, 1.767381
1100.674, 1.704611
1101.156, 2.014646
1101.638, 2.453008
1102.120, 3.072429
1102.602, 3.438898
1103.084, 3.395705
1103.566, 3.148387
1104.049, 2.461556
1104.531, 1.886612
1105.013, 1.979030
1105.495, 2.526198
1105.977, 3.040407
1106.459, 3.512222
1106.941, 3.618809
1107.423, 2.875676
1107.906, 2.361475
1108.388, 2.634352
1108.870, 2.946298
1109.352, 2.758967
1109.834, 2.296557
1110.316, 1.887618
1110.798, 1.535424
1111.280, 1.580343
1111.762, 2.449884
1112.245, 3.111296
1112.727, 3.446540
1113.209, 3.541758
1113.691, 3.377649
1114.173, 3.034320
1114.655, 2.403348
1115.137, 1.557358
1115.619, 1.486911
1116.102, 3.107335
1116.584, 3.862836
1117.066, 2.977089
1117.548, 2.335884
1118.030, 2.794657
1118.512, 3.541914
1118.994, 3.841168
1119.476, 3.781358
1119.958, 3.722012
1120.441, 3.696680
1120.923, 3.542903
1121.405, 3.101025
1121.887, 2.923230
1122.369, 3.397958
1122.851, 3.686199
1123.333, 2.985831
1123.815, 1.860396
1124.297, 1.606041
1124.780, 2.310422
1125.262, 2.729468
1125.744, 2.750237
1126.226, 2.955044
1126.708, 3.589065
1127.190, 3.873542
1127.672, 3.245899
1128.154, 2.380630
1128.636, 2.302291
1129.119, 2.894335
1129.601, 3.163101
1130.083, 3.078188
1130.565, 3.009175
1131.047, 2.988202
1131.529, 3.020249
1132.011, 3.105845
1132.493, 3.282673
1132.976, 3.644741
1133.458, 4.008513
1133.940, 3.697792
1134.422, 2.798524
1134.904, 2.511389
1135.386, 2.851069
1135.868, 2.950440
1136.350, 2.579132
1136.833, 2.150120
1137.315, 1.933579
1137.797, 1.965847
1138.279, 2.439765
1138.761, 3.184873
1139.243, 3.599125
1139.725, 3.738791
1140.207, 3.876548
1140.689, 4.039114
1141.172, 4.051136
1141.654, 3.830965
1142.136, 3.521889
1142.618, 3.267622
1143.100, 3.033295
1143.582, 2.678258
1144.064, 2.335156
1144.546, 2.362823
1145.029, 2.658907
1145.511, 2.822310
1145.993, 2.742584
1146.475, 2.575588
1146.957, 2.345962
1147.439, 2.281363
1147.921, 2.856250
1148.403, 3.514702
1148.885, 3.456249
1149.368, 3.037026
1149.850, 2.954517
1150.332, 3.239219
1150.814, 3.499644
1151.296, 3.607575
1151.778, 3.473533
1152.260, 2.620829
1152.742, 1.998739
1153.224, 2.687164
1153.707, 3.584854
1154.189, 3.317716
1154.671, 2.328630
1155.153, 1.880856
1155.635, 2.232558
1156.117, 2.564928
1156.599, 2.569861
1157.081, 2.589554
1157.563, 2.741874
1158.046, 2.927997
1158.528, 3.128571
1159.010, 3.298656
1159.492, 3.458743
1159.974, 3.568838
1160.456, 3.311834
1160.938, 2.098351
1161.420, 1.617413
1161.903, 2.584347
1162.385, 3.363121
1162.867, 3.473820
1163.349, 3.278939
1163.831, 2.950604
1164.313, 2.583027
1164.795, 2.416042
1165.277, 2.470772
1165.760, 2.552720
1166.242, 2.683446
1166.724, 2.767797
1167.206, 2.776326
1167.688, 2.770354
1168.170, 2.750839
1168.652, 2.846859
1169.134, 3.322319
1169.616, 3.969879
1170.099, 3.589834
1170.581, 2.160275
1171.063, 1.723346
1171.545, 2.410789
1172.027, 2.696548
1172.509, 2.107976
1172.991, 1.690474
1173.473, 2.287067
1173.956, 3.240487
1174.438, 3.341151
1174.920, 2.890116
1175.402, 2.871104
1175.884, 3.177721
1176.366, 3.437785
1176.848, 3.575966
1177.330, 3.544489
1177.813, 3.332796
1178.295, 3.154073
1178.777, 3.231815
1179.259, 3.389344
1179.741, 3.472361
1180.223, 3.447253
1180.705, 3.122342
1181.187, 2.701985
1181.669, 2.702038
1182.151, 3.112227
1182.634, 3.320307
1183.116, 2.982188
1183.598, 2.656662
1184.080, 2.683016
1184.562, 2.817788
1185.044, 2.989542
1185.526, 3.110542
1186.008, 3.084193
1186.490, 2.943642
1186.973, 2.693916
1187.455, 2.308785
1187.937, 2.346812
1188.419, 3.508392
1188.901, 4.219514
1189.383, 3.794404
1189.865, 3.300714
1190.347, 3.326227
1190.830, 3.515314
1191.312, 3.503766
1191.794, 3.320531
1192.276, 3.103608
1192.758, 2.831579
1193.240, 2.572758
1193.722, 2.236934
1194.204, 2.238314
1194.687, 2.808966
1195.169, 3.279172
1195.651, 3.193682
1196.133, 2.855042
1196.615, 2.728724
1197.097, 2.793411
1197.579, 2.953499
1198.061, 3.200454
1198.543, 3.404885
1199.026, 3.538392
1199.508, 3.265732
1199.990, 2.505829
1200.472, 1.958902
1200.954, 2.229283
1201.436, 1.950816
1201.918, 2.741615
1202.400, 2.472621
1202.883, 2.973620
1203.365, 3.831039
1203.847, 3.977669
1204.329, 3.455527
1204.811, 2.966446
1205.293, 2.780526
1205.775, 2.854348
1206.257, 3.452152
1206.740, 3.889769
1207.222, 3.372646
1207.704, 2.761950
1208.186, 2.928672
1208.668, 3.475212
1209.150, 3.852052
1209.632, 3.959399
1210.114, 3.723555
1210.596, 2.928887
1211.078, 2.456536
1211.561, 2.610373
1212.043, 2.924741
1212.525, 3.435329
1213.007, 3.875636
1213.489, 4.133182
1213.971, 4.174247
1214.453, 3.826617
1214.935, 3.139555
1215.417, 3.099298
1215.900, 4.027567
1216.382, 4.316053
1216.864, 3.709137
1217.346, 3.225740
1217.828, 3.202229
1218.310, 3.284997
1218.792, 3.210541
1219.274, 3.046792
1219.757, 2.856188
1220.239, 2.698266
1220.721, 3.042901
1221.203, 2.839606
1221.685, 2.667743
1222.167, 2.827345
1222.649, 2.257799
1223.131, 2.230508
1223.614, 2.335332
1224.096, 2.287369
1224.578, 2.157455
1225.060, 1.807676
1225.542, 1.612221
1226.024, 2.344768
1226.506, 3.346958
1226.988, 3.424283
1227.470, 2.811226
1227.953, 2.656071
1228.435, 3.293881
1228.917, 3.820068
1229.399, 3.693432
1229.881, 3.678177
1230.363, 4.231447
1230.845, 4.732768
1231.327, 4.947472
1231.810, 4.817791
1232.292, 3.979566
1232.774, 2.749898
1233.256, 2.464627
1233.738, 3.509640
1234.220, 3.778857
1234.702, 2.944926
1235.184, 2.433827
1235.667, 2.605660
1236.149, 2.683751
1236.631, 2.211010
1237.113, 1.736898
1237.595, 1.953222
1238.077, 2.619522
1238.559, 3.021787
1239.041, 3.219829
1239.523, 3.570751
1240.005, 4.028601
1240.488, 4.317998
1240.970, 4.364246
1241.452, 4.047758
1241.934, 3.301649
1242.416, 2.736818
1242.898, 3.156751
1243.380, 3.749320
1243.862, 3.606192
1244.344, 3.270762
1244.827, 3.515962
1245.309, 3.941965
1245.791, 3.651368
1246.273, 2.733853
1246.755, 2.265301
1247.237, 2.678652
1247.719, 2.988228
1248.201, 2.719211
1248.684, 2.674048
1249.166, 3.471891
1249.648, 4.105402
1250.130, 3.878700
1250.612, 3.294183
1251.094, 2.969708
1251.576, 2.899297
1252.058, 3.102983
1252.541, 3.658576
1253.023, 3.865942
1253.505, 3.666044
1253.987, 3.714988
1254.469, 4.177271
1254.951, 4.253748
1255.433, 3.458148
1255.915, 2.548101
1256.397, 2.491243
1256.880, 2.876439
1257.362, 2.875811
1257.844, 2.728131
1258.326, 2.970641
1258.808, 3.456666
1259.290, 3.827933
1259.772, 3.976305
1260.254, 3.798203
1260.737, 3.193248
1261.219, 2.735219
1261.701, 2.793471
1262.183, 2.982894
1262.665, 3.254266
1263.147, 3.443960
1263.629, 3.434225
1264.111, 3.273679
1264.594, 2.916413
1265.076, 2.453679
1265.558, 2.421677
1266.040, 2.221799
1266.522, 2.091771
1267.004, 2.412999
1267.486, 2.176061
1267.968, 2.846134
1268.450, 3.391615
1268.932, 3.271159
1269.415, 2.902523
1269.897, 2.729275
1270.379, 2.708599
1270.861, 2.721606
1271.343, 2.802925
1271.825, 3.151085
1272.307, 3.643056
1272.789, 3.863129
1273.271, 3.817289
1273.754, 3.877377
1274.236, 4.175822
1274.718, 4.333830
1275.200, 3.978879
1275.682, 3.602275
1276.164, 3.465733
1276.646, 3.444143
1277.128, 3.562361
1277.611, 3.656673
1278.093, 3.466891
1278.575, 3.509621
1279.057, 3.439924
1279.539, 3.259608
1280.021, 3.285671
1280.503, 2.963299
1280.985, 2.804455
1281.468, 2.903742
1281.950, 2.998630
1282.432, 2.983259
1282.914, 3.013021
1283.396, 3.246831
1283.878, 3.478064
1284.360, 3.209926
1284.842, 2.673873
1285.324, 2.523077
##END=



