##NAMES=Sylvanite
##RRUFFID=R070504
##IDEAL CHEMISTRY=AgAuTe_4_
##LOCALITY=Boulder County, Colorado, USA
##OWNER=RRUFF
##SOURCE=James Shigley
##DESCRIPTION=Columnar light yellow metallic crystals associated with quartz
##STATUS=The identification of this mineral has been confirmed by single-crystal X-ray diffraction.
##URL=rruff.info/R070504
172.0222, 0.0000000E+00
172.5043, 3.0556999E-02
172.9865, 5.524645
173.4686, 3.527368
173.9507, 0.6113530
174.4328, 3.093493
174.9149, 6.525576
175.3970, 11.13279
175.8792, 17.77581
176.3613, 21.17021
176.8434, 20.36382
177.3255, 15.78831
177.8076, 11.18263
178.2897, 3.173334
178.7719, 0.6072160
179.2540, 1.514015
179.7361, 1.424412
180.2182, 4.031454
180.7003, 11.97937
181.1824, 24.81234
181.6646, 35.45426
182.1467, 55.57812
182.6288, 69.25565
183.1109, 64.68537
183.5930, 48.32697
184.0751, 32.64058
184.5573, 28.12178
185.0394, 36.75299
185.5215, 43.22242
186.0036, 44.29318
186.4857, 43.77415
186.9678, 44.18517
187.4500, 44.52137
187.9321, 41.47405
188.4142, 30.93234
188.8963, 13.18989
189.3784, 3.049181
189.8605, 4.752013
190.3427, 8.267573
190.8248, 9.745921
191.3069, 10.18031
191.7890, 11.34383
192.2711, 17.56989
192.7532, 27.20839
193.2354, 32.60777
193.7175, 28.23859
194.1996, 24.48419
194.6817, 26.20040
195.1638, 31.29838
195.6459, 35.60788
196.1281, 36.59257
196.6102, 34.66086
197.0923, 31.70027
197.5744, 25.50029
198.0565, 20.31340
198.5386, 18.13341
199.0208, 18.23878
199.5029, 19.15972
199.9850, 19.89898
200.4671, 20.69342
200.9492, 22.04273
201.4313, 24.85216
201.9135, 25.61970
202.3956, 23.24110
202.8777, 18.33746
203.3598, 10.57998
203.8419, 0.9729550
204.3240, 2.486381
204.8061, 3.437080
205.2883, 7.637321
205.7704, 24.96687
206.2525, 26.26582
206.7346, 17.77952
207.2167, 11.08983
207.6988, 12.26449
208.1810, 17.99586
208.6631, 17.10313
209.1452, 0.8577710
209.6273, 3.393811
210.1094, 6.530163
210.5915, 3.935943
211.0737, 8.811506
211.5558, 2.433771
212.0379, 4.048642
212.5200, 2.812033
213.0021, 2.644956
213.4842, 0.6522960
213.9664, 4.780272
214.4485, 6.763958
214.9306, 14.28635
215.4127, 20.36456
215.8948, 21.92184
216.3769, 22.02001
216.8591, 20.97778
217.3412, 18.08177
217.8233, 9.556990
218.3054, 0.8071210
218.7875, 1.160259
219.2696, 5.756335
219.7518, 17.18943
220.2339, 26.33518
220.7160, 33.17258
221.1981, 37.39206
221.6802, 37.13318
222.1623, 35.23433
222.6445, 34.14359
223.1266, 34.50300
223.6087, 35.77445
224.0908, 37.06268
224.5729, 38.11261
225.0550, 39.98437
225.5372, 43.55104
226.0193, 47.43608
226.5014, 50.84678
226.9835, 53.48029
227.4656, 54.79966
227.9477, 53.83587
228.4298, 49.21732
228.9120, 48.72255
229.3941, 58.87669
229.8762, 67.51548
230.3583, 63.75448
230.8404, 49.02745
231.3225, 35.14878
231.8047, 33.40623
232.2868, 46.13380
232.7689, 54.29467
233.2510, 57.02742
233.7331, 56.90680
234.2152, 53.38486
234.6974, 47.63292
235.1795, 42.22684
235.6616, 38.67921
236.1437, 36.83451
236.6258, 41.85310
237.1079, 64.51212
237.5901, 82.40664
238.0722, 86.13084
238.5543, 79.21942
239.0364, 70.04766
239.5185, 63.70560
240.0006, 60.01701
240.4828, 56.96029
240.9649, 52.18253
241.4470, 50.55848
241.9291, 59.49834
242.4112, 70.91697
242.8933, 70.62212
243.3755, 50.29784
243.8576, 18.23750
244.3397, 3.587067
244.8218, 24.26474
245.3039, 41.60658
245.7860, 52.67496
246.2682, 58.85334
246.7503, 60.95413
247.2324, 59.44622
247.7145, 56.27184
248.1966, 55.80439
248.6787, 63.63726
249.1609, 64.25663
249.6430, 49.87061
250.1251, 33.23875
250.6072, 24.07767
251.0893, 24.87102
251.5714, 32.34356
252.0535, 43.01683
252.5357, 60.41467
253.0178, 72.45003
253.4999, 79.10139
253.9820, 80.98933
254.4641, 75.76896
254.9462, 64.69058
255.4284, 53.54972
255.9105, 49.52982
256.3926, 54.54105
256.8747, 56.04387
257.3568, 49.55854
257.8390, 43.83245
258.3211, 39.88081
258.8032, 38.59664
259.2853, 41.69893
259.7674, 53.56788
260.2495, 73.40586
260.7317, 81.78671
261.2138, 68.40820
261.6959, 55.24625
262.1780, 49.41039
262.6601, 49.46926
263.1422, 52.68454
263.6244, 57.44704
264.1065, 62.55351
264.5886, 63.96133
265.0707, 59.77340
265.5528, 55.73729
266.0349, 55.21305
266.5170, 55.15575
266.9991, 51.00945
267.4813, 39.86209
267.9634, 27.35819
268.4455, 24.53598
268.9276, 34.28789
269.4097, 39.73271
269.8918, 26.98521
270.3740, 11.02052
270.8561, 4.666003
271.3382, 11.51000
271.8203, 23.95012
272.3024, 37.52658
272.7845, 51.91406
273.2667, 58.44926
273.7488, 49.74319
274.2309, 36.41600
274.7130, 28.51219
275.1951, 26.43745
275.6772, 26.07299
276.1594, 24.28391
276.6415, 22.03240
277.1236, 23.67168
277.6057, 32.15438
278.0878, 40.25279
278.5699, 38.48263
279.0521, 28.75585
279.5342, 23.44404
280.0163, 32.60035
280.4984, 46.91088
280.9805, 51.08244
281.4626, 42.82765
281.9448, 31.63231
282.4269, 23.76317
282.9090, 19.01824
283.3911, 16.23988
283.8732, 15.10179
284.3553, 16.13576
284.8375, 20.64282
285.3196, 28.20682
285.8017, 36.37060
286.2838, 45.12305
286.7659, 52.67357
287.2480, 52.87972
287.7302, 37.85650
288.2123, 24.96094
288.6944, 23.71482
289.1765, 29.68493
289.6586, 32.34311
290.1407, 26.72918
290.6229, 17.93446
291.1050, 17.25689
291.5871, 30.90077
292.0692, 38.80648
292.5513, 35.28437
293.0334, 26.21348
293.5156, 16.42652
293.9977, 7.457819
294.4798, 1.702621
294.9619, 3.095886
295.4440, 15.60958
295.9261, 23.92718
296.4083, 25.29788
296.8904, 25.32945
297.3725, 27.86787
297.8546, 31.81805
298.3367, 33.81869
298.8188, 30.12735
299.3010, 20.17006
299.7831, 15.05977
300.2652, 18.63525
300.7473, 22.77966
301.2294, 26.13052
301.7115, 28.13629
302.1937, 28.15950
302.6758, 25.72022
303.1579, 21.57901
303.6400, 18.67773
304.1221, 16.97359
304.6042, 16.75741
305.0864, 18.42567
305.5685, 21.23990
306.0506, 25.52677
306.5327, 31.34760
307.0148, 35.89695
307.4969, 33.33672
307.9791, 20.53679
308.4612, 12.34633
308.9433, 16.23468
309.4254, 21.51057
309.9075, 22.18427
310.3896, 17.98362
310.8718, 12.63909
311.3539, 8.349257
311.8360, 5.214109
312.3181, 4.836180
312.8002, 9.804430
313.2823, 13.87524
313.7644, 13.61552
314.2466, 9.863288
314.7287, 4.224491
315.2108, 7.548337
315.6929, 3.370577
316.1750, 0.2515550
316.6571, 6.691441
317.1393, 26.49181
317.6214, 32.33869
318.1035, 28.97838
318.5856, 24.49067
319.0677, 18.84488
319.5498, 13.75249
320.0320, 10.67493
320.5141, 9.410942
320.9962, 9.466415
321.4783, 11.18704
321.9604, 12.66387
322.4425, 8.637132
322.9247, 3.055018
323.4068, 3.562218
323.8889, 3.686073
324.3710, 7.750034
324.8531, 13.96099
325.3352, 12.95427
325.8174, 9.294201
326.2995, 7.354897
326.7816, 7.985675
327.2637, 7.319508
327.7458, 4.194679
328.2279, 0.7480920
328.7101, 1.887009
329.1922, 3.534786
329.6743, 4.497372
330.1564, 5.124541
330.6385, 4.834140
331.1206, 1.307847
331.6028, 11.01136
332.0849, 20.03860
332.5670, 23.40473
333.0491, 22.66404
333.5312, 18.83337
334.0133, 12.31174
334.4955, 5.141803
334.9776, 0.9749980
335.4597, 0.1020880
335.9418, 2.072513
336.4239, 12.37125
336.9060, 21.69434
337.3882, 23.60823
337.8703, 18.26198
338.3524, 11.03975
338.8345, 5.242433
339.3166, 0.8697140
339.7987, 0.3763720
340.2809, 6.967755
340.7630, 12.76024
341.2451, 11.88385
341.7272, 7.979496
342.2093, 8.631950
342.6914, 20.21244
343.1736, 35.23957
343.6557, 38.74818
344.1378, 28.58845
344.6199, 19.73985
345.1020, 19.94444
345.5841, 23.85854
346.0663, 25.49833
346.5484, 24.73091
347.0305, 20.39863
347.5126, 5.889623
347.9947, 5.334976
348.4768, 10.39967
348.9590, 0.7886160
349.4411, 22.48691
349.9232, 28.78033
350.4053, 18.24954
350.8874, 11.43519
351.3695, 16.03379
351.8517, 23.18655
352.3338, 25.45777
352.8159, 22.37927
353.2980, 15.36572
353.7801, 3.715204
354.2622, 4.049432
354.7444, 8.318657
355.2265, 0.5399950
355.7086, 13.53557
356.1907, 20.89634
356.6728, 23.48555
357.1549, 24.29363
357.6371, 24.66952
358.1192, 24.17923
358.6013, 20.93937
359.0834, 11.55767
359.5655, 6.257111
360.0476, 7.006322
360.5298, 9.646652
361.0119, 11.34510
361.4940, 12.14988
361.9761, 14.35122
362.4582, 21.55396
362.9403, 33.28547
363.4224, 36.00073
363.9045, 21.50245
364.3867, 8.675532
364.8688, 3.613149
365.3509, 4.291053
365.8330, 8.716508
366.3151, 17.65069
366.7972, 26.10212
367.2794, 24.22711
367.7615, 10.59185
368.2436, 1.173064
368.7257, 2.929995
369.2078, 9.268877
369.6899, 14.05161
370.1721, 17.11486
370.6542, 17.34049
371.1363, 10.30687
371.6184, 0.6719520
372.1005, 0.1540010
372.5826, 11.06416
373.0648, 21.63078
373.5469, 23.24608
374.0290, 16.68772
374.5111, 14.07246
374.9932, 19.90010
375.4753, 25.63854
375.9575, 26.66011
376.4396, 23.58717
376.9217, 17.91079
377.4038, 9.917073
377.8859, 1.269272
378.3680, 1.277774
378.8502, 0.6790540
379.3323, 2.395564
379.8144, 13.48909
380.2965, 29.54888
380.7786, 33.46211
381.2607, 24.44319
381.7429, 10.51961
382.2250, 0.5594080
382.7071, 4.650753
383.1892, 8.581611
383.6713, 0.7640090
384.1534, 1.222522
384.6356, 4.240968
385.1177, 4.065342
385.5998, 1.450765
386.0819, 0.7239610
386.5640, 4.085070
387.0461, 0.9602450
387.5283, 12.37970
388.0104, 25.40330
388.4925, 30.11789
388.9746, 29.25492
389.4567, 22.65170
389.9388, 10.26559
390.4210, 0.3960490
390.9031, 0.4159540
391.3852, 4.542003
391.8673, 7.939128
392.3494, 8.848544
392.8315, 9.429129
393.3137, 12.21636
393.7958, 16.29388
394.2779, 16.60877
394.7600, 9.618757
395.2421, 2.051994
395.7242, 3.563636
396.2064, 0.2974840
396.6885, 9.1424003E-02
397.1706, 2.984659
397.6527, 1.296777
398.1348, 7.681664
398.6169, 17.03918
399.0991, 22.83204
399.5812, 22.05966
400.0633, 20.24820
400.5454, 22.34069
401.0275, 27.45941
401.5096, 30.48178
401.9918, 26.74160
402.4739, 17.10124
402.9560, 9.760914
403.4381, 3.776938
403.9202, 1.955409
404.4023, 7.002448
404.8845, 15.09682
405.3666, 22.83154
405.8487, 28.91042
406.3308, 32.10438
406.8129, 30.45788
407.2950, 23.68232
407.7772, 17.87000
408.2593, 13.23553
408.7414, 10.96851
409.2235, 13.97267
409.7056, 20.75322
410.1877, 24.26404
410.6699, 18.53508
411.1520, 10.57302
411.6341, 8.475385
412.1162, 11.61876
412.5983, 15.58959
413.0804, 19.72967
413.5625, 22.61772
414.0446, 20.10323
414.5268, 7.540348
415.0089, 1.199180
415.4910, 3.541449
415.9731, 0.9092610
416.4552, 8.348658
416.9373, 23.01657
417.4195, 34.57574
417.9016, 32.57191
418.3837, 15.88758
418.8658, 5.069736
419.3479, 2.322694
419.8300, 3.286952
420.3122, 10.63908
420.7943, 19.97590
421.2764, 24.30638
421.7585, 20.35584
422.2406, 14.25571
422.7227, 18.00830
423.2049, 34.14158
423.6870, 42.99813
424.1691, 37.56879
424.6512, 27.25600
425.1333, 17.17091
425.6154, 8.415310
426.0976, 2.455181
426.5797, 0.5022410
427.0618, 0.4085910
427.5439, 3.563332
428.0260, 11.39086
428.5081, 14.51498
428.9903, 5.195385
429.4724, 2.834088
429.9545, 5.051004
430.4366, 5.367410
430.9187, 21.30698
431.4008, 30.40460
431.8830, 33.92297
432.3651, 31.75205
432.8472, 24.51897
433.3293, 16.25322
433.8114, 10.62805
434.2935, 7.555052
434.7757, 8.227392
435.2578, 18.30554
435.7399, 25.76390
436.2220, 25.95339
436.7041, 22.23784
437.1862, 19.25544
437.6684, 19.28882
438.1505, 19.37295
438.6326, 14.09623
439.1147, 2.348338
439.5968, 3.858971
440.0789, 2.815611
440.5611, 1.793923
441.0432, 5.907256
441.5253, 10.03641
442.0074, 14.27016
442.4895, 19.51709
442.9716, 24.34534
443.4538, 27.27404
443.9359, 28.02822
444.4180, 25.69551
444.9001, 18.73342
445.3822, 10.95283
445.8643, 10.89529
446.3465, 23.01273
446.8286, 31.39678
447.3107, 31.64017
447.7928, 28.08303
448.2749, 23.28684
448.7570, 18.24153
449.2392, 14.66667
449.7213, 13.76315
450.2034, 15.43933
450.6855, 18.93719
451.1676, 29.51188
451.6497, 34.55964
452.1319, 27.50964
452.6140, 16.82152
453.0961, 10.76642
453.5782, 11.01916
454.0603, 14.02956
454.5424, 16.54548
455.0246, 18.48173
455.5067, 19.13746
455.9888, 16.92820
456.4709, 15.52988
456.9530, 19.22581
457.4352, 25.36298
457.9173, 28.27159
458.3994, 23.47135
458.8815, 19.54388
459.3636, 25.78543
459.8457, 37.44010
460.3279, 41.57963
460.8100, 33.72232
461.2921, 21.00084
461.7742, 12.22462
462.2563, 7.477918
462.7384, 7.665200
463.2205, 17.94328
463.7026, 27.69454
464.1848, 31.33988
464.6669, 30.66250
465.1490, 29.81528
465.6311, 31.12385
466.1132, 33.36207
466.5953, 33.90905
467.0775, 32.47113
467.5596, 30.28123
468.0417, 24.15075
468.5238, 19.89495
469.0059, 23.99180
469.4880, 34.04189
469.9702, 39.56094
470.4523, 31.84362
470.9344, 18.09443
471.4165, 8.673549
471.8986, 3.581933
472.3807, 2.018448
472.8629, 5.060123
473.3450, 9.655208
473.8271, 9.075833
474.3092, 0.3975790
474.7913, 2.999155
475.2734, 7.016619
475.7556, 19.48902
476.2377, 23.49636
476.7198, 19.38368
477.2019, 15.81824
477.6840, 19.19226
478.1661, 27.75971
478.6483, 32.98378
479.1304, 35.67716
479.6125, 33.17847
480.0946, 18.01780
480.5767, 3.128873
481.0588, 2.250757
481.5410, 15.10733
482.0231, 25.43310
482.5052, 13.58023
482.9873, 4.563671
483.4694, 8.143929
483.9515, 8.379135
484.4337, 29.26303
484.9158, 31.28192
485.3979, 21.43247
485.8800, 15.46976
486.3621, 13.94677
486.8442, 15.26700
487.3264, 20.72539
487.8085, 27.39902
488.2906, 32.50510
488.7727, 34.68604
489.2548, 33.44323
489.7369, 27.47089
490.2191, 17.43050
490.7012, 13.65565
491.1833, 26.68590
491.6654, 33.17483
492.1475, 23.55205
492.6296, 9.682149
493.1118, 3.522599
493.5939, 7.311873
494.0760, 14.66517
494.5581, 21.16000
495.0402, 26.29209
495.5223, 26.25429
496.0045, 19.50651
496.4866, 11.60709
496.9687, 4.279665
497.4508, 2.011915
497.9329, 2.205153
498.4150, 2.612303
498.8972, 2.106556
499.3793, 4.672257
499.8614, 12.48816
500.3435, 16.91569
500.8256, 17.12568
501.3077, 13.66657
501.7899, 5.893413
502.2720, 1.527576
502.7541, 3.098871
503.2362, 0.3286510
503.7183, 7.949291
504.2004, 11.38881
504.6826, 11.94692
505.1647, 10.82666
505.6468, 8.666812
506.1289, 7.443317
506.6110, 9.668012
507.0931, 14.85361
507.5753, 19.58680
508.0574, 24.22341
508.5395, 27.24811
509.0216, 27.89188
509.5037, 26.27493
509.9858, 22.32565
510.4680, 13.87564
510.9501, 7.527755
511.4322, 6.511943
511.9143, 9.276623
512.3964, 13.80447
512.8785, 19.53680
513.3607, 25.49168
513.8428, 31.07025
514.3249, 36.12289
514.8070, 38.67655
515.2891, 37.07891
515.7712, 34.87926
516.2534, 32.03510
516.7355, 29.07091
517.2176, 25.54046
517.6997, 21.83481
518.1818, 20.46481
518.6639, 27.10056
519.1461, 38.30524
519.6282, 38.28798
520.1103, 24.36124
520.5924, 12.86239
521.0745, 13.19395
521.5566, 19.56323
522.0388, 18.69097
522.5209, 7.490990
523.0030, 1.826659
523.4851, 2.038974
523.9672, 2.994526
524.4493, 3.033184
524.9315, 3.116873
525.4136, 1.386215
525.8957, 4.524689
526.3778, 13.81641
526.8599, 24.61720
527.3420, 44.22234
527.8242, 52.03270
528.3063, 34.32207
528.7884, 14.68244
529.2705, 12.92656
529.7526, 27.01945
530.2347, 36.43773
530.7169, 23.08636
531.1990, 0.2034970
531.6811, 2.845520
532.1632, 2.832447
532.6453, 2.551437
533.1274, 1.380000
533.6096, 1.826137
534.0917, 1.209793
534.5738, 11.64271
535.0559, 21.80887
535.5380, 36.48772
536.0201, 45.69896
536.5022, 38.28820
536.9843, 20.24362
537.4664, 6.081677
537.9485, 2.888747
538.4307, 6.612341
538.9128, 9.799519
539.3949, 12.61158
539.8770, 14.30722
540.3591, 14.13965
540.8412, 13.00060
541.3234, 11.34156
541.8055, 10.76876
542.2876, 11.87264
542.7697, 15.69155
543.2518, 20.45219
543.7339, 27.04086
544.2161, 33.34739
544.6982, 31.33161
545.1803, 18.42456
545.6624, 5.043396
546.1445, 2.883327
546.6266, 12.83857
547.1088, 18.76499
547.5909, 16.98554
548.0730, 16.01367
548.5551, 17.86354
549.0372, 21.64965
549.5193, 28.37432
550.0015, 37.43615
550.4836, 42.43354
550.9657, 32.06242
551.4478, 9.999049
551.9299, 2.222025
552.4120, 12.94686
552.8942, 23.59467
553.3763, 24.50282
553.8584, 19.67191
554.3405, 17.35104
554.8226, 18.40448
555.3047, 19.15323
555.7869, 17.82545
556.2690, 16.34465
556.7511, 16.44691
557.2332, 18.26182
557.7153, 21.77176
558.1974, 27.51997
558.6796, 33.47937
559.1617, 32.88997
559.6438, 21.89333
560.1259, 13.73492
560.6080, 9.658846
561.0901, 9.856893
561.5723, 17.22200
562.0544, 28.68110
562.5365, 35.52340
563.0186, 32.87894
563.5007, 26.07526
563.9828, 18.70465
564.4650, 11.74785
564.9471, 10.37651
565.4292, 16.86206
565.9113, 23.33254
566.3934, 20.10967
566.8755, 5.878695
567.3577, 3.002972
567.8398, 2.342091
568.3219, 2.129363
568.8040, 3.018814
569.2861, 17.74390
569.7682, 25.93456
570.2504, 25.57469
570.7325, 23.08244
571.2146, 25.77963
571.6967, 31.97731
572.1788, 32.70912
572.6609, 26.85553
573.1431, 20.28831
573.6252, 14.37637
574.1073, 10.26569
574.5894, 10.71732
575.0715, 17.64856
575.5536, 21.75286
576.0358, 20.91978
576.5179, 16.51326
577.0000, 5.463731
577.4821, 2.147161
577.9642, 6.171339
578.4464, 0.3164780
578.9285, 20.27233
579.4106, 29.47776
579.8927, 25.82700
580.3748, 19.06452
580.8569, 4.496980
581.3391, 0.5788540
581.8212, 0.7801640
582.3033, 3.069769
582.7854, 9.440022
583.2675, 9.445815
583.7496, 9.992715
584.2318, 18.91553
584.7139, 30.35734
585.1960, 33.69350
585.6781, 27.35126
586.1602, 16.89935
586.6423, 5.949312
587.1245, 2.739286
587.6066, 0.9764960
588.0887, 9.150172
588.5708, 20.05561
589.0529, 20.92950
589.5350, 18.51828
590.0172, 19.50532
590.4993, 23.46332
590.9814, 24.46515
591.4635, 14.32970
591.9456, 2.915341
592.4277, 7.801547
592.9099, 25.81650
593.3920, 35.90851
593.8741, 30.53820
594.3562, 18.54443
594.8383, 9.819866
595.3204, 4.145683
595.8026, 3.640954
596.2847, 15.09797
596.7668, 23.11130
597.2489, 18.63406
597.7310, 10.26279
598.2131, 10.22791
598.6953, 20.53033
599.1774, 30.12777
599.6595, 25.17908
600.1416, 10.54982
600.6237, 6.169723
601.1058, 13.32822
601.5880, 20.78905
602.0701, 23.83980
602.5522, 24.20807
603.0343, 25.27364
603.5164, 27.99809
603.9985, 27.45469
604.4807, 18.29742
604.9628, 10.81008
605.4449, 13.37999
605.9270, 21.01402
606.4091, 23.17776
606.8912, 15.53475
607.3734, 4.657003
607.8555, 1.181248
608.3376, 2.022506
608.8197, 1.938268
609.3018, 13.64425
609.7839, 22.78719
610.2661, 22.12061
610.7482, 15.73963
611.2303, 12.28320
611.7124, 12.84581
612.1945, 13.69839
612.6766, 14.04904
613.1588, 14.19778
613.6409, 14.12073
614.1230, 14.04829
614.6051, 14.74352
615.0872, 16.70562
615.5693, 18.98307
616.0515, 19.71648
616.5336, 18.79300
617.0157, 17.07694
617.4978, 14.67489
617.9799, 11.39769
618.4620, 4.712886
618.9442, 2.556597
619.4263, 1.289523
619.9084, 5.001529
620.3905, 12.63820
620.8726, 12.25138
621.3547, 8.321770
621.8369, 5.099884
622.3190, 3.630531
622.8011, 5.168226
623.2832, 10.86184
623.7653, 19.04218
624.2474, 25.66420
624.7296, 31.72753
625.2117, 32.02513
625.6938, 19.35691
626.1759, 8.767600
626.6580, 11.62852
627.1401, 23.35837
627.6223, 32.84604
628.1044, 37.85344
628.5865, 39.46431
629.0686, 34.04595
629.5507, 27.74827
630.0328, 32.64003
630.5150, 48.50244
630.9971, 58.95567
631.4792, 50.89752
631.9613, 29.36608
632.4434, 13.33939
632.9255, 3.173925
633.4077, 1.411532
633.8898, 3.664459
634.3719, 9.575265
634.8539, 11.36910
635.3361, 9.374089
635.8182, 6.113986
636.3003, 4.4528998E-02
636.7824, 2.254959
637.2645, 9.425103
637.7466, 26.31808
638.2288, 31.20115
638.7109, 22.54156
639.1930, 15.13508
639.6751, 22.67887
640.1572, 40.08442
640.6393, 40.55806
641.1215, 13.18278
641.6036, 0.6255530
642.0857, 0.6344740
642.5678, 10.00569
643.0499, 12.11804
643.5320, 8.571186
644.0142, 6.247339
644.4963, 8.379282
644.9784, 10.41131
645.4605, 8.735192
645.9426, 5.812297
646.4247, 6.078601
646.9069, 9.802109
647.3890, 11.70340
647.8711, 6.805633
648.3532, 2.309250
648.8353, 1.958224
649.3174, 6.751685
649.7996, 15.34122
650.2817, 19.03811
650.7638, 21.62964
651.2459, 25.15543
651.7280, 29.54449
652.2101, 34.87830
652.6923, 46.05432
653.1744, 51.00293
653.6565, 35.13762
654.1386, 11.45455
654.6207, 1.181928
655.1028, 6.079040
655.5850, 11.60597
656.0671, 6.186835
656.5492, 0.1030240
657.0313, 0.4097810
657.5134, 10.04862
657.9955, 21.12340
658.4777, 23.05640
658.9598, 20.97852
659.4419, 17.92402
659.9240, 14.44452
660.4061, 11.47366
660.8882, 10.07150
661.3704, 7.795318
661.8525, 1.054734
662.3346, 4.006176
662.8167, 1.682871
663.2988, 14.35707
663.7809, 30.44918
664.2631, 36.43053
664.7452, 34.16501
665.2273, 26.39792
665.7094, 11.54680
666.1915, 1.399650
666.6736, 0.9358670
667.1558, 0.7514300
667.6379, 1.040151
668.1200, 1.509396
668.6021, 1.522449
669.0842, 1.698479
669.5663, 0.1427050
670.0485, 6.893743
670.5306, 13.55548
671.0127, 13.62018
671.4948, 8.769219
671.9769, 5.376437
672.4590, 6.926136
672.9412, 11.26433
673.4233, 16.19119
673.9054, 21.57841
674.3875, 20.64867
674.8696, 10.05860
675.3517, 1.919378
675.8339, 5.039050
676.3160, 15.08895
676.7981, 20.19021
677.2802, 19.27157
677.7623, 17.72353
678.2444, 15.73880
678.7266, 13.40207
679.2087, 9.831084
679.6908, 6.151955
680.1729, 4.460306
680.6550, 5.573195
681.1371, 8.455428
681.6193, 13.17593
682.1014, 18.73457
682.5835, 20.84758
683.0656, 19.05424
683.5477, 17.91446
684.0298, 19.82455
684.5120, 23.23453
684.9941, 26.08430
685.4762, 29.51807
685.9583, 26.64221
686.4404, 6.670152
686.9225, 1.605190
687.4047, 0.1010770
687.8868, 15.62785
688.3689, 26.08737
688.8510, 28.29712
689.3331, 24.55349
689.8152, 11.16765
690.2974, 0.9368130
690.7795, 4.360956
691.2616, 0.5431290
691.7437, 1.599934
692.2258, 11.58905
692.7079, 19.69214
693.1901, 20.07299
693.6722, 12.52593
694.1543, 7.614290
694.6364, 5.717297
695.1185, 5.004385
695.6006, 5.662826
696.0828, 6.412532
696.5649, 4.866231
697.0470, 1.753595
697.5291, 2.535827
698.0112, 15.01786
698.4933, 26.18903
698.9755, 23.95048
699.4576, 14.99541
699.9397, 11.02298
700.4218, 13.86996
700.9039, 19.47359
701.3860, 25.05097
701.8682, 30.03675
702.3503, 33.11520
702.8324, 34.70810
703.3145, 31.20673
703.7966, 18.32605
704.2787, 6.169188
704.7609, 2.737918
705.2430, 6.381606
705.7251, 11.22073
706.2072, 19.23309
706.6893, 24.46843
707.1714, 23.41130
707.6536, 20.84070
708.1357, 21.05284
708.6178, 23.29699
709.0999, 24.67273
709.5820, 23.85929
710.0641, 21.56898
710.5463, 18.37936
711.0284, 14.46850
711.5105, 9.970258
711.9926, 4.775100
712.4747, 1.811593
712.9568, 3.082849
713.4390, 6.715576
713.9211, 9.432981
714.4032, 12.08216
714.8853, 10.44909
715.3674, 2.781866
715.8495, 4.786994
716.3317, 0.1971870
716.8138, 3.880595
717.2959, 12.23883
717.7780, 17.30095
718.2601, 20.08463
718.7422, 20.13171
719.2244, 19.01171
719.7065, 18.13536
720.1886, 17.18544
720.6707, 16.00813
721.1528, 14.44311
721.6349, 13.86742
722.1171, 16.28555
722.5992, 20.94720
723.0813, 22.04451
723.5634, 17.85867
724.0455, 17.37095
724.5276, 25.12680
725.0098, 32.76454
725.4919, 32.37686
725.9740, 25.41583
726.4561, 17.36623
726.9382, 3.607803
727.4203, 2.085936
727.9025, 0.6212970
728.3846, 7.812665
728.8667, 16.26116
729.3488, 23.41739
729.8309, 28.10663
730.3130, 29.88899
730.7952, 28.13106
731.2773, 18.34906
731.7594, 4.144804
732.2415, 0.9923300
732.7236, 10.43666
733.2057, 18.52600
733.6878, 17.25994
734.1699, 12.07333
734.6520, 14.30308
735.1342, 27.39628
735.6163, 35.12886
736.0984, 35.28740
736.5805, 32.60369
737.0626, 24.69774
737.5447, 16.87049
738.0269, 16.29306
738.5090, 23.32399
738.9911, 28.38555
739.4732, 26.28913
739.9553, 21.80694
740.4374, 18.51175
740.9196, 15.57897
741.4017, 10.00426
741.8838, 2.042740
742.3659, 2.790140
742.8480, 0.6614350
743.3301, 9.779306
743.8123, 18.02283
744.2944, 25.52060
744.7765, 28.70335
745.2586, 26.32720
745.7407, 23.37025
746.2228, 24.81128
746.7050, 28.67533
747.1871, 26.50846
747.6692, 10.16494
748.1513, 1.123901
748.6334, 5.184755
749.1155, 11.92062
749.5977, 18.34855
750.0798, 22.08786
750.5619, 18.19415
751.0440, 4.617999
751.5261, 1.070516
752.0082, 4.834362
752.4904, 20.28725
752.9725, 20.95411
753.4546, 10.36490
753.9367, 3.066498
754.4188, 4.078258
754.9009, 8.926972
755.3831, 13.26425
755.8652, 16.73401
756.3473, 16.50806
756.8294, 11.25941
757.3115, 7.982373
757.7936, 9.494838
758.2758, 11.90900
758.7579, 11.45394
759.2400, 8.478822
759.7221, 6.352923
760.2042, 4.276077
760.6863, 4.191019
761.1685, 8.596038
761.6506, 13.21818
762.1327, 14.41037
762.6148, 13.21457
763.0969, 12.84333
763.5790, 14.66415
764.0612, 16.67770
764.5433, 15.70519
765.0254, 14.36613
765.5075, 19.22194
765.9896, 28.86926
766.4717, 34.25421
766.9539, 31.31878
767.4360, 25.80298
767.9181, 26.04824
768.4002, 31.83778
768.8823, 32.00584
769.3644, 24.85779
769.8466, 16.98070
770.3287, 8.351084
770.8108, 1.970436
771.2929, 3.332608
771.7750, 11.27909
772.2571, 13.06048
772.7393, 0.5442160
773.2214, 2.685653
773.7035, 0.7876590
774.1856, 0.7611280
774.6677, 3.120173
775.1498, 4.747165
775.6320, 4.389930
776.1141, 1.489991
776.5962, 2.8003000E-02
777.0783, 5.604640
777.5604, 14.10563
778.0425, 18.17335
778.5247, 18.07540
779.0068, 18.62014
779.4889, 21.92335
779.9710, 23.34959
780.4531, 14.66705
780.9352, 1.869724
781.4174, 4.603484
781.8995, 1.258014
782.3816, 5.255146
782.8637, 4.248356
783.3458, 0.4477970
783.8279, 1.862226
784.3101, 1.774111
784.7922, 1.144048
785.2743, 0.4649090
785.7564, 0.4285530
786.2385, 0.5025930
786.7206, 7.134676
787.2028, 17.49406
787.6849, 27.69855
788.1670, 28.24608
788.6491, 13.88459
789.1312, 0.2076740
789.6133, 3.5266001E-02
790.0955, 5.806194
790.5776, 9.582522
791.0597, 0.8193720
791.5418, 13.85227
792.0239, 22.10117
792.5060, 24.27281
792.9882, 2.165995
793.4703, 11.40963
793.9524, 8.089230
794.4345, 4.253381
794.9166, 17.90897
795.3987, 0.6671430
795.8809, 12.71105
796.3630, 13.33431
796.8451, 19.79513
797.3272, 13.61923
797.8093, 11.34303
798.2914, 21.71208
798.7736, 25.07910
799.2557, 17.44256
799.7378, 24.27365
800.2199, 5.051783
800.7020, 8.716405
801.1841, 22.16753
801.6663, 15.16594
802.1484, 22.22732
802.6305, 23.93384
803.1126, 1.299082
803.5947, 20.99579
804.0768, 22.38531
804.5590, 5.100915
805.0411, 23.49703
805.5232, 8.680081
806.0053, 5.665138
806.4874, 11.53335
806.9695, 8.143804
807.4517, 19.35091
807.9338, 16.49569
808.4159, 12.38384
808.8980, 13.81233
809.3801, 9.1278002E-02
809.8622, 14.64162
810.3444, 9.609776
810.8265, 14.36476
811.3086, 21.33811
811.7907, 11.32484
812.2728, 19.29445
812.7549, 0.6235350
813.2371, 2.792130
813.7192, 3.694823
814.2013, 19.63675
814.6834, 2.2409000E-02
815.1655, 2.743747
815.6476, 15.11131
816.1298, 14.04369
816.6119, 18.59310
817.0940, 6.637848
817.5761, 10.30395
818.0582, 9.539315
818.5403, 23.65384
819.0225, 26.02136
819.5046, 14.22246
819.9867, 2.483564
820.4688, 17.66935
820.9509, 7.452653
821.4330, 11.02000
821.9152, 0.3199770
822.3973, 1.811049
822.8794, 3.107047
823.3615, 10.69614
823.8436, 0.7979790
824.3257, 12.46038
824.8079, 11.41153
825.2900, 14.57673
825.7721, 17.27287
826.2542, 0.7702620
826.7363, 5.3820000E-03
827.2184, 21.75974
827.7006, 9.169966
828.1827, 3.511640
828.6648, 2.780612
829.1469, 25.30507
829.6290, 26.21323
830.1111, 1.283557
830.5933, 22.78215
831.0754, 15.35093
831.5575, 16.54445
832.0396, 14.82932
832.5217, 14.07513
833.0038, 1.659902
833.4859, 4.610994
833.9680, 20.06153
834.4501, 14.20442
834.9323, 22.82202
835.4144, 5.060720
835.8965, 2.957166
836.3786, 5.009291
836.8607, 8.576960
837.3428, 3.3093002E-02
837.8250, 15.70938
838.3071, 15.25858
838.7892, 0.6656020
839.2713, 0.9469300
839.7534, 0.8569830
840.2355, 23.56300
840.7177, 11.95385
841.1998, 0.6588490
841.6819, 12.20481
842.1640, 17.29981
842.6461, 10.01294
843.1282, 9.272799
843.6104, 0.4376120
844.0925, 2.190159
844.5746, 1.713812
845.0567, 12.17987
845.5388, 0.7998460
846.0209, 13.09535
846.5031, 0.7407770
846.9852, 15.87291
847.4673, 3.564571
847.9494, 15.62182
848.4315, 0.7979130
848.9136, 1.584626
849.3958, 7.029471
849.8779, 17.96978
850.3600, 7.780478
850.8421, 20.02365
851.3242, 12.58021
851.8063, 17.95011
852.2885, 16.21427
852.7706, 5.618968
853.2527, 20.17329
853.7348, 11.87932
854.2169, 18.90961
854.6990, 0.9122120
855.1812, 13.33000
855.6633, 19.19919
856.1454, 23.71926
856.6275, 8.513189
857.1096, 6.142832
857.5917, 4.508651
858.0739, 8.141163
858.5560, 17.55429
859.0381, 24.82106
859.5202, 24.22369
860.0023, 18.46380
860.4844, 13.13917
860.9666, 8.237494
861.4487, 3.433948
861.9308, 0.3697550
862.4129, 0.6354870
862.8950, 4.790469
863.3771, 14.48375
863.8593, 16.10343
864.3414, 9.662164
864.8235, 6.320289
865.3056, 9.876630
865.7877, 10.20191
866.2698, 0.5036270
866.7520, 5.688654
867.2341, 0.7684260
867.7162, 14.47147
868.1983, 20.29318
868.6804, 11.52006
869.1625, 6.992697
869.6447, 17.82894
870.1268, 25.79181
870.6089, 17.71057
871.0910, 4.156445
871.5731, 7.4033998E-02
872.0552, 1.255723
872.5374, 2.657301
873.0195, 9.998849
873.5016, 14.50174
873.9837, 7.317280
874.4658, 0.1736660
874.9479, 0.2420950
875.4301, 5.463404
875.9122, 13.22655
876.3943, 17.59348
876.8764, 18.09873
877.3585, 11.69355
877.8406, 2.244734
878.3228, 0.1020880
878.8049, 0.6000280
879.2870, 0.8053550
879.7691, 2.995762
880.2512, 7.788519
880.7333, 13.28979
881.2155, 17.93468
881.6976, 16.56644
882.1797, 9.432588
882.6618, 10.42588
883.1439, 21.55190
883.6260, 30.55067
884.1082, 33.05759
884.5903, 30.29213
885.0724, 22.52015
885.5545, 10.40237
886.0366, 4.212231
886.5187, 6.440144
887.0009, 8.339526
887.4830, 8.582930
887.9651, 8.718688
888.4472, 9.989233
888.9293, 11.66173
889.4114, 12.25849
889.8936, 11.79391
890.3757, 10.26824
890.8578, 3.645868
891.3399, 1.137343
891.8220, 10.09277
892.3041, 20.51418
892.7863, 22.49360
893.2684, 17.69662
893.7505, 14.88935
894.2326, 17.28400
894.7147, 19.37595
895.1968, 20.45219
895.6790, 19.15570
896.1611, 11.19463
896.6432, 1.512179
897.1253, 0.5323670
897.6074, 5.890016
898.0895, 10.49325
898.5717, 3.855805
899.0538, 0.2348990
899.5359, 0.6652640
900.0180, 9.292209
900.5001, 15.22178
900.9822, 17.50716
901.4644, 14.41740
901.9465, 5.553386
902.4286, 1.062177
902.9107, 8.931372
903.3928, 24.58045
903.8749, 18.69486
904.3571, 0.9229240
904.8392, 7.463396
905.3213, 1.329468
905.8034, 9.999300
906.2855, 12.35137
906.7676, 9.645001
907.2498, 7.778349
907.7319, 6.956778
908.2140, 8.289872
908.6961, 11.98633
909.1782, 12.31119
909.6603, 6.632010
910.1425, 0.1330700
910.6246, 0.5269990
911.1067, 1.432883
911.5888, 0.8738090
912.0709, 4.633615
912.5530, 7.618931
913.0352, 9.417784
913.5173, 10.94337
913.9994, 12.91924
914.4815, 14.52640
914.9636, 14.07330
915.4457, 11.15395
915.9279, 10.12871
916.4100, 13.04628
916.8921, 14.03415
917.3742, 7.907701
917.8563, 4.002628
918.3384, 13.99911
918.8206, 30.67890
919.3027, 33.51668
919.7848, 15.07159
920.2669, 3.143887
920.7490, 1.913804
921.2311, 4.744881
921.7133, 14.30142
922.1954, 22.70103
922.6775, 19.86424
923.1596, 8.059937
923.6417, 0.5190480
924.1238, 2.099605
924.6060, 3.964835
925.0881, 2.240029
925.5702, 2.518411
926.0523, 12.24061
926.5344, 24.68070
927.0165, 28.65059
927.4987, 23.18158
927.9808, 19.00177
928.4629, 23.35752
928.9450, 27.60818
929.4271, 24.08582
929.9092, 19.33224
930.3914, 21.53523
930.8734, 28.26948
931.3555, 33.43479
931.8376, 34.93362
932.3198, 31.96901
932.8019, 20.53818
933.2840, 7.885667
933.7661, 1.616045
934.2482, 0.3358920
934.7303, 0.9424910
935.2125, 0.9471130
935.6946, 0.8048110
936.1767, 0.8437360
936.6588, 6.2879999E-03
937.1409, 4.014833
937.6230, 8.875226
938.1052, 10.24047
938.5873, 8.921129
939.0694, 7.394543
939.5515, 6.405457
940.0336, 6.410741
940.5157, 7.732047
940.9979, 10.32085
941.4800, 15.74692
941.9621, 22.33026
942.4442, 21.89864
942.9263, 15.18455
943.4084, 11.93107
943.8906, 15.21383
944.3727, 19.79884
944.8548, 20.97904
945.3369, 19.78008
945.8190, 18.97967
946.3011, 18.53613
946.7833, 17.85844
947.2654, 16.90599
947.7475, 15.36104
948.2296, 12.99073
948.7117, 10.68328
949.1938, 9.653781
949.6760, 9.542675
950.1581, 7.544855
950.6402, 3.110445
951.1223, 2.623367
951.6044, 8.053159
952.0865, 11.25054
952.5687, 6.586896
953.0508, 0.8218980
953.5329, 5.750684
954.0150, 20.98252
954.4971, 26.01337
954.9792, 17.91940
955.4614, 9.251887
955.9435, 0.7387380
956.4256, 8.3100004E-03
956.9077, 2.912068
957.3898, 1.657697
957.8719, 1.326144
958.3541, 19.57028
958.8362, 24.98654
959.3183, 7.952001
959.8004, 0.8904020
960.2825, 10.02217
960.7646, 23.54601
961.2468, 27.13940
961.7289, 23.67347
962.2110, 21.13912
962.6931, 20.64082
963.1752, 16.96291
963.6573, 3.776051
964.1395, 2.084476
964.6216, 0.9198950
965.1037, 8.935774
965.5858, 11.28848
966.0679, 9.663536
966.5500, 10.53275
967.0322, 17.00087
967.5143, 19.50778
967.9964, 14.30987
968.4785, 9.399292
968.9606, 8.309591
969.4427, 8.251197
969.9249, 5.900178
970.4070, 1.936915
970.8891, 0.2281290
971.3712, 0.6809730
971.8533, 1.179781
972.3354, 1.208496
972.8176, 1.584017
973.2997, 2.882489
973.7818, 4.553497
974.2639, 6.594600
974.7460, 8.640872
975.2281, 8.460068
975.7103, 1.972485
976.1924, 0.5303780
976.6745, 8.969934
977.1566, 16.35578
977.6387, 10.45595
978.1208, 0.1255720
978.6030, 2.724179
979.0851, 2.389396
979.5672, 7.443020
980.0493, 11.18554
980.5314, 13.63153
981.0135, 15.40288
981.4957, 15.21178
981.9778, 10.18407
982.4599, 4.101959
982.9420, 1.893837
983.4241, 3.614661
983.9063, 5.749959
984.3884, 8.410651
984.8705, 10.36068
985.3526, 11.40337
985.8347, 11.35118
986.3168, 8.355317
986.7990, 4.952222
987.2811, 6.099315
987.7632, 12.18479
988.2453, 16.10197
988.7274, 13.35578
989.2095, 10.52558
989.6917, 9.308427
990.1738, 10.06306
990.6559, 15.95541
991.1380, 22.98125
991.6201, 23.39395
992.1022, 16.00510
992.5844, 7.672215
993.0665, 1.273335
993.5486, 1.8217999E-02
994.0307, 1.362542
994.5128, 0.8016650
994.9949, 1.783085
995.4771, 11.82395
995.9592, 13.13029
996.4413, 4.027137
996.9234, 1.2160000E-02
997.4055, 14.95072
997.8876, 27.39957
998.3698, 23.50590
998.8519, 14.92499
999.3340, 10.19895
999.8161, 9.616046
1000.298, 13.36671
1000.780, 21.20955
1001.262, 24.49819
1001.745, 13.08495
1002.227, 4.161341
1002.709, 11.35645
1003.191, 20.94032
1003.673, 18.64832
1004.155, 9.409818
1004.637, 5.400092
1005.119, 9.182496
1005.602, 11.95777
1006.084, 7.633143
1006.566, 4.173334
1007.048, 6.417586
1007.530, 10.64848
1008.012, 13.47716
1008.494, 15.64974
1008.976, 21.10529
1009.458, 30.39856
1009.941, 32.54500
1010.423, 12.85301
1010.905, 2.170753
1011.387, 5.171988
1011.869, 18.22621
1012.351, 24.29690
1012.833, 24.28492
1013.315, 21.44885
1013.797, 16.58968
1014.280, 12.60688
1014.762, 11.88087
1015.244, 11.01823
1015.726, 6.826679
1016.208, 3.476159
1016.690, 6.189254
1017.172, 11.76247
1017.654, 13.60329
1018.137, 10.88352
1018.619, 9.654123
1019.101, 15.77936
1019.583, 18.69443
1020.065, 9.469993
1020.547, 0.8693020
1021.029, 5.441422
1021.511, 15.35928
1021.993, 15.92363
1022.476, 6.058443
1022.958, 0.9313520
1023.440, 2.165257
1023.922, 1.353644
1024.404, 15.26228
1024.886, 27.59984
1025.368, 29.30783
1025.850, 25.16048
1026.333, 23.64206
1026.815, 25.25907
1027.297, 21.02485
1027.779, 1.443864
1028.261, 6.043667
1028.743, 0.6468920
1029.225, 13.70783
1029.707, 14.53839
1030.189, 8.938950
1030.672, 6.390790
1031.154, 7.620872
1031.636, 8.977911
1032.118, 11.12919
1032.600, 11.53052
1033.082, 7.249418
1033.564, 4.191578
1034.046, 6.118008
1034.528, 9.970552
1035.011, 11.19985
1035.493, 10.44851
1035.975, 14.17749
1036.457, 31.20127
1036.939, 37.76065
1037.421, 23.40778
1037.903, 10.02531
1038.385, 7.284458
1038.868, 7.404070
1039.350, 1.562149
1039.832, 0.5514630
1040.314, 3.513312
1040.796, 1.171811
1041.278, 3.468775
1041.760, 27.93760
1042.242, 41.77141
1042.724, 30.04688
1043.207, 14.71339
1043.689, 14.92078
1044.171, 25.96430
1044.653, 32.91687
1045.135, 35.68589
1045.617, 34.41961
1046.099, 27.48649
1046.581, 20.48497
1047.063, 14.13142
1047.546, 8.271058
1048.028, 2.541185
1048.510, 1.610590
1048.992, 0.3900930
1049.474, 6.864141
1049.956, 13.18337
1050.438, 19.27754
1050.920, 20.90608
1051.403, 16.19094
1051.885, 9.973020
1052.367, 4.363875
1052.849, 2.110717
1053.331, 8.841122
1053.813, 23.55021
1054.295, 28.89527
1054.777, 24.13222
1055.260, 20.36180
1055.742, 18.95950
1056.224, 15.65182
1056.706, 7.419755
1057.188, 1.719964
1057.670, 10.29395
1058.152, 27.86339
1058.634, 31.67581
1059.116, 23.02939
1059.599, 16.08753
1060.081, 12.36221
1060.563, 9.824072
1061.045, 7.757647
1061.527, 8.629455
1062.009, 15.42459
1062.491, 24.57901
1062.973, 26.92920
1063.455, 24.57549
1063.938, 25.01765
1064.420, 27.97502
1064.902, 29.61591
1065.384, 28.73629
1065.866, 24.98408
1066.348, 16.73630
1066.830, 10.88673
1067.312, 21.92866
1067.795, 39.00029
1068.277, 41.28740
1068.759, 32.77361
1069.241, 23.44344
1069.723, 16.29719
1070.205, 13.35329
1070.687, 16.33391
1071.169, 18.60732
1071.651, 9.125383
1072.134, 0.6030370
1072.616, 12.77963
1073.098, 31.52941
1073.580, 33.49259
1074.062, 21.11772
1074.544, 11.05096
1075.026, 8.853294
1075.508, 8.756202
1075.990, 10.00528
1076.473, 9.535868
1076.955, 1.096432
1077.437, 1.498319
1077.919, 3.960397
1078.401, 1.069155
1078.883, 0.4513500
1079.365, 9.581978
1079.847, 15.42464
1080.329, 12.22660
1080.812, 8.031425
1081.294, 3.101360
1081.776, 0.3855380
1082.258, 4.074815
1082.740, 9.088025
1083.222, 7.333582
1083.704, 0.4307050
1084.186, 2.434891
1084.669, 2.300374
1085.151, 8.399283
1085.633, 19.84138
1086.115, 23.63884
1086.597, 10.51403
1087.079, 2.246068
1087.561, 2.497724
1088.043, 6.503926
1088.526, 11.12631
1089.008, 9.169843
1089.490, 7.269907
1089.972, 4.093544
1090.454, 6.010455
1090.936, 17.24097
1091.418, 24.97522
1091.900, 19.71346
1092.382, 9.023131
1092.865, 5.813208
1093.347, 9.428070
1093.829, 12.63039
1094.311, 15.42599
1094.793, 17.09555
1095.275, 17.46775
1095.757, 21.45728
1096.239, 31.61789
1096.721, 39.14655
1097.204, 33.92113
1097.686, 20.55741
1098.168, 9.266266
1098.650, 1.020830
1099.132, 0.8325630
1099.614, 2.545104
1100.096, 6.656972
1100.578, 10.22508
1101.061, 14.16125
1101.543, 19.26503
1102.025, 24.09696
1102.507, 29.97176
1102.989, 32.42345
1103.471, 18.06806
1103.953, 2.313667
1104.435, 0.7953750
1104.917, 4.787961
1105.400, 14.31882
1105.882, 16.12604
1106.364, 15.12735
1106.846, 13.12539
1107.328, 11.55794
1107.810, 12.40395
1108.292, 13.12264
1108.774, 8.439883
1109.256, 2.975161
1109.739, 8.008114
1110.221, 24.12902
1110.703, 32.37981
1111.185, 22.59733
1111.667, 12.30828
1112.149, 0.7585860
1112.631, 0.5155690
1113.113, 2.042115
1113.596, 13.24567
1114.078, 17.81356
1114.560, 17.71920
1115.042, 22.10660
1115.524, 35.48369
1116.006, 38.52034
1116.488, 25.44310
1116.970, 13.81032
1117.453, 8.531445
1117.935, 5.015257
1118.417, 0.8684150
1118.899, 1.529924
1119.381, 5.466420
1119.863, 25.97711
1120.345, 33.10341
1120.827, 26.53289
1121.309, 17.50307
1121.792, 7.312511
1122.274, 3.395089
1122.756, 8.831313
1123.238, 17.27946
1123.720, 23.58570
1124.202, 26.75780
1124.684, 23.83946
1125.166, 16.56409
1125.648, 6.678171
1126.131, 2.661569
1126.613, 4.0486999E-02
1127.095, 14.11298
1127.577, 23.31722
1128.059, 18.83272
1128.541, 12.45882
1129.023, 15.68521
1129.505, 20.71880
1129.988, 19.19784
1130.470, 15.76065
1130.952, 16.18395
1131.434, 19.62393
1131.916, 24.69967
1132.398, 30.51238
1132.880, 28.90549
1133.362, 5.829753
1133.844, 3.006007
1134.327, 2.643190
1134.809, 16.70244
1135.291, 24.99015
1135.773, 27.58815
1136.255, 20.29391
1136.737, 7.666378
1137.219, 10.41628
1137.701, 37.89188
1138.183, 45.88412
1138.666, 24.15226
1139.148, 7.095046
1139.630, 2.276774
1140.112, 1.162783
1140.594, 1.287455
1141.076, 2.456826
1141.558, 2.222615
1142.040, 11.03844
1142.523, 14.97309
1143.005, 13.99826
1143.487, 11.54560
1143.969, 8.248590
1144.451, 9.830424
1144.933, 17.45107
1145.415, 24.59329
1145.897, 26.65302
1146.380, 24.01333
1146.862, 12.44138
1147.344, 0.2319810
1147.826, 6.550627
1148.308, 21.81085
1148.790, 24.70439
1149.272, 16.68222
1149.754, 14.05090
1150.236, 22.06888
1150.719, 26.96088
1151.201, 15.63505
1151.683, 5.382089
1152.165, 7.026596
1152.647, 12.00850
1153.129, 14.30792
1153.611, 15.43316
1154.093, 18.72886
1154.575, 23.65600
1155.058, 25.59619
1155.540, 22.27182
1156.022, 20.48980
1156.504, 23.75321
1156.986, 22.44274
1157.468, 10.27313
1157.950, 1.316666
1158.432, 6.695118
1158.915, 16.54136
1159.397, 14.25468
1159.879, 1.829721
1160.361, 2.182256
1160.843, 1.848683
1161.325, 1.324422
1161.807, 13.81748
1162.289, 23.20554
1162.771, 26.71451
1163.254, 24.19257
1163.736, 14.89317
1164.218, 4.590001
1164.700, 1.005481
1165.182, 2.731318
1165.664, 10.19804
1166.146, 19.54166
1166.628, 21.47101
1167.110, 18.32018
1167.593, 22.02271
1168.075, 35.26366
1168.557, 42.70062
1169.039, 30.38635
1169.521, 19.33784
1170.003, 21.58278
1170.485, 26.66394
1170.967, 31.04356
1171.450, 32.49625
1171.932, 28.58955
1172.414, 20.08031
1172.896, 8.436172
1173.378, 3.220932
1173.860, 6.122313
1174.342, 10.78363
1174.824, 24.83229
1175.307, 19.90897
1175.789, 13.31921
1176.271, 12.91398
1176.753, 16.19789
1177.235, 21.59612
1177.717, 27.07592
1178.199, 25.18044
1178.681, 17.35807
1179.163, 15.66017
1179.646, 19.63627
1180.128, 20.26036
1180.610, 16.69983
1181.092, 13.84098
1181.574, 14.22738
1182.056, 13.36831
1182.538, 4.315906
1183.020, 2.278527
1183.502, 0.5370360
1183.984, 1.637479
1184.467, 1.548477
1184.949, 11.09219
1185.431, 16.54196
1185.913, 17.13726
1186.395, 13.96555
1186.877, 3.838547
1187.359, 7.4734002E-02
1187.841, 12.23523
1188.324, 20.64487
1188.806, 17.91904
1189.288, 11.74626
1189.770, 4.571273
1190.252, 0.9778170
1190.734, 0.5007390
1191.216, 5.155374
1191.698, 8.655746
1192.181, 10.50440
1192.663, 13.20453
1193.145, 17.08661
1193.627, 18.93464
1194.109, 17.91193
1194.591, 15.17820
1195.073, 11.32868
1195.555, 7.599614
1196.037, 4.248051
1196.520, 3.066202
1197.002, 10.15694
1197.484, 19.03513
1197.966, 17.58477
1198.448, 10.04611
1198.930, 8.927835
1199.412, 15.37843
1199.894, 17.75796
1200.376, 10.27588
1200.859, 3.585052
1201.341, 0.4265010
1201.823, 0.3036620
1202.305, 2.396288
1202.787, 5.858997
1203.269, 6.492951
1203.751, 8.398993
1204.233, 20.07895
1204.716, 39.26851
1205.198, 43.92821
1205.680, 31.97824
1206.162, 23.01422
1206.644, 18.00708
1207.126, 14.01727
1207.608, 10.27073
1208.090, 8.447875
1208.573, 9.613540
1209.055, 12.32962
1209.537, 16.04872
1210.019, 18.88633
1210.501, 16.45600
1210.983, 11.87464
1211.465, 8.557886
1211.947, 7.172370
1212.429, 12.05742
1212.911, 21.33026
1213.394, 26.46720
1213.876, 23.76159
1214.358, 20.20353
1214.840, 14.66323
1215.322, 13.25145
1215.804, 22.69214
1216.286, 31.32106
1216.768, 32.37401
1217.251, 29.38561
1217.733, 26.89198
1218.215, 23.66639
1218.697, 15.19615
1219.179, 1.565908
1219.661, 2.513125
1220.143, 18.04634
1220.625, 22.34528
1221.108, 11.33076
1221.590, 2.528991
1222.072, 4.514485
1222.554, 11.35598
1223.036, 20.14341
1223.518, 24.81155
1224.000, 14.21345
1224.482, 0.4354620
1224.964, 0.7506910
1225.447, 5.397178
1225.929, 11.27698
1226.411, 15.30592
1226.893, 16.78689
1227.375, 15.60618
1227.857, 14.66048
1228.339, 14.72880
1228.821, 14.70868
1229.303, 15.48681
1229.786, 14.08648
1230.268, 8.280682
1230.750, 2.329603
1231.232, 0.1462270
1231.714, 0.3789160
1232.196, 2.663864
1232.678, 6.969400
1233.160, 18.33985
1233.643, 33.29187
1234.125, 33.10690
1234.607, 19.92992
1235.089, 13.21388
1235.571, 17.54263
1236.053, 17.56975
1236.535, 1.159697
1237.017, 2.734676
1237.500, 12.59086
1237.982, 34.70624
1238.464, 36.82356
1238.946, 29.89418
1239.428, 17.30560
1239.910, 6.442511
1240.392, 13.98713
1240.874, 36.61948
1241.356, 41.77967
1241.839, 22.68122
1242.321, 10.75540
1242.803, 6.774567
1243.285, 8.497590
1243.767, 15.88357
1244.249, 19.96620
1244.731, 16.05730
1245.213, 12.59777
1245.695, 20.75931
1246.178, 30.36251
1246.660, 21.89181
1247.142, 6.304109
1247.624, 0.5022190
1248.106, 0.9170200
1248.588, 0.6367860
1249.070, 0.1132500
1249.552, 1.393675
1250.035, 3.295142
1250.517, 7.557749
1250.999, 2.860971
1251.481, 0.1662020
1251.963, 9.5954001E-02
1252.445, 3.714442
1252.927, 13.00594
1253.409, 23.03958
1253.891, 30.84133
1254.374, 35.34295
1254.856, 33.92334
1255.338, 27.94256
1255.820, 24.70924
1256.302, 20.91052
1256.784, 18.89886
1257.266, 14.84447
1257.748, 11.66772
1258.230, 10.70328
1258.713, 10.96211
1259.195, 12.47345
1259.677, 12.97252
1260.159, 10.35246
1260.641, 7.094373
1261.123, 2.382398
1261.605, 2.8981000E-02
1262.087, 4.043112
1262.570, 0.0000000E+00
##END=



