##NAMES=Synchysite-(Y)
##RRUFFID=R060984
##IDEAL CHEMISTRY=CaY(CO_3_)_2_F
##LOCALITY=Scrub Oaks mine, near Dover, Morris County, New Jersey, USA
##OWNER=RRUFF
##SOURCE=Michael Scott
##DESCRIPTION=Brownish-red earthy blebs associated with quartz and magnetite
##STATUS=The identification of this mineral is not yet confirmed.
##URL=rruff.info/R060984
125.3850, 0.0000000E+00
125.8671, 3.171570
126.3492, 4.336945
126.8313, 3.742462
127.3135, 11.24619
127.7956, 30.69220
128.2777, 51.24121
128.7598, 68.37549
129.2419, 80.72183
129.7240, 90.38681
130.2061, 103.5639
130.6883, 117.3150
131.1704, 126.6933
131.6525, 143.7321
132.1346, 164.0788
132.6167, 178.6448
133.0988, 184.3024
133.5810, 178.9736
134.0631, 165.7100
134.5452, 147.1041
135.0273, 125.4522
135.5094, 99.91864
135.9915, 72.57648
136.4737, 46.80566
136.9558, 21.38635
137.4379, 0.7121580
137.9200, 13.29895
138.4021, 21.70923
138.8842, 25.51959
139.3664, 24.66901
139.8485, 19.73676
140.3306, 13.23358
140.8127, 7.973450
141.2948, 4.006470
141.7769, 26.59564
142.2591, 57.12286
142.7412, 90.68854
143.2233, 124.7599
143.7054, 159.4951
144.1875, 194.8393
144.6696, 232.5594
145.1517, 268.5338
145.6339, 300.9795
146.1160, 330.5228
146.5981, 358.5762
147.0802, 386.2548
147.5623, 413.4517
148.0444, 438.8389
148.5266, 459.9808
149.0087, 481.1608
149.4908, 507.1844
149.9729, 534.8502
150.4550, 556.3740
150.9371, 565.1400
151.4193, 560.3033
151.9014, 553.8328
152.3835, 546.0458
152.8656, 536.2484
153.3477, 523.7825
153.8298, 508.9408
154.3120, 492.3752
154.7941, 474.1775
155.2762, 453.7205
155.7583, 436.1212
156.2404, 416.8199
156.7225, 404.0317
157.2047, 405.8301
157.6868, 418.8872
158.1689, 431.8618
158.6510, 433.2533
159.1331, 420.1903
159.6152, 409.9142
160.0974, 396.0542
160.5795, 389.6119
161.0616, 399.2931
161.5437, 423.1117
162.0258, 451.3851
162.5079, 475.0416
162.9901, 494.4575
163.4722, 505.3251
163.9543, 497.7593
164.4364, 491.3029
164.9185, 497.6066
165.4007, 516.7045
165.8828, 540.6260
166.3649, 562.0323
166.8470, 581.5459
167.3291, 593.6113
167.8112, 590.4429
168.2933, 586.9033
168.7755, 595.1846
169.2576, 614.6990
169.7397, 633.2328
170.2218, 637.6589
170.7039, 623.8013
171.1860, 610.3525
171.6682, 598.2542
172.1503, 585.9297
172.6324, 570.6621
173.1145, 552.9192
173.5966, 537.5931
174.0787, 530.6444
174.5609, 535.4111
175.0430, 534.5763
175.5251, 523.9431
176.0072, 510.9944
176.4893, 502.2422
176.9714, 497.9771
177.4536, 492.1967
177.9357, 477.2781
178.4178, 449.2799
178.8999, 432.3678
179.3820, 434.3735
179.8641, 441.8556
180.3463, 445.8864
180.8284, 445.0352
181.3105, 440.5339
181.7926, 432.4189
182.2747, 419.2627
182.7568, 412.2125
183.2390, 413.8657
183.7211, 418.5291
184.2032, 421.6901
184.6853, 422.4423
185.1674, 418.6187
185.6495, 406.4094
186.1317, 384.0691
186.6138, 368.5225
187.0959, 362.4028
187.5780, 361.5491
188.0601, 365.6323
188.5422, 373.8883
189.0244, 379.1353
189.5065, 373.5946
189.9886, 356.1118
190.4707, 340.9606
190.9528, 328.3245
191.4349, 318.3136
191.9170, 310.9248
192.3992, 306.1647
192.8813, 304.3208
193.3634, 305.9036
193.8455, 311.2184
194.3276, 318.0442
194.8097, 331.7134
195.2919, 342.4937
195.7740, 340.8785
196.2561, 327.2256
196.7382, 312.3687
197.2203, 305.9634
197.7024, 307.3855
198.1846, 301.8120
198.6667, 277.7947
199.1488, 254.7922
199.6309, 249.5989
200.1130, 261.7681
200.5951, 275.1514
201.0773, 277.7207
201.5594, 270.5718
202.0415, 268.6553
202.5236, 277.4570
203.0057, 287.1956
203.4878, 291.1621
203.9700, 289.5088
204.4521, 285.6230
204.9342, 280.6089
205.4163, 275.1799
205.8984, 272.5527
206.3805, 277.2407
206.8627, 280.8311
207.3448, 277.5461
207.8269, 268.0552
208.3090, 256.2451
208.7911, 242.9094
209.2732, 229.5186
209.7554, 220.9102
210.2375, 217.8010
210.7196, 218.4236
211.2017, 223.5769
211.6838, 232.2625
212.1659, 240.4189
212.6480, 246.3127
213.1302, 249.7725
213.6123, 250.4077
214.0944, 244.8088
214.5765, 241.1064
215.0586, 246.7214
215.5407, 258.1064
216.0229, 263.2629
216.5050, 254.7664
216.9871, 238.8538
217.4692, 231.5664
217.9513, 234.1653
218.4334, 241.3420
218.9156, 252.5317
219.3977, 266.8069
219.8798, 282.9453
220.3619, 301.7883
220.8440, 319.8987
221.3261, 329.1863
221.8083, 327.6416
222.2904, 324.8533
222.7725, 324.1172
223.2546, 324.1311
223.7367, 320.8865
224.2188, 311.7539
224.7010, 303.1833
225.1831, 309.0374
225.6652, 333.5464
226.1473, 353.9458
226.6294, 366.1904
227.1115, 371.1040
227.5937, 366.8196
228.0758, 351.7893
228.5579, 335.8137
229.0400, 334.7087
229.5221, 352.7197
230.0042, 364.6736
230.4864, 363.6672
230.9685, 356.6909
231.4506, 350.7898
231.9327, 347.3069
232.4148, 344.7104
232.8969, 340.6331
233.3791, 334.1250
233.8612, 332.8425
234.3433, 341.7649
234.8254, 353.0388
235.3075, 359.7869
235.7896, 361.4514
236.2717, 362.1396
236.7539, 365.7751
237.2360, 372.7375
237.7181, 378.0039
238.2002, 380.3806
238.6823, 382.0554
239.1644, 385.9619
239.6466, 391.2041
240.1287, 391.7737
240.6108, 380.7976
241.0929, 359.0930
241.5750, 354.6672
242.0571, 386.0002
242.5393, 413.9529
243.0214, 416.6519
243.5035, 400.8335
243.9856, 387.7661
244.4677, 391.6372
244.9498, 408.8047
245.4320, 412.7710
245.9141, 394.5657
246.3962, 375.8601
246.8783, 357.8538
247.3604, 343.7241
247.8425, 339.7876
248.3247, 349.7656
248.8068, 369.2332
249.2889, 384.1602
249.7710, 392.9299
250.2531, 398.8186
250.7352, 400.8367
251.2174, 400.4814
251.6995, 400.0469
252.1816, 400.3110
252.6637, 399.2515
253.1458, 392.5652
253.6279, 370.3137
254.1101, 357.3381
254.5922, 359.5459
255.0743, 367.0261
255.5564, 374.0974
256.0385, 378.4565
256.5206, 377.1594
257.0027, 364.2507
257.4849, 328.9758
257.9670, 311.2812
258.4491, 325.8538
258.9312, 343.0300
259.4133, 345.2747
259.8954, 331.9385
260.3776, 312.5955
260.8597, 295.6653
261.3418, 280.5747
261.8239, 273.0042
262.3060, 280.1089
262.7881, 287.6548
263.2703, 290.9912
263.7524, 290.4780
264.2345, 288.1731
264.7166, 285.1675
265.1987, 281.5886
265.6808, 279.9026
266.1630, 287.9363
266.6451, 288.2878
267.1272, 270.9495
267.6093, 245.0522
268.0914, 224.1638
268.5735, 215.8914
269.0557, 216.5142
269.5378, 214.5039
270.0199, 208.0759
270.5020, 202.0396
270.9841, 197.9614
271.4662, 194.4419
271.9484, 189.7976
272.4305, 183.3433
272.9126, 176.5840
273.3947, 172.6587
273.8768, 173.3064
274.3589, 170.6687
274.8411, 159.1611
275.3232, 146.5623
275.8053, 135.6816
276.2874, 127.4912
276.7695, 125.9900
277.2516, 141.4265
277.7338, 174.7812
278.2159, 191.0378
278.6980, 172.2742
279.1801, 148.6523
279.6622, 139.0776
280.1443, 142.5103
280.6265, 149.7014
281.1086, 158.6191
281.5907, 167.1982
282.0728, 165.5127
282.5549, 147.9006
283.0370, 129.3069
283.5192, 118.8884
284.0013, 115.1946
284.4834, 115.6560
284.9655, 123.1279
285.4476, 132.4390
285.9297, 134.2542
286.4119, 127.2246
286.8940, 121.8823
287.3761, 127.5198
287.8582, 137.9319
288.3403, 141.4409
288.8224, 133.9819
289.3046, 122.9136
289.7867, 111.4995
290.2688, 100.4170
290.7509, 95.25293
291.2330, 100.7454
291.7151, 111.1738
292.1972, 115.2468
292.6794, 111.7539
293.1615, 106.7910
293.6436, 103.0767
294.1257, 99.20166
294.6078, 90.97876
295.0899, 76.27490
295.5721, 62.46899
296.0542, 62.02881
296.5363, 78.89331
297.0184, 87.46411
297.5005, 77.43579
297.9826, 61.88794
298.4648, 54.59058
298.9469, 56.64185
299.4290, 57.42163
299.9111, 45.29248
300.3932, 18.21753
300.8753, 7.491943
301.3575, 27.42725
301.8396, 47.28662
302.3217, 52.10767
302.8038, 44.55347
303.2859, 32.53809
303.7680, 19.76147
304.2502, 8.032715
304.7323, 8.497559
305.2144, 39.15283
305.6965, 61.34424
306.1786, 63.47314
306.6607, 54.73730
307.1429, 47.32422
307.6250, 47.29419
308.1071, 51.96606
308.5892, 56.39575
309.0713, 63.47803
309.5534, 62.83398
310.0356, 48.78149
310.5177, 32.31616
310.9998, 19.61353
311.4819, 12.58203
311.9640, 10.84937
312.4461, 15.58911
312.9283, 28.04102
313.4104, 35.86328
313.8925, 34.93506
314.3746, 32.72998
314.8567, 34.16772
315.3388, 37.04980
315.8210, 35.11719
316.3031, 21.75562
316.7852, 1.854980
317.2673, 5.558594
317.7494, 6.538818
318.2315, 16.26685
318.7137, 12.60059
319.1958, 3.136719
319.6779, 3.031982
320.1600, 2.098877
320.6421, 0.4592290
321.1242, 3.374756
321.6064, 14.10449
322.0885, 22.37671
322.5706, 26.21167
323.0527, 24.45410
323.5348, 14.87280
324.0169, 3.415771
324.4991, 17.61865
324.9812, 17.37769
325.4633, 7.897461
325.9454, 1.910645
326.4275, 1.864258
326.9096, 4.739014
327.3918, 7.835449
327.8739, 11.23706
328.3560, 16.03857
328.8381, 25.63379
329.3202, 34.37061
329.8023, 34.46436
330.2845, 26.70410
330.7666, 21.87549
331.2487, 28.65845
331.7308, 44.48096
332.2129, 51.82544
332.6950, 40.33325
333.1772, 32.85254
333.6593, 45.01855
334.1414, 64.57031
334.6235, 67.47461
335.1056, 43.47729
335.5877, 7.148193
336.0698, 12.17554
336.5519, 2.424072
337.0341, 5.029785
337.5162, 11.85425
337.9983, 15.19653
338.4804, 9.870850
338.9625, 2.812744
339.4446, 13.95093
339.9268, 13.55176
340.4089, 9.9120997E-02
340.8910, 10.42041
341.3731, 13.96362
341.8552, 17.59497
342.3373, 24.27417
342.8195, 32.20972
343.3016, 38.26416
343.7837, 41.11938
344.2658, 40.46802
344.7479, 34.17041
345.2300, 18.71948
345.7122, 5.815186
346.1943, 1.342773
346.6764, 4.961182
347.1585, 6.221924
347.6406, 5.239258
348.1227, 3.134766
348.6049, 0.2534180
349.0870, 3.137451
349.5691, 3.328857
350.0512, 2.619507
350.5333, 8.662476
351.0154, 9.073853
351.4976, 4.828613
351.9797, 1.513916
352.4618, 4.409424
352.9439, 8.461182
353.4260, 3.839478
353.9081, 10.56519
354.3903, 23.21265
354.8724, 26.62500
355.3545, 21.89172
355.8366, 16.24988
356.3187, 9.680542
356.8008, 2.332275
357.2830, 8.120850
357.7651, 19.18750
358.2472, 24.62500
358.7293, 21.53821
359.2114, 14.21985
359.6935, 10.21130
360.1757, 11.15344
360.6578, 11.93396
361.1399, 10.39575
361.6220, 10.19421
362.1041, 16.82825
362.5862, 28.93848
363.0684, 37.72827
363.5505, 33.88342
364.0326, 16.84631
364.5147, 10.46790
364.9968, 28.94482
365.4789, 42.88208
365.9611, 42.93591
366.4432, 34.22266
366.9253, 23.64783
367.4074, 14.44690
367.8895, 7.976074
368.3716, 6.042603
368.8538, 10.48108
369.3359, 13.63586
369.8180, 16.99194
370.3001, 16.59277
370.7822, 6.713501
371.2643, 11.92139
371.7465, 28.77209
372.2286, 34.99268
372.7107, 32.10632
373.1928, 26.26135
373.6749, 14.64417
374.1570, 6.736084
374.6392, 12.92993
375.1213, 27.36401
375.6034, 38.35718
376.0855, 42.58704
376.5676, 42.40137
377.0497, 38.17212
377.5319, 30.59595
378.0140, 25.01392
378.4961, 24.98962
378.9782, 26.67078
379.4603, 20.05029
379.9424, 4.2479999E-02
380.4246, 12.50256
380.9066, 7.235352
381.3888, 5.166016
381.8709, 13.23279
382.3530, 14.86035
382.8351, 13.81555
383.3172, 13.51794
383.7993, 14.04297
384.2815, 14.56995
384.7636, 16.03235
385.2457, 16.53455
385.7278, 12.55005
386.2099, 7.714233
386.6920, 9.011719
387.1742, 20.15759
387.6563, 36.25464
388.1384, 45.98047
388.6205, 48.01917
389.1026, 46.41431
389.5847, 33.74292
390.0669, 23.69727
390.5490, 27.58594
391.0311, 44.88464
391.5132, 63.72913
391.9953, 77.34363
392.4774, 84.95093
392.9596, 78.80457
393.4417, 49.16809
393.9238, 26.15320
394.4059, 37.10364
394.8880, 65.03271
395.3701, 81.72522
395.8523, 74.64258
396.3344, 62.81665
396.8165, 64.33044
397.2986, 75.93823
397.7807, 82.71777
398.2628, 78.77319
398.7450, 69.86316
399.2271, 64.60217
399.7092, 62.36951
400.1913, 64.96631
400.6734, 77.89917
401.1555, 92.26062
401.6377, 100.5514
402.1198, 102.3367
402.6019, 100.1599
403.0840, 95.13281
403.5661, 87.92639
404.0482, 86.43152
404.5304, 99.81433
405.0125, 108.0348
405.4946, 101.2739
405.9767, 90.83423
406.4588, 90.74158
406.9409, 105.0388
407.4231, 124.7590
407.9052, 137.9109
408.3873, 143.6464
408.8694, 146.8822
409.3515, 147.2888
409.8336, 145.7625
410.3158, 141.4036
410.7979, 135.1802
411.2800, 129.9432
411.7621, 127.2085
412.2442, 125.9729
412.7263, 124.9905
413.2085, 124.2834
413.6906, 123.4304
414.1727, 122.5414
414.6548, 121.0035
415.1369, 117.4022
415.6190, 110.7357
416.1012, 105.3167
416.5833, 105.0496
417.0654, 106.9816
417.5475, 104.7913
418.0296, 97.38586
418.5117, 92.47839
418.9939, 98.77966
419.4760, 116.9069
419.9581, 123.5125
420.4402, 107.2462
420.9223, 93.32837
421.4044, 93.33911
421.8866, 102.2679
422.3687, 111.8629
422.8508, 117.5984
423.3329, 117.3062
423.8150, 104.0232
424.2971, 66.90930
424.7793, 49.19946
425.2614, 68.97473
425.7435, 93.40393
426.2256, 109.7814
426.7077, 116.6732
427.1898, 115.8662
427.6719, 104.8563
428.1541, 89.10608
428.6362, 83.09778
429.1183, 89.11658
429.6004, 95.75574
430.0825, 97.76538
430.5646, 97.63013
431.0468, 99.40820
431.5289, 104.0474
432.0110, 106.1572
432.4931, 101.1713
432.9752, 93.44360
433.4573, 89.19299
433.9395, 89.28796
434.4216, 93.50208
434.9037, 102.8513
435.3858, 117.2386
435.8679, 126.2601
436.3500, 128.2275
436.8322, 127.8519
437.3143, 125.5323
437.7964, 121.1525
438.2785, 115.2950
438.7606, 109.2056
439.2427, 104.0469
439.7249, 99.90698
440.2070, 94.28821
440.6891, 96.07959
441.1712, 114.9220
441.6533, 132.6876
442.1354, 142.0555
442.6176, 143.9736
443.0997, 141.5338
443.5818, 133.4559
444.0639, 124.8733
444.5460, 129.5568
445.0281, 150.1547
445.5103, 162.1683
445.9924, 150.8998
446.4745, 131.1409
446.9566, 122.7740
447.4387, 126.4182
447.9208, 133.2484
448.4030, 144.1864
448.8851, 155.5730
449.3672, 161.6517
449.8493, 162.0216
450.3314, 160.7198
450.8135, 161.0293
451.2957, 161.5027
451.7778, 154.9100
452.2599, 128.4010
452.7420, 114.2506
453.2241, 126.7354
453.7062, 147.8218
454.1884, 159.3667
454.6705, 157.6859
455.1526, 151.1555
455.6347, 148.5725
456.1168, 149.9642
456.5989, 149.8893
457.0811, 144.9291
457.5632, 143.5182
458.0453, 151.2263
458.5274, 163.7656
459.0095, 174.7861
459.4916, 182.6278
459.9738, 186.9237
460.4559, 185.4384
460.9380, 179.3394
461.4201, 176.2684
461.9022, 179.7782
462.3843, 182.4194
462.8665, 172.9839
463.3486, 151.4060
463.8307, 137.7375
464.3128, 138.8939
464.7949, 144.1272
465.2770, 149.9434
465.7592, 154.3302
466.2413, 152.2432
466.7234, 140.9930
467.2055, 126.6864
467.6876, 122.3998
468.1697, 134.4972
468.6519, 143.9385
469.1340, 151.0298
469.6161, 155.5475
470.0982, 156.0422
470.5803, 153.7596
471.0624, 152.0906
471.5445, 154.0267
472.0266, 156.9618
472.5088, 154.0404
472.9909, 144.0778
473.4730, 135.4000
473.9551, 130.1099
474.4372, 128.0148
474.9193, 130.1389
475.4015, 137.1425
475.8836, 139.3054
476.3657, 128.2483
476.8478, 113.4319
477.3299, 105.7102
477.8120, 105.2250
478.2942, 107.2361
478.7763, 109.4817
479.2584, 111.5315
479.7405, 111.0624
480.2226, 101.7443
480.7047, 98.16785
481.1869, 107.2924
481.6690, 118.0603
482.1511, 119.7788
482.6332, 112.5352
483.1153, 105.5583
483.5974, 106.9055
484.0796, 114.7179
484.5617, 117.4166
485.0438, 111.6938
485.5259, 108.3644
486.0080, 116.1268
486.4901, 126.1777
486.9723, 128.4318
487.4544, 120.2672
487.9365, 113.1028
488.4186, 117.4971
488.9007, 126.5505
489.3828, 127.0648
489.8650, 117.3810
490.3471, 103.3291
490.8292, 86.26965
491.3113, 68.25940
491.7934, 66.74402
492.2755, 101.9930
492.7577, 125.6342
493.2398, 120.3044
493.7219, 103.7231
494.2040, 92.74756
494.6861, 91.47375
495.1682, 97.15613
495.6504, 109.3917
496.1325, 127.6243
496.6146, 136.3049
497.0967, 131.5867
497.5788, 123.6201
498.0609, 110.8169
498.5431, 99.46509
499.0252, 99.47351
499.5073, 114.7968
499.9894, 128.4485
500.4715, 127.5035
500.9536, 116.0366
501.4358, 101.6912
501.9179, 85.30127
502.4000, 70.47852
502.8821, 60.53308
503.3642, 54.88269
503.8463, 47.71655
504.3285, 32.05371
504.8106, 23.71753
505.2927, 32.51575
505.7748, 47.38611
506.2569, 54.79211
506.7390, 52.75391
507.2212, 50.79626
507.7033, 60.88086
508.1854, 82.25513
508.6675, 91.30457
509.1496, 81.05286
509.6317, 70.74915
510.1139, 67.04260
510.5960, 66.42590
511.0781, 65.16565
511.5602, 62.21362
512.0423, 61.96765
512.5244, 72.18115
513.0065, 86.23706
513.4886, 88.37598
513.9708, 76.35486
514.4529, 63.12781
514.9350, 58.49988
515.4171, 61.55981
515.8992, 63.26221
516.3813, 60.27014
516.8635, 59.56067
517.3456, 64.31030
517.8277, 70.53687
518.3098, 75.64539
518.7919, 78.49963
519.2740, 77.20374
519.7562, 68.48914
520.2383, 53.91907
520.7204, 45.28308
521.2025, 44.90881
521.6846, 44.96387
522.1667, 40.74316
522.6489, 36.50500
523.1310, 37.08594
523.6131, 43.40955
524.0952, 50.28699
524.5773, 57.59802
525.0594, 62.65222
525.5416, 61.04480
526.0237, 52.75647
526.5058, 40.34229
526.9879, 23.90710
527.4700, 6.224609
527.9521, 2.996582
528.4343, 2.853271
528.9164, 8.730957
529.3985, 15.08936
529.8806, 20.86450
530.3627, 25.80469
530.8448, 29.53699
531.3270, 30.95435
531.8091, 28.61536
532.2912, 24.19299
532.7733, 22.39807
533.2554, 23.79248
533.7375, 24.24292
534.2197, 22.56543
534.7018, 19.27478
535.1839, 14.00427
535.6660, 6.648560
536.1481, 2.299072
536.6302, 5.467163
537.1124, 9.606934
537.5945, 9.137085
538.0766, 4.923096
538.5587, 8.6669996E-03
539.0408, 4.341187
539.5229, 7.466064
540.0051, 7.834839
540.4872, 4.403809
540.9693, 0.9593510
541.4514, 3.551880
541.9335, 7.041504
542.4156, 8.764526
542.8978, 8.791504
543.3799, 7.014038
543.8620, 2.813110
544.3441, 1.472900
544.8262, 2.494385
545.3083, 0.8928220
545.7905, 0.4921880
546.2726, 2.339233
546.7547, 4.424316
547.2368, 5.093750
547.7189, 4.279907
548.2010, 2.522461
548.6832, 0.4409180
549.1653, 3.986084
549.6474, 8.956787
550.1295, 13.90417
550.6116, 16.88501
551.0938, 17.54541
551.5759, 17.26880
552.0580, 17.73975
552.5401, 18.79114
553.0222, 17.44714
553.5043, 12.17676
553.9865, 7.675415
554.4686, 7.205078
554.9507, 7.794312
555.4328, 5.113647
555.9149, 2.254028
556.3970, 5.269165
556.8792, 5.473389
557.3613, 20.31018
557.8434, 26.93225
558.3255, 24.95581
558.8076, 18.64941
559.2897, 9.598389
559.7719, 0.1881100
560.2540, 2.355835
560.7361, 8.842163
561.2182, 14.76282
561.7003, 8.997314
562.1824, 4.092651
562.6646, 10.06677
563.1467, 22.92761
563.6288, 30.59277
564.1109, 25.21790
564.5930, 15.05688
565.0751, 13.59021
565.5573, 19.46448
566.0394, 17.73682
566.5215, 2.388062
567.0036, 14.08105
567.4857, 18.65906
567.9678, 10.78882
568.4500, 5.165771
568.9321, 4.625488
569.4142, 3.038940
569.8963, 4.723389
570.3784, 13.53711
570.8605, 16.50854
571.3427, 12.15808
571.8248, 3.964233
572.3069, 6.853149
572.7890, 19.18896
573.2711, 19.00684
573.7532, 0.1466060
574.2354, 15.51855
574.7175, 16.56653
575.1996, 11.20325
575.6817, 9.189941
576.1638, 11.51404
576.6459, 13.69116
577.1281, 12.27893
577.6102, 11.10034
578.0923, 16.64722
578.5744, 26.66272
579.0565, 30.99011
579.5386, 23.94910
580.0208, 11.19263
580.5029, 5.168579
580.9850, 9.506958
581.4671, 11.10193
581.9492, 4.821533
582.4313, 0.5662840
582.9134, 3.647705
583.3955, 11.47034
583.8776, 19.05737
584.3597, 25.57703
584.8419, 29.05774
585.3240, 25.05481
585.8061, 16.78589
586.2882, 13.58728
586.7703, 17.15259
587.2524, 22.33093
587.7346, 25.49817
588.2167, 26.62866
588.6988, 25.41956
589.1809, 19.04053
589.6630, 14.02356
590.1451, 10.18945
590.6273, 8.446655
591.1094, 9.634033
591.5915, 13.68787
592.0736, 20.48792
592.5557, 32.89404
593.0378, 44.91797
593.5200, 40.72058
594.0021, 20.65576
594.4842, 11.52759
594.9663, 24.10803
595.4484, 44.13416
595.9305, 56.41382
596.4127, 60.37122
596.8948, 59.59985
597.3769, 48.22913
597.8590, 38.80823
598.3411, 37.66394
598.8232, 41.02441
599.3054, 43.91089
599.7875, 44.91882
600.2696, 45.32922
600.7517, 47.43872
601.2338, 50.44421
601.7159, 47.00708
602.1981, 34.26648
602.6802, 25.60864
603.1623, 28.16809
603.6444, 36.70703
604.1265, 42.39490
604.6086, 44.15833
605.0908, 50.21240
605.5729, 70.41162
606.0550, 88.79260
606.5371, 88.85608
607.0192, 77.62976
607.5013, 74.80774
607.9835, 88.77222
608.4656, 106.7993
608.9477, 106.3037
609.4298, 83.95386
609.9119, 71.14685
610.3940, 71.13000
610.8762, 75.31201
611.3583, 84.34497
611.8404, 93.50671
612.3225, 93.95764
612.8046, 81.15515
613.2867, 72.34082
613.7689, 82.15161
614.2510, 95.59363
614.7331, 93.49561
615.2152, 77.74878
615.6973, 62.84790
616.1794, 56.14392
616.6616, 56.50623
617.1437, 62.77649
617.6258, 80.35071
618.1079, 85.32104
618.5900, 65.00806
619.0721, 44.32959
619.5543, 34.61230
620.0364, 34.00708
620.5185, 39.06726
621.0006, 51.77380
621.4827, 61.95459
621.9648, 60.25647
622.4470, 52.99719
622.9291, 50.46191
623.4112, 53.59937
623.8933, 56.79370
624.3754, 55.68201
624.8575, 51.60266
625.3397, 51.59058
625.8218, 58.12659
626.3039, 64.75488
626.7860, 73.81165
627.2681, 79.30310
627.7502, 75.29053
628.2324, 65.23254
628.7145, 58.53979
629.1966, 60.54407
629.6787, 62.95996
630.1608, 57.00330
630.6429, 46.66467
631.1251, 41.01868
631.6072, 42.16382
632.0893, 47.39966
632.5714, 55.97021
633.0535, 66.40259
633.5356, 70.66711
634.0178, 65.80298
634.4999, 60.12512
634.9820, 52.62549
635.4641, 46.20886
635.9462, 43.27429
636.4283, 43.11902
636.9105, 42.85132
637.3926, 40.91333
637.8747, 38.90710
638.3568, 36.37708
638.8389, 35.15491
639.3210, 42.63794
639.8032, 59.74585
640.2853, 72.51868
640.7674, 67.66199
641.2495, 48.09265
641.7316, 36.10645
642.2137, 35.32874
642.6959, 35.92236
643.1780, 37.46228
643.6601, 39.20276
644.1422, 41.32312
644.6243, 43.34692
645.1064, 43.56738
645.5886, 40.01892
646.0707, 36.19080
646.5528, 35.83716
647.0349, 37.62427
647.5170, 37.81458
647.9991, 35.76257
648.4813, 35.22394
648.9634, 40.47137
649.4455, 49.78973
649.9276, 49.49420
650.4097, 32.30884
650.8918, 19.11713
651.3740, 12.62994
651.8561, 11.00427
652.3382, 15.48865
652.8203, 24.27350
653.3024, 30.96729
653.7845, 33.43976
654.2667, 33.24042
654.7488, 29.22168
655.2309, 23.23035
655.7130, 20.04150
656.1951, 20.56146
656.6772, 22.31860
657.1594, 23.45258
657.6415, 23.80627
658.1236, 22.37103
658.6057, 17.56879
659.0878, 14.62567
659.5699, 14.56873
660.0521, 16.52246
660.5342, 21.93274
661.0163, 29.22815
661.4984, 32.96564
661.9805, 30.06592
662.4626, 25.04382
662.9448, 19.63568
663.4269, 14.63092
663.9090, 11.90765
664.3911, 11.36926
664.8732, 9.946655
665.3553, 4.981262
665.8375, 2.225647
666.3196, 6.956421
666.8017, 9.130859
667.2838, 8.960144
667.7659, 6.501465
668.2480, 1.546875
668.7302, 9.078308
669.2123, 22.29828
669.6944, 28.51843
670.1765, 21.72021
670.6586, 14.53113
671.1407, 14.14557
671.6229, 15.62958
672.1050, 10.90112
672.5870, 1.354919
673.0692, 2.262817
673.5513, 8.012878
674.0334, 24.19080
674.5155, 26.28046
674.9976, 12.36798
675.4797, 3.928406
675.9619, 5.871765
676.4440, 9.006042
676.9261, 6.156433
677.4082, 0.3139040
677.8903, 2.915833
678.3724, 0.6098020
678.8546, 4.044556
679.3367, 6.990662
679.8188, 8.451416
680.3009, 6.558655
680.7830, 2.498596
681.2651, 0.5510250
681.7473, 0.9199220
682.2294, 0.5310060
682.7115, 3.218323
683.1936, 8.093506
683.6757, 7.205444
684.1578, 1.351257
684.6400, 8.608887
685.1221, 8.696960
685.6042, 4.435486
686.0863, 2.725220
686.5684, 3.555176
687.0505, 7.067993
687.5327, 18.38672
688.0148, 27.30896
688.4969, 25.66309
688.9790, 18.64618
689.4611, 16.28900
689.9432, 21.94391
690.4254, 27.70215
690.9075, 24.03119
691.3896, 16.16241
691.8717, 17.48212
692.3538, 27.27789
692.8359, 31.84521
693.3181, 24.01849
693.8002, 12.48163
694.2823, 12.07416
694.7644, 26.40204
695.2465, 33.33881
695.7286, 26.02954
696.2108, 19.82526
696.6929, 19.41138
697.1750, 21.32959
697.6571, 21.92291
698.1392, 20.78796
698.6213, 20.32709
699.1035, 21.96698
699.5856, 24.40985
700.0677, 26.50415
700.5498, 28.41534
701.0319, 31.67865
701.5140, 36.46252
701.9962, 38.59113
702.4783, 32.80438
702.9604, 20.38538
703.4425, 11.43701
703.9246, 6.060364
704.4067, 3.967529
704.8889, 7.171631
705.3710, 11.46472
705.8531, 12.15802
706.3352, 10.06311
706.8173, 10.42633
707.2994, 16.55627
707.7816, 22.09766
708.2637, 24.46301
708.7458, 25.22852
709.2279, 27.18250
709.7100, 29.43066
710.1921, 27.00793
710.6743, 15.44244
711.1564, 1.698547
711.6385, 3.712341
712.1206, 1.461792
712.6027, 7.950439
713.0848, 26.50757
713.5670, 40.43433
714.0491, 37.24280
714.5312, 22.64838
715.0133, 17.99274
715.4954, 31.85327
715.9775, 41.91632
716.4597, 49.04340
716.9418, 51.63885
717.4239, 45.86621
717.9060, 35.83313
718.3881, 28.43207
718.8702, 25.66504
719.3524, 25.38965
719.8345, 28.41882
720.3166, 31.64990
720.7987, 29.39752
721.2808, 22.69781
721.7629, 17.02124
722.2451, 14.72205
722.7272, 15.34033
723.2093, 18.94348
723.6914, 25.55621
724.1735, 28.49780
724.6556, 26.80518
725.1378, 24.06696
725.6199, 18.95734
726.1020, 15.72504
726.5841, 21.05103
727.0662, 34.68420
727.5483, 42.13733
728.0305, 34.65497
728.5126, 27.35553
728.9947, 28.92554
729.4768, 33.97058
729.9589, 35.53156
730.4410, 32.64532
730.9232, 28.51685
731.4053, 25.69775
731.8874, 23.82782
732.3695, 21.95984
732.8516, 20.44525
733.3337, 23.61084
733.8159, 33.27289
734.2980, 40.77563
734.7801, 38.41315
735.2622, 28.96613
735.7443, 25.20294
736.2264, 33.47705
736.7086, 37.49115
737.1907, 34.77570
737.6728, 29.89874
738.1549, 22.25952
738.6370, 14.60333
739.1191, 12.41693
739.6013, 18.25085
740.0834, 24.12811
740.5655, 23.38702
741.0476, 21.87439
741.5297, 29.43231
742.0118, 42.49750
742.4940, 47.22144
742.9761, 38.40894
743.4582, 25.08911
743.9403, 18.84094
744.4224, 18.84998
744.9045, 15.81030
745.3867, 8.628418
745.8688, 5.749878
746.3509, 11.04651
746.8330, 20.06030
747.3151, 29.59924
747.7972, 39.96167
748.2794, 41.26111
748.7615, 20.26666
749.2436, 8.045593
749.7257, 19.97906
750.2078, 36.28918
750.6899, 39.42694
751.1721, 30.88153
751.6542, 22.92450
752.1363, 21.84552
752.6184, 21.98730
753.1005, 16.33020
753.5826, 8.879578
754.0648, 8.685547
754.5469, 15.54962
755.0290, 20.08960
755.5111, 16.60797
755.9932, 9.308472
756.4753, 5.992126
756.9575, 6.855835
757.4396, 10.97308
757.9217, 20.84296
758.4038, 27.52777
758.8859, 24.89478
759.3680, 18.28632
759.8502, 16.67078
760.3323, 20.78430
760.8144, 23.93994
761.2965, 25.29974
761.7786, 25.88782
762.2607, 26.19385
762.7428, 26.15948
763.2249, 24.97284
763.7070, 22.82416
764.1891, 21.73956
764.6713, 24.62323
765.1534, 27.36102
765.6355, 22.50000
766.1176, 13.67603
766.5997, 12.45984
767.0818, 20.03448
767.5640, 24.46887
768.0461, 16.10242
768.5282, 1.467163
769.0103, 1.801758
769.4924, 22.19342
769.9745, 30.19788
770.4567, 16.83350
770.9388, 3.746704
771.4209, 3.976318
771.9030, 11.91327
772.3851, 16.20306
772.8672, 16.12677
773.3494, 16.97589
773.8315, 16.96033
774.3136, 18.94745
774.7957, 29.12476
775.2778, 40.89862
775.7599, 44.57129
776.2421, 38.96320
776.7242, 32.59790
777.2063, 31.29175
777.6884, 32.01001
778.1705, 30.48236
778.6526, 28.03180
779.1348, 28.61169
779.6169, 32.84796
780.0990, 37.85840
780.5811, 41.41742
781.0632, 43.49298
781.5453, 44.40540
782.0275, 44.19348
782.5096, 42.72083
782.9917, 39.95312
783.4738, 36.06763
783.9559, 29.93982
784.4380, 22.83649
784.9202, 17.77948
785.4023, 13.67523
785.8844, 14.73022
786.3665, 27.63843
786.8486, 38.47748
787.3307, 40.25287
787.8129, 37.52747
788.2950, 35.70325
788.7771, 35.20221
789.2592, 34.54175
789.7413, 32.92987
790.2234, 30.67249
790.7056, 28.35199
791.1877, 25.51483
791.6698, 19.44751
792.1519, 10.99164
792.6340, 7.870667
793.1161, 16.53674
793.5983, 30.27386
794.0804, 33.25360
794.5625, 25.75684
795.0446, 22.33789
795.5267, 25.22424
796.0089, 28.13245
796.4910, 27.96509
796.9731, 25.14850
797.4552, 20.06848
797.9373, 10.63654
798.4194, 6.718933
798.9016, 13.40948
799.3837, 19.23779
799.8658, 22.43610
800.3479, 22.79254
800.8300, 17.91089
801.3121, 8.779053
801.7943, 4.376282
802.2764, 10.77356
802.7585, 19.21844
803.2406, 28.19995
803.7227, 34.50720
804.2048, 31.23242
804.6870, 21.14447
805.1691, 15.84613
805.6512, 22.07526
806.1333, 32.04535
806.6154, 35.86835
807.0975, 34.84528
807.5797, 33.22247
808.0618, 31.23303
808.5439, 29.44318
809.0260, 28.55328
809.5081, 27.17175
809.9902, 20.74664
810.4724, 9.106201
810.9545, 5.199341
811.4366, 11.55969
811.9187, 19.08746
812.4008, 27.13934
812.8829, 33.50201
813.3651, 34.23169
813.8472, 30.86963
814.3293, 32.74878
814.8114, 50.15369
815.2935, 58.73584
815.7756, 47.43231
816.2578, 33.62732
816.7399, 27.55377
817.2220, 27.20636
817.7041, 27.70575
818.1862, 27.71826
818.6683, 28.03430
819.1505, 30.37750
819.6326, 32.31177
820.1147, 30.05975
820.5968, 25.46570
821.0789, 23.38037
821.5610, 25.03265
822.0432, 26.23907
822.5253, 22.70441
823.0074, 16.97522
823.4895, 15.62964
823.9716, 17.99512
824.4537, 14.88867
824.9359, 4.177673
825.4180, 4.600830
825.9001, 4.842346
826.3822, 0.5255130
826.8643, 0.3757930
827.3464, 6.253052
827.8286, 7.832703
828.3107, 2.787842
828.7928, 2.326233
829.2749, 8.088928
829.7570, 11.91010
830.2391, 7.206787
830.7213, 5.790894
831.2034, 11.02875
831.6855, 1.387634
832.1676, 11.91095
832.6497, 11.45428
833.1318, 8.634583
833.6140, 12.51758
834.0961, 20.91943
834.5782, 25.27057
835.0603, 21.66718
835.5424, 15.75409
836.0245, 10.67047
836.5067, 6.531311
836.9888, 2.541687
837.4709, 0.3862300
837.9530, 0.9028930
838.4351, 7.163757
838.9172, 13.30450
839.3994, 14.06543
839.8815, 10.86627
840.3636, 6.215027
840.8457, 0.5932620
841.3278, 1.057251
841.8099, 9.626953
842.2921, 18.57794
842.7742, 22.85681
843.2563, 22.35107
843.7384, 16.33630
844.2205, 2.311890
844.7026, 6.968079
845.1848, 11.70233
845.6669, 10.30176
846.1490, 3.032593
846.6311, 18.86688
847.1132, 22.57611
847.5953, 13.27502
848.0775, 8.347290
848.5596, 11.74933
849.0417, 15.32208
849.5238, 18.60852
850.0059, 19.85480
850.4880, 16.19897
850.9702, 9.817200
851.4523, 6.405640
851.9343, 8.813354
852.4164, 10.71875
852.8986, 7.567993
853.3807, 3.322205
853.8628, 2.071777
854.3449, 2.743225
854.8270, 2.300537
855.3091, 7.5562000E-02
855.7913, 1.707703
856.2734, 0.9929810
856.7555, 1.724487
857.2376, 5.882202
857.7197, 10.61292
858.2018, 13.01703
858.6840, 12.58661
859.1661, 10.01801
859.6482, 5.735962
860.1303, 0.8607180
860.6124, 3.532227
861.0945, 7.535522
861.5767, 9.407471
862.0588, 9.098267
862.5409, 6.163574
863.0230, 0.4596560
863.5051, 7.933838
863.9872, 12.89618
864.4694, 15.21051
864.9515, 16.35266
865.4336, 18.93329
865.9157, 15.36877
866.3978, 6.289246
866.8799, 22.69916
867.3621, 12.39490
867.8442, 11.78833
868.3263, 20.44757
868.8084, 6.192627
869.2905, 4.233948
869.7726, 5.741333
870.2548, 3.666016
870.7369, 2.185547
871.2190, 8.635559
871.7011, 13.00897
872.1832, 14.57019
872.6653, 11.98743
873.1475, 0.3618770
873.6296, 9.044128
874.1117, 6.717102
874.5938, 0.9621580
875.0759, 8.407654
875.5580, 13.93427
876.0402, 15.34991
876.5223, 11.83453
877.0044, 7.783752
877.4865, 9.833923
877.9686, 13.07422
878.4507, 3.855042
878.9329, 12.62000
879.4150, 14.78388
879.8971, 1.282349
880.3792, 19.32062
880.8613, 27.33600
881.3434, 27.01379
881.8256, 19.53870
882.3077, 5.497070
882.7898, 1.736450
883.2719, 0.8275150
883.7540, 2.612305
884.2361, 6.681702
884.7183, 10.44867
885.2004, 13.22620
885.6825, 15.24854
886.1646, 10.65820
886.6467, 6.260071
887.1288, 14.05865
887.6110, 3.103088
888.0931, 8.603821
888.5752, 6.492981
889.0573, 4.478577
889.5394, 9.530212
890.0215, 7.893799
890.5037, 3.520447
890.9858, 8.859497
891.4679, 17.41711
891.9500, 16.57227
892.4321, 10.98492
892.9142, 3.635010
893.3964, 4.351624
893.8785, 7.700195
894.3606, 0.3239750
894.8427, 5.317200
895.3248, 1.507751
895.8069, 9.449646
896.2891, 9.630127
896.7712, 4.388245
897.2533, 0.8805540
897.7354, 4.666565
898.2175, 7.678833
898.6996, 13.16205
899.1818, 15.39618
899.6639, 3.434509
900.1460, 12.53210
900.6281, 13.38348
901.1102, 0.2099610
901.5923, 9.376038
902.0745, 5.169189
902.5566, 4.456482
903.0387, 12.35309
903.5208, 16.44763
904.0029, 9.488220
904.4850, 5.255859
904.9672, 15.65717
905.4493, 18.11444
905.9314, 18.24591
906.4135, 21.56934
906.8956, 26.05627
907.3777, 26.05365
907.8599, 21.99591
908.3420, 16.86139
908.8241, 10.94037
909.3062, 10.26636
909.7883, 19.05872
910.2704, 29.01910
910.7526, 24.85468
911.2347, 7.118774
911.7168, 3.854553
912.1989, 18.84912
912.6810, 29.37164
913.1631, 30.07855
913.6453, 24.77423
914.1274, 14.67822
914.6095, 2.351746
915.0916, 3.952820
915.5737, 3.259949
916.0558, 0.6203610
916.5380, 9.654541
917.0201, 18.51843
917.5022, 26.40839
917.9843, 32.23322
918.4664, 35.02386
918.9485, 34.70984
919.4307, 30.73584
919.9128, 19.37616
920.3949, 10.22675
920.8770, 0.8162840
921.3591, 2.656921
921.8412, 9.273621
922.3234, 26.38733
922.8055, 31.29016
923.2876, 21.31421
923.7697, 15.31714
924.2518, 16.64087
924.7339, 22.60114
925.2161, 42.44287
925.6982, 60.17938
926.1803, 55.96973
926.6624, 38.00208
927.1445, 30.88269
927.6266, 43.92377
928.1088, 56.47528
928.5909, 57.79865
929.0730, 55.63232
929.5551, 54.42889
930.0372, 54.09698
930.5193, 54.89233
931.0015, 56.08026
931.4836, 54.29169
931.9657, 46.30353
932.4478, 40.92023
932.9299, 50.41254
933.4120, 62.72479
933.8942, 60.28259
934.3763, 48.50433
934.8584, 43.27295
935.3405, 48.45349
935.8226, 54.63062
936.3047, 54.44098
936.7869, 51.04797
937.2690, 47.83167
937.7511, 46.50201
938.2332, 50.98279
938.7153, 60.07190
939.1974, 67.14856
939.6796, 69.26691
940.1617, 69.25153
940.6438, 69.54010
941.1259, 70.56934
941.6080, 75.46344
942.0901, 82.36938
942.5722, 80.63867
943.0543, 69.23370
943.5364, 60.46149
944.0186, 62.20557
944.5007, 68.67194
944.9828, 71.03900
945.4649, 69.87140
945.9470, 64.90344
946.4291, 56.13287
946.9113, 46.72534
947.3934, 37.15131
947.8755, 34.02924
948.3576, 43.42670
948.8397, 61.52930
949.3218, 80.04773
949.8040, 99.36652
950.2861, 108.3743
950.7682, 105.1794
951.2503, 99.80878
951.7324, 95.04327
952.2145, 93.75366
952.6967, 99.63098
953.1788, 110.4901
953.6609, 113.4196
954.1430, 105.6190
954.6251, 105.4660
955.1072, 117.7699
955.5894, 127.4243
956.0715, 127.3378
956.5536, 120.7850
957.0357, 110.3886
957.5178, 96.26776
957.9999, 93.70709
958.4821, 109.3994
958.9642, 119.9916
959.4463, 118.4491
959.9284, 117.9764
960.4105, 126.2070
960.8926, 140.0872
961.3748, 156.4514
961.8569, 177.9954
962.3390, 184.4311
962.8211, 163.2933
963.3032, 148.2065
963.7853, 148.1041
964.2675, 152.3634
964.7496, 155.4033
965.2317, 157.0741
965.7138, 156.2729
966.1959, 150.4860
966.6780, 150.3131
967.1602, 160.0439
967.6423, 169.5730
968.1244, 178.6058
968.6065, 184.9414
969.0886, 183.9705
969.5707, 178.5425
970.0529, 179.2284
970.5350, 191.3123
971.0171, 198.2163
971.4992, 193.5762
971.9813, 189.4809
972.4634, 190.8689
972.9456, 194.5574
973.4277, 197.8998
973.9098, 200.6456
974.3919, 202.6282
974.8740, 204.2551
975.3561, 204.2640
975.8383, 197.1568
976.3204, 194.3900
976.8025, 204.7809
977.2846, 220.4319
977.7667, 233.5941
978.2488, 243.0839
978.7310, 246.8359
979.2131, 237.7623
979.6952, 233.4377
980.1773, 243.3285
980.6594, 254.0254
981.1415, 256.2971
981.6237, 254.7021
982.1058, 256.4413
982.5879, 262.1857
983.0700, 267.2134
983.5521, 269.8462
984.0342, 271.7416
984.5164, 272.1759
984.9985, 273.3934
985.4806, 279.9520
985.9627, 287.1602
986.4448, 285.6719
986.9269, 274.2968
987.4091, 265.7690
987.8912, 263.3515
988.3733, 266.1531
988.8554, 280.1189
989.3375, 293.6515
989.8196, 297.2041
990.3018, 292.7350
990.7839, 282.9343
991.2660, 268.4417
991.7481, 262.1833
992.2302, 277.8143
992.7123, 292.0439
993.1945, 289.0045
993.6766, 283.6028
994.1587, 289.0318
994.6408, 303.0347
995.1229, 321.1277
995.6050, 343.0769
996.0872, 355.1129
996.5693, 341.4580
997.0514, 327.5847
997.5335, 326.5349
998.0156, 332.4769
998.4977, 343.8718
998.9799, 356.1833
999.4620, 358.5142
999.9441, 346.6601
1000.426, 342.5337
1000.908, 368.8085
1001.390, 390.4424
1001.873, 381.5992
1002.355, 363.2119
1002.837, 353.3687
1003.319, 352.6071
1003.801, 357.8691
1004.283, 369.1953
1004.765, 380.1058
1005.247, 389.2144
1005.729, 395.1334
1006.212, 397.9412
1006.694, 396.4889
1007.176, 382.5194
1007.658, 364.6870
1008.140, 369.1670
1008.622, 407.8262
1009.104, 436.1409
1009.586, 422.3725
1010.069, 405.5244
1010.551, 409.4679
1011.033, 422.1920
1011.515, 431.2955
1011.997, 437.1704
1012.479, 445.5224
1012.961, 458.5895
1013.443, 469.3522
1013.925, 471.0720
1014.408, 473.4771
1014.890, 483.6042
1015.372, 496.2051
1015.854, 507.3195
1016.336, 516.1517
1016.818, 519.7022
1017.300, 514.7299
1017.782, 518.6103
1018.265, 550.4056
1018.747, 577.8052
1019.229, 579.2126
1019.711, 571.1104
1020.193, 566.9974
1020.675, 568.3799
1021.157, 575.2562
1021.639, 589.7435
1022.121, 602.3319
1022.604, 609.5585
1023.086, 614.9880
1023.568, 616.4010
1024.050, 620.1151
1024.532, 637.6934
1025.014, 661.2732
1025.496, 666.5788
1025.978, 643.2489
1026.460, 630.0352
1026.943, 647.2098
1027.425, 662.6296
1027.907, 659.2108
1028.389, 651.9927
1028.871, 657.9586
1029.353, 672.0274
1029.835, 677.4302
1030.317, 667.2236
1030.800, 656.8669
1031.282, 652.5777
1031.764, 648.6165
1032.246, 643.2466
1032.728, 636.5659
1033.210, 630.1619
1033.692, 623.0950
1034.174, 611.1045
1034.656, 592.3755
1035.139, 576.0934
1035.621, 557.2379
1036.103, 548.9708
1036.585, 567.7762
1037.067, 585.0569
1037.549, 576.6146
1038.031, 553.6904
1038.513, 542.1536
1038.995, 545.7484
1039.478, 544.4642
1039.960, 533.6892
1040.442, 525.1290
1040.924, 525.9919
1041.406, 523.0732
1041.888, 505.2220
1042.370, 480.0045
1042.852, 460.8959
1043.335, 448.0573
1043.817, 440.2700
1044.299, 438.6820
1044.781, 440.1879
1045.263, 450.0144
1045.745, 452.7046
1046.227, 435.4673
1046.709, 410.4485
1047.192, 398.0465
1047.674, 398.4836
1048.156, 392.4061
1048.638, 376.8156
1049.120, 364.5604
1049.602, 358.7833
1050.084, 352.0557
1050.566, 339.6495
1051.048, 326.7589
1051.531, 322.5681
1052.013, 324.9410
1052.495, 309.5348
1052.977, 272.0607
1053.459, 246.4515
1053.941, 237.4788
1054.423, 233.0217
1054.905, 228.3267
1055.387, 223.3979
1055.870, 218.1393
1056.352, 212.3252
1056.834, 203.7896
1057.316, 192.5736
1057.798, 187.3564
1058.280, 189.0104
1058.762, 178.6281
1059.244, 148.5166
1059.727, 119.1123
1060.209, 110.9670
1060.691, 115.4336
1061.173, 111.6560
1061.655, 101.1257
1062.137, 90.90747
1062.619, 81.83691
1063.101, 77.91431
1063.583, 79.76587
1064.066, 78.77588
1064.548, 68.46021
1065.030, 52.45117
1065.512, 33.76392
1065.994, 15.36450
1066.476, 5.414551
1066.958, 2.229004
1067.440, 1.508301
1067.922, 0.9042970
1068.405, 7.013672
1068.887, 27.47388
1069.369, 49.60693
1069.851, 60.92578
1070.333, 67.02930
1070.815, 76.45459
1071.297, 86.31738
1071.779, 88.07178
1072.262, 84.04712
1072.744, 88.21069
1073.226, 107.3113
1073.708, 124.3035
1074.190, 122.6001
1074.672, 117.8381
1075.154, 124.0205
1075.636, 134.3289
1076.118, 141.3691
1076.601, 144.2625
1077.083, 143.3545
1077.565, 138.6047
1078.047, 132.3596
1078.529, 120.6531
1079.011, 113.9048
1079.493, 119.2080
1079.975, 129.3931
1080.458, 140.2222
1080.940, 151.0723
1081.422, 164.1628
1081.904, 179.2800
1082.386, 184.3704
1082.868, 170.5139
1083.350, 156.1799
1083.832, 145.2173
1084.314, 134.3767
1084.797, 122.5120
1085.279, 109.1184
1085.761, 87.48047
1086.243, 60.78247
1086.725, 56.48486
1087.207, 103.3918
1087.689, 114.9001
1088.171, 64.92798
1088.653, 26.64453
1089.136, 31.28320
1089.618, 43.15015
1090.100, 30.06641
1090.582, 0.5158690
1091.064, 24.69238
1091.546, 41.10352
1092.028, 59.10742
1092.510, 77.75439
1092.993, 105.5430
1093.475, 147.1367
1093.957, 182.8701
1094.439, 198.2437
1094.921, 203.4507
1095.403, 211.0464
1095.885, 223.9702
1096.367, 271.2183
1096.849, 349.1138
1097.332, 413.5327
1097.814, 457.8877
1098.296, 498.4380
1098.778, 542.8164
1099.260, 586.1963
1099.742, 620.8535
1100.224, 654.8691
1100.706, 706.6821
1101.188, 771.0425
1101.671, 839.0513
1102.153, 907.1182
1102.635, 966.2671
1103.117, 1016.274
1103.599, 1075.659
1104.081, 1162.917
1104.563, 1251.750
1105.045, 1306.726
1105.528, 1356.033
1106.010, 1438.195
1106.492, 1536.435
1106.974, 1615.515
1107.456, 1676.724
1107.938, 1748.751
1108.420, 1842.887
1108.902, 1946.206
1109.385, 2060.563
1109.867, 2171.793
1110.349, 2265.114
1110.831, 2355.908
1111.313, 2457.034
1111.795, 2569.385
1112.277, 2699.550
1112.759, 2854.621
1113.241, 2978.382
1113.724, 3033.163
1114.206, 3102.607
1114.688, 3205.901
1115.170, 3323.159
1115.652, 3448.727
1116.134, 3581.199
1116.616, 3717.030
1117.098, 3856.627
1117.580, 4004.706
1118.063, 4169.058
1118.545, 4316.184
1119.027, 4439.159
1119.509, 4562.370
1119.991, 4696.353
1120.473, 4822.615
1120.955, 4920.674
1121.437, 5006.906
1121.920, 5122.076
1122.402, 5264.423
1122.884, 5424.674
1123.366, 5599.667
1123.848, 5750.377
1124.330, 5871.864
1124.812, 5989.524
1125.294, 6118.466
1125.776, 6259.103
1126.259, 6424.050
1126.741, 6589.887
1127.223, 6706.182
1127.705, 6796.194
1128.187, 6903.915
1128.669, 7030.151
1129.151, 7162.383
1129.633, 7297.048
1130.115, 7429.575
1130.598, 7555.812
1131.080, 7679.708
1131.562, 7823.154
1132.044, 7950.412
1132.526, 8003.428
1133.008, 8033.946
1133.490, 8120.157
1133.972, 8257.050
1134.455, 8383.314
1134.937, 8488.745
1135.419, 8574.521
1135.901, 8615.882
1136.383, 8671.550
1136.865, 8771.688
1137.347, 8879.062
1137.829, 8969.878
1138.312, 9048.646
1138.794, 9124.434
1139.276, 9197.796
1139.758, 9256.462
1140.240, 9300.670
1140.722, 9330.416
1141.204, 9339.694
1141.686, 9359.265
1142.168, 9405.703
1142.651, 9449.271
1143.133, 9456.530
1143.615, 9445.957
1144.097, 9473.257
1144.579, 9529.761
1145.061, 9571.634
1145.543, 9595.010
1146.025, 9567.969
1146.507, 9489.615
1146.990, 9422.358
1147.472, 9403.173
1147.954, 9383.927
1148.436, 9288.291
1148.918, 9181.773
1149.400, 9175.995
1149.882, 9201.819
1150.364, 9145.313
1150.847, 9029.765
1151.329, 8945.269
1151.811, 8909.746
1152.293, 8852.485
1152.775, 8725.271
1153.257, 8598.908
1153.739, 8502.361
1154.221, 8415.079
1154.703, 8326.710
1155.186, 8239.136
1155.668, 8153.414
1156.150, 8070.921
1156.632, 7999.091
1157.114, 7945.438
1157.596, 7871.652
1158.078, 7759.723
1158.560, 7669.072
1159.042, 7618.419
1159.525, 7568.702
1160.007, 7494.389
1160.489, 7418.494
1160.971, 7372.969
1161.453, 7354.459
1161.935, 7350.635
1162.417, 7360.557
1162.899, 7359.193
1163.382, 7349.729
1163.864, 7384.427
1164.346, 7474.933
1164.828, 7566.002
1165.310, 7615.473
1165.792, 7673.687
1166.274, 7813.696
1166.756, 7991.107
1167.238, 8125.574
1167.721, 8260.007
1168.203, 8492.134
1168.685, 8786.269
1169.167, 9009.942
1169.649, 9129.122
1170.131, 9290.100
1170.613, 9595.678
1171.095, 9899.722
1171.578, 10128.49
1172.060, 10366.92
1172.542, 10680.26
1173.024, 11019.83
1173.506, 11314.38
1173.988, 11583.18
1174.470, 11905.75
1174.952, 12308.33
1175.434, 12655.33
1175.917, 12936.72
1176.399, 13190.73
1176.881, 13418.15
1177.363, 13640.91
1177.845, 13870.47
1178.327, 14104.65
1178.809, 14346.04
1179.291, 14575.11
1179.773, 14713.73
1180.256, 14782.83
1180.738, 14888.51
1181.220, 15001.34
1181.702, 15032.40
1182.184, 14967.75
1182.666, 14895.08
1183.148, 14864.77
1183.630, 14838.66
1184.113, 14804.47
1184.595, 14737.16
1185.077, 14605.91
1185.559, 14436.29
1186.041, 14236.34
1186.523, 14029.11
1187.005, 13859.30
1187.487, 13731.31
1187.969, 13589.32
1188.452, 13437.78
1188.934, 13245.42
1189.416, 12983.60
1189.898, 12721.04
1190.380, 12482.36
1190.862, 12247.21
1191.344, 11996.74
1191.826, 11742.76
1192.308, 11515.64
1192.791, 11312.44
1193.273, 11053.89
1193.755, 10742.64
1194.237, 10462.66
1194.719, 10220.83
1195.201, 9973.938
1195.683, 9706.423
1196.165, 9461.730
1196.648, 9290.336
1197.130, 9110.479
1197.612, 8785.096
1198.094, 8415.909
1198.576, 8127.928
1199.058, 7896.523
1199.540, 7687.721
1200.022, 7488.078
1200.505, 7291.047
1200.987, 7096.554
1201.469, 6866.715
1201.951, 6537.211
1202.433, 6248.336
1202.915, 6065.055
1203.397, 5894.652
1203.879, 5697.266
1204.361, 5488.000
1204.844, 5279.548
1205.326, 5073.057
1205.808, 4870.848
1206.290, 4673.918
1206.772, 4472.502
1207.254, 4265.669
1207.736, 4078.428
1208.218, 3913.741
1208.700, 3762.595
1209.183, 3621.119
1209.665, 3479.069
1210.147, 3325.884
1210.629, 3169.475
1211.111, 3022.754
1211.593, 2879.316
1212.075, 2720.547
1212.557, 2564.300
1213.040, 2454.695
1213.522, 2379.225
1214.004, 2271.259
1214.486, 2106.535
1214.968, 1959.196
1215.450, 1867.556
1215.932, 1774.387
1216.414, 1661.792
1216.896, 1547.516
1217.379, 1432.742
1217.861, 1328.287
1218.343, 1249.473
1218.825, 1187.331
1219.307, 1108.455
1219.789, 1011.752
1220.271, 920.8340
1220.753, 835.7803
1221.235, 748.4512
1221.718, 658.8682
1222.200, 589.1953
1222.682, 548.8896
1223.164, 513.8516
1223.646, 464.5469
1224.128, 405.7021
1224.610, 335.2842
1225.092, 265.9287
1225.575, 211.1836
1226.057, 168.6260
1226.539, 136.0703
1227.021, 110.5576
1227.503, 86.98633
1227.985, 65.60352
1228.467, 36.70020
1228.949, 23.46973
1229.432, 53.32715
1229.914, 25.22363
1230.396, 2.979492
1230.878, 14.42578
1231.360, 35.60547
1231.842, 48.17871
1232.324, 45.25293
1232.806, 4.725586
1233.288, 67.96680
1233.771, 132.5674
1234.253, 175.8477
1234.735, 186.6611
1235.217, 116.6357
1235.699, 42.25781
1236.181, 83.20410
1236.663, 122.8154
1237.145, 81.37793
1237.627, 36.69043
1238.110, 0.0000000E+00
##END=



