##NAMES=Szaibelyite
##RRUFFID=R070498
##IDEAL CHEMISTRY=MgBO_2_(OH)
##LOCALITY=Stinson Beach, Marin County, California, USA
##OWNER=RRUFF
##SOURCE=James Shigley
##DESCRIPTION=Matted aggregates of white fibrous crystals, associated with magnetite and chromite
##STATUS=The identification of this mineral has been confirmed by X-ray diffraction.
##URL=rruff.info/R070498
155.9408, 0.0000000E+00
156.4229, 79.06641
156.9050, 157.5176
157.3871, 168.0703
157.8692, 201.5625
158.3513, 248.9688
158.8335, 283.4746
159.3156, 265.1328
159.7977, 258.2930
160.2798, 303.1348
160.7619, 450.0020
161.2440, 549.9707
161.7262, 518.2637
162.2083, 405.1250
162.6904, 326.8633
163.1725, 361.5566
163.6546, 422.7871
164.1367, 451.6406
164.6189, 404.4297
165.1010, 365.9668
165.5831, 397.5254
166.0652, 478.6523
166.5473, 526.9512
167.0294, 461.3047
167.5116, 357.6250
167.9937, 285.9336
168.4758, 289.0508
168.9579, 309.3027
169.4400, 312.3164
169.9221, 298.6934
170.4043, 279.3516
170.8864, 266.8262
171.3685, 251.8828
171.8506, 220.6484
172.3327, 135.1641
172.8148, 50.73828
173.2970, 22.85156
173.7791, 53.78711
174.2612, 101.7539
174.7433, 155.5234
175.2254, 201.8652
175.7076, 214.4922
176.1897, 144.0859
176.6718, 49.23047
177.1539, 6.705078
177.6360, 25.04688
178.1181, 67.55859
178.6003, 107.7129
179.0824, 145.2910
179.5645, 176.5293
180.0466, 207.0293
180.5287, 230.0371
181.0108, 225.0566
181.4930, 181.3691
181.9751, 135.6699
182.4572, 144.9805
182.9393, 201.0371
183.4214, 253.9199
183.9035, 273.1309
184.3857, 264.7305
184.8678, 242.5059
185.3499, 198.9082
185.8320, 161.1602
186.3141, 160.1328
186.7962, 175.9980
187.2784, 194.5898
187.7605, 195.5039
188.2426, 184.7891
188.7247, 193.8145
189.2068, 236.5352
189.6889, 294.6914
190.1711, 327.8848
190.6532, 334.8262
191.1353, 331.1074
191.6174, 335.2305
192.0995, 344.3652
192.5816, 330.0293
193.0638, 275.7012
193.5459, 195.8203
194.0280, 140.3652
194.5101, 111.1328
194.9922, 95.18555
195.4743, 83.45508
195.9565, 77.83203
196.4386, 68.21875
196.9207, 41.49219
197.4028, 14.44531
197.8849, 28.90625
198.3671, 78.91016
198.8492, 127.1484
199.3313, 150.8359
199.8134, 147.4082
200.2955, 147.9863
200.7776, 167.7324
201.2598, 204.6816
201.7419, 215.2734
202.2240, 186.7227
202.7061, 156.3340
203.1882, 194.6562
203.6703, 321.4121
204.1525, 411.3574
204.6346, 399.7461
205.1167, 276.2871
205.5988, 204.3320
206.0809, 199.4062
206.5630, 224.5547
207.0452, 208.9219
207.5273, 136.3848
208.0094, 80.32812
208.4915, 80.03711
208.9736, 148.5293
209.4557, 194.7773
209.9379, 215.3438
210.4200, 217.3477
210.9021, 217.7539
211.3842, 223.1191
211.8663, 210.6445
212.3484, 158.4102
212.8306, 47.91211
213.3127, 14.57617
213.7948, 11.39648
214.2769, 32.20508
214.7590, 30.69727
215.2411, 39.03125
215.7233, 104.4570
216.2054, 126.9766
216.6875, 98.77148
217.1696, 53.75000
217.6517, 17.46094
218.1338, 101.5957
218.6160, 148.4336
219.0981, 143.3457
219.5802, 127.4766
220.0623, 126.0020
220.5444, 148.0352
221.0265, 157.4434
221.5087, 148.1523
221.9908, 124.2988
222.4729, 105.6172
222.9550, 94.01172
223.4371, 85.27930
223.9192, 75.39062
224.4014, 59.04688
224.8835, 56.65039
225.3656, 75.00391
225.8477, 110.5391
226.3298, 138.0156
226.8119, 155.1035
227.2941, 167.2031
227.7762, 176.5684
228.2583, 176.3555
228.7404, 185.5371
229.2225, 210.2188
229.7046, 247.0762
230.1868, 272.8496
230.6689, 292.3418
231.1510, 293.3281
231.6331, 260.5020
232.1152, 163.3281
232.5974, 97.41211
233.0795, 89.41211
233.5616, 134.4219
234.0437, 143.3496
234.5258, 98.95117
235.0079, 40.86133
235.4901, 0.8183590
235.9722, 14.81055
236.4543, 21.13867
236.9364, 12.94531
237.4185, 9.271484
237.9006, 6.738281
238.3828, 36.44922
238.8649, 84.54102
239.3470, 110.4121
239.8291, 125.5508
240.3112, 112.4414
240.7933, 57.55078
241.2755, 38.78320
241.7576, 109.5449
242.2397, 151.5391
242.7218, 171.2324
243.2039, 170.0801
243.6860, 122.9199
244.1682, 97.02539
244.6503, 116.0371
245.1324, 181.7520
245.6145, 211.1719
246.0966, 182.4570
246.5787, 139.7402
247.0609, 127.9082
247.5430, 168.3086
248.0251, 198.7129
248.5072, 206.5273
248.9893, 191.1387
249.4714, 170.0781
249.9536, 132.3379
250.4357, 101.1250
250.9178, 103.7617
251.3999, 163.0352
251.8820, 207.4590
252.3641, 217.1602
252.8463, 191.2773
253.3284, 177.0215
253.8105, 180.8262
254.2926, 189.5078
254.7747, 190.2168
255.2568, 181.4102
255.7390, 167.8340
256.2211, 146.2910
256.7032, 116.6875
257.1853, 107.1641
257.6674, 128.5898
258.1495, 157.0957
258.6317, 166.8203
259.1138, 147.9219
259.5959, 133.0156
260.0780, 130.0449
260.5601, 138.9551
261.0422, 142.5508
261.5244, 138.2754
262.0065, 131.7422
262.4886, 128.5215
262.9707, 129.7793
263.4528, 131.7188
263.9349, 134.4199
264.4171, 138.0137
264.8992, 138.2012
265.3813, 135.0879
265.8634, 128.7031
266.3455, 117.5625
266.8276, 98.57227
267.3098, 85.06641
267.7919, 81.99609
268.2740, 88.45898
268.7561, 87.87500
269.2382, 76.65039
269.7203, 64.46875
270.2025, 59.72461
270.6846, 62.14648
271.1667, 72.49023
271.6488, 93.74609
272.1309, 124.5547
272.6130, 153.7480
273.0952, 183.4238
273.5773, 202.2051
274.0594, 197.2852
274.5415, 165.8730
275.0236, 147.5293
275.5057, 158.1777
275.9879, 188.4590
276.4700, 180.7695
276.9521, 123.1191
277.4342, 64.65039
277.9163, 55.61914
278.3984, 101.4688
278.8806, 142.9922
279.3627, 169.7871
279.8448, 183.0664
280.3269, 186.1934
280.8090, 177.1074
281.2911, 164.6289
281.7733, 156.8203
282.2554, 153.3867
282.7375, 145.3984
283.2196, 128.4980
283.7017, 106.0234
284.1838, 86.53320
284.6660, 68.28125
285.1481, 62.60156
285.6302, 86.99805
286.1123, 139.1758
286.5944, 181.8223
287.0765, 212.4336
287.5587, 226.5781
288.0408, 201.7969
288.5229, 135.6348
289.0050, 73.43555
289.4871, 52.98047
289.9692, 69.02539
290.4514, 89.94922
290.9335, 114.5273
291.4156, 138.6035
291.8977, 152.0645
292.3798, 158.4980
292.8619, 160.4941
293.3441, 156.5820
293.8262, 148.0137
294.3083, 144.5898
294.7904, 154.8242
295.2726, 159.0586
295.7547, 106.4082
296.2368, 3.640625
296.7189, 81.95898
297.2010, 93.67578
297.6831, 53.97070
298.1653, 8.746094
298.6474, 44.97656
299.1295, 88.36914
299.6116, 81.18164
300.0937, 33.90430
300.5758, 7.433594
301.0580, 9.230469
301.5401, 11.02344
302.0222, 23.50000
302.5043, 22.38867
302.9864, 22.42578
303.4685, 43.80859
303.9507, 79.86133
304.4328, 110.3184
304.9149, 127.3320
305.3970, 131.8008
305.8791, 122.2676
306.3612, 97.03125
306.8434, 68.01758
307.3255, 40.32227
307.8076, 16.27539
308.2897, 0.3730470
308.7718, 11.06445
309.2539, 10.29688
309.7361, 16.65820
310.2182, 72.44141
310.7003, 123.5059
311.1824, 138.2988
311.6645, 134.5488
312.1466, 138.5547
312.6288, 174.5957
313.1109, 211.5312
313.5930, 227.6367
314.0751, 222.2480
314.5572, 215.3066
315.0393, 218.6719
315.5215, 226.2246
316.0036, 231.0254
316.4857, 218.7539
316.9678, 214.8262
317.4499, 238.1074
317.9320, 287.0527
318.4142, 328.1797
318.8963, 349.9004
319.3784, 358.0488
319.8605, 357.5684
320.3426, 325.7324
320.8247, 308.8242
321.3069, 323.8770
321.7890, 367.0332
322.2711, 415.1973
322.7532, 484.7480
323.2353, 542.4492
323.7174, 567.7891
324.1996, 532.2617
324.6817, 492.1953
325.1638, 457.4512
325.6459, 424.9160
326.1280, 384.5410
326.6101, 306.6953
327.0923, 244.4688
327.5744, 224.9141
328.0565, 316.8438
328.5386, 353.1621
329.0207, 295.6367
329.5028, 183.8008
329.9850, 108.6641
330.4671, 81.33789
330.9492, 81.26172
331.4313, 108.8301
331.9134, 190.9961
332.3955, 232.4746
332.8777, 212.7676
333.3598, 161.8711
333.8419, 125.5625
334.3240, 99.38867
334.8061, 94.56641
335.2882, 121.9160
335.7704, 190.0117
336.2525, 227.7324
336.7346, 222.8027
337.2167, 199.9297
337.6988, 189.9570
338.1809, 195.7129
338.6631, 203.5664
339.1452, 210.1992
339.6273, 215.6816
340.1094, 220.9531
340.5915, 227.7285
341.0736, 231.2090
341.5558, 225.0254
342.0379, 208.6621
342.5200, 193.6348
343.0021, 184.6777
343.4842, 178.9590
343.9663, 161.4238
344.4485, 130.6562
344.9306, 101.2246
345.4127, 89.75586
345.8948, 93.83984
346.3769, 89.12891
346.8590, 70.44336
347.3412, 43.33594
347.8233, 6.248047
348.3054, 38.47266
348.7875, 51.25586
349.2696, 26.38281
349.7517, 156.3203
350.2339, 232.0645
350.7160, 230.3242
351.1981, 200.9316
351.6802, 195.0742
352.1623, 211.0742
352.6444, 244.4688
353.1266, 327.5449
353.6087, 412.1816
354.0908, 407.4180
354.5729, 294.9238
355.0550, 182.4414
355.5371, 171.9238
356.0193, 227.6133
356.5014, 282.0859
356.9835, 316.6016
357.4656, 327.9824
357.9477, 303.1270
358.4298, 242.4980
358.9120, 186.8848
359.3941, 170.7285
359.8762, 169.8262
360.3583, 158.3340
360.8404, 99.41797
361.3225, 55.63281
361.8047, 68.30078
362.2868, 126.1602
362.7689, 169.9531
363.2510, 158.0312
363.7331, 134.7793
364.2152, 132.0703
364.6974, 187.0430
365.1795, 216.3398
365.6616, 180.2793
366.1437, 102.7832
366.6258, 48.40625
367.1079, 44.79492
367.5901, 55.48633
368.0722, 67.32812
368.5543, 83.47852
369.0364, 90.33789
369.5185, 85.31836
370.0006, 72.73828
370.4828, 58.02344
370.9649, 33.49219
371.4470, 17.72266
371.9291, 15.32617
372.4112, 26.93750
372.8933, 48.40430
373.3755, 84.08984
373.8576, 122.9980
374.3397, 154.6152
374.8218, 178.5195
375.3039, 192.0938
375.7861, 191.5723
376.2682, 173.6367
376.7503, 152.3711
377.2324, 122.7578
377.7145, 101.5430
378.1967, 111.2559
378.6788, 156.9336
379.1609, 171.7500
379.6430, 140.0117
380.1251, 82.34570
380.6072, 47.61133
381.0894, 38.15625
381.5715, 30.60938
382.0536, 5.349609
382.5357, 30.89258
383.0178, 42.09766
383.4999, 21.66602
383.9821, 9.125000
384.4642, 17.82422
384.9463, 9.955078
385.4284, 10.83984
385.9105, 45.12500
386.3926, 90.14844
386.8748, 98.10156
387.3569, 67.08008
387.8390, 44.44922
388.3211, 86.13672
388.8032, 161.3320
389.2853, 215.8750
389.7675, 224.9160
390.2496, 214.5176
390.7317, 202.9453
391.2138, 190.1035
391.6959, 174.0371
392.1780, 147.9336
392.6602, 122.3438
393.1423, 108.6074
393.6244, 118.7988
394.1065, 123.5371
394.5886, 103.3066
395.0707, 69.32617
395.5529, 45.47266
396.0350, 35.76953
396.5171, 39.98438
396.9992, 63.72656
397.4813, 116.5742
397.9634, 151.3457
398.4456, 151.0488
398.9277, 132.5801
399.4098, 115.8633
399.8919, 96.13281
400.3740, 84.53320
400.8561, 87.81836
401.3383, 105.9473
401.8204, 112.6699
402.3025, 101.4219
402.7846, 86.33594
403.2667, 77.69727
403.7488, 79.49805
404.2310, 79.05078
404.7131, 72.80273
405.1952, 64.90430
405.6773, 70.09766
406.1594, 92.12695
406.6415, 111.0352
407.1237, 114.3906
407.6058, 96.12109
408.0879, 101.2910
408.5700, 135.2266
409.0521, 181.3496
409.5342, 223.4258
410.0164, 260.1133
410.4985, 269.5293
410.9806, 227.6699
411.4627, 154.5430
411.9448, 109.0371
412.4269, 91.03711
412.9091, 91.07617
413.3912, 107.1270
413.8733, 134.3730
414.3554, 165.1719
414.8375, 209.7539
415.3196, 238.6484
415.8018, 199.8262
416.2839, 110.1777
416.7660, 34.56445
417.2481, 21.78711
417.7302, 39.95508
418.2123, 59.13281
418.6945, 74.44922
419.1766, 86.69727
419.6587, 95.87695
420.1408, 102.7734
420.6229, 107.3789
421.1050, 101.8164
421.5872, 101.0137
422.0693, 115.5430
422.5514, 146.3105
423.0335, 173.7852
423.5156, 193.6680
423.9977, 208.2773
424.4799, 219.8320
424.9620, 247.1895
425.4441, 246.8340
425.9262, 194.1719
426.4083, 106.8691
426.8904, 54.20898
427.3726, 53.33984
427.8547, 64.77344
428.3368, 71.92773
428.8189, 71.14453
429.3010, 81.07031
429.7831, 107.6680
430.2653, 139.5781
430.7474, 167.8320
431.2295, 200.2539
431.7116, 193.3496
432.1937, 108.5742
432.6758, 30.74414
433.1580, 59.36914
433.6401, 37.08789
434.1222, 156.5039
434.6043, 204.5020
435.0864, 192.6406
435.5685, 191.3242
436.0507, 213.2168
436.5328, 248.2617
437.0149, 287.1289
437.4970, 326.5781
437.9791, 354.8281
438.4612, 356.4707
438.9434, 344.8750
439.4255, 348.0137
439.9076, 372.8320
440.3897, 370.6816
440.8718, 271.9766
441.3539, 134.6348
441.8361, 37.45117
442.3182, 22.25195
442.8003, 44.53320
443.2824, 112.6289
443.7645, 214.6152
444.2466, 265.5957
444.7288, 182.3379
445.2109, 72.12305
445.6930, 3.050781
446.1751, 5.087891
446.6572, 12.98047
447.1393, 14.47461
447.6215, 15.80078
448.1036, 29.97852
448.5857, 68.25195
449.0678, 105.7734
449.5499, 138.5508
450.0320, 167.0684
450.5142, 183.0098
450.9963, 179.5840
451.4784, 173.2109
451.9605, 177.9395
452.4426, 194.8516
452.9247, 222.6152
453.4069, 266.0898
453.8890, 317.6992
454.3711, 355.7793
454.8532, 380.4434
455.3353, 389.1504
455.8174, 367.7988
456.2996, 323.7207
456.7817, 300.9238
457.2638, 301.8594
457.7459, 316.8574
458.2281, 346.1211
458.7102, 381.4844
459.1923, 400.3809
459.6744, 383.9629
460.1565, 353.9238
460.6386, 344.1582
461.1208, 350.3535
461.6029, 338.5430
462.0850, 265.9258
462.5671, 178.2012
463.0492, 121.4785
463.5313, 116.0547
464.0135, 119.4277
464.4956, 116.8438
464.9777, 110.4141
465.4598, 102.9863
465.9419, 83.22852
466.4240, 73.59766
466.9062, 85.99023
467.3883, 123.2188
467.8704, 150.6504
468.3525, 169.7109
468.8346, 173.1504
469.3167, 151.2578
469.7989, 64.51562
470.2810, 24.69727
470.7631, 60.50586
471.2452, 141.3281
471.7273, 180.4473
472.2094, 169.6660
472.6916, 143.1230
473.1737, 115.4023
473.6558, 87.46680
474.1379, 49.96289
474.6200, 0.6796880
475.1021, 45.13281
475.5843, 67.59961
476.0664, 68.83789
476.5485, 68.19141
477.0306, 73.59766
477.5127, 76.15430
477.9948, 60.18359
478.4770, 27.87500
478.9591, 9.640625
479.4412, 44.50000
479.9233, 79.63281
480.4054, 120.6836
480.8875, 169.3281
481.3697, 210.3828
481.8518, 231.0098
482.3339, 237.9609
482.8160, 240.6211
483.2981, 232.7422
483.7802, 229.8359
484.2624, 244.6367
484.7445, 273.5293
485.2266, 287.9258
485.7087, 264.8320
486.1908, 239.5684
486.6729, 231.1875
487.1551, 250.1660
487.6372, 267.4180
488.1193, 294.1621
488.6014, 313.4531
489.0835, 293.0996
489.5656, 204.6465
490.0478, 152.1230
490.5299, 179.4180
491.0120, 269.9141
491.4941, 282.0332
491.9762, 196.3945
492.4583, 108.2207
492.9405, 101.5137
493.4226, 164.3691
493.9047, 203.2949
494.3868, 202.9609
494.8689, 190.6562
495.3510, 211.1465
495.8332, 252.9648
496.3153, 276.9648
496.7974, 238.5879
497.2795, 187.2988
497.7616, 193.4629
498.2437, 250.7949
498.7259, 282.9160
499.2080, 198.1211
499.6901, 89.95898
500.1722, 51.38867
500.6543, 146.8164
501.1364, 226.3164
501.6186, 235.3281
502.1007, 197.7500
502.5828, 157.6816
503.0649, 118.1738
503.5470, 82.86719
504.0291, 46.32031
504.5113, 6.976563
504.9934, 6.933594
505.4755, 70.08984
505.9576, 145.2441
506.4397, 201.1035
506.9218, 239.2637
507.4040, 246.2598
507.8861, 209.3887
508.3682, 153.8301
508.8503, 129.3711
509.3324, 136.6602
509.8145, 149.6211
510.2967, 153.6523
510.7788, 154.5742
511.2609, 175.3359
511.7430, 215.6055
512.2252, 258.4473
512.7073, 301.4395
513.1894, 334.5996
513.6715, 334.9688
514.1536, 284.5625
514.6357, 233.7930
515.1179, 222.0469
515.6000, 239.9590
516.0821, 268.2598
516.5642, 301.7520
517.0463, 342.2363
517.5284, 409.7070
518.0106, 504.2480
518.4927, 543.0723
518.9748, 463.0742
519.4569, 351.3574
519.9390, 262.3691
520.4211, 184.7715
520.9033, 150.5625
521.3854, 182.1152
521.8675, 246.0449
522.3496, 281.4785
522.8317, 282.6875
523.3138, 272.4961
523.7960, 252.4531
524.2781, 226.9746
524.7602, 231.3359
525.2423, 270.9180
525.7244, 302.8105
526.2065, 279.1797
526.6887, 215.2246
527.1708, 176.9492
527.6529, 175.6758
528.1350, 191.9707
528.6171, 204.0488
529.0992, 219.4609
529.5814, 250.5605
530.0635, 329.5117
530.5456, 397.5469
531.0277, 393.4375
531.5098, 330.1230
531.9919, 294.3535
532.4741, 340.7734
532.9562, 409.6973
533.4383, 469.6660
533.9204, 523.9590
534.4025, 550.2910
534.8846, 530.5996
535.3668, 486.4297
535.8489, 445.9219
536.3310, 415.9199
536.8131, 380.1992
537.2952, 328.3965
537.7773, 268.4199
538.2595, 239.5801
538.7416, 250.0215
539.2237, 267.6191
539.7058, 273.5059
540.1879, 269.5078
540.6700, 271.1895
541.1522, 278.3477
541.6343, 293.5938
542.1164, 329.0703
542.5985, 374.9824
543.0806, 401.3906
543.5627, 388.0957
544.0449, 366.7695
544.5270, 376.0879
545.0091, 405.0488
545.4912, 421.3945
545.9733, 380.8164
546.4554, 343.2461
546.9376, 362.5469
547.4197, 450.0820
547.9018, 497.9570
548.3839, 438.1836
548.8660, 350.1699
549.3481, 296.1758
549.8303, 322.6777
550.3124, 324.7266
550.7945, 286.6230
551.2766, 228.9961
551.7587, 192.9688
552.2408, 182.8477
552.7230, 184.0547
553.2051, 197.8379
553.6872, 220.3398
554.1693, 219.6973
554.6514, 193.3750
555.1335, 163.6504
555.6157, 155.5527
556.0978, 158.6504
556.5799, 132.4082
557.0620, 62.57227
557.5441, 1.111328
558.0262, 14.51758
558.5084, 74.25977
558.9905, 125.5488
559.4726, 150.6484
559.9547, 158.0820
560.4368, 144.8418
560.9189, 115.9395
561.4011, 92.48242
561.8832, 84.07422
562.3653, 81.13281
562.8474, 81.18945
563.3295, 87.84180
563.8116, 84.33984
564.2938, 53.33008
564.7759, 26.98242
565.2580, 37.13477
565.7401, 94.86328
566.2222, 157.4766
566.7043, 226.4316
567.1865, 291.2129
567.6686, 325.3594
568.1507, 328.3633
568.6328, 321.7539
569.1149, 311.6543
569.5970, 299.4492
570.0792, 285.7305
570.5613, 270.5586
571.0434, 265.0703
571.5255, 288.5820
572.0076, 321.9199
572.4897, 342.7891
572.9719, 346.9805
573.4540, 336.8516
573.9361, 296.1875
574.4182, 246.6211
574.9003, 218.2832
575.3824, 243.8711
575.8646, 264.1855
576.3467, 259.0371
576.8288, 234.4629
577.3109, 223.8184
577.7930, 235.7285
578.2751, 250.4883
578.7573, 268.3340
579.2394, 294.3848
579.7215, 264.9336
580.2036, 165.2129
580.6857, 53.79492
581.1678, 9.357422
581.6500, 28.61719
582.1321, 39.13477
582.6142, 43.87891
583.0963, 42.03906
583.5784, 22.51758
584.0605, 8.861328
584.5427, 31.01172
585.0248, 33.26758
585.5069, 21.73047
585.9890, 12.06055
586.4711, 62.41211
586.9532, 88.42188
587.4354, 46.21680
587.9175, 4.207031
588.3996, 25.98242
588.8817, 1.173828
589.3638, 16.59570
589.8459, 28.55469
590.3281, 31.46484
590.8102, 20.19141
591.2923, 10.82422
591.7744, 36.68359
592.2565, 52.89258
592.7386, 61.79297
593.2208, 66.64844
593.7029, 67.00391
594.1850, 74.15625
594.6671, 107.8613
595.1492, 148.4688
595.6313, 135.6855
596.1135, 73.40820
596.5956, 24.37500
597.0777, 52.76172
597.5598, 111.3809
598.0419, 144.1387
598.5240, 135.9746
599.0062, 127.9141
599.4883, 146.1055
599.9704, 172.5898
600.4525, 186.2012
600.9346, 154.6289
601.4167, 142.6133
601.8989, 175.4355
602.3810, 232.1621
602.8631, 249.6680
603.3452, 203.1270
603.8273, 168.0059
604.3094, 174.4512
604.7916, 218.8809
605.2737, 255.9492
605.7558, 285.1953
606.2379, 312.6367
606.7200, 353.8496
607.2021, 398.6875
607.6843, 411.7305
608.1664, 385.3359
608.6485, 348.2422
609.1306, 329.0703
609.6127, 317.4453
610.0948, 296.2109
610.5770, 243.4297
611.0591, 197.6719
611.5412, 175.9102
612.0233, 174.3477
612.5054, 182.0391
612.9875, 210.1797
613.4697, 233.8945
613.9518, 247.8164
614.4339, 252.1055
614.9160, 234.9375
615.3981, 182.1680
615.8802, 135.1719
616.3624, 122.8320
616.8445, 145.9062
617.3266, 178.9375
617.8087, 223.1914
618.2908, 266.7070
618.7729, 309.6055
619.2551, 341.2344
619.7372, 322.8203
620.2193, 208.7188
620.7014, 94.68359
621.1835, 92.22656
621.6656, 161.5898
622.1478, 206.4805
622.6299, 157.9297
623.1120, 103.5234
623.5941, 83.10547
624.0762, 98.00391
624.5583, 117.1797
625.0405, 141.6562
625.5226, 166.2578
626.0047, 188.2266
626.4868, 205.8438
626.9689, 230.9219
627.4510, 270.4414
627.9332, 301.2461
628.4153, 283.3789
628.8974, 221.1172
629.3795, 199.3945
629.8616, 247.6797
630.3438, 304.8203
630.8259, 264.0312
631.3080, 159.9844
631.7901, 89.06641
632.2722, 132.1992
632.7543, 194.5430
633.2365, 208.1719
633.7186, 181.4297
634.2007, 153.2109
634.6828, 144.9766
635.1649, 133.1953
635.6470, 100.4805
636.1292, 37.35156
636.6113, 9.378906
637.0934, 37.27344
637.5755, 75.80078
638.0576, 94.60156
638.5397, 93.89453
639.0219, 62.24219
639.5040, 14.25000
639.9861, 89.07422
640.4682, 90.11328
640.9503, 28.96484
641.4324, 41.17188
641.9146, 108.2383
642.3967, 167.6445
642.8788, 222.1875
643.3609, 265.6133
643.8430, 281.9219
644.3251, 230.7891
644.8073, 177.5977
645.2894, 171.9883
645.7715, 214.0352
646.2536, 221.6797
646.7357, 132.2070
647.2178, 51.73047
647.7000, 32.60938
648.1821, 95.02344
648.6642, 136.7969
649.1463, 156.2109
649.6284, 162.1133
650.1105, 158.6797
650.5927, 147.6836
651.0748, 150.1211
651.5569, 172.1289
652.0390, 199.8398
652.5211, 226.4180
653.0032, 244.4258
653.4854, 236.0898
653.9675, 151.4375
654.4496, 78.80859
654.9317, 94.33594
655.4138, 170.4453
655.8959, 220.8125
656.3781, 185.0820
656.8602, 151.8867
657.3423, 160.6680
657.8244, 211.7227
658.3065, 236.9219
658.7886, 227.1562
659.2708, 206.9961
659.7529, 185.3789
660.2350, 161.5312
660.7171, 166.7617
661.1992, 206.8867
661.6813, 245.8633
662.1635, 241.7227
662.6456, 205.8086
663.1277, 162.3672
663.6099, 108.4258
664.0920, 70.95703
664.5741, 81.50000
665.0562, 121.3359
665.5383, 159.6719
666.0204, 191.5117
666.5026, 214.0898
666.9847, 221.6719
667.4668, 220.0156
667.9489, 230.6641
668.4310, 272.9961
668.9131, 289.8516
669.3953, 250.1289
669.8774, 162.7695
670.3595, 120.3711
670.8416, 126.3750
671.3237, 150.6562
671.8058, 185.4727
672.2880, 220.7852
672.7701, 225.5039
673.2522, 196.1406
673.7343, 165.3711
674.2164, 160.4297
674.6985, 167.4648
675.1807, 169.2539
675.6628, 152.9570
676.1449, 151.1523
676.6270, 181.9727
677.1091, 229.9141
677.5912, 276.3008
678.0734, 333.8945
678.5555, 366.9648
679.0376, 359.0938
679.5197, 328.1719
680.0018, 323.8086
680.4839, 348.4062
680.9661, 372.8320
681.4482, 394.9062
681.9303, 403.9297
682.4124, 360.1992
682.8945, 273.4961
683.3766, 204.0664
683.8588, 220.5586
684.3409, 249.2500
684.8230, 206.0703
685.3051, 85.68359
685.7872, 14.50781
686.2693, 78.31250
686.7515, 175.6211
687.2336, 243.3086
687.7157, 276.6523
688.1978, 292.2852
688.6799, 282.4414
689.1620, 265.5820
689.6442, 262.8633
690.1263, 274.6367
690.6084, 273.4062
691.0905, 251.7695
691.5726, 224.4375
692.0547, 206.3906
692.5369, 198.0156
693.0190, 202.9727
693.5011, 237.3398
693.9832, 266.1562
694.4653, 259.2188
694.9474, 228.1133
695.4296, 199.9023
695.9117, 164.7461
696.3938, 154.5586
696.8759, 199.9453
697.3580, 286.6719
697.8401, 321.6641
698.3223, 297.6641
698.8044, 256.6602
699.2865, 201.3750
699.7686, 135.9023
700.2507, 118.0703
700.7328, 148.7891
701.2150, 191.6094
701.6971, 211.1094
702.1792, 224.5625
702.6613, 270.1680
703.1434, 355.5859
703.6255, 420.6680
704.1077, 414.7500
704.5898, 378.7734
705.0719, 349.7812
705.5540, 338.1914
706.0361, 327.6172
706.5182, 321.1445
707.0004, 313.5000
707.4825, 298.7656
707.9646, 277.6445
708.4467, 251.9531
708.9288, 221.6406
709.4109, 190.2227
709.8931, 156.8477
710.3752, 125.7344
710.8573, 118.0742
711.3394, 162.5391
711.8215, 212.4883
712.3036, 210.1484
712.7858, 170.7617
713.2679, 138.5195
713.7500, 128.7891
714.2321, 132.1211
714.7142, 152.4297
715.1964, 186.8203
715.6785, 197.8750
716.1606, 166.5508
716.6427, 139.4492
717.1248, 141.9883
717.6069, 172.5781
718.0891, 180.3242
718.5712, 163.8594
719.0533, 136.1133
719.5354, 103.7031
720.0175, 69.42578
720.4996, 39.22266
720.9818, 14.46484
721.4639, 6.144531
721.9460, 24.15234
722.4281, 36.29688
722.9102, 37.73438
723.3923, 15.10547
723.8745, 4.886719
724.3566, 29.22656
724.8387, 56.75391
725.3208, 54.58984
725.8029, 14.90234
726.2850, 24.08594
726.7672, 54.67578
727.2493, 85.23828
727.7314, 133.9375
728.2135, 195.6367
728.6956, 248.6836
729.1777, 289.7617
729.6599, 311.7031
730.1420, 291.4883
730.6241, 247.2227
731.1062, 220.9609
731.5883, 259.7578
732.0704, 290.3516
732.5526, 282.7969
733.0347, 242.6992
733.5168, 208.1445
733.9989, 190.5859
734.4810, 159.8711
734.9631, 95.82031
735.4453, 8.964844
735.9274, 33.77734
736.4095, 31.58984
736.8916, 3.187500
737.3737, 62.52734
737.8558, 136.0430
738.3380, 164.5508
738.8201, 147.9766
739.3022, 129.2539
739.7843, 127.4453
740.2664, 131.0977
740.7485, 131.6406
741.2307, 124.1719
741.7128, 131.5156
742.1949, 170.2812
742.6770, 208.0078
743.1591, 213.9648
743.6412, 177.9141
744.1234, 165.9961
744.6055, 186.9766
745.0876, 220.6133
745.5697, 245.9414
746.0518, 265.0117
746.5339, 281.4883
747.0161, 292.9258
747.4982, 309.4180
747.9803, 353.5898
748.4624, 401.4258
748.9445, 420.7031
749.4266, 387.2383
749.9088, 344.5781
750.3909, 279.3008
750.8730, 218.7852
751.3551, 217.9688
751.8372, 304.6602
752.3193, 344.6953
752.8015, 297.2773
753.2836, 210.3828
753.7657, 176.5586
754.2478, 188.7109
754.7299, 213.4336
755.2120, 248.0195
755.6942, 276.6719
756.1763, 274.9023
756.6584, 252.5000
757.1405, 239.7109
757.6226, 240.6602
758.1047, 255.6289
758.5869, 300.0703
759.0690, 361.5273
759.5511, 364.5156
760.0332, 278.6094
760.5153, 216.8555
760.9974, 244.4648
761.4796, 332.9922
761.9617, 358.8711
762.4438, 326.0547
762.9259, 271.6250
763.4080, 204.6484
763.8901, 141.6406
764.3723, 103.9727
764.8544, 92.35938
765.3365, 83.22266
765.8186, 61.75391
766.3007, 45.08203
766.7828, 41.92188
767.2650, 51.50391
767.7471, 71.98047
768.2292, 103.5273
768.7113, 140.4961
769.1934, 190.0391
769.6755, 245.6406
770.1577, 245.6094
770.6398, 182.7773
771.1219, 127.8984
771.6040, 163.7539
772.0861, 236.3867
772.5682, 279.2461
773.0504, 277.4219
773.5325, 265.4531
774.0146, 249.9375
774.4967, 234.5391
774.9788, 224.1289
775.4609, 232.9883
775.9431, 212.1875
776.4252, 148.4609
776.9073, 79.12500
777.3894, 47.60938
777.8715, 51.07812
778.3536, 68.08984
778.8358, 98.94141
779.3179, 128.5430
779.8000, 133.0352
780.2821, 128.2148
780.7642, 138.2930
781.2463, 181.5781
781.7285, 224.5547
782.2106, 250.3633
782.6927, 269.4375
783.1748, 300.1172
783.6569, 353.3281
784.1390, 394.8984
784.6212, 422.0586
785.1033, 431.1992
785.5854, 400.2852
786.0675, 337.3164
786.5496, 301.7617
787.0317, 310.2344
787.5139, 355.6289
787.9960, 485.7422
788.4781, 639.7461
788.9602, 703.9258
789.4423, 553.8945
789.9244, 404.0859
790.4066, 323.9023
790.8887, 285.3906
791.3708, 215.3594
791.8529, 87.43359
792.3350, 17.64844
792.8171, 58.30469
793.2993, 152.2461
793.7814, 149.3125
794.2635, 67.08594
794.7456, 0.5625000
795.2277, 4.847656
795.7098, 25.31250
796.1920, 4.457031
796.6741, 43.40234
797.1562, 77.56250
797.6383, 74.48047
798.1204, 67.51562
798.6025, 66.33594
799.0847, 69.44141
799.5668, 74.71484
800.0489, 88.64844
800.5310, 79.24219
801.0131, 26.85938
801.4952, 51.33594
801.9774, 113.0781
802.4595, 159.0195
802.9416, 198.3477
803.4237, 245.7852
803.9058, 280.0742
804.3879, 282.8594
804.8701, 257.2852
805.3522, 224.2031
805.8343, 168.4492
806.3164, 129.8867
806.7985, 123.6172
807.2806, 145.9688
807.7628, 169.8789
808.2449, 197.6562
808.7270, 211.1523
809.2091, 195.2695
809.6912, 160.6875
810.1733, 116.7422
810.6555, 67.99219
811.1376, 42.14844
811.6197, 65.29297
812.1018, 105.0859
812.5839, 151.3984
813.0660, 201.5078
813.5482, 227.2344
814.0303, 227.1094
814.5124, 201.4609
814.9945, 135.8672
815.4766, 41.80859
815.9587, 12.34766
816.4409, 48.33594
816.9230, 91.75391
817.4051, 106.8203
817.8872, 107.4375
818.3693, 107.5508
818.8514, 109.0156
819.3336, 115.0195
819.8157, 136.5820
820.2978, 155.1133
820.7799, 148.6250
821.2620, 117.9023
821.7441, 140.4688
822.2263, 235.2812
822.7084, 325.5234
823.1905, 362.8047
823.6726, 359.9219
824.1547, 375.9141
824.6368, 408.6875
825.1190, 441.4141
825.6011, 474.0781
826.0832, 493.8477
826.5653, 477.3984
827.0474, 426.3945
827.5295, 402.0703
828.0117, 435.5039
828.4938, 484.7734
828.9760, 550.7695
829.4581, 630.3945
829.9402, 625.4883
830.4223, 525.0664
830.9044, 438.6875
831.3865, 458.3633
831.8687, 530.0859
832.3508, 547.1836
832.8329, 513.5391
833.3150, 481.7734
833.7971, 487.4141
834.2792, 495.9531
834.7614, 488.5625
835.2435, 463.1016
835.7256, 427.2617
836.2077, 364.6797
836.6898, 325.2266
837.1719, 348.6094
837.6541, 416.4414
838.1362, 410.6523
838.6183, 335.9180
839.1004, 270.3086
839.5825, 277.2031
840.0646, 310.1367
840.5468, 330.5781
841.0289, 336.0742
841.5110, 323.1484
841.9931, 248.3281
842.4752, 195.2227
842.9573, 203.1602
843.4395, 264.4297
843.9216, 309.1797
844.4037, 337.9570
844.8858, 339.5898
845.3679, 286.2539
845.8500, 210.4336
846.3322, 184.9570
846.8143, 202.4570
847.2964, 226.9844
847.7785, 253.7461
848.2606, 268.2617
848.7427, 251.9453
849.2249, 210.7109
849.7070, 198.9609
850.1891, 241.0898
850.6712, 268.5625
851.1533, 254.8750
851.6354, 211.9375
852.1176, 181.8438
852.5997, 163.2500
853.0818, 148.2812
853.5639, 136.1289
854.0460, 122.3672
854.5281, 85.77344
855.0103, 40.50781
855.4924, 34.88281
855.9745, 153.4922
856.4566, 226.3203
856.9387, 181.4141
857.4208, 66.27734
857.9030, 50.61719
858.3851, 147.9766
858.8672, 231.6953
859.3493, 252.3203
859.8314, 234.5391
860.3135, 215.4609
860.7957, 194.9688
861.2778, 173.1797
861.7599, 122.6875
862.2420, 100.5078
862.7241, 155.1641
863.2062, 252.7734
863.6884, 305.6875
864.1705, 291.4922
864.6526, 286.3320
865.1347, 311.6914
865.6168, 347.7383
866.0989, 356.8945
866.5811, 342.8438
867.0632, 322.1680
867.5453, 302.6992
868.0274, 274.6328
868.5095, 213.3047
868.9916, 144.3242
869.4738, 108.0547
869.9559, 161.1172
870.4380, 181.2344
870.9201, 144.7891
871.4022, 93.38281
871.8843, 87.55859
872.3665, 126.4688
872.8486, 184.8008
873.3307, 267.4844
873.8128, 330.5898
874.2949, 293.3555
874.7770, 215.2695
875.2592, 182.3086
875.7413, 237.5000
876.2234, 285.0078
876.7055, 285.3398
877.1876, 279.0312
877.6697, 306.5234
878.1519, 378.6367
878.6340, 413.0742
879.1161, 400.6758
879.5982, 373.3828
880.0803, 365.2305
880.5624, 368.0312
881.0446, 363.1094
881.5267, 343.2969
882.0088, 327.9727
882.4909, 339.5195
882.9730, 351.9062
883.4551, 344.8594
883.9373, 314.9961
884.4194, 278.8828
884.9015, 225.2656
885.3836, 201.0508
885.8657, 277.1211
886.3478, 409.6250
886.8300, 456.5781
887.3121, 415.6602
887.7942, 354.2266
888.2763, 289.1523
888.7584, 240.0664
889.2405, 225.8828
889.7227, 248.9805
890.2048, 266.0312
890.6869, 276.6953
891.1690, 275.3438
891.6511, 246.3672
892.1332, 203.0156
892.6154, 223.5703
893.0975, 299.4336
893.5796, 351.1719
894.0617, 320.9805
894.5438, 260.5039
895.0259, 195.0156
895.5081, 133.1836
895.9902, 102.7422
896.4723, 153.1875
896.9544, 174.1953
897.4365, 137.0508
897.9186, 65.39062
898.4008, 12.17969
898.8829, 21.19922
899.3650, 20.99219
899.8471, 35.51953
900.3292, 100.1328
900.8113, 119.7266
901.2935, 108.5312
901.7756, 92.12500
902.2577, 54.73828
902.7398, 41.04297
903.2219, 60.51562
903.7040, 99.04688
904.1862, 141.9922
904.6683, 188.9219
905.1504, 224.1367
905.6325, 244.6445
906.1146, 255.5234
906.5967, 258.4336
907.0789, 257.5820
907.5610, 262.1953
908.0431, 282.9102
908.5252, 284.3047
909.0073, 240.9648
909.4894, 186.9141
909.9716, 139.4922
910.4537, 91.22266
910.9358, 111.6406
911.4179, 214.2070
911.9000, 308.5039
912.3821, 302.0391
912.8643, 239.5352
913.3464, 181.9961
913.8285, 134.8711
914.3106, 108.7617
914.7927, 133.2188
915.2748, 156.7305
915.7570, 149.5195
916.2391, 113.6133
916.7212, 94.87891
917.2033, 96.73828
917.6854, 97.47656
918.1675, 73.71484
918.6497, 48.35547
919.1318, 93.09766
919.6139, 181.8398
920.0960, 220.0781
920.5781, 93.82422
921.0602, 17.61328
921.5424, 23.03906
922.0245, 39.53125
922.5066, 69.45703
922.9887, 56.96875
923.4708, 65.32422
923.9529, 124.0430
924.4351, 189.5234
924.9172, 174.3867
925.3993, 108.9531
925.8814, 68.16016
926.3635, 91.92188
926.8456, 113.5273
927.3278, 99.49219
927.8099, 69.78125
928.2920, 45.41797
928.7741, 19.76562
929.2562, 27.75000
929.7383, 79.95703
930.2205, 134.7539
930.7026, 147.4609
931.1847, 128.5117
931.6668, 89.34375
932.1489, 28.80859
932.6310, 4.535156
933.1132, 51.15625
933.5953, 114.2812
934.0774, 124.7578
934.5595, 78.63672
935.0416, 47.62500
935.5237, 34.52344
936.0059, 25.71484
936.4880, 15.94922
936.9701, 4.632813
937.4522, 18.51562
937.9343, 47.50781
938.4164, 54.69141
938.8986, 11.39844
939.3807, 41.09766
939.8628, 94.27734
940.3449, 141.3594
940.8270, 158.3555
941.3091, 136.5859
941.7913, 120.4297
942.2734, 124.4844
942.7555, 130.7188
943.2376, 93.80859
943.7197, 37.41016
944.2018, 21.21875
944.6840, 94.98828
945.1661, 149.1836
945.6482, 113.6016
946.1303, 52.45312
946.6124, 37.71094
947.0945, 83.86328
947.5767, 119.7148
948.0588, 143.3984
948.5409, 157.3867
949.0230, 167.4297
949.5051, 168.8828
949.9872, 151.1641
950.4694, 113.8711
950.9515, 71.83984
951.4336, 27.43359
951.9157, 14.92188
952.3978, 59.55469
952.8799, 104.3867
953.3621, 107.6797
953.8442, 65.98828
954.3263, 16.86719
954.8084, 21.49219
955.2905, 54.07812
955.7726, 90.35156
956.2548, 126.7734
956.7369, 152.9609
957.2190, 162.4688
957.7011, 165.3555
958.1832, 158.3164
958.6653, 146.5391
959.1475, 133.3125
959.6296, 116.8984
960.1117, 140.1680
960.5938, 224.5430
961.0759, 301.6250
961.5580, 270.9570
962.0402, 195.1367
962.5223, 165.6250
963.0044, 219.1523
963.4865, 266.0859
963.9686, 310.4297
964.4507, 323.3828
964.9329, 269.6758
965.4150, 150.9180
965.8971, 108.5234
966.3792, 142.6602
966.8613, 193.8008
967.3434, 223.4492
967.8256, 244.8789
968.3077, 271.9961
968.7898, 302.7422
969.2719, 321.4453
969.7540, 329.0938
970.2361, 316.0742
970.7183, 271.5430
971.2004, 211.4883
971.6825, 173.8633
972.1646, 158.7539
972.6467, 168.8555
973.1288, 215.7656
973.6110, 266.3438
974.0931, 302.8438
974.5752, 323.5820
975.0573, 325.6523
975.5394, 303.1016
976.0215, 270.0859
976.5037, 220.7812
976.9858, 172.1328
977.4679, 139.7852
977.9500, 124.5078
978.4321, 129.9180
978.9142, 146.4336
979.3964, 138.1484
979.8785, 40.07031
980.3606, 36.18359
980.8427, 11.50781
981.3248, 167.2148
981.8069, 247.1289
982.2891, 240.2539
982.7712, 207.1445
983.2533, 160.9648
983.7354, 115.9766
984.2175, 97.12109
984.6996, 99.78125
985.1818, 112.5039
985.6639, 124.7422
986.1460, 151.5664
986.6281, 213.5391
987.1102, 280.7500
987.5923, 314.3750
988.0745, 308.5195
988.5566, 318.4492
989.0387, 351.2148
989.5208, 377.4023
990.0029, 356.7578
990.4850, 317.8867
990.9672, 302.6758
991.4493, 316.7148
991.9314, 321.9766
992.4135, 313.4961
992.8957, 292.2227
993.3778, 255.6602
993.8599, 207.8477
994.3420, 159.5469
994.8242, 113.3516
995.3063, 88.89453
995.7884, 119.7930
996.2705, 150.8555
996.7526, 130.3086
997.2347, 82.82031
997.7169, 59.94141
998.1990, 82.02734
998.6811, 100.4062
999.1632, 108.7227
999.6453, 107.4805
1000.127, 91.63672
1000.610, 68.11328
1001.092, 54.71094
1001.574, 53.06250
1002.056, 68.68750
1002.538, 135.5195
1003.020, 194.0117
1003.502, 198.7422
1003.984, 152.4609
1004.466, 119.0820
1004.949, 99.29688
1005.431, 93.75000
1005.913, 108.4492
1006.395, 133.2070
1006.877, 156.6953
1007.359, 177.4180
1007.841, 191.6484
1008.323, 171.3516
1008.806, 181.4297
1009.288, 250.1523
1009.770, 331.4844
1010.252, 366.5898
1010.734, 356.6836
1011.216, 355.7852
1011.698, 374.6172
1012.180, 373.9414
1012.662, 289.9922
1013.145, 187.3555
1013.627, 125.6133
1014.109, 114.0352
1014.591, 108.7617
1015.073, 106.0898
1015.555, 117.2227
1016.037, 157.6680
1016.519, 208.8359
1017.002, 224.0977
1017.484, 207.2930
1017.966, 167.5586
1018.448, 66.53516
1018.930, 3.410156
1019.412, 33.68359
1019.894, 103.3750
1020.376, 100.8633
1020.858, 7.945313
1021.341, 35.86328
1021.823, 15.50391
1022.305, 21.48047
1022.787, 29.90625
1023.269, 28.15234
1023.751, 42.39062
1024.233, 75.00781
1024.715, 95.35938
1025.198, 73.09375
1025.680, 69.16797
1026.162, 106.0391
1026.644, 172.2656
1027.126, 240.0547
1027.608, 306.2500
1028.090, 357.1211
1028.572, 380.1523
1029.054, 394.6523
1029.536, 410.6289
1030.019, 423.9883
1030.501, 424.5312
1030.983, 382.4531
1031.465, 436.1172
1031.947, 621.0859
1032.429, 767.3984
1032.911, 690.3984
1033.393, 489.9688
1033.876, 325.7969
1034.358, 205.5391
1034.840, 97.71875
1035.322, 48.26562
1035.804, 129.7070
1036.286, 92.57812
1036.768, 14.38672
1037.250, 43.13281
1037.733, 1.125000
1038.215, 10.98828
1038.697, 54.45312
1039.179, 123.6406
1039.661, 131.1289
1040.143, 107.8672
1040.625, 85.92578
1041.107, 65.45312
1041.589, 57.17188
1042.072, 62.65625
1042.554, 75.12500
1043.036, 92.32812
1043.518, 112.5039
1044.000, 138.1992
1044.482, 165.6016
1044.964, 177.6445
1045.446, 150.5312
1045.928, 127.3281
1046.411, 125.1602
1046.893, 131.8047
1047.375, 113.5234
1047.857, 71.64844
1048.339, 99.80859
1048.821, 226.3945
1049.303, 337.7578
1049.785, 309.0469
1050.268, 227.9492
1050.750, 172.0469
1051.232, 154.0859
1051.714, 154.4844
1052.196, 183.9727
1052.678, 202.8672
1053.160, 190.2695
1053.642, 158.4531
1054.125, 136.9258
1054.607, 119.7344
1055.089, 89.96094
1055.571, 8.410156
1056.053, 42.55078
1056.535, 24.32031
1057.017, 21.82812
1057.499, 56.24219
1057.981, 78.60938
1058.464, 111.3281
1058.946, 156.0039
1059.428, 195.0078
1059.910, 212.3164
1060.392, 218.4023
1060.874, 219.7344
1061.356, 216.4883
1061.838, 206.4922
1062.320, 176.8125
1062.803, 180.1797
1063.285, 241.1055
1063.767, 320.9609
1064.249, 368.3672
1064.731, 388.0273
1065.213, 383.9258
1065.695, 343.6094
1066.177, 322.0117
1066.660, 354.4766
1067.142, 389.4492
1067.624, 393.6641
1068.106, 370.3711
1068.588, 363.0664
1069.070, 370.6328
1069.552, 382.5977
1070.034, 406.0078
1070.516, 418.4336
1070.999, 395.7188
1071.481, 353.8008
1071.963, 328.6289
1072.445, 328.0352
1072.927, 322.1328
1073.409, 308.6406
1073.891, 289.5078
1074.373, 269.7617
1074.855, 244.6719
1075.338, 195.4570
1075.820, 120.6367
1076.302, 87.84766
1076.784, 148.6797
1077.266, 202.4727
1077.748, 218.0625
1078.230, 206.1758
1078.713, 188.6406
1079.195, 166.0664
1079.677, 158.8789
1080.159, 186.3906
1080.641, 193.7930
1081.123, 108.6328
1081.605, 21.92969
1082.087, 23.58594
1082.569, 129.2578
1083.052, 175.9688
1083.534, 160.2852
1084.016, 135.3086
1084.498, 137.5820
1084.980, 145.2734
1085.462, 127.0469
1085.944, 95.97656
1086.426, 92.56250
1086.908, 129.8711
1087.391, 183.0352
1087.873, 262.6133
1088.355, 326.3750
1088.837, 309.3516
1089.319, 241.8516
1089.801, 178.5352
1090.283, 126.1836
1090.765, 98.85156
1091.248, 130.1562
1091.730, 156.6055
1092.212, 150.6680
1092.694, 124.7227
1093.176, 117.5664
1093.658, 124.3711
1094.140, 130.8750
1094.622, 126.7031
1095.104, 135.5352
1095.587, 209.9805
1096.069, 284.8281
1096.551, 287.9297
1097.033, 202.4297
1097.515, 150.2812
1097.997, 131.2109
1098.479, 142.4062
1098.961, 210.3828
1099.443, 284.1875
1099.926, 303.7031
1100.408, 278.2891
1100.890, 245.2305
1101.372, 193.3945
1101.854, 167.2461
1102.336, 177.5664
1102.818, 197.7500
1103.300, 203.1445
1103.783, 194.9336
1104.265, 174.5078
1104.747, 143.5352
1105.229, 107.4141
1105.711, 60.30469
1106.193, 19.53516
1106.675, 9.113281
1107.157, 24.33203
1107.640, 23.21094
1108.122, 6.792969
1108.604, 19.06641
1109.086, 60.28906
1109.568, 90.03906
1110.050, 50.21094
1110.532, 11.69531
1111.014, 44.54688
1111.496, 149.6289
1111.979, 236.2734
1112.461, 303.5547
1112.943, 330.7031
1113.425, 283.0625
1113.907, 212.2500
1114.389, 159.2852
1114.871, 130.9297
1115.353, 141.1523
1115.835, 222.0898
1116.318, 281.7266
1116.800, 320.9609
1117.282, 334.8125
1117.764, 305.0625
1118.246, 255.7070
1118.728, 245.5195
1119.210, 264.0469
1119.692, 240.2031
1120.175, 67.13672
1120.657, 33.87500
1121.139, 0.3242190
1121.621, 93.83984
1122.103, 140.1016
1122.585, 145.2617
1123.067, 126.8086
1123.549, 85.59375
1124.031, 50.31641
1124.514, 35.14453
1124.996, 32.89844
1125.478, 42.67969
1125.960, 60.56250
1126.442, 70.11719
1126.924, 71.68750
1127.406, 68.10156
1127.888, 47.25781
1128.370, 54.57812
1128.853, 185.2852
1129.335, 322.8945
1129.817, 324.6992
1130.299, 160.3320
1130.781, 96.52344
1131.263, 141.5625
1131.745, 210.9727
1132.227, 287.3945
1132.710, 334.2812
1133.192, 288.4375
1133.674, 187.2734
1134.156, 104.2734
1134.638, 32.12500
1135.120, 31.60547
1135.602, 126.3633
1136.084, 226.7773
1136.567, 243.7969
1137.049, 212.3203
1137.531, 177.3242
1138.013, 146.2891
1138.495, 146.4219
1138.977, 234.8086
1139.459, 284.3711
1139.941, 262.3047
1140.423, 207.3633
1140.906, 167.6602
1141.388, 146.4102
1141.870, 167.0469
1142.352, 235.9375
1142.834, 281.2422
1143.316, 248.5039
1143.798, 211.4570
1144.280, 202.6953
1144.762, 212.7617
1145.245, 204.3945
1145.727, 183.3398
1146.209, 186.9375
1146.691, 239.0273
1147.173, 275.6602
1147.655, 231.3555
1148.137, 177.0820
1148.619, 171.8867
1149.102, 216.0117
1149.584, 242.5039
1150.066, 251.2812
1150.548, 261.7383
1151.030, 292.2930
1151.512, 315.4180
1151.994, 309.8867
1152.476, 282.6250
1152.958, 239.2148
1153.441, 163.9492
1153.923, 146.3086
1154.405, 192.0195
1154.887, 238.4062
1155.369, 254.5898
1155.851, 236.2461
1156.333, 143.5547
1156.815, 11.76172
1157.297, 42.01172
1157.780, 16.34766
1158.262, 75.39453
1158.744, 129.1562
1159.226, 161.4023
1159.708, 139.0273
1160.190, 93.13672
1160.672, 70.19922
1161.154, 70.71484
1161.637, 57.39062
1162.119, 9.199219
1162.601, 21.88281
1163.083, 21.50781
1163.565, 6.136719
1164.047, 2.121094
1164.529, 5.617188
1165.011, 12.13281
1165.494, 25.80469
1165.976, 20.21094
1166.458, 38.88672
1166.940, 75.49609
1167.422, 53.71875
1167.904, 0.2929690
1168.386, 13.86719
1168.868, 2.707031
1169.350, 11.37109
1169.833, 61.11719
1170.315, 104.1484
1170.797, 111.6680
1171.279, 121.4336
1171.761, 160.2188
1172.243, 217.5156
1172.725, 241.2656
1173.207, 236.7266
1173.689, 226.2383
1174.172, 218.6172
1174.654, 209.7852
1175.136, 196.3320
1175.618, 184.2344
1176.100, 174.2461
1176.582, 165.9805
1177.064, 184.5273
1177.546, 228.3203
1178.029, 273.4336
1178.511, 318.0664
1178.993, 348.0078
1179.475, 337.8945
1179.957, 313.8281
1180.439, 322.2812
1180.921, 364.3984
1181.403, 380.3398
1181.885, 365.1289
1182.368, 373.3047
1182.850, 498.6289
1183.332, 607.0000
1183.814, 593.1406
1184.296, 500.2188
1184.778, 435.3945
1185.260, 399.7188
1185.742, 376.9727
1186.224, 366.0586
1186.707, 363.7422
1187.189, 385.6602
1187.671, 399.2578
1188.153, 368.3008
1188.635, 303.6289
1189.117, 269.2891
1189.599, 265.8008
1190.081, 259.2266
1190.564, 239.5391
1191.046, 221.4180
1191.528, 206.2305
1192.010, 207.8945
1192.492, 259.7969
1192.974, 361.6055
1193.456, 375.5273
1193.938, 287.6523
1194.421, 237.2773
1194.903, 293.4023
1195.385, 368.5469
1195.867, 364.4180
1196.349, 317.3320
1196.831, 277.3242
1197.313, 251.3828
1197.795, 227.2656
1198.277, 204.1602
1198.760, 187.3672
1199.242, 179.4766
1199.724, 183.0977
1200.206, 200.4531
1200.688, 217.7930
1201.170, 218.5625
1201.652, 193.9258
1202.134, 184.1250
1202.616, 191.6016
1203.099, 199.0273
1203.581, 195.8984
1204.063, 185.8477
1204.545, 181.7539
1205.027, 173.3242
1205.509, 132.5859
1205.991, 26.33984
1206.473, 22.25000
1206.956, 0.9296880
1207.438, 42.48438
1207.920, 77.76562
1208.402, 106.2969
1208.884, 141.4297
1209.366, 172.4844
1209.848, 158.8516
1210.330, 71.32031
1210.813, 15.73047
1211.295, 4.101563
1211.777, 17.17188
1212.259, 52.26953
1212.741, 89.62500
1213.223, 99.11719
1213.705, 85.51172
1214.187, 82.99219
1214.669, 92.69531
1215.151, 116.5859
1215.634, 160.4219
1216.116, 215.9766
1216.598, 287.5156
1217.080, 360.3672
1217.562, 408.3359
1218.044, 431.3672
1218.526, 481.1875
1219.008, 578.5859
1219.491, 636.2188
1219.973, 629.4414
1220.455, 591.2305
1220.937, 541.6133
1221.419, 500.7852
1221.901, 505.2812
1222.383, 559.0742
1222.865, 568.1602
1223.348, 519.1641
1223.830, 466.6914
1224.312, 421.5078
1224.794, 390.2656
1225.276, 413.2031
1225.758, 446.7852
1226.240, 424.4609
1226.722, 328.5117
1227.204, 262.6016
1227.687, 234.7227
1228.169, 205.8203
1228.651, 154.2969
1229.133, 111.3164
1229.615, 135.9062
1230.097, 184.3203
1230.579, 197.0508
1231.061, 160.8477
1231.543, 119.5781
1232.026, 69.77734
1232.508, 29.77344
1232.990, 3.042969
1233.472, 3.679688
1233.954, 32.56250
1234.436, 87.14453
1234.918, 134.7188
1235.400, 178.3945
1235.883, 152.0000
1236.365, 43.48828
1236.847, 34.21875
1237.329, 5.675781
1237.811, 73.67188
1238.293, 66.42578
1238.775, 33.55469
1239.257, 61.51562
1239.740, 183.7656
1240.222, 205.7344
1240.704, 119.3711
1241.186, 53.07812
1241.668, 126.0938
1242.150, 214.6445
1242.632, 210.0352
1243.114, 153.0156
1243.596, 103.0820
1244.079, 57.41797
1244.561, 61.06641
1245.043, 116.3203
1245.525, 151.9688
1246.007, 73.84766
1246.489, 8.316406
1246.971, 86.84375
1247.453, 216.7773
1247.936, 235.2930
1248.418, 126.6211
1248.900, 116.1133
1249.382, 203.6055
1249.864, 268.8438
1250.346, 184.2930
1250.828, 92.07031
1251.310, 95.96875
1251.792, 130.5156
1252.275, 94.67188
1252.757, 8.175781
1253.239, 36.15234
1253.721, 16.16016
1254.203, 74.46094
1254.685, 105.0664
1255.167, 115.6680
1255.649, 111.1836
1256.131, 90.51953
1256.614, 32.80859
1257.096, 50.41406
1257.578, 68.17969
1258.060, 17.10938
1258.542, 42.71484
1259.024, 73.71875
1259.506, 113.5117
1259.988, 187.2266
1260.471, 260.4219
1260.953, 270.8906
1261.435, 236.0625
1261.917, 221.6797
1262.399, 231.1016
1262.881, 242.0820
1263.363, 257.0078
1263.845, 273.5547
1264.328, 286.1758
1264.810, 294.0781
1265.292, 339.4141
1265.774, 395.2695
1266.256, 415.3789
1266.738, 395.0898
1267.220, 395.7383
1267.702, 467.4023
1268.184, 499.7422
1268.667, 464.7383
1269.149, 404.9766
1269.631, 368.4844
1270.113, 356.5586
1270.595, 360.9883
1271.077, 381.2930
1271.559, 373.6211
1272.041, 318.2422
1272.523, 282.1914
1273.006, 291.0898
1273.488, 309.6875
1273.970, 213.3672
1274.452, 89.16406
1274.934, 24.96875
1275.416, 86.01562
1275.898, 137.7891
1276.380, 165.3633
1276.863, 188.1797
1277.345, 213.7773
1277.827, 220.0078
1278.309, 157.3477
1278.791, 83.62500
1279.273, 54.40625
1279.755, 66.10547
1280.237, 82.64453
1280.719, 104.8750
1281.202, 104.8164
1281.684, 71.76562
1282.166, 44.29688
1282.648, 56.98438
1283.130, 87.14453
1283.612, 126.9336
1284.094, 174.9609
1284.576, 165.6445
1285.058, 107.2070
1285.541, 77.48047
1286.023, 94.21875
1286.505, 121.7070
1286.987, 133.5352
1287.469, 146.8398
1287.951, 186.8164
1288.433, 225.3594
1288.915, 176.9219
1289.398, 70.56641
1289.880, 3.878906
1290.362, 1.898438
1290.844, 17.44922
1291.326, 30.86719
1291.808, 0.0000000E+00
##END=



