##NAMES=Szenicsite
##RRUFFID=R100179
##IDEAL CHEMISTRY=Cu^2+^_3_Mo^6+^O_4_(OH)_4_
##LOCALITY=Carlota mine, Pinto Creek, Gila, Arizona, USA
##OWNER=RRUFF
##SOURCE=Joe Ruiz
##DESCRIPTION=Green elongated crystals, associated with blue azurite, pale green thick tabular powellite (R100180) and colorless granular prosopite (R100181). 
##STATUS=The identification of this mineral has been confirmed by single-crystal X-ray diffraction.
##URL=rruff.info/R100179
90.60547, 0.0000000E+00
91.08759, 9.8632999E-02
91.56970, 0.2951840
92.05182, 1.229043
92.53394, 3.300220
93.01605, 4.074424
93.49817, 3.130373
93.98029, 0.9946430
94.46240, 7.9276003E-02
94.94452, 0.8483360
95.42664, 2.046430
95.90874, 2.505681
96.39086, 2.236405
96.87298, 1.812089
97.35509, 2.220752
97.83721, 3.136540
98.31933, 3.558874
98.80145, 3.636351
99.28356, 3.677312
99.76568, 3.971011
100.2478, 4.593971
100.7299, 5.304885
101.2120, 5.517699
101.6941, 4.934370
102.1763, 4.129837
102.6584, 2.797966
103.1405, 1.360143
103.6226, 0.2310280
104.1047, 0.2924010
104.5868, 0.2214760
105.0690, 0.2518500
105.5511, 1.545708
106.0332, 2.754839
106.5153, 3.431453
106.9974, 3.595937
107.4795, 3.630517
107.9617, 3.835235
108.4438, 4.172887
108.9259, 4.428025
109.4080, 4.068344
109.8901, 3.535674
110.3722, 3.495532
110.8544, 4.209215
111.3365, 4.820879
111.8186, 4.514929
112.3007, 3.634367
112.7828, 2.901055
113.2649, 2.971893
113.7471, 3.746166
114.2292, 3.844392
114.7113, 2.280729
115.1934, 0.9451800
115.6755, 0.7468240
116.1576, 1.533716
116.6397, 2.553475
117.1219, 3.012333
117.6040, 2.709467
118.0861, 2.510615
118.5682, 2.330488
119.0503, 2.220828
119.5324, 2.350236
120.0146, 2.707721
120.4967, 3.070191
120.9788, 3.053457
121.4609, 2.180404
121.9430, 1.635253
122.4251, 1.420249
122.9073, 1.553127
123.3894, 2.372442
123.8715, 3.806727
124.3536, 5.407029
124.8357, 5.427951
125.3178, 3.308767
125.8000, 1.285419
126.2821, 0.1593480
126.7642, 0.1898120
127.2463, 0.1658210
127.7284, 0.1780100
128.2105, 0.7778650
128.6927, 1.524997
129.1748, 2.617851
129.6569, 3.596931
130.1390, 3.728200
130.6211, 2.951559
131.1032, 2.097725
131.5854, 1.169320
132.0675, 0.4809550
132.5496, 0.5471530
133.0317, 1.712503
133.5138, 3.327953
133.9959, 4.147526
134.4781, 3.663081
134.9602, 3.161022
135.4423, 2.877916
135.9244, 2.829192
136.4065, 3.115101
136.8886, 3.910787
137.3708, 5.118900
137.8529, 5.321875
138.3350, 2.649243
138.8171, 0.7745570
139.2992, 1.146603
139.7813, 3.096716
140.2635, 5.097604
140.7456, 5.586853
141.2277, 4.438560
141.7098, 3.642444
142.1919, 3.458653
142.6740, 3.315723
143.1561, 2.853503
143.6383, 2.070036
144.1204, 1.251068
144.6025, 0.6519220
145.0846, 0.3007170
145.5667, 0.2266290
146.0488, 0.3117290
146.5310, 0.7310510
147.0131, 2.017247
147.4952, 4.475396
147.9773, 6.714680
148.4594, 6.546192
148.9415, 4.396715
149.4237, 2.762309
149.9058, 3.212409
150.3879, 4.918588
150.8700, 5.442873
151.3521, 3.687906
151.8342, 1.618550
152.3164, 0.9227700
152.7985, 1.502235
153.2806, 2.284902
153.7627, 2.554729
154.2448, 2.307215
154.7269, 1.833048
155.2091, 0.1797880
155.6912, 0.8987370
156.1733, 2.6311999E-02
156.6554, 2.861104
157.1375, 5.905385
157.6196, 6.947320
158.1018, 5.122263
158.5839, 3.776759
159.0660, 3.414336
159.5481, 3.300997
160.0302, 3.009533
160.5123, 2.427575
160.9945, 1.706659
161.4766, 1.097750
161.9587, 0.4720410
162.4408, 0.1909680
162.9229, 0.4947810
163.4050, 1.060532
163.8871, 1.449465
164.3693, 1.477051
164.8514, 1.404467
165.3335, 1.831682
165.8156, 3.679876
166.2977, 4.612817
166.7798, 3.852721
167.2620, 2.201166
167.7441, 0.7611800
168.2262, 5.8118999E-02
168.7083, 0.2231690
169.1904, 0.5344290
169.6725, 2.922163
170.1547, 4.789856
170.6368, 4.954934
171.1189, 3.821334
171.6010, 2.787164
172.0831, 2.560827
172.5652, 2.740067
173.0474, 2.422394
173.5295, 1.361847
174.0116, 0.2910770
174.4937, 0.2928750
174.9758, 0.3949120
175.4579, 0.1563560
175.9401, 0.5931410
176.4222, 1.566674
176.9043, 2.586163
177.3864, 3.765805
177.8685, 4.803990
178.3506, 5.342027
178.8328, 5.351500
179.3149, 4.930320
179.7970, 3.480020
180.2791, 1.916711
180.7612, 1.100511
181.2433, 1.386769
181.7255, 2.372216
182.2076, 3.274290
182.6897, 4.292109
183.1718, 4.797891
183.6539, 4.322002
184.1360, 3.495856
184.6181, 3.030369
185.1003, 3.313977
185.5824, 4.064703
186.0645, 4.196351
186.5466, 2.666040
187.0287, 1.785693
187.5108, 2.597682
187.9930, 4.025267
188.4751, 4.485474
188.9572, 3.012697
189.4393, 0.1707270
189.9214, 0.8110110
190.4035, 2.719571
190.8857, 5.178867
191.3678, 4.752003
191.8499, 2.595679
192.3320, 0.7284600
192.8141, 0.3946800
193.2962, 1.374041
193.7784, 2.405271
194.2605, 3.877007
194.7426, 5.045023
195.2247, 5.600273
195.7068, 5.636831
196.1889, 5.394478
196.6711, 4.918478
197.1532, 4.356789
197.6353, 4.172582
198.1174, 4.696139
198.5995, 5.203281
199.0816, 5.231954
199.5638, 4.859945
200.0459, 4.574184
200.5280, 4.641959
201.0101, 5.034146
201.4922, 5.595467
201.9743, 6.844594
202.4565, 7.732152
202.9386, 6.946066
203.4207, 4.428835
203.9028, 2.351931
204.3849, 2.343951
204.8670, 3.376757
205.3492, 3.940374
205.8313, 3.484021
206.3134, 2.834775
206.7955, 3.274937
207.2776, 5.159842
207.7597, 6.472236
208.2419, 5.538043
208.7240, 3.835702
209.2061, 2.729960
209.6882, 2.675271
210.1703, 3.352799
210.6524, 4.482469
211.1346, 6.578647
211.6167, 7.718293
212.0988, 6.548623
212.5809, 4.560022
213.0630, 3.141280
213.5451, 2.827782
214.0273, 3.324935
214.5094, 3.697343
214.9915, 3.925873
215.4736, 4.004502
215.9557, 3.817675
216.4378, 3.560812
216.9200, 3.421603
217.4021, 3.484272
217.8842, 3.704213
218.3663, 4.019276
218.8484, 5.072725
219.3305, 5.197597
219.8127, 3.363707
220.2948, 0.9248270
220.7769, 0.6285230
221.2590, 0.6202590
221.7411, 0.4148440
222.2232, 0.8850880
222.7054, 0.4999140
223.1875, 0.8707900
223.6696, 0.6350290
224.1517, 2.986586
224.6338, 5.144910
225.1159, 6.660892
225.5980, 7.505050
226.0802, 7.562042
226.5623, 5.772248
227.0444, 4.486601
227.5265, 4.165614
228.0086, 4.327397
228.4907, 4.414578
228.9729, 4.199635
229.4550, 3.731337
229.9371, 3.105112
230.4192, 2.054400
230.9013, 1.264240
231.3834, 1.059344
231.8656, 1.126485
232.3477, 0.8575160
232.8298, 3.1401001E-02
233.3119, 0.9916320
233.7940, 0.6767050
234.2761, 1.425269
234.7583, 3.176478
235.2404, 4.133312
235.7225, 4.380369
236.2046, 3.840748
236.6867, 2.242916
237.1688, 0.4650100
237.6510, 0.2699360
238.1331, 1.863978
238.6152, 3.231016
239.0973, 3.527952
239.5794, 3.137194
240.0615, 2.857867
240.5437, 2.903466
241.0258, 3.118001
241.5079, 3.225339
241.9900, 3.206355
242.4721, 3.459828
242.9542, 4.758780
243.4364, 6.470465
243.9185, 6.734884
244.4006, 4.593450
244.8827, 2.034396
245.3648, 1.185663
245.8469, 1.826190
246.3290, 2.516893
246.8112, 2.353693
247.2933, 1.673864
247.7754, 1.646940
248.2575, 3.128028
248.7396, 4.322495
249.2217, 3.433691
249.7039, 1.057048
250.1860, 0.7737880
250.6681, 0.6104890
251.1502, 1.040797
251.6323, 2.357477
252.1144, 3.425159
252.5966, 3.813585
253.0787, 2.979342
253.5608, 1.366186
254.0429, 4.9164999E-02
254.5250, 0.7495100
255.0071, 0.8211760
255.4893, 0.6020240
255.9714, 0.1529410
256.4535, 0.7450390
256.9356, 2.804948
257.4177, 5.220168
257.8998, 6.557796
258.3820, 5.586070
258.8641, 3.172821
259.3462, 2.565272
259.8283, 5.211112
260.3104, 7.304669
260.7925, 7.454851
261.2747, 6.460345
261.7568, 5.272748
262.2389, 4.267686
262.7210, 3.530263
263.2031, 3.370811
263.6852, 4.259207
264.1674, 4.932694
264.6495, 5.053733
265.1316, 4.861508
265.6137, 4.595721
266.0958, 4.358906
266.5779, 4.112834
267.0601, 3.746752
267.5422, 3.124294
268.0243, 2.635660
268.5064, 2.203151
268.9885, 1.969303
269.4706, 2.098038
269.9528, 2.640685
270.4349, 3.461033
270.9170, 4.335227
271.3991, 5.377492
271.8812, 6.224388
272.3633, 7.150943
272.8455, 7.730124
273.3276, 7.412090
273.8097, 6.157255
274.2918, 4.630774
274.7739, 3.900812
275.2560, 4.552717
275.7382, 4.763565
276.2202, 4.499123
276.7024, 3.924284
277.1845, 2.836067
277.6666, 1.375234
278.1487, 0.2121710
278.6308, 0.2489340
279.1129, 2.188597
279.5951, 3.128850
280.0772, 2.265124
280.5593, 1.175166
281.0414, 0.6271430
281.5235, 0.8264380
282.0056, 1.405927
282.4878, 2.129433
282.9699, 3.154385
283.4520, 3.590180
283.9341, 3.049755
284.4162, 2.393696
284.8983, 1.797356
285.3805, 1.360341
285.8626, 1.246746
286.3447, 1.631772
286.8268, 2.500678
287.3089, 3.026283
287.7910, 3.053765
288.2732, 2.938251
288.7553, 2.701852
289.2374, 2.396652
289.7195, 2.058215
290.2016, 1.686495
290.6837, 1.337344
291.1659, 1.316976
291.6480, 2.498435
292.1301, 3.179043
292.6122, 2.441985
293.0943, 1.138306
293.5764, 0.5499190
294.0586, 1.281857
294.5407, 2.812142
295.0228, 3.730120
295.5049, 3.358135
295.9870, 3.172281
296.4691, 3.329397
296.9513, 3.651102
297.4334, 4.050294
297.9155, 4.481040
298.3976, 4.737223
298.8797, 4.426200
299.3618, 2.875832
299.8440, 2.050289
300.3261, 2.349496
300.8082, 3.107999
301.2903, 3.923964
301.7724, 4.670271
302.2545, 5.265976
302.7367, 5.638885
303.2188, 5.809413
303.7009, 5.536566
304.1830, 4.203139
304.6651, 2.964713
305.1472, 2.740996
305.6294, 3.420513
306.1115, 4.091877
306.5936, 3.929286
307.0757, 2.864348
307.5578, 2.295258
308.0399, 2.547347
308.5221, 2.845273
309.0042, 2.757406
309.4863, 2.397355
309.9684, 2.200248
310.4505, 2.475604
310.9326, 3.209126
311.4148, 3.878144
311.8969, 4.537631
312.3790, 4.927975
312.8611, 5.036804
313.3432, 4.976558
313.8253, 4.901497
314.3075, 4.866546
314.7896, 4.776317
315.2717, 4.377080
315.7538, 3.175333
316.2359, 2.378959
316.7180, 2.391601
317.2001, 2.720515
317.6823, 2.799510
318.1644, 2.469534
318.6465, 2.013525
319.1286, 1.862251
319.6107, 2.204463
320.0928, 2.420287
320.5750, 2.479191
321.0571, 2.438623
321.5392, 2.317119
322.0213, 2.129338
322.5034, 1.893583
322.9855, 1.582446
323.4677, 1.130478
323.9498, 1.195209
324.4319, 2.321069
324.9140, 3.377297
325.3961, 3.730069
325.8782, 3.505349
326.3604, 3.207405
326.8425, 3.181910
327.3246, 3.403795
327.8067, 3.591186
328.2888, 3.582257
328.7709, 3.724645
329.2531, 4.520246
329.7352, 5.462996
330.2173, 5.673822
330.6994, 4.774038
331.1815, 3.190404
331.6636, 2.060005
332.1458, 1.752496
332.6279, 1.474237
333.1100, 1.173972
333.5921, 0.9085190
334.0742, 0.7242660
334.5563, 0.6379990
335.0385, 0.6523910
335.5206, 0.7826450
336.0027, 1.101470
336.4848, 1.353133
336.9669, 1.803852
337.4490, 1.995494
337.9312, 1.315405
338.4133, 5.9985001E-02
338.8954, 1.184449
339.3775, 1.286550
339.8596, 0.2635270
340.3417, 1.041489
340.8239, 3.428940
341.3060, 5.240249
341.7881, 5.606455
342.2702, 4.955365
342.7523, 4.137070
343.2344, 3.651826
343.7166, 3.485933
344.1987, 3.582182
344.6808, 4.654379
345.1629, 5.156923
345.6450, 4.143381
346.1271, 2.815074
346.6093, 2.743819
347.0914, 4.453786
347.5735, 6.887722
348.0556, 7.980664
348.5377, 6.788219
349.0198, 5.904639
349.5020, 5.380188
349.9841, 5.081999
350.4662, 5.145407
350.9483, 5.451557
351.4304, 5.499477
351.9125, 4.607131
352.3947, 2.497824
352.8768, 1.318606
353.3589, 1.627965
353.8410, 2.300694
354.3231, 3.451422
354.8052, 4.712966
355.2874, 5.199764
355.7695, 4.196013
356.2516, 2.099514
356.7337, 0.9149140
357.2158, 1.329624
357.6979, 1.789320
358.1800, 1.982494
358.6621, 2.081486
359.1443, 2.294970
359.6264, 2.703812
360.1085, 3.207944
360.5906, 3.671591
361.0727, 4.191414
361.5548, 4.401338
362.0370, 4.033293
362.5191, 3.542724
363.0012, 3.176031
363.4833, 2.967283
363.9654, 2.841641
364.4475, 2.649569
364.9297, 2.362746
365.4118, 2.541276
365.8939, 4.196073
366.3760, 5.170698
366.8581, 4.137175
367.3402, 1.825531
367.8224, 0.2879740
368.3045, 1.403112
368.7866, 1.669417
369.2687, 1.406577
369.7508, 0.3138460
370.2329, 0.6442760
370.7151, 0.9481400
371.1972, 1.061350
371.6793, 1.510706
372.1614, 2.483668
372.6435, 3.501713
373.1256, 3.904377
373.6078, 3.642285
374.0899, 3.480434
374.5720, 3.714835
375.0541, 3.973355
375.5362, 4.013261
376.0183, 3.828554
376.5005, 3.486846
376.9826, 2.765742
377.4647, 1.884149
377.9468, 1.771347
378.4289, 2.833268
378.9110, 3.886941
379.3932, 4.079652
379.8753, 3.708441
380.3574, 3.268958
380.8395, 2.746662
381.3216, 2.378549
381.8037, 2.612260
382.2859, 3.464457
382.7680, 4.104117
383.2501, 4.012751
383.7322, 3.596601
384.2143, 3.660779
384.6964, 4.492102
385.1786, 4.834920
385.6607, 3.384269
386.1428, 0.8814390
386.6249, 0.6687170
387.1070, 0.7000710
387.5891, 3.5822999E-02
388.0713, 0.9580560
388.5534, 2.041102
389.0355, 2.718534
389.5176, 2.348155
389.9997, 1.848358
390.4818, 2.387714
390.9640, 3.975421
391.4461, 5.262933
391.9282, 5.222857
392.4103, 4.136807
392.8924, 3.544559
393.3745, 4.030075
393.8567, 4.326436
394.3388, 3.798553
394.8209, 2.760024
395.3030, 1.581235
395.7851, 0.3324880
396.2672, 0.4743600
396.7494, 0.1695840
397.2315, 3.422300
397.7136, 5.586594
398.1957, 5.985916
398.6778, 5.508157
399.1599, 4.543114
399.6420, 3.318372
400.1241, 2.451001
400.6063, 2.603150
401.0884, 3.820525
401.5705, 4.184399
402.0526, 2.287709
402.5347, 1.217616
403.0168, 2.804967
403.4990, 5.666439
403.9811, 7.423276
404.4632, 6.916506
404.9453, 5.082213
405.4274, 4.232119
405.9095, 5.439773
406.3917, 5.822604
406.8738, 4.470613
407.3559, 2.948515
407.8380, 2.384832
408.3201, 2.887247
408.8022, 3.861600
409.2844, 4.919371
409.7665, 6.127493
410.2486, 6.201385
410.7307, 4.040989
411.2128, 1.870224
411.6949, 0.1943270
412.1771, 0.7594230
412.6592, 0.5576640
413.1413, 1.174734
413.6234, 3.627432
414.1055, 5.026715
414.5876, 5.090225
415.0698, 4.968800
415.5519, 4.835629
416.0340, 4.673867
416.5161, 4.368283
416.9982, 3.935734
417.4803, 3.713955
417.9625, 4.196539
418.4446, 5.235956
418.9267, 5.802911
419.4088, 5.536573
419.8909, 5.174364
420.3730, 5.603828
420.8552, 6.333671
421.3373, 6.242393
421.8194, 4.263111
422.3015, 2.019850
422.7836, 1.818126
423.2657, 3.627080
423.7479, 4.934446
424.2300, 4.559621
424.7121, 3.296559
425.1942, 2.311947
425.6763, 1.516270
426.1584, 1.249842
426.6406, 2.261003
427.1227, 3.849910
427.6048, 4.800129
428.0869, 4.837252
428.5690, 4.457341
429.0511, 4.032888
429.5333, 3.573200
430.0154, 3.269775
430.4975, 3.088120
430.9796, 3.095885
431.4617, 3.564680
431.9438, 4.264593
432.4260, 4.581379
432.9081, 4.168708
433.3902, 3.325394
433.8723, 2.860839
434.3544, 3.274180
434.8365, 3.233268
435.3187, 2.049041
435.8008, 0.8229830
436.2829, 0.6390310
436.7650, 1.497181
437.2471, 2.470399
437.7292, 2.633280
438.2114, 1.949601
438.6935, 1.934356
439.1756, 3.451164
439.6577, 4.684276
440.1398, 5.263615
440.6219, 5.299750
441.1040, 4.830847
441.5862, 3.879454
442.0683, 2.810636
442.5504, 2.441798
443.0325, 3.048364
443.5146, 3.192840
443.9967, 2.170980
444.4789, 1.095070
444.9610, 0.6244760
445.4431, 0.7578760
445.9252, 1.065493
446.4073, 1.391927
446.8894, 1.654659
447.3716, 1.428911
447.8537, 0.4213460
448.3358, 0.3389220
448.8179, 0.2869660
449.3000, 0.1999490
449.7821, 0.8741710
450.2643, 1.787198
450.7464, 2.396776
451.2285, 1.827184
451.7106, 0.4075980
452.1927, 7.7072002E-02
452.6748, 1.013613
453.1570, 2.519328
453.6391, 3.281089
454.1212, 3.407421
454.6033, 3.543659
455.0854, 3.921886
455.5675, 4.263793
456.0497, 4.270418
456.5318, 3.894862
457.0139, 3.114727
457.4960, 1.644994
457.9781, 5.5509999E-02
458.4602, 0.1094710
458.9424, 2.900917
459.4245, 4.767562
459.9066, 4.341582
460.3887, 3.090603
460.8708, 2.574549
461.3529, 2.980690
461.8351, 3.414803
462.3172, 2.953561
462.7993, 1.545870
463.2814, 0.9429050
463.7635, 1.591611
464.2456, 2.468278
464.7278, 3.593777
465.2099, 4.708871
465.6920, 5.676213
466.1741, 6.420232
466.6562, 6.519404
467.1383, 4.814240
467.6205, 5.2510002E-03
468.1026, 2.429326
468.5847, 0.1483670
469.0668, 2.966811
469.5489, 3.810348
470.0310, 3.011075
470.5132, 2.116894
470.9953, 2.017711
471.4774, 2.465255
471.9595, 3.017092
472.4416, 3.744390
472.9237, 4.311522
473.4059, 4.631783
473.8880, 4.700742
474.3701, 4.521894
474.8522, 4.098796
475.3343, 3.364553
475.8164, 1.606124
476.2986, 0.4307910
476.7807, 0.4958150
477.2628, 2.041734
477.7449, 4.469309
478.2270, 4.498570
478.7091, 2.671105
479.1913, 1.470670
479.6734, 1.372417
480.1555, 1.598158
480.6376, 1.707918
481.1197, 1.770239
481.6018, 1.683840
482.0839, 1.387691
482.5660, 1.297742
483.0482, 2.114967
483.5303, 4.326403
484.0124, 5.600719
484.4945, 5.573803
484.9766, 5.016393
485.4587, 3.872663
485.9409, 2.540907
486.4230, 1.884098
486.9051, 2.424192
487.3872, 3.697536
487.8693, 4.394532
488.3514, 4.522615
488.8336, 4.006310
489.3157, 1.849407
489.7978, 7.1372002E-02
490.2799, 0.1784770
490.7620, 1.321576
491.2441, 2.887454
491.7263, 3.276820
492.2084, 2.708226
492.6905, 2.208986
493.1726, 1.780396
493.6547, 1.421135
494.1368, 0.9105800
494.6190, 0.5797600
495.1011, 0.9695690
495.5832, 2.283308
496.0653, 3.435376
496.5474, 3.223744
497.0295, 2.232587
497.5117, 2.263147
497.9938, 3.979852
498.4759, 5.358399
498.9580, 4.193214
499.4401, 1.104275
499.9222, 0.4908130
500.4044, 0.6125600
500.8865, 2.212807
501.3686, 3.646402
501.8507, 4.698806
502.3328, 4.776690
502.8149, 3.644921
503.2971, 2.088685
503.7792, 1.158351
504.2613, 0.8512910
504.7434, 1.308511
505.2255, 3.912192
505.7076, 5.838314
506.1898, 4.978498
506.6719, 2.488237
507.1540, 0.8523920
507.6361, 1.371158
508.1182, 3.088667
508.6003, 3.741738
509.0825, 2.827422
509.5646, 2.199045
510.0467, 2.265471
510.5288, 2.466931
511.0109, 2.635172
511.4930, 2.670534
511.9752, 2.316851
512.4573, 1.034204
512.9394, 0.5039200
513.4215, 0.5729920
513.9036, 1.054786
514.3857, 2.744711
514.8679, 4.168580
515.3500, 5.107408
515.8321, 5.139197
516.3142, 4.134688
516.7963, 3.434232
517.2784, 4.174490
517.7606, 5.287776
518.2427, 5.035707
518.7248, 3.340687
519.2069, 1.767569
519.6890, 1.416085
520.1711, 1.913406
520.6533, 2.060954
521.1354, 1.157634
521.6175, 0.8868030
522.0996, 2.353422
522.5817, 4.105525
523.0638, 4.561080
523.5460, 3.551075
524.0281, 1.997789
524.5102, 0.6348420
524.9923, 0.5123670
525.4744, 0.4443480
525.9565, 2.070497
526.4387, 4.204575
526.9208, 5.119666
527.4029, 5.226352
527.8850, 4.856386
528.3671, 4.148323
528.8492, 3.543617
529.3314, 3.810835
529.8135, 4.784197
530.2956, 4.644737
530.7777, 2.713626
531.2598, 0.8712230
531.7419, 0.3537270
532.2241, 0.6865300
532.7062, 1.234899
533.1883, 2.062995
533.6704, 2.728664
534.1525, 2.743270
534.6346, 2.382123
535.1168, 2.394097
535.5989, 2.946970
536.0810, 3.254217
536.5631, 2.276326
537.0452, 7.0478000E-02
537.5273, 0.9515090
538.0095, 0.8111040
538.4916, 2.579773
538.9737, 3.535810
539.4558, 3.836967
539.9379, 3.645075
540.4200, 3.056952
540.9022, 2.403199
541.3843, 2.188392
541.8664, 2.534137
542.3485, 2.628664
542.8306, 2.234116
543.3127, 1.834802
543.7948, 1.415065
544.2769, 1.137491
544.7590, 1.373502
545.2411, 2.342052
545.7233, 3.262367
546.2054, 2.859492
546.6875, 1.261592
547.1696, 0.4939500
547.6517, 1.190649
548.1339, 2.106581
548.6160, 1.896948
549.0981, 1.029015
549.5802, 0.9632820
550.0623, 2.716982
550.5444, 4.547060
551.0266, 5.446074
551.5087, 5.569368
551.9908, 5.222079
552.4729, 4.487280
552.9550, 3.432485
553.4371, 2.001696
553.9193, 5.7456002E-02
554.4014, 0.8894110
554.8835, 0.5346900
555.3656, 1.859504
555.8477, 2.169481
556.3298, 1.861341
556.8120, 1.518642
557.2941, 1.367449
557.7762, 1.342627
558.2583, 1.618442
558.7404, 2.238565
559.2225, 2.313902
559.7047, 1.069093
560.1868, 0.2852370
560.6689, 1.395207
561.1510, 3.322942
561.6331, 4.159403
562.1152, 3.072097
562.5974, 1.503818
563.0795, 0.5656280
563.5616, 0.2041780
564.0437, 0.5287230
564.5258, 1.705686
565.0079, 2.910196
565.4901, 3.452584
565.9722, 3.306369
566.4543, 2.820790
566.9364, 1.314465
567.4185, 0.2473560
567.9006, 0.3899970
568.3828, 1.227971
568.8649, 2.158733
569.3470, 2.970122
569.8291, 3.522907
570.3112, 3.524024
570.7933, 2.852937
571.2755, 3.109709
571.7576, 6.049738
572.2397, 7.743327
572.7218, 6.235671
573.2039, 3.560461
573.6860, 2.081921
574.1682, 2.366897
574.6503, 3.074667
575.1324, 3.019348
575.6145, 2.323750
576.0966, 1.292164
576.5787, 0.3525480
577.0609, 1.116723
577.5430, 0.5375650
578.0251, 3.540613
578.5072, 5.252794
578.9893, 5.167008
579.4714, 4.818108
579.9536, 4.869075
580.4357, 4.935862
580.9178, 4.425393
581.3999, 3.343652
581.8820, 2.281605
582.3641, 1.706863
582.8463, 1.475943
583.3284, 1.043947
583.8105, 0.1464940
584.2926, 0.7059600
584.7747, 0.2593880
585.2568, 0.6135650
585.7390, 1.714468
586.2211, 2.863262
586.7032, 3.649387
587.1853, 3.677727
587.6674, 3.209118
588.1495, 2.894753
588.6317, 2.721362
589.1138, 2.824299
589.5959, 3.542863
590.0780, 4.272692
590.5601, 4.226474
591.0422, 3.420132
591.5244, 2.705647
592.0065, 2.435894
592.4886, 2.295616
592.9707, 1.962250
593.4528, 1.505738
593.9349, 1.165780
594.4171, 1.038415
594.8992, 1.164379
595.3813, 1.673794
595.8634, 3.140721
596.3455, 3.667057
596.8276, 2.523046
597.3098, 1.344131
597.7919, 0.7717350
598.2740, 0.6452030
598.7561, 0.5759510
599.2382, 0.3995050
599.7203, 0.3622550
600.2025, 0.9750740
600.6846, 2.210836
601.1667, 2.938426
601.6488, 2.935486
602.1309, 2.630075
602.6130, 2.017729
603.0952, 1.348119
603.5773, 1.224164
604.0594, 2.077574
604.5415, 2.807036
605.0236, 2.564407
605.5057, 1.952455
605.9879, 2.042709
606.4700, 2.940662
606.9521, 3.769035
607.4342, 3.770162
607.9163, 3.069087
608.3984, 2.607990
608.8806, 2.381742
609.3627, 2.434366
609.8448, 3.184669
610.3269, 3.896253
610.8090, 3.828666
611.2911, 3.094564
611.7733, 2.492656
612.2554, 2.596777
612.7375, 3.212466
613.2196, 3.665818
613.7017, 3.978490
614.1838, 3.856506
614.6660, 2.935342
615.1481, 1.874566
615.6302, 1.556136
616.1123, 1.918160
616.5944, 2.037327
617.0765, 1.336841
617.5587, 0.7031260
618.0408, 1.034240
618.5229, 1.852886
619.0050, 1.986785
619.4871, 1.039029
619.9692, 0.2470740
620.4514, 0.8803430
620.9335, 0.7940140
621.4156, 0.5816980
621.8977, 0.2622320
622.3798, 0.2208220
622.8619, 1.047199
623.3441, 1.958879
623.8262, 2.686542
624.3083, 3.160675
624.7904, 3.418727
625.2725, 3.428428
625.7546, 3.250998
626.2367, 3.027612
626.7188, 2.757370
627.2009, 2.531556
627.6830, 2.412912
628.1652, 2.355286
628.6473, 2.273039
629.1294, 2.217578
629.6115, 1.993412
630.0936, 1.343494
630.5757, 0.7099120
631.0579, 0.2486620
631.5400, 8.1738003E-02
632.0221, 0.5794240
632.5042, 1.954614
632.9863, 3.528259
633.4684, 3.932949
633.9506, 2.886148
634.4327, 1.969055
634.9148, 0.9802220
635.3969, 0.5701410
635.8790, 1.390305
636.3611, 2.729750
636.8433, 3.238170
637.3254, 2.290603
637.8075, 1.406480
638.2896, 2.195189
638.7717, 3.674139
639.2538, 3.687888
639.7360, 1.990783
640.2181, 0.2607880
640.7002, 0.3853720
641.1823, 2.4848999E-02
641.6644, 0.7814870
642.1465, 2.981010
642.6287, 4.142758
643.1108, 3.345018
643.5929, 2.267074
644.0750, 1.899003
644.5571, 2.249405
645.0392, 3.095583
645.5214, 4.484038
646.0035, 5.726746
646.4856, 5.375362
646.9677, 3.436232
647.4498, 1.883507
647.9319, 0.9198850
648.4141, 0.7161230
648.8962, 2.056951
649.3783, 4.366351
649.8604, 5.388890
650.3425, 3.959222
650.8246, 2.569474
651.3068, 2.318938
651.7889, 2.582609
652.2710, 2.571334
652.7531, 2.210557
653.2352, 1.941905
653.7173, 2.117028
654.1995, 2.645730
654.6816, 3.258950
655.1637, 4.345794
655.6458, 4.576513
656.1279, 2.614008
656.6100, 0.6733130
657.0922, 0.1501660
657.5743, 0.8747380
658.0564, 1.657693
658.5385, 1.989577
659.0206, 1.997794
659.5027, 1.773031
659.9849, 1.392677
660.4670, 1.055250
660.9491, 0.8053000
661.4312, 0.6327830
661.9133, 0.4809470
662.3954, 0.3800400
662.8776, 0.7561630
663.3597, 2.591215
663.8418, 3.606002
664.3239, 3.020988
664.8060, 1.958285
665.2881, 1.042285
665.7703, 0.4949320
666.2524, 0.6553140
666.7345, 2.058676
667.2166, 3.804927
667.6987, 3.999778
668.1808, 2.695089
668.6630, 1.882292
669.1451, 2.130317
669.6272, 2.750442
670.1093, 3.182892
670.5914, 3.418704
671.0735, 3.468923
671.5557, 3.180945
672.0378, 2.894804
672.5199, 2.879139
673.0020, 2.829253
673.4841, 2.197204
673.9662, 1.078522
674.4484, 0.2940170
674.9305, 0.5614930
675.4126, 1.501127
675.8947, 1.786687
676.3768, 1.232126
676.8589, 0.8332890
677.3411, 0.7019280
677.8232, 0.8854540
678.3053, 1.672440
678.7874, 2.849942
679.2695, 3.461536
679.7516, 2.827232
680.2338, 2.157185
680.7159, 2.241406
681.1980, 2.714238
681.6801, 3.036079
682.1622, 3.101261
682.6443, 3.016203
683.1265, 2.840593
683.6086, 2.619531
684.0907, 2.599444
684.5728, 2.951312
685.0549, 3.129524
685.5370, 2.849056
686.0192, 2.562932
686.5013, 2.603594
686.9834, 2.857189
687.4655, 2.941020
687.9476, 2.581283
688.4297, 2.247287
688.9119, 2.673662
689.3940, 3.391735
689.8761, 2.994670
690.3582, 1.276822
690.8403, 5.6800000E-02
691.3224, 0.3893300
691.8046, 2.228323
692.2867, 3.655730
692.7688, 4.787086
693.2509, 5.278937
693.7330, 4.517579
694.2151, 3.713687
694.6973, 3.793736
695.1794, 4.405716
695.6615, 4.569280
696.1436, 3.801329
696.6257, 2.669239
697.1078, 1.695804
697.5900, 0.8642900
698.0721, 4.4082999E-02
698.5542, 0.8243150
699.0363, 1.111520
699.5184, 0.2548770
700.0005, 1.370168
700.4827, 2.478268
700.9648, 2.653922
701.4469, 2.803725
701.9290, 3.365669
702.4111, 3.583948
702.8932, 2.392121
703.3754, 0.6233970
703.8575, 0.1034590
704.3396, 1.649640
704.8217, 3.757517
705.3038, 4.748384
705.7859, 4.743757
706.2681, 4.089212
706.7502, 2.655900
707.2323, 1.779117
707.7144, 2.548639
708.1965, 4.052561
708.6786, 3.981578
709.1607, 1.321031
709.6428, 0.1420420
710.1249, 2.428091
710.6071, 4.547297
711.0892, 4.190571
711.5713, 2.413262
712.0534, 1.177953
712.5355, 1.139482
713.0176, 1.498618
713.4998, 1.492525
713.9819, 1.126221
714.4640, 0.1607810
714.9461, 1.634761
715.4282, 2.442922
715.9103, 1.071558
716.3925, 1.221592
716.8746, 2.606368
717.3567, 3.062285
717.8388, 2.989005
718.3209, 1.707415
718.8030, 0.6766590
719.2852, 0.7688140
719.7673, 1.447617
720.2494, 1.954272
720.7315, 2.119748
721.2136, 2.306998
721.6957, 3.008469
722.1779, 3.921362
722.6600, 3.751827
723.1421, 2.324759
723.6242, 1.372582
724.1063, 1.557247
724.5884, 2.151862
725.0706, 2.448650
725.5527, 2.287168
726.0348, 2.157924
726.5169, 2.110010
726.9990, 2.165401
727.4811, 2.400451
727.9633, 2.698906
728.4454, 3.076658
728.9275, 3.424029
729.4096, 3.302222
729.8917, 2.256110
730.3738, 0.9646460
730.8560, 0.9498890
731.3381, 2.243918
731.8202, 3.918748
732.3023, 6.320594
732.7844, 7.862327
733.2665, 6.933733
733.7487, 4.198999
734.2308, 2.269319
734.7129, 1.226053
735.1950, 0.8355640
735.6771, 1.397318
736.1592, 2.302778
736.6414, 3.377857
737.1235, 4.361596
737.6056, 4.782824
738.0877, 4.426398
738.5698, 3.598274
739.0519, 2.508183
739.5341, 1.237138
740.0162, 0.5349490
740.4983, 0.4924550
740.9804, 0.8193610
741.4625, 1.608056
741.9446, 2.483025
742.4268, 2.636254
742.9089, 1.864575
743.3910, 1.492216
743.8731, 1.918364
744.3552, 2.449657
744.8373, 2.656946
745.3195, 2.803683
745.8016, 3.516027
746.2837, 4.802079
746.7658, 5.637202
747.2479, 4.667877
747.7300, 2.798687
748.2122, 2.961835
748.6943, 5.198874
749.1764, 6.048139
749.6585, 4.036862
750.1406, 1.653314
750.6227, 1.681546
751.1049, 4.020334
751.5870, 4.924159
752.0691, 3.245463
752.5512, 1.806244
753.0333, 1.167889
753.5154, 0.9089630
753.9976, 0.5287790
754.4797, 0.1852110
754.9618, 0.6505650
755.4439, 2.591475
755.9260, 4.531409
756.4081, 4.130705
756.8903, 1.990179
757.3724, 0.3744190
757.8545, 0.5075790
758.3366, 0.4615950
758.8187, 0.9040350
759.3008, 2.941938
759.7830, 4.016487
760.2651, 3.625132
760.7472, 3.445813
761.2293, 3.874904
761.7114, 4.060153
762.1935, 3.459369
762.6757, 2.501959
763.1578, 1.687781
763.6399, 1.148649
764.1220, 0.9522990
764.6041, 1.393916
765.0862, 2.065921
765.5684, 2.455105
766.0505, 2.530409
766.5326, 1.932853
767.0147, 0.4834150
767.4968, 0.4766950
767.9789, 0.8099000
768.4611, 4.181844
768.9432, 5.557423
769.4253, 3.615181
769.9074, 1.927179
770.3895, 0.8227790
770.8716, 0.3150260
771.3538, 0.7173530
771.8359, 1.757457
772.3180, 2.601196
772.8001, 2.748956
773.2822, 2.852575
773.7643, 3.798552
774.2465, 4.900292
774.7286, 4.954273
775.2107, 4.011135
775.6928, 2.830779
776.1749, 1.788707
776.6570, 1.145091
777.1392, 1.655867
777.6213, 3.623524
778.1034, 4.514526
778.5855, 3.929376
779.0676, 2.988441
779.5497, 1.773511
780.0319, 0.7109720
780.5140, 0.6038300
780.9961, 1.568064
781.4782, 1.807160
781.9603, 0.4323980
782.4424, 2.106632
782.9246, 0.6896950
783.4067, 2.070612
783.8888, 3.632046
784.3709, 3.510659
784.8530, 2.625995
785.3351, 1.482387
785.8173, 0.4648170
786.2994, 0.7621530
786.7815, 2.297492
787.2636, 3.562282
787.7457, 4.574887
788.2278, 4.852977
788.7100, 3.631217
789.1921, 1.450747
789.6742, 0.5350700
790.1563, 1.824589
790.6384, 2.642327
791.1205, 2.771821
791.6026, 2.651020
792.0847, 2.369774
792.5668, 2.041082
793.0490, 1.681249
793.5311, 1.310288
794.0132, 1.419550
794.4953, 2.981060
794.9774, 5.014991
795.4595, 5.691712
795.9417, 5.150098
796.4238, 4.294273
796.9059, 3.387580
797.3880, 2.751499
797.8701, 2.804313
798.3522, 3.488890
798.8344, 3.836237
799.3165, 3.539502
799.7986, 3.497970
800.2807, 4.265598
800.7628, 4.956081
801.2449, 4.716848
801.7271, 3.990552
802.2092, 4.107936
802.6913, 5.878727
803.1734, 7.257220
803.6555, 6.923762
804.1376, 5.855216
804.6198, 4.925047
805.1019, 4.246134
805.5840, 3.756777
806.0661, 3.459305
806.5482, 3.187568
807.0303, 2.601960
807.5125, 1.785548
807.9946, 1.611393
808.4767, 2.176248
808.9588, 2.867485
809.4409, 3.580578
809.9230, 4.178422
810.4052, 4.505102
810.8873, 4.554181
811.3694, 4.445895
811.8515, 4.095804
812.3336, 3.700009
812.8157, 2.971503
813.2979, 2.501595
813.7800, 3.011450
814.2621, 4.187379
814.7442, 5.136552
815.2263, 5.490040
815.7084, 5.442098
816.1906, 5.134942
816.6727, 4.718255
817.1548, 4.406845
817.6369, 4.192550
818.1190, 3.751095
818.6011, 2.888384
819.0833, 2.267773
819.5654, 2.989097
820.0475, 5.128021
820.5296, 6.461489
821.0117, 6.757438
821.4938, 6.735733
821.9760, 6.397157
822.4581, 5.962910
822.9402, 5.736437
823.4223, 5.608342
823.9044, 5.033526
824.3865, 3.274163
824.8687, 2.019605
825.3508, 2.347217
825.8329, 3.162326
826.3150, 3.299800
826.7971, 2.843507
827.2792, 2.267269
827.7614, 1.771483
828.2435, 1.667823
828.7256, 2.741212
829.2077, 4.530707
829.6898, 5.173802
830.1719, 4.622522
830.6541, 3.798683
831.1362, 2.990564
831.6183, 2.187953
832.1004, 1.245649
832.5825, 0.1816510
833.0646, 0.2215340
833.5468, 2.437908
834.0289, 4.090137
834.5110, 4.876002
834.9931, 5.011250
835.4752, 4.215190
835.9573, 2.925550
836.4395, 2.176982
836.9216, 2.321475
837.4037, 2.719283
837.8858, 3.408566
838.3679, 3.895628
838.8500, 3.477163
839.3322, 2.436897
839.8143, 1.339063
840.2964, 0.3742220
840.7785, 0.1807910
841.2606, 1.666042
841.7427, 4.056930
842.2249, 4.140746
842.7070, 1.808748
843.1891, 0.3523320
843.6712, 1.968632
844.1533, 2.328093
844.6354, 0.2839570
845.1176, 3.442506
845.5997, 5.279737
846.0818, 4.188251
846.5639, 2.789340
847.0460, 0.3402370
847.5281, 2.242476
848.0103, 0.6316110
848.4924, 2.695375
848.9745, 5.183321
849.4566, 6.329194
849.9387, 6.749703
850.4208, 6.510546
850.9030, 5.920561
851.3851, 5.182387
851.8672, 4.328627
852.3493, 3.179106
852.8314, 1.850189
853.3135, 1.153865
853.7957, 1.822861
854.2778, 3.179961
854.7599, 3.663343
855.2420, 3.293317
855.7241, 2.925360
856.2062, 2.588178
856.6884, 2.624569
857.1705, 3.480671
857.6526, 4.526185
858.1347, 4.180642
858.6168, 1.604829
859.0989, 0.9822680
859.5811, 4.745836
860.0632, 7.266208
860.5453, 6.646365
861.0274, 4.726917
861.5095, 2.460475
861.9916, 0.3429370
862.4738, 0.2353240
862.9559, 2.122270
863.4380, 4.344105
863.9201, 4.134703
864.4022, 2.900565
864.8843, 2.183057
865.3665, 2.046887
865.8486, 2.114164
866.3307, 2.218741
866.8128, 2.378379
867.2949, 2.597896
867.7770, 2.890065
868.2592, 3.475789
868.7413, 4.365489
869.2234, 4.528183
869.7055, 3.491127
870.1876, 2.473219
870.6697, 2.709491
871.1519, 3.916837
871.6340, 4.497494
872.1161, 4.182889
872.5981, 3.756058
873.0803, 2.695978
873.5624, 2.135560
874.0445, 3.137105
874.5266, 4.659926
875.0087, 5.151331
875.4908, 4.365715
875.9730, 3.505569
876.4551, 2.710456
876.9372, 2.259542
877.4193, 2.200870
877.9014, 2.663377
878.3835, 4.384408
878.8657, 6.927357
879.3478, 8.329237
879.8299, 7.249778
880.3120, 5.196196
880.7941, 3.746978
881.2762, 3.081559
881.7584, 4.121099
882.2405, 6.793944
882.7226, 9.623969
883.2047, 12.04200
883.6868, 13.58817
884.1689, 13.37876
884.6511, 11.50604
885.1332, 11.14077
885.6153, 13.02995
886.0974, 14.32529
886.5795, 13.97377
887.0616, 13.52548
887.5438, 14.43215
888.0259, 16.15568
888.5080, 17.02344
888.9901, 16.52344
889.4722, 16.30583
889.9543, 16.58560
890.4365, 17.22272
890.9186, 18.77947
891.4007, 20.31320
891.8828, 20.25500
892.3649, 18.60502
892.8470, 17.33151
893.3292, 17.74877
893.8113, 18.75457
894.2934, 19.50415
894.7755, 20.01439
895.2576, 20.30515
895.7397, 20.37685
896.2219, 20.22649
896.7040, 19.85392
897.1861, 19.23620
897.6682, 18.36048
898.1503, 17.34706
898.6324, 15.65804
899.1146, 13.35449
899.5967, 11.67533
900.0788, 11.14673
900.5609, 10.77714
901.0430, 9.413078
901.5251, 7.255602
902.0073, 6.121968
902.4894, 6.930323
902.9715, 7.213775
903.4536, 6.294080
903.9357, 5.477423
904.4178, 5.586605
904.9000, 5.908984
905.3821, 5.554760
905.8642, 4.657691
906.3463, 3.700916
906.8284, 2.230484
907.3105, 1.350926
907.7927, 2.265616
908.2748, 3.552260
908.7569, 3.620362
909.2390, 2.726938
909.7211, 2.250341
910.2032, 2.900756
910.6854, 3.503539
911.1675, 2.717749
911.6496, 1.330988
912.1317, 0.3744310
912.6138, 7.0130001E-03
913.0959, 0.8393010
913.5781, 2.949865
914.0602, 4.231934
914.5423, 2.351312
915.0244, 1.197868
915.5065, 1.474817
915.9886, 1.555382
916.4708, 3.266103
916.9529, 2.911567
917.4350, 2.237384
917.9171, 2.152601
918.3992, 2.382386
918.8813, 2.438659
919.3635, 2.212617
919.8456, 2.371165
920.3277, 3.631122
920.8098, 4.085049
921.2919, 2.266108
921.7740, 0.4277690
922.2562, 0.3148080
922.7383, 1.448828
923.2204, 2.395575
923.7025, 3.120271
924.1846, 3.313677
924.6667, 2.066775
925.1489, 1.144307
925.6310, 2.134603
926.1131, 3.832469
926.5952, 4.539657
927.0773, 4.052833
927.5594, 3.298008
928.0416, 2.592556
928.5237, 2.139562
929.0058, 2.212263
929.4879, 2.609467
929.9700, 3.251204
930.4521, 3.923839
930.9343, 3.869510
931.4164, 2.800198
931.8985, 1.761440
932.3806, 2.034667
932.8627, 2.991544
933.3448, 3.051665
933.8270, 2.306925
934.3091, 1.741015
934.7912, 1.558876
935.2733, 1.754422
935.7554, 2.434702
936.2375, 3.240299
936.7197, 3.336318
937.2018, 2.519921
937.6839, 2.224037
938.1660, 2.787379
938.6481, 2.973405
939.1302, 2.019074
939.6124, 0.9759350
940.0945, 1.120677
940.5766, 2.266571
941.0587, 2.643977
941.5408, 1.418901
942.0229, 0.7335970
942.5051, 0.8981570
942.9872, 1.390515
943.4693, 2.234004
943.9514, 3.106331
944.4335, 3.566950
944.9156, 3.572515
945.3978, 3.478212
945.8799, 3.408886
946.3620, 3.266215
946.8441, 3.007861
947.3262, 2.646906
947.8083, 1.931417
948.2905, 1.168038
948.7726, 1.187639
949.2547, 2.287142
949.7368, 3.446583
950.2189, 3.980886
950.7010, 3.953078
951.1832, 3.192878
951.6653, 1.998007
952.1474, 0.9376550
952.6295, 0.1884500
953.1116, 7.9806998E-02
953.5938, 0.9258120
954.0759, 1.799694
954.5580, 0.4515080
955.0400, 1.610063
955.5222, 1.989599
956.0043, 1.648118
956.4864, 3.638472
956.9685, 2.242326
957.4506, 0.1293410
957.9327, 0.1409600
958.4149, 1.070492
958.8970, 2.468605
959.3791, 4.363101
959.8612, 4.753881
960.3433, 2.948585
960.8254, 1.050637
961.3076, 0.3290420
961.7897, 0.8347770
962.2718, 0.3797680
962.7539, 3.371426
963.2360, 4.999996
963.7181, 4.798920
964.2003, 3.925110
964.6824, 1.306268
965.1645, 0.6951390
965.6466, 0.4105570
966.1287, 1.152324
966.6108, 2.335267
967.0930, 2.990918
967.5751, 3.374808
968.0572, 3.337417
968.5393, 3.300385
969.0214, 3.424521
969.5035, 3.623895
969.9857, 4.075700
970.4678, 4.493438
970.9499, 4.049958
971.4320, 2.326654
971.9141, 0.9165150
972.3962, 1.012221
972.8784, 1.494694
973.3605, 1.633992
973.8426, 1.616044
974.3247, 1.564050
974.8068, 1.483385
975.2889, 1.142833
975.7711, 0.3309680
976.2532, 0.3100480
976.7353, 0.1708330
977.2174, 1.196041
977.6995, 1.694439
978.1816, 1.763176
978.6638, 1.949589
979.1459, 2.446527
979.6280, 2.883780
980.1101, 3.026206
980.5922, 2.987334
981.0743, 2.926375
981.5565, 2.835815
982.0386, 2.665595
982.5207, 2.413302
983.0028, 2.023979
983.4849, 1.441208
983.9670, 1.106030
984.4492, 1.578760
984.9313, 2.635287
985.4134, 3.192580
985.8955, 3.178720
986.3776, 3.217948
986.8597, 3.424984
987.3419, 3.520989
987.8240, 3.468234
988.3061, 3.007018
988.7882, 1.474834
989.2703, 1.108094
989.7524, 1.643518
990.2346, 1.125227
990.7167, 3.180670
991.1988, 4.140224
991.6809, 4.132148
992.1630, 2.473529
992.6451, 0.2813420
993.1273, 0.2487620
993.6094, 1.207109
994.0915, 1.935312
994.5736, 1.150333
995.0557, 0.6815900
995.5378, 1.072658
996.0200, 1.688352
996.5021, 2.183327
996.9842, 2.565166
997.4663, 2.944605
997.9484, 3.367254
998.4305, 3.539923
998.9127, 2.920390
999.3948, 2.620882
999.8769, 3.830320
1000.359, 4.996121
1000.841, 4.239716
1001.323, 2.278172
1001.805, 1.211601
1002.287, 1.800673
1002.770, 2.398364
1003.252, 2.049182
1003.734, 1.518673
1004.216, 1.424038
1004.698, 1.450652
1005.180, 0.9097990
1005.662, 3.4215000E-02
1006.144, 7.0669003E-02
1006.627, 1.170316
1007.109, 2.514009
1007.591, 3.036571
1008.073, 3.020986
1008.555, 2.614978
1009.037, 1.992041
1009.519, 1.310814
1010.001, 0.7080840
1010.483, 0.5202230
1010.966, 0.9499680
1011.448, 1.800086
1011.930, 3.235931
1012.412, 4.729149
1012.894, 5.055112
1013.376, 4.383852
1013.858, 4.132616
1014.340, 4.388075
1014.823, 4.420614
1015.305, 3.680286
1015.787, 2.647980
1016.269, 2.105347
1016.751, 1.978930
1017.233, 2.145276
1017.715, 2.548299
1018.197, 2.840588
1018.679, 2.923229
1019.162, 2.846031
1019.644, 2.638542
1020.126, 2.473340
1020.608, 2.580453
1021.090, 2.298769
1021.572, 2.749031
1022.054, 2.037141
1022.536, 1.600943
1023.018, 1.698905
1023.501, 1.718163
1023.983, 0.9556140
1024.465, 0.1657240
1024.947, 9.2754997E-02
1025.429, 1.306065
1025.911, 2.426830
1026.393, 3.310613
1026.875, 3.263933
1027.358, 1.751838
1027.840, 0.1752690
1028.322, 9.9205002E-02
1028.804, 0.6801740
1029.286, 1.589588
1029.768, 2.795364
1030.250, 3.432837
1030.732, 3.386333
1031.214, 2.981925
1031.697, 2.056915
1032.179, 1.319254
1032.661, 1.626011
1033.143, 2.706784
1033.625, 3.162113
1034.107, 2.639511
1034.589, 2.387175
1035.071, 2.819887
1035.553, 2.763248
1036.036, 0.9435040
1036.518, 0.8742250
1037.000, 0.4563310
1037.482, 1.728043
1037.964, 2.891604
1038.446, 2.464546
1038.928, 2.120664
1039.410, 1.980364
1039.893, 1.759617
1040.375, 1.009152
1040.857, 0.4183760
1041.339, 0.8107180
1041.821, 1.999006
1042.303, 2.976220
1042.785, 3.858310
1043.267, 4.275273
1043.750, 3.905328
1044.232, 3.450484
1044.714, 2.937428
1045.196, 2.620618
1045.678, 2.907521
1046.160, 3.637504
1046.642, 4.059290
1047.124, 3.970587
1047.606, 3.671781
1048.089, 3.316799
1048.571, 2.815223
1049.053, 1.794497
1049.535, 0.9944910
1050.017, 1.237293
1050.499, 2.303743
1050.981, 2.900108
1051.463, 2.773455
1051.945, 2.439461
1052.428, 1.881538
1052.910, 1.294245
1053.392, 0.4945190
1053.874, 8.1919000E-02
1054.356, 1.5204000E-02
1054.838, 0.7158150
1055.320, 1.791293
1055.802, 3.506923
1056.285, 4.503185
1056.767, 4.210225
1057.249, 3.333997
1057.731, 1.541065
1058.213, 0.1372450
1058.695, 0.6428490
1059.177, 0.1603580
1059.659, 0.5854350
1060.141, 1.542661
1060.624, 2.205741
1061.106, 2.111304
1061.588, 2.032340
1062.070, 2.626493
1062.552, 3.217631
1063.034, 2.856920
1063.516, 1.937946
1063.998, 1.677408
1064.480, 2.455762
1064.963, 3.323791
1065.445, 4.400625
1065.927, 4.874395
1066.409, 3.691772
1066.891, 2.224951
1067.373, 1.827790
1067.855, 2.261379
1068.337, 2.699732
1068.820, 2.948415
1069.302, 3.144693
1069.784, 3.654194
1070.266, 3.743143
1070.748, 2.354268
1071.230, 0.9567470
1071.712, 1.108253
1072.194, 2.288353
1072.677, 3.167172
1073.159, 3.478348
1073.641, 3.519428
1074.123, 3.385543
1074.605, 3.054360
1075.087, 2.181573
1075.569, 1.411567
1076.051, 1.327927
1076.533, 1.759192
1077.016, 2.514600
1077.498, 3.473749
1077.980, 3.876695
1078.462, 2.866809
1078.944, 2.043039
1079.426, 2.616744
1079.908, 3.193650
1080.390, 2.229104
1080.872, 0.7958480
1081.354, 0.7032900
1081.837, 2.081179
1082.319, 3.551951
1082.801, 5.072007
1083.283, 5.710106
1083.765, 4.286822
1084.247, 2.582518
1084.729, 1.899119
1085.211, 1.749531
1085.694, 1.255943
1086.176, 0.4734510
1086.658, 0.3424130
1087.140, 1.550159
1087.622, 2.331170
1088.104, 1.378138
1088.586, 0.3996630
1089.068, 0.7071630
1089.551, 1.432652
1090.033, 1.362251
1090.515, 0.7153630
1090.997, 0.8069750
1091.479, 2.348931
1091.961, 2.979115
1092.443, 0.6143760
1092.925, 1.432709
1093.407, 1.246156
1093.890, 6.6904999E-02
1094.372, 1.237095
1094.854, 2.397365
1095.336, 2.838527
1095.818, 2.326416
1096.300, 1.905103
1096.782, 1.819857
1097.264, 1.997457
1097.746, 2.598486
1098.229, 3.270954
1098.711, 3.965316
1099.193, 4.436692
1099.675, 4.169558
1100.157, 3.094928
1100.639, 2.197038
1101.121, 1.391002
1101.603, 1.264596
1102.086, 2.872861
1102.568, 4.246943
1103.050, 3.819686
1103.532, 2.601755
1104.014, 2.101527
1104.496, 2.348990
1104.978, 2.305061
1105.460, 1.684444
1105.943, 0.9551390
1106.425, 0.4877770
1106.907, 1.211927
1107.389, 2.9875999E-02
1107.871, 1.776708
1108.353, 2.944391
1108.835, 3.513282
1109.317, 3.964486
1109.799, 4.481331
1110.281, 4.513047
1110.764, 3.454412
1111.246, 2.654422
1111.728, 2.301849
1112.210, 2.525478
1112.692, 4.291335
1113.174, 6.532521
1113.656, 6.178816
1114.138, 2.252618
1114.621, 0.1926320
1115.103, 1.245094
1115.585, 2.148915
1116.067, 2.454149
1116.549, 2.345266
1117.031, 1.567153
1117.513, 0.8367560
1117.995, 1.603496
1118.478, 3.894980
1118.960, 4.833554
1119.442, 3.783453
1119.924, 2.845122
1120.406, 2.062547
1120.888, 1.718511
1121.370, 2.193912
1121.852, 2.722091
1122.334, 2.242804
1122.817, 2.982405
1123.299, 1.243035
1123.781, 3.291242
1124.263, 4.102520
1124.745, 3.191314
1125.227, 2.566511
1125.709, 2.924723
1126.191, 3.473959
1126.673, 3.577170
1127.156, 3.380355
1127.638, 3.318024
1128.120, 3.420623
1128.602, 2.436485
1129.084, 0.1265510
1129.566, 0.4011370
1130.048, 1.722183
1130.530, 3.205729
1131.013, 1.963248
1131.495, 3.630175
1131.977, 1.012648
1132.459, 3.881807
1132.941, 4.562936
1133.423, 3.240781
1133.905, 2.476552
1134.387, 2.525871
1134.870, 2.356765
1135.352, 1.562318
1135.834, 0.5330680
1136.316, 0.4671540
1136.798, 1.149498
1137.280, 0.6425800
1137.762, 0.6725080
1138.244, 1.378085
1138.726, 1.557156
1139.208, 2.176901
1139.691, 3.338678
1140.173, 3.799880
1140.655, 2.720708
1141.137, 1.206149
1141.619, 0.4549560
1142.101, 0.3856250
1142.583, 0.9540180
1143.065, 1.986561
1143.548, 3.512586
1144.030, 5.147485
1144.512, 5.212218
1144.994, 3.147971
1145.476, 1.534948
1145.958, 3.115658
1146.440, 5.225639
1146.922, 5.253623
1147.405, 4.165855
1147.887, 2.486104
1148.369, 0.9474610
1148.851, 1.138208
1149.333, 2.985102
1149.815, 4.042438
1150.297, 2.680665
1150.779, 1.545634
1151.261, 3.050926
1151.744, 4.766030
1152.226, 4.445024
1152.708, 3.470689
1153.190, 3.876688
1153.672, 5.206704
1154.154, 5.402380
1154.636, 3.810655
1155.118, 2.488445
1155.600, 1.780278
1156.083, 1.792230
1156.565, 3.359437
1157.047, 4.841554
1157.529, 4.740881
1158.011, 3.982950
1158.493, 4.394054
1158.975, 4.024170
1159.457, 3.397003
1159.940, 3.918999
1160.422, 2.422873
1160.904, 2.486806
1161.386, 2.791443
1161.868, 2.988788
1162.350, 3.147151
1162.832, 3.445018
1163.314, 3.702795
1163.796, 3.247552
1164.279, 1.727450
1164.761, 1.326993
1165.243, 2.473176
1165.725, 3.896888
1166.207, 5.792637
1166.689, 6.221560
1167.171, 3.558711
1167.653, 0.4031900
1168.135, 0.6768580
1168.618, 3.627721
1169.100, 5.087206
1169.582, 5.065855
1170.064, 4.409461
1170.546, 3.214746
1171.028, 2.921374
1171.510, 4.013626
1171.992, 4.675596
1172.474, 3.301002
1172.957, 1.523137
1173.439, 2.849308
1173.921, 5.851494
1174.403, 6.045020
1174.885, 4.178184
1175.367, 2.850315
1175.849, 2.472080
1176.331, 2.602955
1176.814, 3.026054
1177.296, 3.315691
1177.778, 2.727640
1178.260, 2.308746
1178.742, 4.091113
1179.224, 6.187079
1179.706, 5.362537
1180.188, 3.037319
1180.671, 2.637797
1181.153, 4.438911
1181.635, 5.986319
1182.117, 6.338821
1182.599, 5.874466
1183.081, 3.890413
1183.563, 2.223495
1184.045, 2.273283
1184.527, 2.982209
1185.010, 3.579208
1185.492, 3.866699
1185.974, 3.476872
1186.456, 2.298491
1186.938, 1.697001
1187.420, 2.339676
1187.902, 2.884589
1188.384, 2.841661
1188.866, 2.946389
1189.349, 3.796549
1189.831, 4.674315
1190.313, 4.837450
1190.795, 4.404255
1191.277, 3.764062
1191.759, 2.749733
1192.241, 2.340191
1192.723, 2.829753
1193.206, 2.751224
1193.688, 1.524445
1194.170, 0.8743400
1194.652, 1.985092
1195.134, 3.610265
1195.616, 3.866723
1196.098, 3.039981
1196.580, 2.461055
1197.063, 2.104072
1197.545, 1.683918
1198.027, 1.174494
1198.509, 0.6222770
1198.991, 4.7823001E-02
1199.473, 0.5942390
1199.955, 1.427885
1200.437, 1.810249
1200.919, 0.5507290
1201.401, 1.449488
1201.884, 2.960791
1202.366, 3.775133
1202.848, 3.605815
1203.330, 2.773901
1203.812, 2.200218
1204.294, 2.143351
1204.776, 2.115178
1205.258, 1.672845
1205.741, 1.499165
1206.223, 2.084358
1206.705, 3.053109
1207.187, 4.592313
1207.669, 5.993380
1208.151, 6.358143
1208.633, 5.850485
1209.115, 5.184310
1209.598, 4.412673
1210.080, 3.854321
1210.562, 3.608933
1211.044, 3.496351
1211.526, 3.364655
1212.008, 3.538454
1212.490, 4.718524
1212.972, 5.663880
1213.454, 4.549346
1213.937, 2.010960
1214.419, 1.302901
1214.901, 2.982386
1215.383, 3.536987
1215.865, 2.694075
1216.347, 2.467863
1216.829, 3.432525
1217.311, 3.950231
1217.793, 2.878447
1218.276, 1.441721
1218.758, 1.289605
1219.240, 0.5952590
1219.722, 1.593148
1220.204, 0.7838370
1220.686, 1.368288
1221.168, 2.976199
1221.650, 3.464800
1222.133, 2.531942
1222.615, 1.835869
1223.097, 2.318562
1223.579, 3.203321
1224.061, 4.398123
1224.543, 5.003570
1225.025, 3.181475
1225.507, 1.038216
1225.990, 1.561428
1226.472, 3.554626
1226.954, 4.268951
1227.436, 3.313275
1227.918, 2.144816
1228.400, 0.7338180
1228.882, 9.9680005E-03
1229.364, 0.8232820
1229.846, 1.447971
1230.328, 0.8597300
1230.811, 0.1211960
1231.293, 5.7596002E-02
1231.775, 0.3792620
1232.257, 0.5100780
1232.739, 0.4543870
1233.221, 0.9224650
1233.703, 2.155882
1234.185, 2.823217
1234.668, 2.763801
1235.150, 2.382920
1235.632, 1.738912
1236.114, 1.496223
1236.596, 2.245554
1237.078, 2.090436
1237.560, 3.456874
1238.042, 3.028219
1238.525, 3.444218
1239.007, 4.398520
1239.489, 4.999001
1239.971, 5.152899
1240.453, 4.798999
1240.935, 4.056503
1241.417, 3.876309
1241.899, 5.031188
1242.381, 6.205087
1242.864, 6.524235
1243.346, 6.409070
1243.828, 5.273867
1244.310, 3.768881
1244.792, 2.245686
1245.274, 1.135354
1245.756, 1.584022
1246.238, 3.725171
1246.720, 4.621690
1247.203, 2.738315
1247.685, 1.333543
1248.167, 0.4702270
1248.649, 0.4465020
1249.131, 1.934948
1249.613, 3.312893
1250.095, 3.163911
1250.577, 4.258873
1251.059, 2.878187
1251.542, 4.451204
1252.024, 4.485918
1252.506, 2.996154
1252.988, 3.222527
1253.470, 5.293501
1253.952, 5.457662
1254.434, 2.711529
1254.916, 0.4492240
1255.399, 1.132970
1255.881, 2.596402
1256.363, 1.547111
1256.845, 9.8583996E-02
1257.327, 2.488292
1257.809, 0.6272870
1258.291, 4.434079
1258.773, 0.4070120
1259.255, 0.9138000
1259.738, 1.213915
1260.220, 3.271801
1260.702, 4.078615
1261.184, 4.549922
1261.666, 5.231850
1262.148, 5.298673
1262.630, 3.636913
1263.112, 2.080386
1263.594, 2.263009
1264.077, 1.357302
1264.559, 1.245625
1265.041, 1.655160
1265.523, 1.642819
1266.005, 3.041777
1266.487, 4.103906
1266.969, 4.754062
1267.451, 5.043036
1267.934, 4.932693
1268.416, 4.725021
1268.898, 4.589256
1269.380, 4.396527
1269.862, 3.905205
1270.344, 3.377753
1270.826, 3.671850
1271.308, 4.140699
1271.791, 3.459197
1272.273, 1.899576
1272.755, 1.921323
1273.237, 2.981760
1273.719, 2.904380
1274.201, 0.8407800
1274.683, 0.4260420
1275.165, 1.379612
1275.647, 2.754648
1276.130, 1.897300
1276.612, 0.7815750
1277.094, 0.4368540
1277.576, 0.5271940
1278.058, 0.6218560
1278.540, 0.8511070
1279.022, 1.745283
1279.504, 1.840152
1279.986, 1.376531
1280.469, 1.877834
1280.951, 1.098330
1281.433, 0.9771030
1281.915, 0.7625990
1282.397, 0.2045690
1282.879, 5.6750001E-03
1283.361, 0.6581490
1283.843, 1.394300
1284.326, 0.9834860
1284.808, 0.0000000E+00
##END=



