##NAMES=Tadzhikite-(Ce)
##RRUFFID=R060641
##IDEAL CHEMISTRY=Ca_4_Ce^3+^_2_Ti^4+^[box](B_4_Si_4_O_22_)(OH)_2_
##LOCALITY=Dara-i-Pioz Glacier, Alayskiy (Alai) Range, Tien Shan Mountains, Tajikistan
##OWNER=RRUFF
##SOURCE=Michael Scott
##DESCRIPTION=Grayish brown colored grains
##STATUS=The identification of this mineral has been confirmed by single-crystal X-ray diffraction.
##URL=rruff.info/R060641
100.3150, 55.98100
100.7970, 58.08600
101.2790, 58.92900
101.7610, 56.38100
102.2430, 50.59600
102.7260, 46.40000
103.2080, 45.49300
103.6900, 46.60600
104.1720, 47.80800
104.6540, 48.79100
105.1360, 49.70300
105.6180, 50.86900
106.1000, 52.28800
106.5820, 53.26700
107.0640, 52.96500
107.5470, 51.81500
108.0290, 51.55400
108.5110, 52.91300
108.9930, 54.98800
109.4750, 56.99100
109.9570, 58.94700
110.4390, 60.38700
110.9210, 60.40800
111.4040, 58.97800
111.8860, 58.67500
112.3680, 61.66300
112.8500, 65.08400
113.3320, 66.49000
113.8140, 65.30100
114.2960, 63.63700
114.7780, 64.26500
115.2600, 67.82500
115.7430, 71.27300
116.2250, 74.50800
116.7070, 77.01500
117.1890, 78.00700
117.6710, 77.09500
118.1530, 75.35500
118.6350, 75.01900
119.1170, 77.09600
119.6000, 78.60300
120.0820, 77.79400
120.5640, 76.60200
121.0460, 77.11400
121.5280, 80.42300
122.0100, 85.78600
122.4920, 90.59500
122.9740, 92.81700
123.4560, 97.22900
123.9390, 105.2260
124.4210, 115.6360
124.9030, 127.0900
125.3850, 138.7170
125.8670, 150.5550
126.3490, 162.4820
126.8310, 174.7030
127.3130, 186.8820
127.7960, 199.9900
128.2780, 212.9830
128.7600, 224.0610
129.2420, 231.6640
129.7240, 235.7560
130.2060, 240.2980
130.6880, 246.0090
131.1700, 251.4640
131.6520, 256.3560
132.1350, 260.6060
132.6170, 264.2210
133.0990, 267.3610
133.5810, 270.2430
134.0630, 270.3460
134.5450, 266.2400
135.0270, 261.1690
135.5090, 256.2480
135.9920, 251.8050
136.4740, 248.1120
136.9560, 245.2700
137.4380, 243.1170
137.9200, 243.9280
138.4020, 248.0750
138.8840, 254.6180
139.3660, 263.5970
139.8480, 274.7770
140.3310, 286.7490
140.8130, 297.7510
141.2950, 307.2460
141.7770, 318.4080
142.2590, 330.6440
142.7410, 344.8800
143.2230, 362.8330
143.7050, 384.8800
144.1880, 407.9750
144.6700, 429.0810
145.1520, 448.5000
145.6340, 463.8860
146.1160, 470.6930
146.5980, 474.7900
147.0800, 484.3970
147.5620, 502.0620
148.0440, 522.0390
148.5270, 536.7540
149.0090, 546.5800
149.4910, 553.5560
149.9730, 557.9980
150.4550, 560.0320
150.9370, 559.4230
151.4190, 555.5540
151.9010, 550.4350
152.3830, 546.2730
152.8660, 542.7960
153.3480, 541.1770
153.8300, 542.6200
154.3120, 546.2800
154.7940, 550.2300
155.2760, 554.1410
155.7580, 557.9220
156.2400, 561.2450
156.7230, 563.9960
157.2050, 567.2640
157.6870, 572.4710
158.1690, 578.8480
158.6510, 583.1420
159.1330, 582.8090
159.6150, 582.1300
160.0970, 586.4140
160.5790, 596.1130
161.0620, 606.3390
161.5440, 613.4330
162.0260, 617.9950
162.5080, 624.2860
162.9900, 634.4570
163.4720, 645.8420
163.9540, 655.3010
164.4360, 662.4800
164.9190, 669.7330
165.4010, 679.3670
165.8830, 691.1540
166.3650, 701.5300
166.8470, 708.9050
167.3290, 714.8850
167.8110, 720.3890
168.2930, 725.2950
168.7750, 731.4800
169.2580, 742.4020
169.7400, 758.0830
170.2220, 769.4040
170.7040, 772.2440
171.1860, 770.8450
171.6680, 767.7830
172.1500, 763.1460
172.6320, 759.2410
173.1150, 758.3840
173.5970, 760.7100
174.0790, 764.0680
174.5610, 769.0930
175.0430, 774.2950
175.5250, 778.6410
176.0070, 781.9940
176.4890, 784.6550
176.9710, 786.1450
177.4540, 786.0730
177.9360, 788.4430
178.4180, 797.3630
178.9000, 807.0700
179.3820, 813.7360
179.8640, 816.6820
180.3460, 817.9600
180.8280, 819.2180
181.3110, 820.2120
181.7930, 822.7820
182.2750, 829.6300
182.7570, 836.8030
183.2390, 841.4000
183.7210, 842.9000
184.2030, 843.8940
184.6850, 848.1150
185.1670, 856.5480
185.6500, 862.3520
186.1320, 860.3010
186.6140, 857.5510
187.0960, 859.8380
187.5780, 868.0080
188.0600, 875.3410
188.5420, 872.4360
189.0240, 856.6500
189.5070, 844.7400
189.9890, 842.1320
190.4710, 842.7880
190.9530, 843.6140
191.4350, 844.0700
191.9170, 845.5740
192.3990, 850.8870
192.8810, 861.3400
193.3630, 868.4230
193.8460, 865.9240
194.3280, 863.0860
194.8100, 866.0730
195.2920, 875.4450
195.7740, 885.6300
196.2560, 889.8080
196.7380, 886.6520
197.2200, 885.1400
197.7020, 888.9220
198.1850, 892.8550
198.6670, 894.0330
199.1490, 892.2370
199.6310, 889.5610
200.1130, 887.8990
200.5950, 887.2170
201.0770, 887.7820
201.5590, 891.8060
202.0420, 895.5400
202.5240, 896.8870
203.0060, 895.8250
203.4880, 894.0260
203.9700, 892.7640
204.4520, 891.9250
204.9340, 892.5430
205.4160, 898.3600
205.8980, 902.6780
206.3800, 900.6610
206.8630, 893.0780
207.3450, 885.7340
207.8270, 884.6470
208.3090, 890.3650
208.7910, 894.9900
209.2730, 896.3180
209.7550, 898.1810
210.2380, 905.0400
210.7200, 915.1040
211.2020, 921.0750
211.6840, 913.1130
212.1660, 890.8080
212.6480, 877.3720
213.1300, 878.0640
213.6120, 883.6760
214.0940, 892.7500
214.5770, 903.5490
215.0590, 912.1480
215.5410, 914.0710
216.0230, 909.8460
216.5050, 908.7880
216.9870, 914.2530
217.4690, 919.0670
217.9510, 919.7250
218.4340, 917.2340
218.9160, 914.1800
219.3980, 910.8740
219.8800, 908.0670
220.3620, 911.5830
220.8440, 928.7850
221.3260, 941.8980
221.8080, 939.9600
222.2900, 929.0250
222.7730, 921.2050
223.2550, 924.8670
223.7370, 936.6110
224.2190, 943.2010
224.7010, 941.4300
225.1830, 939.9940
225.6650, 943.5600
226.1470, 949.6500
226.6290, 954.4330
227.1120, 955.7190
227.5940, 954.7590
228.0760, 954.2380
228.5580, 953.6850
229.0400, 954.7470
229.5220, 958.5900
230.0040, 964.1360
230.4860, 970.4870
230.9690, 978.0580
231.4510, 985.1530
231.9330, 987.8240
232.4150, 984.0720
232.8970, 982.7290
233.3790, 988.9800
233.8610, 998.8000
234.3430, 1009.545
234.8250, 1021.740
235.3070, 1031.509
235.7900, 1032.537
236.2720, 1023.508
236.7540, 1015.050
237.2360, 1008.834
237.7180, 1006.201
238.2000, 1009.798
238.6820, 1021.395
239.1650, 1033.792
239.6470, 1038.085
240.1290, 1034.335
240.6110, 1035.943
241.0930, 1053.830
241.5750, 1073.029
242.0570, 1076.239
242.5390, 1060.471
243.0210, 1045.066
243.5030, 1044.239
243.9860, 1056.356
244.4680, 1072.351
244.9500, 1094.766
245.4320, 1114.496
245.9140, 1120.911
246.3960, 1113.888
246.8780, 1106.688
247.3610, 1108.330
247.8430, 1115.217
248.3250, 1116.400
248.8070, 1108.085
249.2890, 1097.637
249.7710, 1091.552
250.2530, 1089.418
250.7350, 1090.742
251.2170, 1097.663
251.6990, 1107.292
252.1820, 1114.755
252.6640, 1119.124
253.1460, 1122.909
253.6280, 1128.937
254.1100, 1136.578
254.5920, 1142.293
255.0740, 1143.865
255.5560, 1144.026
256.0390, 1146.522
256.5210, 1151.606
257.0030, 1154.598
257.4850, 1150.593
257.9670, 1140.996
258.4490, 1136.051
258.9310, 1137.630
259.4130, 1142.728
259.8960, 1151.844
260.3780, 1163.832
260.8600, 1172.433
261.3420, 1173.518
261.8240, 1168.433
262.3060, 1164.149
262.7880, 1155.892
263.2700, 1153.287
263.7520, 1167.359
264.2340, 1190.244
264.7170, 1201.894
265.1990, 1191.504
265.6810, 1167.814
266.1630, 1155.950
266.6450, 1162.674
267.1270, 1168.784
267.6090, 1170.062
268.0910, 1168.874
268.5740, 1167.726
269.0560, 1167.400
269.5380, 1168.931
270.0200, 1174.600
270.5020, 1191.695
270.9840, 1199.244
271.4660, 1187.384
271.9480, 1171.709
272.4310, 1167.194
272.9130, 1175.958
273.3950, 1187.772
273.8770, 1189.939
274.3590, 1178.002
274.8410, 1171.892
275.3230, 1174.926
275.8050, 1179.985
276.2870, 1183.415
276.7700, 1185.112
277.2520, 1186.862
277.7340, 1190.576
278.2160, 1196.496
278.6980, 1198.721
279.1800, 1192.348
279.6620, 1187.365
280.1440, 1185.728
280.6260, 1187.682
281.1090, 1194.316
281.5910, 1207.389
282.0730, 1224.138
282.5550, 1229.567
283.0370, 1210.026
283.5190, 1197.455
284.0010, 1201.487
284.4830, 1213.479
284.9660, 1223.316
285.4480, 1226.653
285.9300, 1227.424
286.4120, 1234.414
286.8940, 1252.135
287.3760, 1264.852
287.8580, 1268.246
288.3400, 1267.269
288.8230, 1264.306
289.3050, 1260.082
289.7870, 1255.878
290.2690, 1252.570
290.7510, 1249.997
291.2330, 1250.359
291.7150, 1255.903
292.1970, 1262.902
292.6790, 1269.409
293.1610, 1275.345
293.6440, 1281.151
294.1260, 1286.933
294.6080, 1292.785
295.0900, 1299.609
295.5720, 1309.178
296.0540, 1316.453
296.5360, 1314.966
297.0180, 1308.561
297.5010, 1306.788
297.9830, 1315.420
298.4650, 1329.865
298.9470, 1343.281
299.4290, 1355.520
299.9110, 1368.205
300.3930, 1383.156
300.8750, 1398.926
301.3580, 1412.422
301.8400, 1422.303
302.3220, 1431.029
302.8040, 1439.674
303.2860, 1448.453
303.7680, 1458.245
304.2500, 1469.083
304.7320, 1481.659
305.2140, 1498.408
305.6970, 1522.432
306.1790, 1542.095
306.6610, 1549.036
307.1430, 1550.666
307.6250, 1558.574
308.1070, 1575.830
308.5890, 1599.159
309.0710, 1625.576
309.5530, 1658.545
310.0360, 1682.111
310.5180, 1686.943
311.0000, 1688.634
311.4820, 1699.686
311.9640, 1720.381
312.4460, 1743.060
312.9280, 1760.795
313.4100, 1773.179
313.8920, 1789.480
314.3750, 1813.497
314.8570, 1836.889
315.3390, 1854.026
315.8210, 1868.604
316.3030, 1888.846
316.7850, 1919.869
317.2670, 1957.602
317.7500, 1986.652
318.2320, 1995.398
318.7140, 2011.362
319.1960, 2040.467
319.6780, 2075.903
320.1600, 2112.199
320.6420, 2147.218
321.1240, 2181.488
321.6060, 2215.555
322.0890, 2249.817
322.5710, 2282.845
323.0530, 2311.893
323.5350, 2341.940
324.0170, 2377.050
324.4990, 2416.277
324.9810, 2454.124
325.4630, 2482.359
325.9450, 2503.083
326.4280, 2536.632
326.9100, 2592.020
327.3920, 2646.061
327.8740, 2686.424
328.3560, 2717.295
328.8380, 2745.221
329.3200, 2769.695
329.8020, 2795.571
330.2840, 2831.134
330.7670, 2877.155
331.2490, 2925.942
331.7310, 2979.107
332.2130, 3030.211
332.6950, 3069.364
333.1770, 3092.112
333.6590, 3111.929
334.1410, 3138.025
334.6240, 3167.744
335.1060, 3190.721
335.5880, 3201.247
336.0700, 3211.478
336.5520, 3243.760
337.0340, 3302.578
337.5160, 3347.548
337.9980, 3358.185
338.4800, 3359.897
338.9630, 3379.585
339.4450, 3419.069
339.9270, 3460.872
340.4090, 3490.446
340.8910, 3507.337
341.3730, 3522.385
341.8550, 3535.661
342.3370, 3547.334
342.8190, 3553.680
343.3020, 3558.807
343.7840, 3571.948
344.2660, 3598.705
344.7480, 3632.573
345.2300, 3654.108
345.7120, 3653.465
346.1940, 3653.791
346.6770, 3654.028
347.1590, 3657.162
347.6410, 3667.435
348.1230, 3684.930
348.6050, 3703.777
349.0870, 3717.180
349.5690, 3724.728
350.0510, 3729.281
350.5330, 3729.068
351.0160, 3727.298
351.4980, 3724.640
351.9800, 3721.467
352.4620, 3718.855
352.9440, 3720.001
353.4260, 3721.136
353.9080, 3708.437
354.3900, 3675.272
354.8720, 3647.972
355.3550, 3651.484
355.8370, 3663.688
356.3190, 3656.989
356.8010, 3619.582
357.2830, 3578.686
357.7650, 3560.640
358.2470, 3560.989
358.7290, 3554.968
359.2110, 3535.289
359.6940, 3507.042
360.1760, 3474.683
360.6580, 3437.860
361.1400, 3404.108
361.6220, 3375.395
362.1040, 3350.882
362.5860, 3330.919
363.0690, 3315.129
363.5510, 3300.431
364.0330, 3285.508
364.5150, 3270.104
364.9970, 3246.432
365.4790, 3202.146
365.9610, 3163.938
366.4430, 3148.550
366.9250, 3144.944
367.4080, 3132.922
367.8900, 3103.134
368.3720, 3062.903
368.8540, 3029.984
369.3360, 3008.165
369.8180, 2987.720
370.3000, 2972.635
370.7820, 2955.611
371.2640, 2928.367
371.7470, 2892.070
372.2290, 2857.584
372.7110, 2837.188
373.1930, 2830.907
373.6750, 2818.784
374.1570, 2797.301
374.6390, 2774.302
375.1210, 2754.485
375.6030, 2735.290
376.0860, 2711.648
376.5680, 2679.794
377.0500, 2645.321
377.5320, 2617.410
378.0140, 2596.459
378.4960, 2575.093
378.9780, 2550.543
379.4600, 2524.519
379.9430, 2498.393
380.4250, 2471.311
380.9070, 2448.901
381.3890, 2436.998
381.8710, 2430.516
382.3530, 2420.884
382.8350, 2406.718
383.3170, 2388.945
383.7990, 2367.895
384.2820, 2343.258
384.7640, 2318.477
385.2460, 2291.313
385.7280, 2266.220
386.2100, 2246.056
386.6920, 2229.705
387.1740, 2215.076
387.6560, 2201.262
388.1380, 2187.626
388.6210, 2172.171
389.1030, 2149.011
389.5850, 2133.150
390.0670, 2130.404
390.5490, 2130.810
391.0310, 2126.931
391.5130, 2117.847
391.9960, 2107.138
392.4780, 2098.827
392.9600, 2092.934
393.4420, 2083.399
393.9240, 2066.806
394.4060, 2051.050
394.8880, 2040.544
395.3700, 2032.576
395.8520, 2022.256
396.3350, 2006.447
396.8170, 1990.167
397.2990, 1981.386
397.7810, 1980.320
398.2630, 1977.804
398.7450, 1970.000
399.2270, 1960.703
399.7090, 1955.833
400.1910, 1956.095
400.6740, 1952.302
401.1560, 1935.022
401.6380, 1914.328
402.1200, 1905.911
402.6020, 1911.136
403.0840, 1916.566
403.5660, 1911.064
404.0480, 1895.572
404.5300, 1885.833
405.0130, 1888.845
405.4950, 1888.808
405.9770, 1876.692
406.4590, 1859.495
406.9410, 1847.866
407.4230, 1845.668
407.9050, 1849.031
408.3870, 1851.506
408.8700, 1852.527
409.3520, 1854.133
409.8340, 1855.321
410.3160, 1857.966
410.7980, 1865.614
411.2800, 1875.910
411.7620, 1881.816
412.2440, 1876.470
412.7270, 1864.459
413.2090, 1862.394
413.6910, 1874.787
414.1730, 1884.366
414.6550, 1878.988
415.1370, 1869.965
415.6190, 1868.873
416.1010, 1878.479
416.5830, 1890.602
417.0650, 1898.953
417.5480, 1905.371
418.0300, 1915.589
418.5120, 1931.450
418.9940, 1947.964
419.4760, 1961.044
419.9580, 1970.452
420.4400, 1976.319
420.9220, 1975.284
421.4050, 1973.927
421.8870, 1974.496
422.3690, 1977.720
422.8510, 1985.193
423.3330, 1997.752
423.8150, 2013.896
424.2970, 2030.400
424.7790, 2051.463
425.2620, 2065.239
425.7440, 2063.333
426.2260, 2061.530
426.7080, 2073.517
427.1900, 2096.962
427.6720, 2117.070
428.1540, 2118.465
428.6360, 2106.359
429.1180, 2112.774
429.6010, 2148.496
430.0830, 2180.570
430.5650, 2195.797
431.0470, 2201.042
431.5290, 2201.134
432.0110, 2195.230
432.4930, 2192.735
432.9750, 2204.404
433.4570, 2225.938
433.9400, 2242.923
434.4220, 2252.084
434.9040, 2257.953
435.3860, 2265.300
435.8680, 2273.993
436.3500, 2278.428
436.8320, 2274.552
437.3140, 2269.769
437.7970, 2267.121
438.2790, 2267.005
438.7610, 2270.215
439.2430, 2277.292
439.7250, 2286.729
440.2070, 2295.199
440.6890, 2301.623
441.1710, 2309.091
441.6540, 2321.512
442.1360, 2331.632
442.6180, 2333.564
443.1000, 2328.640
443.5820, 2322.819
444.0640, 2319.846
444.5460, 2319.574
445.0280, 2321.984
445.5100, 2328.050
445.9920, 2334.046
446.4750, 2342.791
446.9570, 2348.423
447.4390, 2342.264
447.9210, 2321.032
448.4030, 2301.734
448.8850, 2296.131
449.3670, 2299.653
449.8490, 2304.150
450.3320, 2308.692
450.8140, 2310.128
451.2960, 2304.327
451.7780, 2291.897
452.2600, 2285.375
452.7420, 2295.708
453.2240, 2299.461
453.7060, 2281.474
454.1890, 2253.762
454.6710, 2233.607
455.1530, 2227.101
455.6350, 2229.343
456.1170, 2234.614
456.5990, 2245.782
457.0810, 2249.325
457.5630, 2238.388
458.0450, 2225.994
458.5280, 2215.492
459.0100, 2207.316
459.4920, 2201.943
459.9740, 2200.492
460.4560, 2200.272
460.9380, 2197.491
461.4200, 2192.130
461.9020, 2183.141
462.3840, 2166.845
462.8670, 2150.608
463.3490, 2144.561
463.8310, 2148.748
464.3130, 2152.049
464.7950, 2154.715
465.2770, 2152.817
465.7590, 2138.303
466.2410, 2113.946
466.7240, 2094.317
467.2060, 2088.510
467.6880, 2092.736
468.1700, 2093.935
468.6520, 2091.532
469.1340, 2086.510
469.6160, 2077.830
470.0980, 2067.415
470.5800, 2057.023
471.0630, 2046.570
471.5450, 2033.865
472.0270, 2015.113
472.5090, 1992.564
472.9910, 1980.710
473.4730, 1984.409
473.9550, 1987.103
474.4370, 1981.450
474.9190, 1971.532
475.4020, 1960.863
475.8840, 1949.666
476.3660, 1938.870
476.8480, 1929.830
477.3300, 1921.355
477.8120, 1909.679
478.2940, 1894.050
478.7760, 1881.269
479.2590, 1877.641
479.7410, 1882.494
480.2230, 1884.823
480.7050, 1887.151
481.1870, 1884.465
481.6690, 1870.469
482.1510, 1853.077
482.6330, 1842.449
483.1160, 1840.885
483.5980, 1841.966
484.0800, 1837.182
484.5620, 1825.673
485.0440, 1820.407
485.5260, 1827.899
486.0080, 1832.625
486.4900, 1826.261
486.9720, 1814.120
487.4540, 1803.633
487.9370, 1796.281
488.4190, 1792.931
488.9010, 1798.644
489.3830, 1809.764
489.8650, 1811.201
490.3470, 1798.333
490.8290, 1781.742
491.3110, 1771.939
491.7940, 1769.351
492.2760, 1763.322
492.7580, 1751.607
493.2400, 1738.909
493.7220, 1723.168
494.2040, 1708.784
494.6860, 1704.574
495.1680, 1713.289
495.6510, 1726.158
496.1330, 1729.745
496.6150, 1721.716
497.0970, 1715.215
497.5790, 1712.017
498.0610, 1708.422
498.5430, 1703.747
499.0250, 1697.518
499.5070, 1688.600
499.9900, 1675.552
500.4720, 1662.052
500.9540, 1650.983
501.4360, 1642.648
501.9180, 1640.427
502.4000, 1647.638
502.8820, 1653.301
503.3640, 1641.981
503.8460, 1611.983
504.3290, 1597.859
504.8110, 1615.642
505.2930, 1633.948
505.7750, 1637.340
506.2570, 1630.556
506.7390, 1622.491
507.2210, 1616.695
507.7030, 1612.088
508.1850, 1606.967
508.6680, 1600.996
509.1500, 1596.038
509.6320, 1596.379
510.1140, 1592.815
510.5960, 1575.250
511.0780, 1552.215
511.5600, 1540.882
512.0420, 1551.429
512.5250, 1566.893
513.0070, 1569.167
513.4890, 1560.726
513.9710, 1551.978
514.4530, 1545.022
514.9350, 1539.533
515.4170, 1535.087
515.8990, 1531.714
516.3810, 1530.737
516.8640, 1537.192
517.3460, 1540.567
517.8280, 1535.301
518.3100, 1524.418
518.7920, 1511.166
519.2740, 1496.989
519.7560, 1485.343
520.2390, 1481.825
520.7210, 1487.629
521.2030, 1492.697
521.6850, 1497.771
522.1670, 1500.950
522.6490, 1503.513
523.1310, 1503.312
523.6130, 1494.960
524.0950, 1472.661
524.5780, 1453.520
525.0600, 1455.162
525.5420, 1470.170
526.0240, 1480.205
526.5060, 1481.710
526.9880, 1478.156
527.4700, 1471.946
527.9520, 1463.138
528.4340, 1455.149
528.9170, 1443.150
529.3990, 1437.738
529.8810, 1449.521
530.3630, 1465.046
530.8450, 1466.623
531.3270, 1451.696
531.8090, 1435.675
532.2910, 1437.420
532.7730, 1454.600
533.2560, 1458.474
533.7380, 1442.831
534.2200, 1429.290
534.7020, 1431.162
535.1840, 1439.970
535.6660, 1444.194
536.1480, 1442.276
536.6300, 1437.857
537.1120, 1430.907
537.5950, 1423.223
538.0770, 1415.793
538.5590, 1409.346
539.0410, 1407.831
539.5230, 1414.965
540.0050, 1428.114
540.4870, 1435.036
540.9690, 1431.973
541.4520, 1428.079
541.9340, 1420.940
542.4160, 1415.743
542.8980, 1418.284
543.3800, 1427.141
543.8620, 1434.185
544.3440, 1434.035
544.8260, 1428.700
545.3080, 1419.338
545.7910, 1405.737
546.2730, 1401.194
546.7550, 1414.992
547.2370, 1433.759
547.7190, 1434.934
548.2010, 1415.039
548.6830, 1403.676
549.1660, 1412.932
549.6480, 1423.605
550.1300, 1421.935
550.6120, 1412.357
551.0940, 1406.104
551.5760, 1408.341
552.0580, 1415.185
552.5400, 1419.566
553.0220, 1420.479
553.5050, 1424.976
553.9870, 1440.112
554.4690, 1450.214
554.9510, 1443.509
555.4330, 1426.878
555.9150, 1414.212
556.3970, 1409.026
556.8790, 1409.123
557.3620, 1416.309
557.8440, 1427.002
558.3260, 1432.301
558.8080, 1430.488
559.2900, 1429.391
559.7720, 1437.255
560.2540, 1453.436
560.7360, 1461.302
561.2180, 1449.818
561.7010, 1443.364
562.1830, 1450.141
562.6650, 1460.223
563.1470, 1463.917
563.6290, 1460.224
564.1110, 1455.299
564.5930, 1453.993
565.0750, 1455.184
565.5570, 1456.017
566.0400, 1456.523
566.5220, 1456.162
567.0040, 1454.485
567.4860, 1452.028
567.9680, 1449.946
568.4500, 1448.693
568.9320, 1445.873
569.4140, 1437.170
569.8960, 1430.379
570.3790, 1431.958
570.8610, 1439.623
571.3430, 1447.987
571.8250, 1454.504
572.3070, 1458.903
572.7890, 1459.360
573.2710, 1454.728
573.7530, 1455.391
574.2350, 1466.742
574.7180, 1477.035
575.2000, 1477.538
575.6820, 1472.089
576.1640, 1468.972
576.6460, 1472.215
577.1280, 1473.934
577.6100, 1466.651
578.0930, 1455.845
578.5750, 1449.195
579.0570, 1448.354
579.5390, 1454.494
580.0210, 1470.508
580.5030, 1493.676
580.9850, 1501.818
581.4670, 1482.239
581.9490, 1468.183
582.4320, 1466.441
582.9140, 1469.752
583.3960, 1474.390
583.8780, 1479.220
584.3600, 1481.767
584.8420, 1478.026
585.3240, 1472.812
585.8060, 1474.466
586.2890, 1481.680
586.7710, 1485.528
587.2530, 1482.341
587.7350, 1476.516
588.2170, 1474.291
588.6990, 1476.831
589.1810, 1477.171
589.6630, 1474.406
590.1450, 1470.725
590.6280, 1467.420
591.1100, 1463.460
591.5920, 1456.023
592.0740, 1444.570
592.5560, 1434.973
593.0380, 1435.495
593.5200, 1443.370
594.0020, 1446.000
594.4840, 1442.108
594.9670, 1437.626
595.4490, 1436.239
595.9310, 1435.929
596.4130, 1430.991
596.8950, 1417.817
597.3770, 1409.935
597.8590, 1413.922
598.3410, 1419.977
598.8230, 1420.234
599.3060, 1416.510
599.7880, 1416.154
600.2700, 1423.470
600.7520, 1431.709
601.2340, 1426.367
601.7160, 1406.276
602.1980, 1394.969
602.6800, 1399.509
603.1620, 1405.292
603.6450, 1398.639
604.1270, 1385.494
604.6090, 1382.424
605.0910, 1403.953
605.5730, 1415.310
606.0550, 1391.333
606.5370, 1356.230
607.0190, 1338.082
607.5020, 1339.218
607.9840, 1346.741
608.4660, 1351.861
608.9480, 1354.617
609.4300, 1354.992
609.9120, 1352.365
610.3940, 1349.362
610.8760, 1347.603
611.3590, 1344.342
611.8410, 1335.302
612.3230, 1322.437
612.8050, 1314.557
613.2870, 1317.621
613.7690, 1322.861
614.2510, 1328.687
614.7330, 1331.565
615.2160, 1321.519
615.6980, 1297.578
616.1800, 1274.593
616.6620, 1268.458
617.1440, 1277.175
617.6260, 1275.736
618.1080, 1257.421
618.5900, 1241.732
619.0720, 1231.521
619.5550, 1226.927
620.0370, 1230.901
620.5190, 1242.429
621.0010, 1251.725
621.4830, 1255.486
621.9650, 1254.411
622.4470, 1246.764
622.9290, 1234.756
623.4110, 1224.438
623.8940, 1217.764
624.3760, 1212.969
624.8580, 1208.068
625.3400, 1203.122
625.8220, 1197.461
626.3040, 1192.119
626.7860, 1184.448
627.2680, 1170.175
627.7500, 1155.728
628.2330, 1148.341
628.7150, 1148.714
629.1970, 1149.286
629.6790, 1146.010
630.1610, 1140.700
630.6430, 1135.634
631.1250, 1130.609
631.6070, 1123.954
632.0890, 1114.903
632.5720, 1105.645
633.0540, 1099.586
633.5360, 1097.291
634.0180, 1094.593
634.5000, 1090.729
634.9820, 1087.411
635.4640, 1088.344
635.9460, 1088.366
636.4290, 1079.964
636.9110, 1061.786
637.3930, 1044.516
637.8750, 1034.712
638.3570, 1029.623
638.8390, 1026.168
639.3210, 1024.018
639.8030, 1022.917
640.2860, 1022.900
640.7680, 1022.843
641.2500, 1020.890
641.7320, 1016.753
642.2140, 1012.015
642.6960, 1004.083
643.1780, 998.6650
643.6600, 1001.674
644.1430, 1006.065
644.6250, 1001.890
645.1070, 986.8390
645.5890, 972.0470
646.0710, 964.1700
646.5530, 960.8670
647.0350, 960.7970
647.5170, 962.7540
647.9990, 961.0000
648.4820, 952.5000
648.9640, 942.3290
649.4460, 939.2770
649.9280, 945.3980
650.4100, 949.6200
650.8920, 954.6080
651.3740, 954.1740
651.8560, 941.1590
652.3380, 924.3070
652.8210, 915.9200
653.3030, 918.7560
653.7850, 920.2290
654.2670, 910.2520
654.7490, 896.7170
655.2310, 888.7500
655.7130, 886.4020
656.1950, 888.0210
656.6770, 893.0680
657.1600, 899.4060
657.6420, 904.4780
658.1240, 909.2730
658.6060, 905.9750
659.0880, 885.6520
659.5700, 870.0020
660.0520, 871.0910
660.5340, 878.2290
661.0160, 877.6810
661.4990, 866.9950
661.9810, 858.8390
662.4630, 864.7850
662.9450, 871.5600
663.4270, 862.3580
663.9090, 842.1380
664.3910, 827.7650
664.8730, 825.8100
665.3560, 828.5010
665.8380, 823.9640
666.3200, 811.4060
666.8020, 807.2510
667.2840, 815.2960
667.7660, 824.3820
668.2480, 832.5420
668.7300, 838.2060
669.2130, 838.7340
669.6950, 833.6640
670.1770, 828.7870
670.6590, 825.7080
671.1410, 823.6320
671.6230, 822.2930
672.1050, 821.4400
672.5870, 820.8920
673.0700, 820.5200
673.5520, 819.7320
674.0340, 817.9840
674.5160, 815.2340
674.9980, 810.6480
675.4800, 803.3810
675.9620, 797.3670
676.4440, 794.0880
676.9260, 792.5920
677.4090, 792.3800
677.8910, 793.5110
678.3730, 792.9040
678.8550, 788.4420
679.3370, 784.0660
679.8190, 783.2040
680.3010, 782.7930
680.7830, 777.0320
681.2650, 765.8380
681.7480, 756.7500
682.2300, 757.5270
682.7120, 764.4410
683.1940, 766.9120
683.6760, 764.7840
684.1580, 763.8830
684.6400, 767.0220
685.1220, 768.8390
685.6040, 762.2390
686.0870, 747.0160
686.5690, 738.4060
687.0510, 742.0550
687.5330, 744.3670
688.0150, 740.2840
688.4970, 735.3440
688.9790, 735.8200
689.4610, 740.8430
689.9430, 743.7510
690.4260, 739.8050
690.9080, 733.2080
691.3900, 730.0430
691.8720, 729.1590
692.3540, 725.2010
692.8360, 716.9430
693.3180, 709.9680
693.8000, 709.2490
694.2830, 713.4360
694.7650, 715.5460
695.2470, 716.6890
695.7290, 713.6430
696.2110, 699.6320
696.6930, 687.7020
697.1750, 687.2170
697.6570, 694.4170
698.1400, 699.6060
698.6220, 699.7900
699.1040, 697.6360
699.5860, 695.0910
700.0680, 691.2560
700.5500, 683.2370
701.0320, 672.0140
701.5140, 663.4050
701.9970, 660.7800
702.4790, 661.9900
702.9610, 662.8770
703.4430, 663.3790
703.9250, 664.2920
704.4070, 667.3120
704.8890, 667.6400
705.3710, 659.9190
705.8530, 648.9970
706.3360, 643.7940
706.8180, 646.5110
707.3000, 647.2600
707.7820, 641.1570
708.2640, 634.7390
708.7460, 632.8930
709.2280, 633.9600
709.7100, 634.5450
710.1920, 633.5000
710.6750, 631.6970
711.1570, 630.2050
711.6390, 628.7320
712.1210, 625.8210
712.6030, 621.3930
713.0850, 617.6220
713.5670, 615.5320
714.0490, 613.7810
714.5310, 610.1020
715.0140, 603.8940
715.4960, 601.6720
715.9780, 608.2170
716.4600, 612.5090
716.9420, 611.1830
717.4240, 607.3940
717.9060, 603.4390
718.3880, 599.8000
718.8700, 596.6700
719.3530, 593.7600
719.8350, 591.8290
720.3170, 593.0840
720.7990, 595.6270
721.2810, 594.3860
721.7630, 588.7330
722.2450, 583.0150
722.7270, 580.6450
723.2100, 580.8390
723.6920, 581.1000
724.1740, 581.7900
724.6560, 581.0720
725.1380, 578.0190
725.6200, 574.5260
726.1020, 570.6330
726.5840, 567.4000
727.0670, 567.8230
727.5490, 575.0480
728.0310, 579.2250
728.5130, 576.3230
728.9950, 570.4550
729.4770, 563.2710
729.9590, 556.0870
730.4410, 550.8390
730.9240, 548.3490
731.4060, 547.3030
731.8880, 546.3330
732.3700, 545.5710
732.8520, 545.8640
733.3340, 547.2480
733.8160, 547.1730
734.2980, 543.9160
734.7800, 540.8930
735.2630, 543.9540
735.7450, 554.7340
736.2270, 558.8530
736.7090, 551.5240
737.1910, 543.5410
737.6730, 535.8490
738.1550, 529.2330
738.6370, 523.7970
739.1190, 519.8260
739.6020, 518.9190
740.0840, 525.0160
740.5660, 530.9200
741.0480, 530.1570
741.5300, 526.2050
742.0120, 524.6750
742.4940, 526.2170
742.9760, 528.3280
743.4580, 529.4250
743.9410, 529.2690
744.4230, 526.7710
744.9050, 521.8280
745.3870, 517.9510
745.8690, 515.8930
746.3510, 513.8000
746.8330, 509.6830
747.3150, 505.0730
747.7970, 504.5510
748.2800, 510.6730
748.7620, 515.2230
749.2440, 516.2470
749.7260, 517.4880
750.2080, 521.8840
750.6900, 527.1850
751.1720, 529.7430
751.6540, 528.7210
752.1370, 526.9300
752.6190, 526.8750
753.1010, 526.6610
753.5830, 522.4190
754.0650, 515.9130
754.5470, 513.2850
755.0290, 516.1570
755.5110, 519.7660
755.9940, 518.8040
756.4760, 514.5000
756.9580, 514.9520
757.4400, 522.1750
757.9220, 525.1040
758.4040, 519.0950
758.8860, 511.9170
759.3680, 510.4880
759.8510, 513.5380
760.3330, 513.9150
760.8150, 507.5890
761.2970, 504.6830
761.7790, 509.7320
762.2610, 516.0050
762.7430, 519.8790
763.2250, 521.1190
763.7070, 519.9410
764.1900, 516.2580
764.6720, 512.0200
765.1540, 509.0650
765.6360, 506.5610
766.1180, 502.3580
766.6000, 497.0030
767.0820, 493.5870
767.5640, 493.3290
768.0460, 494.8140
768.5290, 496.8340
769.0110, 499.1810
769.4930, 497.5200
769.9750, 490.4980
770.4570, 483.7070
770.9390, 477.8110
771.4210, 473.6820
771.9030, 472.6940
772.3850, 474.5080
772.8680, 476.3790
773.3500, 480.1910
773.8320, 481.3520
774.3140, 476.1520
774.7960, 470.3300
775.2780, 468.9420
775.7600, 470.6530
776.2420, 470.9330
776.7240, 467.7300
777.2070, 464.2500
777.6890, 463.9930
778.1710, 465.0440
778.6530, 463.8780
779.1350, 460.7270
779.6170, 457.5080
780.0990, 454.9910
780.5810, 453.8360
781.0640, 455.3450
781.5460, 459.3140
782.0280, 462.2140
782.5100, 464.4140
782.9920, 463.8980
783.4740, 458.9050
783.9560, 452.6680
784.4380, 448.0690
784.9200, 445.1010
785.4030, 443.4310
785.8850, 443.7830
786.3670, 444.3960
786.8490, 444.9650
787.3310, 445.7360
787.8130, 448.7560
788.2950, 451.8620
788.7780, 449.1480
789.2600, 437.1440
789.7420, 426.2780
790.2240, 425.6200
790.7060, 429.3560
791.1880, 429.9110
791.6700, 427.9360
792.1520, 427.8230
792.6340, 431.0970
793.1170, 433.9550
793.5990, 430.9710
794.0810, 423.7920
794.5630, 421.8940
795.0450, 425.7700
795.5270, 428.9620
796.0090, 429.8690
796.4910, 429.2890
796.9730, 427.5560
797.4560, 424.9420
797.9380, 423.5910
798.4200, 424.7310
798.9020, 425.1420
799.3840, 426.3370
799.8660, 425.1040
800.3480, 417.0170
800.8300, 406.0490
801.3120, 399.7470
801.7950, 400.1420
802.2770, 402.2420
802.7590, 405.2500
803.2410, 407.9480
803.7230, 409.0120
804.2050, 409.1630
804.6870, 410.0720
805.1690, 411.9750
805.6520, 413.0650
806.1340, 411.5340
806.6160, 408.4810
807.0980, 405.4340
807.5800, 402.6530
808.0620, 402.0520
808.5440, 404.0240
809.0260, 405.8230
809.5080, 405.3760
809.9910, 403.3940
810.4730, 401.6130
810.9550, 399.4350
811.4370, 400.3330
811.9190, 407.0400
812.4010, 411.9170
812.8830, 409.5760
813.3650, 404.2880
813.8470, 403.5970
814.3300, 408.4770
814.8120, 410.5320
815.2940, 408.2150
815.7760, 403.9700
816.2580, 396.1960
816.7400, 388.6460
817.2220, 385.1770
817.7050, 385.6370
818.1870, 387.2060
818.6690, 389.0610
819.1510, 390.7400
819.6330, 393.0420
820.1150, 394.2850
820.5970, 390.8300
821.0790, 383.7170
821.5610, 377.6240
822.0440, 374.6810
822.5260, 373.6180
823.0080, 373.0330
823.4900, 372.8510
823.9720, 372.4260
824.4540, 371.7350
824.9360, 372.8220
825.4180, 377.0380
825.9010, 379.5930
826.3830, 374.2150
826.8650, 362.4160
827.3470, 360.0000
827.8290, 373.7400
828.3110, 380.8930
828.7930, 372.3820
829.2750, 364.3910
829.7570, 370.1120
830.2400, 382.6850
830.7220, 387.5990
831.2040, 381.4710
831.6860, 376.1390
832.1680, 374.0840
832.6500, 372.9620
833.1320, 371.5540
833.6140, 370.3420
834.0960, 370.1460
834.5780, 371.0120
835.0610, 372.1530
835.5430, 373.9320
836.0250, 374.8300
836.5070, 372.5090
836.9890, 368.7270
837.4710, 366.1470
837.9530, 365.1960
838.4350, 366.1180
838.9170, 369.2760
839.4000, 371.8990
839.8820, 368.0140
840.3640, 359.5010
840.8460, 357.7610
841.3280, 363.2050
841.8100, 365.6300
842.2920, 360.4030
842.7740, 355.1480
843.2570, 359.8140
843.7390, 373.2290
844.2210, 378.7010
844.7030, 372.5480
845.1850, 368.3470
845.6670, 369.2470
846.1490, 371.1000
846.6310, 370.8710
847.1140, 369.4810
847.5960, 370.0470
848.0780, 375.0850
848.5600, 375.5840
849.0420, 364.9060
849.5240, 356.1310
850.0060, 356.5890
850.4880, 361.3920
850.9710, 364.8160
851.4530, 366.0750
851.9350, 366.8070
852.4170, 367.5210
852.8990, 368.2130
853.3810, 369.0700
853.8630, 369.7950
854.3450, 370.4680
854.8270, 370.6690
855.3100, 368.8170
855.7920, 364.0000
856.2740, 359.2940
856.7560, 357.7680
857.2380, 359.1410
857.7200, 364.6290
858.2020, 372.9210
858.6840, 377.2210
859.1660, 375.4450
859.6490, 370.6810
860.1310, 365.5820
860.6130, 360.4490
861.0950, 356.0120
861.5770, 352.1080
862.0590, 351.3630
862.5410, 354.4850
863.0230, 359.7480
863.5050, 367.3310
863.9880, 374.9300
864.4700, 377.3660
864.9520, 373.0630
865.4340, 370.5350
865.9160, 368.8620
866.3980, 370.3400
866.8800, 380.4580
867.3620, 390.2070
867.8440, 390.5570
868.3270, 383.0230
868.8090, 377.3110
869.2910, 376.2490
869.7730, 374.5720
870.2550, 368.9120
870.7370, 364.5030
871.2190, 365.6080
871.7010, 370.2430
872.1840, 375.0650
872.6660, 379.2750
873.1480, 382.2880
873.6300, 384.0480
874.1120, 384.2110
874.5940, 382.1530
875.0760, 378.4870
875.5580, 372.9790
876.0410, 366.5530
876.5230, 362.4970
877.0050, 362.9660
877.4870, 365.3320
877.9690, 365.8910
878.4510, 365.9830
878.9330, 370.2170
879.4150, 377.5990
879.8980, 381.3890
880.3800, 379.1330
880.8620, 373.8910
881.3440, 368.0830
881.8260, 362.7950
882.3080, 363.9590
882.7900, 371.7130
883.2720, 374.5810
883.7540, 369.8210
884.2370, 364.9400
884.7190, 364.5850
885.2010, 367.6010
885.6830, 372.2330
886.1650, 379.8810
886.6470, 380.9650
887.1290, 372.0140
887.6110, 364.0360
888.0930, 359.6020
888.5760, 358.3110
889.0580, 360.6490
889.5400, 366.2060
890.0220, 370.8840
890.5040, 375.7990
890.9860, 378.1740
891.4680, 376.4080
891.9500, 373.6370
892.4320, 369.8250
892.9150, 366.7360
893.3970, 367.7030
893.8790, 373.3230
894.3610, 377.1060
894.8430, 376.2980
895.3250, 374.3480
895.8070, 370.9880
896.2890, 368.6450
896.7710, 371.2700
897.2540, 377.0320
897.7360, 379.7470
898.2180, 376.5290
898.7000, 372.9360
899.1820, 373.0140
899.6640, 374.5300
900.1460, 376.1850
900.6280, 377.0800
901.1110, 374.5530
901.5930, 368.9140
902.0750, 365.4080
902.5570, 368.3560
903.0390, 374.3160
903.5210, 380.7100
904.0030, 385.6350
904.4850, 381.5530
904.9680, 370.1120
905.4500, 364.6540
905.9320, 370.9840
906.4140, 379.8070
906.8960, 378.7830
907.3780, 371.0840
907.8600, 369.8070
908.3420, 374.6090
908.8250, 380.6420
909.3070, 387.2230
909.7890, 389.0510
910.2710, 381.4580
910.7530, 369.6140
911.2350, 365.6760
911.7170, 370.6920
912.1990, 372.9900
912.6810, 371.3370
913.1640, 372.2400
913.6460, 379.0260
914.1280, 386.4440
914.6100, 389.2420
915.0920, 388.0360
915.5740, 386.8260
916.0560, 384.2360
916.5380, 385.2030
917.0200, 394.2640
917.5030, 400.4580
917.9850, 396.1580
918.4670, 387.7720
918.9490, 385.4300
919.4310, 389.8510
919.9130, 390.5040
920.3950, 380.4270
920.8770, 376.1320
921.3590, 387.4660
921.8420, 398.5420
922.3240, 396.5130
922.8060, 386.8720
923.2880, 382.1400
923.7700, 384.8650
924.2520, 388.1080
924.7340, 390.9250
925.2160, 392.9660
925.6980, 394.0490
926.1810, 394.3060
926.6630, 393.4000
927.1450, 391.7660
927.6270, 390.9580
928.1090, 391.9660
928.5910, 392.5130
929.0730, 389.1190
929.5550, 386.9180
930.0380, 392.1800
930.5200, 400.9040
931.0020, 406.2360
931.4840, 407.0870
931.9660, 406.9390
932.4480, 407.4080
932.9300, 408.4100
933.4120, 409.5270
933.8940, 411.3490
934.3770, 415.5490
934.8590, 421.1400
935.3410, 425.8230
935.8230, 428.6520
936.3050, 428.3400
936.7870, 421.0110
937.2690, 412.3330
937.7520, 413.0030
938.2340, 418.8550
938.7160, 419.3230
939.1980, 413.9610
939.6800, 408.8510
940.1620, 407.0700
940.6440, 408.3290
941.1260, 415.2050
941.6080, 424.1520
942.0910, 420.9610
942.5730, 408.8350
943.0550, 406.8050
943.5370, 418.5350
944.0190, 430.9010
944.5010, 434.8060
944.9830, 433.4910
945.4650, 432.0680
945.9470, 430.8230
946.4300, 433.6410
946.9120, 440.5630
947.3940, 444.3460
947.8760, 442.5930
948.3580, 438.0640
948.8400, 432.5710
949.3220, 427.6100
949.8040, 429.6160
950.2860, 439.2970
950.7690, 443.0700
951.2510, 438.8360
951.7330, 436.4010
952.2150, 440.3690
952.6970, 445.8720
953.1790, 447.0760
953.6610, 444.5620
954.1430, 443.0880
954.6250, 442.7200
955.1080, 442.9910
955.5900, 443.5990
956.0720, 445.8340
956.5540, 451.4760
957.0360, 457.2910
957.5180, 457.5680
958.0000, 451.9730
958.4820, 452.0100
958.9650, 462.0400
959.4470, 466.6670
959.9290, 460.2070
960.4110, 453.4350
960.8930, 452.1570
961.3750, 455.6070
961.8570, 463.6490
962.3390, 478.8770
962.8210, 484.1030
963.3040, 471.0870
963.7860, 461.7440
964.2680, 459.3230
964.7500, 463.1570
965.2320, 479.0670
965.7140, 499.9090
966.1960, 504.6960
966.6790, 485.4990
967.1610, 473.1880
967.6430, 469.2080
968.1250, 470.0280
968.6070, 481.0690
969.0890, 491.1760
969.5710, 487.2990
970.0530, 474.4710
970.5350, 472.0140
971.0180, 487.0490
971.5000, 498.5300
971.9820, 506.0140
972.4640, 507.9090
972.9460, 497.8130
973.4280, 486.1350
973.9100, 483.3910
974.3920, 488.7410
974.8750, 494.9960
975.3570, 502.8050
975.8390, 508.2660
976.3210, 510.0050
976.8030, 510.0650
977.2850, 508.3940
977.7670, 506.2770
978.2490, 504.9120
978.7310, 504.4530
979.2140, 505.0190
979.6960, 507.1750
980.1780, 509.4600
980.6600, 510.5660
981.1420, 512.6940
981.6240, 520.0140
982.1060, 527.5860
982.5880, 527.4590
983.0700, 519.5730
983.5530, 512.9840
984.0350, 508.8800
984.5170, 508.4540
984.9990, 513.8860
985.4810, 521.2960
985.9630, 530.5110
986.4450, 538.6710
986.9270, 540.5000
987.4090, 535.7300
987.8920, 533.0180
988.3740, 537.5220
988.8560, 541.8140
989.3380, 543.8080
989.8200, 543.5780
990.3020, 537.8830
990.7840, 531.3900
991.2660, 534.0460
991.7480, 547.1330
992.2310, 554.9010
992.7130, 543.6420
993.1950, 535.4170
993.6770, 544.0540
994.1590, 556.6830
994.6410, 562.7180
995.1230, 563.9580
995.6060, 565.2830
996.0880, 567.7910
996.5700, 571.3860
997.0520, 578.4900
997.5340, 583.5740
998.0160, 582.7150
998.4980, 579.5100
998.9800, 574.7840
999.4620, 571.0950
999.9450, 574.7090
1000.427, 587.0870
1000.909, 594.4080
1001.391, 584.7440
1001.873, 575.4810
1002.355, 574.9900
1002.837, 579.9740
1003.319, 592.0650
1003.801, 605.5780
1004.284, 607.9140
1004.766, 595.7640
1005.248, 586.1120
1005.730, 586.2840
1006.212, 591.1020
1006.694, 600.8580
1007.176, 611.3080
1007.658, 618.4520
1008.141, 623.0470
1008.623, 627.1460
1009.105, 631.2230
1009.587, 635.8810
1010.069, 643.9000
1010.551, 649.4450
1011.033, 648.1180
1011.515, 644.0230
1011.997, 639.3380
1012.480, 635.5240
1012.962, 635.1930
1013.444, 639.1300
1013.926, 642.6440
1014.408, 641.6640
1014.890, 642.5620
1015.372, 650.9480
1015.854, 660.4250
1016.336, 664.8460
1016.819, 665.7660
1017.301, 667.4860
1017.783, 670.9670
1018.265, 674.0160
1018.747, 675.3110
1019.229, 676.6650
1019.711, 677.5960
1020.193, 680.0750
1020.676, 687.3780
1021.158, 696.9600
1021.640, 703.3020
1022.122, 705.2380
1022.604, 707.7760
1023.086, 713.8720
1023.568, 718.9230
1024.050, 720.2080
1024.532, 720.7990
1025.015, 723.7960
1025.497, 727.5780
1025.979, 728.2490
1026.461, 725.0800
1026.943, 723.7180
1027.425, 726.0980
1027.907, 729.6520
1028.389, 732.1600
1028.872, 737.0230
1029.354, 749.2730
1029.836, 764.3670
1030.318, 773.9590
1030.800, 776.9600
1031.282, 781.1790
1031.764, 788.9020
1032.246, 796.4970
1032.729, 806.3060
1033.211, 812.4150
1033.693, 805.6640
1034.175, 795.7980
1034.657, 800.2000
1035.139, 820.2300
1035.621, 832.3750
1036.103, 825.2940
1036.585, 824.7160
1037.068, 843.1580
1037.550, 858.0510
1038.032, 852.2660
1038.514, 840.0060
1038.996, 841.6350
1039.478, 856.9520
1039.960, 869.3800
1040.442, 877.6550
1040.924, 885.2420
1041.407, 893.7090
1041.889, 899.3860
1042.371, 897.1450
1042.853, 894.8010
1043.335, 903.2350
1043.817, 920.8870
1044.299, 931.2600
1044.781, 929.8600
1045.264, 932.0680
1045.746, 940.7460
1046.228, 948.0100
1046.710, 948.9670
1047.192, 950.3500
1047.674, 959.5530
1048.156, 974.9970
1048.638, 974.6460
1049.120, 991.5010
1049.603, 1004.194
1050.085, 1012.919
1050.567, 1005.859
1051.049, 1019.182
1051.531, 1024.338
1052.013, 1029.157
1052.495, 1045.352
1052.977, 1040.588
1053.459, 1055.485
1053.942, 1066.261
1054.424, 1082.897
1054.906, 1095.697
1055.388, 1101.796
1055.870, 1104.518
1056.352, 1105.483
1056.834, 1107.266
1057.316, 1116.232
1057.799, 1131.752
1058.281, 1144.610
1058.763, 1154.890
1059.245, 1165.645
1059.727, 1177.489
1060.209, 1186.981
1060.691, 1191.978
1061.173, 1194.410
1061.656, 1194.839
1062.138, 1195.887
1062.620, 1210.524
1063.102, 1235.156
1063.584, 1251.670
1064.066, 1258.208
1064.548, 1263.314
1065.030, 1271.055
1065.512, 1280.785
1065.995, 1292.548
1066.477, 1305.138
1066.959, 1317.427
1067.441, 1328.472
1067.923, 1333.005
1068.405, 1333.882
1068.887, 1343.510
1069.369, 1365.402
1069.851, 1388.320
1070.334, 1402.784
1070.816, 1414.802
1071.298, 1434.997
1071.780, 1454.428
1072.262, 1455.639
1072.744, 1446.982
1073.226, 1449.621
1073.708, 1466.597
1074.191, 1482.512
1074.673, 1487.565
1075.155, 1492.790
1075.637, 1505.743
1076.119, 1522.299
1076.601, 1540.873
1077.083, 1559.484
1077.565, 1574.950
1078.047, 1587.847
1078.530, 1602.821
1079.012, 1623.475
1079.494, 1638.990
1079.976, 1635.729
1080.458, 1637.808
1080.940, 1666.508
1081.422, 1698.949
1081.904, 1711.381
1082.386, 1708.832
1082.869, 1707.724
1083.351, 1708.454
1083.833, 1719.393
1084.315, 1751.170
1084.797, 1779.969
1085.279, 1799.530
1085.761, 1815.418
1086.243, 1828.544
1086.725, 1841.872
1087.208, 1861.339
1087.690, 1887.380
1088.172, 1908.311
1088.654, 1919.414
1089.136, 1936.795
1089.618, 1965.862
1090.100, 1993.051
1090.582, 2012.313
1091.065, 2026.599
1091.547, 2038.111
1092.029, 2048.051
1092.511, 2062.708
1092.993, 2082.188
1093.475, 2105.933
1093.957, 2134.356
1094.439, 2164.170
1094.922, 2194.729
1095.404, 2221.875
1095.886, 2241.769
1096.368, 2257.198
1096.850, 2272.570
1097.332, 2288.759
1097.814, 2313.282
1098.296, 2344.779
1098.778, 2373.163
1099.260, 2396.294
1099.743, 2413.914
1100.225, 2425.570
1100.707, 2439.050
1101.189, 2465.641
1101.671, 2498.989
1102.153, 2529.456
1102.635, 2556.865
1103.117, 2578.842
1103.600, 2597.517
1104.082, 2619.813
1104.564, 2647.963
1105.046, 2676.654
1105.528, 2699.464
1106.010, 2726.302
1106.492, 2770.310
1106.974, 2818.391
1107.457, 2858.290
1107.939, 2891.114
1108.421, 2918.090
1108.903, 2941.264
1109.385, 2968.127
1109.867, 2999.880
1110.349, 3038.873
1110.831, 3095.091
1111.313, 3147.443
1111.796, 3179.220
1112.278, 3207.471
1112.760, 3250.547
1113.242, 3304.160
1113.724, 3353.973
1114.206, 3400.758
1114.688, 3437.152
1115.170, 3451.600
1115.652, 3475.258
1116.135, 3516.368
1116.617, 3561.580
1117.099, 3601.324
1117.581, 3643.955
1118.063, 3705.123
1118.545, 3781.350
1119.027, 3831.664
1119.509, 3848.989
1119.992, 3884.404
1120.474, 3943.700
1120.956, 4007.573
1121.438, 4070.417
1121.920, 4129.361
1122.402, 4181.541
1122.884, 4230.777
1123.366, 4286.173
1123.849, 4346.105
1124.331, 4397.354
1124.813, 4443.139
1125.295, 4499.730
1125.777, 4569.818
1126.259, 4652.869
1126.741, 4748.549
1127.223, 4837.187
1127.705, 4889.796
1128.188, 4930.703
1128.670, 4990.404
1129.152, 5061.177
1129.634, 5131.132
1130.116, 5201.625
1130.598, 5281.151
1131.080, 5370.712
1131.562, 5459.669
1132.044, 5544.736
1132.527, 5625.200
1133.009, 5689.613
1133.491, 5761.869
1133.973, 5870.499
1134.455, 5986.668
1134.937, 6066.820
1135.419, 6122.509
1135.901, 6210.427
1136.384, 6354.629
1136.866, 6471.204
1137.348, 6513.493
1137.830, 6590.279
1138.312, 6742.249
1138.794, 6901.404
1139.276, 7036.348
1139.758, 7145.208
1140.240, 7217.654
1140.723, 7259.371
1141.205, 7347.306
1141.687, 7488.656
1142.169, 7616.202
1142.651, 7723.861
1143.133, 7826.178
1143.615, 7927.188
1144.097, 8031.637
1144.579, 8142.873
1145.062, 8262.131
1145.544, 8398.157
1146.026, 8541.594
1146.508, 8658.818
1146.990, 8758.165
1147.472, 8863.408
1147.954, 8980.238
1148.436, 9116.157
1148.919, 9273.613
1149.401, 9424.504
1149.883, 9541.967
1150.365, 9648.222
1150.847, 9757.436
1151.329, 9870.756
1151.811, 9995.306
1152.293, 10122.12
1152.776, 10226.08
1153.258, 10312.80
1153.740, 10434.87
1154.222, 10633.67
1154.704, 10799.27
1155.186, 10882.07
1155.668, 10958.45
1156.150, 11045.50
1156.632, 11147.64
1157.115, 11273.48
1157.597, 11411.90
1158.079, 11541.15
1158.561, 11661.21
1159.043, 11783.74
1159.525, 11910.59
1160.007, 12028.66
1160.489, 12135.36
1160.971, 12238.52
1161.454, 12340.41
1161.936, 12440.04
1162.418, 12536.56
1162.900, 12627.64
1163.382, 12699.25
1163.864, 12762.29
1164.346, 12866.74
1164.828, 12999.57
1165.311, 13113.34
1165.793, 13199.80
1166.275, 13260.03
1166.757, 13295.16
1167.239, 13328.17
1167.721, 13373.54
1168.203, 13430.46
1168.685, 13514.33
1169.167, 13594.57
1169.650, 13637.38
1170.132, 13655.94
1170.614, 13661.94
1171.096, 13665.61
1171.578, 13708.79
1172.060, 13829.70
1172.542, 13912.04
1173.024, 13918.91
1173.506, 13907.40
1173.989, 13879.09
1174.471, 13855.23
1174.953, 13848.38
1175.435, 13855.17
1175.917, 13873.61
1176.399, 13901.54
1176.881, 13906.62
1177.363, 13885.46
1177.846, 13883.46
1178.328, 13905.70
1178.810, 13890.54
1179.292, 13818.62
1179.774, 13757.76
1180.256, 13762.73
1180.738, 13781.81
1181.220, 13727.35
1181.703, 13638.62
1182.185, 13592.28
1182.667, 13572.83
1183.149, 13552.66
1183.631, 13525.69
1184.113, 13488.49
1184.595, 13440.87
1185.077, 13390.85
1185.559, 13342.19
1186.042, 13292.96
1186.524, 13242.46
1187.006, 13191.18
1187.488, 13136.40
1187.970, 13083.45
1188.452, 13038.33
1188.934, 12999.33
1189.416, 12965.03
1189.898, 12940.70
1190.381, 12874.86
1190.863, 12737.30
1191.345, 12652.85
1191.827, 12652.87
1192.309, 12643.78
1192.791, 12585.20
1193.273, 12509.70
1193.755, 12448.54
1194.238, 12395.14
1194.720, 12332.62
1195.202, 12265.11
1195.684, 12205.24
1196.166, 12153.81
1196.648, 12117.65
1197.130, 12091.43
1197.612, 12049.33
1198.094, 11982.08
1198.577, 11910.94
1199.059, 11852.49
1199.541, 11792.42
1200.023, 11718.45
1200.505, 11640.83
1200.987, 11563.26
1201.469, 11490.40
1201.951, 11436.86
1202.433, 11393.22
1202.916, 11318.00
1203.398, 11189.40
1203.880, 11104.38
1204.362, 11090.34
1204.844, 11058.47
1205.326, 10993.22
1205.808, 10918.12
1206.290, 10841.74
1206.773, 10768.04
1207.255, 10701.67
1207.737, 10638.97
1208.219, 10570.55
1208.701, 10497.35
1209.183, 10420.90
1209.665, 10343.96
1210.147, 10277.17
1210.630, 10221.03
1211.112, 10171.22
1211.594, 10125.08
1212.076, 10066.17
1212.558, 9964.617
1213.040, 9874.188
1213.522, 9847.815
1214.004, 9831.935
1214.486, 9786.716
1214.969, 9724.685
1215.451, 9661.568
1215.933, 9598.556
1216.415, 9532.942
1216.897, 9463.503
1217.379, 9397.004
1217.861, 9328.794
1218.343, 9278.295
1218.825, 9256.812
1219.308, 9221.042
1219.790, 9151.428
1220.272, 9073.120
1220.754, 9011.323
1221.236, 8951.466
1221.718, 8850.090
1222.200, 8729.647
1222.682, 8665.517
1223.165, 8643.081
1223.647, 8630.247
1224.129, 8614.860
1224.611, 8577.224
1225.093, 8512.847
1225.575, 8445.715
1226.057, 8390.309
1226.539, 8333.157
1227.021, 8259.924
1227.504, 8191.892
1227.986, 8141.978
1228.468, 8103.504
1228.950, 8077.200
1229.432, 8054.560
1229.914, 8018.721
1230.396, 7969.661
1230.878, 7915.581
1231.360, 7852.396
1231.843, 7809.301
1232.325, 7790.138
1232.807, 7770.522
1233.289, 7743.230
1233.771, 7704.759
1234.253, 7651.674
1234.735, 7597.667
1235.217, 7555.742
1235.700, 7529.597
1236.182, 7540.724
1236.664, 7560.367
1237.146, 7541.274
1237.628, 7495.332
1238.110, 7451.630
1238.592, 7416.031
1239.074, 7382.362
1239.557, 7344.957
1240.039, 7323.277
1240.521, 7334.805
1241.003, 7342.765
1241.485, 7339.488
1241.967, 7330.162
1242.449, 7317.734
1242.931, 7298.794
1243.413, 7265.768
1243.896, 7228.138
1244.378, 7221.794
1244.860, 7242.212
1245.342, 7250.848
1245.824, 7247.500
1246.306, 7230.115
1246.788, 7203.818
1247.270, 7193.594
1247.752, 7207.916
1248.235, 7226.248
1248.717, 7239.061
1249.199, 7241.874
1249.681, 7216.436
1250.163, 7197.495
1250.645, 7215.138
1251.127, 7246.740
1251.609, 7276.361
1252.092, 7297.809
1252.574, 7294.486
1253.056, 7266.833
1253.538, 7277.188
1254.020, 7338.585
1254.502, 7376.812
1254.984, 7386.489
1255.466, 7378.659
1255.948, 7355.913
1256.431, 7363.844
1256.913, 7432.240
1257.395, 7506.836
1257.877, 7516.001
1258.359, 7503.532
1258.841, 7538.155
1259.323, 7584.970
1259.805, 7594.834
1260.287, 7583.863
1260.770, 7581.246
1261.252, 7590.415
1261.734, 7605.205
1262.216, 7624.677
1262.698, 7647.694
1263.180, 7669.513
1263.662, 7705.299
1264.144, 7770.305
1264.627, 7814.918
1265.109, 7816.721
1265.591, 7806.254
1266.073, 7807.171
1266.555, 7820.419
1267.037, 7853.602
1267.519, 7897.586
1268.001, 7924.196
1268.484, 7938.606
1268.966, 7947.165
1269.448, 7957.579
1269.930, 7992.377
1270.412, 8048.120
1270.894, 8081.348
1271.376, 8068.084
1271.858, 8064.883
1272.340, 8110.335
1272.823, 8138.696
1273.305, 8135.839
##END=



