##NAMES=Talnakhite
##RRUFFID=R060389
##IDEAL CHEMISTRY=Cu_9_Fe_8_S_16_
##LOCALITY=Oktyabrskiy mine, Talnakh, Noril'sk Region, Siberia, U.S.S.R.
##OWNER=RRUFF
##SOURCE=Michael Scott
##DESCRIPTION=Bronze metallic massive, associated with cubanite. We can not tell the difference between them by eye.
##STATUS=The identification of this mineral has been confirmed by X-ray diffraction and chemical analysis
##URL=rruff.info/R060389
##MEASURED CHEMISTRY=(Cu_8.70_Ni_0.30_)_Î£=9_Fe_9.00_S_16.00_
151.3521, 0.0000000E+00
151.8342, 0.5771980
152.3164, 0.7735480
152.7985, 0.6121860
153.2806, 0.4790460
153.7627, 0.9328990
154.2448, 1.849781
154.7269, 2.457447
155.2091, 2.581898
155.6912, 3.091812
156.1733, 2.803417
156.6554, 1.915016
157.1375, 1.124451
157.6196, 1.066090
158.1018, 2.205338
158.5839, 2.609051
159.0660, 1.502081
159.5481, 0.2266120
160.0302, 0.3594700
160.5123, 5.5980999E-02
160.9945, 0.7117310
161.4766, 1.199770
161.9587, 1.225830
162.4408, 1.235477
162.9229, 1.160015
163.4050, 1.100098
163.8871, 1.096458
164.3693, 1.170704
164.8514, 1.374847
165.3335, 1.882164
165.8156, 3.327702
166.2977, 4.173820
166.7798, 4.034992
167.2620, 3.047890
167.7441, 2.322971
168.2262, 2.292068
168.7083, 2.766441
169.1904, 3.098167
169.6725, 3.398685
170.1547, 3.528791
170.6368, 3.341869
171.1189, 2.881838
171.6010, 2.360258
172.0831, 1.738541
172.5652, 1.252598
173.0474, 1.314110
173.5295, 1.987001
174.0116, 2.737041
174.4937, 3.102362
174.9758, 3.116777
175.4579, 3.240665
175.9401, 3.708292
176.4222, 4.232605
176.9043, 4.589432
177.3864, 4.581137
177.8685, 4.196285
178.3506, 3.531422
178.8328, 2.441202
179.3149, 1.821318
179.7970, 2.169971
180.2791, 2.751009
180.7612, 2.701893
181.2433, 1.619942
181.7255, 0.1320690
182.2076, 0.3574260
182.6897, 0.8506660
183.1718, 1.860327
183.6539, 2.338482
184.1360, 2.441698
184.6181, 2.181208
185.1003, 1.524948
185.5824, 0.7151570
186.0645, 0.6510540
186.5466, 2.475708
187.0287, 3.624283
187.5108, 3.375254
187.9930, 2.383085
188.4751, 1.426325
188.9572, 0.9320130
189.4393, 0.8594020
189.9214, 1.012190
190.4035, 1.708950
190.8857, 2.276722
191.3678, 2.671331
191.8499, 2.844845
192.3320, 2.679855
192.8141, 2.059921
193.2962, 1.074274
193.7784, 0.4187560
194.2605, 1.8955000E-02
194.7426, 7.6052003E-02
195.2247, 0.4173370
195.7068, 1.279219
196.1889, 1.895645
196.6711, 1.860029
197.1532, 1.272438
197.6353, 0.7750340
198.1174, 0.2941400
198.5995, 4.6730001E-02
199.0816, 0.1814920
199.5638, 0.1163440
200.0459, 0.1481080
200.5280, 0.8165990
201.0101, 1.607861
201.4922, 1.747055
201.9743, 0.5826550
202.4565, 0.6109700
202.9386, 0.6021250
203.4207, 0.6414790
203.9028, 1.916779
204.3849, 2.797657
204.8670, 3.208773
205.3492, 2.924660
205.8313, 1.520758
206.3134, 9.7686999E-02
206.7955, 0.7329290
207.2776, 0.2012120
207.7597, 0.4636500
208.2419, 0.9371810
208.7240, 1.248787
209.2061, 1.412813
209.6882, 1.381344
210.1703, 1.210426
210.6524, 0.9467830
211.1346, 0.4903180
211.6167, 0.2145560
212.0988, 0.4298440
212.5809, 0.7815380
213.0630, 0.8693080
213.5451, 0.4888000
214.0273, 6.3417003E-02
214.5094, 4.6700999E-02
214.9915, 1.055651
215.4736, 1.783102
215.9557, 1.651808
216.4378, 1.163130
216.9200, 0.7985080
217.4021, 0.7622130
217.8842, 0.9323040
218.3663, 1.092865
218.8484, 1.368435
219.3305, 1.408251
219.8127, 0.9671670
220.2948, 0.3720930
220.7769, 3.6375001E-02
221.2590, 0.1030040
221.7411, 8.0329999E-02
222.2232, 0.2401010
222.7054, 0.1965390
223.1875, 0.3630410
223.6696, 1.035677
224.1517, 1.833879
224.6338, 2.236574
225.1159, 2.010605
225.5980, 1.446461
226.0802, 1.391485
226.5623, 2.664143
227.0444, 3.477766
227.5265, 3.459015
228.0086, 2.978601
228.4907, 2.437433
228.9729, 1.991077
229.4550, 1.686687
229.9371, 1.682690
230.4192, 2.211946
230.9013, 2.653427
231.3834, 2.945272
231.8656, 3.085686
232.3477, 3.001347
232.8298, 2.623518
233.3119, 2.171984
233.7940, 2.199726
234.2761, 2.930014
234.7583, 3.478344
235.2404, 3.445772
235.7225, 3.114872
236.2046, 3.026136
236.6867, 3.418505
237.1688, 3.956621
237.6510, 3.995337
238.1331, 3.430193
238.6152, 2.990772
239.0973, 2.918198
239.5794, 3.123463
240.0615, 3.535971
240.5437, 4.366968
241.0258, 5.104254
241.5079, 4.928488
241.9900, 3.846527
242.4721, 3.011902
242.9542, 3.104609
243.4364, 3.807739
243.9185, 4.337309
244.4006, 4.551291
244.8827, 4.545111
245.3648, 4.333214
245.8469, 3.950773
246.3290, 3.689384
246.8112, 3.738762
247.2933, 4.024439
247.7754, 4.322754
248.2575, 4.614069
248.7396, 4.905489
249.2217, 5.385431
249.7039, 5.931160
250.1860, 6.074354
250.6681, 5.167730
251.1502, 3.586367
251.6323, 2.784931
252.1144, 3.196245
252.5966, 3.810081
253.0787, 4.132517
253.5608, 4.194460
254.0429, 4.068861
254.5250, 3.663469
255.0071, 3.091642
255.4893, 2.795103
255.9714, 2.878948
256.4535, 3.089504
256.9356, 3.324181
257.4177, 3.592634
257.8998, 3.891987
258.3820, 4.196930
258.8641, 4.524809
259.3462, 4.999870
259.8283, 5.932137
260.3104, 6.414566
260.7925, 6.112135
261.2747, 5.388966
261.7568, 4.573088
262.2389, 3.789478
262.7210, 3.127869
263.2031, 2.809650
263.6852, 3.003679
264.1674, 3.299210
264.6495, 3.810968
265.1316, 4.308937
265.6137, 4.349056
266.0958, 3.705664
266.5779, 2.762529
267.0601, 2.465254
267.5422, 3.214565
268.0243, 3.918711
268.5064, 4.445730
268.9885, 4.847519
269.4706, 5.115112
269.9528, 5.256701
270.4349, 5.391325
270.9170, 5.806694
271.3991, 6.887932
271.8812, 7.447006
272.3633, 7.067867
272.8455, 6.460114
273.3276, 6.125172
273.8097, 6.193796
274.2918, 6.494099
274.7739, 6.820871
275.2560, 7.394188
275.7382, 7.488592
276.2202, 6.758324
276.7024, 5.912172
277.1845, 5.324553
277.6666, 5.081108
278.1487, 5.121332
278.6308, 5.429489
279.1129, 6.188852
279.5951, 6.600719
280.0772, 6.358086
280.5593, 6.042986
281.0414, 6.072281
281.5235, 6.405914
282.0056, 6.676462
282.4878, 6.505819
282.9699, 5.801426
283.4520, 5.317814
283.9341, 5.256956
284.4162, 5.185194
284.8983, 4.955624
285.3805, 4.568167
285.8626, 4.052067
286.3447, 3.400776
286.8268, 2.623056
287.3089, 2.108953
287.7910, 2.122118
288.2732, 2.094030
288.7553, 1.715487
289.2374, 1.187037
289.7195, 0.9453350
290.2016, 1.296059
290.6837, 2.084908
291.1659, 2.488993
291.6480, 2.122725
292.1301, 1.857094
292.6122, 2.058407
293.0943, 2.387882
293.5764, 2.255735
294.0586, 1.371836
294.5407, 0.1283000
295.0228, 0.4115200
295.5049, 0.5023650
295.9870, 1.246140
296.4691, 1.759974
296.9513, 2.072458
297.4334, 2.226669
297.9155, 2.250721
298.3976, 2.187578
298.8797, 2.105936
299.3618, 1.904282
299.8440, 1.864616
300.3261, 2.192457
300.8082, 2.565897
301.2903, 2.700306
301.7724, 2.553473
302.2545, 2.321224
302.7367, 2.258602
303.2188, 2.483168
303.7009, 2.365707
304.1830, 1.506151
304.6651, 0.6637100
305.1472, 0.2492490
305.6294, 0.3007850
306.1115, 0.7452160
306.5936, 1.609085
307.0757, 2.934536
307.5578, 3.663311
308.0399, 3.580362
308.5221, 3.242788
309.0042, 2.814659
309.4863, 2.323275
309.9684, 1.730892
310.4505, 0.9643540
310.9326, 0.1142010
311.4148, 0.1258600
311.8969, 1.001375
312.3790, 1.767269
312.8611, 1.350132
313.3432, 0.3757650
313.8253, 9.8329999E-02
314.3075, 0.4301340
314.7896, 1.593151
315.2717, 2.468946
315.7538, 3.164663
316.2359, 3.409771
316.7180, 2.789513
317.2001, 1.878353
317.6823, 1.365116
318.1644, 1.437454
318.6465, 1.680988
319.1286, 1.430372
319.6107, 0.2174700
320.0928, 0.3118460
320.5750, 0.4702260
321.0571, 1.483978
321.5392, 1.941204
322.0213, 1.726387
322.5034, 1.200422
322.9855, 0.7159500
323.4677, 0.2746660
323.9498, 3.5800000E-03
324.4319, 7.3591001E-02
324.9140, 3.4371998E-02
325.3961, 8.9915998E-02
325.8782, 0.2971820
326.3604, 0.6312200
326.8425, 1.162729
327.3246, 1.844954
327.8067, 2.137793
328.2888, 1.624773
328.7709, 1.254515
329.2531, 1.471186
329.7352, 1.949400
330.2173, 2.089264
330.6994, 1.584702
331.1815, 0.7704010
331.6636, 0.5539570
332.1458, 1.768990
332.6279, 2.568447
333.1100, 2.731550
333.5921, 2.534792
334.0742, 2.195299
334.5563, 1.790070
335.0385, 1.342987
335.5206, 0.8823760
336.0027, 0.3536300
336.4848, 3.4697998E-02
336.9669, 0.4600140
337.4490, 0.6323760
337.9312, 0.1940940
338.4133, 0.7604390
338.8954, 1.735003
339.3775, 2.282368
339.8596, 2.386131
340.3417, 2.261072
340.8239, 1.553516
341.3060, 1.012964
341.7881, 1.051992
342.2702, 1.456165
342.7523, 1.753267
343.2344, 1.639326
343.7166, 1.221729
344.1987, 1.041643
344.6808, 1.328388
345.1629, 1.502066
345.6450, 1.568293
346.1271, 1.495974
346.6093, 1.135906
347.0914, 0.4603270
347.5735, 0.2216300
348.0556, 0.2674290
348.5377, 0.9251400
349.0198, 1.617542
349.5020, 1.627718
349.9841, 1.352718
350.4662, 0.9292660
350.9483, 0.4499360
351.4304, 8.5358001E-02
351.9125, 7.0450000E-02
352.3947, 0.5003930
352.8768, 0.6299460
353.3589, 3.9370999E-02
353.8410, 0.3858150
354.3231, 0.1783750
354.8052, 0.4264240
355.2874, 0.8387180
355.7695, 0.5966340
356.2516, 0.1030810
356.7337, 0.1221850
357.2158, 1.328991
357.6979, 2.381462
358.1800, 2.626019
358.6621, 2.359749
359.1443, 1.792900
359.6264, 1.008318
360.1085, 0.2577740
360.5906, 1.7242000E-02
361.0727, 0.4556050
361.5548, 0.9801600
362.0370, 1.982788
362.5191, 2.752205
363.0012, 2.443949
363.4833, 1.195168
363.9654, 2.6709000E-02
364.4475, 0.1555480
364.9297, 1.697508
365.4118, 2.603399
365.8939, 2.382490
366.3760, 2.009773
366.8581, 1.741575
367.3402, 1.694643
367.8224, 1.906105
368.3045, 2.458157
368.7866, 3.170944
369.2687, 3.460653
369.7508, 3.143827
370.2329, 2.822418
370.7151, 2.752337
371.1972, 2.754696
371.6793, 2.632933
372.1614, 2.325064
372.6435, 1.978098
373.1256, 1.764046
373.6078, 1.688583
374.0899, 1.703018
374.5720, 1.977095
375.0541, 2.176764
375.5362, 1.979549
376.0183, 1.422806
376.5005, 0.9124680
376.9826, 0.8153340
377.4647, 0.9920080
377.9468, 0.8551040
378.4289, 0.2160430
378.9110, 0.3354450
379.3932, 0.3980120
379.8753, 9.5406003E-02
380.3574, 0.4013290
380.8395, 1.188820
381.3216, 2.010281
381.8037, 2.600319
382.2859, 2.961147
382.7680, 2.996326
383.2501, 2.391598
383.7322, 1.611656
384.2143, 1.482376
384.6964, 2.263453
385.1786, 2.829752
385.6607, 2.190813
386.1428, 0.8428570
386.6249, 0.1403620
387.1070, 0.5242610
387.5891, 1.308161
388.0713, 1.749147
388.5534, 1.881130
389.0355, 1.963528
389.5176, 2.061413
389.9997, 2.125124
390.4818, 2.080175
390.9640, 1.930014
391.4461, 1.780268
391.9282, 1.700243
392.4103, 1.681725
392.8924, 1.666151
393.3745, 1.626812
393.8567, 1.618587
394.3388, 1.705917
394.8209, 1.813881
395.3030, 1.840210
395.7851, 1.777721
396.2672, 1.645123
396.7494, 1.477741
397.2315, 1.203152
397.7136, 1.080339
398.1957, 1.166719
398.6778, 1.376831
399.1599, 1.818184
399.6420, 2.401245
400.1241, 2.644081
400.6063, 2.029074
401.0884, 0.5099120
401.5705, 0.3341580
402.0526, 0.1625880
402.5347, 0.1976240
403.0168, 0.7325990
403.4990, 1.247232
403.9811, 1.359867
404.4632, 0.8868240
404.9453, 0.1588060
405.4274, 1.0315000E-02
405.9095, 0.8580590
406.3917, 1.544991
406.8738, 2.021757
407.3559, 2.292212
407.8380, 2.305431
408.3201, 2.091087
408.8022, 1.786077
409.2844, 1.524157
409.7665, 1.313904
410.2486, 1.042891
410.7307, 0.3642390
411.2128, 1.3821000E-02
411.6949, 0.6524120
412.1771, 1.732826
412.6592, 2.226767
413.1413, 1.515285
413.6234, 0.2836990
414.1055, 0.1360910
414.5876, 1.565878
415.0698, 2.612886
415.5519, 2.464567
416.0340, 1.982965
416.5161, 1.721375
416.9982, 1.747116
417.4803, 1.816793
417.9625, 1.771595
418.4446, 1.606428
418.9267, 1.187735
419.4088, 0.1635610
419.8909, 0.4794410
420.3730, 0.4037300
420.8552, 2.075478
421.3373, 2.975153
421.8194, 2.149754
422.3015, 0.7748200
422.7836, 0.3698830
423.2657, 0.9162120
423.7479, 1.142473
424.2300, 0.2504690
424.7121, 0.9592700
425.1942, 1.223207
425.6763, 0.4065700
426.1584, 0.6016040
426.6406, 1.726097
427.1227, 2.711182
427.6048, 2.986778
428.0869, 2.419497
428.5690, 1.701506
429.0511, 1.496365
429.5333, 1.802813
430.0154, 1.826637
430.4975, 1.016916
430.9796, 0.4403720
431.4617, 1.056511
431.9438, 2.403313
432.4260, 3.212852
432.9081, 2.837231
433.3902, 1.771343
433.8723, 1.173740
434.3544, 1.278357
434.8365, 1.498245
435.3187, 1.997272
435.8008, 2.484552
436.2829, 2.630686
436.7650, 2.428911
437.2471, 2.273554
437.7292, 2.581104
438.2114, 3.373098
438.6935, 3.687271
439.1756, 3.124685
439.6577, 2.514265
440.1398, 1.922079
440.6219, 1.427631
441.1040, 1.176701
441.5862, 1.229319
442.0683, 1.382576
442.5504, 1.171011
443.0325, 0.2907960
443.5146, 1.5749000E-02
443.9967, 1.041822
444.4789, 2.119770
444.9610, 2.509861
445.4431, 2.271786
445.9252, 1.883560
446.4073, 1.613209
446.8894, 1.473465
447.3716, 1.541046
447.8537, 1.888807
448.3358, 2.262531
448.8179, 2.752382
449.3000, 3.124847
449.7821, 3.013372
450.2643, 2.245270
450.7464, 1.453262
451.2285, 1.220301
451.7106, 1.450333
452.1927, 1.683401
452.6748, 1.839268
453.1570, 1.956198
453.6391, 2.065584
454.1212, 2.168405
454.6033, 2.260962
455.0854, 2.462999
455.5675, 2.564021
456.0497, 2.190928
456.5318, 1.455848
457.0139, 1.042048
457.4960, 1.341352
457.9781, 2.117377
458.4602, 2.846558
458.9424, 3.901606
459.4245, 4.155472
459.9066, 2.598690
460.3887, 0.6800760
460.8708, 8.3710002E-03
461.3529, 0.7305770
461.8351, 1.724292
462.3172, 1.898855
462.7993, 1.206490
463.2814, 1.026815
463.7635, 2.192454
464.2456, 2.979931
464.7278, 2.455594
465.2099, 1.380127
465.6920, 0.8685380
466.1741, 1.329636
466.6562, 2.113205
467.1383, 1.973555
467.6205, 0.3410650
468.1026, 0.3526570
468.5847, 1.002517
469.0668, 2.287565
469.5489, 2.380690
470.0310, 1.579525
470.5132, 0.9030930
470.9953, 1.056620
471.4774, 1.673103
471.9595, 1.714448
472.4416, 0.9455420
472.9237, 0.5211790
473.4059, 1.279675
473.8880, 2.316334
474.3701, 2.818516
474.8522, 2.686572
475.3343, 2.335812
475.8164, 1.823982
476.2986, 1.310676
476.7807, 1.284262
477.2628, 1.880890
477.7449, 2.455809
478.2270, 2.660872
478.7091, 2.491496
479.1913, 2.154459
479.6734, 1.298122
480.1555, 0.6767610
480.6376, 0.9062680
481.1197, 1.634123
481.6018, 2.105204
482.0839, 2.064531
482.5660, 1.693789
483.0482, 1.354036
483.5303, 1.079405
484.0124, 1.061541
484.4945, 1.508435
484.9766, 1.934577
485.4587, 2.029593
485.9409, 1.892204
486.4230, 1.818625
486.9051, 1.983585
487.3872, 2.270153
487.8693, 2.301476
488.3514, 1.725113
488.8336, 1.569080
489.3157, 2.393661
489.7978, 3.219102
490.2799, 3.304201
490.7620, 2.702911
491.2441, 2.015697
491.7263, 1.710304
492.2084, 1.718997
492.6905, 1.675571
493.1726, 1.447167
493.6547, 1.488389
494.1368, 2.538553
494.6190, 3.683765
495.1011, 3.861554
495.5832, 2.792495
496.0653, 1.526342
496.5474, 0.7039290
497.0295, 0.3106190
497.5117, 0.4386050
497.9938, 1.230968
498.4759, 1.999157
498.9580, 2.113852
499.4401, 1.693594
499.9222, 1.432307
500.4044, 1.611216
500.8865, 1.706869
501.3686, 1.251738
501.8507, 0.5564990
502.3328, 0.2704190
502.8149, 0.6297120
503.2971, 1.233797
503.7792, 1.521153
504.2613, 1.403984
504.7434, 1.263842
505.2255, 1.097725
505.7076, 0.9147390
506.1898, 0.5615460
506.6719, 0.2117300
507.1540, 0.2618780
507.6361, 0.9456650
508.1182, 1.957573
508.6003, 2.587126
509.0825, 2.796458
509.5646, 2.670646
510.0467, 1.877665
510.5288, 1.061981
511.0109, 0.4848530
511.4930, 0.1851510
511.9752, 0.1894000
512.4573, 0.7183060
512.9394, 1.433277
513.4215, 1.462727
513.9036, 0.6653930
514.3857, 7.7800001E-03
514.8679, 6.9752000E-02
515.3500, 0.2936920
515.8321, 0.9851480
516.3142, 2.093116
516.7963, 2.687387
517.2784, 1.741499
517.7606, 0.3392770
518.2427, 0.2253080
518.7248, 1.477924
519.2069, 2.621608
519.6890, 2.660362
520.1711, 1.788377
520.6533, 0.9576510
521.1354, 0.3353760
521.6175, 0.9447880
522.0996, 0.1101610
522.5817, 1.168587
523.0638, 1.971410
523.5460, 2.108396
524.0281, 1.758059
524.5102, 0.9694170
524.9923, 0.2247080
525.4744, 0.6374490
525.9565, 0.4826490
526.4387, 1.431129
526.9208, 1.720901
527.4029, 1.696779
527.8850, 1.692697
528.3671, 1.800050
528.8492, 1.966907
529.3314, 2.257901
529.8135, 2.625345
530.2956, 2.487006
530.7777, 1.472380
531.2598, 0.6560360
531.7419, 1.083942
532.2241, 2.070101
532.7062, 2.468441
533.1883, 1.814996
533.6704, 1.068210
534.1525, 0.9438820
534.6346, 1.207476
535.1168, 1.272558
535.5989, 0.9894030
536.0810, 0.6970630
536.5631, 0.7770610
537.0452, 1.252309
537.5273, 1.470903
538.0095, 1.072202
538.4916, 0.8441040
538.9737, 1.323807
539.4558, 2.073860
539.9379, 2.343932
540.4200, 1.920885
540.9022, 1.351876
541.3843, 1.445318
541.8664, 2.364647
542.3485, 3.020273
542.8306, 3.155424
543.3127, 3.290292
543.7948, 3.667960
544.2769, 4.138264
544.7590, 4.460176
545.2411, 4.552374
545.7233, 4.401310
546.2054, 3.795033
546.6875, 2.785645
547.1696, 2.193213
547.6517, 2.200327
548.1339, 2.531717
548.6160, 3.183482
549.0981, 4.002122
549.5802, 4.556740
550.0623, 4.611448
550.5444, 4.456404
551.0266, 4.177675
551.5087, 3.824131
551.9908, 3.468729
552.4729, 3.127365
552.9550, 2.909692
553.4371, 2.960883
553.9193, 3.317617
554.4014, 3.744997
554.8835, 4.702293
555.3656, 5.216528
555.8477, 4.594017
556.3298, 3.417211
556.8120, 2.576187
557.2941, 2.386388
557.7762, 2.451666
558.2583, 2.153112
558.7404, 1.411840
559.2225, 0.9830400
559.7047, 0.9936750
560.1868, 1.200060
560.6689, 1.608351
561.1510, 2.083867
561.6331, 2.422506
562.1152, 2.583150
562.5974, 2.530801
563.0795, 2.138413
563.5616, 1.492594
564.0437, 0.8779680
564.5258, 0.3247500
565.0079, 8.6133003E-02
565.4901, 0.3034020
565.9722, 0.3198560
566.4543, 9.8591000E-02
566.9364, 0.6373510
567.4185, 1.292856
567.9006, 1.609928
568.3828, 1.720655
568.8649, 1.906090
569.3470, 2.202396
569.8291, 2.223162
570.3112, 1.360279
570.7933, 0.5048090
571.2755, 1.166625
571.7576, 0.6080800
572.2397, 2.061209
572.7218, 2.420045
573.2039, 2.195622
573.6860, 1.914855
574.1682, 1.713730
574.6503, 1.522740
575.1324, 1.154692
575.6145, 0.7147960
576.0966, 0.7554420
576.5787, 1.425669
577.0609, 2.138695
577.5430, 2.611821
578.0251, 2.846022
578.5072, 2.876414
578.9893, 2.628012
579.4714, 2.251027
579.9536, 1.721922
580.4357, 1.239893
580.9178, 1.153885
581.3999, 1.464313
581.8820, 1.839764
582.3641, 2.037671
582.8463, 2.060504
583.3284, 2.024796
583.8105, 2.146457
584.2926, 2.007648
584.7747, 1.211568
585.2568, 0.4352660
585.7390, 0.3212740
586.2211, 0.7859800
586.7032, 1.168926
587.1853, 0.9134890
587.6674, 0.3049220
588.1495, 0.1326080
588.6317, 0.4373680
589.1138, 0.8644710
589.5959, 1.528167
590.0780, 2.038181
590.5601, 1.743816
591.0422, 0.6623580
591.5244, 8.0601998E-02
592.0065, 0.9197580
592.4886, 2.011154
592.9707, 2.306328
593.4528, 1.921872
593.9349, 1.343687
594.4171, 0.7615510
594.8992, 0.2706220
595.3813, 3.2421999E-02
595.8634, 6.2346000E-02
596.3455, 0.3210410
596.8276, 1.250114
597.3098, 1.914117
597.7919, 1.646278
598.2740, 0.9157960
598.7561, 0.6043220
599.2382, 1.089354
599.7203, 1.735056
600.2025, 1.584147
600.6846, 0.6643310
601.1667, 2.3852000E-02
601.6488, 0.2227810
602.1309, 0.1987710
602.6130, 0.2481010
603.0952, 0.8784050
603.5773, 1.149463
604.0594, 0.7286280
604.5415, 0.4456010
605.0236, 1.098653
605.5057, 2.014786
605.9879, 1.874001
606.4700, 0.5870520
606.9521, 0.4097410
607.4342, 0.1919900
607.9163, 2.094865
608.3984, 3.030656
608.8806, 2.034454
609.3627, 1.361394
609.8448, 1.427990
610.3269, 1.705994
610.8090, 1.849730
611.2911, 1.803143
611.7733, 1.607129
612.2554, 1.221702
612.7375, 0.7674460
613.2196, 0.4684400
613.7017, 0.3073450
614.1838, 0.5476480
614.6660, 1.601169
615.1481, 2.688220
615.6302, 2.776241
616.1123, 1.943442
616.5944, 1.233263
617.0765, 0.8052160
617.5587, 0.6200710
618.0408, 0.8241800
618.5229, 1.263323
619.0050, 1.570829
619.4871, 1.621808
619.9692, 1.651024
620.4514, 2.064481
620.9335, 3.020851
621.4156, 3.143267
621.8977, 1.305798
622.3798, 4.1320000E-02
622.8619, 0.1111180
623.3441, 0.5354160
623.8262, 1.456768
624.3083, 2.528868
624.7904, 3.283213
625.2725, 3.034697
625.7546, 2.180655
626.2367, 1.909723
626.7188, 2.353174
627.2009, 2.678360
627.6830, 2.411297
628.1652, 1.821049
628.6473, 1.481846
629.1294, 1.466721
629.6115, 1.502651
630.0936, 1.418041
630.5757, 1.319317
631.0579, 1.279200
631.5400, 1.291338
632.0221, 1.314137
632.5042, 1.326923
632.9863, 1.357197
633.4684, 1.527332
633.9506, 1.938246
634.4327, 1.966366
634.9148, 1.250895
635.3969, 0.5638890
635.8790, 0.2329010
636.3611, 0.1964570
636.8433, 0.3869990
637.3254, 0.8601090
637.8075, 1.379974
638.2896, 1.832716
638.7717, 2.046642
639.2538, 1.691160
639.7360, 0.7565690
640.2181, 2.6156999E-02
640.7002, 9.5287003E-02
641.1823, 0.7645110
641.6644, 1.223869
642.1465, 1.414772
642.6287, 1.454208
643.1108, 1.276796
643.5929, 1.007282
644.0750, 0.6372680
644.5571, 0.2469980
645.0392, 2.1756999E-02
645.5214, 0.1150210
646.0035, 3.7733000E-02
646.4856, 0.7338090
646.9677, 1.998814
647.4498, 2.869007
647.9319, 3.050915
648.4141, 2.881182
648.8962, 2.466969
649.3783, 1.877001
649.8604, 1.388361
650.3425, 1.000071
650.8246, 0.7437440
651.3068, 0.5910800
651.7889, 0.6002010
652.2710, 1.020651
652.7531, 1.767128
653.2352, 2.238747
653.7173, 1.913363
654.1995, 1.031832
654.6816, 0.6381000
655.1637, 1.013912
655.6458, 1.205425
656.1279, 0.8003250
656.6100, 0.3906730
657.0922, 0.2769280
657.5743, 0.4476070
658.0564, 0.8232650
658.5385, 1.578812
659.0206, 2.238890
659.5027, 2.160357
659.9849, 1.626770
660.4670, 1.454462
660.9491, 1.823168
661.4312, 2.308035
661.9133, 2.506207
662.3954, 2.451780
662.8776, 2.624355
663.3597, 3.593035
663.8418, 4.034643
664.3239, 3.405481
664.8060, 2.489510
665.2881, 1.904249
665.7703, 1.692097
666.2524, 1.755125
666.7345, 2.163940
667.2166, 2.610020
667.6987, 2.413687
668.1808, 1.596596
668.6630, 0.9526160
669.1451, 0.6427750
669.6272, 0.6225130
670.1093, 0.9831310
670.5914, 1.675322
671.0735, 2.067089
671.5557, 1.914179
672.0378, 1.746939
672.5199, 1.904938
673.0020, 2.035509
673.4841, 1.544071
673.9662, 0.5165900
674.4484, 0.2358550
674.9305, 3.3918001E-02
675.4126, 0.8248230
675.8947, 1.351427
676.3768, 1.480370
676.8589, 1.571863
677.3411, 1.758968
677.8232, 1.854885
678.3053, 1.614389
678.7874, 1.148867
679.2695, 0.8741250
679.7516, 1.024923
680.2338, 1.208712
680.7159, 1.166649
681.1980, 1.035574
681.6801, 1.109907
682.1622, 1.394997
682.6443, 1.502348
683.1265, 1.059017
683.6086, 0.2318380
684.0907, 0.1649990
684.5728, 4.2900001E-03
685.0549, 0.3371910
685.5370, 0.9049420
686.0192, 1.461231
686.5013, 1.844255
686.9834, 2.089457
687.4655, 2.362066
687.9476, 2.900774
688.4297, 3.158978
688.9119, 2.244654
689.3940, 0.7469650
689.8761, 0.1267760
690.3582, 0.6253970
690.8403, 1.432577
691.3224, 1.995186
691.8046, 2.292542
692.2867, 2.215757
692.7688, 1.379280
693.2509, 0.7860600
693.7330, 0.7264900
694.2151, 0.6772990
694.6973, 8.8581003E-02
695.1794, 0.7285830
695.6615, 0.9358210
696.1436, 4.9199998E-02
696.6257, 1.126143
697.1078, 1.834042
697.5900, 2.100031
698.0721, 1.844038
698.5542, 1.013159
699.0363, 0.4837210
699.5184, 1.037369
700.0005, 2.252104
700.4827, 2.623608
700.9648, 1.217819
701.4469, 0.4904040
701.9290, 1.153759
702.4111, 1.861334
702.8932, 1.813681
703.3754, 1.221500
703.8575, 0.4581810
704.3396, 0.3089900
704.8217, 0.6911620
705.3038, 0.1506840
705.7859, 1.852329
706.2681, 2.510130
706.7502, 1.828352
707.2323, 1.120514
707.7144, 1.099047
708.1965, 1.529350
708.6786, 1.933792
709.1607, 2.460657
709.6428, 2.535549
710.1249, 1.493397
710.6071, 0.6149710
711.0892, 0.8409140
711.5713, 1.670351
712.0534, 2.214205
712.5355, 2.173466
713.0176, 1.880964
713.4998, 1.659580
713.9819, 1.503246
714.4640, 1.374207
714.9461, 1.271509
715.4282, 1.203102
715.9103, 1.186134
716.3925, 1.192507
716.8746, 1.239990
717.3567, 1.331322
717.8388, 1.430601
718.3209, 1.480000
718.8030, 1.596382
719.2852, 1.950415
719.7673, 2.352150
720.2494, 2.547916
720.7315, 2.481207
721.2136, 2.261438
721.6957, 1.951164
722.1779, 1.584034
722.6600, 1.232222
723.1421, 0.8638550
723.6242, 0.8089830
724.1063, 1.321117
724.5884, 1.931334
725.0706, 2.166077
725.5527, 2.039959
726.0348, 1.739605
726.5169, 0.7744310
726.9990, 0.2512510
727.4811, 1.047529
727.9633, 2.151688
728.4454, 2.368904
728.9275, 1.716270
729.4096, 1.074715
729.8917, 1.041809
730.3738, 1.396603
730.8560, 1.699827
731.3381, 1.949432
731.8202, 2.197721
732.3023, 2.435530
732.7844, 2.705908
733.2665, 3.214247
733.7487, 3.742207
734.2308, 3.492727
734.7129, 1.706465
735.1950, 0.5862260
735.6771, 1.285503
736.1592, 2.212624
736.6414, 2.018545
737.1235, 0.9958210
737.6056, 0.1120780
738.0877, 0.2032490
738.5698, 0.1732650
739.0519, 7.1292996E-02
739.5341, 0.1036620
740.0162, 0.4434740
740.4983, 1.046412
740.9804, 1.330734
741.4625, 0.8244400
741.9446, 2.3310000E-02
742.4268, 0.3046650
742.9089, 6.5665998E-02
743.3910, 0.4471360
743.8731, 1.002832
744.3552, 1.327618
744.8373, 0.8531170
745.3195, 0.1925580
745.8016, 0.3358960
746.2837, 1.423824
746.7658, 2.572277
747.2479, 3.021925
747.7300, 2.932550
748.2122, 2.700768
748.6943, 2.323606
749.1764, 1.818047
749.6585, 1.108011
750.1406, 0.4760280
750.6227, 0.1590420
751.1049, 0.1674190
751.5870, 0.5925710
752.0691, 2.281708
752.5512, 3.209906
753.0333, 2.375387
753.5154, 1.100616
753.9976, 0.4698540
754.4797, 0.4186080
754.9618, 0.3770960
755.4439, 1.6317001E-02
755.9260, 0.2420200
756.4081, 0.8190630
756.8903, 2.696686
757.3724, 3.213955
757.8545, 2.036228
758.3366, 0.8096280
758.8187, 0.5890310
759.3008, 0.9359860
759.7830, 0.7095910
760.2651, 0.6649230
760.7472, 1.239733
761.2293, 0.4668660
761.7114, 0.4360200
762.1935, 1.175684
762.6757, 1.619186
763.1578, 1.521217
763.6399, 0.8034760
764.1220, 0.3221740
764.6041, 1.079706
765.0862, 2.242352
765.5684, 2.306059
766.0505, 1.510538
766.5326, 1.044315
767.0147, 1.294523
767.4968, 1.842138
767.9789, 2.253698
768.4611, 2.531883
768.9432, 2.683664
769.4253, 2.772001
769.9074, 2.619129
770.3895, 1.819363
770.8716, 1.112249
771.3538, 1.232561
771.8359, 1.881907
772.3180, 1.957897
772.8001, 0.5804820
773.2822, 0.3570000
773.7643, 1.238676
774.2465, 3.671970
774.7286, 4.309912
775.2107, 3.150803
775.6928, 1.708826
776.1749, 0.7871880
776.6570, 0.3763430
777.1392, 0.6028460
777.6213, 1.618801
778.1034, 2.118074
778.5855, 1.744833
779.0676, 1.539698
779.5497, 2.402617
780.0319, 3.409479
780.5140, 3.133703
780.9961, 1.426765
781.4782, 0.3611740
781.9603, 0.9976040
782.4424, 1.810814
782.9246, 1.911489
783.4067, 1.629778
783.8888, 1.496271
784.3709, 1.601490
784.8530, 1.684513
785.3351, 1.521694
785.8173, 1.218191
786.2994, 0.9413740
786.7815, 0.6913620
787.2636, 1.026777
787.7457, 2.335386
788.2278, 3.253225
788.7100, 2.430355
789.1921, 0.4593680
789.6742, 0.2546710
790.1563, 1.277340
790.6384, 2.182913
791.1205, 1.816378
791.6026, 1.286108
792.0847, 1.251997
792.5668, 1.470118
793.0490, 1.435400
793.5311, 1.003979
794.0132, 0.5305140
794.4953, 0.1999320
794.9774, 6.9567002E-02
795.4595, 0.3913120
795.9417, 1.049788
796.4238, 1.462181
796.9059, 1.431145
797.3880, 1.189007
797.8701, 0.9382710
798.3522, 0.6926420
798.8344, 0.7220480
799.3165, 1.198580
799.7986, 1.612410
800.2807, 1.962763
800.7628, 2.170519
801.2449, 2.005196
801.7271, 1.621769
802.2092, 1.456097
802.6913, 1.706116
803.1734, 1.939350
803.6555, 1.852230
804.1376, 1.695377
804.6198, 1.791029
805.1019, 2.063276
805.5840, 2.185041
806.0661, 2.019524
806.5482, 1.856491
807.0303, 2.177317
807.5125, 2.900478
807.9946, 3.210241
808.4767, 3.049179
808.9588, 2.786917
809.4409, 2.485340
809.9230, 2.235132
810.4052, 2.215380
810.8873, 2.421911
811.3694, 2.293718
811.8515, 1.246271
812.3336, 0.6617640
812.8157, 1.291071
813.2979, 2.086948
813.7800, 2.190681
814.2621, 1.740276
814.7442, 1.198277
815.2263, 0.6967410
815.7084, 0.5075740
816.1906, 1.256456
816.6727, 2.390316
817.1548, 2.502188
817.6369, 1.700247
818.1190, 1.591963
818.6011, 2.983660
819.0833, 4.664816
819.5654, 4.622648
820.0475, 2.745070
820.5296, 1.713875
821.0117, 2.081848
821.4938, 2.127712
821.9760, 0.6033080
822.4581, 0.6915570
822.9402, 0.2554910
823.4223, 2.862972
823.9044, 4.341843
824.3865, 3.430443
824.8687, 2.431355
825.3508, 2.361244
825.8329, 2.514238
826.3150, 2.174889
826.7971, 1.440533
827.2792, 0.6942860
827.7614, 9.7548999E-02
828.2435, 0.1356320
828.7256, 0.6028000
829.2077, 1.926403
829.6898, 2.173487
830.1719, 1.305117
830.6541, 0.6945300
831.1362, 0.8888110
831.6183, 1.343922
832.1004, 1.358961
832.5825, 0.9424150
833.0646, 0.6862740
833.5468, 0.4948640
834.0289, 0.6280170
834.5110, 1.456814
834.9931, 2.277979
835.4752, 2.706942
835.9573, 2.771496
836.4395, 2.562428
836.9216, 1.990889
837.4037, 1.526455
837.8858, 1.495121
838.3679, 1.631891
838.8500, 1.765720
839.3322, 1.815737
839.8143, 1.573368
840.2964, 0.9961190
840.7785, 0.4459920
841.2606, 0.3785440
841.7427, 0.6445240
842.2249, 0.5510980
842.7070, 6.6785999E-02
843.1891, 3.7698999E-02
843.6712, 0.7731420
844.1533, 1.685968
844.6354, 2.353704
845.1176, 2.763662
845.5997, 2.838354
846.0818, 2.191059
846.5639, 1.822069
847.0460, 1.804998
847.5281, 1.968494
848.0103, 2.389416
848.4924, 2.947037
848.9745, 3.393682
849.4566, 3.624275
849.9387, 3.701345
850.4208, 3.706928
850.9030, 3.595263
851.3851, 3.305725
851.8672, 2.853502
852.3493, 2.001604
852.8314, 0.8838580
853.3135, 0.5178780
853.7957, 1.844297
854.2778, 3.900827
854.7599, 4.397728
855.2420, 3.370461
855.7241, 2.443140
856.2062, 1.743862
856.6884, 1.380497
857.1705, 1.536489
857.6526, 1.898514
858.1347, 1.821606
858.6168, 1.075068
859.0989, 0.9420030
859.5811, 2.089119
860.0632, 2.973326
860.5453, 3.249722
861.0274, 3.108467
861.5095, 2.454599
861.9916, 1.499294
862.4738, 1.052919
862.9559, 1.641991
863.4380, 2.269855
863.9201, 2.082674
864.4022, 1.735485
864.8843, 2.221266
865.3665, 3.300095
865.8486, 3.999409
866.3307, 3.837626
866.8128, 3.350679
867.2949, 3.197651
867.7770, 3.245487
868.2592, 2.686340
868.7413, 1.503475
869.2234, 1.179846
869.7055, 2.315266
870.1876, 3.615368
870.6697, 3.872286
871.1519, 3.267422
871.6340, 2.692976
872.1161, 2.065708
872.5981, 1.668568
873.0803, 1.572563
873.5624, 1.654152
874.0445, 1.999306
874.5266, 2.430645
875.0087, 2.667648
875.4908, 2.659483
875.9730, 2.745117
876.4551, 3.234165
876.9372, 3.639143
877.4193, 3.676243
877.9014, 3.436262
878.3835, 2.939510
878.8657, 2.285074
879.3478, 1.727182
879.8299, 1.389450
880.3120, 1.310244
880.7941, 1.903091
881.2762, 2.814224
881.7584, 2.703510
882.2405, 1.584341
882.7226, 1.028923
883.2047, 1.792509
883.6868, 2.963156
884.1689, 3.293673
884.6511, 2.811693
885.1332, 2.342800
885.6153, 1.834272
886.0974, 1.530508
886.5795, 1.474337
887.0616, 1.717602
887.5438, 2.778711
888.0259, 4.143635
888.5080, 4.147549
888.9901, 1.850878
889.4722, 0.3649500
889.9543, 0.8219930
890.4365, 1.473907
890.9186, 1.265003
891.4007, 0.7065770
891.8828, 0.6900080
892.3649, 1.289980
892.8470, 1.817993
893.3292, 1.775814
893.8113, 1.636559
894.2934, 1.883678
894.7755, 2.336428
895.2576, 2.794254
895.7397, 3.155724
896.2219, 3.087805
896.7040, 2.403278
897.1861, 1.642069
897.6682, 1.821222
898.1503, 2.746319
898.6324, 2.674698
899.1146, 1.513672
899.5967, 0.7672140
900.0788, 1.004957
900.5609, 1.361971
901.0430, 0.9182380
901.5251, 1.107470
902.0073, 1.203184
902.4894, 0.6612740
902.9715, 1.205257
903.4536, 0.6952020
903.9357, 0.1418570
904.4178, 0.1229030
904.9000, 0.2614320
905.3821, 8.7878004E-02
905.8642, 1.016001
906.3463, 1.493072
906.8284, 0.9841820
907.3105, 0.3174100
907.7927, 0.2230050
908.2748, 0.6618200
908.7569, 0.9833220
909.2390, 1.240793
909.7211, 1.630662
910.2032, 2.293709
910.6854, 2.769230
911.1675, 2.400000
911.6496, 1.701122
912.1317, 1.505918
912.6138, 1.755175
913.0959, 2.210655
913.5781, 2.754027
914.0602, 2.923091
914.5423, 2.163876
915.0244, 0.9069680
915.5065, 0.5840220
915.9886, 1.205133
916.4708, 1.293156
916.9529, 0.5278630
917.4350, 4.2408001E-02
917.9171, 0.6038070
918.3992, 1.528166
918.8813, 1.549160
919.3635, 0.4839090
919.8456, 8.2216002E-02
920.3277, 3.6162000E-02
920.8098, 0.3251880
921.2919, 1.609510
921.7740, 2.585324
922.2562, 1.949284
922.7383, 0.3169840
923.2204, 0.4049330
923.7025, 0.3941130
924.1846, 1.092258
924.6667, 1.262396
925.1489, 1.257352
925.6310, 1.190640
926.1131, 1.136816
926.5952, 1.306342
927.0773, 1.656161
927.5594, 1.684902
928.0416, 0.7292150
928.5237, 3.9972998E-02
929.0058, 0.9551530
929.4879, 2.567308
929.9700, 2.880193
930.4521, 2.011375
930.9343, 1.048317
931.4164, 0.4703570
931.8985, 0.3314440
932.3806, 0.8662970
932.8627, 1.827396
933.3448, 2.396041
933.8270, 2.602163
934.3091, 2.810556
934.7912, 3.105396
935.2733, 3.241956
935.7554, 3.010479
936.2375, 2.595566
936.7197, 2.487103
937.2018, 2.794563
937.6839, 2.719937
938.1660, 1.986193
938.6481, 1.599141
939.1302, 2.155339
939.6124, 2.852997
940.0945, 2.766165
940.5766, 2.011210
941.0587, 1.689396
941.5408, 2.535041
942.0229, 2.672849
942.5051, 1.063192
942.9872, 0.2257440
943.4693, 0.2025930
943.9514, 1.357594
944.4335, 1.852652
944.9156, 1.529998
945.3978, 1.150472
945.8799, 1.010345
946.3620, 0.8325260
946.8441, 0.3252060
947.3262, 0.1717430
947.8083, 0.4275800
948.2905, 0.3447950
948.7726, 0.3173920
949.2547, 1.657047
949.7368, 2.937944
950.2189, 3.702227
950.7010, 3.940350
951.1832, 3.418169
951.6653, 2.409750
952.1474, 1.422618
952.6295, 0.6318330
953.1116, 0.3503380
953.5938, 0.8304360
954.0759, 1.558521
954.5580, 1.605265
955.0400, 1.122206
955.5222, 0.8820240
956.0043, 0.9131600
956.4864, 1.312424
956.9685, 2.185485
957.4506, 2.671012
957.9327, 1.772798
958.4149, 1.6780000E-02
958.8970, 0.4419060
959.3791, 0.8754650
959.8612, 1.600235
960.3433, 1.358789
960.8254, 1.118749
961.3076, 1.337193
961.7897, 1.688420
962.2718, 1.706167
962.7539, 1.382431
963.2360, 1.151561
963.7181, 0.8335710
964.2003, 0.7914270
964.6824, 1.520315
965.1645, 2.168802
965.6466, 2.181987
966.1287, 1.803017
966.6108, 1.420997
967.0930, 1.042870
967.5751, 0.9607660
968.0572, 1.647282
968.5393, 2.122688
969.0214, 1.811310
969.5035, 1.271882
969.9857, 0.8519040
970.4678, 0.6783310
970.9499, 1.018311
971.4320, 2.048378
971.9141, 2.850354
972.3962, 2.738029
972.8784, 2.312332
973.3605, 2.067904
973.8426, 1.886186
974.3247, 1.403216
974.8068, 0.7135170
975.2889, 0.4438370
975.7711, 1.012630
976.2532, 1.765538
976.7353, 1.883339
977.2174, 1.736543
977.6995, 2.175802
978.1816, 2.985068
978.6638, 3.148414
979.1459, 2.441866
979.6280, 1.667461
980.1101, 1.478109
980.5922, 1.610152
981.0743, 1.576430
981.5565, 1.424504
982.0386, 0.8850730
982.5207, 3.5668001E-02
983.0028, 0.6459960
983.4849, 0.6770740
983.9670, 0.2684160
984.4492, 0.5123410
984.9313, 1.520331
985.4134, 2.056567
985.8955, 2.072865
986.3776, 1.891619
986.8597, 1.465714
987.3419, 1.297066
987.8240, 1.756450
988.3061, 2.375829
988.7882, 2.481985
989.2703, 2.077285
989.7524, 1.639589
990.2346, 0.9268520
990.7167, 0.7518640
991.1988, 1.661000
991.6809, 2.489776
992.1630, 2.455366
992.6451, 1.991851
993.1273, 1.911083
993.6094, 2.302694
994.0915, 2.417739
994.5736, 2.097873
995.0557, 1.711722
995.5378, 0.9143700
996.0200, 0.5020220
996.5021, 1.460501
996.9842, 3.052886
997.4663, 3.770279
997.9484, 3.323030
998.4305, 2.681470
998.9127, 1.833140
999.3948, 1.153403
999.8769, 0.8342030
1000.359, 0.7381030
1000.841, 0.8253030
1001.323, 1.028716
1001.805, 0.9883540
1002.287, 0.5199250
1002.770, 0.4518800
1003.252, 1.866111
1003.734, 3.130163
1004.216, 2.743467
1004.698, 1.674385
1005.180, 1.277231
1005.662, 1.518382
1006.144, 1.465209
1006.627, 0.6732480
1007.109, 1.6470000E-02
1007.591, 0.3217950
1008.073, 0.9787090
1008.555, 1.045424
1009.037, 0.8161260
1009.519, 0.9976990
1010.001, 1.616872
1010.483, 2.078145
1010.966, 2.001661
1011.448, 1.901085
1011.930, 2.700459
1012.412, 3.743974
1012.894, 3.557074
1013.376, 2.458460
1013.858, 1.607408
1014.340, 1.276528
1014.823, 1.170469
1015.305, 1.093262
1015.787, 1.063356
1016.269, 1.218180
1016.751, 1.413359
1017.233, 1.040834
1017.715, 0.1525760
1018.197, 0.3266740
1018.679, 0.1178370
1019.162, 0.3251290
1019.644, 0.5839720
1020.126, 0.7871960
1020.608, 1.258703
1021.090, 1.941731
1021.572, 1.948385
1022.054, 1.202389
1022.536, 0.7792630
1023.018, 1.092689
1023.501, 1.385505
1023.983, 0.9022660
1024.465, 2.5148001E-02
1024.947, 6.2075999E-02
1025.429, 1.122202
1025.911, 1.796203
1026.393, 2.010117
1026.875, 1.956545
1027.358, 1.649107
1027.840, 1.229355
1028.322, 0.7456310
1028.804, 0.3375480
1029.286, 0.7150120
1029.768, 2.246529
1030.250, 3.010030
1030.732, 2.796526
1031.214, 2.236788
1031.697, 1.377535
1032.179, 0.5539060
1032.661, 8.7774999E-02
1033.143, 5.1036000E-02
1033.625, 2.4541000E-02
1034.107, 0.1014040
1034.589, 0.6027830
1035.071, 1.874099
1035.553, 2.806702
1036.036, 2.944372
1036.518, 2.648856
1037.000, 2.095451
1037.482, 1.361974
1037.964, 1.187074
1038.446, 2.053788
1038.928, 2.567717
1039.410, 2.616950
1039.893, 2.459929
1040.375, 1.835867
1040.857, 1.271927
1041.339, 1.588125
1041.821, 2.575827
1042.303, 2.913581
1042.785, 2.012918
1043.267, 1.501946
1043.750, 1.773569
1044.232, 2.036641
1044.714, 2.089535
1045.196, 1.949792
1045.678, 1.350534
1046.160, 0.5291710
1046.642, 0.5988910
1047.124, 2.354327
1047.606, 3.433527
1048.089, 2.942673
1048.571, 2.433255
1049.053, 2.672670
1049.535, 3.073792
1050.017, 3.136539
1050.499, 2.830881
1050.981, 2.109949
1051.463, 0.4922610
1051.945, 0.2463800
1052.428, 1.141938
1052.910, 2.428033
1053.392, 2.390584
1053.874, 1.937634
1054.356, 2.033200
1054.838, 2.560217
1055.320, 2.861816
1055.802, 2.813824
1056.285, 2.604124
1056.767, 2.032341
1057.249, 1.507912
1057.731, 1.172607
1058.213, 1.003621
1058.695, 1.066013
1059.177, 1.256820
1059.659, 1.286201
1060.141, 1.081105
1060.624, 0.8950370
1061.106, 0.8230690
1061.588, 0.8129300
1062.070, 0.8002040
1062.552, 0.8522880
1063.034, 1.082077
1063.516, 1.428645
1063.998, 1.793397
1064.480, 2.205549
1064.963, 2.322608
1065.445, 1.687625
1065.927, 1.225780
1066.409, 1.592360
1066.891, 2.192842
1067.373, 2.524571
1067.855, 2.577784
1068.337, 2.458424
1068.820, 2.183814
1069.302, 1.888062
1069.784, 1.466475
1070.266, 1.239125
1070.748, 1.474410
1071.230, 1.890672
1071.712, 2.471627
1072.194, 2.946391
1072.677, 2.649731
1073.159, 1.467427
1073.641, 0.7308590
1074.123, 1.643199
1074.605, 2.345373
1075.087, 1.597546
1075.569, 0.4998630
1076.051, 0.3165290
1076.533, 0.6159110
1077.016, 0.1501870
1077.498, 1.908548
1077.980, 2.792149
1078.462, 1.224288
1078.944, 0.2343130
1079.426, 0.2571400
1079.908, 0.2358840
1080.390, 0.6319620
1080.872, 0.9575730
1081.354, 1.396210
1081.837, 1.942201
1082.319, 2.372730
1082.801, 2.762727
1083.283, 2.718901
1083.765, 1.464811
1084.247, 0.3462310
1084.729, 0.6551970
1085.211, 1.524489
1085.694, 1.650331
1086.176, 1.052994
1086.658, 0.7378850
1087.140, 1.158729
1087.622, 1.568620
1088.104, 1.638988
1088.586, 1.616673
1089.068, 1.670377
1089.551, 1.709815
1090.033, 1.504302
1090.515, 1.178120
1090.997, 1.230997
1091.479, 1.925179
1091.961, 2.429805
1092.443, 2.537983
1092.925, 2.247280
1093.407, 1.081226
1093.890, 9.3778998E-02
1094.372, 0.4764880
1094.854, 0.1636420
1095.336, 0.5467990
1095.818, 1.664397
1096.300, 2.460696
1096.782, 2.644104
1097.264, 2.545042
1097.746, 2.098476
1098.229, 1.607791
1098.711, 1.221574
1099.193, 1.000007
1099.675, 1.042399
1100.157, 1.361799
1100.639, 1.728601
1101.121, 2.371951
1101.603, 2.645161
1102.086, 1.955448
1102.568, 1.292806
1103.050, 1.526642
1103.532, 2.020087
1104.014, 1.716681
1104.496, 0.6498320
1104.978, 1.2364000E-02
1105.460, 0.1975700
1105.943, 0.4950480
1106.425, 0.9235450
1106.907, 1.286321
1107.389, 1.413025
1107.871, 1.494418
1108.353, 1.892990
1108.835, 2.456011
1109.317, 2.374229
1109.799, 0.9613870
1110.281, 0.4451440
1110.764, 1.962990
1111.246, 3.067501
1111.728, 2.975302
1112.210, 2.293436
1112.692, 1.063540
1113.174, 0.3049480
1113.656, 0.6939580
1114.138, 0.1805520
1114.621, 0.7505280
1115.103, 0.8627930
1115.585, 0.9234950
1116.067, 1.117361
1116.549, 1.090126
1117.031, 0.3214920
1117.513, 0.5442530
1117.995, 0.3192060
1118.478, 1.014932
1118.960, 1.647212
1119.442, 1.251014
1119.924, 0.9368380
1120.406, 0.9374750
1120.888, 0.6789650
1121.370, 0.4318460
1121.852, 1.341122
1122.334, 0.6473220
1122.817, 1.263410
1123.299, 2.264241
1123.781, 2.191757
1124.263, 1.828206
1124.745, 1.044008
1125.227, 0.4887050
1125.709, 0.3324450
1126.191, 0.5801280
1126.673, 1.321553
1127.156, 2.320666
1127.638, 3.060022
1128.120, 3.544583
1128.602, 3.482821
1129.084, 2.829685
1129.566, 1.978528
1130.048, 0.9412430
1130.530, 0.4191270
1131.013, 0.8962660
1131.495, 1.684854
1131.977, 1.747449
1132.459, 1.246492
1132.941, 0.8651520
1133.423, 0.6257430
1133.905, 1.042404
1134.387, 2.127155
1134.870, 2.819265
1135.352, 2.637787
1135.834, 2.264502
1136.316, 2.370481
1136.798, 2.655989
1137.280, 2.545218
1137.762, 2.134699
1138.244, 1.618155
1138.726, 1.041828
1139.208, 0.4944070
1139.691, 2.4734000E-02
1140.173, 0.1894520
1140.655, 3.0263999E-02
1141.137, 0.3496470
1141.619, 1.022896
1142.101, 1.608313
1142.583, 1.089550
1143.065, 5.9006002E-02
1143.548, 0.1076600
1144.030, 0.5964920
1144.512, 1.475823
1144.994, 2.239721
1145.476, 2.704971
1145.958, 2.616443
1146.440, 2.304418
1146.922, 2.104644
1147.405, 1.876125
1147.887, 1.205510
1148.369, 0.4483590
1148.851, 0.5134170
1149.333, 1.403279
1149.815, 1.966740
1150.297, 1.575377
1150.779, 0.9979590
1151.261, 0.4564490
1151.744, 0.1379450
1152.226, 0.3538570
1152.708, 0.7692290
1153.190, 0.8005770
1153.672, 0.6101740
1154.154, 0.9533710
1154.636, 2.123414
1155.118, 2.940017
1155.600, 3.007814
1156.083, 2.734849
1156.565, 1.791267
1157.047, 1.036699
1157.529, 1.328473
1158.011, 2.067737
1158.493, 2.151050
1158.975, 1.545621
1159.457, 1.476439
1159.940, 2.745121
1160.422, 3.350830
1160.904, 2.689867
1161.386, 2.160767
1161.868, 2.446626
1162.350, 2.789763
1162.832, 2.346602
1163.314, 2.676449
1163.796, 2.817032
1164.279, 2.608589
1164.761, 2.637028
1165.243, 2.665328
1165.725, 2.229856
1166.207, 1.892279
1166.689, 1.566617
1167.171, 1.190083
1167.653, 0.8327060
1168.135, 0.5774450
1168.618, 0.4370730
1169.100, 0.4986480
1169.582, 0.7602640
1170.064, 1.191364
1170.546, 1.779072
1171.028, 1.992797
1171.510, 1.658194
1171.992, 1.139373
1172.474, 0.5695280
1172.957, 0.2278020
1173.439, 0.8488430
1173.921, 2.014095
1174.403, 2.461498
1174.885, 2.350327
1175.367, 2.201328
1175.849, 2.176522
1176.331, 2.302144
1176.814, 2.556002
1177.296, 2.708041
1177.778, 2.564585
1178.260, 2.201297
1178.742, 1.417313
1179.224, 0.6541340
1179.706, 0.7523260
1180.188, 1.366106
1180.671, 1.309796
1181.153, 0.5575960
1181.635, 0.5611600
1182.117, 2.330264
1182.599, 3.549882
1183.081, 2.392801
1183.563, 0.9864360
1184.045, 0.3772870
1184.527, 0.4158420
1185.010, 1.438591
1185.492, 2.782777
1185.974, 2.865979
1186.456, 1.382907
1186.938, 0.4516940
1187.420, 0.8122240
1187.902, 1.141294
1188.384, 1.158828
1188.866, 1.195700
1189.349, 1.331487
1189.831, 1.808867
1190.313, 2.826178
1190.795, 2.838750
1191.277, 2.823248
1191.759, 3.014496
1192.241, 2.435373
1192.723, 2.399480
1193.206, 2.596434
1193.688, 3.039643
1194.170, 3.403692
1194.652, 3.497049
1195.134, 3.412621
1195.616, 3.264168
1196.098, 3.067564
1196.580, 2.815078
1197.063, 2.545644
1197.545, 2.866528
1198.027, 3.682940
1198.509, 3.604872
1198.991, 2.315290
1199.473, 1.236412
1199.955, 1.371181
1200.437, 2.006385
1200.919, 2.272041
1201.401, 2.362254
1201.884, 2.777808
1202.366, 3.213252
1202.848, 2.840579
1203.330, 1.957707
1203.812, 1.811322
1204.294, 2.669670
1204.776, 3.152647
1205.258, 1.991379
1205.741, 1.160268
1206.223, 2.508919
1206.705, 4.045563
1207.187, 4.216728
1207.669, 3.693034
1208.151, 3.220995
1208.633, 2.905906
1209.115, 2.723241
1209.598, 2.675388
1210.080, 2.758149
1210.562, 3.033782
1211.044, 3.340559
1211.526, 3.731272
1212.008, 4.048177
1212.490, 4.328024
1212.972, 4.367960
1213.454, 3.796049
1213.937, 2.804852
1214.419, 2.324621
1214.901, 2.400646
1215.383, 2.866793
1215.865, 3.862433
1216.347, 4.333174
1216.829, 3.991060
1217.311, 3.548997
1217.793, 3.423209
1218.276, 3.099010
1218.758, 3.106972
1219.240, 2.701853
1219.722, 2.486670
1220.204, 2.403485
1220.686, 2.053518
1221.168, 1.629180
1221.650, 2.237470
1222.133, 3.887550
1222.615, 4.910076
1223.097, 4.313646
1223.579, 3.364061
1224.061, 3.126055
1224.543, 3.169912
1225.025, 3.091187
1225.507, 3.050978
1225.990, 3.409176
1226.472, 3.886889
1226.954, 3.847551
1227.436, 3.245814
1227.918, 2.757417
1228.400, 2.563401
1228.882, 2.471389
1229.364, 2.328838
1229.846, 2.422238
1230.328, 3.138757
1230.811, 3.852439
1231.293, 4.112015
1231.775, 4.037848
1232.257, 3.811484
1232.739, 3.435564
1233.221, 3.169228
1233.703, 3.061711
1234.185, 2.807431
1234.668, 2.333853
1235.150, 1.971522
1235.632, 1.811281
1236.114, 1.949208
1236.596, 2.489621
1237.078, 3.229373
1237.560, 3.930198
1238.042, 4.495632
1238.525, 4.695076
1239.007, 4.490172
1239.489, 3.344234
1239.971, 1.672683
1240.453, 1.280789
1240.935, 2.511771
1241.417, 3.473115
1241.899, 2.828724
1242.381, 2.161113
1242.864, 3.019994
1243.346, 4.064077
1243.828, 4.044174
1244.310, 3.696391
1244.792, 4.237209
1245.274, 5.049577
1245.756, 4.515050
1246.238, 2.410404
1246.720, 0.3796970
1247.203, 2.321351
1247.685, 3.254360
1248.167, 0.9758210
1248.649, 1.112732
1249.131, 1.987394
1249.613, 2.331244
1250.095, 2.548057
1250.577, 2.745264
1251.059, 3.173620
1251.542, 3.792325
1252.024, 4.073944
1252.506, 4.021802
1252.988, 4.015664
1253.470, 4.083517
1253.952, 4.032450
1254.434, 3.810314
1254.916, 3.539440
1255.399, 3.285225
1255.881, 3.208193
1256.363, 3.709071
1256.845, 4.338974
1257.327, 4.564329
1257.809, 4.391947
1258.291, 3.504229
1258.773, 2.363691
1259.255, 1.879159
1259.738, 2.217347
1260.220, 3.091385
1260.702, 4.808710
1261.184, 5.908609
1261.666, 5.726858
1262.148, 5.110546
1262.630, 3.612580
1263.112, 2.629966
1263.594, 3.807100
1264.077, 5.583824
1264.559, 5.446589
1265.041, 6.306152
1265.523, 6.382297
1266.005, 5.733809
1266.487, 4.510475
1266.969, 1.768189
1267.451, 0.9925400
1267.934, 2.873734
1268.416, 4.574656
1268.898, 4.508764
1269.380, 3.531743
1269.862, 2.364747
1270.344, 1.444097
1270.826, 1.902658
1271.308, 2.981571
1271.791, 3.135353
1272.273, 2.764685
1272.755, 3.170774
1273.237, 4.211995
1273.719, 4.473957
1274.201, 3.437454
1274.683, 2.333672
1275.165, 1.355222
1275.647, 0.9190860
1276.130, 1.882456
1276.612, 2.715307
1277.094, 2.309678
1277.576, 1.562016
1278.058, 1.460828
1278.540, 1.791368
1279.022, 1.962685
1279.504, 1.964145
1279.986, 2.016935
1280.469, 2.169560
1280.951, 2.050367
1281.433, 1.601551
1281.915, 1.010183
1282.397, 0.3400400
1282.879, 4.3239001E-02
1283.361, 0.1827570
1283.843, 0.6173650
1284.326, 0.4443640
1284.808, 0.0000000E+00
##END=



