##NAMES=Taneyamalite
##RRUFFID=R070705
##IDEAL CHEMISTRY=(Na,Ca)Mn^2+^_12_(Si,Al)_12_(O,OH)_44_
##LOCALITY=Taneyama mine, Kumamoto Prefecture, Kyushu Island, Japan
##OWNER=RRUFF
##SOURCE=Michael Scott
##DESCRIPTION=Contorted mats of black fibers
##STATUS=The identification of this mineral has been confirmed by X-ray diffraction.
##URL=rruff.info/R070705
143.1848, 0.0000000E+00
143.6669, 0.4396970
144.1490, 12.92383
144.6311, 41.40552
145.1133, 59.41211
145.5954, 63.44141
146.0775, 62.57764
146.5596, 52.52441
147.0417, 33.86572
147.5238, 32.00928
148.0060, 65.86963
148.4881, 103.4253
148.9702, 115.1484
149.4523, 69.58179
149.9344, 33.60718
150.4165, 21.79370
150.8987, 42.79419
151.3808, 58.92285
151.8629, 68.96118
152.3450, 74.72363
152.8271, 78.55225
153.3092, 78.93042
153.7914, 79.45190
154.2735, 78.54297
154.7556, 70.29419
155.2377, 70.10645
155.7198, 88.05518
156.2019, 116.4683
156.6841, 130.0071
157.1662, 113.0537
157.6483, 87.16846
158.1304, 64.79028
158.6125, 47.46777
159.0946, 34.92139
159.5768, 29.95386
160.0589, 32.27759
160.5410, 31.42651
161.0231, 18.95703
161.5052, 6.103271
161.9873, 3.755127
162.4695, 34.28149
162.9516, 59.50049
163.4337, 57.29590
163.9158, 22.12573
164.3979, 6.107422
164.8800, 3.794434
165.3622, 14.72314
165.8443, 28.20386
166.3264, 17.56128
166.8085, 5.315918
167.2906, 8.885010
167.7727, 38.09619
168.2549, 65.45215
168.7370, 70.45654
169.2191, 58.97583
169.7012, 47.97778
170.1833, 48.43530
170.6654, 57.37573
171.1476, 63.87817
171.6297, 65.54565
172.1118, 65.44873
172.5939, 60.61084
173.0760, 51.81812
173.5581, 47.05054
174.0403, 65.91895
174.5224, 89.14966
175.0045, 95.71826
175.4866, 61.26318
175.9687, 16.99341
176.4508, 1.554199
176.9330, 16.14819
177.4151, 40.94873
177.8972, 65.09131
178.3793, 88.77344
178.8614, 106.7776
179.3435, 99.53149
179.8257, 76.96899
180.3078, 55.83447
180.7899, 36.89844
181.2720, 26.25732
181.7541, 37.55737
182.2362, 66.79810
182.7184, 91.89648
183.2005, 100.1646
183.6826, 94.59375
184.1647, 81.54248
184.6468, 59.67358
185.1289, 35.84692
185.6111, 23.76025
186.0932, 23.89575
186.5753, 32.02637
187.0574, 53.40625
187.5395, 83.51904
188.0216, 98.25781
188.5037, 85.51025
188.9859, 56.65723
189.4680, 36.04956
189.9501, 23.89868
190.4322, 19.51172
190.9143, 24.80103
191.3964, 39.07593
191.8786, 54.93701
192.3607, 71.35815
192.8428, 86.84229
193.3249, 94.91870
193.8070, 94.84180
194.2891, 92.74707
194.7713, 100.0396
195.2534, 117.7190
195.7355, 124.6240
196.2176, 105.8496
196.6997, 63.34131
197.1818, 29.56128
197.6640, 4.269775
198.1461, 9.770020
198.6282, 5.674805
199.1103, 20.52661
199.5924, 44.09717
200.0745, 48.34790
200.5567, 31.84302
201.0388, 24.61865
201.5209, 29.47681
202.0030, 42.85425
202.4851, 56.45923
202.9672, 72.89795
203.4494, 79.89624
203.9315, 60.67090
204.4136, 8.018555
204.8957, 19.42163
205.3778, 6.175781
205.8599, 37.73584
206.3421, 61.51270
206.8242, 59.87207
207.3063, 50.99512
207.7884, 51.07520
208.2705, 62.67236
208.7526, 73.43579
209.2348, 82.82446
209.7169, 90.52246
210.1990, 86.24536
210.6811, 65.01660
211.1632, 39.60254
211.6453, 25.45044
212.1275, 27.50342
212.6096, 25.60205
213.0917, 11.16260
213.5738, 17.80664
214.0559, 33.90576
214.5380, 33.89038
215.0202, 24.57788
215.5023, 15.88208
215.9844, 8.258789
216.4665, 0.2009280
216.9486, 7.959229
217.4307, 14.87183
217.9129, 29.53784
218.3950, 59.08813
218.8771, 92.06812
219.3592, 101.8625
219.8413, 75.20361
220.3234, 50.17310
220.8056, 45.89917
221.2877, 73.20166
221.7698, 90.84497
222.2519, 94.65552
222.7340, 88.81299
223.2161, 87.44604
223.6983, 96.53345
224.1804, 100.4075
224.6625, 87.14966
225.1446, 43.60645
225.6267, 14.46875
226.1088, 4.027832
226.5910, 10.75928
227.0731, 27.64209
227.5552, 64.34277
228.0373, 99.10132
228.5194, 113.6475
229.0015, 97.04248
229.4836, 84.36572
229.9658, 83.82837
230.4479, 94.24097
230.9300, 89.47900
231.4121, 57.65454
231.8942, 23.58521
232.3763, 10.69067
232.8585, 30.15259
233.3406, 49.22852
233.8227, 61.58691
234.3048, 66.80005
234.7869, 73.33887
235.2690, 81.86572
235.7512, 91.11597
236.2333, 100.2729
236.7154, 111.4524
237.1975, 119.0046
237.6796, 123.6521
238.1617, 125.0767
238.6439, 115.1956
239.1260, 88.64697
239.6081, 56.45483
240.0902, 33.31738
240.5723, 20.73779
241.0544, 14.09204
241.5366, 11.34131
242.0187, 10.97119
242.5008, 21.90332
242.9829, 54.44409
243.4650, 92.72461
243.9471, 105.9851
244.4293, 74.99097
244.9114, 49.16577
245.3935, 49.08423
245.8756, 89.72119
246.3577, 111.6467
246.8398, 104.4297
247.3220, 82.19385
247.8041, 78.50635
248.2862, 108.6182
248.7683, 134.5530
249.2504, 137.4536
249.7325, 101.8669
250.2147, 81.70581
250.6968, 86.88574
251.1789, 105.7759
251.6610, 101.0005
252.1431, 51.60986
252.6252, 9.894775
253.1074, 5.874268
253.5895, 63.08325
254.0716, 99.90430
254.5537, 106.8586
255.0358, 91.13403
255.5179, 79.83276
256.0001, 73.70923
256.4822, 68.32251
256.9643, 59.11353
257.4464, 38.40894
257.9285, 32.41724
258.4106, 51.11670
258.8928, 87.10742
259.3749, 98.26514
259.8570, 69.92578
260.3391, 40.08545
260.8212, 38.11865
261.3033, 78.15527
261.7855, 105.4568
262.2676, 110.2478
262.7497, 94.87085
263.2318, 85.50488
263.7139, 85.74219
264.1960, 85.56665
264.6782, 75.96191
265.1603, 51.45972
265.6424, 34.57715
266.1245, 30.44507
266.6066, 37.33911
267.0887, 40.28467
267.5709, 36.86719
268.0530, 33.90161
268.5351, 39.15308
269.0172, 56.32837
269.4993, 67.35547
269.9814, 67.69434
270.4636, 58.52368
270.9457, 49.21411
271.4278, 35.38184
271.9099, 25.90112
272.3920, 35.78809
272.8741, 73.55078
273.3563, 93.13330
273.8384, 77.28198
274.3205, 30.85767
274.8026, 4.863281
275.2847, 2.303955
275.7668, 12.07275
276.2490, 26.95459
276.7311, 49.27368
277.2132, 59.99902
277.6953, 49.44214
278.1774, 20.72778
278.6595, 6.218994
279.1417, 8.714111
279.6238, 17.93286
280.1059, 23.78955
280.5880, 26.19385
281.0701, 26.19873
281.5522, 22.11792
282.0344, 15.32861
282.5165, 17.98853
282.9986, 32.90869
283.4807, 47.01782
283.9628, 41.87500
284.4449, 17.71191
284.9271, 2.335449
285.4092, 9.914795
285.8913, 7.116943
286.3734, 3.898926
286.8555, 0.1655270
287.3376, 3.492188
287.8198, 4.803467
288.3019, 4.088623
288.7840, 7.610596
289.2661, 20.72729
289.7482, 39.84253
290.2303, 50.66602
290.7124, 52.54419
291.1945, 51.78979
291.6767, 57.74976
292.1588, 68.88013
292.6409, 74.39185
293.1230, 69.19971
293.6051, 55.28687
294.0872, 34.57861
294.5694, 5.365723
295.0515, 18.42896
295.5336, 17.78979
296.0157, 2.606201
296.4978, 22.35254
296.9799, 31.79565
297.4621, 35.43408
297.9442, 43.99927
298.4263, 58.09155
298.9084, 71.00464
299.3905, 77.12036
299.8727, 76.84839
300.3548, 71.07227
300.8369, 50.85547
301.3190, 28.51709
301.8011, 26.72510
302.2832, 46.68677
302.7654, 68.57715
303.2475, 75.31763
303.7296, 70.96558
304.2117, 45.81201
304.6938, 68.24170
305.1759, 79.60303
305.6581, 80.48975
306.1402, 39.54126
306.6223, 52.61328
307.1044, 44.03394
307.5865, 34.56592
308.0686, 55.23560
308.5508, 20.36255
309.0329, 40.55029
309.5150, 38.75635
309.9971, 46.95386
310.4792, 33.05908
310.9613, 25.77173
311.4435, 40.74878
311.9256, 43.67529
312.4077, 27.63940
312.8898, 13.79468
313.3719, 4.809814
313.8540, 42.55908
314.3362, 80.95215
314.8183, 80.41162
315.3004, 59.66919
315.7825, 40.33911
316.2646, 29.98950
316.7467, 22.62451
317.2289, 13.91992
317.7110, 3.806152
318.1931, 0.1586910
318.6752, 15.58130
319.1573, 34.58472
319.6394, 23.32227
320.1216, 49.86694
320.6037, 65.35205
321.0858, 70.37012
321.5679, 33.55127
322.0500, 50.75342
322.5321, 46.30566
323.0143, 40.94482
323.4964, 65.65454
323.9785, 34.80640
324.4606, 59.04907
324.9427, 61.32544
325.4248, 73.64771
325.9070, 64.17407
326.3891, 61.45166
326.8712, 29.72925
327.3533, 9.427979
327.8354, 4.975098
328.3175, 7.844238
328.7997, 6.855713
329.2818, 37.42603
329.7639, 61.95093
330.2460, 83.15186
330.7281, 96.54297
331.2102, 98.43164
331.6924, 78.07886
332.1745, 63.18799
332.6566, 58.01782
333.1387, 60.96021
333.6208, 60.64771
334.1029, 55.95410
334.5851, 51.11304
335.0672, 47.51685
335.5493, 42.29590
336.0314, 43.96484
336.5135, 58.72803
336.9956, 81.38989
337.4778, 91.66406
337.9599, 85.79712
338.4420, 75.42798
338.9241, 65.65356
339.4062, 55.54443
339.8883, 51.77881
340.3705, 56.78735
340.8526, 67.06323
341.3347, 74.11157
341.8168, 77.72144
342.2989, 78.77783
342.7810, 75.51147
343.2632, 67.65039
343.7453, 44.40405
344.2274, 72.65820
344.7095, 89.11816
345.1916, 94.31006
345.6737, 54.31421
346.1559, 72.67700
346.6380, 67.66870
347.1201, 61.76489
347.6022, 88.47095
348.0843, 55.17944
348.5664, 81.37476
349.0486, 83.82495
349.5307, 97.14331
350.0128, 86.92871
350.4949, 83.98389
350.9770, 104.5791
351.4591, 112.1411
351.9413, 99.21924
352.4234, 113.1401
352.9055, 78.88550
353.3876, 73.72485
353.8697, 72.35815
354.3518, 73.40283
354.8340, 76.21240
355.3161, 80.46655
355.7982, 86.23950
356.2803, 92.41455
356.7624, 102.6594
357.2445, 112.0808
357.7267, 112.8467
358.2088, 89.09131
358.6909, 65.33911
359.1730, 63.44678
359.6551, 82.87036
360.1372, 95.09473
360.6194, 74.49292
361.1015, 43.41333
361.5836, 24.47681
362.0657, 36.93555
362.5478, 51.36694
363.0299, 54.14697
363.5121, 46.99194
363.9942, 46.46411
364.4763, 65.61865
364.9584, 88.49194
365.4405, 104.0554
365.9226, 110.8860
366.4048, 109.3757
366.8869, 92.97729
367.3690, 65.78687
367.8511, 48.11133
368.3332, 44.71021
368.8153, 49.19360
369.2975, 58.90088
369.7796, 82.01685
370.2617, 99.10205
370.7438, 111.8049
371.2259, 119.1143
371.7080, 112.8386
372.1902, 76.38477
372.6722, 47.70874
373.1544, 46.36426
373.6365, 92.84155
374.1186, 108.2944
374.6007, 78.87305
375.0828, 28.79980
375.5649, 3.593018
376.0471, 8.539063
376.5292, 23.08032
377.0113, 43.51807
377.4934, 71.17896
377.9755, 83.68237
378.4576, 77.17480
378.9398, 64.05054
379.4219, 62.74854
379.9040, 74.30322
380.3861, 80.14404
380.8682, 70.95874
381.3503, 50.69629
381.8325, 35.67041
382.3146, 25.68945
382.7967, 24.10376
383.2788, 42.55127
383.7609, 75.18481
384.2430, 95.73535
384.7252, 91.84570
385.2073, 74.71680
385.6894, 61.87598
386.1715, 53.22119
386.6536, 49.45874
387.1357, 55.77417
387.6179, 66.05859
388.1000, 69.33911
388.5821, 61.12329
389.0642, 48.31494
389.5463, 36.99170
390.0284, 26.67261
390.5106, 15.75562
390.9927, 1.056885
391.4748, 16.64990
391.9569, 25.21069
392.4390, 26.24609
392.9211, 18.92676
393.4033, 6.817627
393.8854, 40.80176
394.3675, 63.12256
394.8496, 59.35132
395.3317, 47.89795
395.8138, 36.47754
396.2960, 25.05908
396.7781, 15.69751
397.2602, 7.169678
397.7423, 2.049316
398.2244, 3.473633
398.7065, 20.44531
399.1887, 35.35303
399.6708, 43.56763
400.1529, 44.39478
400.6350, 45.45703
401.1171, 47.11353
401.5992, 48.80811
402.0814, 49.78418
402.5635, 48.09546
403.0456, 49.52954
403.5277, 56.63745
404.0098, 68.28149
404.4919, 76.30103
404.9741, 78.04272
405.4562, 75.60620
405.9383, 70.87793
406.4204, 63.39453
406.9025, 59.62817
407.3846, 62.44360
407.8668, 67.14380
408.3489, 58.83911
408.8310, 35.86377
409.3131, 18.72876
409.7952, 22.31396
410.2773, 43.33325
410.7595, 62.72485
411.2416, 80.30786
411.7237, 93.51318
412.2058, 99.02271
412.6879, 97.10303
413.1700, 89.81958
413.6522, 66.98999
414.1343, 42.04077
414.6164, 42.29639
415.0985, 69.11963
415.5806, 92.57080
416.0627, 78.92822
416.5449, 44.81519
417.0270, 19.45190
417.5091, 17.24902
417.9912, 24.96338
418.4733, 36.23706
418.9554, 49.81860
419.4376, 61.59985
419.9197, 72.00122
420.4018, 79.12183
420.8839, 80.49658
421.3660, 70.85352
421.8481, 61.64575
422.3303, 55.49976
422.8124, 51.93579
423.2945, 49.54395
423.7766, 50.66064
424.2587, 50.85474
424.7408, 46.27490
425.2230, 31.24072
425.7051, 25.15576
426.1872, 32.02539
426.6693, 46.11377
427.1514, 60.76758
427.6335, 82.73584
428.1157, 94.42676
428.5978, 87.68091
429.0799, 61.39062
429.5620, 47.67139
430.0441, 51.13623
430.5262, 59.88452
431.0084, 60.80835
431.4905, 51.27881
431.9726, 53.09619
432.4547, 75.78564
432.9368, 109.5117
433.4189, 121.1880
433.9011, 109.5183
434.3832, 92.80762
434.8653, 82.61499
435.3474, 77.78906
435.8295, 73.65991
436.3116, 70.34546
436.7938, 65.54004
437.2759, 50.79736
437.7580, 30.33057
438.2401, 19.81543
438.7222, 38.28613
439.2043, 66.18066
439.6865, 77.35693
440.1686, 69.05347
440.6507, 61.22949
441.1328, 72.51245
441.6149, 91.85400
442.0970, 104.4451
442.5792, 96.81543
443.0613, 88.37012
443.5434, 90.83374
444.0255, 102.7432
444.5076, 109.7192
444.9897, 104.4031
445.4719, 94.26855
445.9540, 84.04272
446.4361, 73.04199
446.9182, 63.86450
447.4003, 58.67993
447.8824, 55.85034
448.3646, 50.78296
448.8467, 40.11426
449.3288, 30.42725
449.8109, 24.28247
450.2930, 22.01294
450.7751, 26.47510
451.2573, 44.52075
451.7394, 61.98511
452.2215, 57.75684
452.7036, 24.73047
453.1857, 1.050537
453.6678, 0.8044430
454.1500, 14.99243
454.6321, 30.00122
455.1142, 45.03979
455.5963, 54.05322
456.0784, 46.61621
456.5605, 26.58862
457.0426, 15.59985
457.5247, 19.98169
458.0069, 29.77393
458.4890, 29.46069
458.9711, 21.35254
459.4532, 15.60620
459.9353, 25.48560
460.4174, 37.81421
460.8996, 32.22192
461.3817, 3.772461
461.8638, 20.27808
462.3459, 17.16357
462.8280, 0.8066410
463.3102, 16.50488
463.7923, 24.93628
464.2744, 28.64014
464.7565, 26.51514
465.2386, 19.14868
465.7207, 13.53931
466.2029, 12.24780
466.6850, 12.86108
467.1671, 13.88647
467.6492, 13.80151
468.1313, 16.12866
468.6134, 25.39160
469.0956, 36.86230
469.5777, 36.65430
470.0598, 13.26978
470.5419, 3.174561
471.0240, 3.075928
471.5061, 37.83374
471.9883, 47.73730
472.4704, 23.39917
472.9525, 9.763672
473.4346, 17.79126
473.9167, 0.7370610
474.3988, 13.94067
474.8810, 11.37695
475.3631, 0.6997070
475.8452, 3.609863
476.3273, 2.518799
476.8094, 7.894287
477.2915, 3.851074
477.7737, 5.261475
478.2558, 11.11865
478.7379, 12.48608
479.2200, 9.979980
479.7021, 0.3249510
480.1842, 13.03491
480.6664, 22.47388
481.1485, 24.51685
481.6306, 0.6875000
482.1127, 26.41577
482.5948, 41.23120
483.0769, 45.42041
483.5591, 7.771973
484.0412, 24.14453
484.5233, 18.86621
485.0054, 12.69922
485.4875, 36.67212
485.9696, 5.103516
486.4518, 28.59570
486.9339, 30.10669
487.4160, 41.67725
487.8981, 31.46289
488.3802, 27.97632
488.8623, 46.27832
489.3445, 52.51538
489.8266, 39.78979
490.3087, 51.99438
490.7908, 19.65649
491.2729, 26.40381
491.7550, 50.01440
492.2372, 38.38135
492.7193, 50.98169
493.2014, 54.35156
493.6835, 15.77686
494.1656, 50.14526
494.6477, 52.96851
495.1299, 23.40015
495.6120, 55.26782
496.0941, 30.32593
496.5762, 18.66699
497.0583, 10.99170
497.5404, 10.85767
498.0226, 12.00171
498.5047, 11.09766
498.9868, 10.48755
499.4689, 11.71851
499.9510, 14.74097
500.4331, 19.79980
500.9153, 30.15063
501.3974, 41.22900
501.8795, 49.13330
502.3616, 56.35107
502.8437, 56.54468
503.3258, 43.44360
503.8080, 0.6630860
504.2901, 27.70142
504.7722, 44.11230
505.2543, 49.20947
505.7364, 9.112061
506.2185, 27.37476
506.7007, 22.25000
507.1828, 16.16919
507.6649, 42.65454
508.1470, 9.146729
508.6291, 35.12793
509.1112, 37.36304
509.5934, 50.46729
510.0755, 40.03882
510.5576, 36.87817
511.0397, 56.97778
511.5218, 63.93506
512.0039, 50.79834
512.4860, 64.59424
512.9681, 38.89307
513.4503, 68.83325
513.9324, 97.38306
514.4145, 90.31714
514.8966, 63.03149
515.3787, 43.31567
515.8608, 54.76343
516.3430, 66.57520
516.8251, 59.41479
517.3072, 33.92676
517.7893, 13.34839
518.2714, 5.378418
518.7535, 3.439209
519.2357, 3.711670
519.7178, 7.898438
520.1999, 9.994385
520.6820, 7.243896
521.1641, 3.689941
521.6462, 10.15430
522.1284, 34.48535
522.6105, 51.64136
523.0926, 50.90161
523.5747, 33.17627
524.0568, 22.10083
524.5389, 17.35571
525.0211, 20.75659
525.5032, 42.36914
525.9853, 77.62671
526.4674, 93.10303
526.9495, 77.49756
527.4316, 49.66699
527.9138, 34.53125
528.3959, 29.77466
528.8780, 28.55542
529.3601, 27.55151
529.8422, 27.20972
530.3243, 29.54736
530.8065, 33.98120
531.2886, 34.39624
531.7707, 26.50879
532.2528, 14.93970
532.7349, 4.342285
533.2170, 9.726807
533.6992, 16.76318
534.1813, 8.509277
534.6634, 9.647461
535.1455, 19.68457
535.6276, 17.75122
536.1097, 11.14990
536.5919, 7.0799999E-03
537.0740, 17.75415
537.5561, 20.57300
538.0382, 2.050293
538.5203, 19.34595
539.0024, 21.75391
539.4846, 3.277344
539.9667, 6.105957
540.4488, 0.8640140
540.9309, 16.96167
541.4130, 30.34839
541.8951, 40.84204
542.3773, 44.59570
542.8594, 31.19360
543.3415, 12.80225
543.8236, 10.01074
544.3057, 25.42627
544.7878, 40.44409
545.2700, 39.90454
545.7521, 32.38599
546.2342, 27.79858
546.7163, 26.63916
547.1984, 31.74268
547.6805, 54.17432
548.1627, 85.51343
548.6448, 97.50073
549.1269, 63.49463
549.6090, 30.28882
550.0911, 14.77002
550.5732, 20.79736
551.0554, 27.71045
551.5375, 39.36548
552.0196, 47.15283
552.5017, 38.50342
552.9838, 9.179932
553.4659, 7.626953
553.9481, 2.785889
554.4302, 14.22339
554.9123, 22.60010
555.3944, 22.56567
555.8765, 18.16724
556.3586, 6.167480
556.8408, 6.983887
557.3229, 6.725586
557.8050, 8.209473
558.2871, 21.72925
558.7692, 14.64990
559.2513, 1.182373
559.7335, 0.1032710
560.2156, 26.67871
560.6977, 52.54004
561.1798, 67.54517
561.6619, 72.93237
562.1440, 73.06445
562.6262, 65.14990
563.1083, 54.83716
563.5904, 41.98853
564.0725, 24.78638
564.5546, 17.66699
565.0367, 21.40283
565.5189, 34.15015
566.0010, 60.49927
566.4831, 106.7478
566.9652, 126.0437
567.4473, 104.6304
567.9294, 65.37476
568.4116, 54.36084
568.8937, 69.24805
569.3758, 81.76392
569.8579, 74.83252
570.3400, 58.06934
570.8221, 48.75635
571.3043, 46.92578
571.7864, 43.42065
572.2685, 25.46631
572.7506, 5.606201
573.2327, 1.191406
573.7148, 17.46753
574.1970, 31.28662
574.6791, 18.66650
575.1612, 4.724609
575.6433, 10.95020
576.1254, 24.53345
576.6075, 55.51318
577.0897, 71.44263
577.5718, 72.80908
578.0539, 70.58472
578.5360, 61.58789
579.0181, 54.65308
579.5002, 58.08154
579.9824, 73.04932
580.4645, 79.01343
580.9466, 72.98926
581.4287, 63.28198
581.9108, 61.38452
582.3929, 66.04077
582.8751, 71.75952
583.3572, 80.59033
583.8393, 85.79858
584.3214, 72.53540
584.8035, 45.60669
585.2856, 27.53540
585.7678, 37.11621
586.2499, 55.87622
586.7320, 71.97778
587.2141, 84.68066
587.6962, 90.43750
588.1783, 83.98682
588.6605, 72.19336
589.1426, 61.72778
589.6247, 47.38428
590.1068, 43.22900
590.5889, 55.91235
591.0710, 78.05713
591.5532, 87.18994
592.0353, 80.19604
592.5174, 75.51343
592.9995, 86.79077
593.4816, 109.4900
593.9637, 105.3630
594.4459, 72.08765
594.9280, 35.74878
595.4101, 17.88428
595.8922, 16.50854
596.3743, 28.79053
596.8564, 61.39062
597.3386, 89.63892
597.8207, 85.25293
598.3028, 63.27319
598.7849, 50.92188
599.2670, 67.79248
599.7491, 86.88062
600.2313, 98.81006
600.7134, 103.3760
601.1955, 104.8945
601.6776, 106.2529
602.1597, 102.1758
602.6418, 86.80103
603.1240, 51.54907
603.6061, 37.44678
604.0882, 50.76489
604.5703, 74.60596
605.0524, 87.67920
605.5345, 90.09326
606.0167, 94.14600
606.4988, 106.2092
606.9809, 117.4397
607.4630, 107.9963
607.9451, 82.32202
608.4272, 60.55640
608.9094, 55.96777
609.3915, 60.10107
609.8736, 68.74463
610.3557, 81.88770
610.8378, 87.49292
611.3199, 69.37573
611.8021, 47.98608
612.2842, 39.25269
612.7663, 53.61035
613.2484, 69.43994
613.7305, 89.76709
614.2126, 109.3110
614.6948, 116.9238
615.1769, 106.0874
615.6590, 102.4268
616.1411, 116.0405
616.6232, 141.5693
617.1053, 153.3831
617.5875, 151.0244
618.0696, 143.3318
618.5517, 135.4795
619.0338, 126.9333
619.5159, 114.8191
619.9980, 98.27734
620.4802, 85.39819
620.9623, 86.84424
621.4444, 94.34985
621.9265, 96.91455
622.4086, 83.39771
622.8907, 74.72021
623.3729, 82.48462
623.8550, 100.2637
624.3371, 111.6409
624.8192, 109.9749
625.3013, 108.0215
625.7834, 111.0579
626.2656, 118.6375
626.7477, 113.3394
627.2298, 90.68628
627.7119, 67.22485
628.1940, 53.83472
628.6761, 50.13379
629.1583, 54.74536
629.6404, 69.87842
630.1225, 83.62305
630.6046, 77.04858
631.0867, 60.17432
631.5688, 56.04639
632.0510, 86.19336
632.5331, 115.0942
633.0152, 113.2419
633.4973, 89.38086
633.9794, 69.95654
634.4615, 65.80396
634.9437, 64.21411
635.4258, 59.23315
635.9079, 49.26245
636.3900, 45.05103
636.8721, 49.39648
637.3542, 55.83789
637.8364, 60.77271
638.3185, 64.50610
638.8006, 62.54321
639.2827, 51.75122
639.7648, 42.41553
640.2469, 57.78516
640.7291, 90.38867
641.2112, 101.3628
641.6933, 63.04102
642.1754, 14.81006
642.6575, 10.58179
643.1396, 39.25610
643.6218, 65.17041
644.1039, 71.45117
644.5860, 69.85986
645.0681, 65.26831
645.5502, 57.88916
646.0323, 52.04883
646.5145, 41.60083
646.9966, 38.53662
647.4787, 53.67749
647.9608, 104.4536
648.4429, 122.3127
648.9250, 95.54785
649.4072, 52.66968
649.8893, 31.96069
650.3714, 32.56592
650.8535, 38.81055
651.3356, 47.64795
651.8177, 58.58008
652.2999, 75.46216
652.7820, 95.18481
653.2641, 105.1482
653.7462, 88.92456
654.2283, 68.19019
654.7104, 59.21533
655.1926, 62.69971
655.6747, 66.08716
656.1568, 61.31909
656.6389, 58.38208
657.1210, 65.00635
657.6031, 89.54102
658.0853, 102.0381
658.5674, 97.91626
659.0495, 87.13403
659.5316, 83.41406
660.0137, 87.48901
660.4958, 89.38940
660.9779, 84.66602
661.4600, 80.73145
661.9421, 95.82056
662.4243, 125.0720
662.9064, 147.8191
663.3885, 146.1655
663.8706, 138.5161
664.3527, 146.1567
664.8348, 166.5286
665.3170, 175.4102
665.7991, 148.4739
666.2812, 118.0530
666.7633, 102.7878
667.2454, 109.2153
667.7275, 118.2705
668.2097, 136.4692
668.6918, 150.7400
669.1739, 143.8279
669.6560, 109.6965
670.1381, 96.03784
670.6202, 114.5566
671.1024, 144.0144
671.5845, 149.1411
672.0666, 133.1089
672.5487, 112.1936
673.0308, 86.41992
673.5129, 64.18018
673.9951, 55.20239
674.4772, 57.79028
674.9593, 64.81885
675.4414, 83.13232
675.9235, 96.54150
676.4056, 93.15967
676.8878, 68.93408
677.3699, 53.57520
677.8520, 52.85059
678.3341, 56.06958
678.8162, 57.41138
679.2983, 57.64014
679.7805, 50.64819
680.2626, 33.29102
680.7447, 16.14600
681.2268, 17.10327
681.7089, 31.73755
682.1910, 38.50781
682.6732, 28.25122
683.1553, 13.71558
683.6374, 6.426758
684.1195, 5.592529
684.6016, 8.867676
685.0837, 24.18799
685.5659, 34.93286
686.0480, 26.41602
686.5301, 0.9638670
687.0122, 4.793945
687.4943, 32.16479
687.9764, 63.09497
688.4586, 64.15894
688.9407, 31.94897
689.4228, 7.949463
689.9049, 7.208252
690.3870, 16.90283
690.8691, 24.49707
691.3513, 29.56250
691.8334, 30.57812
692.3155, 27.71875
692.7976, 19.13647
693.2797, 5.488525
693.7618, 35.10815
694.2440, 52.34863
694.7261, 40.09790
695.2082, 26.19434
695.6903, 16.98755
696.1724, 12.93066
696.6545, 16.96973
697.1367, 43.24805
697.6188, 55.30713
698.1009, 36.04590
698.5830, 7.539063
699.0651, 20.39868
699.5472, 2.002197
700.0294, 26.56470
700.5115, 29.45703
700.9936, 19.02759
701.4757, 18.99341
701.9578, 30.53296
702.4399, 42.19312
702.9221, 48.12280
703.4042, 48.11182
703.8863, 39.75928
704.3684, 14.68579
704.8505, 0.8298340
705.3326, 16.71436
705.8148, 42.87817
706.2969, 55.59302
706.7790, 47.96118
707.2611, 39.27612
707.7432, 28.71167
708.2253, 20.63379
708.7075, 29.68774
709.1896, 55.69946
709.6717, 73.00122
710.1538, 66.28174
710.6359, 49.82690
711.1180, 50.85889
711.6002, 65.62720
712.0823, 77.05859
712.5644, 71.01392
713.0465, 61.59717
713.5286, 61.17285
714.0107, 71.93872
714.4929, 71.51685
714.9750, 39.88452
715.4571, 10.21509
715.9392, 0.4223630
716.4213, 12.13672
716.9034, 31.28369
717.3856, 61.83862
717.8677, 88.00781
718.3498, 87.61914
718.8319, 65.39819
719.3140, 49.07007
719.7961, 43.44849
720.2783, 46.57861
720.7604, 62.02075
721.2425, 83.84448
721.7246, 101.1489
722.2067, 113.0535
722.6888, 116.7681
723.1710, 108.1206
723.6531, 90.22778
724.1352, 72.83545
724.6173, 50.80298
725.0994, 37.95947
725.5815, 40.99512
726.0637, 56.99927
726.5458, 64.62744
727.0279, 62.84595
727.5100, 62.27930
727.9921, 74.84863
728.4742, 92.16724
728.9564, 92.84399
729.4385, 76.61890
729.9206, 60.38745
730.4027, 53.86328
730.8848, 54.08325
731.3669, 60.32861
731.8491, 76.63916
732.3312, 86.37183
732.8133, 82.17896
733.2954, 72.83301
733.7775, 64.47168
734.2596, 55.88452
734.7418, 53.46826
735.2239, 60.24854
735.7060, 68.79858
736.1881, 64.97876
736.6702, 51.30664
737.1523, 41.83643
737.6345, 41.78418
738.1166, 46.32617
738.5987, 52.58032
739.0808, 59.21973
739.5629, 62.91504
740.0450, 60.34839
740.5272, 56.57275
741.0093, 52.94385
741.4914, 49.68726
741.9735, 48.00513
742.4556, 50.48511
742.9377, 48.80713
743.4199, 35.14453
743.9020, 12.65527
744.3841, 19.59521
744.8662, 57.77466
745.3483, 91.33740
745.8304, 85.88550
746.3126, 59.41040
746.7947, 38.01978
747.2768, 23.87500
747.7589, 17.13672
748.2410, 25.19189
748.7231, 36.50342
749.2053, 41.24536
749.6874, 32.82349
750.1695, 28.31372
750.6516, 30.06152
751.1337, 35.95190
751.6158, 42.96436
752.0980, 51.63599
752.5801, 56.73950
753.0622, 57.65063
753.5443, 54.44849
754.0264, 45.59375
754.5085, 32.66089
754.9907, 19.51294
755.4728, 2.427734
755.9549, 7.694824
756.4370, 1.790039
756.9191, 23.22681
757.4012, 40.99976
757.8834, 46.75146
758.3655, 50.46509
758.8476, 56.13208
759.3297, 62.09180
759.8118, 59.12280
760.2939, 45.20044
760.7761, 29.74292
761.2582, 15.83423
761.7403, 4.190674
762.2224, 0.9326170
762.7045, 0.3635250
763.1866, 0.4841310
763.6688, 3.566650
764.1509, 7.917236
764.6330, 7.592773
765.1151, 1.813721
765.5972, 2.670654
766.0793, 3.350342
766.5615, 6.035156
767.0436, 4.089111
767.5257, 32.45801
768.0078, 53.19678
768.4899, 66.49609
768.9720, 71.72119
769.4542, 65.77661
769.9363, 50.51196
770.4184, 32.43896
770.9005, 9.762939
771.3826, 2.418701
771.8647, 25.48096
772.3469, 67.61450
772.8290, 86.70312
773.3111, 49.92456
773.7932, 24.08691
774.2753, 39.63354
774.7574, 72.07349
775.2396, 86.48950
775.7217, 75.26782
776.2038, 59.43066
776.6859, 39.78540
777.1680, 20.67651
777.6501, 11.66040
778.1323, 12.02661
778.6144, 17.94092
779.0965, 32.29614
779.5786, 46.86938
780.0607, 52.35938
780.5428, 50.84302
781.0250, 48.67676
781.5071, 43.56787
781.9892, 40.88892
782.4713, 45.92749
782.9534, 56.74927
783.4355, 62.44238
783.9177, 62.36646
784.3998, 58.05298
784.8819, 47.21313
785.3640, 32.62646
785.8461, 29.62012
786.3282, 37.59375
786.8104, 44.81421
787.2925, 39.57861
787.7746, 31.77075
788.2567, 33.70117
788.7388, 46.06348
789.2209, 54.71973
789.7031, 48.00562
790.1852, 40.73315
790.6673, 42.70947
791.1494, 37.25610
791.6315, 64.20703
792.1136, 79.31567
792.5958, 82.78320
793.0779, 40.88574
793.5600, 57.28296
794.0421, 50.28540
794.5242, 42.32227
795.0063, 66.91187
795.4885, 31.49463
795.9706, 55.55469
796.4527, 55.86230
796.9348, 67.03125
797.4169, 54.66089
797.8990, 49.55200
798.3812, 67.97510
798.8633, 26.27856
799.3454, 4.842773
799.8275, 3.581787
800.3096, 4.520020
800.7917, 20.81689
801.2739, 36.71460
801.7560, 50.75610
802.2381, 58.60791
802.7202, 58.30273
803.2023, 52.69727
803.6844, 39.19141
804.1666, 23.37842
804.6487, 13.96826
805.1308, 22.62085
805.6129, 26.26880
806.0950, 16.72339
806.5771, 2.130127
807.0593, 8.9111000E-02
807.5414, 11.39160
808.0235, 27.59570
808.5056, 50.25684
808.9877, 70.77148
809.4698, 67.66309
809.9520, 47.02197
810.4341, 30.21631
810.9162, 30.94067
811.3983, 35.81543
811.8804, 39.11743
812.3625, 40.20728
812.8447, 37.00684
813.3268, 21.99390
813.8089, 11.52759
814.2910, 12.76880
814.7731, 22.82349
815.2552, 29.29980
815.7374, 32.07837
816.2195, 31.60986
816.7016, 23.05835
817.1837, 13.89575
817.6658, 22.60229
818.1479, 44.74438
818.6301, 56.84204
819.1122, 31.98877
819.5943, 6.946045
820.0764, 6.140381
820.5585, 31.34668
821.0406, 41.38843
821.5228, 28.84082
822.0049, 13.66797
822.4870, 3.265869
822.9691, 1.538818
823.4512, 7.378418
823.9333, 29.33325
824.4155, 48.79956
824.8976, 56.81714
825.3796, 55.94238
825.8618, 44.75732
826.3439, 23.14282
826.8260, 9.476074
827.3081, 16.66870
827.7902, 28.02905
828.2723, 35.19214
828.7545, 37.94531
829.2366, 34.29712
829.7187, 22.14307
830.2008, 14.40527
830.6829, 30.63086
831.1650, 59.23267
831.6472, 56.83618
832.1293, 20.49561
832.6114, 9.171875
833.0935, 9.372803
833.5756, 40.43970
834.0577, 52.86963
834.5399, 36.33569
835.0220, 23.60132
835.5041, 15.66870
835.9862, 14.19922
836.4683, 25.26221
836.9504, 51.19336
837.4326, 52.25098
837.9147, 23.54785
838.3968, 6.179932
838.8789, 4.563721
839.3610, 13.08447
839.8431, 20.50391
840.3253, 10.72070
840.8074, 6.635254
841.2895, 30.86597
841.7716, 57.84814
842.2537, 64.46313
842.7358, 39.18335
843.2180, 23.33496
843.7001, 19.83276
844.1822, 19.66724
844.6643, 12.51904
845.1464, 0.1303710
845.6285, 9.727295
846.1107, 16.55347
846.5928, 16.91846
847.0749, 1.285889
847.5570, 23.16479
848.0391, 30.43042
848.5212, 10.39307
849.0034, 3.220459
849.4855, 5.186279
849.9676, 0.1047360
850.4497, 10.02002
850.9318, 26.42969
851.4139, 35.71313
851.8961, 35.22168
852.3782, 33.80469
852.8603, 44.57202
853.3424, 60.85596
853.8245, 71.35571
854.3066, 73.97168
854.7888, 68.79468
855.2709, 48.34717
855.7530, 24.06641
856.2351, 8.080566
856.7172, 1.996338
857.1993, 1.267822
857.6815, 7.587891
858.1636, 16.49268
858.6457, 22.17969
859.1278, 24.84155
859.6099, 26.06934
860.0920, 25.89844
860.5742, 25.28906
861.0563, 26.09424
861.5384, 26.42480
862.0205, 23.73804
862.5026, 13.01587
862.9847, 7.875000
863.4669, 10.54980
863.9490, 17.44702
864.4311, 27.39941
864.9132, 41.23242
865.3953, 44.10059
865.8774, 32.02100
866.3596, 18.21606
866.8417, 20.88916
867.3238, 30.82446
867.8059, 31.43164
868.2880, 14.17334
868.7701, 1.592285
869.2523, 4.958740
869.7344, 15.56665
870.2165, 25.15601
870.6986, 35.61841
871.1807, 38.69287
871.6628, 32.13306
872.1450, 23.64331
872.6271, 22.30347
873.1092, 26.06396
873.5913, 28.44312
874.0734, 27.82520
874.5555, 28.62305
875.0377, 39.98389
875.5198, 50.97754
876.0019, 49.51978
876.4840, 17.47607
876.9661, 7.488525
877.4482, 31.82983
877.9304, 60.06104
878.4125, 60.91138
878.8946, 37.16309
879.3767, 22.87964
879.8588, 20.43701
880.3409, 23.04834
880.8231, 28.13550
881.3052, 35.00049
881.7873, 43.87842
882.2694, 58.45728
882.7515, 61.69629
883.2336, 38.79150
883.7158, 14.20312
884.1979, 4.496338
884.6800, 9.494629
885.1621, 24.74487
885.6442, 53.11060
886.1263, 76.38110
886.6085, 68.98877
887.0906, 47.18188
887.5727, 41.03516
888.0548, 55.91675
888.5369, 66.48291
889.0190, 56.13770
889.5012, 41.47290
889.9833, 33.67432
890.4654, 33.50415
890.9475, 32.81738
891.4296, 30.78442
891.9117, 28.40918
892.3939, 26.07739
892.8760, 23.69043
893.3581, 20.34888
893.8402, 16.07812
894.3223, 13.27637
894.8044, 13.23975
895.2866, 15.18774
895.7687, 18.62842
896.2508, 22.99316
896.7329, 29.92188
897.2150, 42.80664
897.6971, 52.03882
898.1793, 51.52295
898.6614, 42.81055
899.1435, 30.65894
899.6256, 15.68335
900.1077, 6.155762
900.5898, 10.82422
901.0720, 20.87598
901.5541, 30.36450
902.0362, 39.02002
902.5183, 47.17383
903.0004, 60.56250
903.4825, 63.21899
903.9647, 43.11719
904.4468, 7.985107
904.9289, 4.006836
905.4110, 28.61694
905.8931, 52.54590
906.3752, 58.36206
906.8574, 55.48853
907.3395, 50.63867
907.8216, 45.37256
908.3037, 43.53540
908.7858, 48.78223
909.2679, 54.76367
909.7501, 62.53613
910.2322, 69.38037
910.7143, 61.94043
911.1964, 40.01025
911.6785, 26.74780
912.1606, 37.38403
912.6428, 53.80322
913.1249, 50.73267
913.6070, 34.95215
914.0891, 21.89380
914.5712, 14.23145
915.0533, 13.90259
915.5355, 25.94775
916.0176, 43.26196
916.4997, 53.16479
916.9818, 55.41943
917.4639, 50.32056
917.9460, 35.54712
918.4282, 19.04932
918.9103, 6.135254
919.3924, 0.5183110
919.8745, 10.92065
920.3566, 60.70508
920.8387, 93.93604
921.3209, 81.69458
921.8030, 50.58838
922.2851, 27.80908
922.7672, 12.46973
923.2493, 12.89819
923.7314, 33.59497
924.2136, 57.03198
924.6957, 57.45312
925.1778, 46.27588
925.6599, 46.52051
926.1420, 67.03052
926.6241, 80.25439
927.1063, 62.33911
927.5884, 40.86279
928.0705, 40.50806
928.5526, 69.57788
929.0347, 82.76221
929.5168, 77.54980
929.9990, 66.44971
930.4811, 59.93018
930.9632, 55.43628
931.4453, 45.67065
931.9274, 30.27734
932.4095, 19.76196
932.8917, 29.00391
933.3738, 36.63867
933.8559, 25.32935
934.3380, 5.192627
934.8201, 17.28857
935.3022, 6.140381
935.7844, 4.825439
936.2665, 2.820801
936.7486, 18.42920
937.2307, 15.77808
937.7128, 2.494629
938.1949, 23.74536
938.6771, 50.23779
939.1592, 69.14355
939.6413, 72.83716
940.1234, 63.06079
940.6055, 42.70386
941.0876, 5.424805
941.5698, 16.99634
942.0519, 9.195801
942.5340, 11.78564
943.0161, 8.343750
943.4982, 10.14551
943.9803, 18.46338
944.4625, 6.989014
944.9446, 30.10059
945.4267, 34.86987
945.9088, 28.32983
946.3909, 22.82959
946.8730, 18.71045
947.3552, 14.60620
947.8373, 10.28003
948.3194, 6.022705
948.8015, 0.9729000
949.2836, 7.090088
949.7657, 2.762695
950.2479, 17.83545
950.7300, 36.42017
951.2121, 47.82031
951.6942, 51.37036
952.1763, 45.71948
952.6584, 26.22974
953.1406, 14.54785
953.6227, 11.38306
954.1048, 13.41870
954.5869, 19.72266
955.0690, 28.46606
955.5511, 37.75757
956.0333, 47.28369
956.5154, 51.39551
956.9975, 40.39771
957.4796, 29.54443
957.9617, 27.14722
958.4438, 32.85864
958.9260, 41.17456
959.4081, 52.78223
959.8902, 62.67212
960.3723, 68.88086
960.8544, 71.28906
961.3365, 69.07983
961.8187, 62.89209
962.3008, 54.83325
962.7829, 42.82788
963.2650, 32.59521
963.7471, 26.12109
964.2292, 22.64746
964.7114, 20.87085
965.1935, 20.96265
965.6756, 20.87939
966.1577, 19.63257
966.6398, 19.05542
967.1219, 24.50317
967.6041, 31.55933
968.0862, 32.16504
968.5683, 15.72437
969.0504, 6.810303
969.5325, 17.21460
970.0146, 31.40430
970.4968, 33.84106
970.9789, 23.79639
971.4610, 16.68335
971.9431, 13.36694
972.4252, 15.10449
972.9073, 28.97437
973.3895, 45.08545
973.8716, 50.44727
974.3537, 41.71265
974.8358, 38.40576
975.3179, 47.92017
975.8000, 58.63379
976.2822, 65.22241
976.7643, 68.26611
977.2464, 73.16016
977.7285, 79.67749
978.2106, 83.88452
978.6927, 80.50562
979.1749, 76.32642
979.6570, 80.20483
980.1391, 88.92993
980.6212, 88.72095
981.1033, 70.22949
981.5854, 56.07227
982.0676, 51.35596
982.5497, 52.54272
983.0318, 53.74780
983.5139, 54.52979
983.9960, 52.34131
984.4781, 44.48877
984.9603, 37.91113
985.4424, 35.74902
985.9245, 38.30103
986.4066, 47.18970
986.8887, 71.01221
987.3708, 79.61670
987.8530, 68.20972
988.3351, 53.09058
988.8172, 51.92017
989.2993, 59.19385
989.7814, 59.93188
990.2635, 52.81323
990.7456, 46.36304
991.2277, 39.25879
991.7098, 39.87207
992.1920, 60.42651
992.6741, 98.41919
993.1562, 103.6770
993.6383, 68.35449
994.1204, 44.23291
994.6025, 68.15039
995.0847, 109.5774
995.5668, 114.4436
996.0489, 92.07764
996.5310, 70.86230
997.0131, 59.39307
997.4952, 53.66504
997.9774, 55.85547
998.4595, 60.88501
998.9416, 58.54028
999.4237, 48.05103
999.9058, 43.41968
1000.388, 47.73682
1000.870, 55.52295
1001.352, 62.16992
1001.834, 68.22485
1002.316, 76.67285
1002.799, 90.71167
1003.281, 94.00610
1003.763, 77.39502
1004.245, 62.91162
1004.727, 70.72314
1005.209, 96.10254
1005.691, 103.5181
1006.173, 93.48315
1006.655, 82.21045
1007.138, 78.18018
1007.620, 78.55664
1008.102, 84.98022
1008.584, 95.07495
1009.066, 94.50903
1009.548, 79.27100
1010.030, 64.72046
1010.512, 53.54761
1010.995, 47.63159
1011.477, 54.40649
1011.959, 69.21069
1012.441, 79.88184
1012.923, 81.43359
1013.405, 76.08130
1013.887, 56.12012
1014.369, 36.23804
1014.851, 33.68140
1015.334, 52.27930
1015.816, 57.46680
1016.298, 46.35474
1016.780, 31.32812
1017.262, 17.55298
1017.744, 10.05542
1018.226, 20.86938
1018.708, 50.98096
1019.190, 64.43848
1019.673, 34.68188
1020.155, 15.08130
1020.637, 31.40845
1021.119, 70.40576
1021.601, 72.09229
1022.083, 42.30493
1022.565, 20.96851
1023.047, 37.02075
1023.530, 55.45679
1024.012, 49.01270
1024.494, 30.31201
1024.976, 23.65430
1025.458, 36.42798
1025.940, 44.37744
1026.422, 45.40503
1026.904, 42.66357
1027.386, 30.04736
1027.869, 15.34961
1028.351, 15.17529
1028.833, 33.41431
1029.315, 48.61670
1029.797, 40.55835
1030.279, 31.12817
1030.761, 31.00586
1031.243, 40.46826
1031.726, 55.91138
1032.208, 76.08057
1032.690, 89.43237
1033.172, 90.27856
1033.654, 81.02905
1034.136, 52.76587
1034.618, 16.70239
1035.100, 2.189453
1035.583, 38.21021
1036.065, 58.02710
1036.547, 50.15454
1037.029, 30.09985
1037.511, 15.42993
1037.993, 7.410645
1038.475, 14.10400
1038.957, 39.48560
1039.439, 61.38647
1039.922, 63.74341
1040.404, 59.84204
1040.886, 61.06104
1041.368, 68.29956
1041.850, 62.74683
1042.332, 42.36621
1042.814, 24.61328
1043.296, 20.81299
1043.778, 25.26050
1044.261, 33.37671
1044.743, 43.14868
1045.225, 48.51685
1045.707, 41.74707
1046.189, 38.96777
1046.671, 46.58350
1047.153, 54.90186
1047.635, 41.95630
1048.118, 13.48584
1048.600, 5.345215
1049.082, 27.25854
1049.564, 47.32471
1050.046, 36.49438
1050.528, 17.72925
1051.010, 12.00293
1051.492, 21.66162
1051.974, 25.30127
1052.457, 21.58350
1052.939, 17.64258
1053.421, 18.06812
1053.903, 20.61182
1054.385, 21.94092
1054.867, 22.09009
1055.349, 21.21045
1055.831, 8.920654
1056.313, 11.23706
1056.796, 43.07959
1057.278, 80.91260
1057.760, 83.64746
1058.242, 55.85889
1058.724, 34.84155
1059.206, 26.64233
1059.688, 26.80249
1060.170, 40.51074
1060.653, 55.00610
1061.135, 57.81592
1061.617, 46.93286
1062.099, 39.55371
1062.581, 36.29639
1063.063, 33.55322
1063.545, 27.44751
1064.027, 22.09570
1064.510, 30.12915
1064.992, 45.21094
1065.474, 50.08301
1065.956, 26.65405
1066.438, 7.841064
1066.920, 1.146484
1067.402, 3.205078
1067.884, 1.348633
1068.366, 11.15869
1068.849, 9.754150
1069.331, 6.304932
1069.813, 18.69971
1070.295, 11.11768
1070.777, 3.133301
1071.259, 15.87964
1071.741, 26.46167
1072.223, 30.44824
1072.705, 26.32007
1073.188, 23.02368
1073.670, 25.23071
1074.152, 29.68750
1074.634, 32.84253
1075.116, 34.07812
1075.598, 32.06909
1076.080, 16.21484
1076.562, 12.90186
1077.044, 33.17798
1077.527, 54.41455
1078.009, 46.98267
1078.491, 17.85962
1078.973, 6.350830
1079.455, 15.19800
1079.937, 29.26392
1080.419, 46.09375
1080.901, 58.05664
1081.384, 58.30103
1081.866, 49.40161
1082.348, 43.47046
1082.830, 41.49780
1083.312, 31.80151
1083.794, 3.387451
1084.276, 19.84546
1084.758, 9.595947
1085.240, 57.84009
1085.723, 71.45850
1086.205, 3.712646
1086.687, 27.20044
1087.169, 2.555420
1087.651, 28.79272
1088.133, 21.95850
1088.615, 8.569580
1089.097, 17.45093
1089.579, 5.491943
1090.062, 12.89331
1090.544, 45.92798
1091.026, 65.03955
1091.508, 50.07178
1091.990, 19.21802
1092.472, 16.18457
1092.954, 40.24023
1093.436, 51.65747
1093.919, 39.46509
1094.401, 23.69849
1094.883, 21.26221
1095.365, 25.52026
1095.847, 29.90698
1096.329, 33.45093
1096.811, 40.42554
1097.293, 53.11011
1097.776, 60.82617
1098.258, 52.78345
1098.740, 38.54541
1099.222, 42.24585
1099.704, 55.84741
1100.186, 58.84253
1100.668, 25.94458
1101.150, 7.520996
1101.632, 15.56274
1102.115, 33.60425
1102.597, 40.81177
1103.079, 38.77148
1103.561, 40.62231
1104.043, 47.89087
1104.525, 50.41382
1105.007, 30.68433
1105.489, 14.95630
1105.971, 23.27368
1106.454, 50.00854
1106.936, 65.81616
1107.418, 70.47534
1107.900, 70.84399
1108.382, 67.55029
1108.864, 64.51001
1109.346, 71.57520
1109.828, 79.07935
1110.311, 71.94263
1110.793, 35.87939
1111.275, 17.45190
1111.757, 20.98926
1112.239, 28.89844
1112.721, 26.12500
1113.203, 17.70752
1113.685, 14.63770
1114.167, 16.99658
1114.650, 23.65405
1115.132, 37.61230
1115.614, 51.94238
1116.096, 68.10059
1116.578, 80.76807
1117.060, 75.65527
1117.542, 58.09814
1118.024, 54.75171
1118.506, 71.50171
1118.989, 87.99731
1119.471, 98.65063
1119.953, 98.02368
1120.435, 77.45239
1120.917, 39.98071
1121.399, 26.36719
1121.881, 36.88794
1122.363, 46.80176
1122.846, 44.12256
1123.328, 37.86548
1123.810, 38.05249
1124.292, 39.76294
1124.774, 34.53442
1125.256, 13.63940
1125.738, 2.284668
1126.220, 1.838623
1126.703, 5.997314
1127.185, 7.895264
1127.667, 10.82007
1128.149, 26.41699
1128.631, 51.71826
1129.113, 65.99023
1129.595, 55.71875
1130.077, 45.28296
1130.559, 38.17529
1131.042, 34.19458
1131.524, 35.00684
1132.006, 38.54321
1132.488, 37.92188
1132.970, 30.86938
1133.452, 26.01074
1133.934, 23.72705
1134.416, 29.18018
1134.898, 50.64233
1135.381, 82.72729
1135.863, 84.25366
1136.345, 58.65869
1136.827, 34.74902
1137.309, 24.13379
1137.791, 21.28271
1138.273, 25.86255
1138.755, 34.77881
1139.238, 45.04297
1139.720, 58.84619
1140.202, 59.76270
1140.684, 46.25879
1141.166, 34.48462
1141.648, 40.70923
1142.130, 50.54126
1142.612, 56.67578
1143.094, 56.82837
1143.577, 47.81909
1144.059, 20.71362
1144.541, 13.10059
1145.023, 41.81641
1145.505, 76.74536
1145.987, 78.85449
1146.469, 60.21045
1146.951, 35.04370
1147.433, 4.213135
1147.916, 5.627441
1148.398, 17.16187
1148.880, 43.08984
1149.362, 63.74219
1149.844, 76.05786
1150.326, 64.35913
1150.808, 37.26660
1151.290, 18.66187
1151.773, 18.89722
1152.255, 25.35571
1152.737, 41.83228
1153.219, 55.56812
1153.701, 56.09058
1154.183, 44.25684
1154.665, 24.29468
1155.147, 2.183350
1155.630, 20.53491
1156.112, 18.99072
1156.594, 10.70728
1157.076, 3.119873
1157.558, 17.33228
1158.040, 23.57300
1158.522, 21.83203
1159.004, 14.31079
1159.486, 0.6450200
1159.969, 10.25439
1160.451, 9.477539
1160.933, 4.186279
1161.415, 0.6630860
1161.897, 4.835205
1162.379, 8.973633
1162.861, 12.92676
1163.343, 18.58545
1163.825, 27.84790
1164.308, 36.02051
1164.790, 35.67114
1165.272, 31.88965
1165.754, 31.11450
1166.236, 34.58936
1166.718, 40.85181
1167.200, 51.75488
1167.682, 57.35645
1168.165, 49.08057
1168.647, 33.44458
1169.129, 14.84326
1169.611, 2.100342
1170.093, 5.859863
1170.575, 20.29468
1171.057, 38.30835
1171.539, 46.34106
1172.021, 46.50000
1172.504, 36.31836
1172.986, 21.63867
1173.468, 15.45776
1173.950, 17.34717
1174.432, 17.70410
1174.914, 8.287109
1175.396, 4.069092
1175.878, 9.949951
1176.360, 19.82837
1176.843, 20.49805
1177.325, 16.62793
1177.807, 23.81299
1178.289, 46.84814
1178.771, 62.69458
1179.253, 52.74121
1179.735, 43.52515
1180.217, 50.93481
1180.700, 65.98291
1181.182, 45.65845
1181.664, 1.324707
1182.146, 13.67114
1182.628, 37.82544
1183.110, 81.40747
1183.592, 70.16577
1184.074, 46.79272
1184.557, 43.96631
1185.039, 60.61597
1185.521, 71.03125
1186.003, 75.10547
1186.485, 71.41431
1186.967, 48.73120
1187.449, 29.57495
1187.931, 30.76685
1188.413, 39.86108
1188.896, 38.24341
1189.378, 25.05273
1189.860, 19.78442
1190.342, 23.82397
1190.824, 32.27979
1191.306, 47.43652
1191.788, 60.04346
1192.270, 61.64453
1192.752, 55.32837
1193.235, 51.52710
1193.717, 50.61011
1194.199, 46.82080
1194.681, 38.24878
1195.163, 31.48804
1195.645, 34.34155
1196.127, 40.84717
1196.609, 46.28467
1197.092, 50.25244
1197.574, 51.91870
1198.056, 50.93213
1198.538, 50.60132
1199.020, 51.22217
1199.502, 55.34985
1199.984, 78.87207
1200.466, 102.0164
1200.948, 95.32666
1201.431, 47.00854
1201.913, 15.96460
1202.395, 3.554199
1202.877, 2.823486
1203.359, 18.88281
1203.841, 35.71387
1204.323, 29.78027
1204.805, 11.49487
1205.287, 3.341064
1205.770, 11.36182
1206.252, 20.79956
1206.734, 30.61011
1207.216, 40.88330
1207.698, 54.95312
1208.180, 67.26343
1208.662, 67.46338
1209.144, 58.58008
1209.627, 55.56982
1210.109, 63.87769
1210.591, 67.40674
1211.073, 63.49365
1211.555, 56.60059
1212.037, 52.57715
1212.519, 48.19067
1213.001, 34.78564
1213.484, 12.10034
1213.966, 3.483154
1214.448, 12.68823
1214.930, 32.94824
1215.412, 67.32251
1215.894, 99.01196
1216.376, 99.37622
1216.858, 82.26733
1217.340, 66.39233
1217.823, 54.50513
1218.305, 44.60571
1218.787, 34.71777
1219.269, 32.79126
1219.751, 47.53467
1220.233, 64.12915
1220.715, 47.67358
1221.197, 16.39038
1221.679, 4.478271
1222.162, 32.62793
1222.644, 46.85034
1223.126, 39.05225
1223.608, 32.37939
1224.090, 47.86621
1224.572, 69.27832
1225.054, 60.04468
1225.536, 32.69995
1226.019, 16.80347
1226.501, 37.68286
1226.983, 41.38330
1227.465, 17.94214
1227.947, 1.153076
1228.429, 22.85791
1228.911, 63.90356
1229.393, 75.16089
1229.875, 61.85645
1230.358, 51.04590
1230.840, 51.13965
1231.322, 52.04102
1231.804, 53.78101
1232.286, 53.38062
1232.768, 42.91943
1233.250, 30.24854
1233.732, 32.08618
1234.214, 47.67969
1234.697, 52.29614
1235.179, 37.34180
1235.661, 20.80225
1236.143, 3.790039
1236.625, 7.538574
1237.107, 1.360352
1237.589, 14.69897
1238.071, 30.07642
1238.553, 43.40479
1239.036, 50.61353
1239.518, 49.41992
1240.000, 47.37280
1240.482, 48.49902
1240.964, 49.10620
1241.446, 39.82593
1241.928, 28.42700
1242.410, 28.80688
1242.893, 48.56665
1243.375, 55.35767
1243.857, 40.79565
1244.339, 36.70581
1244.821, 65.77197
1245.303, 103.3733
1245.785, 112.2471
1246.267, 100.1047
1246.750, 76.83984
1247.232, 31.84155
1247.714, 12.53540
1248.196, 24.53638
1248.678, 41.20654
1249.160, 46.87598
1249.642, 45.77856
1250.124, 39.07715
1250.606, 31.14160
1251.089, 32.53442
1251.571, 53.52661
1252.053, 58.61475
1252.535, 43.26001
1253.017, 29.71924
1253.499, 40.98193
1253.981, 59.13867
1254.463, 69.56421
1254.945, 70.08008
1255.428, 52.76465
1255.910, 6.119629
1256.392, 11.98560
1256.874, 6.492432
1257.356, 30.86279
1257.838, 34.14844
1258.320, 29.75781
1258.802, 30.18359
1259.285, 34.33936
1259.767, 35.17261
1260.249, 32.69995
1260.731, 22.69800
1261.213, 2.197266
1261.695, 9.099121
1262.177, 20.42700
1262.659, 56.19775
1263.141, 68.96216
1263.624, 60.58179
1264.106, 45.19482
1264.588, 22.13501
1265.070, 5.017822
1265.552, 3.357178
1266.034, 4.747314
1266.516, 4.171143
1266.998, 15.30737
1267.480, 22.02881
1267.963, 25.17725
1268.445, 29.33838
1268.927, 34.95776
1269.409, 36.51904
1269.891, 31.78955
1270.373, 25.39429
1270.855, 19.19019
1271.337, 13.90405
1271.820, 8.646973
1272.302, 4.593506
1272.784, 11.97461
1273.266, 28.73511
1273.748, 42.07373
1274.230, 47.48291
1274.712, 48.09106
1275.194, 41.63818
1275.677, 34.24414
1276.159, 28.98682
1276.641, 26.04468
1277.123, 27.22803
1277.605, 31.86743
1278.087, 37.38110
1278.569, 41.73096
1279.051, 47.71582
1279.533, 54.77222
1280.016, 62.49414
1280.498, 72.59790
1280.980, 82.28735
1281.462, 82.15479
1281.944, 75.04150
1282.426, 72.58936
1282.908, 87.69727
1283.390, 94.34546
1283.872, 88.66992
1284.355, 78.46436
1284.837, 67.28564
1285.319, 58.04785
1285.801, 56.77197
1286.283, 62.67310
1286.765, 72.96167
1287.247, 95.01782
1287.729, 107.7185
1288.212, 110.4419
1288.694, 101.5901
1289.176, 66.90723
1289.658, 28.81201
1290.140, 16.78003
1290.622, 28.02051
1291.104, 49.20190
1291.586, 87.87305
1292.068, 101.5144
1292.551, 82.32129
1293.033, 58.41235
1293.515, 56.25024
1293.997, 61.78223
1294.479, 63.10498
1294.961, 60.24438
1295.443, 58.10913
1295.925, 57.76318
1296.407, 44.96582
1296.890, 16.07446
1297.372, 2.777588
1297.854, 21.20874
1298.336, 52.84985
1298.818, 35.48389
1299.300, 12.59937
1299.782, 0.0000000E+00
##END=



