##NAMES=Teineite
##RRUFFID=R100206
##IDEAL CHEMISTRY=Cu^2+^Te^4+^O_3_&#183;2H_2_O
##LOCALITY=Cole shaft, Bisbee, Cochise County, Arizona, USA
##OWNER=RRUFF
##SOURCE=Rob Lavinsky/Evan Jones
##DESCRIPTION=Blue prismatic, associated with graemite, R100207, and cuprite
##STATUS=The identification of this mineral has been confirmed by single-crystal X-ray diffraction.
##URL=rruff.info/R100206
176.9043, 0.0000000E+00
177.3864, 1.198416
177.8685, 3.873049
178.3506, 5.368862
178.8328, 5.360146
179.3149, 4.951952
179.7970, 4.105267
180.2791, 3.294609
180.7612, 2.754824
181.2433, 2.598808
181.7255, 2.822193
182.2076, 3.542854
182.6897, 5.384590
183.1718, 6.905128
183.6539, 6.403259
184.1360, 5.113354
184.6181, 3.849216
185.1003, 2.924185
185.5824, 2.327391
186.0645, 2.048782
186.5466, 3.087479
187.0287, 3.678349
187.5108, 2.803978
187.9930, 1.456726
188.4751, 0.2711730
188.9572, 0.2633530
189.4393, 0.1660140
189.9214, 0.2789630
190.4035, 2.279045
190.8857, 3.877340
191.3678, 4.576120
191.8499, 4.971663
192.3320, 4.759987
192.8141, 4.469036
193.2962, 4.182110
193.7784, 4.608912
194.2605, 7.446560
194.7426, 9.070305
195.2247, 7.104446
195.7068, 2.707071
196.1889, 0.7268330
196.6711, 0.9309950
197.1532, 1.473972
197.6353, 2.838736
198.1174, 2.430126
198.5995, 1.786274
199.0816, 1.912352
199.5638, 2.662632
200.0459, 2.954699
200.5280, 1.683205
201.0101, 0.3442230
201.4922, 0.8072140
201.9743, 1.508665
202.4565, 4.264143
202.9386, 5.504068
203.4207, 5.199095
203.9028, 4.418100
204.3849, 3.503336
204.8670, 2.521931
205.3492, 1.506788
205.8313, 0.2221160
206.3134, 0.7779820
206.7955, 0.4992530
207.2776, 1.420328
207.7597, 1.271761
208.2419, 2.512064
208.7240, 1.417402
209.2061, 0.7800330
209.6882, 0.9637890
210.1703, 1.751965
210.6524, 2.881836
211.1346, 4.540318
211.6167, 6.035448
212.0988, 7.262714
212.5809, 8.191914
213.0630, 8.748091
213.5451, 8.997925
214.0273, 8.821493
214.5094, 8.517126
214.9915, 7.616158
215.4736, 7.515230
215.9557, 9.009178
216.4378, 11.05326
216.9200, 12.63413
217.4021, 13.29089
217.8842, 13.29179
218.3663, 13.38580
218.8484, 13.87843
219.3305, 14.24378
219.8127, 13.70662
220.2948, 12.79346
220.7769, 12.11186
221.2590, 11.89541
221.7411, 11.96336
222.2232, 11.77245
222.7054, 10.68708
223.1875, 10.12485
223.6696, 10.65487
224.1517, 11.57579
224.6338, 12.09652
225.1159, 11.86699
225.5980, 11.06528
226.0802, 10.19438
226.5623, 8.532315
227.0444, 7.688209
227.5265, 8.608176
228.0086, 10.21592
228.4907, 11.23502
228.9729, 10.64953
229.4550, 9.064753
229.9371, 7.361649
230.4192, 4.513426
230.9013, 3.102281
231.3834, 4.850565
231.8656, 7.994257
232.3477, 9.874295
232.8298, 9.410907
233.3119, 7.512383
233.7940, 5.988919
234.2761, 4.739698
234.7583, 3.968513
235.2404, 4.113518
235.7225, 4.701525
236.2046, 4.801131
236.6867, 3.972994
237.1688, 2.886303
237.6510, 2.851012
238.1331, 4.007484
238.6152, 4.998273
239.0973, 5.347586
239.5794, 5.213523
240.0615, 4.833877
240.5437, 4.122129
241.0258, 3.495067
241.5079, 3.786766
241.9900, 5.037519
242.4721, 5.728655
242.9542, 4.435613
243.4364, 2.063787
243.9185, 0.9082720
244.4006, 1.687652
244.8827, 3.299357
245.3648, 5.034304
245.8469, 6.818394
246.3290, 7.724030
246.8112, 6.506550
247.2933, 3.991112
247.7754, 2.849383
248.2575, 4.222988
248.7396, 5.578640
249.2217, 4.151244
249.7039, 0.8512510
250.1860, 1.120821
250.6681, 1.380261
251.1502, 6.831502
251.6323, 9.333392
252.1144, 7.133215
252.5966, 4.324498
253.0787, 3.361623
253.5608, 3.698019
254.0429, 4.040462
254.5250, 3.542219
255.0071, 2.631592
255.4893, 2.719095
255.9714, 4.644491
256.4535, 6.213997
256.9356, 6.507545
257.4177, 5.855024
257.8998, 4.671434
258.3820, 2.836007
258.8641, 0.7628480
259.3462, 0.2932600
259.8283, 3.171035
260.3104, 4.910610
260.7925, 2.933718
261.2747, 0.5313060
261.7568, 2.454251
262.2389, 1.156632
262.7210, 2.263999
263.2031, 4.688105
263.6852, 5.906351
264.1674, 6.293283
264.6495, 5.442972
265.1316, 4.280363
265.6137, 3.882557
266.0958, 4.776217
266.5779, 6.242453
267.0601, 6.419279
267.5422, 4.028790
268.0243, 2.672607
268.5064, 3.340258
268.9885, 4.840443
269.4706, 6.323511
269.9528, 7.460267
270.4349, 8.117161
270.9170, 7.942398
271.3991, 6.353867
271.8812, 5.059868
272.3633, 4.020023
272.8455, 3.361154
273.3276, 3.382406
273.8097, 4.072601
274.2918, 4.922413
274.7739, 5.002084
275.2560, 3.288540
275.7382, 3.070831
276.2202, 5.852783
276.7024, 8.690385
277.1845, 9.822200
277.6666, 8.976154
278.1487, 6.841972
278.6308, 3.950274
279.1129, 0.5817570
279.5951, 2.640696
280.0772, 0.6869530
280.5593, 1.923182
281.0414, 3.783991
281.5235, 4.670238
282.0056, 4.798075
282.4878, 4.245328
282.9699, 2.798108
283.4520, 2.248534
283.9341, 3.499213
284.4162, 4.634866
284.8983, 4.903528
285.3805, 4.392876
285.8626, 3.414511
286.3447, 2.060980
286.8268, 0.3668670
287.3089, 0.2652420
287.7910, 3.799053
288.2732, 6.604670
288.7553, 6.970003
289.2374, 5.711858
289.7195, 4.451765
290.2016, 4.159815
290.6837, 4.672422
291.1659, 5.095461
291.6480, 5.736240
292.1301, 5.927635
292.6122, 4.923544
293.0943, 3.560840
293.5764, 3.224541
294.0586, 4.589237
294.5407, 6.812962
295.0228, 7.615265
295.5049, 5.217459
295.9870, 3.514753
296.4691, 3.013600
296.9513, 3.112806
297.4334, 3.306475
297.9155, 3.410244
298.3976, 3.274405
298.8797, 2.515189
299.3618, 0.4051740
299.8440, 0.7735260
300.3261, 4.491911
300.8082, 10.33171
301.2903, 12.20317
301.7724, 9.497682
302.2545, 5.283075
302.7367, 2.941449
303.2188, 2.915583
303.7009, 3.958138
304.1830, 8.106706
304.6651, 11.31474
305.1472, 9.925822
305.6294, 4.715181
306.1115, 0.5327020
306.5936, 1.952625
307.0757, 9.445688
307.5578, 13.27146
308.0399, 11.51377
308.5221, 8.736941
309.0042, 5.905758
309.4863, 3.485883
309.9684, 2.382664
310.4505, 3.311648
310.9326, 5.797733
311.4148, 6.904581
311.8969, 4.966230
312.3790, 3.801752
312.8611, 4.847722
313.3432, 7.166710
313.8253, 9.422695
314.3075, 11.05655
314.7896, 11.93214
315.2717, 11.63016
315.7538, 9.089712
316.2359, 6.892845
316.7180, 4.926610
317.2001, 3.537300
317.6823, 3.301538
318.1644, 4.354726
318.6465, 6.049793
319.1286, 7.520563
319.6107, 9.168704
320.0928, 9.185800
320.5750, 5.241425
321.0571, 1.226162
321.5392, 0.5333240
322.0213, 3.330441
322.5034, 7.169469
322.9855, 9.675048
323.4677, 10.68894
323.9498, 11.47007
324.4319, 12.48724
324.9140, 12.62585
325.3961, 10.88070
325.8782, 7.781117
326.3604, 4.795607
326.8425, 2.860044
327.3246, 1.984545
327.8067, 2.336411
328.2888, 5.708428
328.7709, 8.103986
329.2531, 7.575747
329.7352, 5.557857
330.2173, 4.408323
330.6994, 5.257311
331.1815, 7.512407
331.6636, 9.597487
332.1458, 12.13965
332.6279, 13.66673
333.1100, 13.74343
333.5921, 12.97356
334.0742, 11.60846
334.5563, 9.823029
335.0385, 8.290393
335.5206, 8.162223
336.0027, 10.69777
336.4848, 11.27483
336.9669, 8.006153
337.4490, 4.327628
337.9312, 2.543209
338.4133, 2.776204
338.8954, 4.413768
339.3775, 7.161337
339.8596, 11.25031
340.3417, 13.55422
340.8239, 13.59019
341.3060, 12.63141
341.7881, 10.39379
342.2702, 7.523297
342.7523, 5.131557
343.2344, 3.908927
343.7166, 3.713604
344.1987, 3.877804
344.6808, 5.024193
345.1629, 5.827402
345.6450, 5.712080
346.1271, 5.375615
346.6093, 5.778406
347.0914, 7.231102
347.5735, 9.010783
348.0556, 9.734538
348.5377, 9.022886
349.0198, 7.829086
349.5020, 5.120255
349.9841, 2.754173
350.4662, 2.294830
350.9483, 3.720645
351.4304, 5.721016
351.9125, 6.966946
352.3947, 7.434422
352.8768, 7.279751
353.3589, 6.015793
353.8410, 4.623167
354.3231, 3.180194
354.8052, 1.880535
355.2874, 0.9482490
355.7695, 0.4878720
356.2516, 0.5788850
356.7337, 1.837319
357.2158, 6.686839
357.6979, 9.229868
358.1800, 6.864365
358.6621, 2.525142
359.1443, 0.5096790
359.6264, 0.9975450
360.1085, 0.1016240
360.5906, 5.7744998E-02
361.0727, 1.636652
361.5548, 1.973905
362.0370, 3.105828
362.5191, 3.048122
363.0012, 5.206425
363.4833, 6.564139
363.9654, 7.175257
364.4475, 6.923859
364.9297, 5.781685
365.4118, 4.461990
365.8939, 2.567638
366.3760, 0.9474560
366.8581, 0.2206700
367.3402, -0.2634805
367.8224, 0.8100590
368.3045, 0.2350440
368.7866, 1.884583
369.2687, 2.984086
369.7508, 3.356434
370.2329, 3.543144
370.7151, 3.595837
371.1972, 3.633093
371.6793, 3.769090
372.1614, 4.036148
372.6435, 4.403908
373.1256, 4.984858
373.6078, 5.828147
374.0899, 6.151479
374.5720, 5.387347
375.0541, 4.385814
375.5362, 3.807208
376.0183, 3.630909
376.5005, 3.474372
376.9826, 2.740844
377.4647, 1.686618
377.9468, 1.648555
378.4289, 3.344601
378.9110, 4.925755
379.3932, 5.168262
379.8753, 4.428913
380.3574, 3.180531
380.8395, 0.8087440
381.3216, 1.307047
381.8037, 1.020999
382.2859, 1.804297
382.7680, 2.532620
383.2501, 3.303481
383.7322, 4.970412
384.2143, 5.607635
384.6964, 7.772802
385.1786, 9.214231
385.6607, 7.891818
386.1428, 4.831785
386.6249, 2.832539
387.1070, 2.708763
387.5891, 3.310766
388.0713, 3.311187
388.5534, 2.775317
389.0355, 2.518881
389.5176, 2.815113
389.9997, 3.397869
390.4818, 4.091794
390.9640, 4.868697
391.4461, 5.599037
391.9282, 6.321647
392.4103, 6.887475
392.8924, 6.673161
393.3745, 4.823475
393.8567, 3.198400
394.3388, 2.517358
394.8209, 2.586391
395.3030, 3.062048
395.7851, 3.836887
396.2672, 4.841930
396.7494, 6.036119
397.2315, 7.849383
397.7136, 8.736979
398.1957, 7.992831
398.6778, 6.732754
399.1599, 5.488547
399.6420, 4.518475
400.1241, 4.576155
400.6063, 6.672634
401.0884, 10.95704
401.5705, 12.29587
402.0526, 7.628495
402.5347, 3.839939
403.0168, 3.435743
403.4990, 5.220361
403.9811, 7.409091
404.4632, 9.164426
404.9453, 10.22125
405.4274, 9.777152
405.9095, 6.190196
406.3917, 3.889434
406.8738, 3.757365
407.3559, 4.273362
407.8380, 4.337412
408.3201, 3.843388
408.8022, 3.418517
409.2844, 3.810511
409.7665, 5.110091
410.2486, 5.713346
410.7307, 4.616765
411.2128, 3.902661
411.6949, 4.471141
412.1771, 5.775538
412.6592, 7.035941
413.1413, 7.962209
413.6234, 8.316044
414.1055, 7.293925
414.5876, 4.176375
415.0698, 1.870365
415.5519, 1.704761
416.0340, 2.172272
416.5161, 2.376514
416.9982, 2.147572
417.4803, 1.731315
417.9625, 0.9711250
418.4446, 3.8350001E-02
418.9267, 0.7634210
419.4088, 4.774326
419.8909, 8.071999
420.3730, 6.730190
420.8552, 2.732196
421.3373, 0.1251940
421.8194, 0.8783810
422.3015, 2.960515
422.7836, 4.005994
423.2657, 4.025176
423.7479, 4.057085
424.2300, 4.601350
424.7121, 5.262822
425.1942, 5.388581
425.6763, 4.902403
426.1584, 4.608163
426.6406, 4.811631
427.1227, 5.345346
427.6048, 6.157399
428.0869, 7.303221
428.5690, 7.914902
429.0511, 6.925883
429.5333, 4.340713
430.0154, 2.700961
430.4975, 2.567816
430.9796, 2.860002
431.4617, 3.331961
431.9438, 3.761665
432.4260, 3.550573
432.9081, 2.344873
433.3902, 0.6201270
433.8723, 0.5309930
434.3544, 1.394676
434.8365, 1.101637
435.3187, 1.919254
435.8008, 5.086696
436.2829, 5.876401
436.7650, 4.279270
437.2471, 2.427368
437.7292, 2.457014
438.2114, 1.415662
438.6935, 1.077666
439.1756, 1.657988
439.6577, 1.133761
440.1398, 3.159455
440.6219, 4.149628
441.1040, 3.228360
441.5862, 4.766278
442.0683, 3.797597
442.5504, 5.156295
443.0325, 3.048023
443.5146, 1.477654
443.9967, 0.8562820
444.4789, 0.7999480
444.9610, 1.521047
445.4431, 2.740440
445.9252, 3.624769
446.4073, 3.382073
446.8894, 2.352594
447.3716, 1.910590
447.8537, 2.322094
448.3358, 2.657543
448.8179, 2.087607
449.3000, 1.407679
449.7821, 1.754833
450.2643, 3.643378
450.7464, 5.219203
451.2285, 4.353558
451.7106, 1.601578
452.1927, 0.1656910
452.6748, 0.1634150
453.1570, 0.5041190
453.6391, 0.8541490
454.1212, 0.9472620
454.6033, 1.011182
455.0854, 1.191463
455.5675, 1.295708
456.0497, 1.004595
456.5318, 0.4084050
457.0139, 5.2788999E-02
457.4960, 0.2397490
457.9781, 0.8161120
458.4602, 1.369349
458.9424, 1.757969
459.4245, 2.407973
459.9066, 3.511144
460.3887, 4.844143
460.8708, 6.543756
461.3529, 8.455270
461.8351, 9.548790
462.3172, 8.634615
462.7993, 5.608615
463.2814, 4.034982
463.7635, 5.222460
464.2456, 6.251424
464.7278, 6.267569
465.2099, 5.730295
465.6920, 5.449322
466.1741, 5.718510
466.6562, 5.944782
467.1383, 4.878798
467.6205, 1.665615
468.1026, 0.1896240
468.5847, 0.4540600
469.0668, 1.570879
469.5489, 2.328512
470.0310, 2.810005
470.5132, 3.483977
470.9953, 4.756180
471.4774, 6.301059
471.9595, 7.370403
472.4416, 8.030310
472.9237, 7.952338
473.4059, 6.127957
473.8880, 4.192366
474.3701, 3.498805
474.8522, 4.389012
475.3343, 5.192533
475.8164, 4.214429
476.2986, 2.363697
476.7807, 2.425205
477.2628, 5.075571
477.7449, 7.401227
478.2270, 6.620583
478.7091, 3.628394
479.1913, 2.304180
479.6734, 4.188030
480.1555, 6.336131
480.6376, 7.440741
481.1197, 7.693651
481.6018, 7.309666
482.0839, 6.309944
482.5660, 5.283473
483.0482, 5.102155
483.5303, 6.109993
484.0124, 6.748340
484.4945, 6.572314
484.9766, 6.465952
485.4587, 7.264767
485.9409, 8.519978
486.4230, 9.042667
486.9051, 8.125175
487.3872, 6.306629
487.8693, 5.135482
488.3514, 4.761443
488.8336, 4.787544
489.3157, 5.021765
489.7978, 5.699375
490.2799, 7.550832
490.7620, 10.19208
491.2441, 11.99449
491.7263, 11.06627
492.2084, 8.194680
492.6905, 7.460961
493.1726, 9.720118
493.6547, 12.20955
494.1368, 14.81292
494.6190, 16.60293
495.1011, 15.88310
495.5832, 11.96680
496.0653, 8.694081
496.5474, 10.09822
497.0295, 14.50142
497.5117, 16.38586
497.9938, 14.43125
498.4759, 12.03045
498.9580, 12.47390
499.4401, 15.19968
499.9222, 16.16908
500.4044, 13.48863
500.8865, 10.69766
501.3686, 9.705086
501.8507, 9.902973
502.3328, 9.981350
502.8149, 9.490046
503.2971, 8.930751
503.7792, 9.045120
504.2613, 10.09555
504.7434, 10.90578
505.2255, 11.92945
505.7076, 12.30238
506.1898, 10.91427
506.6719, 8.634446
507.1540, 7.312589
507.6361, 7.957608
508.1182, 9.661646
508.6003, 10.31244
509.0825, 9.567630
509.5646, 8.684844
510.0467, 7.149734
510.5288, 6.042051
511.0109, 6.254731
511.4930, 7.496329
511.9752, 8.659365
512.4573, 9.122425
512.9394, 9.109250
513.4215, 9.107075
513.9036, 9.299102
514.3857, 9.089164
514.8679, 7.748345
515.3500, 6.259126
515.8321, 6.047274
516.3142, 7.309889
516.7963, 8.265387
517.2784, 7.876122
517.7606, 6.858011
518.2427, 6.163451
518.7248, 5.848689
519.2069, 5.797159
519.6890, 6.107236
520.1711, 6.618570
520.6533, 6.497419
521.1354, 4.743034
521.6175, 3.781472
522.0996, 4.698224
522.5817, 6.198548
523.0638, 7.119486
523.5460, 7.204833
524.0281, 6.610930
524.5102, 5.333279
524.9923, 3.417215
525.4744, 2.417070
525.9565, 2.833424
526.4387, 3.591172
526.9208, 4.875720
527.4029, 6.154290
527.8850, 6.936299
528.3671, 7.087611
528.8492, 6.676053
529.3314, 5.673340
529.8135, 4.120612
530.2956, 2.099410
530.7777, 1.231013
531.2598, 3.257547
531.7419, 1.015717
532.2241, 3.320709
532.7062, 6.326913
533.1883, 7.089365
533.6704, 7.024375
534.1525, 7.001051
534.6346, 6.887026
535.1168, 6.106519
535.5989, 4.437302
536.0810, 3.150921
536.5631, 3.843213
537.0452, 6.667194
537.5273, 7.802325
538.0095, 5.771711
538.4916, 3.751351
538.9737, 2.621336
539.4558, 2.331126
539.9379, 3.025593
540.4200, 4.656143
540.9022, 6.331995
541.3843, 6.728867
541.8664, 5.578318
542.3485, 4.663317
542.8306, 4.034233
543.3127, 3.614036
543.7948, 3.274316
544.2769, 3.161899
544.7590, 3.644158
545.2411, 4.940458
545.7233, 6.255523
546.2054, 6.295049
546.6875, 5.188847
547.1696, 5.009002
547.6517, 6.547260
548.1339, 8.150374
548.6160, 8.146068
549.0981, 7.063087
549.5802, 6.357890
550.0623, 6.871878
550.5444, 7.226274
551.0266, 6.228793
551.5087, 4.425265
551.9908, 2.963221
552.4729, 2.178823
552.9550, 2.136196
553.4371, 2.976605
553.9193, 4.944221
554.4014, 6.037212
554.8835, 5.841381
555.3656, 5.379327
555.8477, 4.603982
556.3298, 3.985735
556.8120, 4.496056
557.2941, 6.362127
557.7762, 8.262044
558.2583, 7.815417
558.7404, 4.462195
559.2225, 2.776434
559.7047, 4.357399
560.1868, 5.747711
560.6689, 4.537631
561.1510, 2.189462
561.6331, 1.483418
562.1152, 3.772070
562.5974, 6.441154
563.0795, 6.950358
563.5616, 5.807934
564.0437, 4.643456
564.5258, 3.615254
565.0079, 3.422326
565.4901, 5.294342
565.9722, 9.004965
566.4543, 10.50897
566.9364, 7.665362
567.4185, 5.083756
567.9006, 5.313055
568.3828, 6.568347
568.8649, 5.831242
569.3470, 2.523482
569.8291, 0.9447000
570.3112, 1.743955
570.7933, 0.2502710
571.2755, 2.675354
571.7576, 6.723127
572.2397, 9.665485
572.7218, 10.63924
573.2039, 10.33162
573.6860, 9.431488
574.1682, 8.120820
574.6503, 6.441210
575.1324, 3.471570
575.6145, 2.5269000E-02
576.0966, 1.6694000E-02
576.5787, 4.822714
577.0609, 9.317878
577.5430, 10.35836
578.0251, 8.877068
578.5072, 7.271120
578.9893, 5.334115
579.4714, 3.842937
579.9536, 2.850323
580.4357, 2.593174
580.9178, 3.838695
581.3999, 6.405337
581.8820, 8.666028
582.3641, 9.324215
582.8463, 8.668948
583.3284, 8.432766
583.8105, 9.819947
584.2926, 9.819442
584.7747, 6.790922
585.2568, 3.437325
585.7390, 1.915359
586.2211, 2.182848
586.7032, 2.738557
587.1853, 2.381736
587.6674, 1.642411
588.1495, 2.096339
588.6317, 3.897226
589.1138, 5.644026
589.5959, 7.701945
590.0780, 9.158111
590.5601, 8.745247
591.0422, 6.502131
591.5244, 4.792606
592.0065, 5.025373
592.4886, 5.559545
592.9707, 4.745589
593.4528, 2.908577
593.9349, 1.169671
594.4171, 3.2125000E-02
594.8992, 0.4301460
595.3813, 0.5929420
595.8634, 3.886559
596.3455, 6.083942
596.8276, 7.010905
597.3098, 7.196291
597.7919, 6.433213
598.2740, 5.192690
598.7561, 4.120633
599.2382, 3.469912
599.7203, 3.227700
600.2025, 3.584113
600.6846, 4.512586
601.1667, 4.863000
601.6488, 4.155597
602.1309, 3.594584
602.6130, 4.162127
603.0952, 5.448816
603.5773, 6.704430
604.0594, 7.999135
604.5415, 8.947336
605.0236, 9.483580
605.5057, 9.503745
605.9879, 8.526363
606.4700, 6.605215
606.9521, 4.914908
607.4342, 4.520020
607.9163, 5.191470
608.3984, 5.176082
608.8806, 3.951936
609.3627, 2.721435
609.8448, 1.107749
610.3269, 0.1201450
610.8090, 0.1376050
611.2911, 0.8982650
611.7733, 2.070958
612.2554, 2.990538
612.7375, 3.397558
613.2196, 2.391860
613.7017, 3.489405
614.1838, 2.494974
614.6660, 4.371741
615.1481, 5.161515
615.6302, 5.413089
616.1123, 1.301481
616.5944, 3.902766
617.0765, 2.200529
617.5587, 0.2266640
618.0408, 1.219864
618.5229, 1.057857
619.0050, 0.4664610
619.4871, 0.2901280
619.9692, 1.162511
620.4514, 2.069579
620.9335, 2.992901
621.4156, 4.128386
621.8977, 5.915050
622.3798, 7.387353
622.8619, 8.155248
623.3441, 8.550723
623.8262, 9.065933
624.3083, 9.797302
624.7904, 10.11036
625.2725, 9.169973
625.7546, 7.428423
626.2367, 6.126512
626.7188, 5.342987
627.2009, 4.787063
627.6830, 4.311603
628.1652, 3.842795
628.6473, 3.095109
629.1294, 1.405225
629.6115, 1.087171
630.0936, 4.020249
630.5757, 7.120198
631.0579, 7.952833
631.5400, 7.036974
632.0221, 6.265724
632.5042, 6.613583
632.9863, 7.289823
633.4684, 6.448508
633.9506, 3.478263
634.4327, 2.344292
634.9148, 4.655612
635.3969, 6.991815
635.8790, 7.436055
636.3611, 6.821768
636.8433, 6.674191
637.3254, 7.581842
637.8075, 8.319463
638.2896, 7.832918
638.7717, 6.604676
639.2538, 5.550390
639.7360, 4.797152
640.2181, 3.936382
640.7002, 2.521762
641.1823, 0.9104230
641.6644, 0.5629440
642.1465, 3.007769
642.6287, 4.696259
643.1108, 4.774905
643.5929, 4.611103
644.0750, 5.747557
644.5571, 7.666106
645.0392, 8.664471
645.5214, 7.682628
646.0035, 5.691757
646.4856, 4.030701
646.9677, 2.702796
647.4498, 2.464022
647.9319, 3.803787
648.4141, 5.529868
648.8962, 6.826448
649.3783, 7.718886
649.8604, 8.249305
650.3425, 8.322997
650.8246, 8.178436
651.3068, 8.022697
651.7889, 7.597546
652.2710, 6.271253
652.7531, 4.209911
653.2352, 2.714402
653.7173, 2.754044
654.1995, 3.988184
654.6816, 5.128129
655.1637, 6.397100
655.6458, 7.026314
656.1279, 5.936593
656.6100, 4.974017
657.0922, 5.470279
657.5743, 7.050600
658.0564, 8.289960
658.5385, 8.514046
659.0206, 8.369660
659.5027, 8.522822
659.9849, 8.802564
660.4670, 8.763868
660.9491, 8.308084
661.4312, 7.297373
661.9133, 5.266303
662.3954, 2.430596
662.8776, 1.891308
663.3597, 7.215500
663.8418, 10.15070
664.3239, 7.701485
664.8060, 4.232268
665.2881, 3.681622
665.7703, 5.714313
666.2524, 7.088544
666.7345, 5.435887
667.2166, 2.438195
667.6987, 1.210359
668.1808, 1.671784
668.6630, 2.244951
669.1451, 2.527925
669.6272, 3.017663
670.1093, 4.634742
670.5914, 7.156945
671.0735, 8.050076
671.5557, 5.684714
672.0378, 3.430002
672.5199, 2.155389
673.0020, 1.817003
673.4841, 2.935927
673.9662, 5.308210
674.4484, 7.382925
674.9305, 8.162671
675.4126, 7.811056
675.8947, 6.894165
676.3768, 5.306086
676.8589, 4.032964
677.3411, 3.211095
677.8232, 2.822774
678.3053, 3.004336
678.7874, 3.602685
679.2695, 4.074630
679.7516, 4.435122
680.2338, 4.464907
680.7159, 3.835234
681.1980, 2.867802
681.6801, 1.790856
682.1622, 0.7820590
682.6443, 0.6578180
683.1265, 2.283360
683.6086, 5.106122
684.0907, 6.358087
684.5728, 5.202196
685.0549, 4.302295
685.5370, 3.768216
686.0192, 3.808703
686.5013, 5.138519
686.9834, 7.173130
687.4655, 8.248591
687.9476, 7.374323
688.4297, 6.015850
688.9119, 5.651926
689.3940, 5.765071
689.8761, 4.877286
690.3582, 2.762936
690.8403, 1.024598
691.3224, 0.9801250
691.8046, 2.250598
692.2867, 3.028978
692.7688, 2.829777
693.2509, 2.915125
693.7330, 3.720266
694.2151, 4.450119
694.6973, 4.492439
695.1794, 4.083450
695.6615, 3.817245
696.1436, 3.901368
696.6257, 4.375832
697.1078, 5.874617
697.5900, 7.837633
698.0721, 8.164825
698.5542, 6.496199
699.0363, 4.012550
699.5184, 1.109770
700.0005, 1.723794
700.4827, 2.695124
700.9648, 0.1825400
701.4469, 1.583310
701.9290, 2.214551
702.4111, 2.402481
702.8932, 2.108860
703.3754, 1.776367
703.8575, 2.419108
704.3396, 4.597217
704.8217, 6.773877
705.3038, 6.558847
705.7859, 4.363061
706.2681, 3.194879
706.7502, 3.545813
707.2323, 3.580444
707.7144, 1.885475
708.1965, 0.4507510
708.6786, 0.8056530
709.1607, 1.497744
709.6428, 3.668417
710.1249, 6.514807
710.6071, 8.206448
711.0892, 6.589720
711.5713, 3.439600
712.0534, 1.822035
712.5355, 2.829359
713.0176, 4.674191
713.4998, 5.764589
713.9819, 6.231556
714.4640, 6.820660
714.9461, 7.567225
715.4282, 8.225384
715.9103, 8.610565
716.3925, 8.935972
716.8746, 9.636926
717.3567, 10.80351
717.8388, 11.51952
718.3209, 10.76917
718.8030, 10.57673
719.2852, 12.47028
719.7673, 15.24082
720.2494, 17.41056
720.7315, 18.54518
721.2136, 18.77409
721.6957, 17.98636
722.1779, 16.49121
722.6600, 15.21661
723.1421, 14.06938
723.6242, 13.95861
724.1063, 15.43904
724.5884, 17.59531
725.0706, 19.82795
725.5527, 22.06283
726.0348, 23.07940
726.5169, 21.42788
726.9990, 20.26170
727.4811, 21.30648
727.9633, 22.94357
728.4454, 23.34017
728.9275, 22.45967
729.4096, 21.43669
729.8917, 20.98941
730.3738, 21.02223
730.8560, 21.52672
731.3381, 22.52860
731.8202, 22.93952
732.3023, 22.36722
732.7844, 21.74506
733.2665, 22.17687
733.7487, 23.06754
734.2308, 22.13068
734.7129, 17.62523
735.1950, 14.60691
735.6771, 15.02938
736.1592, 16.51511
736.6414, 17.58109
737.1235, 18.07721
737.6056, 18.25806
738.0877, 18.24664
738.5698, 17.74770
739.0519, 16.01170
739.5341, 13.24296
740.0162, 11.29160
740.4983, 10.33152
740.9804, 9.843535
741.4625, 9.693501
741.9446, 9.775276
742.4268, 10.06190
742.9089, 10.78339
743.3910, 10.56280
743.8731, 8.275604
744.3552, 6.118403
744.8373, 4.796716
745.3195, 4.422388
745.8016, 5.590057
746.2837, 8.065232
746.7658, 10.15713
747.2479, 10.01243
747.7300, 8.498892
748.2122, 8.087088
748.6943, 8.796815
749.1764, 9.295221
749.6585, 9.227944
750.1406, 8.696245
750.6227, 7.697937
751.1049, 6.256468
751.5870, 5.092213
752.0691, 4.058054
752.5512, 3.489166
753.0333, 3.817754
753.5154, 4.295299
753.9976, 4.041699
754.4797, 3.335513
754.9618, 3.423972
755.4439, 5.011328
755.9260, 6.762045
756.4081, 6.921779
756.8903, 5.756176
757.3724, 4.056402
757.8545, 1.786427
758.3366, 0.2769360
758.8187, 0.7037440
759.3008, 2.236189
759.7830, 3.113029
760.2651, 3.373727
760.7472, 2.837838
761.2293, 3.494449
761.7114, 1.342374
762.1935, 3.013296
762.6757, 3.638533
763.1578, 1.518314
763.6399, 3.551322
764.1220, 3.173994
764.6041, 3.503711
765.0862, 4.775090
765.5684, 4.927494
766.0505, 7.138649
766.5326, 8.436865
767.0147, 7.891982
767.4968, 6.598730
767.9789, 5.839808
768.4611, 5.552248
768.9432, 4.258498
769.4253, 5.8364000E-02
769.9074, 1.862257
770.3895, 1.112892
770.8716, 4.908642
771.3538, 7.133477
771.8359, 7.880087
772.3180, 7.940702
772.8001, 7.285782
773.2822, 6.579510
773.7643, 6.294203
774.2465, 6.229616
774.7286, 6.323770
775.2107, 6.407784
775.6928, 5.720237
776.1749, 3.766668
776.6570, 1.417307
777.1392, 0.4499510
777.6213, 1.155191
778.1034, 1.694331
778.5855, 1.750970
779.0676, 1.874507
779.5497, 2.198215
780.0319, 2.732533
780.5140, 3.543710
780.9961, 4.659826
781.4782, 5.694201
781.9603, 6.870422
782.4424, 7.602560
782.9246, 7.552192
783.4067, 6.878935
783.8888, 5.377373
784.3709, 3.283149
784.8530, 1.601541
785.3351, 1.232361
785.8173, 1.672435
786.2994, 1.539554
786.7815, 0.8316680
787.2636, 0.9390980
787.7457, 2.288738
788.2278, 3.932014
788.7100, 5.263968
789.1921, 6.288790
789.6742, 6.995487
790.1563, 7.418579
790.6384, 7.482959
791.1205, 7.313966
791.6026, 6.654434
792.0847, 4.768463
792.5668, 2.498720
793.0490, 1.298025
793.5311, 1.581187
794.0132, 2.173116
794.4953, 1.946948
794.9774, 1.473023
795.4595, 1.994473
795.9417, 3.314603
796.4238, 4.079454
796.9059, 3.823176
797.3880, 3.261323
797.8701, 3.121288
798.3522, 3.404340
798.8344, 4.268837
799.3165, 6.942821
799.7986, 7.836125
800.2807, 4.104452
800.7628, 0.4720990
801.2449, 0.4348670
801.7271, 2.716364
802.2092, 3.533467
802.6913, 1.221196
803.1734, 0.6541110
803.6555, 0.3507700
804.1376, 2.278861
804.6198, 3.241344
805.1019, 3.190959
805.5840, 2.424852
806.0661, 1.095135
806.5482, 0.1094350
807.0303, 9.4080999E-02
807.5125, 0.9757050
807.9946, 1.524466
808.4767, 1.499258
808.9588, 1.188202
809.4409, 0.4192700
809.9230, 0.1433660
810.4052, 0.5906230
810.8873, 0.3975650
811.3694, 0.5966470
811.8515, 0.5438550
812.3336, 1.117987
812.8157, 1.431011
813.2979, 2.226248
813.7800, 2.564199
814.2621, 3.879471
814.7442, 4.767923
815.2263, 5.123895
815.7084, 5.112568
816.1906, 4.864610
816.6727, 4.384272
817.1548, 3.554555
817.6369, 2.307681
818.1190, 1.488214
818.6011, 1.671501
819.0833, 2.202872
819.5654, 2.045193
820.0475, 1.129116
820.5296, 0.4808320
821.0117, 0.2306350
821.4938, 0.4238180
821.9760, 0.9523060
822.4581, 1.934259
822.9402, 3.855317
823.4223, 6.400965
823.9044, 8.121413
824.3865, 8.780291
824.8687, 8.513349
825.3508, 6.334094
825.8329, 4.041627
826.3150, 3.737708
826.7971, 4.887753
827.2792, 5.546938
827.7614, 4.759668
828.2435, 3.646663
828.7256, 3.335824
829.2077, 3.569433
829.6898, 3.265377
830.1719, 2.399776
830.6541, 1.624440
831.1362, 1.053818
831.6183, 1.197897
832.1004, 2.930966
832.5825, 6.205688
833.0646, 8.135237
833.5468, 8.853609
834.0289, 7.924623
834.5110, 3.111515
834.9931, 1.204904
835.4752, 1.873903
835.9573, 9.5985003E-02
836.4395, 1.959506
836.9216, 3.154595
837.4037, 3.745597
837.8858, 3.094938
838.3679, 2.377382
838.8500, 3.514284
839.3322, 5.555695
839.8143, 5.482653
840.2964, 2.448253
840.7785, 0.5146310
841.2606, 0.3637730
841.7427, 3.875725
842.2249, 5.018616
842.7070, 3.675979
843.1891, 2.586115
843.6712, 2.302277
844.1533, 2.876139
844.6354, 4.868367
845.1176, 7.727692
845.5997, 8.418073
846.0818, 4.570784
846.5639, 1.917905
847.0460, 0.8137940
847.5281, 0.4707710
848.0103, 0.7877900
848.4924, 1.507531
848.9745, 2.322614
849.4566, 3.172651
849.9387, 4.088366
850.4208, 5.173156
850.9030, 6.258241
851.3851, 7.623713
851.8672, 8.740056
852.3493, 8.268019
852.8314, 6.206800
853.3135, 4.206260
853.7957, 3.556050
854.2778, 2.540635
854.7599, 2.284528
855.2420, 2.605257
855.7241, 2.585846
856.2062, 3.876004
856.6884, 4.657085
857.1705, 3.573987
857.6526, 1.834086
858.1347, 1.847188
858.6168, 4.323247
859.0989, 5.328032
859.5811, 3.370334
860.0632, 1.909864
860.5453, 1.833010
861.0274, 2.458288
861.5095, 3.740610
861.9916, 5.293664
862.4738, 5.903959
862.9559, 4.498077
863.4380, 3.327115
863.9201, 4.244604
864.4022, 5.921009
864.8843, 6.873105
865.3665, 7.103685
865.8486, 7.155629
866.3307, 7.260853
866.8128, 7.081413
867.2949, 5.894084
867.7770, 4.059907
868.2592, 3.461867
868.7413, 4.106651
869.2234, 4.356948
869.7055, 3.606040
870.1876, 2.965264
870.6697, 3.798619
871.1519, 5.756087
871.6340, 6.863752
872.1161, 7.050977
872.5981, 6.520338
873.0803, 4.818226
873.5624, 2.885221
874.0445, 6.9329001E-02
874.5266, 2.262136
875.0087, 1.664067
875.4908, 2.361491
875.9730, 5.560170
876.4551, 6.088468
876.9372, 5.743106
877.4193, 5.065868
877.9014, 4.491155
878.3835, 4.811383
878.8657, 5.844153
879.3478, 6.408689
879.8299, 5.722921
880.3120, 4.576801
880.7941, 3.964795
881.2762, 3.799994
881.7584, 3.880977
882.2405, 4.167784
882.7226, 4.521745
883.2047, 4.928628
883.6868, 4.942665
884.1689, 3.702597
884.6511, 1.298663
885.1332, 1.008156
885.6153, 3.866722
886.0974, 5.986159
886.5795, 6.464340
887.0616, 6.183014
887.5438, 5.449622
888.0259, 4.496302
888.5080, 4.010436
888.9901, 4.060462
889.4722, 4.451989
889.9543, 5.788807
890.4365, 6.776459
890.9186, 6.443301
891.4007, 5.495415
891.8828, 4.910511
892.3649, 4.818676
892.8470, 4.608254
893.3292, 3.566367
893.8113, 3.029881
894.2934, 4.696882
894.7755, 7.247867
895.2576, 8.528656
895.7397, 8.292871
896.2219, 6.693041
896.7040, 3.752571
897.1861, 1.138424
897.6682, 2.103933
898.1503, 5.980278
898.6324, 7.090693
899.1146, 5.305875
899.5967, 3.457866
900.0788, 2.320697
900.5609, 1.766482
901.0430, 1.859994
901.5251, 2.492739
902.0073, 2.081280
902.4894, 0.6358950
902.9715, 1.717052
903.4536, 0.4913700
903.9357, 2.664213
904.4178, 2.765735
904.9000, 2.241367
905.3821, 3.526217
905.8642, 6.956892
906.3463, 8.805755
906.8284, 7.272818
907.3105, 5.057435
907.7927, 2.403865
908.2748, 0.5465550
908.7569, 1.506502
909.2390, 4.398334
909.7211, 6.488397
910.2032, 6.579453
910.6854, 5.357107
911.1675, 2.445234
911.6496, 0.8139120
912.1317, 2.310855
912.6138, 2.137059
913.0959, 0.7005950
913.5781, 1.757924
914.0602, 4.133013
914.5423, 5.385735
915.0244, 5.805070
915.5065, 6.326192
915.9886, 6.953663
916.4708, 7.020497
916.9529, 6.334762
917.4350, 5.738960
917.9171, 5.820967
918.3992, 6.007218
918.8813, 5.156655
919.3635, 2.990543
919.8456, 1.886481
920.3277, 2.179072
920.8098, 2.986628
921.2919, 5.099369
921.7740, 6.789454
922.2562, 6.575708
922.7383, 4.964019
923.2204, 3.391922
923.7025, 1.655605
924.1846, 0.9261100
924.6667, 2.233380
925.1489, 3.852510
925.6310, 5.331094
926.1131, 6.157193
926.5952, 5.163979
927.0773, 2.602303
927.5594, 0.9544290
928.0416, 1.959806
928.5237, 3.804394
929.0058, 5.415002
929.4879, 6.481663
929.9700, 6.154264
930.4521, 4.779244
930.9343, 3.852585
931.4164, 3.986058
931.8985, 4.134381
932.3806, 2.594353
932.8627, 0.3123480
933.3448, 3.2538000E-02
933.8270, 1.310770
934.3091, 3.333012
934.7912, 5.904538
935.2733, 7.311792
935.7554, 6.067279
936.2375, 3.524102
936.7197, 3.099101
937.2018, 5.304195
937.6839, 6.757913
938.1660, 7.529458
938.6481, 7.266046
939.1302, 4.877365
939.6124, 2.618891
940.0945, 3.172386
940.5766, 6.164736
941.0587, 8.088799
941.5408, 8.364867
942.0229, 8.514083
942.5051, 9.084332
942.9872, 9.016929
943.4693, 7.055341
943.9514, 4.530691
944.4335, 3.404663
944.9156, 3.864129
945.3978, 4.197667
945.8799, 3.456230
946.3620, 2.889460
946.8441, 3.590631
947.3262, 4.435800
947.8083, 4.005518
948.2905, 2.725443
948.7726, 1.947117
949.2547, 2.168531
949.7368, 2.851493
950.2189, 3.993632
950.7010, 5.007581
951.1832, 4.817917
951.6653, 3.918818
952.1474, 3.624760
952.6295, 4.079709
953.1116, 4.429598
953.5938, 4.134216
954.0759, 3.383046
954.5580, 2.064085
955.0400, 0.4971200
955.5222, 0.5926830
956.0043, 2.384399
956.4864, 4.738143
956.9685, 7.483386
957.4506, 8.675157
957.9327, 6.003778
958.4149, 0.8524060
958.8970, 1.490402
959.3791, 0.6088680
959.8612, 2.147949
960.3433, 7.944537
960.8254, 12.00184
961.3076, 11.92003
961.7897, 9.481182
962.2718, 6.976283
962.7539, 4.398688
963.2360, 2.278180
963.7181, 0.2165160
964.2003, 0.7425630
964.6824, 0.5983580
965.1645, 1.864017
965.6466, 0.9782220
966.1287, 0.4952500
966.6108, 0.6215760
967.0930, 4.992359
967.5751, 7.771306
968.0572, 7.355639
968.5393, 5.904350
969.0214, 2.665768
969.5035, 3.4599999E-04
969.9857, 1.046041
970.4678, 4.510144
970.9499, 6.401615
971.4320, 5.252793
971.9141, 3.766477
972.3962, 3.382541
972.8784, 3.525271
973.3605, 3.892058
973.8426, 4.344552
974.3247, 4.671029
974.8068, 4.885672
975.2889, 5.196924
975.7711, 5.811613
976.2532, 6.543087
976.7353, 7.830504
977.2174, 8.890964
977.6995, 7.643485
978.1816, 4.707214
978.6638, 2.319063
979.1459, 1.140322
979.6280, 1.009019
980.1101, 1.890186
980.5922, 3.398360
981.0743, 5.190214
981.5565, 7.079141
982.0386, 6.896016
982.5207, 4.744348
983.0028, 3.679496
983.4849, 5.011092
983.9670, 6.471573
984.4492, 5.360357
984.9313, 2.473054
985.4134, 1.713172
985.8955, 3.384649
986.3776, 5.118277
986.8597, 6.981388
987.3419, 7.607034
987.8240, 5.782183
988.3061, 3.425590
988.7882, 3.455584
989.2703, 5.853397
989.7524, 6.962090
990.2346, 6.008854
990.7167, 5.506040
991.1988, 6.191201
991.6809, 6.764063
992.1630, 6.376377
992.6451, 5.451347
993.1273, 4.815943
993.6094, 4.563153
994.0915, 4.071838
994.5736, 2.898041
995.0557, 2.396426
995.5378, 3.669441
996.0200, 4.854188
996.5021, 4.411722
996.9842, 3.065507
997.4663, 2.335135
997.9484, 2.483881
998.4305, 2.775862
998.9127, 3.134268
999.3948, 3.500528
999.8769, 4.569694
1000.359, 5.361938
1000.841, 4.521881
1001.323, 2.679579
1001.805, 1.611498
1002.287, 1.878953
1002.770, 2.539520
1003.252, 3.508949
1003.734, 4.271353
1004.216, 4.106099
1004.698, 3.722311
1005.180, 4.104377
1005.662, 5.212713
1006.144, 6.622142
1006.627, 8.316772
1007.109, 9.031796
1007.591, 6.600024
1008.073, 3.555226
1008.555, 2.881131
1009.037, 3.891723
1009.519, 5.344230
1010.001, 6.811637
1010.483, 8.058721
1010.966, 9.021866
1011.448, 9.160528
1011.930, 6.903509
1012.412, 3.824417
1012.894, 3.507332
1013.376, 5.140645
1013.858, 5.710578
1014.340, 4.554352
1014.823, 2.507242
1015.305, 9.4508000E-02
1015.787, 1.887560
1016.269, 0.4579360
1016.751, 5.376210
1017.233, 6.912803
1017.715, 5.353600
1018.197, 5.045698
1018.679, 7.203579
1019.162, 9.544479
1019.644, 10.25520
1020.126, 9.740366
1020.608, 8.449229
1021.090, 6.542993
1021.572, 6.591301
1022.054, 8.725718
1022.536, 10.01227
1023.018, 9.376219
1023.501, 8.046888
1023.983, 6.985294
1024.465, 6.305139
1024.947, 6.264149
1025.429, 6.961931
1025.911, 7.177823
1026.393, 6.917710
1026.875, 5.657876
1027.358, 2.723247
1027.840, 0.3744480
1028.322, 1.050422
1028.804, 3.903112
1029.286, 5.326392
1029.768, 4.808663
1030.250, 5.156495
1030.732, 7.066487
1031.214, 8.081692
1031.697, 7.213551
1032.179, 5.217522
1032.661, 2.138369
1033.143, 1.292116
1033.625, 1.028037
1034.107, 5.632262
1034.589, 9.100165
1035.071, 7.919032
1035.553, 6.006942
1036.036, 4.143579
1036.518, 2.811439
1037.000, 2.980522
1037.482, 4.200743
1037.964, 3.719333
1038.446, 0.7180580
1038.928, 2.386841
1039.410, 0.5494890
1039.893, 3.774839
1040.375, 6.491889
1040.857, 8.366218
1041.339, 8.794026
1041.821, 8.016286
1042.303, 7.331686
1042.785, 6.943779
1043.267, 6.291880
1043.750, 5.133777
1044.232, 3.982244
1044.714, 2.247203
1045.196, 1.199642
1045.678, 2.836490
1046.160, 6.400193
1046.642, 8.285749
1047.124, 7.490839
1047.606, 6.527538
1048.089, 5.204011
1048.571, 4.397006
1049.053, 5.684509
1049.535, 6.693896
1050.017, 3.997015
1050.499, 1.164639
1050.981, 3.402957
1051.463, 0.8030330
1051.945, 1.855363
1052.428, 4.039781
1052.910, 5.550336
1053.392, 5.661492
1053.874, 5.434751
1054.356, 6.535728
1054.838, 4.829344
1055.320, 7.301063
1055.802, 1.861629
1056.285, 1.573910
1056.767, 0.3268690
1057.249, 2.872874
1057.731, 4.266373
1058.213, 4.859252
1058.695, 4.820029
1059.177, 4.475890
1059.659, 4.367481
1060.141, 4.692224
1060.624, 4.903700
1061.106, 5.067785
1061.588, 4.763910
1062.070, 2.657202
1062.552, 0.8765920
1063.034, 2.345115
1063.516, 5.837828
1063.998, 7.489440
1064.480, 6.069018
1064.963, 5.316037
1065.445, 7.956984
1065.927, 10.11591
1066.409, 9.057364
1066.891, 7.138523
1067.373, 6.547432
1067.855, 7.085380
1068.337, 7.902901
1068.820, 8.840899
1069.302, 9.140312
1069.784, 8.094956
1070.266, 6.806282
1070.748, 5.372631
1071.230, 4.373195
1071.712, 4.472757
1072.194, 5.365228
1072.677, 6.784775
1073.159, 8.587064
1073.641, 8.680946
1074.123, 4.222183
1074.605, 0.8007790
1075.087, 2.943365
1075.569, 6.029852
1076.051, 5.929587
1076.533, 3.757840
1077.016, 1.926436
1077.498, 0.9484680
1077.980, 0.5380890
1078.462, 0.1632930
1078.944, 0.9264360
1079.426, 5.064862
1079.908, 8.897998
1080.390, 8.920129
1080.872, 6.853797
1081.354, 5.496482
1081.837, 5.283994
1082.319, 5.291831
1082.801, 5.157863
1083.283, 5.301551
1083.765, 6.631382
1084.247, 7.861386
1084.729, 8.010289
1085.211, 7.470531
1085.694, 6.618431
1086.176, 5.659162
1086.658, 5.133530
1087.140, 5.573377
1087.622, 5.459670
1088.104, 2.974339
1088.586, 1.057301
1089.068, 2.417812
1089.551, 4.786838
1090.033, 5.324496
1090.515, 4.331445
1090.997, 3.855400
1091.479, 4.787524
1091.961, 5.454001
1092.443, 4.511804
1092.925, 3.808982
1093.407, 4.726047
1093.890, 5.997722
1094.372, 6.207613
1094.854, 5.750254
1095.336, 6.153828
1095.818, 7.954616
1096.300, 8.247059
1096.782, 3.991338
1097.264, 1.045138
1097.746, 2.906151
1098.229, 5.374550
1098.711, 4.382891
1099.193, 1.819367
1099.675, 1.876219
1100.157, 5.135761
1100.639, 7.335482
1101.121, 6.778306
1101.603, 5.942219
1102.086, 4.733522
1102.568, 4.259746
1103.050, 6.411589
1103.532, 8.989910
1104.014, 8.633608
1104.496, 5.494738
1104.978, 3.816695
1105.460, 5.928330
1105.943, 6.797831
1106.425, 4.157683
1106.907, 1.913721
1107.389, 2.030185
1107.871, 3.238180
1108.353, 4.739008
1108.835, 6.033885
1109.317, 5.533803
1109.799, 1.441363
1110.281, 0.7371280
1110.764, 0.8638240
1111.246, 2.477113
1111.728, 3.008173
1112.210, 3.178567
1112.692, 3.821024
1113.174, 3.144238
1113.656, 3.874189
1114.138, 1.426094
1114.621, 0.2226580
1115.103, 1.417010
1115.585, 1.471670
1116.067, 0.7797720
1116.549, 2.766160
1117.031, 2.423070
1117.513, 1.381279
1117.995, 2.645082
1118.478, 6.258052
1118.960, 7.593609
1119.442, 5.286839
1119.924, 4.017983
1120.406, 4.946852
1120.888, 5.290210
1121.370, 3.392388
1121.852, 1.071685
1122.334, 0.3880900
1122.817, 1.122642
1123.299, 2.245359
1123.781, 4.155450
1124.263, 4.678371
1124.745, 3.366100
1125.227, 2.018248
1125.709, 1.011995
1126.191, 0.7044890
1126.673, 1.505733
1127.156, 3.021371
1127.638, 4.353958
1128.120, 5.500432
1128.602, 6.459827
1129.084, 7.285017
1129.566, 7.280587
1130.048, 6.281657
1130.530, 4.398384
1131.013, 1.423488
1131.495, 0.8553020
1131.977, 0.6935670
1132.459, 4.972341
1132.941, 6.195529
1133.423, 4.658169
1133.905, 4.695980
1134.387, 6.678237
1134.870, 7.579598
1135.352, 6.207171
1135.834, 4.009178
1136.316, 2.121996
1136.798, 1.034656
1137.280, 2.555366
1137.762, 5.647624
1138.244, 6.689232
1138.726, 5.710135
1139.208, 3.230469
1139.691, 0.2398160
1140.173, 2.107672
1140.655, 0.6344940
1141.137, 1.890891
1141.619, 2.507768
1142.101, 2.240098
1142.583, 3.335701
1143.065, 4.844161
1143.548, 4.006891
1144.030, 1.301406
1144.512, 4.6418998E-02
1144.994, 1.148958
1145.476, 2.600615
1145.958, 2.249067
1146.440, 1.639538
1146.922, 2.563653
1147.405, 3.820727
1147.887, 3.451035
1148.369, 2.311506
1148.851, 2.578127
1149.333, 4.438988
1149.815, 6.009116
1150.297, 6.624398
1150.779, 6.178673
1151.261, 2.805307
1151.744, 0.3270000
1152.226, 3.070994
1152.708, 7.210655
1153.190, 7.854895
1153.672, 5.644763
1154.154, 4.133806
1154.636, 4.242156
1155.118, 4.084607
1155.600, 2.473514
1156.083, 1.376448
1156.565, 2.183579
1157.047, 3.006739
1157.529, 1.935796
1158.011, 0.2942110
1158.493, 0.7402470
1158.975, -4.5371465E-02
1159.457, -0.1781349
1159.940, 0.2353040
1160.422, 1.073968
1160.904, 2.300851
1161.386, 5.562792
1161.868, 7.496635
1162.350, 8.113363
1162.832, 6.682186
1163.314, 4.291690
1163.796, 4.738723
1164.279, 3.906284
1164.761, 2.762242
1165.243, 4.660286
1165.725, 1.772554
1166.207, 3.106252
1166.689, 4.418715
1167.171, 3.042610
1167.653, 1.067621
1168.135, 1.570488
1168.618, 4.091741
1169.100, 5.735016
1169.582, 6.495118
1170.064, 6.002641
1170.546, 4.264499
1171.028, 3.348257
1171.510, 3.941199
1171.992, 4.595363
1172.474, 4.071860
1172.957, 4.868448
1173.439, 3.816424
1173.921, 5.377254
1174.403, 5.956668
1174.885, 5.661917
1175.367, 4.874801
1175.849, 3.954867
1176.331, 4.222599
1176.814, 6.146728
1177.296, 7.908554
1177.778, 7.621178
1178.260, 8.474057
1178.742, 7.149169
1179.224, 7.773322
1179.706, 6.927516
1180.188, 5.259526
1180.671, 4.368732
1181.153, 4.406745
1181.635, 4.231585
1182.117, 3.204513
1182.599, 2.439203
1183.081, 2.380472
1183.563, 2.955498
1184.045, 4.881990
1184.527, 6.764884
1185.010, 7.037150
1185.492, 6.234472
1185.974, 5.735587
1186.456, 5.732706
1186.938, 5.966409
1187.420, 6.968946
1187.902, 7.335016
1188.384, 5.713771
1188.866, 4.815927
1189.349, 6.894985
1189.831, 9.168296
1190.313, 8.241796
1190.795, 5.057581
1191.277, 3.658336
1191.759, 4.509942
1192.241, 5.198286
1192.723, 5.795181
1193.206, 5.892231
1193.688, 5.258912
1194.170, 4.783694
1194.652, 5.127024
1195.134, 5.295893
1195.616, 3.599768
1196.098, 0.8269290
1196.580, 0.6385670
1197.063, 2.751657
1197.545, 4.452042
1198.027, 5.384444
1198.509, 5.533103
1198.991, 4.822727
1199.473, 3.751206
1199.955, 2.617087
1200.437, 1.844238
1200.919, 2.023497
1201.401, 2.903557
1201.884, 4.999066
1202.366, 7.000871
1202.848, 5.545402
1203.330, 1.701236
1203.812, 0.3059220
1204.294, 0.6328590
1204.776, 1.653978
1205.258, 0.5658900
1205.741, 0.1529610
1206.223, 3.533367
1206.705, 6.837395
1207.187, 6.342450
1207.669, 4.577205
1208.151, 5.156126
1208.633, 7.381902
1209.115, 7.856853
1209.598, 5.578996
1210.080, 3.975875
1210.562, 3.153059
1211.044, 3.676430
1211.526, 7.823435
1212.008, 10.59855
1212.490, 8.594730
1212.972, 5.245344
1213.454, 4.684791
1213.937, 6.252993
1214.419, 6.627393
1214.901, 5.413506
1215.383, 5.159358
1215.865, 6.145317
1216.347, 6.298123
1216.829, 5.051926
1217.311, 3.894256
1217.793, 3.569390
1218.276, 3.659503
1218.758, 3.880565
1219.240, 4.002064
1219.722, 3.166512
1220.204, 1.861840
1220.686, 1.879213
1221.168, 3.143566
1221.650, 5.411110
1222.133, 8.146646
1222.615, 8.682993
1223.097, 5.264141
1223.579, 1.747090
1224.061, 1.870707
1224.543, 3.305576
1225.025, 4.159698
1225.507, 4.726123
1225.990, 5.731135
1226.472, 6.636335
1226.954, 5.908679
1227.436, 3.598490
1227.918, 2.541982
1228.400, 4.569305
1228.882, 5.654090
1229.364, 3.751193
1229.846, 2.200460
1230.328, 3.420912
1230.811, 4.294291
1231.293, 1.507200
1231.775, 2.603251
1232.257, 3.623082
1232.739, 1.570375
1233.221, 0.9882160
1233.703, 4.542047
1234.185, 6.419611
1234.668, 6.302709
1235.150, 4.629128
1235.632, 1.144842
1236.114, 3.3239000E-02
1236.596, 4.837413
1237.078, 2.170782
1237.560, 9.722392
1238.042, 3.573775
1238.525, 2.891885
1239.007, 5.875189
1239.489, 6.806433
1239.971, 5.563385
1240.453, 4.494893
1240.935, 4.317756
1241.417, 4.482164
1241.899, 4.787488
1242.381, 4.752588
1242.864, 3.460102
1243.346, 2.255988
1243.828, 2.647452
1244.310, 3.433437
1244.792, 2.667836
1245.274, 1.380817
1245.756, 2.348075
1246.238, 1.832875
1246.720, 1.023973
1247.203, 2.723839
1247.685, 0.2287810
1248.167, 1.376542
1248.649, 3.026563
1249.131, 4.794723
1249.613, 5.774900
1250.095, 4.834943
1250.577, 3.329243
1251.059, 4.197896
1251.542, 7.093645
1252.024, 7.500190
1252.506, 5.440907
1252.988, 4.416766
1253.470, 4.709722
1253.952, 5.261028
1254.434, 5.685830
1254.916, 5.436759
1255.399, 4.001893
1255.881, 2.831175
1256.363, 4.502133
1256.845, 6.898726
1257.327, 6.638140
1257.809, 5.220240
1258.291, 4.968744
1258.773, 4.584937
1259.255, 4.325396
1259.738, 3.682558
1260.220, 3.629624
1260.702, 4.837822
1261.184, 5.872756
1261.666, 6.443426
1262.148, 6.217733
1262.630, 3.878698
1263.112, 1.956477
1263.594, 2.678778
1264.077, 4.602513
1264.559, 5.893349
1265.041, 6.478196
1265.523, 5.345747
1266.005, 1.939445
1266.487, 9.4359003E-02
1266.969, 0.1563530
1267.451, 1.235620
1267.934, 3.168360
1268.416, 4.207405
1268.898, 3.338049
1269.380, 1.798214
1269.862, 0.7197760
1270.344, 0.4792660
1270.826, 2.792101
1271.308, 5.822360
1271.791, 5.693989
1272.273, 3.648042
1272.755, 2.669815
1273.237, 2.910033
1273.719, 2.442246
1274.201, 0.5237080
1274.683, 0.5881770
1275.165, 0.4231900
1275.647, 1.984645
1276.130, 4.257586
1276.612, 5.987342
1277.094, 5.080421
1277.576, 3.771800
1278.058, 4.991551
1278.540, 7.589083
1279.022, 8.054107
1279.504, 6.228788
1279.986, 3.728889
1280.469, 1.589969
1280.951, 0.3464530
1281.433, 6.1912000E-02
1281.915, 0.1337880
1282.397, 0.3234780
1282.879, 0.6861040
1283.361, 1.075063
1283.843, 1.265244
1284.326, 0.8934880
1284.808, 0.0000000E+00
##END=



