##NAMES=Tellurobismuthite
##RRUFFID=R070158
##IDEAL CHEMISTRY=Bi^3+^_2_Te^2-^_3_
##LOCALITY=Boliden, Skelleftea, Vasterbotten, Sweden
##OWNER=RRUFF
##SOURCE=James Shigley
##DESCRIPTION=Bright silver sectile metallic plates associated with yellow gold
##STATUS=The identification of this mineral is not yet confirmed.
##URL=rruff.info/R070158
111.6674, 0.0000000E+00
112.1495, 5.384666
112.6316, 11.41101
113.1138, 21.05849
113.5959, 18.51667
114.0780, 7.284481
114.5601, 0.7471500
115.0422, 2.557659
115.5243, 2.322777
116.0065, 5.229786
116.4886, 3.018524
116.9707, 0.7569660
117.4528, 1.755966
117.9349, 0.9598160
118.4170, 4.616928
118.8992, 6.256081
119.3813, 6.323181
119.8634, 6.348412
120.3455, 6.777596
120.8276, 7.474884
121.3097, 7.757217
121.7918, 6.602638
122.2740, 7.008385
122.7561, 12.33392
123.2382, 21.78305
123.7203, 31.38268
124.2024, 36.96359
124.6845, 40.32970
125.1667, 50.12851
125.6488, 70.95303
126.1309, 94.48137
126.6130, 115.1474
127.0951, 132.9603
127.5772, 149.3344
128.0594, 164.7825
128.5415, 179.3549
129.0236, 194.0004
129.5057, 209.1711
129.9878, 224.0028
130.4700, 237.2421
130.9521, 249.1448
131.4342, 261.7930
131.9163, 278.0763
132.3984, 299.0097
132.8805, 317.0836
133.3626, 333.3705
133.8448, 345.2037
134.3269, 350.1724
134.8090, 348.3924
135.2911, 342.7367
135.7732, 335.4919
136.2553, 324.6139
136.7375, 318.7195
137.2196, 317.3543
137.7017, 320.9543
138.1838, 332.3997
138.6659, 351.0573
139.1480, 371.4738
139.6302, 384.9208
140.1123, 385.3522
140.5944, 391.6617
141.0765, 402.4687
141.5586, 418.8271
142.0407, 442.7680
142.5229, 474.1880
143.0050, 509.9482
143.4871, 545.3427
143.9692, 582.9677
144.4513, 615.0174
144.9334, 637.8561
145.4156, 657.8259
145.8977, 679.9377
146.3798, 705.6963
146.8619, 733.3577
147.3440, 759.9338
147.8261, 791.3337
148.3083, 811.5207
148.7904, 814.5485
149.2725, 809.2909
149.7546, 803.9673
150.2367, 801.2939
150.7188, 799.4227
151.2010, 795.0738
151.6831, 791.7448
152.1652, 779.5052
152.6473, 751.0527
153.1294, 715.7672
153.6115, 683.9865
154.0937, 659.3239
154.5758, 639.8078
155.0579, 622.0048
155.5400, 606.9985
156.0221, 591.4301
156.5042, 576.1223
156.9864, 559.6613
157.4685, 538.4104
157.9506, 510.1891
158.4327, 480.6866
158.9148, 462.1947
159.3969, 457.5869
159.8791, 452.9639
160.3612, 443.5438
160.8433, 432.0773
161.3254, 423.7010
161.8075, 420.5642
162.2896, 420.0225
162.7718, 417.4655
163.2539, 412.9148
163.7360, 407.3801
164.2181, 400.1303
164.7002, 392.1462
165.1823, 385.7855
165.6645, 382.0946
166.1466, 379.6962
166.6287, 376.5686
167.1108, 372.7295
167.5929, 368.4518
168.0750, 363.1536
168.5572, 357.4399
169.0393, 353.1684
169.5214, 350.7469
170.0035, 348.9313
170.4856, 345.9855
170.9677, 342.3102
171.4499, 335.2668
171.9320, 319.4760
172.4141, 298.3948
172.8962, 285.0918
173.3783, 286.5765
173.8604, 291.9167
174.3426, 289.1230
174.8247, 278.2509
175.3068, 264.8133
175.7889, 248.9374
176.2710, 232.2308
176.7531, 221.9653
177.2353, 222.9829
177.7174, 226.6829
178.1995, 224.1885
178.6816, 215.7650
179.1637, 207.1669
179.6458, 202.1461
180.1280, 199.9936
180.6101, 197.0623
181.0922, 192.3552
181.5743, 187.2139
182.0564, 182.1733
182.5385, 177.3822
183.0206, 174.1548
183.5028, 175.3586
183.9849, 179.7041
184.4670, 179.3539
184.9491, 171.2845
185.4312, 160.7212
185.9133, 149.5955
186.3955, 138.7188
186.8776, 131.9597
187.3597, 135.0089
187.8418, 145.7451
188.3239, 150.7163
188.8060, 145.6308
189.2882, 138.6661
189.7703, 136.0389
190.2524, 136.3518
190.7345, 134.7234
191.2166, 125.4843
191.6987, 110.5182
192.1809, 101.7657
192.6630, 102.4831
193.1451, 105.7958
193.6272, 109.3756
194.1093, 112.4578
194.5914, 113.1112
195.0736, 108.2023
195.5557, 99.29315
196.0378, 95.46762
196.5199, 100.9694
197.0020, 105.3347
197.4841, 102.2002
197.9663, 94.50592
198.4484, 88.32904
198.9305, 88.09818
199.4126, 92.02225
199.8947, 92.53073
200.3768, 86.57312
200.8590, 82.00171
201.3411, 83.40009
201.8232, 87.85934
202.3053, 90.64325
202.7874, 88.68204
203.2695, 83.61786
203.7517, 81.25989
204.2338, 84.81754
204.7159, 85.11658
205.1980, 76.02811
205.6801, 63.07990
206.1622, 53.63815
206.6444, 51.63705
207.1265, 54.39639
207.6086, 54.87143
208.0907, 50.46704
208.5728, 49.32758
209.0549, 57.91501
209.5371, 69.06299
210.0192, 74.74637
210.5013, 71.26883
210.9834, 62.67691
211.4655, 57.02594
211.9476, 55.94586
212.4298, 53.81711
212.9119, 46.47272
213.3940, 38.88818
213.8761, 36.44806
214.3582, 41.17633
214.8403, 48.17871
215.3225, 49.15137
215.8046, 41.81818
216.2867, 35.78098
216.7688, 33.79715
217.2509, 33.29956
217.7330, 32.55652
218.2152, 31.15240
218.6973, 29.82980
219.1794, 29.45740
219.6615, 30.24426
220.1436, 31.87927
220.6257, 35.72308
221.1079, 39.26886
221.5900, 41.09579
222.0721, 41.02060
222.5542, 39.80692
223.0363, 38.91354
223.5184, 38.70874
224.0006, 35.69370
224.4827, 24.52985
224.9648, 14.93887
225.4469, 11.82443
225.9290, 14.96701
226.4111, 20.45889
226.8933, 25.53787
227.3754, 30.22510
227.8575, 33.38867
228.3396, 35.40402
228.8217, 35.17896
229.3038, 30.92142
229.7860, 23.94727
230.2681, 17.64456
230.7502, 13.97656
231.2323, 12.80847
231.7144, 14.06946
232.1965, 19.93481
232.6786, 25.71429
233.1608, 31.44186
233.6429, 35.58615
234.1250, 34.73938
234.6071, 25.67734
235.0892, 11.96115
235.5714, 5.552185
236.0535, 10.11819
236.5356, 15.38043
237.0177, 18.40976
237.4998, 19.36902
237.9819, 17.58774
238.4641, 11.62350
238.9462, 4.594666
239.4283, 3.350769
239.9104, 10.22000
240.3925, 16.57135
240.8746, 19.75125
241.3568, 20.54718
241.8389, 18.54208
242.3210, 13.10016
242.8031, 7.677246
243.2852, 7.993408
243.7673, 15.44122
244.2495, 20.48367
244.7316, 17.07843
245.2137, 12.26413
245.6958, 12.17291
246.1779, 17.92651
246.6600, 23.40854
247.1422, 22.43500
247.6243, 15.06473
248.1064, 7.690704
248.5885, 0.8727110
249.0706, 6.566650
249.5527, 5.037872
250.0349, 3.373505
250.5170, 11.44647
250.9991, 14.27600
251.4812, 12.84650
251.9633, 10.35373
252.4454, 4.613037
252.9276, 0.8332820
253.4097, 4.495453
253.8918, 13.43253
254.3739, 20.80875
254.8560, 22.67508
255.3381, 20.72144
255.8203, 18.35687
256.3024, 14.88959
256.7845, 12.59079
257.2666, 16.86334
257.7487, 24.01361
258.2308, 26.51822
258.7130, 18.73065
259.1951, 7.546295
259.6772, 2.039795
260.1593, 2.688446
260.6414, 3.906830
261.1235, 1.561493
261.6057, 1.640289
262.0878, 0.2931210
262.5699, 9.606079
263.0520, 19.05075
263.5341, 19.51743
264.0162, 12.10397
264.4984, 5.463165
264.9805, 2.243103
265.4626, 2.464722
265.9447, 6.742584
266.4268, 17.25549
266.9089, 24.51852
267.3911, 20.66495
267.8732, 9.975433
268.3553, 3.492523
268.8374, 4.805420
269.3195, 9.605469
269.8016, 12.50980
270.2838, 13.70401
270.7659, 13.49551
271.2480, 10.68146
271.7301, 7.030853
272.2122, 5.021851
272.6943, 5.098511
273.1765, 5.596680
273.6586, 4.575714
274.1407, 2.034454
274.6228, 1.486298
275.1049, 6.287323
275.5870, 10.59793
276.0692, 8.354492
276.5513, 0.3215640
277.0334, 6.410370
277.5155, 6.760101
277.9976, 2.037415
278.4797, 0.4645390
278.9619, 1.576721
279.4440, 3.091156
279.9261, 0.2814640
280.4082, 4.750458
280.8903, 6.336304
281.3724, 0.9245300
281.8546, 8.399902
282.3367, 11.92105
282.8188, 5.044891
283.3009, 1.017456
283.7830, 5.378296
284.2651, 8.186005
284.7473, 9.521576
285.2294, 9.496033
285.7115, 8.406036
286.1936, 6.249390
286.6757, 1.856628
287.1578, 1.372223
287.6400, 3.336945
288.1221, 4.122086
288.6042, 2.630783
289.0863, 0.4810940
289.5684, 2.094711
290.0505, 1.584610
290.5327, 11.77045
291.0148, 14.98961
291.4969, 2.733307
291.9790, 7.267242
292.4611, 6.774902
292.9432, 0.4992980
293.4254, 6.265564
293.9075, 5.147079
294.3896, 1.208511
294.8717, 4.375748
295.3538, 1.545578
295.8359, 0.8224180
296.3181, 0.8530120
296.8002, 0.3869630
297.2823, 1.941010
297.7644, 6.344284
298.2465, 11.07097
298.7286, 11.54666
299.2108, 5.993912
299.6929, 1.033295
300.1750, 3.736542
300.6571, 6.954483
301.1392, 6.737900
301.6213, 3.316422
302.1035, 0.2697910
302.5856, 1.320923
303.0677, 0.1893160
303.5498, 3.408997
304.0319, 10.01076
304.5140, 16.32649
304.9961, 21.78163
305.4782, 25.63513
305.9604, 26.10312
306.4425, 20.78320
306.9246, 11.91849
307.4067, 5.389694
307.8888, 2.032150
308.3709, 1.199493
308.8531, 8.006973
309.3352, 14.74969
309.8173, 16.79666
310.2994, 12.41975
310.7815, 4.393509
311.2636, 7.768936
311.7458, 23.46220
312.2279, 30.49536
312.7100, 19.50038
313.1921, 3.071960
313.6742, 1.469345
314.1563, 7.246338
314.6385, 16.38693
315.1206, 19.73053
315.6027, 19.29323
316.0848, 19.44698
316.5669, 21.21252
317.0490, 22.42296
317.5312, 19.99390
318.0133, 14.22643
318.4954, 10.64052
318.9775, 11.88205
319.4596, 14.18457
319.9417, 14.25197
320.4239, 12.23299
320.9060, 10.31781
321.3881, 9.848358
321.8702, 10.71356
322.3523, 12.21268
322.8344, 15.07515
323.3166, 17.57790
323.7987, 18.51996
324.2808, 18.93945
324.7629, 21.06007
325.2450, 25.81284
325.7271, 31.07097
326.2093, 32.81732
326.6914, 28.24199
327.1735, 24.95767
327.6556, 22.78622
328.1377, 21.97731
328.6198, 23.61011
329.1020, 27.24806
329.5841, 30.57558
330.0662, 31.30991
330.5483, 29.26268
331.0304, 26.78720
331.5125, 19.89917
331.9947, 16.82915
332.4768, 25.07921
332.9589, 37.97762
333.4410, 43.09671
333.9231, 32.63969
334.4052, 13.66035
334.8874, 7.614365
335.3695, 23.93004
335.8516, 34.84233
336.3337, 32.51035
336.8158, 25.04193
337.2979, 17.24451
337.7801, 10.68517
338.2622, 7.521652
338.7443, 12.62212
339.2264, 26.42668
339.7085, 33.90961
340.1906, 30.52559
340.6728, 24.69485
341.1549, 20.98083
341.6370, 18.79089
342.1191, 16.58365
342.6012, 11.93398
343.0833, 7.203506
343.5655, 7.960022
344.0476, 15.14487
344.5297, 22.86455
345.0118, 28.29747
345.4939, 31.95049
345.9760, 34.75732
346.4582, 36.74480
346.9403, 38.34343
347.4224, 40.09802
347.9045, 41.50955
348.3866, 40.97775
348.8687, 38.29414
349.3509, 34.97194
349.8330, 31.18839
350.3151, 26.45062
350.7972, 22.89287
351.2793, 21.68153
351.7614, 21.42180
352.2436, 20.44946
352.7257, 18.48676
353.2078, 17.05186
353.6899, 17.76854
354.1720, 20.64308
354.6541, 20.96687
355.1363, 14.40428
355.6184, 10.25470
356.1005, 14.35226
356.5826, 22.38641
357.0647, 27.00627
357.5468, 24.86371
358.0290, 19.15569
358.5111, 16.73488
358.9932, 19.64806
359.4753, 22.05925
359.9574, 23.71460
360.4395, 24.99135
360.9217, 26.49484
361.4038, 28.11920
361.8859, 28.93719
362.3680, 27.47569
362.8501, 23.88040
363.3322, 22.72066
363.8144, 25.64726
364.2965, 28.94473
364.7786, 32.77956
365.2607, 35.64119
365.7428, 34.68156
366.2249, 27.60001
366.7071, 19.35358
367.1892, 19.46700
367.6713, 29.41096
368.1534, 35.44708
368.6355, 31.52016
369.1176, 24.48323
369.5998, 20.00133
370.0819, 18.20026
370.5640, 17.55998
371.0461, 17.04276
371.5282, 16.87685
372.0103, 18.42479
372.4925, 21.68530
372.9746, 25.00204
373.4567, 27.40614
373.9388, 28.89989
374.4209, 29.81914
374.9030, 28.48294
375.3852, 27.70335
375.8673, 29.82419
376.3494, 33.77010
376.8315, 37.48703
377.3136, 40.34337
377.7957, 41.30112
378.2779, 38.10210
378.7600, 26.78358
379.2421, 18.65359
379.7242, 14.48631
380.2063, 13.30087
380.6884, 15.82448
381.1706, 20.96730
381.6527, 25.52711
382.1348, 26.66452
382.6169, 24.53804
383.0990, 22.86798
383.5811, 21.33946
384.0633, 20.57747
384.5454, 21.46414
385.0275, 22.95110
385.5096, 23.81670
385.9917, 23.26546
386.4738, 22.00371
386.9560, 22.02202
387.4381, 23.95692
387.9202, 23.59955
388.4023, 17.87822
388.8844, 11.99985
389.3665, 8.825165
389.8487, 8.233139
390.3308, 9.169632
390.8129, 12.50998
391.2950, 16.29431
391.7771, 15.26411
392.2592, 8.198196
392.7414, 2.947189
393.2235, 6.048264
393.7056, 13.33437
394.1877, 16.70172
394.6698, 13.44986
395.1519, 9.995163
395.6341, 9.933075
396.1162, 11.88615
396.5983, 13.41165
397.0804, 13.88649
397.5625, 13.68607
398.0446, 13.38118
398.5268, 12.86693
399.0089, 12.90570
399.4910, 13.57149
399.9731, 14.69890
400.4552, 16.87589
400.9373, 19.31165
401.4195, 20.56169
401.9016, 19.85558
402.3837, 17.69298
402.8658, 15.60344
403.3479, 12.40282
403.8300, 11.29634
404.3121, 14.81267
404.7943, 18.55562
405.2764, 18.61545
405.7585, 15.05994
406.2406, 11.53220
406.7227, 11.56870
407.2048, 14.88182
407.6870, 18.10394
408.1691, 22.26428
408.6512, 24.44460
409.1333, 21.55441
409.6154, 16.71396
410.0975, 14.48325
410.5797, 17.01500
411.0618, 20.15033
411.5439, 18.92050
412.0260, 14.21646
412.5081, 11.67146
412.9902, 13.05774
413.4724, 16.08157
413.9545, 18.52087
414.4366, 20.44150
414.9187, 22.21486
415.4008, 24.99911
415.8829, 26.69838
416.3651, 24.25320
416.8472, 18.89185
417.3293, 15.51573
417.8114, 17.08699
418.2935, 22.35416
418.7756, 27.01578
419.2578, 34.27818
419.7399, 36.58870
420.2220, 29.24234
420.7041, 19.56064
421.1862, 13.44028
421.6683, 11.88956
422.1505, 12.89275
422.6326, 14.69279
423.1147, 17.29285
423.5968, 20.52310
424.0789, 26.69437
424.5610, 30.24915
425.0432, 28.54256
425.5253, 23.91817
426.0074, 18.85112
426.4895, 13.95595
426.9716, 10.26614
427.4537, 9.857941
427.9359, 12.48329
428.4180, 13.48441
428.9001, 11.46385
429.3822, 8.510910
429.8643, 6.495865
430.3464, 5.207016
430.8286, 3.649063
431.3107, 1.0925000E-02
431.7928, 2.846085
432.2749, 1.389099
432.7570, 3.561218
433.2391, 7.570206
433.7213, 8.312729
434.2034, 7.539032
434.6855, 9.526703
435.1676, 17.86839
435.6497, 21.93208
436.1318, 18.53062
436.6140, 12.56468
437.0961, 6.307755
437.5782, 0.8804170
438.0603, 1.637024
438.5424, 1.043411
439.0245, 7.848068
439.5067, 10.49280
439.9888, 4.626816
440.4709, 1.329163
440.9530, 6.051651
441.4351, 12.07297
441.9172, 11.87523
442.3994, 4.162506
442.8815, 3.552261
443.3636, 3.205368
443.8457, 3.896706
444.3278, 9.329552
444.8099, 12.45110
445.2921, 14.09280
445.7742, 14.74516
446.2563, 14.32226
446.7384, 12.07559
447.2205, 4.917923
447.7026, 1.3817000E-02
448.1848, 4.087456
448.6669, 13.97041
449.1490, 22.86072
449.6311, 29.09924
450.1132, 30.75887
450.5953, 23.98112
451.0775, 5.235283
451.5596, 3.593941
452.0417, 5.867538
452.5238, 15.87719
453.0059, 16.63973
453.4880, 11.72193
453.9702, 9.524422
454.4523, 14.25020
454.9344, 22.26386
455.4165, 25.44730
455.8986, 21.92146
456.3807, 19.69843
456.8629, 21.04012
457.3450, 22.65797
457.8271, 22.97796
458.3092, 22.03233
458.7913, 20.47957
459.2734, 18.41184
459.7556, 16.14799
460.2377, 13.98789
460.7198, 11.91124
461.2019, 10.83593
461.6840, 11.30289
462.1661, 12.87006
462.6483, 15.04665
463.1304, 18.16879
463.6125, 20.16243
464.0946, 19.39726
464.5767, 17.90308
465.0588, 18.12170
465.5410, 19.87068
466.0231, 20.90577
466.5052, 19.50125
466.9873, 16.33479
467.4694, 14.84210
467.9515, 14.64043
468.4337, 16.86079
468.9158, 27.15317
469.3979, 36.13072
469.8800, 34.03104
470.3621, 21.06541
470.8442, 6.765610
471.3264, 0.6585310
471.8085, 2.000725
472.2906, 2.848724
472.7727, 3.958862
473.2548, 2.498802
473.7369, 5.849785
474.2191, 15.36554
474.7012, 20.00394
475.1833, 18.22446
475.6654, 14.93328
476.1475, 12.29596
476.6296, 10.45098
477.1118, 10.13486
477.5939, 11.49088
478.0760, 12.47088
478.5581, 11.19668
479.0402, 7.967865
479.5223, 6.235809
480.0045, 7.838005
480.4866, 8.451195
480.9687, 5.720673
481.4508, 2.121101
481.9329, 0.4655380
482.4150, 1.391335
482.8972, 3.919136
483.3793, 7.593071
483.8614, 12.49702
484.3435, 14.16491
484.8256, 9.432060
485.3077, 6.031387
485.7899, 6.873947
486.2720, 10.14599
486.7541, 14.47972
487.2362, 20.00093
487.7183, 23.20979
488.2004, 17.85562
488.6826, 7.301552
489.1647, 4.917244
489.6468, 14.14409
490.1289, 23.65787
490.6110, 23.32078
491.0931, 14.48097
491.5753, 10.33635
492.0574, 14.00648
492.5395, 18.69382
493.0216, 24.06322
493.5037, 28.07222
493.9858, 26.54466
494.4680, 19.03893
494.9501, 11.47110
495.4322, 11.34222
495.9143, 19.39299
496.3964, 22.52251
496.8785, 14.56730
497.3607, 9.026878
497.8428, 11.40533
498.3249, 17.12878
498.8070, 20.49258
499.2891, 19.72266
499.7712, 18.39659
500.2534, 20.95210
500.7355, 26.00568
501.2176, 27.32619
501.6997, 23.04058
502.1818, 20.05418
502.6639, 25.38071
503.1460, 36.21515
503.6281, 41.04215
504.1103, 36.81958
504.5924, 30.16450
505.0745, 19.58891
505.5566, 9.694527
506.0387, 9.384933
506.5208, 19.31448
507.0030, 28.95145
507.4851, 26.78452
507.9672, 12.85131
508.4493, 6.198265
508.9314, 13.31409
509.4135, 19.27734
509.8957, 20.85056
510.3778, 20.40115
510.8599, 21.53883
511.3420, 24.83250
511.8241, 25.74586
512.3063, 17.14314
512.7884, 2.532394
513.2705, 4.813843
513.7526, 3.555016
514.2347, 2.139160
514.7169, 12.60125
515.1990, 24.97511
515.6811, 31.76258
516.1632, 32.17467
516.6453, 28.89058
517.1274, 18.85606
517.6096, 7.773468
518.0917, 2.159264
518.5738, 2.385269
519.0559, 4.764748
519.5380, 6.677017
520.0201, 7.987175
520.5023, 7.737167
520.9844, 4.626610
521.4665, 2.183655
521.9486, 0.2034840
522.4307, 0.4894790
522.9128, 1.379311
523.3950, 5.526817
523.8771, 9.598915
524.3592, 12.86169
524.8413, 14.72191
525.3234, 12.75513
525.8055, 6.791321
526.2877, 2.879227
526.7698, 3.593102
527.2519, 7.703285
527.7340, 14.49528
528.2161, 26.27933
528.6982, 31.04890
529.1804, 21.53183
529.6625, 9.086868
530.1446, 5.2131999E-02
530.6267, 4.792641
531.1088, 4.638054
531.5909, 1.174141
532.0731, 9.619614
532.5552, 14.40176
533.0373, 14.63290
533.5194, 13.99640
534.0015, 9.889977
534.4836, 7.873703
534.9658, 13.77811
535.4479, 23.96209
535.9300, 28.64865
536.4121, 21.01097
536.8942, 11.39912
537.3763, 11.88194
537.8585, 19.55899
538.3406, 21.68341
538.8227, 14.12586
539.3048, 5.591026
539.7869, 6.323296
540.2690, 17.36287
540.7512, 21.83861
541.2333, 15.19167
541.7154, 8.034424
542.1975, 2.725586
542.6796, 0.7325520
543.1617, 2.519859
543.6439, 2.684303
544.1260, 1.293564
544.6081, 2.468628
545.0902, 8.388420
545.5723, 12.43227
546.0544, 13.61219
546.5366, 14.59261
547.0187, 18.02676
547.5008, 21.77288
547.9829, 23.28566
548.4650, 22.35185
548.9471, 19.12134
549.4293, 9.596176
549.9114, 0.1312030
550.3935, 0.4517290
550.8756, 7.672699
551.3577, 18.36165
551.8398, 28.41679
552.3219, 36.28058
552.8040, 37.76874
553.2861, 26.65580
553.7682, 20.44255
554.2504, 22.84240
554.7325, 26.65158
555.2146, 27.61684
555.6967, 26.47665
556.1788, 26.70642
556.6609, 31.39164
557.1431, 35.63988
557.6252, 29.86842
558.1073, 15.34309
558.5894, 6.867416
559.0715, 9.180977
559.5536, 14.91420
560.0358, 17.12393
560.5179, 15.77406
561.0000, 14.87972
561.4821, 15.49129
561.9642, 15.41709
562.4464, 13.12849
562.9285, 9.974022
563.4106, 7.470154
563.8927, 6.096916
564.3748, 5.964592
564.8569, 7.736397
565.3391, 11.07951
565.8212, 11.41084
566.3033, 6.482887
566.7854, 3.464294
567.2675, 7.936714
567.7496, 13.79037
568.2318, 14.15037
568.7139, 8.158257
569.1960, 4.326263
569.6781, 8.332764
570.1602, 15.21947
570.6423, 20.85329
571.1245, 24.25496
571.6066, 23.48885
572.0887, 17.10625
572.5708, 8.479378
573.0529, 4.555252
573.5350, 6.597168
574.0172, 9.991425
574.4993, 19.77034
574.9814, 25.59752
575.4635, 19.48463
575.9456, 7.611824
576.4277, 0.7818300
576.9099, 3.398468
577.3920, 8.522812
577.8741, 7.730980
578.3562, 3.226112
578.8383, 4.904770
579.3204, 15.09338
579.8026, 22.96857
580.2847, 19.45433
580.7668, 7.874939
581.2489, 3.323601
581.7310, 11.88170
582.2131, 17.27746
582.6953, 13.80041
583.1774, 9.004906
583.6595, 9.765671
584.1416, 15.25011
584.6237, 19.99447
585.1058, 20.43565
585.5880, 18.02609
586.0701, 15.77992
586.5522, 13.69373
587.0343, 11.70678
587.5164, 9.454224
587.9985, 7.765839
588.4807, 7.431145
588.9628, 8.368294
589.4449, 9.539070
589.9270, 11.10767
590.4091, 11.89877
590.8912, 9.726616
591.3734, 7.341682
591.8555, 11.03343
592.3376, 20.90439
592.8197, 27.67625
593.3018, 21.27873
593.7839, 4.259995
594.2661, 1.688614
594.7482, 9.390778
595.2303, 19.07942
595.7124, 22.93098
596.1945, 23.75838
596.6766, 22.87747
597.1588, 20.54277
597.6409, 17.61830
598.1230, 14.08078
598.6051, 10.44458
599.0872, 6.585236
599.5693, 3.018654
600.0515, 1.953575
600.5336, 4.179779
601.0157, 6.373184
601.4978, 4.156624
601.9799, 3.058846
602.4620, 7.065804
602.9442, 6.897926
603.4263, 4.613029
603.9084, 0.7536930
604.3905, 7.254326
604.8726, 13.66846
605.3547, 19.56178
605.8369, 22.76079
606.3190, 20.83768
606.8011, 15.68774
607.2832, 9.672401
607.7653, 3.064667
608.2474, 1.919258
608.7296, 4.504074
609.2117, 4.397186
609.6938, 0.5289380
610.1759, 8.713623
610.6580, 15.16947
611.1401, 17.48622
611.6223, 18.79877
612.1044, 19.53050
612.5865, 20.23826
613.0686, 22.45650
613.5507, 26.35496
614.0328, 28.15921
614.5150, 21.57965
614.9971, 10.11531
615.4792, 6.302673
615.9613, 11.04614
616.4434, 15.03162
616.9255, 13.27969
617.4077, 9.270149
617.8898, 9.999687
618.3719, 18.14400
618.8540, 22.04033
619.3361, 18.25977
619.8182, 13.20033
620.3004, 6.959290
620.7825, 2.728767
621.2646, 7.608353
621.7467, 23.62915
622.2288, 39.22998
622.7109, 38.73740
623.1931, 25.02936
623.6752, 16.30712
624.1573, 13.49690
624.6394, 14.05750
625.1215, 18.06802
625.6036, 23.79566
626.0858, 28.29893
626.5679, 32.53252
627.0500, 32.57950
627.5321, 21.98598
628.0142, 12.63096
628.4963, 13.90320
628.9785, 21.75098
629.4606, 27.82184
629.9427, 28.76470
630.4248, 26.70520
630.9069, 22.62253
631.3890, 16.99738
631.8712, 17.89115
632.3533, 28.47707
632.8354, 35.50272
633.3175, 29.97150
633.7996, 18.49083
634.2817, 13.48016
634.7639, 15.79577
635.2460, 18.94940
635.7281, 23.88270
636.2102, 27.67465
636.6923, 27.53990
637.1744, 24.76519
637.6566, 22.53606
638.1387, 22.04866
638.6208, 21.16913
639.1029, 15.42642
639.5850, 5.191162
640.0671, 1.986183
640.5493, 8.118675
641.0314, 14.73866
641.5135, 18.75444
641.9956, 20.14484
642.4777, 18.42556
642.9598, 12.68356
643.4420, 8.566757
643.9241, 7.665070
644.4062, 8.340370
644.8883, 11.37807
645.3704, 14.74797
645.8525, 13.96307
646.3347, 7.616432
646.8168, 0.4044190
647.2989, 1.515678
647.7810, 1.509506
648.2631, 4.068657
648.7452, 5.912003
649.2274, 8.220856
649.7095, 12.39748
650.1916, 16.63098
650.6737, 17.80497
651.1558, 15.46717
651.6379, 13.87388
652.1201, 15.25317
652.6022, 16.03492
653.0843, 12.13919
653.5664, 6.414665
654.0485, 3.876053
654.5306, 5.939270
655.0128, 10.06799
655.4949, 14.06760
655.9770, 17.78563
656.4591, 20.51608
656.9412, 22.49265
657.4233, 21.83963
657.9055, 15.69690
658.3876, 8.985245
658.8697, 9.855423
659.3518, 18.82868
659.8339, 23.48698
660.3160, 20.85571
660.7982, 15.95213
661.2803, 7.128410
661.7624, 0.5354540
662.2445, 1.535202
662.7266, 13.57136
663.2087, 23.69020
663.6909, 19.36717
664.1730, 6.349251
664.6551, 3.214035
665.1372, 10.66201
665.6193, 16.33434
666.1014, 16.04708
666.5836, 13.59746
667.0657, 13.25476
667.5478, 15.34636
668.0299, 16.45411
668.5120, 16.94093
668.9941, 15.88458
669.4763, 8.655792
669.9584, 2.670166
670.4405, 8.368805
670.9226, 23.86507
671.4047, 35.40881
671.8868, 32.66122
672.3690, 22.98459
672.8511, 19.34842
673.3332, 21.03130
673.8153, 21.10597
674.2974, 17.71841
674.7795, 14.93246
675.2617, 16.69347
675.7438, 21.80770
676.2259, 23.47018
676.7080, 18.34338
677.1901, 14.69468
677.6722, 13.76125
678.1544, 13.84639
678.6365, 14.52545
679.1186, 15.18366
679.6007, 14.11080
680.0828, 9.549805
680.5649, 6.368546
681.0471, 12.44202
681.5292, 23.61003
682.0113, 28.04729
682.4934, 24.45422
682.9755, 19.80780
683.4576, 18.46082
683.9398, 19.15618
684.4219, 18.68092
684.9040, 17.27031
685.3861, 14.10871
685.8682, 5.640770
686.3503, 0.7989120
686.8325, 1.084465
687.3146, 2.017700
687.7967, 3.875397
688.2788, 3.150742
688.7609, 3.808014
689.2430, 12.00473
689.7252, 20.53748
690.2073, 18.33607
690.6894, 7.562477
691.1715, 2.154053
691.6536, 6.889725
692.1357, 7.213760
692.6179, 2.742760
693.1000, 7.068901
693.5821, 11.01809
694.0642, 5.869743
694.5463, 1.330528
695.0284, 1.281364
695.5106, 3.015533
695.9927, 3.338646
696.4748, 2.239166
696.9569, 3.459930
697.4390, 10.72284
697.9211, 17.73608
698.4033, 20.25758
698.8854, 20.25343
699.3675, 21.17541
699.8496, 23.42714
700.3317, 24.20091
700.8138, 20.48784
701.2960, 14.33112
701.7781, 12.43453
702.2602, 15.17340
702.7423, 16.54401
703.2244, 14.28577
703.7065, 12.73118
704.1887, 16.47104
704.6708, 24.41818
705.1529, 29.01913
705.6350, 30.14301
706.1171, 28.71454
706.5992, 22.10312
707.0814, 15.35207
707.5635, 12.36768
708.0456, 12.45204
708.5277, 13.15065
709.0098, 13.53089
709.4919, 13.75739
709.9741, 12.83057
710.4562, 11.82852
710.9383, 14.43308
711.4204, 20.58736
711.9025, 26.21254
712.3846, 29.12348
712.8668, 30.05299
713.3489, 29.38239
713.8310, 26.15833
714.3131, 23.56221
714.7952, 23.18705
715.2773, 21.70494
715.7595, 15.81719
716.2416, 9.665283
716.7237, 8.703323
717.2058, 13.43269
717.6879, 17.78387
718.1700, 16.74930
718.6522, 16.19344
719.1343, 25.04892
719.6164, 37.31126
720.0985, 38.06576
720.5806, 24.99706
721.0627, 12.87984
721.5449, 16.41594
722.0270, 30.70168
722.5091, 34.86088
722.9912, 26.51920
723.4733, 21.99236
723.9554, 26.91683
724.4376, 32.01249
724.9197, 28.09062
725.4018, 17.59330
725.8839, 12.92764
726.3660, 19.61753
726.8481, 23.68638
727.3303, 21.00500
727.8124, 16.21946
728.2945, 11.34428
728.7766, 7.441566
729.2587, 6.492195
729.7408, 9.561996
730.2230, 12.72942
730.7051, 11.57001
731.1872, 7.437057
731.6693, 2.893845
732.1514, 1.708618
732.6335, 3.622681
733.1157, 1.303162
733.5978, 2.603363
734.0799, 3.854736
734.5620, 1.866745
735.0441, 2.616386
735.5262, 9.588562
736.0084, 13.97671
736.4905, 10.97237
736.9726, 6.509735
737.4547, 5.247536
737.9368, 7.392487
738.4189, 11.60436
738.9011, 21.48819
739.3832, 28.85627
739.8653, 27.75162
740.3474, 21.80927
740.8295, 13.22935
741.3116, 4.274284
741.7938, 1.519852
742.2759, 10.20083
742.7580, 23.64433
743.2401, 28.64398
743.7222, 25.66664
744.2043, 23.63368
744.6865, 23.47065
745.1686, 24.62564
745.6507, 27.38728
746.1328, 30.48774
746.6149, 30.96266
747.0970, 27.55969
747.5792, 24.90018
748.0613, 24.10532
748.5433, 22.70776
749.0255, 17.33160
749.5076, 11.84642
749.9897, 12.25223
750.4718, 19.32281
750.9539, 26.82211
751.4360, 31.99720
751.9182, 35.14708
752.4003, 37.17494
752.8824, 37.24693
753.3645, 30.75937
753.8466, 18.15985
754.3287, 11.29626
754.8109, 21.54727
755.2930, 40.95856
755.7751, 43.20605
756.2572, 25.51553
756.7393, 12.35450
757.2214, 7.098366
757.7036, 6.040810
758.1857, 8.025742
758.6678, 12.07576
759.1499, 15.62237
759.6320, 18.98177
760.1141, 21.11736
760.5963, 22.27782
761.0784, 21.85496
761.5605, 17.50889
762.0426, 12.31310
762.5247, 11.76472
763.0068, 16.58971
763.4890, 19.48372
763.9711, 12.83428
764.4532, 3.364632
764.9353, 0.2461620
765.4174, 1.594269
765.8995, 1.856064
766.3817, 0.2923810
766.8638, 3.435776
767.3459, 6.812859
767.8280, 9.438812
768.3101, 6.365601
768.7922, 4.535088
769.2744, 9.169647
769.7565, 2.340469
770.2386, 4.694237
770.7207, 5.712898
771.2028, 1.448532
771.6849, 7.030792
772.1671, 23.86029
772.6492, 33.40323
773.1313, 29.97105
773.6134, 23.00713
774.0955, 14.52016
774.5776, 6.824760
775.0598, 3.079247
775.5419, 3.659981
776.0240, 5.194977
776.5061, 5.505623
776.9882, 5.456802
777.4703, 5.195740
777.9525, 5.566452
778.4346, 10.37781
778.9167, 19.72909
779.3988, 26.08492
779.8809, 22.42738
780.3630, 13.86530
780.8452, 17.85144
781.3273, 37.51613
781.8094, 44.46427
782.2915, 30.03000
782.7736, 16.93223
783.2557, 20.24356
783.7379, 32.10413
784.2200, 35.11051
784.7021, 25.91821
785.1842, 20.18402
785.6663, 22.45256
786.1484, 23.75603
786.6306, 17.04539
787.1127, 9.873230
787.5948, 13.55869
788.0769, 26.55596
788.5590, 35.01981
789.0411, 27.75211
789.5233, 17.30180
790.0054, 15.79794
790.4875, 18.87563
790.9696, 18.24918
791.4517, 13.54243
791.9338, 10.99330
792.4160, 14.88965
792.8981, 20.53713
793.3802, 17.54903
793.8623, 6.403343
794.3444, 1.864456
794.8265, 5.733963
795.3087, 10.41679
795.7908, 12.64212
796.2729, 13.85655
796.7550, 16.18019
797.2371, 19.77415
797.7192, 23.41618
798.2014, 29.41982
798.6835, 31.49964
799.1656, 25.01858
799.6477, 17.13675
800.1298, 12.98955
800.6119, 12.44962
801.0941, 13.76080
801.5762, 18.29685
802.0583, 20.72038
802.5404, 15.02386
803.0225, 8.275940
803.5046, 9.072487
803.9868, 15.15884
804.4689, 19.03637
804.9510, 17.82941
805.4331, 14.91723
805.9152, 13.85814
806.3973, 13.98376
806.8795, 13.43700
807.3616, 12.26201
807.8437, 10.78058
808.3258, 9.004829
808.8079, 7.998161
809.2900, 9.153503
809.7722, 11.68124
810.2543, 10.47816
810.7364, 2.289307
811.2185, 0.7296300
811.7006, 12.56152
812.1827, 23.67538
812.6649, 25.10092
813.1470, 20.57964
813.6291, 16.56803
814.1112, 12.58430
814.5933, 11.69675
815.0754, 18.99098
815.5576, 24.16208
816.0397, 19.78256
816.5218, 12.31253
817.0039, 9.321350
817.4860, 11.62255
817.9681, 15.96262
818.4503, 23.01374
818.9324, 27.74016
819.4145, 22.40845
819.8966, 12.80276
820.3787, 9.586258
820.8608, 12.75172
821.3430, 15.48055
821.8251, 14.14023
822.3072, 11.94647
822.7893, 15.13224
823.2714, 22.83559
823.7535, 23.69145
824.2357, 16.32265
824.7178, 12.80024
825.1999, 18.58389
825.6820, 27.34453
826.1641, 33.37509
826.6462, 36.67798
827.1284, 33.46272
827.6105, 15.46643
828.0926, 6.954643
828.5747, 20.15119
829.0568, 33.99657
829.5389, 34.55891
830.0211, 27.98217
830.5032, 27.06593
830.9853, 35.06958
831.4674, 40.01665
831.9495, 35.45090
832.4316, 30.98434
832.9138, 33.15547
833.3959, 37.93651
833.8780, 40.54693
834.3601, 39.90076
834.8422, 36.09013
835.3243, 27.86774
835.8065, 18.59032
836.2886, 9.628601
836.7707, 3.744225
837.2528, 9.871727
837.7349, 25.41621
838.2170, 34.44876
838.6992, 28.74969
839.1813, 18.09155
839.6634, 16.59968
840.1455, 22.14442
840.6276, 24.58530
841.1097, 24.15188
841.5919, 21.13718
842.0740, 14.80676
842.5561, 9.610458
843.0382, 10.87276
843.5203, 16.80325
844.0024, 15.00953
844.4846, 2.013268
844.9667, 8.384705
845.4488, 5.206360
845.9309, 20.02432
846.4130, 26.28427
846.8951, 27.64782
847.3773, 30.25705
847.8594, 35.31284
848.3415, 34.94090
848.8236, 21.04211
849.3057, 10.05863
849.7878, 11.89778
850.2700, 17.10933
850.7521, 14.09928
851.2342, 4.868706
851.7163, 1.939339
852.1984, 12.78647
852.6805, 24.49400
853.1627, 30.19524
853.6448, 29.99315
854.1269, 18.46207
854.6090, 1.856155
855.0911, 2.875046
855.5732, 9.221428
856.0554, 24.23688
856.5375, 28.68803
857.0196, 26.32407
857.5017, 25.47661
857.9838, 25.59704
858.4659, 22.60464
858.9481, 15.82634
859.4302, 11.89703
859.9123, 15.68520
860.3944, 23.66365
860.8765, 27.71840
861.3586, 27.33244
861.8408, 27.82157
862.3229, 29.14149
862.8050, 32.21959
863.2871, 39.57895
863.7692, 45.18462
864.2513, 40.38425
864.7335, 25.77487
865.2156, 18.90067
865.6977, 27.10242
866.1798, 31.45359
866.6619, 29.81880
867.1440, 24.93429
867.6262, 12.43481
868.1083, 0.3098830
868.5904, 2.048378
869.0725, 24.34470
869.5546, 39.95856
870.0367, 35.87898
870.5189, 30.32795
871.0010, 35.29688
871.4831, 41.65164
871.9652, 36.15417
872.4473, 21.03087
872.9294, 11.27460
873.4116, 15.12379
873.8937, 21.33783
874.3758, 21.83733
874.8579, 19.05750
875.3400, 15.08829
875.8221, 10.78265
876.3043, 6.740952
876.7864, 3.472816
877.2685, 3.869095
877.7506, 12.58234
878.2327, 24.56573
878.7148, 30.55556
879.1970, 30.68485
879.6791, 23.28683
880.1612, 8.732193
880.6433, 3.744423
881.1254, 8.842468
881.6075, 7.719406
882.0897, 0.8009720
882.5718, 11.84692
883.0539, 20.79887
883.5360, 26.23272
884.0181, 25.75813
884.5002, 16.62719
884.9824, 7.021698
885.4645, 4.669365
885.9466, 8.307358
886.4287, 11.85902
886.9108, 16.10534
887.3929, 18.37242
887.8751, 17.59286
888.3572, 16.22997
888.8393, 14.82492
889.3214, 13.75463
889.8035, 14.34174
890.2856, 16.12345
890.7678, 15.89391
891.2499, 12.02051
891.7320, 8.028542
892.2141, 1.089119
892.6962, 2.372955
893.1783, 6.339958
893.6605, 21.02073
894.1426, 27.99837
894.6247, 23.48721
895.1068, 16.78024
895.5889, 10.28873
896.0710, 4.387505
896.5532, 3.499260
897.0353, 8.969315
897.5174, 3.302322
897.9995, 11.20407
898.4816, 21.17062
898.9637, 18.75195
899.4459, 13.66752
899.9280, 13.53196
900.4101, 16.67635
900.8922, 23.16473
901.3743, 30.61988
901.8564, 32.60449
902.3386, 27.53603
902.8207, 20.79440
903.3028, 18.02779
903.7849, 17.13121
904.2670, 15.27625
904.7491, 12.99458
905.2313, 11.67281
905.7134, 11.14159
906.1955, 9.539749
906.6776, 5.643913
907.1597, 3.938675
907.6418, 12.33311
908.1240, 28.27315
908.6061, 31.52716
909.0882, 21.51477
909.5703, 14.07528
910.0524, 12.66367
910.5345, 14.06628
911.0167, 16.17355
911.4988, 19.15376
911.9809, 24.17268
912.4630, 32.56386
912.9451, 34.43539
913.4272, 27.78201
913.9094, 21.70218
914.3915, 19.12476
914.8736, 18.14278
915.3557, 16.92580
915.8378, 15.63927
916.3199, 15.42938
916.8021, 17.69400
917.2842, 18.37418
917.7663, 15.92968
918.2484, 13.71793
918.7305, 14.14075
919.2126, 15.23781
919.6948, 13.57702
920.1769, 9.608932
920.6590, 7.409767
921.1411, 8.369606
921.6232, 9.682549
922.1053, 8.336914
922.5875, 9.640091
923.0696, 21.69759
923.5517, 37.23728
924.0338, 42.04898
924.5159, 33.49418
924.9980, 24.89779
925.4802, 19.97311
925.9623, 16.68480
926.4444, 13.67511
926.9265, 12.31682
927.4086, 16.78874
927.8907, 23.96379
928.3729, 23.88286
928.8550, 11.77697
929.3371, 3.065498
929.8192, 11.77685
930.3013, 23.39134
930.7834, 24.02776
931.2656, 19.34422
931.7477, 19.95821
932.2298, 25.80315
932.7119, 27.45613
933.1940, 18.64675
933.6761, 9.680824
934.1583, 12.71544
934.6404, 20.57179
935.1225, 22.48215
935.6046, 20.10406
936.0867, 20.09255
936.5688, 23.56839
937.0510, 24.84919
937.5331, 18.68219
938.0152, 10.63672
938.4973, 10.36889
938.9794, 15.07101
939.4615, 18.07343
939.9437, 19.52463
940.4258, 22.44032
940.9079, 27.67151
941.3900, 29.64059
941.8721, 20.70091
942.3542, 7.161392
942.8364, 7.963730
943.3185, 20.26853
943.8006, 25.13999
944.2827, 20.75160
944.7648, 20.51736
945.2469, 31.55608
945.7291, 41.46286
946.2111, 30.90580
946.6932, 5.285995
947.1754, 4.175827
947.6575, 2.898453
948.1396, 13.18230
948.6217, 25.37512
949.1038, 31.05974
949.5859, 24.05164
950.0681, 11.57978
950.5502, 6.434166
951.0323, 9.045296
951.5144, 10.56078
951.9965, 10.87489
952.4786, 10.11216
952.9608, 7.171867
953.4429, 7.782196
953.9250, 17.97896
954.4071, 30.95264
954.8892, 30.20096
955.3713, 13.17669
955.8535, 3.133499
956.3356, 1.308624
956.8177, 2.278366
957.2998, 5.479126
957.7819, 9.797432
958.2640, 15.73934
958.7462, 21.39530
959.2283, 19.40630
959.7104, 3.814796
960.1925, 0.5645370
960.6746, 16.40370
961.1567, 26.06328
961.6389, 13.28441
962.1210, 2.990746
962.6031, 3.439079
963.0852, 8.118271
963.5673, 12.05868
964.0494, 0.7543030
964.5316, 3.269997
965.0137, 7.254288
965.4958, 15.65673
965.9779, 14.80254
966.4600, 10.41300
966.9421, 7.277435
967.4243, 5.507561
967.9064, 5.809364
968.3885, 10.62383
968.8706, 13.58714
969.3527, 11.69462
969.8348, 11.03659
970.3170, 16.91927
970.7991, 23.57301
971.2812, 22.65031
971.7633, 14.89429
972.2454, 11.85537
972.7275, 19.51553
973.2097, 25.04169
973.6918, 26.74023
974.1739, 25.72839
974.6560, 21.85022
975.1381, 16.03835
975.6202, 6.958389
976.1024, 4.600075
976.5845, 7.616478
977.0666, 7.833519
977.5487, 20.88941
978.0308, 28.30812
978.5129, 30.24352
978.9951, 23.77686
979.4772, 13.48541
979.9593, 4.331871
980.4414, 2.759636
980.9235, 4.066643
981.4056, 6.962967
981.8878, 16.21841
982.3699, 17.13969
982.8520, 16.87978
983.3341, 22.20345
983.8162, 29.00305
984.2983, 29.67734
984.7805, 23.35258
985.2626, 16.79247
985.7447, 11.06010
986.2268, 7.152397
986.7089, 4.935043
987.1910, 5.157738
987.6732, 11.72948
988.1553, 19.76781
988.6374, 19.00542
989.1195, 8.175659
989.6016, 2.187286
990.0837, 12.35597
990.5659, 21.08164
991.0480, 19.88978
991.5301, 14.68990
992.0122, 7.929993
992.4943, 1.866470
992.9764, 0.6217880
993.4586, 4.677238
993.9407, 6.940178
994.4228, 7.7483997E-02
994.9049, 3.649170
995.3870, 6.743164
995.8691, 18.27639
996.3513, 18.83924
996.8334, 12.18997
997.3155, 5.078247
997.7976, 0.6817400
998.2797, 0.1292340
998.7618, 17.30055
999.2440, 30.79612
999.7261, 26.47301
1000.208, 16.74151
1000.690, 10.98671
1001.172, 9.066208
1001.655, 9.456100
1002.137, 11.64301
1002.619, 12.78203
1003.101, 10.72446
1003.583, 8.458992
1004.065, 5.402336
1004.547, 4.641701
1005.029, 11.68463
1005.511, 22.20201
1005.994, 26.60295
1006.476, 23.29227
1006.958, 18.01544
1007.440, 10.97172
1007.922, 5.700523
1008.404, 5.388794
1008.886, 6.161247
1009.368, 4.729958
1009.851, 1.966087
1010.333, 0.9105380
1010.815, 3.400925
1011.297, 2.830437
1011.779, 5.987373
1012.261, 12.69152
1012.743, 10.57465
1013.225, 6.595978
1013.707, 5.500015
1014.190, 6.842590
1014.672, 10.28398
1015.154, 15.79939
1015.636, 17.80690
1016.118, 12.58749
1016.600, 7.844696
1017.082, 6.887680
1017.564, 7.210060
1018.047, 7.064758
1018.529, 6.936508
1019.011, 7.252716
1019.493, 8.257507
1019.975, 11.12090
1020.457, 20.61150
1020.939, 25.64514
1021.421, 16.21118
1021.903, 7.287445
1022.386, 10.21367
1022.868, 18.60011
1023.350, 23.11496
1023.832, 22.97342
1024.314, 21.72948
1024.796, 18.82454
1025.278, 17.49181
1025.760, 19.55795
1026.243, 22.38394
1026.725, 24.63069
1027.207, 26.56538
1027.689, 29.69427
1028.171, 33.20164
1028.653, 31.84534
1029.135, 19.63918
1029.617, 12.99484
1030.099, 21.36377
1030.582, 28.07619
1031.064, 23.05351
1031.546, 14.79472
1032.028, 12.90300
1032.510, 16.03915
1032.992, 15.97131
1033.474, 9.765533
1033.956, 5.153519
1034.438, 2.124496
1034.921, 2.640823
1035.403, 11.35658
1035.885, 19.43555
1036.367, 16.42793
1036.849, 6.398132
1037.331, 3.854752
1037.813, 13.28386
1038.295, 18.34097
1038.778, 14.63425
1039.260, 13.08131
1039.742, 18.34596
1040.224, 23.58209
1040.706, 23.08327
1041.188, 19.25067
1041.670, 17.97519
1042.152, 20.02164
1042.635, 20.70357
1043.117, 19.14635
1043.599, 17.91695
1044.081, 17.33162
1044.563, 17.51346
1045.045, 19.49940
1045.527, 21.35466
1046.009, 19.01364
1046.491, 12.12915
1046.974, 8.155685
1047.456, 6.679703
1047.938, 10.58635
1048.420, 24.62952
1048.902, 31.80409
1049.384, 20.24318
1049.866, 3.063858
1050.348, 1.177353
1050.830, 6.404465
1051.313, 14.98340
1051.795, 25.40421
1052.277, 31.57594
1052.759, 31.96152
1053.241, 31.11203
1053.723, 30.52483
1054.205, 29.91539
1054.687, 28.25327
1055.169, 25.13884
1055.652, 21.77402
1056.134, 18.40045
1056.616, 12.49417
1057.098, 3.732071
1057.580, 0.9829710
1058.062, 7.407227
1058.544, 15.24948
1059.026, 18.12619
1059.509, 17.27460
1059.991, 13.36307
1060.473, 7.911316
1060.955, 11.55940
1061.437, 22.87827
1061.919, 29.06940
1062.401, 27.14128
1062.883, 19.82739
1063.365, 8.197372
1063.848, 2.048492
1064.330, 1.179222
1064.812, 7.374756
1065.294, 15.20836
1065.776, 20.86714
1066.258, 20.66164
1066.740, 15.34959
1067.222, 9.830803
1067.704, 6.312424
1068.187, 5.380768
1068.669, 8.064362
1069.151, 13.25347
1069.633, 21.61368
1070.115, 29.98099
1070.597, 34.40382
1071.079, 33.75383
1071.561, 23.59107
1072.044, 4.136971
1072.526, 8.376717
1073.008, 2.056351
1073.490, 15.29433
1073.972, 14.28976
1074.454, 8.510986
1074.936, 6.913414
1075.418, 8.375305
1075.901, 9.133553
1076.383, 8.931389
1076.865, 11.03699
1077.347, 18.26558
1077.829, 24.36749
1078.311, 26.58488
1078.793, 26.64283
1079.275, 24.88197
1079.757, 22.11964
1080.240, 18.25523
1080.722, 14.15987
1081.204, 13.08849
1081.686, 17.51774
1082.168, 18.01746
1082.650, 8.106667
1083.132, 0.3034520
1083.614, 0.6667180
1084.096, 1.202309
1084.579, 3.591270
1085.061, 6.429459
1085.543, 9.813293
1086.025, 13.82273
1086.507, 17.66852
1086.989, 22.31892
1087.471, 24.94047
1087.953, 24.97752
1088.436, 23.17862
1088.918, 18.81281
1089.400, 14.35172
1089.882, 13.18947
1090.364, 14.85091
1090.846, 15.60769
1091.328, 15.01320
1091.810, 16.23820
1092.292, 20.00610
1092.775, 22.32162
1093.257, 21.41290
1093.739, 21.36923
1094.221, 26.48094
1094.703, 33.00506
1095.185, 30.28057
1095.667, 19.71368
1096.149, 17.29250
1096.631, 22.49756
1097.114, 26.32118
1097.596, 27.38765
1098.078, 30.61620
1098.560, 39.66551
1099.042, 48.34757
1099.524, 49.08900
1100.006, 43.58582
1100.488, 32.03929
1100.971, 18.32852
1101.453, 11.75713
1101.935, 12.55114
1102.417, 18.64131
1102.899, 28.53904
1103.381, 36.28652
1103.863, 38.09332
1104.345, 34.81509
1104.828, 21.42948
1105.310, 8.400108
1105.792, 11.00028
1106.274, 21.33388
1106.756, 24.68294
1107.238, 20.19542
1107.720, 17.02904
1108.202, 19.66904
1108.684, 19.72253
1109.167, 8.668259
1109.649, 0.2210390
1110.131, 4.222092
1110.613, 10.57549
1111.095, 5.759636
1111.577, 5.204102
1112.059, 8.491486
1112.541, 1.663666
1113.023, 3.650673
1113.506, 2.666306
1113.988, 5.767220
1114.470, 20.59932
1114.952, 31.02202
1115.434, 27.27197
1115.916, 17.57913
1116.398, 10.13834
1116.880, 5.664627
1117.363, 10.26865
1117.845, 28.63715
1118.327, 34.92916
1118.809, 25.32117
1119.291, 18.74368
1119.773, 21.37608
1120.255, 24.21878
1120.737, 20.65487
1121.219, 12.71954
1121.702, 2.450356
1122.184, 8.705292
1122.666, 10.92575
1123.148, 5.402954
1123.630, 0.3046490
1124.112, 3.454109
1124.594, 10.37447
1125.076, 22.17126
1125.558, 32.90448
1126.041, 37.50348
1126.523, 37.01572
1127.005, 29.70071
1127.487, 20.45076
1127.969, 18.38804
1128.451, 20.90129
1128.933, 21.17896
1129.415, 18.07179
1129.898, 13.83386
1130.380, 8.185379
1130.862, 5.666260
1131.344, 10.84409
1131.826, 15.85239
1132.308, 14.33660
1132.790, 11.02208
1133.272, 9.965508
1133.755, 11.31818
1134.237, 14.95791
1134.719, 21.05766
1135.201, 25.50087
1135.683, 28.81162
1136.165, 28.69139
1136.647, 19.44259
1137.129, 13.69470
1137.611, 20.19475
1138.094, 28.10614
1138.576, 24.24376
1139.058, 13.03623
1139.540, 13.72075
1140.022, 29.80180
1140.504, 35.32889
1140.986, 27.72318
1141.468, 27.62224
1141.950, 41.20490
1142.433, 49.54607
1142.915, 40.72678
1143.397, 25.67175
1143.879, 18.99563
1144.361, 18.80696
1144.843, 19.75723
1145.325, 21.85364
1145.807, 26.79907
1146.290, 33.06705
1146.772, 33.49673
1147.254, 26.62542
1147.736, 17.74942
1148.218, 9.216545
1148.700, 4.527573
1149.182, 11.67701
1149.664, 20.00017
1150.146, 14.38181
1150.629, 5.174194
1151.111, 9.263153
1151.593, 22.68619
1152.075, 30.22556
1152.557, 28.00682
1153.039, 23.88126
1153.521, 20.12276
1154.003, 15.27516
1154.485, 3.605743
1154.968, 3.196129
1155.450, 4.367310
1155.932, 18.13184
1156.414, 31.45857
1156.896, 42.58151
1157.378, 41.92958
1157.860, 23.43904
1158.342, 18.94487
1158.825, 33.81953
1159.307, 43.60066
1159.789, 41.44093
1160.271, 38.11812
1160.753, 39.65366
1161.235, 42.36681
1161.717, 40.87106
1162.199, 36.92865
1162.682, 37.08568
1163.164, 39.99059
1163.646, 39.29247
1164.128, 35.45584
1164.610, 33.50740
1165.092, 34.20950
1165.574, 32.79904
1166.056, 26.04497
1166.538, 18.99690
1167.021, 15.75406
1167.503, 15.07063
1167.985, 14.41847
1168.467, 17.14249
1168.949, 34.66916
1169.431, 56.14761
1169.913, 55.66357
1170.395, 30.58162
1170.877, 14.28824
1171.360, 23.47997
1171.842, 29.54720
1172.324, 23.37590
1172.806, 18.68985
1173.288, 23.31689
1173.770, 28.68463
1174.252, 27.61264
1174.734, 22.32101
1175.217, 17.45552
1175.699, 12.87312
1176.181, 14.31824
1176.663, 23.22949
1177.145, 23.60016
1177.627, 12.78856
1178.109, 4.826019
1178.591, 5.423233
1179.073, 10.09212
1179.556, 15.40919
1180.038, 19.28261
1180.520, 17.14322
1181.002, 14.41795
1181.484, 20.40291
1181.966, 30.39684
1182.448, 32.18169
1182.930, 26.73466
1183.412, 25.19447
1183.895, 31.21736
1184.377, 33.51329
1184.859, 19.05231
1185.341, 8.197220
1185.823, 15.36562
1186.305, 24.74982
1186.787, 25.14191
1187.269, 22.04698
1187.752, 22.38614
1188.234, 25.86829
1188.716, 29.90338
1189.198, 35.74207
1189.680, 36.02531
1190.162, 28.74055
1190.644, 21.17052
1191.126, 13.39105
1191.609, 9.425980
1192.091, 11.72227
1192.573, 15.92725
1193.055, 17.18849
1193.537, 16.98816
1194.019, 19.66859
1194.501, 24.08408
1194.983, 27.14565
1195.465, 27.78569
1195.948, 20.49326
1196.430, 6.500198
1196.912, 2.419205
1197.394, 2.191254
1197.876, 2.335617
1198.358, 10.89796
1198.840, 17.98483
1199.322, 17.57851
1199.804, 16.28377
1200.287, 21.25983
1200.769, 27.60551
1201.251, 28.54900
1201.733, 24.44069
1202.215, 18.77048
1202.697, 10.02742
1203.179, 6.858246
1203.661, 10.96487
1204.144, 17.68803
1204.626, 29.03003
1205.108, 35.20511
1205.590, 30.78238
1206.072, 22.26387
1206.554, 16.23117
1207.036, 12.07227
1207.518, 7.599579
1208.000, 3.613327
1208.483, 5.719482
1208.965, 11.78329
1209.447, 11.47977
1209.929, 5.461746
1210.411, 4.765640
1210.893, 13.40410
1211.375, 24.32596
1211.857, 35.88820
1212.339, 42.42647
1212.822, 37.50473
1213.304, 28.67366
1213.786, 18.53323
1214.268, 10.36891
1214.750, 10.16798
1215.232, 14.55835
1215.714, 11.00981
1216.196, 3.720627
1216.679, 7.065369
1217.161, 6.340302
1217.643, 16.82353
1218.125, 25.99998
1218.607, 29.00433
1219.089, 23.36748
1219.571, 16.56497
1220.053, 14.90251
1220.536, 15.96622
1221.018, 14.49608
1221.500, 12.30098
1221.982, 17.87927
1222.464, 26.62509
1222.946, 24.81279
1223.428, 14.54953
1223.910, 5.575531
1224.392, 1.385071
1224.875, 5.121613
1225.357, 22.86177
1225.839, 35.35008
1226.321, 26.25284
1226.803, 17.36421
1227.285, 18.44710
1227.767, 25.86099
1228.249, 22.54002
1228.731, 14.58282
1229.214, 13.07068
1229.696, 17.07123
1230.178, 16.00969
1230.660, 7.498291
1231.142, 9.087326
1231.624, 23.40294
1232.106, 27.50427
1232.588, 16.28819
1233.071, 4.443893
1233.553, 0.1992190
1234.035, 0.1587680
1234.517, 4.818848
1234.999, 10.46135
1235.481, 12.68443
1235.963, 12.13026
1236.445, 8.970108
1236.927, 4.651581
1237.410, 0.0000000E+00
##END=



