##NAMES=Tellurobismuthite
##RRUFFID=R060948
##IDEAL CHEMISTRY=Bi^3+^_2_Te^2-^_3_
##LOCALITY=Little Ben mine, Matheson, Ontario, Canada
##OWNER=RRUFF
##SOURCE=Bob Jenkins
##DESCRIPTION=Metallic steel-gray crystals on quartz
##STATUS=The identification of this mineral is confirmed by single-crystal X-ray diffraction and chemical analysis.
##URL=rruff.info/R060948
##MEASURED CHEMISTRY=Bi_2.00_Te_3.00_
121.0409, 0.0000000E+00
121.5230, 2.070923
122.0051, 7.507813
122.4873, 36.92969
122.9694, 82.82788
123.4515, 140.9521
123.9336, 197.4169
124.4157, 241.1583
124.8979, 276.2506
125.3800, 309.7960
125.8621, 342.4495
126.3442, 375.1946
126.8263, 411.0380
127.3084, 449.6250
127.7905, 486.3245
128.2727, 515.8540
128.7548, 539.1605
129.2369, 559.0642
129.7190, 579.2987
130.2011, 597.1160
130.6832, 603.5259
131.1654, 597.0288
131.6475, 583.1559
132.1296, 571.9875
132.6117, 563.0760
133.0938, 545.5604
133.5759, 508.3290
134.0581, 452.9456
134.5402, 403.9510
135.0223, 362.7521
135.5044, 328.8735
135.9865, 303.8895
136.4686, 289.4917
136.9508, 275.8757
137.4329, 253.0273
137.9150, 218.5020
138.3971, 196.3074
138.8792, 194.4851
139.3613, 208.6310
139.8434, 210.1616
140.3256, 196.5590
140.8077, 175.7064
141.2898, 153.2659
141.7719, 127.2107
142.2540, 106.8495
142.7361, 95.14246
143.2183, 92.53394
143.7004, 91.45386
144.1825, 92.31677
144.6646, 94.31079
145.1467, 96.72961
145.6288, 101.8091
146.1110, 103.9124
146.5931, 100.9637
147.0752, 90.52588
147.5573, 81.32068
148.0394, 74.36743
148.5215, 68.45459
149.0037, 60.92029
149.4858, 51.05908
149.9679, 40.31519
150.4500, 28.65332
150.9321, 9.588013
151.4142, 0.9165040
151.8964, 3.856689
152.3785, 18.90796
152.8606, 26.57043
153.3427, 16.14294
153.8248, 4.995117
154.3069, 1.852173
154.7890, 19.48926
155.2712, 32.43579
155.7533, 34.62671
156.2354, 27.27673
156.7175, 21.89319
157.1996, 25.03406
157.6817, 28.77307
158.1639, 26.98657
158.6460, 8.942749
159.1281, 6.298218
159.6102, 13.14441
160.0923, 11.34229
160.5744, 4.437134
161.0566, 11.95251
161.5387, 31.01501
162.0208, 45.17554
162.5029, 51.27234
162.9850, 52.18237
163.4671, 46.63538
163.9493, 32.97437
164.4314, 23.60229
164.9135, 29.62012
165.3956, 43.31482
165.8777, 52.23535
166.3598, 46.95361
166.8420, 37.41956
167.3241, 31.16553
167.8062, 30.38672
168.2883, 29.41638
168.7704, 19.99890
169.2525, 6.902466
169.7346, 1.907837
170.2168, 20.12903
170.6989, 46.00574
171.1810, 64.86377
171.6631, 71.82312
172.1452, 71.56921
172.6273, 66.19556
173.1095, 58.00146
173.5916, 53.92004
174.0737, 61.13074
174.5558, 70.86401
175.0379, 77.24536
175.5201, 76.69360
176.0022, 72.41748
176.4843, 68.64221
176.9664, 65.65906
177.4485, 70.26587
177.9306, 97.04126
178.4128, 133.1268
178.8949, 155.9952
179.3770, 157.4391
179.8591, 146.4500
180.3412, 133.5493
180.8233, 118.4854
181.3055, 107.9172
181.7876, 108.4775
182.2697, 118.5776
182.7518, 133.6718
183.2339, 158.7213
183.7160, 187.1648
184.1982, 199.8671
184.6803, 195.6086
185.1624, 185.4739
185.6445, 182.0043
186.1266, 184.1775
186.6087, 184.1775
187.0908, 176.2800
187.5730, 162.5045
188.0551, 152.2635
188.5372, 146.4515
189.0193, 144.0752
189.5014, 143.7325
189.9835, 145.4054
190.4657, 149.1162
190.9478, 157.0819
191.4299, 168.2419
191.9120, 173.2622
192.3941, 169.9207
192.8762, 163.9055
193.3584, 168.4249
193.8405, 184.1039
194.3226, 195.5281
194.8047, 190.4165
195.2868, 170.0697
195.7689, 156.7435
196.2511, 153.3218
196.7332, 156.6162
197.2153, 159.5642
197.6974, 162.0859
198.1795, 164.3589
198.6616, 168.1967
199.1438, 174.0006
199.6259, 172.1705
200.1080, 159.0808
200.5901, 139.3011
201.0722, 127.7089
201.5543, 125.0618
202.0364, 126.5702
202.5186, 130.0767
203.0007, 136.2475
203.4828, 140.0025
203.9649, 139.7265
204.4470, 136.3135
204.9291, 135.5450
205.4113, 139.0055
205.8934, 141.1741
206.3755, 137.0662
206.8576, 125.7054
207.3397, 112.5400
207.8218, 97.33185
208.3040, 80.57153
208.7861, 67.28418
209.2682, 57.35193
209.7503, 51.77795
210.2324, 53.85199
210.7145, 67.34686
211.1967, 74.55847
211.6788, 69.44055
212.1609, 52.68451
212.6430, 44.07825
213.1251, 47.08258
213.6072, 53.37781
214.0894, 54.04651
214.5715, 46.98401
215.0536, 39.53229
215.5357, 33.44141
216.0178, 28.76544
216.4999, 24.31921
216.9820, 19.43317
217.4642, 15.09985
217.9463, 13.29327
218.4284, 15.87463
218.9105, 16.78040
219.3926, 14.18207
219.8747, 7.625366
220.3569, 0.6681520
220.8390, 8.053528
221.3211, 15.75696
221.8032, 18.74646
222.2853, 15.24414
222.7674, 10.39856
223.2496, 4.957642
223.7317, 1.873840
224.2138, 5.222961
224.6959, 4.264282
225.1780, 0.4904170
225.6601, 4.867126
226.1423, 14.87567
226.6244, 20.40704
227.1065, 16.53406
227.5886, 1.076660
228.0707, 9.313049
228.5528, 3.175964
229.0350, 9.652954
229.5171, 15.42377
229.9992, 10.30139
230.4813, 4.654602
230.9634, 2.126343
231.4455, 4.007629
231.9276, 4.634949
232.4098, 2.857056
232.8919, 0.3724980
233.3740, 0.9183960
233.8561, 7.490234
234.3382, 12.19476
234.8203, 11.20459
235.3025, 0.3417360
235.7846, 3.891479
236.2667, 2.288696
236.7488, 13.57971
237.2309, 18.35199
237.7130, 12.26202
238.1952, 6.233398
238.6773, 5.136902
239.1594, 12.82190
239.6415, 14.57520
240.1236, 6.641541
240.6057, 5.953674
241.0879, 11.26233
241.5700, 4.488281
242.0521, 2.367188
242.5342, 4.124084
243.0163, 2.623291
243.4984, 5.925964
243.9806, 2.698120
244.4627, 3.161499
244.9448, 1.379456
245.4269, 14.08929
245.9090, 28.18500
246.3911, 34.28662
246.8732, 28.24121
247.3554, 24.13873
247.8375, 22.40228
248.3196, 22.42566
248.8017, 23.35034
249.2838, 27.68121
249.7659, 29.10358
250.2481, 23.51801
250.7302, 4.212219
251.2123, 5.009399
251.6944, 0.7360840
252.1765, 14.95648
252.6586, 21.41687
253.1408, 16.32843
253.6229, 9.737122
254.1050, 5.739075
254.5871, 4.934937
255.0692, 5.377319
255.5513, 7.237732
256.0334, 10.29285
256.5156, 14.58356
256.9977, 22.06995
257.4798, 27.21143
257.9619, 26.53705
258.4440, 16.19183
258.9261, 11.26941
259.4083, 13.90662
259.8904, 20.96790
260.3725, 24.48816
260.8546, 22.16968
261.3367, 20.82715
261.8188, 24.36731
262.3010, 35.69928
262.7831, 41.93585
263.2652, 41.52472
263.7473, 36.87341
264.2294, 32.64215
264.7115, 27.71301
265.1937, 25.84052
265.6758, 30.77917
266.1579, 46.21381
266.6400, 52.12579
267.1221, 44.61938
267.6042, 30.45667
268.0864, 24.67407
268.5685, 30.09766
269.0506, 36.09735
269.5327, 37.90094
270.0148, 34.74152
270.4969, 31.13281
270.9791, 26.33038
271.4612, 21.88000
271.9433, 21.58881
272.4254, 26.66321
272.9075, 31.61737
273.3896, 32.72644
273.8718, 28.81342
274.3539, 32.16937
274.8360, 46.57477
275.3181, 63.30670
275.8002, 64.54218
276.2823, 46.88196
276.7645, 30.55237
277.2466, 24.97992
277.7287, 30.96381
278.2108, 35.24854
278.6929, 37.36505
279.1750, 37.77881
279.6572, 37.40442
280.1393, 36.54382
280.6214, 35.37988
281.1035, 33.70618
281.5856, 31.54907
282.0677, 30.10297
282.5499, 29.62335
283.0320, 29.16467
283.5141, 26.79932
283.9962, 22.15320
284.4783, 17.99133
284.9604, 15.29895
285.4425, 14.92798
285.9247, 18.31750
286.4068, 26.00494
286.8889, 34.41718
287.3710, 40.51447
287.8531, 44.92096
288.3352, 48.05481
288.8174, 49.56299
289.2995, 49.48584
289.7816, 48.89691
290.2637, 47.92761
290.7458, 46.69452
291.2279, 45.23975
291.7101, 43.16437
292.1922, 40.04688
292.6743, 34.90533
293.1564, 29.78986
293.6385, 28.56769
294.1206, 30.90521
294.6028, 34.11664
295.0849, 37.35529
295.5670, 40.95099
296.0491, 43.42688
296.5312, 42.84613
297.0133, 40.63300
297.4955, 41.99255
297.9776, 47.46851
298.4597, 52.38257
298.9418, 51.65393
299.4239, 46.11353
299.9060, 38.01440
300.3882, 25.95386
300.8703, 14.65210
301.3524, 9.439453
301.8345, 9.879456
302.3166, 14.75372
302.7987, 30.67700
303.2809, 50.44019
303.7630, 59.43158
304.2451, 48.03595
304.7272, 31.54480
305.2093, 26.05914
305.6914, 30.14233
306.1736, 35.88403
306.6557, 39.47754
307.1378, 41.33270
307.6199, 41.88818
308.1020, 40.91125
308.5841, 38.69067
309.0663, 35.18066
309.5484, 31.75677
310.0305, 30.36353
310.5126, 31.67615
310.9947, 34.54932
311.4768, 39.04987
311.9590, 47.58643
312.4411, 52.48761
312.9232, 44.85718
313.4053, 29.70441
313.8874, 18.99908
314.3695, 20.97076
314.8517, 27.17230
315.3337, 31.93286
315.8159, 34.04822
316.2980, 35.30090
316.7801, 38.63556
317.2622, 41.83215
317.7443, 40.70093
318.2264, 26.59302
318.7086, 13.16901
319.1907, 7.411560
319.6728, 11.33337
320.1549, 17.32336
320.6370, 25.22742
321.1191, 33.21722
321.6013, 38.99493
322.0834, 38.41370
322.5655, 38.72784
323.0476, 43.75519
323.5297, 54.88049
324.0118, 61.80066
324.4940, 58.82666
324.9761, 52.57648
325.4582, 49.24408
325.9403, 54.09955
326.4224, 57.35132
326.9045, 55.75635
327.3867, 48.88708
327.8688, 45.29034
328.3509, 50.08923
328.8330, 55.22650
329.3151, 55.02069
329.7972, 40.79388
330.2794, 33.82666
330.7615, 39.66052
331.2436, 56.23993
331.7257, 66.29962
332.2078, 68.08850
332.6899, 65.73468
333.1721, 60.95087
333.6542, 51.33228
334.1363, 44.32745
334.6184, 41.12146
335.1005, 40.58710
335.5826, 38.64307
336.0648, 33.82098
336.5469, 30.11932
337.0290, 30.35217
337.5111, 36.51666
337.9932, 38.54022
338.4753, 34.55292
338.9575, 27.79755
339.4396, 24.32709
339.9217, 24.19104
340.4038, 27.14612
340.8859, 35.03113
341.3680, 48.14606
341.8502, 55.25171
342.3323, 55.36810
342.8144, 51.49841
343.2965, 46.41095
343.7786, 40.06836
344.2607, 36.68207
344.7429, 39.95404
345.2250, 47.58398
345.7071, 48.84760
346.1892, 43.02155
346.6713, 36.04785
347.1534, 33.85028
347.6355, 35.90833
348.1176, 39.28485
348.5998, 44.07538
349.0819, 49.01074
349.5640, 51.04010
350.0461, 50.22815
350.5282, 49.02692
351.0103, 49.50012
351.4925, 51.02649
351.9746, 52.19452
352.4567, 52.33789
352.9388, 52.44629
353.4209, 55.46228
353.9030, 60.20502
354.3852, 61.46173
354.8673, 49.95319
355.3494, 35.55389
355.8315, 31.54547
356.3136, 43.54266
356.7957, 56.59711
357.2779, 58.33325
357.7600, 52.38794
358.2421, 46.94098
358.7242, 47.89093
359.2063, 49.31665
359.6884, 47.14801
360.1706, 40.75708
360.6527, 32.37415
361.1348, 17.42786
361.6169, 2.376160
362.0990, 4.062927
362.5811, 10.59955
363.0633, 25.42810
363.5454, 30.93347
364.0275, 26.37354
364.5096, 23.45654
364.9917, 25.91394
365.4738, 30.81293
365.9560, 35.78119
366.4381, 44.24475
366.9202, 48.55292
367.4023, 44.62292
367.8844, 33.70520
368.3665, 27.60645
368.8487, 33.50732
369.3308, 39.53644
369.8129, 39.67566
370.2950, 29.16510
370.7771, 19.97528
371.2592, 11.33331
371.7414, 4.195862
372.2235, 1.503174
372.7056, 6.315796
373.1877, 10.93213
373.6698, 11.50366
374.1519, 5.963013
374.6341, 5.415161
375.1162, 12.07373
375.5983, 21.29681
376.0804, 25.13342
376.5625, 21.45184
377.0446, 20.51404
377.5267, 27.63165
378.0089, 41.87836
378.4910, 48.06512
378.9731, 44.94373
379.4552, 37.72534
379.9373, 30.34406
380.4194, 22.82574
380.9016, 17.90039
381.3837, 16.42816
381.8658, 17.74683
382.3479, 21.64838
382.8300, 28.06384
383.3121, 32.35040
383.7943, 30.49548
384.2764, 23.73370
384.7585, 14.06122
385.2406, 0.1939090
385.7227, 12.28241
386.2048, 9.938599
386.6870, 3.151306
387.1691, 14.45776
387.6512, 13.22961
388.1333, 7.846313
388.6154, 9.320251
389.0975, 19.40912
389.5797, 29.90186
390.0618, 36.15021
390.5439, 38.40222
391.0260, 36.84424
391.5081, 25.36414
391.9902, 15.20166
392.4724, 14.43164
392.9545, 22.76288
393.4366, 30.72491
393.9187, 37.30334
394.4008, 40.13043
394.8829, 37.34869
395.3651, 20.99017
395.8472, 7.381226
396.3293, 0.4451900
396.8114, 0.6307370
397.2935, 1.233032
397.7756, 11.22363
398.2578, 19.52734
398.7399, 21.15869
399.2220, 9.348938
399.7041, 3.521729
400.1862, 9.558899
400.6683, 19.74847
401.1505, 21.14398
401.6326, 3.882813
402.1147, 7.662231
402.5968, 4.639099
403.0789, 15.02686
403.5610, 25.22540
404.0432, 20.99194
404.5253, 12.66797
405.0074, 10.68390
405.4895, 17.14673
405.9716, 21.05518
406.4537, 19.05389
406.9359, 13.58557
407.4180, 14.55847
407.9001, 22.91162
408.3822, 32.41290
408.8643, 40.13409
409.3464, 45.84589
409.8285, 47.08020
410.3106, 43.08710
410.7928, 35.75317
411.2749, 24.81512
411.7570, 11.48340
412.2391, 3.613708
412.7212, 8.458923
413.2033, 20.44220
413.6855, 30.28448
414.1676, 37.80249
414.6497, 41.47113
415.1318, 37.03430
415.6139, 28.19739
416.0960, 21.32214
416.5782, 20.00922
417.0603, 19.93298
417.5424, 17.66559
418.0245, 13.59448
418.5066, 9.627625
418.9887, 6.170471
419.4709, 3.501221
419.9530, 1.290955
420.4351, 1.825378
420.9172, 1.116699
421.3993, 9.676819
421.8814, 24.96338
422.3636, 34.39850
422.8457, 33.71179
423.3278, 29.17310
423.8099, 20.12964
424.2920, 5.098022
424.7741, 4.646851
425.2563, 6.427551
425.7384, 3.528076
426.2205, 0.4035030
426.7026, 7.746948
427.1847, 13.86963
427.6668, 17.54980
428.1490, 19.35645
428.6311, 22.81909
429.1132, 28.95868
429.5953, 34.84717
430.0774, 39.21240
430.5595, 42.33142
431.0417, 41.76062
431.5238, 36.39923
432.0059, 28.84003
432.4880, 23.45813
432.9701, 20.31287
433.4522, 17.60632
433.9344, 14.77258
434.4165, 11.81158
434.8986, 7.548523
435.3807, 1.763733
435.8628, 1.811523
436.3449, 2.630005
436.8271, 12.11304
437.3092, 18.57587
437.7913, 18.26428
438.2734, 16.44269
438.7555, 20.98364
439.2376, 29.78650
439.7197, 34.82379
440.2018, 25.00507
440.6840, 12.88025
441.1661, 11.91895
441.6482, 26.82098
442.1303, 39.28943
442.6124, 37.51489
443.0945, 28.11719
443.5767, 19.88855
444.0588, 16.80359
444.5409, 15.19830
445.0230, 13.30585
445.5051, 11.12787
445.9872, 10.55536
446.4694, 13.71967
446.9515, 17.36133
447.4336, 19.67206
447.9157, 20.03259
448.3978, 20.54840
448.8799, 20.60736
449.3621, 20.53455
449.8442, 21.73035
450.3263, 25.79987
450.8084, 27.96191
451.2905, 26.13641
451.7726, 20.06720
452.2548, 14.45825
452.7369, 8.832703
453.2190, 4.757568
453.7011, 4.171021
454.1832, 7.139771
454.6653, 11.65906
455.1475, 18.78162
455.6296, 25.81055
456.1117, 24.22168
456.5938, 14.60913
457.0759, 7.355835
457.5580, 13.57123
458.0402, 26.48297
458.5223, 31.65912
459.0044, 27.09760
459.4865, 18.52313
459.9686, 7.311340
460.4507, 3.393982
460.9329, 8.454895
461.4150, 1.250122
461.8971, 8.846497
462.3792, 16.34875
462.8613, 21.23077
463.3434, 24.77240
463.8256, 29.05402
464.3077, 31.23145
464.7898, 28.85089
465.2719, 17.22333
465.7540, 7.872925
466.2361, 3.193542
466.7183, 2.160461
467.2004, 2.891296
467.6825, 7.246582
468.1646, 11.23016
468.6467, 13.93671
469.1288, 15.28754
469.6110, 15.80054
470.0930, 15.10016
470.5752, 14.01874
471.0573, 12.99152
471.5394, 11.66315
472.0215, 11.94720
472.5036, 14.58136
472.9857, 18.56879
473.4679, 21.25153
473.9500, 22.49908
474.4321, 23.91302
474.9142, 27.81396
475.3963, 32.90271
475.8784, 32.59564
476.3606, 26.19342
476.8427, 18.88940
477.3248, 16.22028
477.8069, 16.89398
478.2890, 18.16132
478.7711, 20.95325
479.2533, 22.06830
479.7354, 15.42822
480.2175, 3.381531
480.6996, 4.484192
481.1817, 2.293762
481.6638, 11.41101
482.1460, 12.09222
482.6281, 1.374268
483.1102, 7.475952
483.5923, 10.42163
484.0744, 36.80530
484.5565, 52.82355
485.0387, 43.91534
485.5208, 35.87128
486.0029, 35.33496
486.4850, 41.31219
486.9671, 43.37799
487.4492, 38.18311
487.9314, 33.18689
488.4135, 33.31122
488.8956, 40.58862
489.3777, 42.39044
489.8598, 37.15936
490.3419, 28.58948
490.8241, 21.51581
491.3062, 15.76837
491.7883, 13.36694
492.2704, 16.37146
492.7525, 22.47357
493.2346, 25.99805
493.7168, 26.88831
494.1989, 27.56604
494.6810, 31.51050
495.1631, 36.28992
495.6452, 35.18115
496.1273, 25.03168
496.6095, 15.91559
497.0916, 22.35626
497.5737, 36.83356
498.0558, 44.69684
498.5379, 30.99109
499.0201, 15.43524
499.5022, 10.78656
499.9843, 16.75647
500.4664, 23.43066
500.9485, 29.39832
501.4306, 33.36676
501.9127, 34.28345
502.3948, 30.17975
502.8770, 25.86523
503.3591, 22.36444
503.8412, 18.72644
504.3233, 12.97021
504.8054, 2.669189
505.2875, 5.882996
505.7697, 11.44208
506.2518, 14.04944
506.7339, 12.96100
507.2160, 7.223511
507.6981, 0.3566890
508.1802, 4.895325
508.6624, 8.566528
509.1445, 12.82202
509.6266, 18.52509
510.1087, 23.37494
510.5908, 22.13837
511.0729, 16.16962
511.5551, 12.22504
512.0372, 14.81598
512.5193, 20.64001
513.0014, 25.70929
513.4835, 29.97015
513.9656, 33.04999
514.4478, 36.02771
514.9299, 37.03424
515.4120, 32.52515
515.8941, 15.35742
516.3762, 6.795410
516.8583, 26.68231
517.3405, 58.65674
517.8226, 76.02863
518.3047, 57.57660
518.7868, 39.18036
519.2689, 31.52429
519.7510, 34.26074
520.2332, 37.69110
520.7153, 43.56952
521.1974, 48.45508
521.6795, 49.31555
522.1616, 44.92389
522.6437, 38.18915
523.1259, 27.20691
523.6080, 16.87494
524.0901, 17.29773
524.5722, 29.00775
525.0543, 38.64313
525.5364, 40.84973
526.0186, 38.45129
526.5007, 39.30688
526.9828, 43.10938
527.4649, 45.13818
527.9470, 40.21704
528.4291, 31.87366
528.9113, 24.28229
529.3934, 17.38800
529.8755, 14.68274
530.3576, 22.71838
530.8397, 36.30139
531.3218, 46.72272
531.8040, 47.88104
532.2861, 45.79443
532.7682, 41.41467
533.2503, 35.20026
533.7324, 30.14362
534.2145, 27.34235
534.6967, 25.20520
535.1788, 23.04016
535.6609, 20.75604
536.1430, 18.93323
536.6251, 18.28387
537.1072, 17.37787
537.5894, 13.23883
538.0715, 4.204163
538.5536, 0.8314820
539.0357, 8.327148
539.5178, 21.45197
539.9999, 25.98645
540.4821, 21.69025
540.9642, 16.41986
541.4463, 14.77100
541.9284, 16.06757
542.4105, 22.11365
542.8926, 33.26465
543.3748, 41.71289
543.8569, 39.61353
544.3390, 31.06653
544.8211, 20.80682
545.3032, 4.278198
545.7853, 5.051697
546.2675, 6.519348
546.7495, 30.23993
547.2316, 46.01648
547.7137, 45.25366
548.1959, 38.74091
548.6780, 26.97601
549.1601, 8.717957
549.6422, 0.3189700
550.1243, 7.970093
550.6064, 18.89038
551.0886, 23.96155
551.5707, 20.75269
552.0528, 20.73639
552.5349, 25.81195
553.0170, 32.57220
553.4991, 34.08685
553.9813, 30.37213
554.4634, 28.88184
554.9455, 33.80438
555.4276, 41.94147
555.9097, 46.51428
556.3918, 47.62665
556.8740, 46.25415
557.3561, 41.23096
557.8382, 34.98944
558.3203, 30.01849
558.8024, 26.44781
559.2845, 25.19891
559.7667, 28.98566
560.2488, 34.54132
560.7309, 38.08478
561.2130, 37.87891
561.6951, 36.35944
562.1772, 32.97339
562.6594, 28.28864
563.1415, 24.74548
563.6236, 21.95374
564.1057, 21.50555
564.5878, 25.44592
565.0699, 34.73730
565.5521, 38.69403
566.0342, 35.56824
566.5163, 30.41547
566.9984, 28.26721
567.4805, 28.91626
567.9626, 27.79791
568.4448, 23.99005
568.9269, 18.79047
569.4090, 12.73608
569.8911, 6.641174
570.3732, 2.998169
570.8553, 3.517578
571.3375, 6.697693
571.8196, 12.58368
572.3017, 20.56616
572.7838, 26.37701
573.2659, 27.76483
573.7480, 26.39642
574.2302, 22.55804
574.7123, 14.57892
575.1944, 9.726501
575.6765, 12.42517
576.1586, 17.22034
576.6407, 18.60535
577.1229, 15.47107
577.6050, 10.58289
578.0871, 2.260559
578.5692, 6.817627
579.0513, 6.611023
579.5334, 4.944153
580.0156, 14.46417
580.4977, 13.94293
580.9798, 6.055298
581.4619, 3.674377
581.9440, 6.922302
582.4261, 10.98755
582.9083, 10.31708
583.3904, 7.941040
583.8725, 10.00098
584.3546, 19.42078
584.8367, 27.33960
585.3188, 25.38843
585.8010, 18.39148
586.2831, 13.82288
586.7652, 20.84424
587.2473, 23.73242
587.7294, 11.79572
588.2115, 11.22821
588.6937, 20.63721
589.1758, 3.830383
589.6579, 12.79846
590.1400, 18.92786
590.6221, 13.03204
591.1042, 8.323425
591.5864, 4.874634
592.0685, 3.351563
592.5506, 5.234619
593.0327, 10.32751
593.5148, 14.94916
593.9969, 19.10309
594.4791, 21.17426
594.9612, 15.22070
595.4433, 4.726563
595.9254, 5.9204001E-02
596.4075, 13.78784
596.8896, 30.11554
597.3718, 32.64673
597.8539, 23.84808
598.3360, 16.98895
598.8181, 19.32843
599.3002, 24.30408
599.7823, 29.07526
600.2645, 34.58124
600.7466, 35.07727
601.2287, 24.53552
601.7108, 13.10974
602.1929, 10.00555
602.6750, 19.86530
603.1572, 24.70905
603.6393, 20.11816
604.1214, 13.29755
604.6035, 17.98071
605.0856, 34.43018
605.5677, 47.06287
606.0499, 49.77008
606.5320, 44.96851
607.0141, 35.42511
607.4962, 21.72833
607.9783, 10.66998
608.4604, 7.088989
608.9425, 7.064392
609.4246, 7.031921
609.9067, 6.313477
610.3889, 7.620300
610.8710, 14.80133
611.3531, 23.20587
611.8352, 28.63159
612.3173, 28.62122
612.7994, 27.97803
613.2816, 27.26935
613.7637, 25.91931
614.2458, 23.27466
614.7279, 18.31610
615.2100, 16.33972
615.6921, 19.52527
616.1743, 26.56104
616.6564, 32.07764
617.1385, 36.06067
617.6206, 39.02460
618.1027, 39.76202
618.5848, 40.03796
619.0670, 46.38995
619.5491, 59.57233
620.0312, 67.47760
620.5133, 55.88684
620.9954, 35.95325
621.4775, 20.19293
621.9597, 11.13824
622.4418, 7.521240
622.9239, 13.36444
623.4060, 23.20758
623.8881, 28.35138
624.3702, 23.81049
624.8524, 19.60834
625.3345, 16.72455
625.8166, 15.34344
626.2987, 17.24176
626.7808, 23.53839
627.2629, 28.42767
627.7451, 28.73407
628.2272, 24.98651
628.7093, 19.74298
629.1914, 12.76416
629.6735, 8.724121
630.1556, 14.87769
630.6378, 25.93555
631.1199, 32.78448
631.6020, 33.12799
632.0841, 32.15869
632.5662, 34.55066
633.0483, 37.34772
633.5305, 36.68860
634.0126, 25.90253
634.4947, 17.86969
634.9768, 16.47491
635.4589, 20.02576
635.9410, 23.61481
636.4232, 28.17072
636.9053, 30.19855
637.3874, 27.58380
637.8695, 20.66418
638.3516, 19.55334
638.8337, 25.11572
639.3159, 30.60724
639.7980, 30.01233
640.2801, 25.52386
640.7622, 24.93927
641.2443, 29.15967
641.7264, 33.07959
642.2086, 29.65771
642.6907, 24.11523
643.1728, 24.05627
643.6549, 36.20868
644.1370, 45.42633
644.6191, 43.27765
645.1013, 34.71509
645.5834, 28.12225
646.0655, 28.02771
646.5476, 24.08929
647.0297, 13.15314
647.5118, 2.253906
647.9940, 6.431824
648.4761, 3.443237
648.9582, 15.08173
649.4403, 23.33972
649.9224, 28.48907
650.4045, 32.99426
650.8867, 36.89526
651.3688, 39.31140
651.8509, 38.83704
652.3330, 36.65741
652.8151, 34.61023
653.2972, 33.04297
653.7794, 31.28033
654.2615, 28.56384
654.7436, 25.78857
655.2257, 23.99622
655.7078, 24.33838
656.1899, 24.57391
656.6721, 25.01068
657.1542, 24.99371
657.6363, 22.75415
658.1184, 16.06921
658.6005, 12.79230
659.0826, 15.96979
659.5648, 23.72650
660.0469, 29.43781
660.5290, 33.10681
661.0111, 34.46222
661.4932, 33.19531
661.9753, 29.56696
662.4575, 23.13440
662.9396, 14.07300
663.4217, 5.565125
663.9038, 1.049438
664.3859, 5.654602
664.8680, 8.594788
665.3502, 10.99988
665.8323, 8.268494
666.3144, 8.577209
666.7965, 26.82715
667.2786, 33.47809
667.7607, 20.51367
668.2429, 12.44635
668.7250, 13.67346
669.2071, 18.23657
669.6892, 12.86310
670.1713, 2.856140
670.6534, 12.79645
671.1355, 9.456970
671.6176, 0.2731320
672.0997, 1.948425
672.5818, 2.159973
673.0640, 2.341370
673.5461, 12.70825
674.0282, 29.49188
674.5103, 36.76013
674.9924, 34.52417
675.4745, 32.38562
675.9567, 36.83118
676.4388, 39.60492
676.9209, 35.03833
677.4030, 20.21545
677.8851, 9.600647
678.3672, 3.702881
678.8494, 1.368408
679.3315, 2.858459
679.8136, 8.331177
680.2957, 10.31464
680.7778, 6.552490
681.2599, 3.521545
681.7421, 15.74677
682.2242, 35.83838
682.7063, 42.91510
683.1884, 19.32318
683.6705, 4.424683
684.1526, 2.237976
684.6348, 16.76788
685.1169, 32.59369
685.5990, 40.15228
686.0811, 42.24261
686.5632, 36.38239
687.0453, 24.57629
687.5275, 18.34210
688.0096, 19.39661
688.4917, 22.81458
688.9738, 27.22650
689.4559, 32.44141
689.9380, 36.69318
690.4202, 40.10425
690.9023, 40.71631
691.3844, 32.15912
691.8665, 20.93756
692.3486, 22.11688
692.8307, 39.22363
693.3129, 51.47711
693.7950, 37.85706
694.2771, 15.76135
694.7592, 2.925354
695.2413, 8.766235
695.7234, 14.57416
696.2056, 16.05121
696.6877, 16.81555
697.1698, 21.96979
697.6519, 33.99292
698.1340, 42.98376
698.6161, 46.65308
699.0983, 47.14740
699.5804, 49.70483
700.0625, 53.94153
700.5446, 55.91357
701.0267, 52.82452
701.5089, 47.48749
701.9910, 43.19385
702.4731, 39.80786
702.9552, 36.79181
703.4373, 32.31647
703.9194, 29.46790
704.4016, 31.07507
704.8837, 37.49988
705.3658, 41.04413
705.8479, 37.20013
706.3300, 35.04437
706.8121, 40.24249
707.2943, 54.90356
707.7764, 58.73071
708.2585, 49.30951
708.7406, 38.38281
709.2227, 40.87793
709.7048, 51.59473
710.1870, 49.33984
710.6691, 27.98199
711.1512, 10.76471
711.6333, 27.22321
712.1154, 56.79504
712.5975, 71.43933
713.0797, 51.35547
713.5618, 34.02313
714.0439, 32.15173
714.5260, 39.21149
715.0081, 44.20813
715.4902, 46.05884
715.9724, 47.26605
716.4545, 46.91241
716.9366, 47.08386
717.4187, 56.20288
717.9008, 74.34387
718.3829, 85.75568
718.8651, 80.46594
719.3472, 67.15405
719.8293, 58.84338
720.3114, 54.97925
720.7935, 52.71942
721.2756, 49.88525
721.7578, 48.69012
722.2399, 50.40894
722.7220, 54.71710
723.2041, 62.20190
723.6862, 81.03265
724.1683, 95.28864
724.6505, 95.86176
725.1326, 80.38422
725.6147, 71.44116
726.0968, 71.04077
726.5789, 72.45044
727.0610, 69.31042
727.5432, 63.01227
728.0253, 58.65918
728.5074, 55.59283
728.9895, 55.36212
729.4716, 64.67896
729.9537, 76.88306
730.4359, 83.84741
730.9180, 82.77094
731.4001, 78.58368
731.8822, 67.22131
732.3643, 55.75128
732.8464, 53.70898
733.3285, 67.98993
733.8106, 75.97552
734.2927, 73.01947
734.7748, 65.14325
735.2570, 64.80859
735.7391, 71.44556
736.2212, 76.15753
736.7033, 74.71112
737.1854, 71.80359
737.6675, 75.55157
738.1497, 83.12604
738.6318, 87.01324
739.1139, 79.79138
739.5960, 72.01141
740.0781, 69.06207
740.5602, 70.26990
741.0424, 70.42377
741.5245, 69.56757
742.0066, 66.79175
742.4887, 59.56531
742.9708, 49.22626
743.4529, 50.76807
743.9351, 65.29126
744.4172, 79.28888
744.8993, 83.95563
745.3814, 82.44897
745.8635, 81.26910
746.3456, 80.57312
746.8278, 79.36798
747.3099, 76.41058
747.7920, 73.09705
748.2741, 55.21992
748.7562, 72.53543
749.2383, 82.05860
749.7205, 84.20792
750.2026, 56.89877
750.6847, 67.62929
751.1668, 63.11520
751.6489, 57.97601
752.1310, 74.06051
752.6132, 51.03587
753.0953, 66.78379
753.5774, 67.05443
754.0595, 74.40860
754.5416, 66.42403
755.0237, 63.17717
755.5059, 75.27378
755.9880, 78.87467
756.4701, 69.12436
756.9522, 76.92880
757.4343, 56.58612
757.9164, 66.91064
758.3986, 80.06799
758.8807, 78.87885
759.3628, 56.95715
759.8449, 43.85815
760.3270, 46.89246
760.8091, 57.84949
761.2913, 62.68842
761.7734, 61.98834
762.2555, 59.08453
762.7376, 54.69623
763.2197, 49.25916
763.7018, 41.24921
764.1840, 32.55743
764.6661, 27.48413
765.1482, 27.45258
765.6303, 31.59851
766.1124, 42.75562
766.5945, 58.18015
767.0767, 68.05988
767.5588, 72.05341
768.0409, 71.44025
768.5230, 64.37433
769.0051, 53.18048
769.4872, 43.43307
769.9694, 35.30127
770.4515, 31.25708
770.9336, 37.22293
771.4157, 44.96326
771.8978, 45.00586
772.3799, 38.07123
772.8621, 32.76224
773.3442, 34.69965
773.8263, 36.63138
774.3084, 34.47852
774.7905, 28.10892
775.2726, 24.74689
775.7548, 25.20123
776.2369, 27.09750
776.7190, 29.10193
777.2011, 30.53763
777.6832, 28.17026
778.1653, 21.99548
778.6475, 14.72595
779.1296, 3.626343
779.6117, 4.688660
780.0938, 1.077515
780.5759, 24.52246
781.0580, 37.65079
781.5402, 17.05334
782.0223, 5.701599
782.5044, 8.159882
782.9865, 18.17651
783.4686, 31.59686
783.9507, 29.86865
784.4329, 20.51987
784.9150, 5.311401
785.3971, 12.45966
785.8792, 16.25107
786.3613, 3.218597
786.8434, 12.57336
787.3256, 19.08667
787.8077, 20.83096
788.2898, 23.07266
788.7719, 27.86966
789.2540, 30.71393
789.7361, 31.11731
790.2183, 28.58109
790.7004, 21.54904
791.1825, 6.696655
791.6646, 1.122131
792.1467, 0.1042180
792.6288, 5.705719
793.1110, 11.41086
793.5930, 16.65915
794.0751, 19.20929
794.5573, 17.84631
795.0394, 15.92786
795.5215, 16.28036
796.0036, 17.82523
796.4857, 19.22031
796.9678, 21.81415
797.4500, 21.94391
797.9321, 15.14786
798.4142, 8.058380
798.8963, 12.26852
799.3784, 32.20847
799.8605, 38.03406
800.3427, 20.79797
800.8248, 2.321381
801.3069, 4.008514
801.7890, 10.03604
802.2711, 23.87833
802.7532, 34.84027
803.2354, 39.85007
803.7175, 33.02261
804.1996, 20.01001
804.6817, 10.18225
805.1638, 5.598145
805.6459, 4.476166
806.1281, 8.660706
806.6102, 15.21902
807.0923, 16.95700
807.5744, 13.40872
808.0565, 11.83118
808.5386, 15.12479
809.0208, 19.22849
809.5029, 15.71732
809.9850, 8.152954
810.4671, 5.179718
810.9492, 19.07260
811.4313, 29.02289
811.9135, 22.14337
812.3956, 5.360291
812.8777, 4.715149
813.3598, 4.345886
813.8419, 3.614349
814.3240, 5.344208
814.8062, 6.962799
815.2883, 0.5714420
815.7704, 12.91891
816.2525, 24.45813
816.7346, 31.77878
817.2167, 34.14600
817.6989, 26.84943
818.1810, 14.02878
818.6631, 5.431976
819.1452, 7.310547
819.6273, 10.85449
820.1094, 13.72040
820.5916, 16.31183
821.0737, 19.88840
821.5558, 24.98807
822.0379, 29.19919
822.5200, 32.14081
823.0021, 33.42923
823.4843, 32.26431
823.9664, 28.72235
824.4485, 22.97223
824.9306, 8.704346
825.4127, 1.493103
825.8948, 5.900543
826.3770, 24.20020
826.8591, 36.74597
827.3412, 37.18997
827.8233, 34.14468
828.3054, 26.67636
828.7875, 17.58923
829.2697, 16.69885
829.7518, 24.66031
830.2339, 28.86981
830.7160, 21.54794
831.1981, 12.58670
831.6802, 23.84485
832.1624, 46.43875
832.6445, 56.29886
833.1266, 23.84741
833.6087, 3.353729
834.0908, 0.9967650
834.5729, 21.83441
835.0551, 36.58679
835.5372, 41.80881
836.0193, 41.36984
836.5014, 34.07407
836.9835, 23.79367
837.4656, 19.70145
837.9478, 21.66174
838.4299, 25.83585
838.9120, 32.29630
839.3941, 38.57382
839.8762, 44.12244
840.3583, 47.53271
840.8405, 45.95074
841.3226, 32.56693
841.8047, 19.89261
842.2868, 7.659332
842.7689, 1.411713
843.2510, 0.6314390
843.7332, 15.84891
844.2153, 29.67972
844.6974, 37.89499
845.1795, 40.49515
845.6616, 33.60471
846.1437, 21.39307
846.6259, 14.03024
847.1080, 20.57874
847.5901, 27.32672
848.0722, 28.20700
848.5543, 25.54199
849.0364, 24.53659
849.5186, 27.24258
850.0007, 26.49573
850.4828, 19.43613
850.9649, 10.86063
851.4470, 11.17560
851.9291, 18.63809
852.4113, 23.71530
852.8934, 23.48795
853.3755, 20.25861
853.8576, 13.04749
854.3397, 5.031067
854.8218, 0.9803470
855.3040, 4.493530
855.7860, 9.280548
856.2681, 16.37317
856.7502, 23.01218
857.2324, 24.60550
857.7145, 20.82767
858.1966, 16.56558
858.6787, 11.67209
859.1608, 8.860779
859.6429, 15.11429
860.1251, 25.03485
860.6072, 29.45038
861.0893, 22.83661
861.5714, 16.64496
862.0535, 17.25003
862.5356, 19.29443
863.0178, 16.18054
863.4999, 5.023163
863.9820, 2.957336
864.4641, 7.002350
864.9462, 7.744965
865.4283, 5.349426
865.9105, 0.2098690
866.3926, 8.112976
866.8747, 20.95837
867.3568, 29.44635
867.8389, 21.00244
868.3210, 8.546478
868.8032, 4.582886
869.2853, 17.13531
869.7674, 24.55527
870.2495, 24.30157
870.7316, 22.14136
871.2137, 26.02795
871.6959, 34.10956
872.1780, 33.37943
872.6601, 22.48752
873.1422, 13.21106
873.6243, 18.98529
874.1064, 28.94864
874.5886, 28.95148
875.0707, 14.69446
875.5528, 9.499847
876.0349, 32.42981
876.5170, 53.10556
876.9991, 53.90005
877.4813, 32.25360
877.9634, 19.77841
878.4455, 17.14804
878.9276, 17.73633
879.4097, 15.87985
879.8918, 14.36203
880.3740, 19.69708
880.8561, 31.27872
881.3382, 38.87631
881.8203, 34.58618
882.3024, 28.05341
882.7845, 22.66235
883.2667, 18.43237
883.7488, 21.10870
884.2309, 33.07291
884.7130, 41.15536
885.1951, 35.24606
885.6772, 22.77759
886.1594, 24.84796
886.6415, 38.11041
887.1236, 47.22412
887.6057, 37.55786
888.0878, 27.63715
888.5699, 30.30032
889.0521, 42.05667
889.5342, 45.99994
890.0163, 37.49158
890.4984, 30.43558
890.9805, 28.49222
891.4626, 29.36835
891.9448, 29.55621
892.4269, 29.44427
892.9090, 29.80267
893.3911, 31.48825
893.8732, 33.18277
894.3553, 34.33148
894.8375, 34.68365
895.3196, 33.74738
895.8017, 29.71948
896.2838, 26.89288
896.7659, 25.87024
897.2480, 25.87628
897.7302, 25.98685
898.2123, 26.13864
898.6944, 25.49716
899.1765, 23.74930
899.6586, 21.84207
900.1407, 20.49960
900.6229, 19.49640
901.1050, 19.18234
901.5871, 18.50162
902.0692, 19.48788
902.5513, 25.69263
903.0334, 30.02563
903.5156, 23.40158
903.9977, 5.008179
904.4798, 1.098297
904.9619, 14.24399
905.4440, 28.51129
905.9261, 29.44992
906.4083, 23.06650
906.8904, 15.05029
907.3725, 5.995209
907.8546, 0.7973940
908.3367, 0.3656310
908.8188, 3.334442
909.3010, 14.76520
909.7831, 33.76855
910.2652, 38.53549
910.7473, 27.87305
911.2294, 17.64917
911.7115, 21.72269
912.1937, 30.31161
912.6758, 27.04391
913.1579, 14.31836
913.6400, 4.347931
914.1221, 1.280090
914.6042, 2.876801
915.0864, 9.718719
915.5685, 20.33441
916.0506, 30.29080
916.5327, 39.94711
917.0148, 46.63486
917.4969, 50.09869
917.9790, 49.40448
918.4611, 39.36777
918.9432, 24.39511
919.4254, 14.28876
919.9075, 19.37918
920.3896, 23.39453
920.8717, 19.25684
921.3538, 11.90860
921.8359, 8.082581
922.3181, 9.648590
922.8002, 11.39981
923.2823, 12.72626
923.7644, 15.53937
924.2465, 22.23807
924.7286, 30.70258
925.2108, 37.28122
925.6929, 41.23743
926.1750, 43.25980
926.6571, 46.96738
927.1392, 46.26105
927.6213, 33.94348
928.1035, 5.147461
928.5856, 6.458405
929.0677, 2.167816
929.5498, 14.89053
930.0319, 19.95486
930.5140, 20.34497
930.9962, 21.56131
931.4783, 23.84412
931.9604, 26.36679
932.4425, 34.32861
932.9246, 37.02475
933.4067, 22.74854
933.8889, 3.739288
934.3710, 9.909790
934.8531, 8.691956
935.3352, 25.89395
935.8173, 30.02625
936.2994, 27.13159
936.7816, 28.04901
937.2637, 31.23102
937.7458, 32.31354
938.2279, 26.82971
938.7100, 21.83609
939.1921, 20.11682
939.6743, 20.47363
940.1564, 21.04947
940.6385, 21.92355
941.1206, 22.91824
941.6027, 24.40524
942.0848, 24.79419
942.5670, 19.59659
943.0491, 12.46649
943.5312, 9.970795
944.0133, 13.82401
944.4954, 21.28821
944.9775, 41.14841
945.4597, 56.21039
945.9418, 50.71350
946.4239, 18.60764
946.9060, 6.403046
947.3881, 16.38110
947.8702, 30.47238
948.3524, 35.43707
948.8345, 35.08658
949.3166, 36.91397
949.7987, 40.66971
950.2808, 41.10422
950.7629, 30.18829
951.2451, 21.74774
951.7272, 22.24316
952.2093, 29.49341
952.6914, 34.54541
953.1735, 37.09283
953.6556, 38.24222
954.1378, 38.87183
954.6199, 37.48471
955.1020, 27.66351
955.5841, 14.94107
956.0662, 10.27298
956.5483, 32.62961
957.0305, 43.18976
957.5126, 24.60748
957.9947, 0.6749570
958.4768, 4.161346
958.9589, 15.25699
959.4410, 25.11612
959.9232, 21.07483
960.4053, 14.34521
960.8874, 15.12894
961.3695, 19.99139
961.8516, 25.69186
962.3337, 32.19733
962.8159, 35.75650
963.2980, 36.98987
963.7801, 33.02423
964.2622, 19.33136
964.7443, 1.963928
965.2264, 6.642395
965.7086, 4.488220
966.1907, 16.68988
966.6728, 21.82916
967.1549, 23.99933
967.6370, 27.39026
968.1191, 30.90677
968.6013, 30.65515
969.0834, 23.34103
969.5655, 15.83691
970.0476, 7.546326
970.5297, 1.391876
971.0118, 5.290710
971.4940, 16.92599
971.9761, 23.69858
972.4582, 21.51764
972.9403, 18.47617
973.4224, 22.99496
973.9045, 28.42831
974.3867, 27.21085
974.8688, 15.14713
975.3509, 5.672607
975.8330, 2.573761
976.3151, 4.870575
976.7972, 7.360199
977.2794, 27.93488
977.7615, 39.87024
978.2436, 42.52560
978.7257, 36.36795
979.2078, 5.328308
979.6899, 18.74066
980.1720, 10.65723
980.6541, 20.97424
981.1362, 33.89325
981.6183, 23.68341
982.1005, 14.59634
982.5826, 13.96689
983.0647, 17.81390
983.5468, 21.57626
984.0289, 24.71625
984.5110, 26.13828
984.9932, 26.29633
985.4753, 23.33746
985.9574, 9.646698
986.4395, 2.809235
986.9216, 5.5663999E-02
987.4037, 20.11780
987.8859, 33.28671
988.3680, 38.48560
988.8501, 37.70718
989.3322, 26.81506
989.8143, 14.47607
990.2964, 11.33920
990.7786, 17.93176
991.2607, 25.83679
991.7428, 36.16611
992.2249, 42.55930
992.7070, 44.28488
993.1891, 40.90509
993.6713, 31.09421
994.1534, 16.05865
994.6355, 4.885315
995.1176, 1.998962
995.5997, 2.992859
996.0818, 6.101044
996.5640, 10.24448
997.0461, 13.87805
997.5282, 18.07123
998.0103, 18.49753
998.4924, 13.28320
998.9745, 8.245087
999.4567, 10.22540
999.9388, 17.17163
1000.421, 25.44797
1000.903, 34.61591
1001.385, 37.53265
1001.867, 20.11356
1002.349, 4.595825
1002.831, 7.519653
1003.314, 25.69675
1003.796, 34.25815
1004.278, 32.62903
1004.760, 25.25400
1005.242, 9.486786
1005.724, 5.167694
1006.206, 1.328400
1006.688, 13.65512
1007.171, 24.53540
1007.653, 25.47736
1008.135, 22.80014
1008.617, 15.35123
1009.099, 7.116669
1009.581, 0.9365540
1010.063, 2.976105
1010.545, 2.888000
1011.027, 19.41922
1011.510, 34.53394
1011.992, 38.07532
1012.474, 35.98621
1012.956, 31.45480
1013.438, 24.87177
1013.920, 22.92670
1014.402, 28.25360
1014.884, 32.26392
1015.367, 32.14963
1015.849, 28.39224
1016.331, 19.59253
1016.813, 8.731201
1017.295, 2.972290
1017.777, 8.540375
1018.259, 14.81357
1018.741, 20.33807
1019.223, 22.55246
1019.706, 16.85464
1020.188, 0.2241820
1020.670, 4.977600
1021.152, 3.396118
1021.634, 14.34790
1022.116, 18.08862
1022.598, 18.21204
1023.080, 19.63501
1023.563, 23.27213
1024.045, 24.15952
1024.527, 17.20306
1025.009, 13.17526
1025.491, 16.10916
1025.973, 23.61392
1026.455, 29.20291
1026.937, 32.70615
1027.419, 31.26547
1027.901, 20.98471
1028.384, 11.76663
1028.866, 8.715729
1029.348, 11.37613
1029.830, 20.53165
1030.312, 40.61917
1030.794, 51.86075
1031.276, 53.28549
1031.758, 49.92844
1032.241, 44.68539
1032.723, 38.18427
1033.205, 30.08249
1033.687, 20.91043
1034.169, 14.94485
1034.651, 16.06592
1035.133, 19.11752
1035.615, 23.92929
1036.098, 28.88257
1036.580, 28.03647
1037.062, 22.38867
1037.544, 23.22363
1038.026, 39.54489
1038.508, 51.96326
1038.990, 33.77322
1039.472, 7.007568
1039.954, 2.701263
1040.437, 14.33667
1040.919, 21.77917
1041.401, 16.39029
1041.883, 11.40588
1042.365, 19.23035
1042.847, 32.59567
1043.329, 32.11789
1043.811, 21.18332
1044.293, 13.11459
1044.776, 17.41809
1045.258, 21.70810
1045.740, 21.58139
1046.222, 19.81512
1046.704, 21.50726
1047.186, 26.62042
1047.668, 30.19318
1048.150, 31.70856
1048.633, 30.02054
1049.115, 19.33563
1049.597, 8.083160
1050.079, 5.093262
1050.561, 12.66647
1051.043, 18.58710
1051.525, 22.24612
1052.007, 25.31815
1052.490, 29.31409
1052.972, 32.54501
1053.454, 28.07928
1053.936, 19.55081
1054.418, 17.09369
1054.900, 33.43304
1055.382, 45.20917
1055.864, 45.85251
1056.346, 39.38348
1056.828, 26.62753
1057.311, 7.448853
1057.793, 2.938507
1058.275, 3.607727
1058.757, 2.338013
1059.239, 19.12906
1059.721, 36.03540
1060.203, 43.95248
1060.685, 42.88855
1061.168, 40.11331
1061.650, 36.36627
1062.132, 29.12122
1062.614, 15.36600
1063.096, 2.512634
1063.578, 7.475677
1064.060, 21.90994
1064.542, 26.89597
1065.025, 13.38675
1065.507, 3.482513
1065.989, 7.754761
1066.471, 14.05408
1066.953, 15.41644
1067.435, 12.19153
1067.917, 9.571686
1068.399, 7.787354
1068.881, 7.050720
1069.364, 5.412109
1069.846, 6.981171
1070.328, 19.66797
1070.810, 36.67139
1071.292, 41.33456
1071.774, 28.63055
1072.256, 20.10663
1072.738, 18.63425
1073.220, 20.22147
1073.703, 20.31088
1074.185, 20.48846
1074.667, 24.33633
1075.149, 32.38281
1075.631, 36.65680
1076.113, 32.19296
1076.595, 27.65326
1077.077, 26.03180
1077.559, 26.21143
1078.042, 24.50211
1078.524, 21.32138
1079.006, 19.67035
1079.488, 21.19354
1079.970, 22.36899
1080.452, 19.93475
1080.934, 17.16425
1081.416, 18.34814
1081.899, 25.34000
1082.381, 21.10669
1082.863, 4.447021
1083.345, 8.052460
1083.827, 0.4772640
1084.309, 15.05847
1084.791, 21.18707
1085.273, 20.18246
1085.755, 18.11826
1086.238, 15.92395
1086.720, 12.37296
1087.202, 6.281433
1087.684, 1.071655
1088.166, 2.479370
1088.648, 8.010986
1089.130, 12.26489
1089.612, 14.48792
1090.094, 15.83636
1090.577, 16.12952
1091.059, 16.39636
1091.541, 17.50067
1092.023, 19.19708
1092.505, 21.71161
1092.987, 24.45560
1093.469, 21.81445
1093.951, 7.383636
1094.434, 3.902222
1094.916, 1.835388
1095.398, 5.960114
1095.880, 25.00070
1096.362, 35.86063
1096.844, 38.97968
1097.326, 11.17038
1097.808, 23.24789
1098.291, 19.37439
1098.773, 15.12347
1099.255, 33.48019
1099.737, 10.18658
1100.219, 27.58881
1100.701, 28.75247
1101.183, 37.62161
1101.665, 30.12137
1102.147, 27.58435
1102.630, 41.15775
1103.112, 45.81161
1103.594, 26.43396
1104.076, 30.01947
1104.558, 30.42889
1105.040, 24.77383
1105.522, 17.55679
1106.004, 8.555023
1106.486, 0.4651180
1106.969, 5.357971
1107.451, 20.94992
1107.933, 30.07297
1108.415, 24.01620
1108.897, 19.34293
1109.379, 32.87653
1109.861, 48.65848
1110.343, 50.98877
1110.826, 38.30170
1111.308, 27.59735
1111.790, 17.71344
1112.272, 11.81955
1112.754, 13.99854
1113.236, 18.86136
1113.718, 18.98315
1114.200, 17.08331
1114.682, 20.05981
1115.165, 37.27124
1115.647, 41.63400
1116.129, 27.98492
1116.611, 10.60880
1117.093, 2.112183
1117.575, 1.193146
1118.057, 7.810791
1118.539, 20.96393
1119.021, 31.32001
1119.504, 34.72519
1119.986, 35.41837
1120.468, 34.19357
1120.950, 31.31955
1121.432, 25.28641
1121.914, 17.80774
1122.396, 17.20868
1122.878, 26.73816
1123.361, 34.69125
1123.843, 33.14200
1124.325, 28.49637
1124.807, 24.16913
1125.289, 20.47131
1125.771, 21.51291
1126.253, 27.01065
1126.735, 28.28403
1127.218, 18.21994
1127.700, 8.243286
1128.182, 9.773895
1128.664, 16.26187
1129.146, 18.52811
1129.628, 14.33963
1130.110, 12.01813
1130.592, 11.26309
1131.074, 13.80438
1131.557, 25.19922
1132.039, 37.67603
1132.521, 40.12561
1133.003, 35.12076
1133.485, 30.86728
1133.967, 31.12433
1134.449, 26.99878
1134.931, 15.55563
1135.413, 4.768524
1135.896, 7.060852
1136.378, 15.88016
1136.860, 16.37576
1137.342, 8.082214
1137.824, 7.092987
1138.306, 31.12210
1138.788, 47.36649
1139.270, 45.70178
1139.752, 33.30981
1140.235, 22.54648
1140.717, 14.52106
1141.199, 13.68610
1141.681, 22.99506
1142.163, 32.56229
1142.645, 40.21851
1143.127, 43.72977
1143.609, 40.59305
1144.092, 32.23871
1144.574, 27.87366
1145.056, 27.35324
1145.538, 30.43555
1146.020, 42.46130
1146.502, 48.55923
1146.984, 30.18069
1147.466, 6.419800
1147.948, 1.209778
1148.431, 10.16833
1148.913, 17.37616
1149.395, 20.57532
1149.877, 22.92459
1150.359, 27.59753
1150.841, 31.57330
1151.323, 31.38452
1151.805, 28.61530
1152.287, 26.43478
1152.770, 25.19232
1153.252, 24.76840
1153.734, 25.37695
1154.216, 25.57755
1154.698, 25.38858
1155.180, 23.13803
1155.662, 13.40903
1156.144, 2.220673
1156.627, 7.346832
1157.109, 5.383972
1157.591, 12.17331
1158.073, 6.063202
1158.555, 2.054016
1159.037, 5.847717
1159.519, 20.78085
1160.001, 27.32413
1160.484, 22.47034
1160.966, 19.86182
1161.448, 24.51480
1161.930, 27.34552
1162.412, 25.11121
1162.894, 19.30569
1163.376, 9.402191
1163.858, 0.9677430
1164.340, 0.5040890
1164.823, 20.80496
1165.305, 31.03799
1165.787, 12.47638
1166.269, 7.139648
1166.751, 11.23532
1167.233, 4.094482
1167.715, 5.233704
1168.197, 12.00958
1168.679, 13.24078
1169.162, 2.141449
1169.644, 14.85147
1170.126, 16.07233
1170.608, 13.57187
1171.090, 13.94272
1171.572, 16.84085
1172.054, 17.30780
1172.536, 15.37073
1173.019, 12.33771
1173.501, 5.894196
1173.983, 1.925201
1174.465, 5.081787
1174.947, 11.51746
1175.429, 16.35645
1175.911, 19.57043
1176.393, 22.12247
1176.875, 24.04636
1177.358, 26.17737
1177.840, 28.69913
1178.322, 32.01816
1178.804, 40.31229
1179.286, 48.94641
1179.768, 41.84433
1180.250, 18.07062
1180.732, 4.461823
1181.214, 6.750122
1181.697, 14.00473
1182.179, 20.15710
1182.661, 24.34152
1183.143, 25.60397
1183.625, 24.06680
1184.107, 18.99863
1184.589, 9.393951
1185.071, 8.488403
1185.554, 23.66537
1186.036, 37.96255
1186.518, 29.18549
1187.000, 12.42358
1187.482, 4.227661
1187.964, 6.292450
1188.446, 13.17279
1188.928, 26.04480
1189.411, 36.12823
1189.893, 39.37839
1190.375, 38.34445
1190.857, 34.32404
1191.339, 28.76056
1191.821, 23.63736
1192.303, 19.15680
1192.785, 15.37430
1193.267, 12.38092
1193.750, 9.627472
1194.232, 6.045837
1194.714, 3.146362
1195.196, 2.182037
1195.678, 3.480347
1196.160, 8.189941
1196.642, 20.90305
1197.124, 26.23187
1197.606, 22.32864
1198.089, 17.40952
1198.571, 18.08701
1199.053, 22.05753
1199.535, 27.90372
1200.017, 34.39334
1200.499, 37.86078
1200.981, 37.12952
1201.463, 34.33658
1201.945, 28.95688
1202.428, 24.20731
1202.910, 25.20670
1203.392, 27.94464
1203.874, 26.72635
1204.356, 21.57159
1204.838, 14.69308
1205.320, 1.408997
1205.802, 0.6897890
1206.285, 15.60406
1206.767, 32.82785
1207.249, 21.65674
1207.731, 0.2618100
1208.213, 1.200439
1208.695, 19.94397
1209.177, 34.28204
1209.659, 36.75412
1210.141, 35.23514
1210.624, 31.15372
1211.106, 25.24213
1211.588, 16.29755
1212.070, 7.291199
1212.552, 1.856262
1213.034, 0.3164670
1213.516, 7.579834
1213.998, 30.61682
1214.480, 44.06534
1214.963, 33.97281
1215.445, 14.42508
1215.927, 4.371796
1216.409, 3.029175
1216.891, 11.42068
1217.373, 34.18918
1217.855, 45.61169
1218.337, 41.91272
1218.820, 34.70096
1219.302, 29.27563
1219.784, 25.30930
1220.266, 22.02490
1220.748, 20.16306
1221.230, 18.52298
1221.712, 18.06647
1222.194, 14.38602
1222.677, 4.616913
1223.159, 1.092377
1223.641, 6.636597
1224.123, 19.25034
1224.605, 20.48306
1225.087, 14.71841
1225.569, 11.14178
1226.051, 15.95505
1226.533, 14.82755
1227.016, 3.351898
1227.498, 1.839661
1227.980, 21.70145
1228.462, 53.20822
1228.944, 52.31595
1229.426, 31.30460
1229.908, 22.67676
1230.390, 48.58282
1230.872, 58.47006
1231.355, 46.83771
1231.837, 31.59360
1232.319, 27.15564
1232.801, 29.46417
1233.283, 36.93866
1233.765, 46.57773
1234.247, 47.03442
1234.729, 29.90402
1235.212, 20.70511
1235.694, 23.30417
1236.176, 26.78232
1236.658, 16.63483
1237.140, 3.710114
1237.622, 4.522125
1238.104, 16.06427
1238.586, 19.29279
1239.068, 10.50793
1239.551, 4.459961
1240.033, 2.962524
1240.515, 6.512726
1240.997, 20.62326
1241.479, 34.89050
1241.961, 34.25073
1242.443, 21.18219
1242.925, 18.01910
1243.407, 28.94293
1243.890, 31.62988
1244.372, 21.13345
1244.854, 9.407471
1245.336, 9.641602
1245.818, 15.03738
1246.300, 21.16165
1246.782, 26.61005
1247.264, 23.09451
1247.747, 8.397491
1248.229, 6.035278
1248.711, 24.35928
1249.193, 40.69693
1249.675, 26.60968
1250.157, 5.859283
1250.639, 0.6024170
1251.121, 9.167297
1251.604, 14.53836
1252.086, 16.60016
1252.568, 17.64340
1253.050, 18.45471
1253.532, 17.40131
1254.014, 8.745972
1254.496, 1.219055
1254.978, 5.372345
1255.460, 17.90237
1255.943, 17.71231
1256.425, 5.578064
1256.907, 0.1636960
1257.389, 7.478149
1257.871, 15.39221
1258.353, 13.11963
1258.835, 8.458679
1259.317, 6.823242
1259.799, 7.889496
1260.281, 10.00638
1260.764, 13.03326
1261.246, 15.92932
1261.728, 18.81580
1262.210, 20.60266
1262.692, 19.89630
1263.174, 18.77173
1263.656, 18.67798
1264.138, 19.14282
1264.621, 17.90738
1265.103, 15.78369
1265.585, 16.88480
1266.067, 24.93741
1266.549, 29.92316
1267.031, 26.51697
1267.513, 21.15988
1267.995, 16.83902
1268.478, 13.16949
1268.960, 6.665863
1269.442, 0.2792970
1269.924, 0.1573790
1270.406, 11.56876
1270.888, 0.0000000E+00
##END=



