##NAMES=Tellurobismuthite
##RRUFFID=R060948
##IDEAL CHEMISTRY=Bi^3+^_2_Te^2-^_3_
##LOCALITY=Little Ben mine, Matheson, Ontario, Canada
##OWNER=RRUFF
##SOURCE=Bob Jenkins
##DESCRIPTION=Metallic steel-gray crystals on quartz
##STATUS=The identification of this mineral is confirmed by single-crystal X-ray diffraction and chemical analysis.
##URL=rruff.info/R060948
##MEASURED CHEMISTRY=Bi_2.00_Te_3.00_
122.0102, 0.0000000E+00
122.4923, 30.75899
122.9744, 26.76156
123.4565, 2.788332
123.9386, 8.649070
124.4208, 5.969456
124.9029, 33.15400
125.3850, 69.00758
125.8671, 112.9459
126.3492, 175.6573
126.8313, 253.5253
127.3135, 353.1833
127.7956, 479.4602
128.2777, 628.3644
128.7598, 793.0620
129.2419, 973.2278
129.7240, 1168.949
130.2062, 1345.463
130.6883, 1519.494
131.1704, 1661.526
131.6525, 1763.074
132.1346, 1822.813
132.6167, 1840.641
133.0989, 1813.496
133.5810, 1735.476
134.0631, 1649.220
134.5452, 1555.420
135.0273, 1454.454
135.5094, 1336.073
135.9916, 1205.063
136.4737, 1085.662
136.9558, 1003.362
137.4379, 969.0786
137.9200, 925.5776
138.4021, 868.8665
138.8843, 806.4923
139.3664, 740.4795
139.8485, 672.0197
140.3306, 606.5339
140.8127, 547.0079
141.2948, 489.3558
141.7769, 465.4284
142.2591, 490.4651
142.7412, 541.3615
143.2233, 602.0280
143.7054, 669.3155
144.1875, 735.1664
144.6696, 788.7819
145.1518, 827.9378
145.6339, 866.3405
146.1160, 903.0532
146.5981, 940.8176
147.0802, 985.1046
147.5623, 1038.068
148.0445, 1091.713
148.5266, 1136.043
149.0087, 1172.652
149.4908, 1197.833
149.9729, 1204.623
150.4550, 1200.438
150.9372, 1198.183
151.4193, 1202.009
151.9014, 1206.051
152.3835, 1203.199
152.8656, 1194.804
153.3477, 1177.922
153.8299, 1153.496
154.3120, 1119.883
154.7941, 1071.509
155.2762, 1000.884
155.7583, 922.3734
156.2404, 857.0001
156.7226, 808.4719
157.2047, 766.6904
157.6868, 730.7726
158.1689, 701.7775
158.6510, 685.3954
159.1331, 689.4936
159.6153, 699.1522
160.0974, 694.9477
160.5795, 673.1766
161.0616, 656.3734
161.5437, 665.1198
162.0258, 693.8528
162.5080, 716.9306
162.9901, 730.8581
163.4722, 733.8339
163.9543, 721.4717
164.4364, 691.3453
164.9185, 663.3662
165.4007, 653.1678
165.8828, 659.7569
166.3649, 660.0779
166.8470, 645.6349
167.3291, 624.1788
167.8112, 600.7656
168.2934, 576.8647
168.7755, 551.0283
169.2576, 518.6842
169.7397, 481.4838
170.2218, 447.7082
170.7039, 419.4430
171.1861, 397.4504
171.6682, 380.5874
172.1503, 370.5917
172.6324, 358.6323
173.1145, 332.0742
173.5966, 290.1829
174.0788, 256.2079
174.5609, 240.2315
175.0430, 228.0880
175.5251, 212.7560
176.0072, 193.4903
176.4893, 172.3672
176.9715, 148.7419
177.4536, 122.2822
177.9357, 101.7370
178.4178, 96.70868
178.8999, 94.34997
179.3820, 83.79316
179.8642, 58.81240
180.3463, 33.83649
180.8284, 21.89610
181.3105, 25.03426
181.7926, 28.15369
182.2747, 30.47509
182.7569, 31.08704
183.2390, 28.38853
183.7211, 21.66280
184.2032, 14.00492
184.6853, 9.250885
185.1674, 8.028511
185.6496, 6.170528
186.1317, 2.434517
186.6138, 2.298611
187.0959, 8.208229
187.5780, 15.01544
188.0601, 20.34680
188.5423, 20.74997
189.0244, 15.19744
189.5065, 11.89029
189.9886, 9.757002
190.4707, 11.12248
190.9528, 20.96164
191.4350, 31.66137
191.9171, 10.67549
192.3992, 1.678425
192.8813, 7.097012
193.3634, 11.60148
193.8455, 11.80463
194.3277, 11.64852
194.8098, 13.37701
195.2919, 17.00756
195.7740, 20.56834
196.2561, 21.59717
196.7382, 19.63170
197.2204, 18.89179
197.7025, 22.59119
198.1846, 22.79183
198.6667, 23.02337
199.1488, 15.83501
199.6309, 9.715402
200.1131, 11.83515
200.5952, 16.66814
201.0773, 6.167213
201.5594, 2.904992
202.0415, 0.5017660
202.5236, 5.744896
203.0058, 15.45460
203.4879, 22.80843
203.9700, 19.87720
204.4521, 4.871364
204.9342, 4.944950
205.4163, 3.250977
205.8985, 0.1070920
206.3806, 0.5569090
206.8627, 4.350585
207.3448, 7.711488
207.8269, 6.685178
208.3090, 0.9616100
208.7912, 4.107618
209.2733, 11.25746
209.7554, 14.82453
210.2375, 10.58395
210.7196, 0.1976970
211.2017, 2.626812
211.6839, 14.03185
212.1660, 23.70110
212.6481, 27.18168
213.1302, 18.12964
213.6123, 9.248981
214.0944, 7.856036
214.5765, 11.82731
215.0587, 14.03028
215.5408, 6.477446
216.0229, 11.71471
216.5050, 19.95044
216.9871, 12.80604
217.4692, 3.647371
217.9514, 7.503502
218.4335, 10.93738
218.9156, 14.62766
219.3977, 22.10782
219.8798, 32.03719
220.3619, 35.24360
220.8441, 26.57855
221.3262, 18.17700
221.8083, 15.53909
222.2904, 16.73049
222.7725, 18.00361
223.2546, 16.90739
223.7368, 14.40443
224.2189, 13.88515
224.7010, 16.21489
225.1831, 19.15857
225.6652, 23.90973
226.1473, 28.12799
226.6295, 27.78962
227.1116, 19.46280
227.5937, 12.64333
228.0758, 21.45354
228.5579, 25.18995
229.0400, 26.11300
229.5222, 23.28630
230.0043, 19.03748
230.4864, 16.15805
230.9685, 16.06631
231.4506, 17.23314
231.9327, 16.77393
232.4149, 13.91323
232.8970, 13.39974
233.3791, 14.07529
233.8612, 17.20747
234.3433, 19.09742
234.8254, 18.93013
235.3076, 17.76328
235.7897, 16.69183
236.2718, 15.65793
236.7539, 15.27059
237.2360, 15.52219
237.7181, 16.77644
238.2003, 20.28993
238.6824, 26.93932
239.1645, 32.30557
239.6466, 30.86491
240.1287, 22.72760
240.6108, 16.52258
241.0930, 17.88816
241.5751, 16.97155
242.0572, 17.84544
242.5393, 18.66491
243.0214, 20.13700
243.5035, 24.05958
243.9857, 29.76369
244.4678, 32.68230
244.9499, 29.65553
245.4320, 25.88238
245.9141, 28.47781
246.3962, 37.61577
246.8784, 43.49390
247.3605, 36.68936
247.8426, 22.18185
248.3247, 15.60623
248.8068, 16.23375
249.2889, 21.49114
249.7710, 26.76967
250.2532, 31.32941
250.7353, 33.74613
251.2174, 31.14294
251.6995, 26.89220
252.1816, 27.32881
252.6637, 33.96236
253.1459, 40.37041
253.6280, 39.78224
254.1101, 33.88968
254.5922, 30.19321
255.0743, 33.18305
255.5564, 36.83612
256.0386, 34.05993
256.5207, 24.46883
257.0028, 15.85997
257.4849, 13.26152
257.9670, 16.10339
258.4492, 20.14096
258.9313, 28.65340
259.4134, 36.65024
259.8955, 40.48080
260.3776, 40.78186
260.8597, 40.32271
261.3419, 40.24837
261.8240, 40.87160
262.3061, 43.28796
262.7882, 49.79976
263.2703, 54.86127
263.7524, 54.61316
264.2346, 50.97110
264.7167, 48.79058
265.1988, 50.66466
265.6809, 54.81782
266.1630, 56.09226
266.6451, 53.18571
267.1272, 49.81941
267.6093, 45.88176
268.0915, 41.94880
268.5736, 37.66617
269.0557, 33.42756
269.5378, 30.85418
270.0199, 32.70704
270.5020, 43.88327
270.9842, 51.39475
271.4663, 52.49053
271.9484, 51.16471
272.4305, 50.47871
272.9126, 51.08090
273.3947, 52.85189
273.8769, 56.22664
274.3590, 62.17805
274.8411, 63.74145
275.3232, 56.86358
275.8053, 49.57439
276.2874, 44.82566
276.7696, 43.20053
277.2517, 44.96991
277.7338, 51.17163
278.2159, 62.36071
278.6980, 68.38197
279.1801, 65.03147
279.6623, 60.56364
280.1444, 55.63240
280.6265, 51.24398
281.1086, 49.44441
281.5907, 51.84632
282.0728, 56.73318
282.5550, 56.32064
283.0371, 44.54506
283.5192, 35.47410
284.0013, 31.43167
284.4834, 31.29905
284.9655, 35.11687
285.4477, 42.89848
285.9298, 51.34298
286.4119, 53.54954
286.8940, 45.91980
287.3761, 41.21133
287.8582, 44.18699
288.3404, 48.30600
288.8225, 48.68822
289.3046, 44.67081
289.7867, 40.16819
290.2688, 40.22378
290.7509, 45.57290
291.2331, 48.16750
291.7152, 44.12445
292.1973, 40.06905
292.6794, 40.47492
293.1615, 44.53292
293.6436, 47.84468
294.1258, 47.00665
294.6079, 42.87238
295.0900, 38.61675
295.5721, 32.97310
296.0542, 30.28637
296.5363, 35.48948
297.0185, 45.28746
297.5006, 52.83320
297.9827, 53.56988
298.4648, 51.24495
298.9469, 52.51281
299.4290, 58.03793
299.9112, 62.47199
300.3933, 62.94312
300.8754, 60.26192
301.3575, 55.86900
301.8396, 47.66373
302.3217, 41.02845
302.8039, 41.32338
303.2860, 46.96567
303.7681, 50.73980
304.2502, 49.39170
304.7323, 45.70747
305.2144, 45.10624
305.6966, 48.16079
306.1787, 50.55680
306.6608, 51.41021
307.1429, 51.16064
307.6250, 49.92572
308.1071, 47.68622
308.5893, 45.63471
309.0714, 45.13290
309.5535, 46.56341
310.0356, 48.18456
310.5177, 51.14306
310.9998, 53.70417
311.4820, 55.17006
311.9641, 54.99478
312.4462, 51.40302
312.9283, 41.85303
313.4104, 26.16852
313.8925, 20.48607
314.3747, 32.46165
314.8568, 44.14254
315.3389, 51.84766
315.8210, 55.16146
316.3031, 53.97834
316.7852, 48.11596
317.2674, 39.15405
317.7495, 32.33059
318.2316, 27.25751
318.7137, 25.09005
319.1958, 29.16072
319.6779, 34.23400
320.1601, 34.87031
320.6422, 29.91867
321.1243, 23.47586
321.6064, 21.43698
322.0885, 25.43121
322.5706, 28.24084
323.0528, 28.96021
323.5349, 29.01117
324.0170, 29.42629
324.4991, 29.84296
324.9812, 28.73003
325.4633, 23.47371
325.9455, 15.02850
326.4276, 10.74172
326.9097, 11.88044
327.3918, 15.42938
327.8739, 22.29422
328.3560, 30.19854
328.8382, 34.36108
329.3203, 30.09900
329.8024, 24.30381
330.2845, 29.86070
330.7666, 48.42766
331.2487, 60.57801
331.7309, 54.56925
332.2130, 39.78144
332.6951, 29.64373
333.1772, 25.36166
333.6593, 23.86832
334.1414, 24.28556
334.6236, 26.33831
335.1057, 29.03169
335.5878, 32.53451
336.0699, 34.93641
336.5520, 32.37691
337.0341, 24.41334
337.5162, 18.24447
337.9984, 15.11054
338.4805, 14.24013
338.9626, 16.00155
339.4447, 20.03025
339.9268, 23.41150
340.4089, 23.74426
340.8911, 20.73301
341.3732, 18.96059
341.8553, 17.65298
342.3374, 17.98280
342.8195, 22.00793
343.3016, 27.75271
343.7838, 31.54635
344.2659, 31.55820
344.7480, 28.91717
345.2301, 26.87486
345.7122, 24.37078
346.1943, 23.51717
346.6765, 26.06403
347.1586, 28.86473
347.6407, 29.24231
348.1228, 27.03059
348.6049, 24.55008
349.0870, 25.18654
349.5692, 29.74958
350.0513, 31.71955
350.5334, 29.08026
351.0155, 25.53663
351.4976, 20.11226
351.9797, 14.74881
352.4619, 12.92166
352.9440, 18.11505
353.4261, 27.07585
353.9082, 31.31620
354.3903, 29.97982
354.8724, 26.82090
355.3546, 20.72809
355.8367, 14.64184
356.3188, 12.24571
356.8009, 15.23780
357.2830, 18.59286
357.7651, 17.91949
358.2473, 13.83534
358.7294, 9.156029
359.2115, 3.689684
359.6936, 0.6002590
360.1757, 6.6693000E-02
360.6578, 5.227411
361.1400, 8.905954
361.6221, 9.059344
362.1042, 6.911983
362.5863, 2.654901
363.0684, 3.332382
363.5505, 8.026714
364.0327, 8.886138
364.5148, 6.445641
364.9969, 3.208063
365.4790, 2.931791
365.9611, 7.443166
366.4432, 7.686712
366.9254, 5.510467
367.4075, 3.954732
367.8896, 4.299149
368.3717, 5.708586
368.8538, 6.565240
369.3359, 7.117633
369.8181, 6.554935
370.3002, 4.658322
370.7823, 1.978175
371.2644, 2.254764
371.7465, 7.341277
372.2286, 6.943949
372.7108, 8.066875
373.1929, 3.744584
373.6750, 0.4982080
374.1571, 1.938099
374.6392, 2.767557
375.1213, 1.150746
375.6035, 2.218662
376.0856, 6.887820
376.5677, 13.77402
377.0498, 19.45785
377.5319, 16.35602
378.0140, 3.597999
378.4962, 2.188696
378.9783, 9.101073
379.4604, 24.92900
379.9425, 30.03087
380.4246, 23.12859
380.9067, 16.29768
381.3889, 16.43078
381.8710, 19.75854
382.3531, 18.57382
382.8352, 11.51919
383.3173, 5.153387
383.7994, 5.557631
384.2816, 12.56680
384.7637, 16.62012
385.2458, 16.66341
385.7279, 14.90696
386.2100, 10.64940
386.6921, 5.448457
387.1743, 3.041697
387.6564, 5.317872
388.1385, 9.886791
388.6206, 11.14489
389.1027, 4.539360
389.5848, 1.646267
390.0670, 6.721882
390.5491, 12.11804
391.0312, 11.19887
391.5133, 4.177436
391.9954, 2.705005
392.4775, 3.438195
392.9597, 1.829603
393.4418, 6.888045
393.9239, 12.63177
394.4060, 16.81990
394.8881, 18.56987
395.3702, 18.54095
395.8524, 17.84063
396.3345, 17.09222
396.8166, 15.14747
397.2987, 8.565116
397.7808, 2.795033
398.2629, 0.3007410
398.7451, 2.558109
399.2272, 6.696138
399.7093, 10.11853
400.1914, 7.841386
400.6735, 5.189848
401.1556, 4.831799
401.6378, 4.889297
402.1199, 1.892935
402.6020, 3.416707
403.0841, 1.118554
403.5662, 3.2641001E-02
404.0483, 1.327310
404.5305, 2.103723
405.0126, 0.3692480
405.4947, 0.5082720
405.9768, 3.899743
406.4589, 9.319452
406.9410, 7.887853
407.4231, 2.593245
407.9052, 8.169166
408.3874, 9.222758
408.8695, 0.2385850
409.3516, 10.66411
409.8337, 17.40625
410.3158, 20.61307
410.7979, 17.81527
411.2801, 11.51036
411.7622, 7.712901
412.2443, 11.01580
412.7264, 18.42630
413.2085, 20.33122
413.6906, 13.86997
414.1728, 10.41205
414.6549, 18.35241
415.1370, 28.66416
415.6191, 33.23994
416.1012, 30.57223
416.5833, 25.33368
417.0655, 19.30280
417.5476, 13.09848
418.0297, 8.134364
418.5118, 4.422802
418.9939, 3.204080
419.4760, 7.474154
419.9582, 16.37132
420.4403, 19.29122
420.9224, 7.684639
421.4045, 1.609907
421.8866, 2.067801
422.3687, 14.80559
422.8509, 22.62221
423.3330, 19.44311
423.8151, 10.16814
424.2972, 4.325400
424.7793, 2.571926
425.2614, 2.962367
425.7436, 7.858702
426.2257, 12.28607
426.7078, 12.11252
427.1899, 8.548794
427.6720, 6.544475
428.1541, 10.20725
428.6363, 18.15705
429.1184, 24.50453
429.6005, 29.88100
430.0826, 31.64177
430.5647, 26.15833
431.0468, 18.40433
431.5290, 11.76019
432.0111, 6.561755
432.4932, 4.226581
432.9753, 8.646183
433.4574, 17.07589
433.9395, 20.38747
434.4217, 16.50623
434.9038, 10.04790
435.3859, 4.278897
435.8680, 0.7240100
436.3501, 0.3396620
436.8322, 3.611906
437.3144, 5.525193
437.7965, 2.969918
438.2786, 2.321666
438.7607, 1.800182
439.2428, 3.593388
439.7249, 4.024811
440.2071, 5.423446
440.6892, 9.041931
441.1713, 10.84673
441.6534, 8.735879
442.1355, 7.117150
442.6176, 9.194475
443.0998, 14.15605
443.5819, 18.54321
444.0640, 20.11932
444.5461, 19.35008
445.0282, 17.31453
445.5103, 13.30620
445.9925, 10.23960
446.4746, 10.68362
446.9567, 11.71460
447.4388, 9.368999
447.9209, 3.218976
448.4030, 1.431566
448.8852, 0.5763130
449.3673, 3.868160
449.8494, 8.789300
450.3315, 14.22671
450.8136, 17.58019
451.2957, 15.68075
451.7779, 9.292239
452.2600, 5.468905
452.7421, 5.338586
453.2242, 6.241823
453.7063, 8.342435
454.1884, 11.06348
454.6706, 13.80555
455.1527, 16.33776
455.6348, 18.19470
456.1169, 19.22518
456.5990, 19.09313
457.0811, 19.32204
457.5633, 20.79107
458.0454, 21.29736
458.5275, 19.50305
459.0096, 16.34183
459.4917, 13.33484
459.9738, 11.03197
460.4560, 9.255300
460.9381, 8.964700
461.4202, 10.07617
461.9023, 10.32753
462.3844, 8.912330
462.8665, 6.963151
463.3487, 6.034280
463.8308, 6.160878
464.3129, 5.400840
464.7950, 2.266067
465.2771, 1.485606
465.7592, 9.1651998E-02
466.2414, 3.152930
466.7235, 0.7931380
467.2056, 3.934080
467.6877, 17.78374
468.1698, 24.63310
468.6519, 18.85775
469.1341, 13.70841
469.6162, 7.900727
470.0983, 3.696826
470.5804, 4.179221
471.0625, 8.237823
471.5446, 10.80658
472.0268, 6.968526
472.5089, 0.9413630
472.9910, 1.812826
473.4731, 7.861678
473.9552, 15.88887
474.4373, 17.52886
474.9195, 15.78386
475.4016, 11.89976
475.8837, 5.665737
476.3658, 1.887762
476.8479, 6.158749
477.3300, 14.07192
477.8121, 17.19539
478.2943, 14.79402
478.7764, 10.77028
479.2585, 6.653622
479.7406, 2.138273
480.2227, 0.5485020
480.7048, 0.7402550
481.1870, 0.9217230
481.6691, 2.213685
482.1512, 2.452638
482.6333, 3.212154
483.1154, 0.9133730
483.5975, 2.165529
484.0797, 7.809068
484.5618, 12.78216
485.0439, 19.70753
485.5260, 34.06566
486.0081, 42.14341
486.4902, 33.76077
486.9724, 19.57292
487.4545, 14.23446
487.9366, 22.92448
488.4187, 33.22260
488.9008, 33.96310
489.3829, 27.28028
489.8651, 19.95294
490.3472, 12.44668
490.8293, 7.251986
491.3114, 7.233620
491.7935, 12.22291
492.2756, 15.93665
492.7578, 18.57845
493.2399, 19.76610
493.7220, 18.51432
494.2041, 15.92203
494.6862, 12.78748
495.1683, 9.530685
495.6505, 7.962476
496.1326, 10.95750
496.6147, 20.14509
497.0968, 23.74556
497.5789, 17.58266
498.0610, 10.32416
498.5432, 1.671216
499.0253, 0.5608850
499.5074, 1.052485
499.9895, 6.446985
500.4716, 19.84079
500.9537, 27.12321
501.4359, 29.05846
501.9180, 29.69720
502.4001, 30.10440
502.8822, 28.08553
503.3643, 19.55601
503.8464, 5.070577
504.3286, 2.450898
504.8107, 3.007390
505.2928, 9.466246
505.7749, 11.53633
506.2570, 10.95452
506.7391, 11.29114
507.2213, 13.67200
507.7034, 16.53833
508.1855, 18.31966
508.6676, 19.36723
509.1497, 16.86919
509.6318, 4.222000
510.1140, 2.189741
510.5961, 3.4161001E-02
511.0782, 10.95306
511.5603, 18.42816
512.0424, 18.85427
512.5245, 17.51350
513.0067, 20.08754
513.4888, 25.41758
513.9709, 27.65443
514.4530, 25.34226
514.9351, 21.11776
515.4172, 17.07561
515.8994, 12.91397
516.3815, 9.532946
516.8636, 5.539734
517.3457, 3.898546
517.8278, 7.782914
518.3099, 13.89138
518.7921, 17.50463
519.2742, 17.36375
519.7563, 16.01237
520.2384, 16.91981
520.7205, 20.42957
521.2026, 20.50656
521.6848, 13.43248
522.1669, 8.379376
522.6490, 10.55884
523.1311, 15.80685
523.6132, 18.36228
524.0953, 16.04520
524.5775, 14.27123
525.0596, 19.06758
525.5417, 26.97693
526.0238, 29.51530
526.5059, 25.20816
526.9880, 18.91813
527.4702, 13.82580
527.9523, 10.32010
528.4344, 9.344430
528.9165, 14.41770
529.3986, 16.96414
529.8807, 13.17737
530.3629, 7.256728
530.8450, 2.941329
531.3271, 1.386230
531.8092, 2.312771
532.2913, 6.436726
532.7734, 12.99329
533.2556, 16.79636
533.7377, 17.63338
534.2198, 16.18747
534.7019, 11.35844
535.1840, 5.269361
535.6661, 1.788882
536.1483, 5.272619
536.6304, 7.929962
537.1125, 1.640909
537.5946, 20.44058
538.0767, 23.77999
538.5588, 12.43670
539.0410, 0.4791540
539.5231, 1.923828
540.0052, 1.919351
540.4873, 2.288285
540.9694, 12.48357
541.4515, 19.32479
541.9337, 21.52926
542.4158, 21.14036
542.8979, 17.18277
543.3800, 11.51117
543.8621, 9.540850
544.3442, 16.63591
544.8264, 26.59919
545.3085, 26.97998
545.7906, 17.71963
546.2727, 9.166508
546.7548, 3.791710
547.2369, 1.075788
547.7191, 0.9529710
548.2012, 3.425609
548.6833, 6.395589
549.1654, 10.28518
549.6475, 13.88458
550.1296, 18.09323
550.6118, 21.45163
551.0939, 19.87415
551.5760, 11.94735
552.0581, 3.330243
552.5402, 3.960814
553.0223, 16.40240
553.5045, 22.28434
553.9866, 16.45849
554.4687, 10.73220
554.9508, 10.73923
555.4329, 14.08660
555.9150, 16.73576
556.3972, 17.06969
556.8793, 18.36497
557.3614, 26.33996
557.8435, 36.74233
558.3256, 38.99649
558.8077, 31.66541
559.2899, 23.41158
559.7720, 21.28896
560.2541, 24.31322
560.7362, 24.74771
561.2183, 20.63594
561.7004, 16.34187
562.1826, 8.837503
562.6647, 3.605519
563.1468, 7.486143
563.6289, 18.86939
564.1110, 27.14389
564.5931, 22.66940
565.0753, 10.77222
565.5574, 4.332575
566.0395, 3.630803
566.5216, 4.104503
567.0037, 5.054211
567.4858, 5.400609
567.9680, 2.795717
568.4501, 2.544122
568.9322, 0.6475330
569.4143, 6.858540
569.8964, 8.816391
570.3785, 2.619600
570.8607, 14.00073
571.3428, 22.58091
571.8249, 15.88202
572.3070, 3.082938
572.7891, 2.138280
573.2712, 0.9780720
573.7534, 6.161208
574.2355, 17.24183
574.7176, 24.47965
575.1997, 18.17627
575.6818, 6.410034
576.1639, 3.256151
576.6461, 14.98754
577.1282, 25.09847
577.6103, 21.48731
578.0924, 11.40391
578.5745, 5.600321
579.0566, 5.372097
579.5388, 7.316571
580.0209, 9.048491
580.5030, 10.77966
580.9851, 13.81722
581.4672, 21.83464
581.9493, 24.64769
582.4314, 16.74606
582.9135, 7.844333
583.3956, 5.322519
583.8777, 7.988624
584.3599, 9.108382
584.8420, 3.123676
585.3241, 2.051139
585.8062, 2.612931
586.2883, 5.457487
586.7704, 10.93114
587.2526, 11.21441
587.7347, 8.688285
588.2168, 5.416822
588.6989, 1.033106
589.1810, 0.2313750
589.6631, 3.065205
590.1453, 7.443222
590.6274, 15.21737
591.1095, 21.79445
591.5916, 19.71876
592.0737, 8.324855
592.5558, 2.194774
593.0380, 0.3920440
593.5201, 10.29216
594.0022, 16.09325
594.4843, 16.72311
594.9664, 17.35196
595.4485, 19.65447
595.9307, 21.68187
596.4128, 18.98673
596.8949, 9.995971
597.3770, 3.644458
597.8591, 2.558009
598.3412, 4.216681
598.8234, 7.309822
599.3055, 11.54375
599.7876, 17.67502
600.2697, 26.10678
600.7518, 33.17367
601.2339, 31.62428
601.7161, 21.06077
602.1982, 15.00895
602.6803, 15.92257
603.1624, 17.83288
603.6445, 17.82044
604.1266, 16.18378
604.6088, 13.10875
605.0909, 7.624581
605.5730, 3.062064
606.0551, 0.3108630
606.5372, 1.450813
607.0193, 2.032455
607.5015, 9.248426
607.9836, 16.63500
608.4657, 21.85162
608.9478, 24.44765
609.4299, 22.11363
609.9120, 12.29944
610.3942, 6.467626
610.8763, 7.178697
611.3584, 10.77768
611.8405, 16.29309
612.3226, 22.67758
612.8047, 27.05869
613.2869, 28.78955
613.7690, 28.19729
614.2511, 23.87356
614.7332, 17.90883
615.2153, 13.98400
615.6974, 12.64755
616.1796, 12.22392
616.6617, 11.07608
617.1438, 9.062217
617.6259, 6.586620
618.1080, 2.877611
618.5901, 0.4727450
619.0723, 0.2569150
619.5544, 1.8105000E-02
620.0365, 0.7679160
620.5186, 2.340514
621.0007, 4.807932
621.4828, 6.947972
621.9650, 9.723883
622.4471, 14.85752
622.9292, 20.72182
623.4113, 22.55537
623.8934, 19.17700
624.3755, 14.34099
624.8577, 11.69343
625.3398, 11.21013
625.8219, 11.71604
626.3040, 12.88866
626.7861, 15.15589
627.2682, 20.81325
627.7504, 25.67204
628.2325, 25.91856
628.7146, 21.52669
629.1967, 17.13771
629.6788, 14.99619
630.1609, 14.40138
630.6431, 14.27658
631.1252, 15.15112
631.6073, 18.52695
632.0894, 24.86956
632.5715, 30.07896
633.0536, 28.67960
633.5358, 20.13886
634.0179, 15.06598
634.5000, 17.30696
634.9821, 18.03858
635.4642, 12.88847
635.9464, 7.080321
636.4285, 6.128810
636.9106, 10.44080
637.3927, 15.40675
637.8748, 18.82674
638.3569, 21.01336
638.8391, 22.25322
639.3212, 22.61532
639.8033, 22.41685
640.2854, 21.77964
640.7675, 20.52326
641.2496, 18.46812
641.7318, 15.65126
642.2139, 11.58252
642.6960, 2.843659
643.1781, 1.279757
643.6602, 2.352905
644.1423, 1.391967
644.6245, 4.042900
645.1066, 5.017570
645.5887, 5.830246
646.0708, 7.888242
646.5529, 9.983925
647.0350, 9.215872
647.5172, 6.981737
647.9993, 8.711217
648.4814, 17.22006
648.9635, 26.76208
649.4456, 29.31576
649.9277, 24.54343
650.4099, 18.57940
650.8920, 8.469429
651.3741, 2.688299
651.8562, 5.812518
652.3383, 12.56648
652.8204, 18.40435
653.3026, 22.50858
653.7847, 24.29553
654.2668, 21.02716
654.7489, 16.93077
655.2310, 18.13306
655.7131, 23.24967
656.1953, 26.67591
656.6774, 26.53081
657.1595, 23.55542
657.6416, 18.21953
658.1237, 10.19373
658.6058, 4.005653
659.0880, 2.196787
659.5701, 1.233727
660.0522, 9.313922
660.5343, 24.76387
661.0164, 30.34848
661.4985, 25.08922
661.9807, 18.43055
662.4628, 13.23203
662.9449, 9.627440
663.4270, 9.155703
663.9091, 10.27201
664.3912, 8.661240
664.8734, 3.244432
665.3555, 2.567319
665.8376, 0.7250180
666.3197, 1.193096
666.8018, 0.7298290
667.2839, 0.1743030
667.7661, 2.488193
668.2482, 6.762928
668.7303, 15.42571
669.2124, 14.69333
669.6945, 5.104823
670.1766, 1.569556
670.6588, 16.45356
671.1409, 31.26242
671.6230, 33.12038
672.1051, 26.08517
672.5872, 15.07088
673.0693, 2.483502
673.5515, 0.1338800
674.0336, 2.828777
674.5157, 8.816112
674.9978, 11.32123
675.4799, 1.279417
675.9620, 1.812803
676.4442, 5.260952
676.9263, 15.45975
677.4084, 10.28724
677.8905, 2.280519
678.3726, 8.510113
678.8547, 6.545680
679.3369, 24.94525
679.8190, 29.13420
680.3011, 25.29865
680.7832, 19.19052
681.2653, 12.72925
681.7474, 7.276270
682.2296, 3.718389
682.7117, 2.068779
683.1938, 2.600792
683.6759, 5.331972
684.1580, 9.282689
684.6401, 15.18495
685.1223, 19.54225
685.6044, 18.20743
686.0865, 12.05078
686.5686, 9.692613
687.0507, 16.88798
687.5328, 19.69851
688.0150, 11.92322
688.4971, 2.350285
688.9792, 2.701370
689.4613, 2.623679
689.9434, 1.412125
690.4255, 1.953128
690.9077, 5.712899
691.3898, 8.001768
691.8719, 9.389252
692.3540, 12.68643
692.8361, 18.42306
693.3182, 21.56338
693.8004, 17.54123
694.2825, 9.772462
694.7646, 10.12743
695.2467, 27.60822
695.7288, 36.10752
696.2109, 27.73757
696.6931, 18.37242
697.1752, 15.53347
697.6573, 16.79901
698.1394, 17.31894
698.6215, 15.73181
699.1036, 13.57602
699.5858, 10.98424
700.0679, 8.905210
700.5500, 9.433728
701.0321, 11.78909
701.5142, 12.58266
701.9963, 10.17159
702.4785, 7.361365
702.9606, 10.66007
703.4427, 21.83318
703.9248, 22.49324
704.4069, 4.259420
704.8890, 0.5748550
705.3712, 5.884019
705.8533, 26.44735
706.3354, 27.01606
706.8175, 3.830312
707.2996, 3.264562
707.7817, 0.9595580
708.2639, 12.33008
708.7460, 18.40713
709.2281, 19.40002
709.7102, 19.24848
710.1923, 19.16438
710.6744, 18.91879
711.1566, 18.83036
711.6387, 18.18214
712.1208, 13.07805
712.6029, 3.332942
713.0850, 1.034342
713.5671, 3.962082
714.0493, 12.47481
714.5314, 18.94650
715.0135, 23.35313
715.4956, 26.30835
715.9777, 27.48485
716.4598, 27.69471
716.9420, 26.23316
717.4241, 24.36322
717.9062, 23.55318
718.3883, 23.17061
718.8704, 21.17790
719.3525, 15.74121
719.8347, 10.71329
720.3168, 8.253335
720.7989, 8.109563
721.2810, 11.67481
721.7631, 18.43967
722.2452, 23.35816
722.7274, 22.98324
723.2095, 18.79395
723.6915, 15.16946
724.1736, 12.25858
724.6558, 9.061716
725.1379, 2.869983
725.6200, 0.3051890
726.1021, 10.77571
726.5842, 25.26701
727.0663, 28.19184
727.5485, 14.25899
728.0306, 5.491429
728.5127, 13.43039
728.9948, 23.59947
729.4769, 25.13540
729.9590, 21.40682
730.4412, 20.76485
730.9233, 25.56533
731.4054, 29.19575
731.8875, 23.75378
732.3696, 12.40390
732.8517, 3.450250
733.3339, 3.067781
733.8160, 4.482336
734.2981, 1.548556
734.7802, 9.568525
735.2623, 13.18793
735.7444, 11.92953
736.2266, 13.57351
736.7087, 24.75796
737.1908, 31.50961
737.6729, 29.83897
738.1550, 25.30145
738.6371, 20.77451
739.1193, 17.28054
739.6014, 15.81234
740.0835, 18.52293
740.5656, 20.45255
741.0477, 15.63220
741.5298, 9.243478
742.0120, 10.59456
742.4941, 18.77726
742.9762, 23.18082
743.4583, 16.94954
743.9404, 6.154241
744.4225, 3.182938
744.9047, 8.621702
745.3868, 11.32730
745.8689, 10.07550
746.3510, 7.754775
746.8331, 4.552405
747.3152, 1.885164
747.7974, 3.158758
748.2795, 9.918701
748.7616, 15.18459
749.2437, 17.91381
749.7258, 20.05169
750.2079, 23.66272
750.6901, 26.44711
751.1722, 24.28505
751.6543, 17.17945
752.1364, 11.54820
752.6185, 12.45629
753.1006, 16.29473
753.5828, 19.25656
754.0649, 21.50925
754.5470, 24.34950
755.0291, 27.78020
755.5112, 27.95496
755.9933, 20.68305
756.4755, 8.872655
756.9576, 4.435327
757.4397, 9.057240
757.9218, 13.08318
758.4039, 15.67393
758.8860, 16.92382
759.3682, 16.69089
759.8503, 15.78175
760.3324, 16.61041
760.8145, 21.01468
761.2966, 23.11704
761.7787, 20.51841
762.2609, 16.84065
762.7430, 12.43453
763.2251, 9.326279
763.7072, 10.52955
764.1893, 16.82561
764.6714, 22.51880
765.1536, 22.09313
765.6357, 18.68675
766.1178, 14.21216
766.5999, 9.707608
767.0820, 10.82077
767.5641, 19.27807
768.0463, 25.95988
768.5284, 19.94833
769.0105, 3.977835
769.4926, 0.1419690
769.9747, 12.23833
770.4568, 20.19134
770.9390, 16.26621
771.4211, 11.73688
771.9032, 19.21362
772.3853, 33.77270
772.8674, 36.32692
773.3495, 14.45720
773.8317, 0.7634140
774.3138, 8.273754
774.7959, 19.22142
775.2780, 23.66313
775.7601, 21.66216
776.2422, 13.33750
776.7244, 1.557940
777.2065, 2.932269
777.6886, 3.075506
778.1707, 7.771104
778.6528, 17.67975
779.1349, 22.82671
779.6171, 22.48906
780.0992, 16.48769
780.5813, 8.838550
781.0634, 3.500560
781.5455, 0.6454250
782.0276, 2.698774
782.5098, 11.62432
782.9919, 17.15560
783.4740, 16.23943
783.9561, 12.76266
784.4382, 8.394964
784.9203, 3.942282
785.4025, 3.696984
785.8846, 12.73768
786.3667, 17.88963
786.8488, 15.01431
787.3309, 10.52102
787.8130, 7.762246
788.2952, 6.729526
788.7773, 6.994301
789.2594, 8.504472
789.7415, 10.06216
790.2236, 11.05143
790.7057, 11.47849
791.1879, 9.776645
791.6700, 7.539894
792.1521, 10.71641
792.6342, 20.05061
793.1163, 27.60980
793.5984, 25.03713
794.0806, 14.76089
794.5627, 4.085215
795.0448, 2.089595
795.5269, 0.3712600
796.0090, 1.936906
796.4911, 13.98956
796.9733, 14.64419
797.4554, 6.155518
797.9375, 1.609761
798.4196, 2.474586
798.9017, 6.293572
799.3839, 0.4385890
799.8660, 1.064015
800.3481, 4.706277
800.8302, 7.879439
801.3123, 6.736096
801.7944, 0.7679200
802.2766, 4.259445
802.7587, 0.6516110
803.2408, 0.7538710
803.7229, 1.333447
804.2050, 3.570164
804.6871, 0.5214390
805.1693, 3.985420
805.6514, 5.622557
806.1335, 3.380225
806.6156, 1.109313
807.0977, 8.724792
807.5798, 22.86549
808.0620, 25.44154
808.5441, 13.92933
809.0262, 4.331628
809.5083, 6.777283
809.9904, 15.70866
810.4725, 18.41798
810.9547, 12.97500
811.4368, 12.42610
811.9189, 19.60969
812.4010, 25.42820
812.8831, 26.22613
813.3652, 24.08859
813.8474, 21.81787
814.3295, 19.43146
814.8116, 14.55535
815.2937, 0.4424700
815.7758, 0.2458870
816.2579, 0.7888170
816.7401, 10.09656
817.2222, 16.74609
817.7043, 18.54702
818.1864, 16.64429
818.6685, 10.04339
819.1506, 4.879640
819.6328, 7.566835
820.1149, 13.54641
820.5970, 16.29695
821.0791, 16.59945
821.5612, 20.09179
822.0433, 28.60382
822.5255, 34.27173
823.0076, 24.58098
823.4897, 5.276046
823.9718, 1.306281
824.4539, 12.60111
824.9360, 24.21997
825.4182, 33.17799
825.9003, 37.96055
826.3824, 36.98207
826.8645, 30.96800
827.3466, 22.23895
827.8287, 6.227283
828.3109, 0.9089110
828.7930, 7.700267
829.2751, 17.57331
829.7572, 22.08255
830.2393, 23.20772
830.7214, 24.05657
831.2036, 25.16023
831.6857, 23.58034
832.1678, 12.96243
832.6499, 6.116084
833.1320, 13.88205
833.6141, 25.78115
834.0963, 29.76189
834.5784, 25.34804
835.0605, 18.45172
835.5426, 11.01084
836.0247, 6.321682
836.5068, 8.969132
836.9890, 14.70952
837.4711, 16.25299
837.9532, 14.14055
838.4353, 13.90606
838.9174, 18.10888
839.3995, 23.32582
839.8817, 24.18324
840.3638, 21.52353
840.8459, 20.80412
841.3280, 22.00276
841.8101, 22.03884
842.2922, 20.05165
842.7744, 16.17520
843.2565, 9.842600
843.7386, 2.035245
844.2207, 1.401087
844.7028, 0.3612540
845.1849, 4.447276
845.6671, 12.91314
846.1492, 20.25673
846.6313, 23.21199
847.1134, 23.00068
847.5955, 21.89672
848.0776, 19.67138
848.5598, 17.55722
849.0419, 15.41160
849.5240, 13.70264
850.0061, 11.80720
850.4882, 10.98841
850.9703, 14.30272
851.4525, 20.43194
851.9346, 22.44909
852.4167, 16.05942
852.8988, 7.321018
853.3809, 2.798102
853.8630, 3.820869
854.3452, 2.292143
854.8273, 0.1151620
855.3094, 10.42735
855.7915, 21.02437
856.2736, 27.50895
856.7557, 23.68777
857.2379, 14.72147
857.7200, 10.29470
858.2021, 9.580377
858.6842, 7.381629
859.1663, 2.927964
859.6484, 2.083724
860.1306, 10.12989
860.6127, 23.12851
861.0948, 27.86448
861.5769, 23.42803
862.0590, 27.36292
862.5411, 45.28841
863.0233, 53.57581
863.5054, 36.31335
863.9875, 9.933068
864.4696, 2.177921
864.9517, 15.78261
865.4338, 24.56601
865.9159, 27.91535
866.3980, 27.40959
866.8801, 20.68081
867.3622, 12.57021
867.8444, 4.691689
868.3265, 1.879561
868.8086, 3.132619
869.2907, 3.305377
869.7728, 8.691831
870.2549, 10.14849
870.7371, 10.24553
871.2192, 9.970748
871.7013, 9.548947
872.1834, 8.800146
872.6655, 7.831938
873.1476, 7.938201
873.6298, 9.541909
874.1119, 12.67455
874.5940, 19.22994
875.0761, 25.39336
875.5582, 24.54725
876.0403, 17.88370
876.5225, 11.81778
877.0046, 9.352742
877.4867, 9.520416
877.9688, 13.28819
878.4509, 18.07828
878.9330, 16.83770
879.4152, 10.89883
879.8973, 7.473872
880.3794, 8.630220
880.8615, 11.75778
881.3436, 14.86891
881.8257, 17.39505
882.3079, 17.63918
882.7900, 15.59527
883.2721, 11.30630
883.7542, 4.065145
884.2363, 0.3338290
884.7184, 1.770788
885.2006, 6.822423
885.6827, 8.678162
886.1648, 6.861277
886.6469, 7.480509
887.1290, 12.59233
887.6111, 15.02625
888.0933, 12.45597
888.5754, 7.362478
889.0575, 2.325034
889.5396, 5.996731
890.0217, 1.785911
890.5038, 28.37594
890.9860, 45.02000
891.4681, 18.82267
891.9502, 2.324830
892.4323, 2.092330
892.9144, 5.547143
893.3965, 12.38933
893.8787, 14.04732
894.3608, 14.91186
894.8429, 17.91031
895.3250, 18.15766
895.8071, 10.54668
896.2892, 1.989990
896.7714, 2.388008
897.2535, 2.374417
897.7356, 2.724914
898.2177, 13.58294
898.6998, 20.76717
899.1819, 13.05245
899.6641, 2.615892
900.1462, 2.350820
900.6283, 7.680411
901.1104, 9.277476
901.5925, 6.502736
902.0746, 5.804954
902.5568, 11.79527
903.0389, 20.32795
903.5210, 26.98783
904.0031, 31.91149
904.4852, 35.85465
904.9673, 38.52568
905.4495, 38.38581
905.9316, 34.89249
906.4137, 28.44269
906.8958, 18.05984
907.3779, 6.838453
907.8600, 3.211443
908.3422, 6.995820
908.8243, 12.19703
909.3064, 18.23659
909.7885, 18.92540
910.2706, 9.278079
910.7527, 1.777917
911.2349, 2.959501
911.7170, 23.97106
912.1991, 35.43000
912.6812, 36.18807
913.1633, 32.81464
913.6454, 26.08351
914.1276, 18.17509
914.6097, 8.604941
915.0918, 0.6380300
915.5739, 3.501526
916.0560, 4.102562
916.5381, 7.424698
917.0203, 2.527494
917.5024, 0.3252890
917.9845, 4.673756
918.4666, 11.92945
918.9487, 16.21789
919.4308, 17.44527
919.9130, 13.53311
920.3951, 3.658750
920.8772, 6.273638
921.3593, 1.278208
921.8414, 0.6867170
922.3235, 7.651362
922.8057, 14.92224
923.2878, 21.20905
923.7699, 26.77931
924.2520, 27.94608
924.7341, 19.86475
925.2162, 12.21362
925.6984, 8.852688
926.1805, 7.538451
926.6626, 6.371706
927.1447, 5.884755
927.6268, 7.207993
928.1089, 11.01984
928.5911, 15.05221
929.0732, 19.64526
929.5553, 22.45950
930.0374, 18.76654
930.5195, 13.71766
931.0016, 16.64188
931.4838, 26.58257
931.9659, 32.25894
932.4480, 26.74502
932.9301, 20.02469
933.4122, 21.27177
933.8943, 25.80059
934.3765, 28.40464
934.8586, 29.24919
935.3407, 29.98287
935.8228, 30.84930
936.3049, 30.13481
936.7870, 24.41315
937.2692, 18.11269
937.7513, 21.30983
938.2334, 29.52756
938.7155, 30.87100
939.1976, 25.69637
939.6797, 22.20010
940.1619, 23.80268
940.6440, 25.94582
941.1261, 21.76104
941.6082, 15.43589
942.0903, 21.88782
942.5724, 36.96263
943.0546, 36.54222
943.5367, 18.12342
944.0188, 5.384549
944.5009, 12.73653
944.9830, 27.97581
945.4651, 30.99549
945.9473, 23.61021
946.4294, 19.95437
946.9115, 19.82455
947.3936, 22.48639
947.8757, 28.83019
948.3578, 33.06397
948.8400, 30.08138
949.3221, 22.55557
949.8042, 16.18711
950.2863, 11.07035
950.7684, 9.647312
951.2505, 12.06012
951.7327, 16.50106
952.2148, 23.08510
952.6969, 28.89636
953.1790, 31.02276
953.6611, 29.93512
954.1432, 27.78009
954.6254, 24.73518
955.1075, 17.95233
955.5896, 4.009145
956.0717, 2.784010
956.5538, 6.906555
957.0359, 20.43324
957.5181, 21.15482
958.0002, 10.35703
958.4823, 7.892599
958.9644, 19.49550
959.4465, 24.24987
959.9286, 16.42897
960.4108, 8.104274
960.8929, 3.583902
961.3750, 3.776974
961.8571, 11.64050
962.3392, 28.15168
962.8214, 38.97658
963.3035, 45.96398
963.7856, 42.39952
964.2677, 14.44723
964.7498, 1.665866
965.2319, 1.062313
965.7141, 24.68337
966.1962, 31.38415
966.6783, 16.89670
967.1604, 8.978136
967.6425, 10.25529
968.1246, 12.57483
968.6068, 15.48197
969.0889, 18.70577
969.5710, 24.45707
970.0531, 29.51487
970.5352, 23.61514
971.0173, 1.071963
971.4995, 1.809728
971.9816, 17.46190
972.4637, 38.96454
972.9458, 38.35515
973.4279, 30.10705
973.9100, 25.08899
974.3922, 23.32708
974.8743, 23.74472
975.3564, 27.01023
975.8385, 30.04472
976.3206, 33.26741
976.8027, 34.88296
977.2849, 34.02774
977.7670, 31.44011
978.2491, 27.28633
978.7312, 21.70412
979.2133, 15.84063
979.6954, 8.130817
980.1776, 3.716808
980.6597, 4.559071
981.1418, 8.206205
981.6239, 16.93945
982.1060, 25.38754
982.5881, 26.72242
983.0703, 21.57910
983.5524, 16.47194
984.0345, 11.07701
984.5166, 10.04206
984.9987, 21.31048
985.4808, 30.45307
985.9630, 24.64712
986.4451, 13.67375
986.9272, 11.97080
987.4093, 19.63395
987.8914, 24.33945
988.3735, 22.35736
988.8557, 16.54357
989.3378, 2.655152
989.8199, 8.0310002E-02
990.3020, 1.537577
990.7841, 2.837046
991.2662, 2.581768
991.7484, 0.5698380
992.2305, 0.4796780
992.7126, 1.753779
993.1947, 0.6922550
993.6768, 0.6609950
994.1589, 8.092464
994.6411, 0.6271320
995.1232, 8.484106
995.6053, 22.19822
996.0874, 30.21253
996.5695, 34.51089
997.0516, 33.84748
997.5338, 32.61066
998.0159, 31.74313
998.4980, 32.13839
998.9801, 37.11797
999.4622, 42.75738
999.9443, 41.69622
1000.426, 33.09716
1000.909, 24.58601
1001.391, 16.34161
1001.873, 13.01312
1002.355, 23.30755
1002.837, 33.45427
1003.319, 27.67577
1003.801, 14.75962
1004.283, 13.03624
1004.766, 25.18700
1005.248, 34.09243
1005.730, 28.37326
1006.212, 22.88443
1006.694, 26.96367
1007.176, 32.25664
1007.658, 29.77814
1008.140, 23.97922
1008.622, 25.76458
1009.104, 36.50286
1009.587, 41.46116
1010.069, 29.91184
1010.551, 17.26830
1011.033, 7.936390
1011.515, 3.189998
1011.997, 4.769286
1012.479, 11.45732
1012.961, 23.54034
1013.444, 40.39957
1013.926, 49.58546
1014.408, 38.97570
1014.890, 29.87324
1015.372, 35.96265
1015.854, 43.13973
1016.336, 38.09113
1016.818, 26.70842
1017.300, 20.89446
1017.783, 22.39784
1018.265, 23.24830
1018.747, 22.20559
1019.229, 18.25915
1019.711, 6.652590
1020.193, 3.713270
1020.675, 4.128463
1021.157, 0.4502330
1021.640, 1.057994
1022.122, 3.459571
1022.604, 2.008367
1023.086, 4.180984
1023.568, 3.734267
1024.050, 4.302721
1024.532, 12.13536
1025.014, 7.946145
1025.496, 2.261254
1025.979, 0.3983370
1026.461, 1.279133
1026.943, 4.014484
1027.425, 12.12654
1027.907, 17.13340
1028.389, 11.67584
1028.871, 8.146808
1029.353, 17.21335
1029.836, 31.50020
1030.318, 38.88649
1030.800, 38.63851
1031.282, 36.35376
1031.764, 33.77953
1032.246, 27.89120
1032.728, 12.13095
1033.210, 0.1482240
1033.693, 0.7646510
1034.175, 4.970436
1034.657, 11.72838
1035.139, 18.90248
1035.621, 23.24948
1036.103, 21.56669
1036.585, 21.69970
1037.067, 25.94953
1037.549, 29.96283
1038.031, 32.69395
1038.514, 33.81319
1038.996, 33.00837
1039.478, 30.42306
1039.960, 25.59536
1040.442, 11.20141
1040.924, 8.548489
1041.406, 29.14832
1041.888, 44.36461
1042.371, 42.05944
1042.853, 32.75087
1043.335, 24.64709
1043.817, 18.39199
1044.299, 17.17926
1044.781, 23.46284
1045.263, 28.59690
1045.745, 33.76209
1046.228, 35.02955
1046.710, 29.11768
1047.192, 22.50400
1047.674, 20.50404
1048.156, 21.97971
1048.638, 22.48490
1049.120, 22.14773
1049.602, 20.51620
1050.084, 16.36537
1050.567, 14.17616
1051.049, 14.18849
1051.531, 20.12019
1052.013, 38.70429
1052.495, 59.86669
1052.977, 54.13155
1053.459, 18.53191
1053.941, 7.997851
1054.423, 26.43361
1054.906, 35.53550
1055.388, 25.93451
1055.870, 15.02894
1056.352, 13.60722
1056.834, 17.90941
1057.316, 22.09314
1057.798, 25.96526
1058.280, 29.27188
1058.763, 32.04182
1059.245, 35.68929
1059.727, 40.37789
1060.209, 41.69862
1060.691, 37.28796
1061.173, 29.84406
1061.655, 21.77546
1062.137, 14.26636
1062.620, 12.34410
1063.102, 14.45041
1063.584, 11.36676
1064.066, 3.891061
1064.548, 6.133961
1065.030, 23.13739
1065.512, 38.82791
1065.994, 36.68040
1066.476, 25.44006
1066.958, 18.24085
1067.441, 13.95843
1067.923, 10.44753
1068.405, 7.370617
1068.887, 3.884879
1069.369, 0.3209510
1069.851, 0.4631940
1070.333, 3.767804
1070.815, 10.48434
1071.298, 19.05605
1071.780, 26.61509
1072.262, 29.63537
1072.744, 28.49284
1073.226, 22.99857
1073.708, 14.29775
1074.190, 6.152385
1074.672, 1.181708
1075.155, 1.752011
1075.637, 17.04189
1076.119, 35.17209
1076.601, 32.27113
1077.083, 7.293368
1077.565, 27.16064
1078.047, 37.65071
1078.529, 39.68800
1079.011, 8.471601
1079.494, 20.62099
1079.976, 15.28529
1080.458, 8.988263
1080.940, 26.93011
1081.422, 0.3403840
1081.904, 17.77180
1082.386, 16.89371
1082.868, 24.35548
1083.350, 15.03761
1083.833, 11.22764
1084.315, 25.22359
1084.797, 12.23789
1085.279, 18.24976
1085.761, 22.31264
1086.243, 20.80681
1086.725, 16.74517
1087.207, 14.06769
1087.689, 12.69367
1088.172, 10.88005
1088.654, 7.005177
1089.136, 7.858814
1089.618, 17.09029
1090.100, 23.82252
1090.582, 22.93530
1091.064, 19.73373
1091.546, 19.54742
1092.029, 21.39496
1092.511, 20.63948
1092.993, 16.44797
1093.475, 18.01274
1093.957, 26.43346
1094.439, 32.65902
1094.921, 34.23932
1095.403, 29.79865
1095.885, 17.23896
1096.368, 2.781527
1096.850, 2.189946
1097.332, 1.123171
1097.814, 8.390517
1098.296, 18.36447
1098.778, 21.71646
1099.260, 17.95024
1099.742, 16.05843
1100.224, 20.32858
1100.707, 26.17716
1101.189, 29.06936
1101.671, 29.97544
1102.153, 31.22819
1102.635, 31.33583
1103.117, 25.61015
1103.599, 16.23906
1104.081, 10.50448
1104.564, 9.862749
1105.046, 9.562297
1105.528, 6.421769
1106.010, 3.220119
1106.492, 1.223782
1106.974, 1.134780
1107.456, 5.078347
1107.938, 10.52271
1108.421, 14.93300
1108.903, 17.21776
1109.385, 14.42433
1109.867, 3.201826
1110.349, 3.631865
1110.831, 2.316260
1111.313, 8.660207
1111.795, 10.15978
1112.277, 9.435720
1112.760, 8.547137
1113.242, 7.356932
1113.724, 4.694659
1114.206, 0.3667930
1114.688, 1.392621
1115.170, 6.582803
1115.652, 10.54826
1116.134, 3.974946
1116.616, 2.182348
1117.099, 16.91135
1117.581, 33.32038
1118.063, 32.16125
1118.545, 16.85265
1119.027, 7.832364
1119.509, 5.442959
1119.991, 7.632803
1120.473, 14.76670
1120.956, 24.34826
1121.438, 36.40308
1121.920, 43.70564
1122.402, 40.28342
1122.884, 30.47589
1123.366, 19.81555
1123.848, 10.10996
1124.330, 13.61345
1124.813, 26.12112
1125.295, 26.18917
1125.777, 12.58976
1126.259, 6.2351000E-02
1126.741, 2.411572
1127.223, 3.286705
1127.705, 2.866237
1128.187, 11.27520
1128.669, 18.49742
1129.151, 22.31478
1129.634, 14.67188
1130.116, 2.666658
1130.598, 3.580112
1131.080, 18.48649
1131.562, 30.26327
1132.044, 31.46795
1132.526, 27.71268
1133.008, 19.85238
1133.491, 10.54607
1133.973, 3.423011
1134.455, 7.782026
1134.937, 2.306343
1135.419, 6.129292
1135.901, 12.31225
1136.383, 3.760917
1136.865, 0.2191220
1137.348, 0.8827310
1137.830, 11.72412
1138.312, 22.85779
1138.794, 25.58684
1139.276, 2.083133
1139.758, 7.251834
1140.240, 2.395152
1140.722, 3.169500
1141.204, 15.45911
1141.687, 3.230479
1142.169, 7.750229
1142.651, 8.352978
1143.133, 17.03161
1143.615, 8.225312
1144.097, 4.819724
1144.579, 8.312481
1145.061, 12.23442
1145.543, 2.636508
1146.026, 5.246465
1146.508, 2.858040
1146.990, 21.13879
1147.472, 27.72837
1147.954, 16.70521
1148.436, 6.784898
1148.918, 5.217411
1149.400, 9.201571
1149.883, 21.05446
1150.365, 28.90682
1150.847, 17.30368
1151.329, 1.959173
1151.811, 1.845886
1152.293, 1.257407
1152.775, 2.411636
1153.257, 1.722896
1153.740, 6.297859
1154.222, 20.48830
1154.704, 30.79198
1155.186, 32.87961
1155.668, 32.94886
1156.150, 32.73562
1156.632, 31.32568
1157.114, 27.33500
1157.596, 22.27209
1158.078, 17.72795
1158.561, 13.91100
1159.043, 18.10111
1159.525, 34.80574
1160.007, 37.66516
1160.489, 22.11959
1160.971, 7.146618
1161.453, 1.622693
1161.935, 0.2631170
1162.418, 16.69053
1162.900, 36.77908
1163.382, 32.28761
1163.864, 11.50859
1164.346, 2.809455
1164.828, 4.712387
1165.310, 14.80727
1165.792, 29.53185
1166.275, 37.09221
1166.757, 33.31838
1167.239, 27.22215
1167.721, 25.20455
1168.203, 23.95510
1168.685, 21.29666
1169.167, 18.40895
1169.649, 18.10372
1170.131, 17.61291
1170.614, 9.992939
1171.096, 2.152395
1171.578, 1.047774
1172.060, 6.472860
1172.542, 16.58769
1173.024, 24.86816
1173.506, 27.88799
1173.988, 21.11131
1174.470, 13.95164
1174.953, 10.41072
1175.435, 10.88005
1175.917, 17.25537
1176.399, 27.99633
1176.881, 31.06527
1177.363, 25.74898
1177.845, 19.94403
1178.327, 13.92310
1178.810, 14.02819
1179.292, 21.88489
1179.774, 28.66966
1180.256, 28.60397
1180.738, 24.46083
1181.220, 16.90773
1181.702, 10.25960
1182.184, 15.96130
1182.667, 26.41989
1183.149, 24.89736
1183.631, 15.46448
1184.113, 14.17486
1184.595, 23.65661
1185.077, 31.24320
1185.559, 30.33148
1186.041, 28.18409
1186.523, 29.37739
1187.005, 29.05779
1187.488, 21.25316
1187.970, 13.57580
1188.452, 13.13342
1188.934, 18.72456
1189.416, 28.76868
1189.898, 44.42073
1190.380, 45.47934
1190.862, 24.14135
1191.345, 12.17856
1191.827, 13.57811
1192.309, 19.82388
1192.791, 29.85488
1193.273, 36.12749
1193.755, 30.67671
1194.237, 19.40540
1194.719, 14.00793
1195.202, 13.15082
1195.684, 13.66199
1196.166, 15.51425
1196.648, 20.92203
1197.130, 28.08710
1197.612, 30.33460
1198.094, 25.75043
1198.576, 20.06439
1199.058, 17.51972
1199.541, 18.30161
1200.023, 25.43097
1200.505, 33.42573
1200.987, 42.41900
1201.469, 46.50438
1201.951, 34.64393
1202.433, 13.11477
1202.915, 3.985471
1203.397, 12.53784
1203.880, 14.09360
1204.362, 4.136797
1204.844, 2.285885
1205.326, 2.147364
1205.808, 2.789453
1206.290, 0.6000540
1206.772, 5.175261
1207.254, 4.654301
1207.737, 0.6836580
1208.219, 5.834418
1208.701, 22.47066
1209.183, 27.00989
1209.665, 22.64233
1210.147, 22.79010
1210.629, 27.49483
1211.111, 25.31616
1211.594, 14.50910
1212.076, 7.693707
1212.558, 16.63509
1213.040, 26.51501
1213.522, 27.87843
1214.004, 25.20792
1214.486, 16.54942
1214.968, 9.923888
1215.450, 16.57365
1215.932, 32.25122
1216.415, 43.03414
1216.897, 47.52692
1217.379, 51.69682
1217.861, 58.47981
1218.343, 55.99209
1218.825, 39.26268
1219.307, 26.73512
1219.789, 24.97371
1220.271, 31.28551
1220.754, 45.03511
1221.236, 58.68803
1221.718, 54.62460
1222.200, 40.05619
1222.682, 38.94518
1223.164, 46.07173
1223.646, 47.76186
1224.128, 43.65111
1224.611, 37.38512
1225.093, 30.91048
1225.575, 29.37384
1226.057, 36.88663
1226.539, 46.04940
1227.021, 57.42517
1227.503, 63.80816
1227.985, 55.58133
1228.468, 44.13599
1228.950, 39.73712
1229.432, 41.46912
1229.914, 35.57845
1230.396, 21.81083
1230.878, 20.02280
1231.360, 34.50322
1231.842, 34.87611
1232.324, 17.63956
1232.807, 9.404183
1233.289, 17.34717
1233.771, 29.02775
1234.253, 37.12592
1234.735, 38.43391
1235.217, 24.63436
1235.699, 6.408666
1236.181, 1.128748
1236.663, 2.096563
1237.146, 1.023168
1237.628, 0.7129330
1238.110, 1.224562
1238.592, 1.070191
1239.074, 8.838975
1239.556, 19.26560
1240.038, 23.45749
1240.520, 11.79826
1241.003, 4.908337
1241.485, 8.710125
1241.967, 14.76395
1242.449, 19.77029
1242.931, 24.80026
1243.413, 31.11740
1243.895, 35.79571
1244.377, 25.19893
1244.859, 12.53100
1245.342, 9.383814
1245.824, 13.64873
1246.306, 24.99862
1246.788, 39.58435
1247.270, 42.26293
1247.752, 29.88511
1248.234, 15.06331
1248.716, 4.871636
1249.198, 6.6927001E-02
1249.681, 0.7883490
1250.163, 0.0000000E+00
##END=



