##NAMES=Tellurobismuthite
##RRUFFID=R070158
##IDEAL CHEMISTRY=Bi^3+^_2_Te^2-^_3_
##LOCALITY=Boliden, Skelleftea, Vasterbotten, Sweden
##OWNER=RRUFF
##SOURCE=James Shigley
##DESCRIPTION=Bright silver sectile metallic plates associated with yellow gold
##STATUS=The identification of this mineral is not yet confirmed.
##URL=rruff.info/R070158
118.3619, 0.0000000E+00
118.8441, 31.82214
119.3262, 11.28174
119.8083, 11.02795
120.2904, 8.107666
120.7725, 10.84424
121.2546, 35.17834
121.7368, 73.14038
122.2189, 136.8766
122.7010, 228.1506
123.1831, 325.0137
123.6652, 406.4210
124.1473, 477.2885
124.6295, 551.8162
125.1116, 638.3784
125.5937, 733.0635
126.0758, 830.9563
126.5579, 933.5505
127.0400, 1034.501
127.5222, 1124.320
128.0043, 1204.155
128.4864, 1285.918
128.9685, 1384.661
129.4506, 1493.574
129.9328, 1590.157
130.4149, 1660.112
130.8970, 1719.454
131.3791, 1812.435
131.8612, 1943.142
132.3433, 2080.250
132.8255, 2190.442
133.3076, 2274.458
133.7897, 2365.138
134.2718, 2482.177
134.7539, 2619.984
135.2360, 2732.887
135.7182, 2826.759
136.2003, 2885.475
136.6824, 2869.098
137.1645, 2758.926
137.6466, 2661.588
138.1287, 2627.228
138.6109, 2668.947
139.0930, 2696.297
139.5751, 2695.961
140.0572, 2688.546
140.5393, 2736.818
141.0214, 2877.355
141.5036, 3002.777
141.9857, 3052.007
142.4678, 2996.044
142.9499, 2933.111
143.4320, 2867.128
143.9141, 2798.745
144.3963, 2739.501
144.8784, 2696.025
145.3605, 2654.539
145.8426, 2603.604
146.3247, 2531.138
146.8068, 2467.303
147.2890, 2414.225
147.7711, 2371.124
148.2532, 2345.954
148.7353, 2356.712
149.2174, 2376.986
149.6995, 2380.193
150.1817, 2335.194
150.6638, 2303.094
151.1459, 2300.223
151.6280, 2338.593
152.1101, 2366.711
152.5922, 2376.657
153.0744, 2376.013
153.5565, 2375.721
154.0386, 2382.504
154.5207, 2385.286
155.0028, 2378.812
155.4849, 2355.364
155.9671, 2336.820
156.4492, 2334.968
156.9313, 2341.360
157.4134, 2335.883
157.8955, 2290.997
158.3777, 2247.362
158.8598, 2229.380
159.3419, 2269.716
159.8240, 2300.765
160.3061, 2294.037
160.7882, 2257.488
161.2704, 2226.259
161.7525, 2220.376
162.2346, 2222.312
162.7167, 2217.922
163.1988, 2198.855
163.6809, 2175.926
164.1631, 2153.303
164.6452, 2130.980
165.1273, 2108.397
165.6094, 2087.926
166.0915, 2066.502
166.5736, 2040.650
167.0558, 2005.701
167.5379, 1968.257
168.0200, 1932.782
168.5021, 1898.743
168.9842, 1865.268
169.4663, 1836.095
169.9485, 1806.642
170.4306, 1768.603
170.9127, 1712.483
171.3948, 1648.749
171.8769, 1588.201
172.3590, 1531.800
172.8412, 1481.946
173.3233, 1440.910
173.8054, 1404.268
174.2875, 1365.914
174.7696, 1319.823
175.2517, 1270.206
175.7339, 1229.434
176.2160, 1198.012
176.6981, 1172.744
177.1802, 1144.935
177.6623, 1113.839
178.1444, 1076.446
178.6266, 1021.085
179.1087, 957.5645
179.5908, 908.8567
180.0729, 883.7131
180.5550, 868.9556
181.0371, 847.6296
181.5193, 819.4490
182.0014, 786.3889
182.4835, 744.0530
182.9656, 697.1677
183.4477, 659.6887
183.9298, 641.0942
184.4120, 630.6191
184.8941, 602.3733
185.3762, 555.3816
185.8583, 509.5481
186.3404, 485.9480
186.8225, 481.4331
187.3047, 476.6509
187.7868, 465.8352
188.2689, 449.5176
188.7510, 429.3440
189.2331, 405.4697
189.7152, 382.6072
190.1974, 368.1057
190.6795, 361.5095
191.1616, 353.8625
191.6437, 342.2954
192.1258, 326.9038
192.6080, 307.0947
193.0901, 280.5725
193.5722, 255.6128
194.0543, 247.8247
194.5364, 258.0649
195.0185, 263.3193
195.5007, 247.3933
195.9828, 211.1470
196.4649, 194.0813
196.9470, 201.1160
197.4291, 218.5906
197.9112, 222.7122
198.3934, 212.2380
198.8755, 197.1125
199.3576, 180.0046
199.8397, 160.5127
200.3218, 147.1589
200.8039, 141.7354
201.2861, 141.0796
201.7682, 138.6255
202.2503, 134.3701
202.7324, 128.3140
203.2145, 118.2334
203.6966, 102.4614
204.1788, 95.74731
204.6609, 102.3010
205.1430, 116.9775
205.6251, 124.4983
206.1072, 123.8721
206.5893, 118.8577
207.0715, 110.1692
207.5536, 96.21289
208.0357, 87.08252
208.5178, 84.97339
208.9999, 88.41504
209.4820, 91.80957
209.9642, 96.66992
210.4463, 98.28101
210.9284, 91.09619
211.4105, 71.08130
211.8926, 57.27515
212.3747, 54.01929
212.8569, 59.84229
213.3390, 63.44141
213.8211, 65.53345
214.3032, 64.22925
214.7853, 57.36133
215.2674, 43.50464
215.7496, 27.80884
216.2317, 7.192383
216.7138, 17.10742
217.1959, 21.83301
217.6780, 1.664795
218.1601, 32.88574
218.6423, 52.48767
219.1244, 58.32104
219.6065, 57.72412
220.0886, 50.46680
220.5707, 36.13647
221.0528, 24.13989
221.5350, 14.47656
222.0171, 6.802124
222.4992, 0.4847410
222.9813, 5.125122
223.4634, 8.105835
223.9455, 6.664429
224.4277, 9.7411998E-02
224.9098, 3.273682
225.3919, 3.931030
225.8740, 0.9653320
226.3561, 7.983032
226.8382, 27.77441
227.3204, 44.06396
227.8025, 52.43079
228.2846, 51.85876
228.7667, 50.31006
229.2488, 45.47327
229.7310, 41.32495
230.2131, 44.89648
230.6952, 64.98230
231.1773, 76.55530
231.6594, 69.32739
232.1415, 37.25464
232.6237, 19.50647
233.1058, 21.77954
233.5879, 34.08740
234.0700, 41.77966
234.5521, 42.90112
235.0342, 42.39197
235.5164, 40.95813
235.9985, 37.51038
236.4806, 38.89880
236.9627, 49.13977
237.4448, 61.48071
237.9269, 64.79651
238.4091, 55.97388
238.8912, 43.41736
239.3733, 28.15613
239.8554, 6.714722
240.3375, 6.426392
240.8196, 7.422974
241.3018, 2.231934
241.7839, 1.410278
242.2660, 7.638550
242.7481, 11.78784
243.2302, 10.23181
243.7123, 1.0498000E-02
244.1945, 5.398071
244.6766, 7.537476
245.1587, 4.489746
245.6408, 8.845093
246.1229, 39.08386
246.6050, 68.77942
247.0872, 92.67749
247.5693, 112.4841
248.0514, 120.9065
248.5335, 112.0468
249.0156, 94.24292
249.4977, 85.53418
249.9799, 89.22144
250.4620, 96.60901
250.9441, 104.6637
251.4262, 113.4438
251.9083, 122.2535
252.3904, 130.6985
252.8726, 139.3630
253.3547, 149.7357
253.8368, 163.5698
254.3189, 176.5897
254.8010, 186.6742
255.2831, 192.2162
255.7653, 198.4386
256.2474, 206.4346
256.7295, 214.9332
257.2116, 220.6908
257.6937, 222.7996
258.1758, 223.5197
258.6580, 222.9054
259.1401, 218.7997
259.6222, 221.4994
260.1043, 235.8440
260.5864, 254.3125
261.0685, 258.7086
261.5507, 242.7770
262.0328, 226.0138
262.5149, 216.3385
262.9970, 215.3245
263.4791, 217.1145
263.9612, 222.6180
264.4434, 229.5618
264.9255, 233.3979
265.4076, 232.9604
265.8897, 232.4586
266.3718, 234.5021
266.8539, 240.9492
267.3361, 242.1785
267.8182, 235.5134
268.3003, 225.2858
268.7824, 221.6017
269.2645, 227.4941
269.7466, 231.1819
270.2288, 224.3308
270.7109, 203.0562
271.1930, 198.2048
271.6751, 217.4878
272.1572, 244.4473
272.6393, 244.0278
273.1215, 209.0781
273.6036, 176.9845
274.0857, 167.0562
274.5678, 181.6501
275.0499, 185.3275
275.5320, 175.1204
276.0142, 158.8414
276.4963, 151.9803
276.9784, 156.4885
277.4605, 159.6130
277.9426, 155.6140
278.4247, 144.4241
278.9069, 130.2505
279.3890, 110.7693
279.8711, 93.02832
280.3532, 91.20349
280.8354, 107.0059
281.3175, 121.1328
281.7996, 122.5304
282.2817, 112.2983
282.7638, 111.2596
283.2459, 122.1758
283.7281, 135.0527
284.2102, 132.7946
284.6923, 114.7087
285.1744, 98.44202
285.6565, 93.26367
286.1386, 98.02637
286.6208, 102.5485
287.1029, 107.6101
287.5850, 108.9597
288.0671, 96.14551
288.5492, 69.94006
289.0313, 50.13086
289.5135, 49.28430
289.9956, 63.69153
290.4777, 74.69495
290.9598, 81.58862
291.4419, 83.73376
291.9240, 78.00928
292.4062, 66.13855
292.8883, 57.29443
293.3704, 57.55566
293.8525, 62.87903
294.3346, 61.61902
294.8167, 52.87915
295.2989, 43.37793
295.7810, 43.81006
296.2631, 51.05615
296.7452, 52.62854
297.2273, 39.99854
297.7094, 21.33496
298.1916, 7.333008
298.6737, 2.409668
299.1558, 6.650024
299.6379, 1.385986
300.1200, 16.71130
300.6021, 26.78894
301.0843, 23.54834
301.5664, 14.95557
302.0485, 11.28271
302.5306, 12.51685
303.0127, 16.49792
303.4948, 24.49390
303.9770, 34.10461
304.4591, 40.37024
304.9412, 40.46716
305.4233, 38.29199
305.9054, 37.77563
306.3875, 38.53625
306.8697, 38.23706
307.3518, 33.57214
307.8339, 27.58960
308.3160, 24.13538
308.7981, 25.37366
309.2802, 27.86255
309.7624, 30.34888
310.2445, 32.37708
310.7266, 32.15015
311.2087, 23.99194
311.6908, 15.49927
312.1729, 14.28894
312.6551, 26.56067
313.1372, 38.20679
313.6193, 39.40198
314.1014, 33.71375
314.5835, 30.31531
315.0656, 35.16260
315.5478, 42.17114
316.0299, 47.59265
316.5120, 51.04199
316.9941, 52.13379
317.4762, 47.22485
317.9583, 40.04797
318.4405, 37.82324
318.9226, 53.34937
319.4047, 66.31250
319.8868, 64.46484
320.3689, 39.10425
320.8510, 20.73608
321.3332, 19.31372
321.8153, 28.66016
322.2974, 39.18115
322.7795, 58.48254
323.2616, 70.35852
323.7437, 66.04114
324.2259, 38.84619
324.7080, 20.59814
325.1901, 19.33032
325.6722, 26.90881
326.1543, 33.62268
326.6364, 40.65686
327.1186, 45.32336
327.6007, 46.45471
328.0828, 43.39087
328.5649, 41.50684
329.0470, 44.30505
329.5291, 46.07471
330.0113, 41.17822
330.4934, 21.43933
330.9755, 6.992798
331.4576, 0.9710690
331.9397, 3.304810
332.4218, 10.77478
332.9040, 28.06238
333.3861, 45.26099
333.8682, 54.44751
334.3503, 52.04297
334.8324, 50.52002
335.3145, 51.90002
335.7967, 55.33350
336.2788, 56.90320
336.7609, 57.03638
337.2430, 54.26099
337.7251, 45.62952
338.2072, 28.66028
338.6894, 19.87341
339.1715, 22.54138
339.6536, 32.28979
340.1357, 36.77747
340.6178, 34.59497
341.0999, 34.18933
341.5821, 44.51843
342.0642, 65.23572
342.5463, 69.62231
343.0284, 51.52612
343.5105, 26.19421
343.9926, 22.21179
344.4748, 39.19397
344.9569, 55.05457
345.4390, 56.59753
345.9211, 47.51172
346.4032, 45.23267
346.8853, 51.24341
347.3675, 57.04895
347.8496, 48.94165
348.3317, 30.33228
348.8138, 16.27393
349.2959, 15.48010
349.7780, 22.32361
350.2602, 26.97620
350.7423, 29.45740
351.2244, 31.58630
351.7065, 35.47461
352.1887, 40.04248
352.6708, 43.22253
353.1529, 44.94275
353.6350, 44.52686
354.1171, 38.23694
354.5992, 27.25781
355.0814, 20.50037
355.5635, 30.92078
356.0456, 45.69934
356.5277, 49.09521
357.0098, 29.95728
357.4919, 11.38879
357.9741, 11.05884
358.4562, 23.21497
358.9383, 31.52368
359.4204, 21.89355
359.9025, 9.598267
360.3846, 6.399902
360.8668, 18.26770
361.3489, 29.44214
361.8310, 33.50354
362.3131, 32.67798
362.7952, 30.89441
363.2773, 27.89404
363.7595, 25.36389
364.2416, 23.60339
364.7237, 22.21753
365.2058, 23.36230
365.6879, 30.48486
366.1700, 39.14697
366.6522, 44.39746
367.1343, 44.11572
367.6164, 42.14880
368.0985, 39.07056
368.5806, 34.85901
369.0627, 29.31885
369.5449, 21.30188
370.0270, 12.86475
370.5091, 5.377563
370.9912, 2.837097
371.4733, 7.590515
371.9554, 7.419312
372.4376, 3.248535
372.9197, 0.2255860
373.4018, 0.2764280
373.8839, 1.955994
374.3660, 7.783020
374.8481, 19.37714
375.3303, 27.89026
375.8124, 32.08765
376.2945, 33.57281
376.7766, 36.64307
377.2587, 41.94830
377.7408, 44.71936
378.2230, 39.87433
378.7051, 27.76886
379.1872, 24.81110
379.6693, 33.54071
380.1514, 44.81287
380.6335, 45.84283
381.1157, 37.17938
381.5978, 27.35602
382.0799, 16.22894
382.5620, 6.751831
383.0441, 11.32202
383.5262, 30.59644
384.0084, 47.27216
384.4905, 40.08038
384.9726, 18.13953
385.4547, 4.841736
385.9368, 9.586609
386.4189, 21.60620
386.9011, 30.42737
387.3832, 36.07050
387.8653, 38.34735
388.3474, 34.14661
388.8295, 27.50800
389.3116, 22.99371
389.7938, 22.02771
390.2759, 23.34863
390.7580, 27.95764
391.2401, 34.22632
391.7222, 38.79315
392.2043, 41.26373
392.6865, 40.77264
393.1686, 34.92218
393.6507, 21.96014
394.1328, 13.45538
394.6149, 16.29742
395.0970, 24.26343
395.5792, 30.51971
396.0613, 32.73529
396.5434, 33.80859
397.0255, 33.76904
397.5076, 32.83899
397.9897, 34.31030
398.4719, 40.78998
398.9540, 47.10828
399.4361, 50.36224
399.9182, 49.86664
400.4003, 47.01257
400.8824, 39.99121
401.3646, 30.38495
401.8467, 25.13000
402.3288, 27.45685
402.8109, 29.43597
403.2930, 25.94238
403.7751, 14.04144
404.2573, 10.19025
404.7394, 18.16022
405.2215, 29.51031
405.7036, 28.31879
406.1857, 12.02039
406.6678, 1.240967
407.1500, 6.249695
407.6321, 23.75562
408.1142, 31.93744
408.5963, 29.77197
409.0784, 24.26294
409.5605, 20.40448
410.0427, 18.53809
410.5248, 20.91321
411.0069, 29.97290
411.4890, 41.09106
411.9711, 46.50122
412.4532, 46.66455
412.9354, 44.55981
413.4175, 40.58282
413.8996, 36.41943
414.3817, 34.89819
414.8638, 36.92603
415.3459, 39.01758
415.8281, 38.28607
416.3102, 35.87427
416.7923, 33.65906
417.2744, 31.47339
417.7565, 30.33746
418.2386, 31.90631
418.7208, 36.54492
419.2029, 40.32605
419.6850, 41.96588
420.1671, 41.92548
420.6492, 39.99103
421.1313, 35.94702
421.6135, 30.75342
422.0956, 22.44611
422.5777, 12.30493
423.0598, 6.746094
423.5420, 8.245972
424.0241, 13.35803
424.5062, 21.35791
424.9883, 38.77063
425.4704, 46.01263
425.9525, 35.18323
426.4347, 17.77020
426.9168, 14.55933
427.3989, 34.32733
427.8810, 51.35120
428.3631, 57.11835
428.8452, 51.29822
429.3274, 47.38892
429.8095, 46.70532
430.2916, 45.93341
430.7737, 40.74011
431.2558, 30.76398
431.7379, 22.62445
432.2201, 17.70190
432.7022, 15.48486
433.1843, 15.41229
433.6664, 17.44922
434.1485, 18.74670
434.6306, 15.44025
435.1128, 9.957703
435.5949, 10.27533
436.0770, 18.33807
436.5591, 26.47980
437.0412, 23.77490
437.5233, 14.71552
438.0055, 8.617859
438.4876, 11.23920
438.9697, 17.74390
439.4518, 25.40143
439.9339, 33.83124
440.4160, 38.01239
440.8982, 29.50769
441.3803, 18.22687
441.8624, 13.74438
442.3445, 26.97205
442.8266, 35.87085
443.3087, 28.47308
443.7909, 10.42761
444.2730, 2.393494
444.7551, 4.178284
445.2372, 2.093994
445.7193, 1.537415
446.2014, 7.765991
446.6836, 12.10480
447.1657, 13.90717
447.6478, 14.11993
448.1299, 13.50507
448.6120, 10.29828
449.0941, 9.571716
449.5763, 13.81531
450.0584, 22.07434
450.5405, 24.06561
451.0226, 16.93451
451.5047, 10.12964
451.9868, 11.61591
452.4690, 22.51825
452.9511, 28.84937
453.4332, 29.30731
453.9153, 24.98981
454.3974, 14.25159
454.8795, 2.348083
455.3617, 12.35291
455.8438, 4.637817
456.3259, 13.27991
456.8080, 22.50562
457.2901, 22.73077
457.7722, 18.97717
458.2544, 13.79578
458.7365, 7.943970
459.2186, 2.624329
459.7007, 3.330872
460.1828, 6.645874
460.6649, 3.398010
461.1471, 4.919189
461.6292, 13.60406
462.1113, 22.39050
462.5934, 29.63733
463.0755, 34.10883
463.5576, 35.25452
464.0398, 35.04102
464.5219, 32.72815
465.0040, 29.97778
465.4861, 28.63452
465.9682, 30.50995
466.4503, 32.02075
466.9325, 32.95465
467.4146, 33.14099
467.8967, 31.37018
468.3788, 26.45233
468.8609, 21.09094
469.3430, 16.04169
469.8252, 9.611633
470.3073, 9.615540
470.7894, 19.54584
471.2715, 32.55139
471.7536, 35.06372
472.2357, 25.37097
472.7179, 16.77374
473.2000, 14.42621
473.6821, 16.74426
474.1642, 17.73090
474.6463, 17.75873
475.1284, 16.95209
475.6106, 15.64313
476.0927, 13.59283
476.5748, 9.120117
477.0569, 0.1520390
477.5390, 6.981750
478.0211, 0.2722780
478.5033, 17.38788
478.9854, 31.68604
479.4675, 34.38336
479.9496, 32.10468
480.4317, 28.65729
480.9138, 24.12817
481.3960, 21.65344
481.8781, 24.12567
482.3602, 27.32562
482.8423, 26.67328
483.3244, 16.56848
483.8065, 7.641113
484.2887, 1.293274
484.7708, 2.385315
485.2529, 3.317810
485.7350, 2.313110
486.2171, 2.217163
486.6992, 12.88007
487.1814, 33.74493
487.6635, 42.31250
488.1456, 32.86304
488.6277, 17.80365
489.1098, 13.08337
489.5919, 20.32794
490.0741, 24.33997
490.5562, 20.60034
491.0383, 12.03339
491.5204, 8.893066
492.0026, 11.31995
492.4847, 14.38782
492.9668, 16.13141
493.4489, 16.06897
493.9310, 11.40259
494.4131, 0.9528810
494.8953, 8.183594
495.3774, 6.852722
495.8595, 0.5043330
496.3416, 8.135620
496.8237, 16.37567
497.3058, 21.70575
497.7880, 18.31128
498.2701, 8.388123
498.7522, 3.965332
499.2343, 14.77319
499.7164, 28.02368
500.1985, 34.93225
500.6807, 31.84467
501.1628, 30.09277
501.6449, 35.08728
502.1270, 41.70593
502.6091, 42.08325
503.0912, 29.87946
503.5734, 19.89215
504.0555, 15.17133
504.5376, 15.12317
505.0197, 15.55042
505.5018, 16.15521
505.9839, 17.88184
506.4661, 21.80585
506.9482, 28.43115
507.4303, 33.99719
507.9124, 38.75934
508.3945, 41.94543
508.8766, 41.98810
509.3588, 39.10785
509.8409, 35.35315
510.3230, 31.27783
510.8051, 26.90393
511.2872, 21.32056
511.7693, 14.76172
512.2515, 10.87885
512.7336, 15.61230
513.2157, 22.36401
513.6978, 23.66345
514.1799, 15.82111
514.6620, 9.227966
515.1442, 11.01031
515.6263, 17.33691
516.1084, 22.46814
516.5905, 25.27283
517.0726, 26.15619
517.5547, 23.85876
518.0369, 18.58038
518.5190, 16.12177
519.0011, 19.71765
519.4832, 23.17871
519.9653, 23.05389
520.4474, 16.84235
520.9296, 13.68872
521.4117, 14.72113
521.8938, 17.47021
522.3759, 18.51068
522.8580, 17.79303
523.3401, 15.30573
523.8223, 9.391907
524.3044, 2.471436
524.7865, 3.352722
525.2686, 11.91406
525.7507, 20.62488
526.2328, 24.97858
526.7150, 25.48395
527.1971, 22.59271
527.6792, 15.80298
528.1613, 8.260376
528.6434, 1.221741
529.1255, 4.628052
529.6077, 8.313843
530.0898, 9.609131
530.5719, 8.498413
531.0540, 3.647217
531.5361, 4.161743
532.0182, 10.78687
532.5004, 15.57587
532.9825, 18.56403
533.4646, 19.42352
533.9467, 17.21271
534.4288, 4.736145
534.9109, 20.47125
535.3931, 34.38135
535.8752, 38.08295
536.3573, 8.9782998E-02
536.8394, 16.03284
537.3215, 10.35938
537.8036, 3.796875
538.2858, 27.32312
538.7679, 4.602478
539.2500, 18.43768
539.7321, 19.53180
540.2142, 30.66687
540.6964, 20.05182
541.1785, 16.13904
541.6606, 33.94147
542.1427, 39.66656
542.6248, 26.36462
543.1069, 37.91541
543.5891, 5.033264
544.0712, 11.27527
544.5533, 34.39716
545.0354, 22.35876
545.5175, 34.51215
545.9996, 37.44904
546.4818, 1.498901
546.9639, 32.35254
547.4460, 34.73523
547.9281, 4.777771
548.4102, 36.15515
548.8923, 10.61914
549.3745, 5.370789
549.8566, 15.40912
550.3387, 9.530579
550.8208, 28.76917
551.3029, 23.81329
551.7850, 16.67456
552.2672, 18.91455
552.7493, 6.008728
553.2314, 18.71301
553.7135, 9.911560
554.1956, 17.99811
554.6777, 29.93372
555.1599, 12.66125
555.6420, 26.31586
556.1241, 8.048950
556.6062, 2.301025
557.0883, 0.8358150
557.5704, 26.31061
558.0526, 7.790527
558.5347, 3.105530
559.0168, 18.09204
559.4989, 26.49658
559.9810, 35.91162
560.4631, 30.00470
560.9453, 12.37866
561.4274, 1.840088
561.9095, 7.201477
562.3916, 14.49457
562.8737, 19.24347
563.3558, 21.21039
563.8380, 21.61285
564.3201, 0.5574950
564.8022, 26.04926
565.2843, 40.49103
565.7664, 44.47650
566.2485, 6.692932
566.7307, 22.84167
567.2128, 17.37445
567.6949, 11.01959
568.1770, 34.75470
568.6591, 3.038208
569.1412, 26.28949
569.6234, 27.56787
570.1055, 38.87177
570.5876, 28.44690
571.0697, 24.76605
571.5518, 42.83948
572.0339, 48.84302
572.5161, 35.88812
572.9982, 47.82892
573.4803, 15.32507
573.9624, 21.85956
574.4445, 45.22949
574.9266, 33.41241
575.4088, 45.78833
575.8909, 48.93964
576.3730, 10.20490
576.8551, 44.30988
577.3372, 46.92358
577.8193, 17.33734
578.3015, 49.31006
578.7836, 24.10254
579.2657, 19.10895
579.7478, 29.40454
580.2299, 23.77661
580.7120, 43.25763
581.1942, 38.53516
581.6763, 31.62555
582.1584, 34.08392
582.6405, 9.835388
583.1226, 35.22504
583.6047, 26.77570
584.0869, 35.16290
584.5690, 47.36536
585.0511, 30.34436
585.5332, 44.24164
586.0153, 10.13055
586.4974, 16.02435
586.9796, 17.23077
587.4617, 43.86200
587.9438, 9.163452
588.4259, 13.32678
588.9080, 34.31061
589.3901, 32.60083
589.8723, 40.59296
590.3544, 19.99695
590.8365, 26.28815
591.3186, 25.17401
591.8007, 49.64941
592.2828, 53.35309
592.7650, 33.25616
593.2471, 13.26343
593.7292, 39.58917
594.2113, 21.75104
594.6934, 27.84918
595.1755, 9.462463
595.6577, 12.14606
596.1398, 14.57684
596.6219, 27.27454
597.1040, 7.701721
597.5862, 30.71381
598.0683, 29.11243
598.5504, 34.76099
599.0325, 39.59741
599.5146, 11.41071
599.9968, 10.29950
600.4789, 48.16840
600.9610, 27.35211
601.4431, 18.28540
601.9252, 17.39020
602.4073, 56.34955
602.8895, 58.12158
603.3716, 15.44342
603.8537, 52.63904
604.3358, 40.33643
604.8179, 42.99463
605.3000, 40.32501
605.7822, 39.18109
606.2643, 18.10315
606.7464, 35.04456
607.2285, 37.77814
607.7106, 38.48016
608.1927, 35.57965
608.6749, 32.31616
609.1570, 29.83063
609.6391, 28.51367
610.1212, 28.99176
610.6033, 33.56128
611.0854, 37.54657
611.5676, 38.31274
612.0497, 36.47229
612.5318, 34.58875
613.0139, 31.08545
613.4960, 30.08258
613.9781, 33.70844
614.4603, 43.02728
614.9424, 47.48938
615.4245, 46.77075
615.9066, 42.27527
616.3887, 35.95288
616.8708, 28.44885
617.3530, 20.92719
617.8351, 12.96039
618.3172, 8.108398
618.7993, 14.06073
619.2814, 25.21960
619.7635, 31.49469
620.2457, 23.30206
620.7278, 15.12543
621.2099, 17.23785
621.6920, 25.91846
622.1741, 29.61700
622.6563, 16.71710
623.1384, 7.442078
623.6205, 11.56329
624.1026, 30.01172
624.5847, 39.87042
625.0668, 37.98755
625.5490, 32.62390
626.0311, 29.14679
626.5132, 27.63177
626.9953, 25.25397
627.4774, 21.57483
627.9595, 17.79382
628.4417, 15.01953
628.9238, 13.37280
629.4059, 13.32928
629.8880, 14.99908
630.3701, 17.58551
630.8522, 21.26794
631.3344, 25.12299
631.8165, 27.00897
632.2986, 23.38147
632.7807, 19.97198
633.2628, 21.58759
633.7449, 27.88654
634.2271, 27.59967
634.7092, 11.43304
635.1913, 3.317261
635.6734, 8.523804
636.1555, 2.221252
636.6376, 4.670349
637.1198, 12.45911
637.6019, 20.41205
638.0840, 29.69891
638.5661, 39.26263
639.0482, 40.59302
639.5303, 30.29022
640.0125, 16.30591
640.4946, 7.465515
640.9767, 3.424988
641.4588, 3.269836
641.9409, 11.12970
642.4230, 18.81146
642.9052, 19.55719
643.3873, 15.19550
643.8694, 12.91260
644.3515, 18.89362
644.8336, 23.73657
645.3157, 21.62048
645.7979, 11.35760
646.2800, 8.354431
646.7621, 16.98688
647.2442, 26.26062
647.7263, 27.54230
648.2084, 20.06903
648.6906, 14.02484
649.1727, 9.890381
649.6548, 7.706421
650.1369, 8.153564
650.6190, 10.72626
651.1011, 14.04639
651.5833, 18.18018
652.0654, 22.09467
652.5475, 25.50714
653.0296, 27.94672
653.5117, 28.39032
653.9938, 25.24347
654.4760, 21.19464
654.9581, 16.22510
655.4402, 10.68903
655.9223, 8.515015
656.4044, 14.70233
656.8865, 17.92426
657.3687, 11.41394
657.8508, 6.243347
658.3329, 14.48376
658.8150, 11.96631
659.2971, 4.875305
659.7792, 3.640381
660.2614, 12.58685
660.7435, 16.16565
661.2256, 12.95038
661.7077, 7.716980
662.1898, 4.819885
662.6719, 3.369446
663.1541, 1.812073
663.6362, 2.564026
664.1183, 4.487122
664.6004, 2.6184000E-02
665.0825, 8.669189
665.5646, 16.02319
666.0468, 21.23602
666.5289, 25.04095
667.0110, 27.60870
667.4931, 28.91565
667.9752, 28.43585
668.4573, 25.65472
668.9395, 22.92236
669.4216, 21.44330
669.9037, 21.14032
670.3858, 21.96442
670.8679, 23.98828
671.3500, 25.29834
671.8322, 22.10699
672.3143, 17.96338
672.7964, 19.02209
673.2785, 28.30054
673.7606, 34.93695
674.2427, 30.39264
674.7249, 21.18774
675.2070, 14.54590
675.6891, 11.71564
676.1712, 12.07404
676.6533, 17.69995
677.1354, 25.49060
677.6176, 29.43201
678.0997, 28.91479
678.5818, 26.61066
679.0639, 22.90131
679.5460, 18.13147
680.0281, 11.58154
680.5103, 3.768738
680.9924, 0.2951660
681.4745, 8.457581
681.9566, 20.84021
682.4387, 28.27356
682.9208, 30.65765
683.4030, 30.67438
683.8851, 29.40088
684.3672, 26.55109
684.8493, 21.46545
685.3314, 12.77771
685.8135, 5.745728
686.2957, 2.103760
686.7778, 5.908020
687.2599, 0.3717650
687.7420, 20.68817
688.2241, 33.24329
688.7062, 35.23334
689.1884, 31.26874
689.6705, 26.42242
690.1526, 21.16388
690.6347, 17.93439
691.1168, 17.86090
691.5989, 19.49731
692.0811, 23.22937
692.5632, 27.46423
693.0453, 28.29047
693.5274, 22.04956
694.0095, 14.43158
694.4916, 4.846375
694.9738, 5.741272
695.4559, 8.551025
695.9380, 1.998352
696.4201, 12.56647
696.9022, 17.47925
697.3843, 16.74286
697.8665, 21.40198
698.3486, 32.83435
698.8307, 42.38519
699.3128, 41.79828
699.7949, 33.97510
700.2770, 26.84674
700.7592, 21.09265
701.2413, 15.94415
701.7234, 8.621033
702.2055, 2.515259
702.6876, 2.145203
703.1697, 12.46149
703.6519, 20.66943
704.1340, 21.63446
704.6161, 19.25519
705.0982, 19.03796
705.5803, 23.71503
706.0624, 24.56775
706.5446, 18.28925
707.0267, 9.656555
707.5088, 11.26172
707.9909, 23.01935
708.4730, 29.25952
708.9551, 19.92609
709.4373, 5.789551
709.9194, 5.481934
710.4015, 16.40790
710.8836, 28.04980
711.3657, 39.38812
711.8478, 45.93103
712.3300, 42.23450
712.8121, 28.75293
713.2942, 17.93951
713.7763, 10.38086
714.2584, 8.062927
714.7405, 13.40680
715.2227, 27.68231
715.7048, 37.81891
716.1869, 43.80164
716.6690, 45.30365
717.1511, 38.54437
717.6332, 25.84430
718.1154, 19.62946
718.5975, 21.50732
719.0796, 26.50189
719.5617, 31.82806
720.0438, 36.80121
720.5259, 41.04297
721.0081, 46.89062
721.4902, 47.25555
721.9723, 33.33984
722.4544, 15.72931
722.9365, 8.919617
723.4186, 19.50916
723.9008, 30.16376
724.3829, 41.28693
724.8650, 49.60162
725.3471, 43.78040
725.8292, 23.10236
726.3113, 12.63916
726.7935, 26.46375
727.2756, 49.27582
727.7577, 55.40527
728.2398, 48.22577
728.7219, 40.33319
729.2040, 37.77094
729.6862, 37.04938
730.1683, 35.44263
730.6504, 33.24323
731.1325, 34.56360
731.6146, 44.81647
732.0967, 53.63983
732.5789, 56.96466
733.0610, 54.52466
733.5431, 52.19592
734.0252, 49.99390
734.5073, 47.93860
734.9894, 45.65552
735.4716, 43.36011
735.9537, 41.75226
736.4358, 40.86792
736.9179, 40.77240
737.4000, 43.35162
737.8821, 45.82013
738.3643, 44.00623
738.8464, 34.06824
739.3286, 29.45068
739.8107, 39.46588
740.2928, 53.42157
740.7749, 61.55377
741.2570, 63.71887
741.7391, 59.56097
742.2213, 45.15680
742.7034, 29.04102
743.1855, 27.98871
743.6676, 40.08215
744.1497, 48.32690
744.6318, 47.58228
745.1140, 43.24091
745.5961, 40.05499
746.0782, 37.64569
746.5603, 35.39050
747.0424, 33.83008
747.5245, 31.52759
748.0067, 24.11096
748.4888, 15.31348
748.9709, 17.73248
749.4530, 42.91803
749.9351, 58.52771
750.4172, 52.90222
750.8994, 32.38953
751.3815, 22.97546
751.8636, 24.72839
752.3457, 28.68945
752.8278, 29.98938
753.3099, 30.36829
753.7921, 33.70715
754.2742, 39.21722
754.7563, 43.64301
755.2384, 44.63184
755.7205, 44.48840
756.2026, 45.01416
756.6848, 46.50598
757.1669, 45.31262
757.6490, 38.72913
758.1311, 32.85187
758.6132, 31.47479
759.0953, 35.03387
759.5775, 35.14972
760.0596, 31.06396
760.5417, 26.50055
761.0238, 22.66492
761.5059, 21.12115
761.9880, 27.69379
762.4702, 43.89282
762.9523, 56.30804
763.4344, 52.85742
763.9165, 43.20184
764.3986, 35.74542
764.8807, 30.52338
765.3629, 30.65314
765.8450, 40.70618
766.3271, 51.66974
766.8092, 54.52606
767.2913, 48.43561
767.7734, 39.93176
768.2556, 28.45685
768.7377, 18.98706
769.2198, 20.02161
769.7019, 28.17419
770.1840, 35.06622
770.6661, 38.55713
771.1483, 40.54102
771.6304, 41.06848
772.1125, 40.47229
772.5946, 39.57043
773.0767, 37.75049
773.5588, 37.59509
774.0410, 40.51929
774.5231, 44.55627
775.0052, 45.81787
775.4873, 43.98792
775.9694, 42.59357
776.4515, 44.13531
776.9337, 44.56464
777.4158, 31.00897
777.8979, 8.706543
778.3800, 3.851868
778.8621, 9.480164
779.3442, 27.53223
779.8264, 39.47076
780.3085, 45.97375
780.7906, 49.01642
781.2727, 46.53015
781.7548, 43.46039
782.2369, 40.95190
782.7191, 38.65997
783.2012, 33.94348
783.6833, 26.20367
784.1654, 21.55225
784.6475, 24.67456
785.1296, 31.46985
785.6118, 33.55481
786.0939, 31.45532
786.5760, 27.60913
787.0581, 23.56488
787.5402, 18.12274
788.0223, 8.847229
788.5045, 3.802002
788.9866, 12.05066
789.4687, 14.02972
789.9508, 12.96234
790.4329, 9.847412
790.9150, 4.602295
791.3972, 3.901123
791.8793, 16.17450
792.3614, 25.55450
792.8435, 25.95618
793.3256, 21.05243
793.8077, 16.99988
794.2899, 13.99481
794.7720, 11.79944
795.2541, 9.727539
795.7362, 8.777283
796.2183, 10.13025
796.7004, 14.51331
797.1826, 17.17737
797.6647, 18.78442
798.1468, 17.55054
798.6289, 9.752991
799.1110, 4.578064
799.5931, 6.890625
800.0753, 3.605774
800.5574, 15.86188
801.0395, 21.47906
801.5216, 22.40063
802.0037, 19.56989
802.4858, 12.54199
802.9680, 9.710876
803.4501, 21.40662
803.9322, 34.22437
804.4143, 37.07599
804.8964, 25.74176
805.3785, 19.83618
805.8607, 21.62708
806.3428, 24.60913
806.8249, 21.85193
807.3070, 14.56598
807.7891, 12.60645
808.2712, 17.10980
808.7534, 22.68518
809.2355, 25.66638
809.7176, 26.42047
810.1997, 24.72382
810.6818, 19.75244
811.1639, 15.58099
811.6461, 12.36957
812.1282, 11.19330
812.6103, 13.42932
813.0924, 21.11255
813.5745, 24.92139
814.0566, 23.83197
814.5388, 21.34674
815.0209, 22.50171
815.5030, 25.45966
815.9851, 22.46594
816.4672, 10.89478
816.9493, 2.491394
817.4315, 10.49567
817.9136, 24.32648
818.3957, 33.28558
818.8778, 34.45673
819.3599, 31.96271
819.8420, 22.67780
820.3242, 13.58612
820.8063, 12.92780
821.2884, 21.90710
821.7705, 25.40576
822.2526, 21.21515
822.7347, 15.45135
823.2169, 15.78851
823.6990, 19.34692
824.1811, 20.59241
824.6632, 17.64697
825.1453, 14.44470
825.6274, 12.99084
826.1096, 12.19824
826.5917, 10.94482
827.0738, 9.581055
827.5559, 6.566589
828.0380, 0.4314580
828.5201, 4.993225
829.0023, 5.633911
829.4844, 1.487366
829.9665, 10.29346
830.4486, 32.43219
830.9307, 50.20032
831.4128, 45.08771
831.8950, 28.46869
832.3771, 14.37537
832.8592, 6.726318
833.3413, 1.093567
833.8234, 6.079834
834.3055, 9.836853
834.7877, 3.707153
835.2698, 16.49182
835.7519, 25.87421
836.2340, 19.52185
836.7161, 11.83203
837.1982, 22.45911
837.6804, 43.60443
838.1625, 55.33575
838.6446, 51.62604
839.1267, 46.72626
839.6088, 54.33038
840.0909, 62.80017
840.5731, 59.35284
841.0552, 27.76764
841.5373, 11.88501
842.0194, 18.59784
842.5015, 31.31256
842.9836, 31.10272
843.4658, 19.10773
843.9479, 12.32764
844.4300, 13.11945
844.9121, 16.71625
845.3942, 19.20612
845.8763, 21.41400
846.3585, 24.82111
846.8406, 31.91595
847.3227, 33.95801
847.8048, 21.59888
848.2869, 7.861023
848.7690, 3.683960
849.2512, 11.72449
849.7333, 18.29907
850.2154, 23.09552
850.6975, 26.22992
851.1796, 28.15149
851.6617, 28.43744
852.1439, 25.03314
852.6260, 17.07513
853.1081, 11.06696
853.5902, 12.45221
854.0723, 17.03650
854.5544, 21.93750
855.0366, 28.29694
855.5187, 30.03345
856.0008, 24.79669
856.4829, 19.10370
856.9650, 18.77704
857.4471, 23.21143
857.9293, 23.89429
858.4114, 19.65894
858.8935, 15.77789
859.3756, 17.04071
859.8577, 20.80988
860.3398, 25.77191
860.8220, 32.44720
861.3041, 34.00372
861.7862, 21.14142
862.2683, 9.843201
862.7504, 9.638611
863.2325, 21.61157
863.7147, 24.95148
864.1968, 18.47827
864.6789, 12.39600
865.1610, 17.98932
865.6431, 27.64191
866.1252, 26.10602
866.6074, 13.30353
867.0895, 4.975525
867.5716, 12.81482
868.0537, 23.66150
868.5358, 30.62891
869.0179, 33.68842
869.5001, 33.78748
869.9822, 30.29340
870.4643, 25.75464
870.9464, 20.23230
871.4285, 14.99225
871.9106, 15.25098
872.3928, 20.18256
872.8749, 26.11542
873.3570, 32.06555
873.8391, 37.04236
874.3212, 41.67810
874.8033, 45.33173
875.2855, 42.10266
875.7676, 23.56799
876.2497, 12.13000
876.7318, 17.81769
877.2139, 35.13525
877.6960, 42.27368
878.1782, 39.71606
878.6603, 34.04498
879.1424, 24.26343
879.6245, 16.56824
880.1067, 20.71033
880.5888, 32.16394
881.0709, 38.25507
881.5530, 27.90948
882.0352, 20.80414
882.5173, 23.24512
882.9994, 30.74017
883.4815, 31.26270
883.9636, 24.40833
884.4457, 16.89441
884.9279, 8.816711
885.4100, 4.391602
885.8921, 15.80035
886.3742, 34.38855
886.8563, 43.38458
887.3384, 23.92261
887.8206, 9.560974
888.3027, 14.39703
888.7848, 27.45319
889.2669, 33.24103
889.7490, 30.02130
890.2311, 26.42535
890.7133, 23.18506
891.1954, 20.84747
891.6775, 21.05988
892.1596, 22.65051
892.6417, 22.89905
893.1238, 20.51855
893.6060, 18.36615
894.0881, 16.39600
894.5702, 16.13672
895.0523, 20.28571
895.5344, 33.96600
896.0165, 38.61700
896.4987, 31.63971
896.9808, 21.94299
897.4629, 18.75092
897.9450, 20.22009
898.4271, 20.02521
898.9092, 17.46106
899.3914, 15.31641
899.8735, 17.75507
900.3556, 20.02747
900.8377, 17.32312
901.3198, 7.415833
901.8019, 2.351868
902.2841, 4.345337
902.7662, 7.264648
903.2483, 7.505859
903.7304, 5.511963
904.2125, 1.901855
904.6946, 3.071045
905.1768, 2.999451
905.6589, 13.76349
906.1410, 31.25372
906.6231, 35.17395
907.1052, 26.49445
907.5873, 19.53064
908.0695, 16.23962
908.5516, 15.11597
909.0337, 17.43237
909.5158, 20.90808
909.9979, 14.73560
910.4800, 1.5076000E-02
910.9622, 10.67633
911.4443, 12.16443
911.9264, 6.772827
912.4085, 8.574280
912.8906, 28.52917
913.3727, 41.16681
913.8549, 40.48474
914.3370, 35.04712
914.8191, 22.07855
915.3012, 8.297791
915.7833, 7.782837
916.2654, 20.04205
916.7476, 30.66321
917.2297, 36.76886
917.7118, 39.33917
918.1939, 39.28790
918.6760, 36.52032
919.1581, 30.24988
919.6403, 15.69470
920.1224, 7.310730
920.6045, 10.42700
921.0866, 16.79083
921.5687, 18.97589
922.0508, 16.75903
922.5330, 16.61749
923.0151, 19.43915
923.4972, 21.90643
923.9793, 21.35382
924.4614, 19.35120
924.9435, 16.72028
925.4257, 13.47394
925.9078, 13.68042
926.3899, 23.65497
926.8720, 32.19989
927.3541, 34.57556
927.8362, 30.98566
928.3184, 21.79297
928.8005, 6.517090
929.2826, 2.108948
929.7647, 10.44189
930.2468, 29.34851
930.7289, 35.75653
931.2111, 32.23364
931.6932, 29.16486
932.1753, 33.29102
932.6574, 34.16809
933.1395, 27.35663
933.6216, 16.38660
934.1038, 11.25299
934.5859, 12.22400
935.0680, 11.69525
935.5501, 6.512939
936.0322, 0.8986210
936.5143, 0.3739010
936.9965, 1.544800
937.4786, 4.791260
937.9607, 10.41028
938.4428, 14.78351
938.9249, 16.27771
939.4070, 17.42334
939.8892, 22.59088
940.3713, 32.36151
940.8534, 31.42633
941.3355, 17.29150
941.8176, 2.668762
942.2997, 1.465515
942.7819, 6.447510
943.2640, 8.828857
943.7461, 7.210449
944.2282, 7.472229
944.7103, 14.28992
945.1924, 20.26733
945.6746, 21.67261
946.1567, 18.89459
946.6388, 16.12219
947.1209, 13.35297
947.6030, 13.73041
948.0851, 21.74750
948.5673, 31.99969
949.0494, 42.68835
949.5315, 51.33893
950.0136, 49.49463
950.4957, 18.99298
950.9778, 1.811035
951.4600, 2.266846
951.9421, 9.041382
952.4242, 12.27344
952.9063, 8.033752
953.3884, 4.106567
953.8705, 1.799194
954.3527, 2.922363
954.8348, 13.80621
955.3169, 27.39307
955.7990, 34.23206
956.2811, 26.19476
956.7632, 21.93781
957.2454, 24.34869
957.7275, 27.61072
958.2096, 25.24921
958.6917, 18.29315
959.1738, 15.87299
959.6559, 18.63379
960.1381, 19.84113
960.6202, 9.580383
961.1023, 1.020386
961.5844, 2.595520
962.0665, 6.034058
962.5486, 16.83685
963.0308, 33.89246
963.5129, 44.66614
963.9950, 41.78723
964.4771, 29.59521
964.9592, 21.66895
965.4413, 17.67383
965.9235, 16.59625
966.4056, 23.38751
966.8877, 27.38336
967.3698, 17.96771
967.8519, 2.445313
968.3340, 3.004822
968.8162, 5.962097
969.2983, 13.24963
969.7804, 17.35516
970.2625, 19.65979
970.7446, 20.29901
971.2267, 20.30377
971.7089, 23.13446
972.1910, 30.31268
972.6731, 35.05646
973.1552, 31.21362
973.6373, 25.49768
974.1194, 23.27026
974.6016, 24.74536
975.0837, 25.04706
975.5658, 24.08765
976.0479, 22.34900
976.5300, 19.58295
977.0121, 16.48010
977.4943, 13.99683
977.9764, 12.22894
978.4585, 11.47620
978.9406, 15.27600
979.4227, 15.92578
979.9048, 6.751953
980.3870, 5.620239
980.8691, 1.881897
981.3512, 19.33990
981.8333, 30.16040
982.3154, 20.80347
982.7975, 6.040588
983.2797, 3.164307
983.7618, 6.492981
984.2439, 7.500488
984.7260, 0.2764890
985.2081, 0.4392090
985.6902, 18.75677
986.1724, 36.26880
986.6545, 35.79498
987.1366, 18.86932
987.6187, 10.97833
988.1008, 12.39240
988.5829, 15.50616
989.0651, 13.50745
989.5472, 12.26056
990.0293, 18.44965
990.5114, 31.03925
990.9935, 34.23352
991.4756, 20.90894
991.9578, 13.07849
992.4399, 19.61353
992.9220, 32.19470
993.4041, 30.07703
993.8862, 17.55408
994.3683, 9.768738
994.8505, 15.36304
995.3326, 20.04352
995.8147, 12.87237
996.2968, 2.628784
996.7789, 0.2785640
997.2610, 6.434082
997.7432, 13.39398
998.2253, 20.94812
998.7074, 26.37384
999.1895, 27.57214
999.6716, 25.01611
1000.154, 16.74066
1000.636, 3.304871
1001.118, 3.835205
1001.600, 6.095703
1002.082, 16.62427
1002.564, 21.11664
1003.046, 20.94507
1003.529, 20.21649
1004.011, 18.92365
1004.493, 16.73260
1004.975, 11.82379
1005.457, 8.831177
1005.939, 16.57971
1006.421, 28.07770
1006.903, 32.43073
1007.385, 18.01642
1007.868, 10.40961
1008.350, 12.41400
1008.832, 16.88226
1009.314, 16.35968
1009.796, 12.45502
1010.278, 10.41870
1010.760, 10.67859
1011.242, 13.84924
1011.725, 27.66351
1012.207, 38.20972
1012.689, 32.21399
1013.171, 12.38599
1013.653, 2.127319
1014.135, 2.765137
1014.617, 7.094055
1015.099, 14.49652
1015.581, 21.29443
1016.064, 17.67865
1016.546, 9.399048
1017.028, 8.975464
1017.510, 31.57983
1017.992, 44.00098
1018.474, 31.11072
1018.956, 12.99634
1019.438, 9.311646
1019.921, 20.28400
1020.403, 23.59290
1020.885, 17.97668
1021.367, 12.50720
1021.849, 17.99463
1022.331, 23.99500
1022.813, 19.21112
1023.295, 4.239441
1023.778, 4.200073
1024.260, 2.574951
1024.742, 0.1013180
1025.224, 0.6500240
1025.706, 0.3361210
1026.188, 0.3646240
1026.670, 0.8983150
1027.152, 0.7817990
1027.634, 0.3452760
1028.117, 1.842651
1028.599, 3.708740
1029.081, 5.645325
1029.563, 7.784607
1030.045, 10.65430
1030.527, 8.030884
1031.009, 1.250549
1031.491, 4.524689
1031.974, 19.84052
1032.456, 47.91492
1032.938, 46.70782
1033.420, 20.52295
1033.902, 5.860840
1034.384, 23.22095
1034.866, 33.37524
1035.348, 24.27417
1035.830, 7.517578
1036.313, 8.196533
1036.795, 22.35406
1037.277, 34.42072
1037.759, 40.76251
1038.241, 42.22833
1038.723, 38.37451
1039.205, 31.21149
1039.687, 21.12799
1040.169, 6.298401
1040.652, 2.723267
1041.134, 11.95929
1041.616, 22.35931
1042.098, 27.51611
1042.580, 28.23669
1043.062, 24.00861
1043.544, 16.16394
1044.026, 9.144714
1044.509, 3.457214
1044.991, 0.3896480
1045.473, 1.241211
1045.955, 3.475281
1046.437, 0.4197390
1046.919, 5.821777
1047.401, 0.6091310
1047.883, 20.48181
1048.365, 37.20325
1048.848, 29.89172
1049.330, 16.36530
1049.812, 11.41568
1050.294, 15.75632
1050.776, 17.05777
1051.258, 14.72467
1051.740, 12.72113
1052.222, 13.58566
1052.704, 15.28113
1053.187, 14.09714
1053.669, 11.29703
1054.151, 9.834198
1054.633, 13.95135
1055.115, 14.43570
1055.597, 7.788422
1056.079, 0.4788210
1056.561, 1.071716
1057.044, 7.998535
1057.526, 10.68527
1058.008, 8.297668
1058.490, 4.506836
1058.972, 2.495117
1059.454, 6.253571
1059.936, 0.2323000
1060.418, 14.42926
1060.901, 20.58136
1061.383, 17.30566
1061.865, 13.64655
1062.347, 12.03665
1062.829, 11.75531
1063.311, 11.97833
1063.793, 12.80252
1064.275, 14.72879
1064.757, 19.75143
1065.240, 20.78397
1065.722, 14.69528
1066.204, 8.787018
1066.686, 8.925201
1067.168, 13.79001
1067.650, 16.84814
1068.132, 17.96298
1068.614, 16.00778
1069.096, 5.596069
1069.579, 2.957184
1070.061, 3.323029
1070.543, 1.454315
1071.025, 6.126160
1071.507, 10.95959
1071.989, 13.65582
1072.471, 13.85236
1072.953, 12.10269
1073.436, 6.963196
1073.918, 1.433716
1074.400, 1.425842
1074.882, 1.112061
1075.364, 1.849854
1075.846, 9.166443
1076.328, 14.81696
1076.810, 15.25818
1077.292, 13.48441
1077.775, 18.48782
1078.257, 27.39996
1078.739, 31.72418
1079.221, 24.29660
1079.703, 18.54276
1080.185, 23.28107
1080.667, 28.15259
1081.149, 22.63510
1081.631, 6.163788
1082.114, 1.277069
1082.596, 0.6982420
1083.078, 6.682556
1083.560, 18.33737
1084.042, 27.43793
1084.524, 24.13727
1085.006, 12.36133
1085.488, 9.673187
1085.971, 19.53638
1086.453, 27.61520
1086.935, 31.00150
1087.417, 32.58218
1087.899, 38.35590
1088.381, 44.03369
1088.863, 40.63834
1089.345, 24.36725
1089.828, 16.27884
1090.310, 26.86990
1090.792, 36.42096
1091.274, 35.78833
1091.756, 27.89041
1092.238, 20.08594
1092.720, 13.77884
1093.202, 15.93176
1093.684, 39.94171
1094.167, 57.14154
1094.649, 47.98941
1095.131, 28.64105
1095.613, 15.56381
1096.095, 9.176788
1096.577, 8.327026
1097.059, 13.19324
1097.541, 18.93356
1098.024, 23.25427
1098.506, 25.54596
1098.988, 22.69312
1099.470, 16.80063
1099.952, 18.09848
1100.434, 31.81259
1100.916, 38.99521
1101.398, 35.50784
1101.880, 26.62460
1102.363, 14.76056
1102.845, 4.560760
1103.327, 7.237457
1103.809, 26.76471
1104.291, 37.43890
1104.773, 23.76315
1105.255, 12.24545
1105.737, 13.71521
1106.219, 24.35532
1106.702, 34.53101
1107.184, 43.10727
1107.666, 44.35574
1108.148, 30.28992
1108.630, 19.04092
1109.112, 21.90628
1109.594, 29.70609
1110.076, 33.97604
1110.559, 34.38498
1111.041, 34.05246
1111.523, 32.96512
1112.005, 32.69296
1112.487, 35.71564
1112.969, 38.74359
1113.451, 39.75693
1113.933, 38.52368
1114.416, 34.50421
1114.898, 26.65430
1115.380, 19.17343
1115.862, 11.89731
1116.344, 7.958008
1116.826, 12.97467
1117.308, 22.29739
1117.790, 30.88065
1118.272, 37.87045
1118.755, 42.57309
1119.237, 46.44437
1119.719, 44.93515
1120.201, 34.08716
1120.683, 20.12634
1121.165, 16.73804
1121.647, 20.97617
1122.129, 26.03937
1122.611, 31.83813
1123.094, 33.11661
1123.576, 20.70523
1124.058, 9.981354
1124.540, 12.13205
1125.022, 24.92111
1125.504, 26.41373
1125.986, 18.15686
1126.468, 12.13895
1126.951, 16.66873
1127.433, 23.10617
1127.915, 27.87189
1128.397, 31.45050
1128.879, 35.06226
1129.361, 39.62936
1129.843, 35.70813
1130.325, 22.19769
1130.807, 9.633850
1131.290, 6.679047
1131.772, 8.818054
1132.254, 14.18155
1132.736, 21.46750
1133.218, 25.19250
1133.700, 24.75888
1134.182, 21.44467
1134.664, 14.42493
1135.146, 7.935974
1135.629, 7.722839
1136.111, 11.77862
1136.593, 16.61713
1137.075, 22.72876
1137.557, 30.36508
1138.039, 44.47549
1138.521, 49.78506
1139.003, 36.81824
1139.486, 15.95932
1139.968, 9.950287
1140.450, 14.45010
1140.932, 18.84451
1141.414, 20.67191
1141.896, 20.26047
1142.378, 15.39133
1142.860, 11.14679
1143.343, 11.01520
1143.825, 14.41800
1144.307, 18.35263
1144.789, 22.59427
1145.271, 26.03421
1145.753, 28.28638
1146.235, 29.32983
1146.717, 28.68674
1147.199, 27.11996
1147.682, 25.43518
1148.164, 23.61905
1148.646, 21.58206
1149.128, 19.30792
1149.610, 15.20529
1150.092, 5.263702
1150.574, 4.169098
1151.056, 9.313538
1151.538, 10.34061
1152.021, 8.071869
1152.503, 2.231903
1152.985, 5.327301
1153.467, 14.74924
1153.949, 22.82602
1154.431, 25.30283
1154.913, 25.61560
1155.395, 27.32822
1155.878, 30.74142
1156.360, 31.62540
1156.842, 29.34418
1157.324, 27.36426
1157.806, 27.49869
1158.288, 26.84583
1158.770, 18.58875
1159.252, 8.195221
1159.734, 3.917816
1160.217, 9.326172
1160.699, 14.15466
1161.181, 17.23773
1161.663, 21.32062
1162.145, 30.68750
1162.627, 40.28439
1163.109, 38.02188
1163.591, 28.31754
1164.073, 20.79224
1164.556, 17.43954
1165.038, 20.13806
1165.520, 31.77087
1166.002, 43.70636
1166.484, 49.42026
1166.966, 49.63748
1167.448, 44.88290
1167.930, 36.30832
1168.413, 28.84045
1168.895, 22.22852
1169.377, 20.88116
1169.859, 28.36475
1170.341, 37.32303
1170.823, 36.80716
1171.305, 29.44513
1171.787, 27.85922
1172.270, 32.54245
1172.752, 32.87445
1173.234, 14.06262
1173.716, 0.9936830
1174.198, 5.246826
1174.680, 18.89349
1175.162, 25.91238
1175.644, 26.90295
1176.126, 26.18930
1176.609, 24.58267
1177.091, 20.98917
1177.573, 11.00021
1178.055, 2.654938
1178.537, 1.656921
1179.019, 5.974457
1179.501, 6.009918
1179.983, 2.162598
1180.465, 0.9920960
1180.948, 2.348328
1181.430, 1.885895
1181.912, 7.7239998E-02
1182.394, 4.143219
1182.876, 13.29916
1183.358, 27.06961
1183.840, 30.47632
1184.322, 23.74887
1184.805, 17.48132
1185.287, 14.96310
1185.769, 17.31299
1186.251, 33.43890
1186.733, 50.25906
1187.215, 49.17542
1187.697, 24.67123
1188.179, 16.65237
1188.661, 25.92767
1189.144, 33.67526
1189.626, 23.90225
1190.108, 10.60785
1190.590, 4.192017
1191.072, 2.996704
1191.554, 3.841492
1192.036, 7.903931
1192.518, 5.343689
1193.000, 5.655609
1193.483, 11.30856
1193.965, 5.336823
1194.447, 27.92984
1194.929, 45.20276
1195.411, 54.97867
1195.893, 51.91898
1196.375, 31.63715
1196.857, 16.53769
1197.340, 9.786560
1197.822, 8.511047
1198.304, 13.47797
1198.786, 19.90305
1199.268, 22.06882
1199.750, 20.09079
1200.232, 20.98831
1200.714, 26.35120
1201.197, 29.41794
1201.679, 27.86063
1202.161, 24.85004
1202.643, 23.86526
1203.125, 23.61328
1203.607, 21.72763
1204.089, 17.77466
1204.571, 19.33060
1205.053, 29.16147
1205.536, 33.52692
1206.018, 25.64230
1206.500, 15.04892
1206.982, 15.57486
1207.464, 21.33664
1207.946, 23.69360
1208.428, 19.27814
1208.910, 20.31717
1209.392, 28.57086
1209.875, 37.87503
1210.357, 48.09637
1210.839, 54.36984
1211.321, 45.01929
1211.803, 28.60397
1212.285, 18.69925
1212.767, 20.85739
1213.249, 22.80161
1213.732, 24.54581
1214.214, 26.05905
1214.696, 26.57700
1215.178, 27.49341
1215.660, 34.64420
1216.142, 42.91693
1216.624, 41.59378
1217.106, 20.17944
1217.589, 5.609589
1218.071, 1.862762
1218.553, 3.211517
1219.035, 6.516815
1219.517, 17.98486
1219.999, 13.85159
1220.481, 0.7545470
1220.963, 1.555664
1221.445, 17.62811
1221.927, 28.90808
1222.410, 29.21426
1222.892, 26.36923
1223.374, 29.32834
1223.856, 32.13727
1224.338, 22.94858
1224.820, 5.826630
1225.302, 0.2724000
1225.784, 13.56406
1226.267, 22.67679
1226.749, 24.58859
1227.231, 23.91162
1227.713, 22.96994
1228.195, 23.92825
1228.677, 32.86621
1229.159, 47.65384
1229.641, 51.13113
1230.124, 37.59988
1230.606, 30.39435
1231.088, 35.01276
1231.570, 41.74509
1232.052, 35.73657
1232.534, 26.88477
1233.016, 27.46924
1233.498, 37.68362
1233.980, 42.87927
1234.463, 42.03342
1234.945, 38.48853
1235.427, 32.42987
1235.909, 26.07147
1236.391, 20.78915
1236.873, 17.56641
1237.355, 18.16635
1237.837, 22.78333
1238.320, 26.09875
1238.802, 27.50729
1239.284, 33.04730
1239.766, 47.44775
1240.248, 58.00909
1240.730, 44.60931
1241.212, 23.90399
1241.694, 13.51572
1242.177, 14.83170
1242.659, 20.76453
1243.141, 32.04153
1243.623, 38.75705
1244.105, 35.99014
1244.587, 30.09314
1245.069, 25.34521
1245.551, 21.93182
1246.033, 19.84406
1246.516, 18.95853
1246.998, 22.97147
1247.480, 32.08771
1247.962, 33.66434
1248.444, 16.98032
1248.926, 0.9696040
1249.408, 2.783020
1249.890, 12.00241
1250.372, 18.24014
1250.855, 20.81561
1251.337, 18.99100
1251.819, 14.28073
1252.301, 11.85089
1252.783, 16.03177
1253.265, 21.40204
1253.747, 26.86121
1254.229, 30.12778
1254.712, 28.82263
1255.194, 22.92334
1255.676, 15.70386
1256.158, 7.559082
1256.640, 2.134003
1257.122, 4.033112
1257.604, 5.746979
1258.086, 0.9196170
1258.568, 3.088348
1259.051, 1.107178
1259.533, 12.61310
1260.015, 23.43851
1260.497, 32.95261
1260.979, 36.90588
1261.461, 29.68210
1261.943, 20.72052
1262.425, 9.123138
1262.907, 1.451080
1263.390, 8.049988
1263.872, 24.13898
1264.354, 27.63882
1264.836, 20.58435
1265.318, 15.69589
1265.800, 22.39813
1266.282, 26.45322
1266.764, 25.36343
1267.247, 21.23502
1267.729, 14.50308
1268.211, 6.486664
1268.693, 2.331299
1269.175, 1.387421
1269.657, 2.104126
1270.139, 6.749115
1270.621, 9.059235
1271.104, 7.521637
1271.586, 5.917084
1272.068, 8.768982
1272.550, 14.07648
1273.032, 20.85757
1273.514, 27.56232
1273.996, 27.31180
1274.478, 14.08569
1274.960, 7.198975
1275.443, 9.301880
1275.925, 15.73166
1276.407, 26.07663
1276.889, 34.99115
1277.371, 35.77142
1277.853, 29.35315
1278.335, 21.02179
1278.817, 9.336609
1279.299, 4.652130
1279.782, 8.995117
1280.264, 14.11102
1280.746, 11.00711
1281.228, 6.812714
1281.710, 8.792450
1282.192, 14.62164
1282.674, 15.03265
1283.156, 9.389008
1283.639, 12.35779
1284.121, 26.52609
1284.603, 39.12146
1285.085, 42.04999
1285.567, 38.87756
1286.049, 27.89584
1286.531, 14.43005
1287.013, 10.44025
1287.495, 14.35373
1287.978, 11.28452
1288.460, 1.205170
1288.942, 7.806580
1289.424, 2.774658
1289.906, 17.07336
1290.388, 33.42297
1290.870, 45.99402
1291.352, 39.37222
1291.834, 20.25150
1292.317, 8.802979
1292.799, 7.475311
1293.281, 8.161957
1293.763, 8.107025
1294.245, 10.02130
1294.727, 15.27966
1295.209, 20.81418
1295.691, 21.51645
1296.174, 19.45929
1296.656, 16.72519
1297.138, 13.78680
1297.620, 17.98904
1298.102, 34.28329
1298.584, 44.45605
1299.066, 44.22150
1299.548, 38.57294
1300.031, 31.42468
1300.513, 23.89890
1300.995, 16.36154
1301.477, 9.413544
1301.959, 7.187317
1302.441, 10.30139
1302.923, 13.45636
1303.405, 12.83127
1303.887, 14.26086
1304.370, 16.18454
1304.852, 17.36688
1305.334, 16.18945
1305.816, 13.62903
1306.298, 12.40732
1306.780, 12.40656
1307.262, 12.39484
1307.744, 12.15784
1308.226, 11.69583
1308.709, 11.89972
1309.191, 10.52008
1309.673, 5.075562
1310.155, 1.101807
1310.637, 0.3091740
1311.119, 6.312653
1311.601, 17.24484
1312.083, 32.67950
1312.566, 41.27496
1313.048, 33.73810
1313.530, 26.96628
1314.012, 22.98312
1314.494, 20.62143
1314.976, 12.84930
1315.458, 2.721405
1315.940, 1.7517000E-02
1316.422, 6.497131
1316.905, 5.589447
1317.387, 0.0000000E+00
##END=



