##NAMES=Tetradymite
##RRUFFID=R110138
##IDEAL CHEMISTRY=Bi^3+^_2_Te^2-^_2_S^2-^
##LOCALITY=Schubkau, Schemnitz, Hungary
##OWNER=RRUFF
##SOURCE=William W. Pinch
##DESCRIPTION=Aggregate of grey crystals with a dull surface but bright silver grey on fresh cleavage
##STATUS=The identification of this mineral has been confirmed only by single crystal X-ray diffraction.
##URL=rruff.info/R110138
186.9155, 37.77750
187.3976, 37.79408
187.8798, 37.48283
188.3619, 36.75256
188.8440, 36.03563
189.3261, 36.03241
189.8082, 36.69328
190.2903, 37.40061
190.7725, 37.89721
191.2546, 38.19556
191.7367, 38.23745
192.2188, 37.92606
192.7009, 37.60331
193.1830, 38.14205
193.6652, 39.55115
194.1473, 40.43449
194.6294, 39.52618
195.1115, 37.03083
195.5936, 35.69210
196.0757, 35.86773
196.5579, 36.89116
197.0400, 37.60390
197.5221, 38.00116
198.0042, 38.17068
198.4863, 38.08330
198.9684, 37.73576
199.4506, 37.45813
199.9327, 37.24682
200.4148, 37.14955
200.8969, 37.38484
201.3790, 38.04655
201.8611, 38.55345
202.3433, 38.41283
202.8254, 37.53569
203.3075, 37.14486
203.7896, 37.50627
204.2717, 38.25195
204.7538, 38.32661
205.2360, 37.52404
205.7181, 36.81112
206.2002, 36.87263
206.6823, 37.86536
207.1644, 38.60697
207.6465, 39.00554
208.1287, 39.09403
208.6108, 38.90424
209.0929, 38.31993
209.5750, 37.77574
210.0571, 37.54688
210.5392, 37.67455
211.0214, 37.92607
211.5035, 38.34930
211.9856, 38.86118
212.4677, 39.20744
212.9498, 39.41528
213.4319, 39.40343
213.9140, 39.03425
214.3962, 38.12820
214.8783, 37.53889
215.3604, 37.48159
215.8425, 37.77573
216.3246, 37.62567
216.8067, 36.75695
217.2889, 35.96887
217.7710, 35.86632
218.2531, 36.85612
218.7352, 37.28791
219.2173, 36.83222
219.6994, 35.70751
220.1816, 34.94744
220.6637, 34.56014
221.1458, 34.49184
221.6279, 34.75574
222.1100, 35.49362
222.5921, 36.21242
223.0743, 36.97394
223.5564, 37.69410
224.0385, 37.95007
224.5206, 37.49834
225.0027, 36.96306
225.4848, 36.75634
225.9670, 37.08924
226.4491, 37.23210
226.9312, 37.03213
227.4133, 36.59141
227.8954, 36.42009
228.3775, 36.68668
228.8597, 36.98137
229.3418, 37.04480
229.8239, 36.77184
230.3060, 36.50244
230.7881, 36.21201
231.2702, 35.93697
231.7524, 35.88531
232.2345, 36.17445
232.7166, 36.51786
233.1987, 36.76750
233.6808, 36.97052
234.1629, 36.95655
234.6451, 36.58803
235.1272, 35.98387
235.6093, 35.69328
236.0914, 35.95194
236.5735, 36.20092
237.0556, 36.09579
237.5378, 35.38316
238.0199, 34.86576
238.5020, 34.57860
238.9841, 34.51550
239.4662, 34.69579
239.9483, 35.31037
240.4305, 35.90981
240.9126, 36.24963
241.3947, 36.20275
241.8768, 36.19450
242.3589, 36.35205
242.8410, 36.55729
243.3232, 36.33870
243.8053, 35.39066
244.2874, 34.43903
244.7695, 33.84293
245.2516, 33.64717
245.7337, 33.71043
246.2159, 34.15550
246.6980, 34.84102
247.1801, 35.30660
247.6622, 35.49400
248.1443, 35.55575
248.6264, 35.55358
249.1086, 35.46794
249.5907, 35.35739
250.0728, 35.17834
250.5549, 34.98763
251.0370, 34.96191
251.5191, 35.23983
252.0013, 35.46433
252.4834, 35.47701
252.9655, 35.22361
253.4476, 34.88137
253.9297, 34.33695
254.4118, 33.75533
254.8940, 33.52420
255.3761, 33.81106
255.8582, 34.15276
256.3403, 34.36962
256.8224, 34.44965
257.3046, 34.42725
257.7867, 34.23389
258.2688, 33.98083
258.7509, 33.91842
259.2330, 34.18212
259.7151, 34.35889
260.1973, 34.25492
260.6794, 33.78477
261.1615, 33.43266
261.6436, 33.24899
262.1257, 33.14380
262.6078, 32.91874
263.0900, 32.42949
263.5721, 32.18243
264.0542, 32.50618
264.5363, 33.58968
265.0184, 33.93042
265.5005, 33.25037
265.9827, 32.16663
266.4648, 31.57679
266.9469, 31.64333
267.4290, 31.74229
267.9111, 31.65037
268.3932, 31.34427
268.8754, 31.27713
269.3575, 31.55759
269.8396, 31.90831
270.3217, 31.88381
270.8038, 31.31195
271.2859, 31.05818
271.7681, 31.57088
272.2502, 32.79913
272.7323, 33.12085
273.2144, 32.24163
273.6965, 31.04087
274.1786, 30.47580
274.6608, 30.64506
275.1429, 30.90183
275.6250, 31.13490
276.1071, 31.33288
276.5892, 31.39394
277.0714, 31.28923
277.5535, 31.12724
278.0356, 31.01712
278.5177, 30.96838
278.9998, 30.87232
279.4819, 30.70719
279.9641, 30.47736
280.4462, 30.19452
280.9283, 29.84568
281.4104, 29.49540
281.8925, 29.15069
282.3746, 28.80917
282.8568, 28.66797
283.3389, 28.85644
283.8210, 29.19015
284.3031, 29.07718
284.7852, 28.46503
285.2673, 27.85423
285.7495, 27.57583
286.2316, 27.61646
286.7137, 27.83574
287.1958, 28.27252
287.6779, 28.79586
288.1600, 29.18469
288.6422, 29.44037
289.1243, 29.49987
289.6064, 29.14543
290.0885, 28.49452
290.5706, 28.25706
291.0527, 28.60982
291.5349, 29.11419
292.0170, 29.00367
292.4991, 28.32821
292.9812, 27.63959
293.4633, 27.16065
293.9454, 26.90006
294.4276, 26.96519
294.9097, 27.41205
295.3918, 27.95597
295.8739, 28.35325
296.3560, 28.57480
296.8381, 28.49848
297.3203, 27.80272
297.8024, 26.81772
298.2845, 26.22208
298.7666, 26.04379
299.2487, 26.08916
299.7308, 26.20724
300.2130, 26.39629
300.6951, 26.64975
301.1772, 27.01365
301.6593, 27.41512
302.1414, 27.81952
302.6235, 28.21926
303.1057, 28.44025
303.5878, 28.19049
304.0699, 27.67000
304.5520, 27.25545
305.0341, 27.13427
305.5162, 27.11232
305.9984, 26.96371
306.4805, 26.71232
306.9626, 26.51160
307.4447, 26.59506
307.9268, 26.75355
308.4089, 26.67818
308.8911, 26.10206
309.3732, 25.56220
309.8553, 25.57987
310.3374, 26.01861
310.8195, 26.41965
311.3016, 26.49808
311.7838, 26.43137
312.2659, 26.37653
312.7480, 26.37309
313.2301, 26.36081
313.7122, 26.20773
314.1943, 26.01748
314.6765, 26.01258
315.1586, 26.76800
315.6407, 27.40750
316.1228, 27.19299
316.6049, 25.75605
317.0870, 24.65970
317.5692, 24.98869
318.0513, 25.99484
318.5334, 26.63166
319.0155, 26.07491
319.4976, 25.49529
319.9797, 25.50158
320.4619, 26.19558
320.9440, 26.69088
321.4261, 26.57473
321.9082, 26.19867
322.3903, 25.89499
322.8724, 25.78277
323.3546, 25.70054
323.8367, 25.60677
324.3188, 25.50155
324.8009, 25.42047
325.2830, 25.42758
325.7651, 25.42591
326.2473, 25.35279
326.7294, 24.96359
327.2115, 24.77924
327.6936, 25.03774
328.1757, 25.60947
328.6578, 25.85526
329.1400, 25.46616
329.6221, 25.00467
330.1042, 24.71320
330.5863, 24.78916
331.0684, 24.69954
331.5505, 24.27769
332.0327, 23.72102
332.5148, 23.48492
332.9969, 23.77977
333.4790, 24.11155
333.9611, 24.28324
334.4432, 24.19329
334.9254, 24.42136
335.4075, 25.36294
335.8896, 26.28564
336.3717, 25.98088
336.8538, 23.72955
337.3359, 22.01285
337.8180, 21.68197
338.3001, 22.70846
338.7823, 23.26765
339.2644, 23.20519
339.7465, 22.97099
340.2286, 23.03089
340.7107, 23.45142
341.1928, 23.78961
341.6750, 24.01835
342.1571, 24.08422
342.6392, 23.62317
343.1213, 22.51645
343.6034, 21.49471
344.0855, 21.14329
344.5677, 21.43819
345.0498, 21.74505
345.5319, 22.02214
346.0140, 22.22144
346.4961, 22.13584
346.9782, 21.78250
347.4604, 21.60471
347.9425, 22.07667
348.4246, 22.96432
348.9067, 23.32712
349.3888, 23.04523
349.8709, 22.59087
350.3531, 22.60092
350.8352, 22.94516
351.3173, 23.13992
351.7994, 22.77926
352.2815, 22.20561
352.7636, 22.06308
353.2458, 22.35115
353.7279, 22.62786
354.2100, 22.43392
354.6921, 21.98596
355.1742, 21.65847
355.6563, 21.58158
356.1385, 21.65240
356.6206, 21.89724
357.1027, 22.25679
357.5848, 22.43282
358.0669, 22.04734
358.5490, 21.49634
359.0312, 21.16454
359.5133, 21.18090
359.9954, 21.29612
360.4775, 21.37369
360.9596, 21.44561
361.4417, 21.57764
361.9239, 21.95892
362.4060, 22.28470
362.8881, 22.40555
363.3702, 22.30719
363.8523, 21.99672
364.3344, 21.20860
364.8166, 20.30279
365.2987, 19.68504
365.7808, 19.67426
366.2629, 19.75320
366.7450, 19.81704
367.2271, 19.86116
367.7093, 19.87547
368.1914, 20.00649
368.6735, 20.01455
369.1556, 19.73503
369.6377, 18.46529
370.1198, 17.79988
370.6020, 18.14094
371.0841, 19.17768
371.5662, 19.77317
372.0483, 19.60783
372.5304, 19.38280
373.0125, 19.41939
373.4947, 19.90834
373.9768, 20.08143
374.4589, 19.76617
374.9410, 19.27512
375.4231, 19.14883
375.9052, 19.53863
376.3874, 19.86706
376.8695, 19.95400
377.3516, 19.80509
377.8337, 19.61999
378.3158, 19.37874
378.7979, 19.15070
379.2801, 18.95112
379.7622, 18.76831
380.2443, 18.88976
380.7264, 19.52830
381.2085, 20.37766
381.6906, 20.58862
382.1728, 20.15406
382.6549, 19.49679
383.1370, 18.75637
383.6191, 17.99977
384.1012, 17.55157
384.5833, 17.47866
385.0655, 17.58433
385.5476, 17.62190
386.0297, 17.61724
386.5118, 17.66332
386.9939, 17.76294
387.4760, 17.95774
387.9582, 18.44958
388.4403, 19.24969
388.9224, 19.81493
389.4045, 19.56094
389.8866, 18.83399
390.3687, 18.09830
390.8509, 17.32245
391.3330, 16.79557
391.8151, 16.94315
392.2972, 17.58730
392.7793, 18.00486
393.2614, 17.60477
393.7436, 16.99212
394.2257, 16.58478
394.7078, 16.49761
395.1899, 16.52516
395.6720, 16.73247
396.1541, 16.98460
396.6363, 17.06467
397.1184, 16.66006
397.6005, 16.31692
398.0826, 16.26766
398.5647, 16.56842
399.0468, 16.77131
399.5290, 16.67690
400.0111, 16.55607
400.4932, 16.63465
400.9753, 17.29565
401.4574, 17.63323
401.9395, 17.39751
402.4217, 16.74083
402.9038, 16.39048
403.3859, 16.46344
403.8680, 16.67123
404.3501, 16.90341
404.8322, 17.19337
405.3144, 17.38135
405.7965, 17.45163
406.2786, 17.43652
406.7607, 17.34439
407.2428, 17.13949
407.7249, 17.07104
408.2071, 17.35275
408.6892, 17.87041
409.1713, 17.75703
409.6534, 16.90870
410.1355, 16.02828
410.6176, 15.74229
411.0998, 15.98881
411.5819, 16.52593
412.0640, 17.52159
412.5461, 18.42353
413.0282, 18.03635
413.5103, 16.58376
413.9925, 15.38110
414.4746, 15.46721
414.9567, 16.19319
415.4388, 16.54746
415.9209, 16.42843
416.4030, 16.17179
416.8852, 15.99260
417.3673, 15.87518
417.8494, 15.79249
418.3315, 15.56712
418.8136, 15.50940
419.2957, 16.05301
419.7779, 17.06500
420.2600, 17.70677
420.7421, 17.25366
421.2242, 16.48813
421.7063, 15.99086
422.1884, 15.98716
422.6706, 16.00939
423.1527, 15.92380
423.6348, 15.78951
424.1169, 15.71722
424.5990, 15.58295
425.0811, 15.64566
425.5633, 16.13715
426.0454, 17.18986
426.5275, 17.71593
427.0096, 17.41524
427.4917, 16.82841
427.9738, 16.38749
428.4560, 16.14211
428.9381, 15.94447
429.4202, 15.80413
429.9023, 15.69770
430.3844, 15.49708
430.8665, 15.12305
431.3487, 14.88527
431.8308, 15.01344
432.3129, 15.53261
432.7950, 15.90318
433.2771, 16.13112
433.7592, 16.17412
434.2414, 15.80351
434.7235, 15.07603
435.2056, 14.70371
435.6877, 15.06956
436.1698, 15.81978
436.6519, 16.23924
437.1341, 16.33542
437.6162, 16.27583
438.0983, 16.14527
438.5804, 15.95342
439.0625, 15.70121
439.5446, 15.36873
440.0268, 15.04474
440.5089, 14.68063
440.9910, 14.38641
441.4731, 14.38950
441.9552, 15.17529
442.4373, 15.98711
442.9195, 16.28848
443.4016, 16.07455
443.8837, 15.86245
444.3658, 16.03597
444.8479, 16.20094
445.3300, 16.03757
445.8122, 15.09437
446.2943, 14.32767
446.7764, 13.77653
447.2585, 13.50751
447.7406, 13.69524
448.2227, 15.22183
448.7049, 16.33459
449.1870, 16.40175
449.6691, 15.19334
450.1512, 14.31153
450.6333, 13.80587
451.1154, 13.58217
451.5976, 13.60790
452.0797, 13.98411
452.5618, 14.26596
453.0439, 14.35933
453.5260, 14.32787
454.0081, 14.37249
454.4903, 14.50158
454.9724, 14.65498
455.4545, 14.80712
455.9366, 14.95668
456.4187, 15.17550
456.9008, 15.50914
457.3830, 15.66113
457.8651, 14.97655
458.3472, 13.76448
458.8293, 13.07412
459.3114, 13.41152
459.7935, 14.25663
460.2757, 15.21973
460.7578, 16.21094
461.2399, 16.80521
461.7220, 16.44819
462.2041, 15.73086
462.6862, 15.15671
463.1684, 14.77059
463.6505, 14.66101
464.1326, 15.22095
464.6147, 15.98369
465.0968, 16.35181
465.5789, 15.76532
466.0611, 15.13945
466.5432, 14.70987
467.0253, 14.47722
467.5074, 14.33537
467.9895, 14.34380
468.4716, 14.38382
468.9538, 14.40700
469.4359, 14.43974
469.9180, 14.38309
470.4001, 14.12267
470.8822, 13.85102
471.3643, 13.92751
471.8465, 14.56352
472.3286, 14.91507
472.8107, 14.66221
473.2928, 13.93815
473.7749, 13.50403
474.2570, 13.39485
474.7392, 13.40690
475.2213, 13.35219
475.7034, 13.26554
476.1855, 13.46370
476.6676, 14.06591
477.1497, 14.66237
477.6319, 14.56038
478.1140, 13.96032
478.5961, 13.51536
479.0782, 13.65289
479.5603, 14.00510
480.0424, 14.18182
480.5246, 14.19253
481.0067, 14.11182
481.4888, 13.91238
481.9709, 13.68439
482.4530, 13.49244
482.9352, 13.31343
483.4173, 13.26063
483.8994, 13.44520
484.3815, 13.77023
484.8636, 14.08603
485.3457, 14.48079
485.8279, 14.73698
486.3100, 14.74535
486.7921, 14.50357
487.2742, 14.30926
487.7563, 14.16158
488.2384, 14.06056
488.7206, 14.03315
489.2027, 14.18064
489.6848, 14.08835
490.1669, 13.58553
490.6490, 13.02133
491.1311, 13.08247
491.6133, 13.90481
492.0954, 14.38771
492.5775, 14.04891
493.0596, 13.14945
493.5417, 12.64804
494.0238, 12.54865
494.5060, 12.62704
494.9881, 12.77538
495.4702, 12.97159
495.9523, 13.19413
496.4344, 13.46292
496.9165, 13.64372
497.3987, 13.43742
497.8808, 13.06177
498.3629, 12.93189
498.8450, 13.58685
499.3271, 14.23377
499.8092, 14.24971
500.2914, 13.74772
500.7735, 13.36116
501.2556, 13.41878
501.7377, 13.60018
502.2198, 13.70787
502.7019, 13.65519
503.1841, 13.69844
503.6662, 14.05056
504.1483, 14.43895
504.6304, 14.53337
505.1125, 14.11397
505.5946, 13.75947
506.0768, 13.58754
506.5589, 13.55126
507.0410, 13.37023
507.5231, 12.94853
508.0052, 12.65124
508.4873, 12.76151
508.9695, 13.28311
509.4516, 13.52530
509.9337, 13.43992
510.4158, 13.25848
510.8979, 13.24599
511.3800, 13.36920
511.8622, 13.48730
512.3443, 13.58496
512.8264, 13.62751
513.3085, 13.49704
513.7906, 13.25308
514.2728, 13.10911
514.7549, 13.32088
515.2370, 13.59654
515.7191, 13.64968
516.2012, 13.44634
516.6833, 13.28963
517.1655, 13.51477
517.6476, 13.74478
518.1297, 13.65044
518.6118, 12.62547
519.0939, 11.94373
519.5760, 11.99632
520.0582, 12.51923
520.5403, 12.87989
521.0224, 13.08902
521.5045, 13.10876
521.9866, 12.85699
522.4688, 12.33328
522.9509, 11.99488
523.4330, 11.85570
523.9151, 11.86217
524.3972, 12.02312
524.8793, 12.34240
525.3615, 12.60987
525.8436, 12.83295
526.3257, 12.93244
526.8078, 12.66158
527.2899, 12.11412
527.7720, 11.74599
528.2542, 11.82992
528.7363, 12.12038
529.2184, 12.28543
529.7005, 12.35257
530.1826, 12.47983
530.6647, 12.96082
531.1469, 13.42392
531.6290, 13.52999
532.1111, 13.18103
532.5932, 12.72137
533.0753, 12.03404
533.5574, 11.41258
534.0396, 11.17251
534.5217, 11.75620
535.0038, 12.26479
535.4859, 12.53505
535.9680, 12.63931
536.4501, 12.81935
536.9323, 13.16145
537.4144, 13.43517
537.8965, 13.57165
538.3786, 13.57218
538.8607, 13.31874
539.3428, 12.69329
539.8250, 12.18384
540.3071, 12.38877
540.7892, 13.21653
541.2713, 13.85666
541.7534, 14.21735
542.2355, 14.26011
542.7177, 13.64631
543.1998, 12.61373
543.6819, 11.93755
544.1640, 12.33654
544.6461, 13.00539
545.1282, 13.15063
545.6104, 12.85205
546.0925, 12.62175
546.5746, 12.85292
547.0567, 13.15355
547.5388, 13.24211
548.0209, 13.00403
548.5031, 12.80859
548.9852, 12.71902
549.4673, 12.71430
549.9494, 12.77398
550.4315, 12.93847
550.9136, 13.10514
551.3958, 13.28842
551.8779, 13.46127
552.3600, 13.55124
552.8421, 13.56930
553.3242, 13.46364
553.8063, 13.13506
554.2885, 12.63508
554.7706, 12.37451
555.2527, 12.36041
555.7348, 12.50955
556.2169, 12.86440
556.6990, 13.32173
557.1812, 13.63518
557.6633, 13.77228
558.1454, 13.73546
558.6275, 13.28561
559.1096, 12.69916
559.5917, 12.45432
560.0739, 13.14882
560.5560, 13.85189
561.0381, 14.18402
561.5202, 14.15203
562.0023, 13.82428
562.4844, 12.61849
562.9666, 11.63358
563.4487, 11.48845
563.9308, 12.41366
564.4129, 13.02221
564.8950, 13.23736
565.3771, 13.21918
565.8593, 13.04045
566.3414, 12.61472
566.8235, 12.41396
567.3056, 12.52793
567.7877, 12.81555
568.2698, 13.08778
568.7520, 13.33811
569.2341, 13.40608
569.7162, 13.13035
570.1983, 12.70446
570.6804, 12.42598
571.1625, 12.30009
571.6447, 12.34834
572.1268, 12.69237
572.6089, 13.15526
573.0910, 13.67146
573.5731, 14.29597
574.0552, 14.49868
574.5374, 13.46095
575.0195, 12.17759
575.5016, 11.57435
575.9837, 12.57122
576.4658, 13.33657
576.9479, 13.71574
577.4301, 13.76153
577.9122, 13.51083
578.3943, 12.65009
578.8764, 12.13674
579.3585, 12.38405
579.8406, 13.23335
580.3228, 13.52317
580.8049, 13.18950
581.2870, 12.71099
581.7691, 12.35645
582.2512, 12.11593
582.7333, 11.92300
583.2155, 11.76628
583.6975, 11.73304
584.1796, 12.07741
584.6617, 12.56002
585.1439, 12.77635
585.6260, 12.54139
586.1081, 12.15212
586.5902, 11.53375
587.0723, 10.91457
587.5544, 10.74112
588.0366, 11.65530
588.5187, 12.50602
589.0008, 12.96286
589.4829, 13.01687
589.9650, 12.81285
590.4471, 11.98832
590.9293, 11.37805
591.4114, 11.46773
591.8935, 12.39409
592.3756, 13.00536
592.8577, 13.22076
593.3398, 13.34128
593.8220, 13.86924
594.3041, 14.69101
594.7862, 14.78465
595.2683, 13.74232
595.7504, 12.50631
596.2325, 12.46406
596.7147, 13.21495
597.1968, 13.71597
597.6789, 13.18562
598.1610, 12.51125
598.6431, 12.34831
599.1252, 12.61013
599.6074, 12.86680
600.0895, 12.97717
600.5716, 13.03662
601.0537, 13.09857
601.5358, 13.18148
602.0179, 13.18427
602.5001, 13.08094
602.9822, 12.92198
603.4643, 12.72673
603.9464, 12.46164
604.4285, 12.27088
604.9106, 12.13362
605.3928, 12.12302
605.8749, 12.48802
606.3570, 13.18357
606.8391, 13.57795
607.3212, 13.34674
607.8033, 12.88489
608.2855, 12.80019
608.7676, 13.01160
609.2497, 13.21793
609.7318, 13.27496
610.2139, 13.24341
610.6960, 13.12748
611.1782, 12.93421
611.6603, 12.80617
612.1424, 12.83034
612.6245, 12.90723
613.1066, 12.98179
613.5887, 13.06934
614.0709, 13.10285
614.5530, 13.01324
615.0351, 12.93259
615.5172, 13.03239
615.9993, 13.38184
616.4814, 13.60178
616.9636, 13.63110
617.4457, 13.51721
617.9278, 13.33472
618.4099, 13.08406
618.8920, 12.76721
619.3741, 12.20207
619.8563, 11.69925
620.3384, 11.82134
620.8205, 12.47024
621.3026, 13.15596
621.7847, 13.70222
622.2668, 14.10279
622.7490, 14.36583
623.2311, 14.50379
623.7132, 14.39530
624.1953, 13.66859
624.6774, 12.91644
625.1595, 12.55981
625.6417, 12.81625
626.1238, 13.06751
626.6059, 13.37232
627.0880, 13.60603
627.5701, 13.51777
628.0522, 13.05165
628.5344, 12.83043
629.0165, 13.05388
629.4986, 13.48798
629.9807, 13.70795
630.4628, 13.73516
630.9449, 13.68275
631.4271, 13.63411
631.9092, 13.51734
632.3913, 13.12613
632.8734, 12.53057
633.3555, 12.17602
633.8376, 12.64179
634.3198, 13.13304
634.8019, 13.05481
635.2840, 12.16050
635.7661, 11.71502
636.2482, 12.24611
636.7303, 12.92888
637.2125, 13.17148
637.6946, 12.73465
638.1767, 12.58500
638.6588, 12.85354
639.1409, 13.25145
639.6230, 13.28974
640.1052, 13.00346
640.5873, 12.95531
641.0694, 13.37541
641.5515, 13.94856
642.0336, 14.15767
642.5157, 14.11484
642.9979, 14.15153
643.4800, 14.70093
643.9621, 15.16181
644.4442, 14.92995
644.9263, 14.14517
645.4084, 13.65385
645.8906, 14.05470
646.3727, 14.52839
646.8548, 14.71362
647.3369, 14.59433
647.8190, 14.26431
648.3011, 13.51365
648.7833, 12.87140
649.2654, 12.81448
649.7475, 13.40300
650.2296, 13.82038
650.7117, 13.99891
651.1938, 14.09379
651.6760, 14.36323
652.1581, 14.71208
652.6402, 14.80180
653.1223, 14.42738
653.6044, 14.01575
654.0865, 13.95124
654.5687, 14.12286
655.0508, 14.31424
655.5329, 14.56865
656.0150, 14.70316
656.4971, 14.60054
656.9792, 14.30217
657.4614, 14.02719
657.9435, 13.77621
658.4256, 13.56420
658.9077, 13.41269
659.3898, 13.31730
659.8719, 13.11276
660.3541, 12.74009
660.8362, 12.53438
661.3183, 12.85291
661.8004, 13.54918
662.2825, 14.08582
662.7646, 14.43481
663.2468, 14.60066
663.7289, 14.40091
664.2110, 14.09351
664.6931, 14.04439
665.1752, 14.44111
665.6573, 14.81469
666.1395, 15.03609
666.6216, 15.09364
667.1037, 14.97292
667.5858, 14.30677
668.0679, 13.93850
668.5500, 14.02108
669.0322, 14.40049
669.5143, 14.78918
669.9964, 15.22872
670.4785, 15.47548
670.9606, 15.40441
671.4427, 15.12503
671.9249, 14.87191
672.4070, 14.65878
672.8891, 14.61152
673.3712, 15.06943
673.8533, 15.57716
674.3354, 15.49601
674.8176, 14.87213
675.2997, 14.33286
675.7818, 14.17456
676.2639, 14.21867
676.7460, 14.41498
677.2281, 14.84211
677.7103, 15.05704
678.1924, 14.88978
678.6745, 14.66613
679.1566, 14.62380
679.6387, 14.79490
680.1208, 15.01653
680.6030, 15.31157
681.0851, 15.57951
681.5672, 15.69904
682.0493, 15.68622
682.5314, 15.62382
683.0135, 15.55389
683.4957, 15.38756
683.9778, 14.83989
684.4599, 14.15089
684.9420, 13.79017
685.4241, 14.20842
685.9063, 14.68380
686.3884, 14.93572
686.8705, 15.02876
687.3526, 15.21102
687.8347, 15.67831
688.3168, 15.97301
688.7990, 15.93135
689.2811, 15.60561
689.7632, 15.28238
690.2453, 14.93138
690.7274, 14.79224
691.2095, 15.24556
691.6917, 16.00241
692.1738, 16.11576
692.6559, 15.59818
693.1380, 15.01726
693.6201, 14.66368
694.1022, 14.52317
694.5844, 14.65345
695.0665, 15.11540
695.5486, 15.46519
696.0307, 15.40545
696.5128, 15.26621
696.9949, 15.33021
697.4771, 15.85054
697.9592, 16.03551
698.4413, 15.76026
698.9234, 15.30801
699.4055, 14.97076
699.8876, 14.74721
700.3698, 14.74425
700.8519, 15.02742
701.3340, 15.40948
701.8161, 15.66562
702.2982, 15.81212
702.7803, 15.87874
703.2625, 15.73395
703.7446, 15.68888
704.2267, 16.18722
704.7088, 16.92670
705.1909, 17.23700
705.6730, 16.59271
706.1552, 15.86966
706.6373, 15.05032
707.1194, 14.28702
707.6015, 14.46942
708.0836, 16.04166
708.5657, 17.17892
709.0479, 16.88452
709.5300, 15.58773
710.0121, 15.22530
710.4942, 15.76057
710.9763, 16.30105
711.4584, 16.13865
711.9406, 15.69566
712.4227, 15.52884
712.9048, 15.65895
713.3869, 15.72783
713.8690, 15.37681
714.3511, 15.04150
714.8333, 15.04389
715.3154, 15.57393
715.7975, 15.93797
716.2796, 16.08868
716.7617, 16.13132
717.2438, 16.10250
717.7260, 15.97976
718.2081, 16.08378
718.6902, 16.48707
719.1723, 16.89384
719.6544, 16.97706
720.1365, 16.78746
720.6187, 16.38734
721.1008, 15.66737
721.5829, 15.10984
722.0650, 15.18433
722.5471, 15.60048
723.0292, 15.97160
723.5114, 16.20740
723.9935, 16.35793
724.4756, 16.38946
724.9577, 16.35642
725.4398, 16.37234
725.9219, 16.50790
726.4041, 16.42244
726.8862, 15.88774
727.3683, 15.25404
727.8504, 15.65426
728.3325, 16.89621
728.8146, 17.64687
729.2968, 16.76902
729.7789, 15.54842
730.2610, 15.66133
730.7431, 16.70764
731.2252, 17.36050
731.7073, 16.59758
732.1895, 15.75729
732.6716, 15.37239
733.1537, 15.45489
733.6358, 15.72981
734.1179, 16.42630
734.6000, 16.91847
735.0822, 16.82058
735.5643, 16.22859
736.0464, 16.17330
736.5285, 16.67929
737.0106, 17.23108
737.4927, 17.45875
737.9749, 17.49007
738.4570, 17.59119
738.9391, 17.76607
739.4212, 17.73939
739.9033, 17.08875
740.3854, 16.36078
740.8676, 15.94008
741.3497, 15.91284
741.8318, 16.05177
742.3139, 16.50025
742.7960, 16.92221
743.2781, 17.04987
743.7603, 16.81703
744.2424, 16.79431
744.7245, 17.04036
745.2066, 17.31394
745.6887, 17.35522
746.1708, 17.22805
746.6530, 17.07727
747.1351, 16.91222
747.6172, 16.80897
748.0993, 16.93686
748.5814, 17.10716
749.0635, 17.09538
749.5457, 16.61105
750.0278, 16.33030
750.5099, 16.46604
750.9920, 16.76256
751.4741, 16.91630
751.9562, 16.86791
752.4384, 16.94158
752.9205, 17.22214
753.4026, 17.54873
753.8847, 17.61431
754.3668, 17.49013
754.8489, 17.46767
755.3311, 17.66654
755.8132, 17.93765
756.2953, 18.20540
756.7774, 18.44299
757.2595, 18.59773
757.7416, 18.76460
758.2238, 18.71597
758.7059, 18.18384
759.1880, 17.45463
759.6701, 17.12777
760.1522, 17.28042
760.6343, 17.61328
761.1165, 18.16882
761.5986, 18.74241
762.0807, 18.76398
762.5628, 18.31166
763.0449, 17.83564
763.5270, 17.39527
764.0092, 17.15809
764.4913, 17.44824
764.9734, 18.09315
765.4555, 18.56003
765.9376, 18.42023
766.4197, 18.31513
766.9019, 18.58131
767.3840, 19.09356
767.8661, 19.22044
768.3482, 18.82609
768.8303, 18.44224
769.3124, 18.28107
769.7946, 18.29252
770.2767, 18.32704
770.7588, 18.37903
771.2409, 18.39633
771.7230, 18.37260
772.2051, 18.28133
772.6873, 17.99353
773.1694, 17.56050
773.6515, 17.35346
774.1336, 17.74698
774.6157, 18.15556
775.0978, 18.28646
775.5800, 18.15350
776.0621, 18.18204
776.5442, 18.38031
777.0263, 18.72419
777.5084, 19.39658
777.9905, 20.22481
778.4727, 20.16319
778.9548, 19.26768
779.4369, 18.53926
779.9190, 19.08065
780.4011, 19.88190
780.8832, 19.80202
781.3654, 18.78119
781.8475, 18.04757
782.3296, 18.15733
782.8117, 18.51660
783.2938, 18.90837
783.7759, 19.36928
784.2581, 19.35879
784.7402, 18.72053
785.2223, 18.10183
785.7044, 18.01979
786.1865, 18.33336
786.6686, 18.45246
787.1508, 18.36370
787.6329, 18.32310
788.1150, 18.57259
788.5971, 18.93210
789.0792, 19.20669
789.5613, 19.36091
790.0435, 19.60355
790.5256, 20.19411
791.0077, 20.70193
791.4898, 20.91837
791.9719, 20.83103
792.4540, 20.41789
792.9362, 19.56728
793.4183, 18.87906
793.9004, 19.05119
794.3825, 19.77268
794.8646, 20.17879
795.3467, 20.20945
795.8289, 20.07439
796.3110, 19.83916
796.7931, 19.56537
797.2752, 19.24783
797.7573, 18.79869
798.2394, 18.73043
798.7216, 19.55514
799.2037, 20.27004
799.6858, 20.09240
800.1679, 18.81519
800.6500, 18.34797
801.1321, 18.78171
801.6143, 19.40731
802.0964, 19.65954
802.5785, 19.62269
803.0606, 19.37208
803.5427, 18.89579
804.0248, 18.56093
804.5070, 18.60759
804.9891, 18.86194
805.4712, 19.22420
805.9533, 19.75810
806.4354, 20.16235
806.9175, 20.41890
807.3997, 20.56921
807.8818, 20.61373
808.3639, 20.55505
808.8460, 20.52957
809.3281, 20.54082
809.8102, 20.59723
810.2924, 20.92666
810.7745, 21.20600
811.2566, 20.80610
811.7387, 19.54438
812.2208, 18.69841
812.7029, 19.11556
813.1851, 19.89895
813.6672, 20.46060
814.1493, 20.77636
814.6314, 20.90382
815.1135, 20.80184
815.5956, 20.61147
816.0778, 20.39826
816.5599, 20.18525
817.0420, 20.08911
817.5241, 20.11675
818.0062, 20.22101
818.4883, 20.47663
818.9705, 20.72134
819.4526, 20.74565
819.9347, 20.47908
820.4168, 20.35057
820.8989, 20.65791
821.3810, 20.93059
821.8632, 20.86877
822.3453, 20.40508
822.8274, 20.34590
823.3095, 20.75917
823.7916, 21.16850
824.2737, 21.14562
824.7559, 20.86058
825.2380, 20.62882
825.7201, 20.47294
826.2022, 20.36671
826.6843, 20.23588
827.1664, 20.19739
827.6486, 20.39933
828.1307, 20.91969
828.6128, 21.17104
829.0949, 21.09919
829.5770, 20.84676
830.0591, 20.34933
830.5413, 19.67056
831.0234, 19.61172
831.5055, 20.16480
831.9876, 20.73298
832.4697, 20.91393
832.9518, 20.87286
833.4340, 20.75617
833.9161, 20.57840
834.3982, 20.38986
834.8803, 20.12764
835.3624, 19.94043
835.8445, 19.88733
836.3267, 19.96549
836.8088, 20.15365
837.2909, 20.49231
837.7730, 20.74915
838.2551, 20.74567
838.7372, 20.58239
839.2194, 20.52996
839.7015, 20.56380
840.1836, 20.54130
840.6657, 20.15504
841.1478, 19.88799
841.6299, 20.17345
842.1121, 20.93893
842.5942, 21.42254
843.0763, 21.44281
843.5584, 21.43608
844.0405, 21.55857
844.5226, 21.75154
845.0048, 21.77458
845.4869, 21.63487
845.9690, 21.44355
846.4511, 21.22864
846.9332, 21.01578
847.4153, 20.71879
847.8975, 20.43958
848.3796, 20.46624
848.8617, 21.48289
849.3438, 22.13990
849.8259, 21.93192
850.3080, 21.14440
850.7902, 20.40633
851.2723, 19.67296
851.7544, 19.33832
852.2365, 19.65272
852.7186, 20.20953
853.2007, 20.25151
853.6829, 19.93911
854.1650, 19.72273
854.6471, 20.03574
855.1292, 20.15293
855.6113, 19.32537
856.0934, 18.16702
856.5756, 17.84375
857.0577, 18.94736
857.5398, 19.74198
858.0219, 20.02181
858.5040, 19.96003
858.9861, 19.76045
859.4683, 19.44670
859.9504, 19.12714
860.4325, 18.79667
860.9146, 18.57784
861.3967, 18.67332
861.8788, 18.91065
862.3610, 19.08567
862.8431, 19.20208
863.3252, 19.14955
863.8073, 18.86508
864.2894, 18.47981
864.7715, 18.03610
865.2537, 17.51121
865.7358, 17.50483
866.2179, 18.13842
866.7000, 18.76810
867.1821, 18.56359
867.6642, 18.01579
868.1464, 17.88617
868.6285, 18.35532
869.1106, 18.76382
869.5927, 18.80914
870.0748, 18.74844
870.5569, 18.76802
871.0391, 18.90141
871.5212, 18.86418
872.0033, 18.62148
872.4854, 18.34279
872.9675, 18.16335
873.4496, 18.04205
873.9318, 17.86250
874.4139, 17.63169
874.8960, 17.47452
875.3781, 17.56987
875.8602, 17.67079
876.3423, 17.60040
876.8245, 17.35225
877.3066, 17.18890
877.7887, 17.16421
878.2708, 17.09350
878.7529, 16.83250
879.2350, 16.50100
879.7172, 16.62171
880.1993, 17.10985
880.6814, 17.42284
881.1635, 17.03563
881.6456, 16.57093
882.1277, 16.57655
882.6099, 16.88567
883.0920, 16.99069
883.5741, 16.64362
884.0562, 16.27443
884.5383, 15.85411
885.0204, 15.52431
885.5026, 15.69540
885.9847, 16.32886
886.4668, 16.87541
886.9489, 17.22297
887.4310, 17.31786
887.9131, 16.85345
888.3953, 16.17436
888.8774, 15.80784
889.3595, 16.27561
889.8416, 16.49206
890.3237, 16.19640
890.8058, 15.68811
891.2880, 15.24447
891.7701, 14.86860
892.2522, 14.52837
892.7343, 14.20579
893.2164, 14.00077
893.6985, 14.02513
894.1807, 14.23070
894.6628, 14.65382
895.1449, 15.37083
895.6270, 15.74043
896.1091, 15.18746
896.5912, 14.51294
897.0734, 14.19671
897.5555, 14.27097
898.0376, 14.35745
898.5197, 14.46756
899.0018, 14.51826
899.4839, 14.45130
899.9661, 14.28473
900.4482, 13.96397
900.9303, 13.53385
901.4124, 13.28236
901.8945, 13.62787
902.3766, 13.90923
902.8588, 13.63534
903.3409, 12.98988
903.8230, 12.91067
904.3051, 13.61083
904.7872, 14.00622
905.2693, 13.60893
905.7515, 12.86021
906.2336, 12.64274
906.7157, 12.82773
907.1978, 13.04379
907.6799, 13.15891
908.1620, 13.24390
908.6442, 13.26497
909.1263, 13.30089
909.6084, 13.52602
910.0905, 14.18999
910.5726, 14.31868
911.0547, 13.69177
911.5369, 12.83434
912.0190, 12.44882
912.5011, 12.39386
912.9832, 12.25518
913.4653, 11.94284
913.9474, 11.67271
914.4296, 11.65635
914.9117, 11.69138
915.3938, 11.59430
915.8759, 11.31302
916.3580, 11.03029
916.8401, 10.63459
917.3223, 10.51322
917.8044, 11.15428
918.2865, 12.28665
918.7686, 12.95917
919.2507, 13.17761
919.7328, 13.09558
920.2150, 12.40012
920.6971, 11.80449
921.1792, 11.92280
921.6613, 12.63795
922.1434, 12.91025
922.6255, 12.53576
923.1077, 12.13004
923.5898, 11.79823
924.0719, 11.61990
924.5540, 11.96243
925.0361, 12.66131
925.5182, 13.01600
926.0004, 12.53948
926.4825, 12.02611
926.9646, 12.07471
927.4467, 12.36567
927.9288, 12.39908
928.4109, 11.90869
928.8931, 11.66302
929.3752, 11.77067
929.8573, 11.98221
930.3394, 12.04023
930.8215, 11.96599
931.3036, 11.82283
931.7858, 11.61439
932.2679, 11.39266
932.7500, 11.07635
933.2321, 10.84747
933.7142, 10.91239
934.1964, 11.35058
934.6785, 11.50716
935.1606, 11.30101
935.6427, 11.00408
936.1248, 10.69744
936.6069, 10.42614
937.0891, 10.40465
937.5712, 10.58939
938.0533, 10.76472
938.5354, 10.72425
939.0175, 10.72903
939.4996, 11.08551
939.9818, 11.59522
940.4639, 11.64343
940.9460, 10.92386
941.4281, 10.55929
941.9102, 10.87194
942.3923, 11.38390
942.8745, 11.21263
943.3566, 10.60152
943.8387, 10.27489
944.3208, 10.46042
944.8029, 10.75626
945.2850, 11.04241
945.7672, 11.26575
946.2493, 11.34092
946.7314, 11.17936
947.2135, 11.31536
947.6956, 11.88739
948.1777, 12.28526
948.6599, 11.82808
949.1420, 10.89182
949.6241, 10.39180
950.1062, 10.31147
950.5883, 10.30269
951.0704, 10.19456
951.5526, 10.09509
952.0347, 9.950838
952.5168, 9.851085
952.9989, 10.29239
953.4810, 11.50339
953.9631, 12.11443
954.4453, 11.55259
954.9274, 10.52314
955.4095, 10.10509
955.8916, 10.12961
956.3737, 10.22167
956.8558, 10.21583
957.3380, 10.35434
957.8201, 11.07272
958.3022, 11.73076
958.7843, 11.64153
959.2664, 10.59559
959.7485, 9.994121
960.2307, 9.906978
960.7128, 10.05500
961.1949, 10.28154
961.6770, 10.54561
962.1591, 10.85429
962.6412, 11.19216
963.1234, 11.29729
963.6055, 10.75702
964.0876, 10.33051
964.5697, 10.33774
965.0518, 10.66304
965.5339, 10.80859
966.0161, 10.77409
966.4982, 10.63948
966.9803, 10.39499
967.4624, 10.13086
967.9445, 9.865133
968.4266, 9.674353
968.9088, 9.689982
969.3909, 10.30495
969.8730, 10.60359
970.3551, 10.43183
970.8372, 10.06459
971.3193, 9.689987
971.8015, 9.338533
972.2836, 9.368735
972.7657, 9.820927
973.2478, 10.20436
973.7299, 10.03721
974.2120, 9.715113
974.6942, 9.536685
975.1763, 9.532049
975.6584, 9.656845
976.1405, 10.02198
976.6226, 10.26314
977.1047, 10.21753
977.5869, 9.982706
978.0690, 9.791157
978.5511, 9.642920
979.0332, 9.523898
979.5153, 9.322686
979.9974, 9.302732
980.4796, 9.842390
980.9617, 10.54255
981.4438, 10.83548
981.9259, 10.58858
982.4080, 10.30998
982.8901, 10.01302
983.3723, 9.722994
983.8544, 9.521315
984.3365, 9.324991
984.8186, 8.798048
985.3007, 7.940301
985.7828, 7.618122
986.2650, 8.872450
986.7471, 10.05100
987.2292, 10.41942
987.7113, 10.10427
988.1934, 9.667563
988.6755, 9.093886
989.1577, 8.778784
989.6398, 8.963382
990.1219, 9.330735
990.6040, 9.608778
991.0861, 9.773667
991.5682, 9.781764
992.0504, 9.442161
992.5325, 9.219451
993.0146, 9.177847
993.4967, 9.219735
993.9788, 9.207172
994.4609, 9.170734
994.9431, 9.493196
995.4252, 10.19226
995.9073, 10.70802
996.3894, 10.47620
996.8715, 10.03961
997.3536, 9.788743
997.8358, 9.733065
998.3179, 9.606387
998.8000, 9.314306
999.2821, 9.198834
999.7642, 9.415177
1000.246, 9.782413
1000.728, 9.930835
1001.211, 9.929188
1001.693, 9.953796
1002.175, 10.10235
1002.657, 10.19005
1003.139, 10.14450
1003.621, 9.990808
1004.103, 9.762033
1004.585, 9.463500
1005.068, 8.963108
1005.550, 8.210234
1006.032, 7.711931
1006.514, 8.121078
1006.996, 8.825791
1007.478, 8.989455
1007.960, 8.701097
1008.442, 8.627082
1008.924, 9.401120
1009.407, 9.796629
1009.889, 9.413392
1010.371, 8.663800
1010.853, 8.400241
1011.335, 8.563675
1011.817, 8.825698
1012.299, 9.163043
1012.781, 9.359775
1013.263, 9.125578
1013.746, 8.755376
1014.228, 8.520723
1014.710, 8.445878
1015.192, 8.504550
1015.674, 8.726603
1016.156, 8.987139
1016.638, 9.232103
1017.120, 9.454678
1017.603, 9.698240
1018.085, 9.917169
1018.567, 9.942413
1019.049, 9.331600
1019.531, 8.969633
1020.013, 9.301154
1020.495, 9.898231
1020.977, 10.12025
1021.459, 9.956103
1021.942, 9.926056
1022.424, 10.12054
1022.906, 10.25146
1023.388, 9.973665
1023.870, 9.550384
1024.352, 9.201771
1024.834, 8.950174
1025.316, 8.920383
1025.799, 9.260542
1026.281, 9.504718
1026.763, 9.411968
1027.245, 9.146655
1027.727, 9.165607
1028.209, 9.386889
1028.691, 9.533720
1029.173, 9.444093
1029.656, 9.344747
1030.138, 9.376438
1030.620, 9.426738
1031.102, 9.363057
1031.584, 9.149095
1032.066, 9.021290
1032.548, 8.985397
1033.030, 9.018398
1033.512, 9.201028
1033.995, 9.375577
1034.477, 9.247286
1034.959, 8.885633
1035.441, 8.791960
1035.923, 9.475002
1036.405, 9.790620
1036.887, 9.301808
1037.369, 8.582381
1037.851, 9.002177
1038.334, 10.19753
1038.816, 10.77373
1039.298, 10.34632
1039.780, 9.599405
1040.262, 8.462697
1040.744, 7.560470
1041.226, 7.502328
1041.708, 8.344198
1042.191, 8.851362
1042.673, 9.018347
1043.155, 8.951219
1043.637, 8.462464
1044.119, 7.987595
1044.601, 8.282673
1045.083, 9.051326
1045.565, 9.603494
1046.047, 9.666238
1046.530, 9.572865
1047.012, 9.258785
1047.494, 8.943568
1047.976, 8.909563
1048.458, 9.096571
1048.940, 9.233847
1049.422, 9.300068
1049.904, 9.297810
1050.386, 9.265162
1050.869, 9.130290
1051.351, 8.775148
1051.833, 8.271800
1052.315, 7.852517
1052.797, 7.487340
1053.279, 7.489709
1053.761, 8.060735
1054.243, 8.714105
1054.726, 8.809601
1055.208, 8.607039
1055.690, 8.462705
1056.172, 8.462529
1056.654, 8.482024
1057.136, 8.518018
1057.618, 8.554851
1058.100, 8.612638
1058.583, 8.658751
1059.065, 8.509103
1059.547, 8.211985
1060.029, 7.989412
1060.511, 8.010007
1060.993, 8.071819
1061.475, 8.106251
1061.957, 8.126437
1062.439, 8.121839
1062.922, 8.069870
1063.404, 8.269370
1063.886, 8.779424
1064.368, 9.181385
1064.850, 9.007438
1065.332, 8.611077
1065.814, 8.300386
1066.296, 8.102941
1066.778, 8.002847
1067.261, 7.992400
1067.743, 8.089526
1068.225, 8.348324
1068.707, 8.632605
1069.189, 8.643727
1069.671, 8.485128
1070.153, 8.411231
1070.635, 8.520247
1071.118, 8.579156
1071.600, 8.457084
1072.082, 8.291388
1072.564, 8.179155
1073.046, 8.106709
1073.528, 7.780335
1074.010, 7.235871
1074.492, 6.958998
1074.974, 7.482450
1075.457, 8.060448
1075.939, 8.165694
1076.421, 7.941343
1076.903, 7.583867
1077.385, 6.920352
1077.867, 6.772718
1078.349, 7.276612
1078.831, 7.872584
1079.313, 8.069423
1079.796, 8.014172
1080.278, 7.875162
1080.760, 7.677530
1081.242, 7.512633
1081.724, 7.299706
1082.206, 7.307925
1082.688, 7.730305
1083.170, 8.230184
1083.652, 8.100945
1084.135, 7.501642
1084.617, 6.979300
1085.099, 6.606789
1085.581, 6.547955
1086.063, 7.362157
1086.545, 8.085846
1087.027, 8.006637
1087.509, 7.236936
1087.992, 7.003731
1088.474, 7.313844
1088.956, 7.563375
1089.438, 7.465968
1089.920, 7.280489
1090.402, 7.258838
1090.884, 7.308842
1091.366, 7.300066
1091.849, 7.177894
1092.331, 7.109733
1092.813, 7.119395
1093.295, 7.102314
1093.777, 6.880134
1094.259, 6.628711
1094.741, 6.798690
1095.223, 7.247086
1095.705, 7.465693
1096.188, 6.787203
1096.670, 6.575111
1097.152, 7.351995
1097.634, 8.263132
1098.116, 8.043304
1098.598, 6.960118
1099.080, 6.268002
1099.562, 6.077837
1100.044, 6.061488
1100.527, 6.205243
1101.009, 6.274749
1101.491, 5.970869
1101.973, 5.522027
1102.455, 5.862796
1102.937, 7.008927
1103.419, 7.427615
1103.901, 6.553592
1104.384, 5.603678
1104.866, 5.834091
1105.348, 6.536154
1105.830, 7.029922
1106.312, 7.218476
1106.794, 7.392939
1107.276, 7.587481
1107.758, 7.611955
1108.240, 7.249417
1108.723, 6.829917
1109.205, 7.014368
1109.687, 7.498934
1110.169, 7.683066
1110.651, 7.067180
1111.133, 6.791056
1111.615, 7.100262
1112.097, 7.448031
1112.579, 7.454059
1113.062, 7.152374
1113.544, 6.426519
1114.026, 5.428549
1114.508, 4.911595
1114.990, 5.800316
1115.472, 6.530833
1115.954, 6.487518
1116.436, 6.134160
1116.919, 5.992887
1117.401, 6.063279
1117.883, 6.527883
1118.365, 7.403478
1118.847, 7.879439
1119.329, 6.902384
1119.811, 5.773342
1120.293, 5.368689
1120.776, 5.534608
1121.258, 5.701797
1121.740, 5.868927
1122.222, 6.075332
1122.704, 6.360246
1123.186, 6.550288
1123.668, 6.268724
1124.150, 5.930354
1124.632, 6.068904
1125.115, 6.809465
1125.597, 7.112799
1126.079, 6.805451
1126.561, 6.631719
1127.043, 6.993119
1127.525, 7.443782
1128.007, 7.111619
1128.489, 6.389073
1128.971, 5.957194
1129.454, 6.080136
1129.936, 6.273714
1130.418, 6.675907
1130.900, 6.771147
1131.382, 5.972434
1131.864, 4.740446
1132.346, 4.643890
1132.828, 5.353658
1133.311, 5.784244
1133.793, 4.943937
1134.275, 4.479270
1134.757, 4.939948
1135.239, 5.705882
1135.721, 6.318330
1136.203, 6.751413
1136.685, 6.699872
1137.167, 6.205978
1137.650, 5.808114
1138.132, 5.888000
1138.614, 6.079587
1139.096, 6.300316
1139.578, 6.474496
1140.060, 6.438990
1140.542, 6.187143
1141.024, 6.052715
1141.506, 6.073637
1141.989, 6.152894
1142.471, 6.291349
1142.953, 6.389967
1143.435, 6.340487
1143.917, 6.176984
1144.399, 6.094246
1144.881, 6.118227
1145.363, 6.021008
1145.846, 5.716270
1146.328, 5.444254
1146.810, 5.573485
1147.292, 5.812272
1147.774, 5.838603
1148.256, 5.593894
1148.738, 5.352074
1149.220, 5.045578
1149.703, 5.047446
1150.185, 5.637827
1150.667, 6.301559
1151.149, 6.222725
1151.631, 5.716432
1152.113, 5.256194
1152.595, 4.911420
1153.077, 4.752032
1153.559, 4.836393
1154.042, 4.949778
1154.524, 4.924078
1155.006, 4.898958
1155.488, 5.372828
1155.970, 6.085790
1156.452, 6.367101
1156.934, 5.550247
1157.416, 5.145939
1157.898, 5.513361
1158.381, 6.009568
1158.863, 6.219177
1159.345, 6.153892
1159.827, 5.653364
1160.309, 4.876009
1160.791, 4.473724
1161.273, 5.105819
1161.755, 5.680838
1162.238, 5.907319
1162.720, 5.986038
1163.202, 6.195397
1163.684, 6.465912
1164.166, 6.230093
1164.648, 5.528131
1165.130, 4.974923
1165.612, 5.115700
1166.094, 5.253404
1166.577, 4.995420
1167.059, 4.623312
1167.541, 4.623844
1168.023, 4.961306
1168.505, 5.155890
1168.987, 5.158022
1169.469, 5.192017
1169.951, 5.428177
1170.433, 5.730479
1170.916, 6.105981
1171.398, 6.465039
1171.880, 6.574457
1172.362, 6.437274
1172.844, 6.124880
1173.326, 5.601937
1173.808, 5.296235
1174.290, 5.876594
1174.773, 6.559660
1175.255, 6.588522
1175.737, 6.130073
1176.219, 6.206652
1176.701, 6.858721
1177.183, 7.169830
1177.665, 6.824263
1178.147, 6.314409
1178.630, 5.987543
1179.112, 5.815709
1179.594, 5.864095
1180.076, 6.125764
1180.558, 5.949881
1181.040, 5.250287
1181.522, 4.995069
1182.004, 5.762825
1182.486, 6.671646
1182.969, 6.852973
1183.451, 6.579063
1183.933, 6.058456
1184.415, 5.200571
1184.897, 5.001015
1185.379, 5.570421
1185.861, 6.080844
1186.343, 6.023062
1186.825, 5.805235
1187.308, 6.075387
1187.790, 6.451081
1188.272, 6.248887
1188.754, 4.979554
1189.236, 4.404920
1189.718, 4.619915
1190.200, 5.062576
1190.682, 5.489647
1191.165, 5.842878
1191.647, 6.084783
1192.129, 6.187327
1192.611, 6.072197
1193.093, 5.546128
1193.575, 5.214556
1194.057, 5.096629
1194.539, 5.127476
1195.021, 5.395654
1195.504, 5.683364
1195.986, 5.673963
1196.468, 5.432299
1196.950, 5.135335
1197.432, 4.550678
1197.914, 4.582818
1198.396, 5.450053
1198.878, 6.344195
1199.360, 6.436512
1199.843, 6.111315
1200.325, 5.906077
1200.807, 5.784068
1201.289, 5.462129
1201.771, 4.538871
1202.253, 4.307249
1202.735, 5.096303
1203.217, 5.997935
1203.700, 5.802451
1204.182, 5.199745
1204.664, 5.281316
1205.146, 5.983779
1205.628, 6.399354
1206.110, 6.363176
1206.592, 6.057538
1207.074, 5.406483
1207.557, 4.790982
1208.039, 4.774572
1208.521, 5.048965
1209.003, 5.236479
1209.485, 5.291636
1209.967, 5.074104
1210.449, 4.274803
1210.931, 3.962606
1211.413, 4.456915
1211.896, 5.254373
1212.378, 5.805034
1212.860, 6.160018
1213.342, 6.434840
1213.824, 6.641894
1214.306, 6.378208
1214.788, 5.351385
1215.270, 4.604652
1215.752, 4.431684
1216.235, 4.604745
1216.717, 5.043819
1217.199, 5.494324
1217.681, 5.495436
1218.163, 4.940053
1218.645, 4.688263
1219.127, 4.824901
1219.609, 5.218181
1220.092, 5.979119
1220.574, 6.637702
1221.056, 6.161131
1221.538, 5.296289
1222.020, 5.250572
1222.502, 6.383975
1222.984, 6.846427
1223.466, 6.392602
1223.948, 5.840584
1224.431, 5.442321
1224.913, 5.184355
1225.395, 5.115588
1225.877, 5.141575
1226.359, 5.097394
1226.841, 4.902799
1227.323, 5.052197
1227.805, 5.701216
1228.287, 6.016813
1228.770, 5.443784
1229.252, 4.750468
1229.734, 5.126598
1230.216, 5.978270
1230.698, 6.539269
1231.180, 6.690964
1231.662, 6.408279
1232.144, 5.559314
1232.627, 5.063267
1233.109, 5.570366
1233.591, 6.239339
1234.073, 5.939878
1234.555, 5.241782
1235.037, 4.943115
1235.519, 5.197327
1236.001, 5.337358
1236.484, 5.352406
1236.966, 5.341241
1237.448, 5.351810
1237.930, 5.359172
1238.412, 5.310029
1238.894, 5.256656
1239.376, 5.292926
1239.858, 5.449809
1240.340, 5.442234
1240.823, 5.260460
1241.305, 5.133058
1241.787, 5.186357
1242.269, 5.336711
1242.751, 5.552527
1243.233, 5.803775
1243.715, 6.100312
1244.197, 6.483196
1244.679, 6.361565
1245.162, 5.747700
1245.644, 5.284630
1246.126, 5.457499
1246.608, 5.706023
1247.090, 5.692982
1247.572, 5.517036
1248.054, 5.255910
1248.536, 4.892833
1249.019, 4.928140
1249.501, 5.318957
1249.983, 5.601886
1250.465, 5.450854
1250.947, 5.212766
1251.429, 4.945831
1251.911, 4.773370
1252.393, 4.834962
1252.875, 5.117164
1253.358, 5.447084
1253.840, 5.791527
1254.322, 5.942461
1254.804, 5.527821
1255.286, 5.246521
1255.768, 5.475768
1256.250, 5.789121
1256.732, 5.791847
1257.214, 5.555992
1257.697, 5.617511
1258.179, 5.878863
1258.661, 5.886737
1259.143, 5.025995
1259.625, 4.500139
1260.107, 4.652123
1260.589, 4.975697
1261.071, 5.058938
1261.554, 4.969216
1262.036, 4.936290
1262.518, 4.923706
1263.000, 4.801009
1263.482, 4.218050
1263.964, 4.018734
1264.446, 4.352458
1264.928, 4.870898
1265.411, 5.462239
1265.893, 5.938058
1266.375, 5.766944
1266.857, 5.186316
1267.339, 4.844246
1267.821, 5.052402
1268.303, 5.298004
1268.785, 5.634169
1269.267, 5.764577
1269.750, 5.172185
1270.232, 4.455822
1270.714, 4.498944
1271.196, 5.009690
1271.678, 5.285625
1272.160, 5.165272
1272.642, 5.126094
1273.124, 5.183757
1273.606, 5.283150
1274.089, 5.409279
1274.571, 5.535001
1275.053, 5.681447
1275.535, 5.787415
1276.017, 5.748146
1276.499, 5.540634
1276.981, 5.362261
1277.463, 5.216370
1277.946, 4.993242
1278.428, 4.508080
1278.910, 4.052970
1279.392, 3.704134
1279.874, 3.573918
1280.356, 3.867813
1280.838, 4.566866
1281.320, 5.037303
1281.802, 5.273401
1282.285, 5.342346
1282.767, 5.086825
1283.249, 4.926017
1283.731, 5.100595
1284.213, 5.332213
1284.695, 5.406452
1285.177, 5.329996
1285.659, 5.048513
1286.141, 4.628912
1286.624, 4.348622
1287.106, 4.367979
1287.588, 4.487469
1288.070, 4.670902
1288.552, 4.936326
1289.034, 5.450971
1289.516, 5.985895
1289.998, 5.834923
1290.481, 5.286760
1290.963, 5.091003
1291.445, 5.910095
1291.927, 6.274607
1292.409, 6.121382
1292.891, 5.740432
1293.373, 5.030406
1293.855, 4.462991
1294.338, 4.971557
1294.820, 5.961990
1295.302, 6.199573
1295.784, 5.263542
1296.266, 5.152469
1296.748, 5.917901
1297.230, 6.582552
1297.712, 6.492289
1298.194, 6.137002
1298.677, 5.729213
1299.159, 5.391231
1299.641, 5.302007
1300.123, 5.471837
1300.605, 5.329063
1301.087, 4.928705
1301.569, 4.777199
1302.051, 5.334365
1302.533, 5.864800
1303.016, 6.130900
##END=



