##NAMES=Tetradymite
##RRUFFID=R130067
##IDEAL CHEMISTRY=Bi^3+^_2_Te^2-^_2_S^2-^
##LOCALITY=Oravica, Transylvania, Romania
##OWNER=RRUFF
##SOURCE=William W. Pinch
##DESCRIPTION=Mass of platy dark gray crystals
##STATUS=The identification of this mineral has been confirmed only by single crystal X-ray diffraction.
##URL=rruff.info/R130067
176.1426, 0.0000000E+00
176.6248, 0.1348320
177.1069, 0.2410300
177.5890, 6.0036000E-02
178.0711, 5.3383000E-02
178.5532, 0.1108230
179.0353, 0.4827040
179.5175, 0.8116210
179.9996, 0.9190830
180.4817, 0.8920120
180.9638, 0.8893830
181.4459, 0.9173300
181.9280, 1.003414
182.4102, 1.272209
182.8923, 1.678862
183.3744, 1.973404
183.8565, 1.824348
184.3386, 1.419847
184.8207, 1.373970
185.3029, 1.899296
185.7850, 2.571196
186.2671, 2.582672
186.7492, 1.964830
187.2313, 1.387892
187.7134, 1.397879
188.1956, 1.877205
188.6777, 2.264870
189.1598, 2.459848
189.6419, 2.535345
190.1240, 2.677668
190.6061, 2.894653
191.0883, 3.027126
191.5704, 2.856602
192.0525, 2.426062
192.5346, 2.192417
193.0167, 2.274143
193.4988, 2.560045
193.9810, 2.752003
194.4631, 2.839100
194.9452, 2.849264
195.4273, 2.612640
195.9094, 2.138483
196.3915, 1.926308
196.8737, 2.123287
197.3558, 2.618277
197.8379, 3.088398
198.3200, 3.560673
198.8021, 3.894051
199.2842, 3.881153
199.7664, 3.501390
200.2485, 3.249805
200.7306, 3.266668
201.2127, 3.490332
201.6948, 3.578983
202.1769, 3.502850
202.6591, 3.387306
203.1412, 3.364855
203.6233, 3.452208
204.1054, 3.497795
204.5875, 3.444332
205.0696, 3.310093
205.5518, 3.266184
206.0339, 3.322386
206.5160, 3.441252
206.9981, 3.663021
207.4802, 4.074797
207.9623, 4.163986
208.4445, 3.657099
208.9266, 2.594957
209.4087, 2.089113
209.8908, 2.262375
210.3729, 2.740799
210.8550, 3.154936
211.3372, 3.507790
211.8193, 3.784990
212.3014, 4.020151
212.7835, 4.214615
213.2656, 4.082464
213.7477, 3.443291
214.2299, 2.730692
214.7120, 2.536100
215.1941, 3.108131
215.6762, 3.477592
216.1583, 3.284008
216.6404, 2.476593
217.1226, 2.167772
217.6047, 2.590023
218.0868, 3.231092
218.5689, 3.460436
219.0510, 3.128845
219.5331, 2.737339
220.0153, 2.391987
220.4974, 2.092686
220.9795, 1.802876
221.4616, 1.431610
221.9437, 1.158857
222.4258, 1.262226
222.9080, 1.976904
223.3901, 2.561993
223.8722, 2.795891
224.3543, 2.626822
224.8364, 2.596647
225.3185, 2.664381
225.8007, 2.793911
226.2828, 2.855762
226.7649, 2.878390
227.2470, 2.811033
227.7291, 2.687825
228.2112, 2.505171
228.6934, 2.380846
229.1755, 2.356895
229.6576, 2.352489
230.1397, 2.257958
230.6218, 2.003362
231.1039, 1.811057
231.5861, 1.788410
232.0682, 1.955482
232.5503, 2.204803
233.0324, 2.678011
233.5145, 3.118666
233.9966, 3.154556
234.4788, 2.500169
234.9609, 1.966013
235.4430, 1.816737
235.9251, 2.133749
236.4072, 2.238182
236.8893, 2.007832
237.3715, 1.657908
237.8536, 1.469239
238.3357, 1.554884
238.8178, 1.598276
239.2999, 1.481720
239.7820, 1.162659
240.2642, 0.9970800
240.7463, 1.026394
241.2284, 1.180301
241.7105, 1.420925
242.1926, 1.856987
242.6747, 2.106228
243.1569, 2.020018
243.6390, 1.539660
244.1211, 1.205401
244.6032, 1.055629
245.0853, 1.021787
245.5674, 1.026312
246.0496, 1.071375
246.5317, 1.156545
247.0138, 1.309869
247.4959, 1.547758
247.9780, 1.659963
248.4601, 1.590244
248.9423, 1.467674
249.4244, 1.418319
249.9065, 1.488811
250.3886, 1.509122
250.8707, 1.434048
251.3528, 1.262547
251.8350, 1.066452
252.3171, 0.7937560
252.7992, 0.5553100
253.2813, 0.4863030
253.7634, 0.6865410
254.2455, 0.8374160
254.7277, 0.8513860
255.2098, 0.7244830
255.6919, 0.6856010
256.1740, 0.7870210
256.6561, 0.9114460
257.1382, 0.9287820
257.6204, 0.7607560
258.1025, 0.6790750
258.5846, 0.7653280
259.0667, 1.008744
259.5488, 1.176010
260.0309, 1.248355
260.5131, 1.269263
260.9952, 1.280498
261.4773, 1.299347
261.9594, 1.254891
262.4415, 1.106139
262.9236, 0.8691130
263.4058, 0.7237530
263.8879, 0.6737610
264.3700, 0.7057380
264.8521, 0.8515960
265.3342, 1.195067
265.8163, 1.356486
266.2985, 1.223044
266.7806, 0.8568460
267.2627, 0.6093670
267.7448, 0.5132760
268.2269, 0.4722650
268.7090, 0.4244740
269.1912, 0.3737520
269.6733, 0.2927170
270.1554, 0.1673680
270.6375, 1.0886000E-02
271.1196, 0.1192240
271.6017, 0.2222130
272.0839, 0.3010890
272.5660, 0.3973650
273.0481, 0.5492980
273.5302, 0.4355070
274.0123, 0.1039050
274.4944, 0.8476760
274.9766, 1.113491
275.4587, 0.8137870
275.9408, 0.3805480
276.4229, 1.6984001E-02
276.9050, 0.2918340
277.3871, 0.3464660
277.8693, 5.4132000E-02
278.3514, 0.4097180
278.8335, 0.6574540
279.3156, 0.6723180
279.7977, 0.5939790
280.2798, 0.4679630
280.7620, 0.2962400
281.2441, 0.1560790
281.7262, 4.7398001E-02
282.2083, 2.0202000E-02
282.6904, 3.9929999E-03
283.1725, 0.1040160
283.6547, 0.1772290
284.1368, 7.8699999E-02
284.6189, 0.1606190
285.1010, 0.1253600
285.5831, 0.2634330
286.0652, 0.7287490
286.5474, 0.8233830
287.0295, 0.5548630
287.5116, 0.3003400
287.9937, 0.2470580
288.4758, 0.3573420
288.9579, 0.4169980
289.4401, 0.4214850
289.9222, 0.4009420
290.4043, 0.3641460
290.8864, 0.3205630
291.3685, 0.3404880
291.8506, 0.5143750
292.3328, 0.7688440
292.8149, 0.8303380
293.2970, 0.6756360
293.7791, 0.5108870
294.2612, 0.6534110
294.7433, 1.007973
295.2255, 1.165313
295.7076, 0.8400410
296.1897, 0.3176950
296.6718, 0.2568040
297.1539, 0.6445080
297.6360, 0.9885190
298.1182, 0.7390410
298.6003, 0.1169900
299.0824, 0.3285040
299.5645, 0.4078100
300.0466, 0.2859020
300.5287, 0.1728030
301.0109, 6.5526001E-02
301.4930, 6.0648002E-02
301.9751, 0.2795450
302.4572, 0.5193030
302.9393, 0.6443560
303.4214, 0.5962240
303.9036, 0.4811260
304.3857, 0.4119140
304.8678, 0.3746300
305.3499, 0.3143420
305.8320, 9.0497002E-02
306.3141, 0.1328920
306.7963, 0.1310630
307.2784, 0.1833880
307.7605, 0.5759530
308.2426, 0.9346890
308.7247, 1.228695
309.2068, 1.383699
309.6890, 1.251908
310.1711, 1.029115
310.6532, 0.8756210
311.1353, 0.8113260
311.6174, 0.8047140
312.0995, 0.8929980
312.5817, 1.020869
313.0638, 1.100012
313.5459, 0.9936910
314.0280, 0.9031680
314.5101, 0.9822930
314.9922, 1.251774
315.4744, 1.500483
315.9565, 1.618767
316.4386, 1.664230
316.9207, 1.701811
317.4028, 1.814667
317.8849, 1.868285
318.3671, 1.765083
318.8492, 1.513446
319.3313, 1.312869
319.8134, 1.224676
320.2955, 1.216546
320.7776, 1.263467
321.2598, 1.388072
321.7419, 1.536397
322.2240, 1.754024
322.7061, 2.008979
323.1882, 2.137501
323.6703, 2.056779
324.1525, 1.867035
324.6346, 1.624397
325.1167, 1.142556
325.5988, 0.8708610
326.0809, 0.9817010
326.5630, 1.350195
327.0452, 1.621559
327.5273, 1.678927
328.0094, 1.669837
328.4915, 1.674448
328.9736, 1.721713
329.4557, 1.706243
329.9379, 1.604137
330.4200, 1.447181
330.9021, 1.280952
331.3842, 1.068059
331.8663, 0.9557580
332.3484, 0.9790400
332.8306, 1.167060
333.3127, 1.265616
333.7948, 1.227025
334.2769, 1.139780
334.7590, 1.103699
335.2411, 1.216569
335.7233, 1.219732
336.2054, 0.9586790
336.6875, 0.4599900
337.1696, 0.3463060
337.6517, 0.7912970
338.1339, 1.286006
338.6160, 1.343121
339.0981, 0.8327100
339.5802, 0.5514680
340.0623, 0.6927270
340.5444, 1.107851
341.0266, 1.263365
341.5087, 1.119182
341.9908, 0.9043810
342.4729, 0.7151330
342.9550, 0.5682620
343.4371, 0.5605110
343.9193, 0.7292230
344.4014, 0.9546880
344.8835, 0.9723580
345.3656, 0.7751070
345.8477, 0.6252700
346.3298, 0.7571610
346.8120, 1.078668
347.2941, 1.160200
347.7762, 0.9680040
348.2583, 0.6634170
348.7404, 0.3818660
349.2225, 0.1376200
349.7047, 9.9820001E-03
350.1868, 7.3375002E-02
350.6689, 1.6654000E-02
351.1510, 0.3363500
351.6331, 0.9777890
352.1152, 1.533766
352.5974, 1.623708
353.0795, 1.413030
353.5616, 1.213524
354.0437, 1.136726
354.5258, 1.072419
355.0079, 0.8327550
355.4901, 0.4759840
355.9722, 0.2572340
356.4543, 0.4594900
356.9364, 0.7949960
357.4185, 1.017747
357.9006, 1.082520
358.3828, 1.068606
358.8649, 0.9741560
359.3470, 0.8389040
359.8291, 0.7376650
360.3112, 0.6906270
360.7933, 0.6933880
361.2755, 0.7717770
361.7576, 0.9460290
362.2397, 1.057886
362.7218, 0.9861800
363.2039, 0.8417430
363.6860, 0.7464000
364.1682, 0.8034560
364.6503, 0.8400270
365.1324, 0.7721600
365.6145, 0.5898920
366.0966, 0.5046670
366.5787, 0.6778300
367.0609, 0.8803300
367.5430, 0.9645560
368.0251, 0.6163940
368.5072, 0.5017510
368.9893, 0.8838730
369.4714, 1.566486
369.9536, 1.885865
370.4357, 1.543501
370.9178, 1.151791
371.3999, 0.9603800
371.8820, 1.064124
372.3641, 1.123245
372.8463, 1.145898
373.3284, 1.117994
373.8105, 0.9982530
374.2926, 0.7187290
374.7747, 0.5013390
375.2568, 0.4262830
375.7390, 0.4952000
376.2211, 0.5228610
376.7032, 0.5001700
377.1853, 0.4551780
377.6674, 0.4148150
378.1495, 0.3807860
378.6317, 0.3325690
379.1138, 0.2614490
379.5959, 0.1761120
380.0780, 7.9369999E-02
380.5601, 3.4671001E-02
381.0422, 8.5245997E-02
381.5244, 5.3049002E-02
382.0065, 0.3294500
382.4886, 0.4367390
382.9707, 0.3189050
383.4528, 0.1188020
383.9349, 9.7107999E-02
384.4171, 0.3111160
384.8992, 0.3084130
385.3813, 0.2455210
385.8634, 1.003868
386.3455, 1.343536
386.8276, 1.231597
387.3098, 0.9918830
387.7919, 0.8702240
388.2740, 0.8167890
388.7561, 0.7368880
389.2382, 0.4933300
389.7203, 0.3123890
390.2025, 0.4713120
390.6846, 0.8977710
391.1667, 1.253561
391.6488, 1.303411
392.1309, 1.228571
392.6130, 1.183048
393.0952, 1.169981
393.5773, 1.153249
394.0594, 1.130862
394.5415, 1.086666
395.0236, 0.9958790
395.5057, 0.7267110
395.9879, 0.5214140
396.4700, 0.5102640
396.9521, 0.7384540
397.4342, 0.9160760
397.9163, 0.9964440
398.3984, 1.011080
398.8806, 0.9870210
399.3627, 0.9407320
399.8448, 0.8370480
400.3269, 0.6372650
400.8090, 0.3590040
401.2911, 0.1374270
401.7733, 5.7833999E-02
402.2554, 0.1619650
402.7375, 0.1201280
403.2196, 0.1687940
403.7017, 0.3385650
404.1838, 0.3278470
404.6660, 0.2408910
405.1481, 0.3092750
405.6302, 0.6072750
406.1123, 0.7801090
406.5944, 0.6173320
407.0765, 0.1457040
407.5587, 2.6387000E-02
408.0408, 0.3365540
408.5229, 0.7164500
409.0050, 0.7232300
409.4871, 0.3871130
409.9692, 0.1938120
410.4514, 0.2954620
410.9335, 0.5471850
411.4156, 0.6538630
411.8977, 0.6242070
412.3798, 0.5695700
412.8619, 0.5193210
413.3441, 0.5028680
413.8262, 0.6261530
414.3083, 0.9420800
414.7904, 1.207452
415.2725, 1.110850
415.7546, 0.7896710
416.2368, 0.5274010
416.7189, 0.4874600
417.2010, 0.5337780
417.6831, 0.5643130
418.1652, 0.5787140
418.6473, 0.6109680
419.1295, 0.7559250
419.6116, 0.8888070
420.0937, 0.8901040
420.5758, 0.6374070
421.0579, 0.3866920
421.5400, 0.1590740
422.0222, 9.0439999E-03
422.5043, 3.6564000E-02
422.9864, 0.3318860
423.4685, 0.6391390
423.9506, 0.6468540
424.4327, 0.1696370
424.9149, 1.4045000E-02
425.3970, 0.3993860
425.8791, 0.9627450
426.3612, 1.228160
426.8433, 0.9712020
427.3254, 0.7737660
427.8076, 0.7402280
428.2897, 0.8447030
428.7718, 0.9117010
429.2539, 0.9450930
429.7360, 0.9323780
430.2181, 0.8314330
430.7003, 0.6091690
431.1824, 0.5332930
431.6645, 0.6480130
432.1466, 0.8554770
432.6287, 1.007267
433.1108, 1.102264
433.5930, 1.145369
434.0751, 1.129668
434.5572, 1.065385
435.0393, 0.9681700
435.5214, 0.8370470
436.0035, 0.7293300
436.4857, 0.7458100
436.9678, 0.8252900
437.4499, 0.7960790
437.9320, 0.5574720
438.4141, 0.3223780
438.8962, 0.4452160
439.3784, 0.7960600
439.8605, 0.9630720
440.3426, 0.3897250
440.8247, 0.2488010
441.3068, 0.2774530
441.7889, 0.4100480
442.2711, 0.9746390
442.7532, 0.8564920
443.2353, 0.4961100
443.7174, 0.3096490
444.1995, 0.6125020
444.6816, 0.8970840
445.1638, 1.044483
445.6459, 1.061812
446.1280, 0.9960240
446.6101, 0.6607920
447.0922, 0.4029280
447.5743, 0.4285120
448.0565, 1.001489
448.5386, 1.177968
449.0207, 0.6422770
449.5028, 9.3199000E-02
449.9849, 0.3349570
450.4670, 0.1354240
450.9492, 0.6134040
451.4313, 0.9898820
451.9134, 1.255227
452.3955, 1.272363
452.8776, 0.9804840
453.3597, 0.6769830
453.8419, 0.5451850
454.3240, 0.5895920
454.8061, 0.7276060
455.2882, 0.9896740
455.7703, 1.242213
456.2524, 1.230944
456.7346, 0.9912270
457.2167, 0.8165930
457.6988, 0.9531820
458.1809, 1.213869
458.6630, 1.249374
459.1451, 1.069385
459.6273, 0.8256390
460.1094, 0.5409430
460.5915, 0.3050830
461.0736, 0.2540480
461.5557, 0.4888530
462.0378, 0.7238320
462.5200, 0.7731910
463.0021, 0.6917040
463.4842, 0.5837810
463.9663, 0.4647770
464.4484, 0.3471320
464.9305, 0.1969360
465.4127, 5.0949999E-03
465.8948, 3.4030002E-02
466.3769, 0.2783480
466.8590, 0.6610470
467.3411, 0.9097290
467.8232, 0.8852390
468.3054, 0.9029980
468.7875, 1.029634
469.2696, 1.194780
469.7517, 1.216378
470.2338, 1.028222
470.7159, 0.8160260
471.1981, 0.6294310
471.6802, 0.4671310
472.1623, 0.3768160
472.6444, 0.3635500
473.1265, 0.4100750
473.6086, 0.5302570
474.0908, 0.7218060
474.5729, 0.8575410
475.0550, 0.9130520
475.5371, 0.9046860
476.0192, 0.8393690
476.5013, 0.7246380
476.9835, 0.6227040
477.4656, 0.5337810
477.9477, 0.4899450
478.4298, 0.6120870
478.9119, 0.9110040
479.3940, 1.108871
479.8762, 0.8671070
480.3583, 0.4305490
480.8404, 0.1268770
481.3225, 8.6502999E-02
481.8046, 0.1362350
482.2867, 0.2382330
482.7689, 0.3643750
483.2510, 0.4459250
483.7331, 0.4152970
484.2152, 0.3685390
484.6973, 0.3473960
485.1794, 0.3590350
485.6616, 0.3737560
486.1437, 0.3403420
486.6258, 0.3391030
487.1079, 0.4484820
487.5900, 0.8385330
488.0721, 1.030592
488.5543, 0.9143130
489.0364, 0.5951440
489.5185, 0.3519200
490.0006, 0.1606080
490.4827, 0.1179980
490.9648, 0.3689650
491.4470, 0.8871300
491.9291, 1.017773
492.4112, 0.6915680
492.8933, 0.3037630
493.3754, 0.3279770
493.8575, 0.6596200
494.3397, 0.8134150
494.8218, 0.6196070
495.3039, 0.3263130
495.7860, 0.3299360
496.2681, 0.5556690
496.7502, 0.7501710
497.2324, 0.6849880
497.7145, 0.5842350
498.1966, 0.7169910
498.6787, 1.082370
499.1608, 1.340327
499.6429, 1.254420
500.1251, 1.017294
500.6072, 0.8098230
501.0893, 0.6501550
501.5714, 0.5576030
502.0535, 0.6085780
502.5356, 0.7271710
503.0178, 0.7410290
503.4999, 0.5171660
503.9820, 0.3166130
504.4641, 0.2010180
504.9462, 0.1710680
505.4283, 0.1918060
505.9105, 0.2849670
506.3926, 0.3951220
506.8747, 0.4697350
507.3568, 0.4892280
507.8389, 0.5837800
508.3210, 0.8642010
508.8032, 1.128017
509.2853, 0.9548150
509.7674, 0.3757400
510.2495, 8.8391997E-02
510.7316, 0.1877870
511.2137, 4.8464000E-02
511.6959, 0.1286410
512.1780, 0.3310090
512.6601, 0.4146370
513.1422, 9.5776998E-02
513.6243, 0.3337570
514.1064, 0.4637360
514.5886, 0.1494460
515.0707, 0.1990640
515.5528, 0.3092450
516.0349, 0.2917550
516.5170, 0.3077810
516.9991, 0.5203450
517.4813, 0.6606550
517.9634, 0.5792010
518.4455, 0.3099100
518.9276, 0.1433430
519.4097, 0.1373590
519.8918, 0.2251110
520.3740, 0.4148810
520.8561, 0.8002450
521.3382, 0.9608100
521.8203, 0.7641620
522.3024, 0.5099800
522.7845, 0.5720550
523.2667, 1.024597
523.7488, 1.261342
524.2309, 1.096049
524.7130, 0.7049910
525.1951, 0.5208010
525.6772, 0.5409510
526.1594, 0.6502770
526.6415, 0.8479730
527.1236, 1.076948
527.6057, 1.200975
528.0878, 1.214962
528.5699, 1.181751
529.0521, 1.164502
529.5342, 1.139688
530.0163, 1.024779
530.4984, 0.7575860
530.9805, 0.5183400
531.4626, 0.3756000
531.9448, 0.3351780
532.4269, 0.4080820
532.9090, 0.8628600
533.3911, 1.173303
533.8732, 1.038890
534.3553, 0.4308470
534.8375, 0.1515790
535.3196, 0.5262180
535.8017, 0.9283040
536.2838, 0.9904800
536.7659, 0.5395190
537.2480, 0.2251730
537.7302, 4.6882998E-02
538.2123, 1.3601000E-02
538.6944, 0.2095530
539.1765, 0.6618770
539.6586, 0.9861680
540.1407, 1.049511
540.6229, 0.9429120
541.1050, 0.8421080
541.5871, 0.7505790
542.0692, 0.7034130
542.5513, 0.7384850
543.0334, 0.8257580
543.5156, 0.9496740
543.9977, 1.113600
544.4798, 1.203372
544.9619, 1.119756
545.4440, 0.9252510
545.9261, 0.6770410
546.4083, 0.2705640
546.8904, 1.5107000E-02
547.3725, 4.7860001E-03
547.8546, 0.2111700
548.3367, 0.3370460
548.8188, 0.1715380
549.3010, 0.1171770
549.7831, 0.3782360
550.2652, 0.9454820
550.7473, 1.092798
551.2294, 0.5909880
551.7115, 5.7043999E-02
552.1937, 9.2987999E-02
552.6758, 0.1917190
553.1579, 0.3761830
553.6400, 0.4236510
554.1221, 0.4103500
554.6042, 0.3991250
555.0864, 0.4021900
555.5685, 0.5094640
556.0506, 0.8021330
556.5327, 1.139703
557.0148, 1.349030
557.4969, 1.445962
557.9791, 1.439947
558.4612, 1.231613
558.9433, 1.005298
559.4254, 0.9255430
559.9075, 1.004942
560.3896, 1.082649
560.8718, 1.063497
561.3539, 1.035081
561.8360, 1.071343
562.3181, 1.374808
562.8002, 1.440664
563.2823, 1.026886
563.7645, 0.4591690
564.2466, 0.2619450
564.7287, 0.6351030
565.2108, 0.9299340
565.6929, 0.9811960
566.1750, 0.8427200
566.6572, 0.7541730
567.1393, 0.7208680
567.6214, 0.7028170
568.1035, 0.6498740
568.5856, 0.5878040
569.0677, 0.6405570
569.5499, 0.8184980
570.0320, 0.9764360
570.5141, 0.9924480
570.9962, 0.8929890
571.4783, 0.6759870
571.9604, 0.2656320
572.4426, 3.1005999E-02
572.9247, 2.3198999E-02
573.4068, 0.2837860
573.8889, 0.5089620
574.3710, 0.6105090
574.8531, 0.6822260
575.3353, 0.7527760
575.8174, 0.8088670
576.2995, 0.8045700
576.7816, 0.7014510
577.2637, 0.6186900
577.7458, 0.6439690
578.2280, 0.8382230
578.7101, 0.7584300
579.1922, 0.2823770
579.6743, 0.1993790
580.1564, 0.2145480
580.6385, 0.2085960
581.1207, 0.5760330
581.6028, 0.8137820
582.0849, 0.9284140
582.5670, 0.8584390
583.0491, 0.6601000
583.5313, 0.5111810
584.0134, 0.5620930
584.4955, 0.6541350
584.9776, 0.6525310
585.4597, 0.5641310
585.9418, 0.4332240
586.4240, 6.8764001E-02
586.9061, 0.1687300
587.3882, 3.4832001E-02
587.8703, 0.9211830
588.3524, 1.418199
588.8345, 1.008532
589.3167, 0.4155880
589.7988, 0.2171220
590.2809, 0.6507050
590.7630, 0.9347080
591.2451, 0.9929920
591.7272, 0.8979790
592.2094, 0.7313680
592.6915, 0.4812390
593.1736, 0.3721760
593.6557, 0.5386820
594.1378, 0.8557040
594.6199, 1.053865
595.1021, 1.133464
595.5842, 1.111120
596.0663, 0.8992320
596.5484, 0.6446930
597.0305, 0.5243160
597.5126, 0.5554080
597.9948, 0.6155170
598.4769, 0.6289310
598.9590, 0.6449490
599.4411, 0.7155570
599.9232, 0.9581980
600.4053, 1.078558
600.8875, 0.9279240
601.3696, 0.6668740
601.8517, 0.5184040
602.3338, 0.5331040
602.8159, 0.5731220
603.2980, 0.6540640
603.7802, 0.7261960
604.2623, 0.5980870
604.7444, 0.2427040
605.2265, 1.5969999E-02
605.7086, 5.8603998E-02
606.1907, 0.3620580
606.6729, 0.5278230
607.1550, 0.5579140
607.6371, 0.5708880
608.1192, 0.7369100
608.6013, 0.9095150
609.0834, 0.8434110
609.5656, 0.4211600
610.0477, 8.3311997E-02
610.5298, 0.1509910
611.0119, 0.4088640
611.4940, 0.6314880
611.9761, 0.8184380
612.4583, 0.9030440
612.9404, 0.8516650
613.4225, 0.6968080
613.9046, 0.4778890
614.3867, 9.9633999E-02
614.8688, 0.1272540
615.3510, 6.2812001E-02
615.8331, 0.2343290
616.3152, 0.3718200
616.7973, 0.3322510
617.2794, 0.3013260
617.7615, 0.4384280
618.2437, 0.6782170
618.7258, 0.8511030
619.2079, 0.9500780
619.6900, 0.9773230
620.1721, 0.8690660
620.6542, 0.7167280
621.1364, 0.6342790
621.6185, 0.6535560
622.1006, 0.7310660
622.5827, 0.9511110
623.0648, 1.186614
623.5469, 1.260026
624.0291, 1.028816
624.5112, 0.7607670
624.9933, 0.4183070
625.4754, 6.9009997E-02
625.9575, 3.8263999E-02
626.4396, 0.1532060
626.9218, 0.4223550
627.4039, 0.7308310
627.8860, 1.052188
628.3681, 1.212441
628.8502, 1.208580
629.3323, 1.127187
629.8145, 1.026755
630.2966, 0.8934540
630.7787, 0.6859250
631.2608, 0.3931940
631.7429, 0.1208680
632.2250, 0.1219560
632.7072, 0.2649700
633.1893, 0.2235580
633.6714, 0.1320250
634.1535, 0.4876150
634.6356, 0.8624930
635.1177, 1.157462
635.5999, 1.209926
636.0820, 0.7865200
636.5641, 0.5094110
637.0462, 0.5530650
637.5283, 0.7770850
638.0104, 0.7379820
638.4926, 0.4036060
638.9747, 0.1141620
639.4568, 3.7670001E-02
639.9389, 0.1253000
640.4210, 0.2302720
640.9031, 0.3526070
641.3853, 0.4771360
641.8674, 0.6040680
642.3495, 0.7220470
642.8316, 0.8316150
643.3137, 0.9402550
643.7958, 0.9696860
644.2780, 0.7668950
644.7601, 0.5186020
645.2422, 0.4282180
645.7243, 0.6695800
646.2064, 0.8182980
646.6885, 0.8350560
647.1707, 0.7608470
647.6528, 0.6314840
648.1349, 0.4065540
648.6170, 0.2562400
649.0991, 0.2203270
649.5812, 0.2664990
650.0634, 0.3354480
650.5455, 0.4249020
651.0276, 0.4922570
651.5097, 0.4788780
651.9918, 0.4558990
652.4739, 0.5904120
652.9561, 0.8403730
653.4382, 0.9938620
653.9203, 0.8338940
654.4024, 0.6023010
654.8845, 0.4559190
655.3666, 0.4151600
655.8488, 0.4060570
656.3309, 0.4197360
656.8130, 0.4554680
657.2951, 0.5226890
657.7772, 0.6688630
658.2593, 0.7166740
658.7415, 0.6533620
659.2236, 0.5124390
659.7057, 0.2815480
660.1878, 3.4063000E-02
660.6699, 0.2026820
661.1520, 0.1546320
661.6342, 8.9029996E-03
662.1163, 6.1280001E-02
662.5984, 9.3773998E-02
663.0805, 0.1900030
663.5626, 0.5108950
664.0447, 0.7985380
664.5269, 0.8522880
665.0090, 0.7296320
665.4911, 0.5883410
665.9732, 0.4643020
666.4553, 0.3501400
666.9374, 0.1816150
667.4196, 2.2084000E-02
667.9017, 3.4217000E-02
668.3838, 0.2471310
668.8659, 0.5311110
669.3480, 0.6573010
669.8301, 0.6285860
670.3123, 0.6742050
670.7944, 0.8061680
671.2765, 0.9218290
671.7586, 0.9179600
672.2407, 0.8325070
672.7228, 0.7255060
673.2050, 0.6101740
673.6871, 0.5535960
674.1692, 0.6792610
674.6513, 0.8492570
675.1334, 0.8989160
675.6155, 0.7148590
676.0977, 0.5167760
676.5798, 0.2741790
677.0619, 7.6053999E-02
677.5440, 7.6444000E-02
678.0261, 0.4201240
678.5082, 0.6462460
678.9904, 0.6324620
679.4725, 0.4844750
679.9546, 0.4910980
680.4367, 0.6536680
680.9188, 0.8086690
681.4009, 0.8756140
681.8831, 0.8979950
682.3652, 1.008354
682.8473, 1.168872
683.3294, 1.185348
683.8115, 0.7109290
684.2936, 0.2326440
684.7758, 0.1335740
685.2579, 0.4361770
685.7400, 0.7102900
686.2221, 0.9505770
686.7042, 1.036679
687.1863, 0.8669180
687.6685, 0.3347840
688.1506, 2.0864001E-02
688.6327, 3.0750001E-02
689.1148, 3.5576999E-02
689.5969, 0.1192080
690.0790, 0.2076210
690.5612, 0.2363250
691.0433, 0.2034050
691.5254, 0.1705130
692.0075, 0.1576340
692.4896, 0.1720960
692.9717, 0.2347870
693.4539, 0.3788390
693.9360, 0.5166470
694.4181, 0.5776730
694.9002, 0.6039580
695.3823, 0.6611080
695.8644, 0.8052340
696.3466, 0.9305780
696.8287, 1.043761
697.3108, 1.123797
697.7929, 1.097958
698.2750, 0.9324490
698.7571, 0.7911020
699.2393, 0.7491020
699.7214, 0.7549940
700.2035, 0.6165250
700.6856, 0.3539320
701.1677, 0.1494850
701.6498, 0.1613140
702.1320, 0.2680190
702.6141, 0.3114860
703.0962, 0.2976020
703.5783, 0.2894440
704.0604, 0.2971320
704.5425, 0.3321390
705.0247, 0.4086210
705.5068, 0.5379890
705.9889, 0.6525480
706.4710, 0.7541600
706.9531, 0.8380250
707.4352, 0.8959450
707.9174, 0.9249670
708.3995, 0.9579300
708.8816, 0.9944860
709.3637, 1.039372
709.8458, 1.143300
710.3279, 1.255929
710.8101, 1.242531
711.2922, 1.063448
711.7743, 0.8277730
712.2564, 0.4968150
712.7385, 0.2045240
713.2206, 0.1198490
713.7028, 0.5508760
714.1849, 0.8275260
714.6670, 0.7347610
715.1491, 0.4486690
715.6312, 0.2269210
716.1133, 5.7358000E-02
716.5955, 1.2480000E-03
717.0776, 9.9560000E-02
717.5597, 0.2817060
718.0418, 0.4223670
718.5239, 0.5097850
719.0060, 0.5025580
719.4882, 0.3308950
719.9703, 0.1117960
720.4524, 4.1802000E-02
720.9345, 0.1198430
721.4166, 9.1289997E-02
721.8987, 0.2333530
722.3809, 0.4826440
722.8630, 0.3763970
723.3451, 2.3939000E-02
723.8272, 0.1446440
724.3093, 0.2593940
724.7914, 0.6076910
725.2736, 0.6442780
725.7557, 0.4071490
726.2378, 0.3989290
726.7199, 0.6492070
727.2020, 0.8456190
727.6841, 0.6781530
728.1663, 0.3327880
728.6484, 0.2511590
729.1305, 0.4396270
729.6126, 0.6546900
730.0947, 0.7887630
730.5768, 0.8420950
731.0590, 0.7985440
731.5411, 0.6376920
732.0232, 0.4791880
732.5053, 0.3133990
732.9874, 0.1822930
733.4695, 0.1077670
733.9517, 8.6540997E-02
734.4338, 0.1575410
734.9159, 0.3543080
735.3980, 0.5488100
735.8801, 0.5623820
736.3622, 0.4472090
736.8444, 0.4372550
737.3265, 0.5863120
737.8086, 0.7533860
738.2907, 0.8177460
738.7728, 0.8148090
739.2549, 0.7909740
739.7371, 0.7723920
740.2192, 0.7146170
740.7013, 0.5741330
741.1834, 0.3957190
741.6655, 0.2488130
742.1476, 0.1313600
742.6298, 6.3004002E-02
743.1119, 3.3289999E-02
743.5940, 6.9426998E-02
744.0761, 0.2863130
744.5582, 0.6551270
745.0403, 0.8880160
745.5225, 0.8457160
746.0046, 0.7141230
746.4867, 0.7337160
746.9688, 0.8395560
747.4509, 0.8825500
747.9330, 0.7200440
748.4152, 0.5693880
748.8973, 0.5364860
749.3794, 0.5835250
749.8615, 0.5801100
750.3436, 0.4768770
750.8257, 0.4069950
751.3079, 0.4111780
751.7900, 0.4696600
752.2721, 0.5152690
752.7542, 0.5482750
753.2363, 0.5756290
753.7184, 0.6147320
754.2006, 0.6408110
754.6827, 0.6024850
755.1648, 0.5122550
755.6469, 0.4238500
756.1290, 0.2949900
756.6111, 0.2378640
757.0933, 0.4148860
757.5754, 0.7976610
758.0575, 0.8744300
758.5396, 0.3784590
759.0217, 6.0314000E-02
759.5038, 0.2046920
759.9860, 7.2206996E-02
760.4681, 0.1770450
760.9502, 0.5582230
761.4323, 0.8613290
761.9144, 0.9238840
762.3965, 0.8223240
762.8787, 0.6535990
763.3608, 0.4319580
763.8429, 0.2581670
764.3250, 0.1247040
764.8071, 0.1149640
765.2892, 0.3831520
765.7714, 1.015264
766.2535, 1.284856
766.7356, 0.9266750
767.2177, 0.5042100
767.6998, 0.3379680
768.1819, 0.4449320
768.6641, 0.4878950
769.1462, 0.4591460
769.6283, 0.4227850
770.1104, 0.4838690
770.5925, 0.5609400
771.0746, 0.4303790
771.5568, 5.9285998E-02
772.0389, 0.1825330
772.5210, 7.9076000E-02
773.0031, 0.4659800
773.4852, 0.6848040
773.9673, 0.6522640
774.4495, 0.5837390
774.9316, 0.4417580
775.4137, 0.3237630
775.8958, 0.3325710
776.3779, 0.4865150
776.8600, 0.5113870
777.3422, 0.3848930
777.8243, 0.2113630
778.3064, 4.3807000E-02
778.7885, 8.7793998E-02
779.2706, 8.7096997E-02
779.7527, 8.6387001E-02
780.2349, 0.2390320
780.7170, 0.1793710
781.1991, 9.2876002E-02
781.6812, 0.1463400
782.1633, 0.5006730
782.6454, 0.7710350
783.1276, 0.9597920
783.6097, 1.061825
784.0918, 1.054857
784.5739, 0.9376660
785.0560, 0.7898900
785.5381, 0.6090930
786.0203, 0.4588710
786.5024, 0.4572370
786.9845, 0.5231560
787.4666, 0.4999430
787.9487, 0.3129480
788.4308, 0.1665310
788.9130, 0.1352210
789.3951, 0.2055580
789.8772, 0.3732090
790.3593, 0.7409000
790.8414, 1.022033
791.3235, 1.242747
791.8057, 1.332969
792.2878, 1.096949
792.7699, 0.5674110
793.2520, 0.3586680
793.7341, 0.6090290
794.2162, 0.9517450
794.6984, 0.9997790
795.1805, 0.8723290
795.6626, 0.7669440
796.1447, 0.7822110
796.6268, 0.7276190
797.1089, 0.3744740
797.5911, 4.9244002E-02
798.0732, 0.2694220
798.5553, 0.2257080
799.0374, 8.4694996E-02
799.5195, 0.1948810
800.0016, 0.4779470
800.4838, 0.5988310
800.9659, 0.5710010
801.4480, 0.4447140
801.9301, 0.1948050
802.4122, 1.8190000E-03
802.8943, 9.5238999E-02
803.3765, 0.3253220
803.8586, 0.4772980
804.3407, 0.4589450
804.8228, 0.4315680
805.3049, 0.4050280
805.7870, 0.3992190
806.2692, 0.4392290
806.7513, 0.5376880
807.2334, 0.6218660
807.7155, 0.6679720
808.1976, 0.7454200
808.6797, 1.066879
809.1619, 1.494077
809.6440, 1.573518
810.1261, 1.126045
810.6082, 0.6424800
811.0903, 0.5006770
811.5724, 0.5153060
812.0546, 0.4823770
812.5367, 0.2644460
813.0188, 0.1656920
813.5009, 0.2506510
813.9830, 0.4057430
814.4651, 0.5316560
814.9473, 0.6338880
815.4294, 0.6055200
815.9115, 0.4143740
816.3936, 0.1996480
816.8757, 6.0458001E-02
817.3578, 2.2181001E-02
817.8400, 0.2180640
818.3221, 0.7910360
818.8042, 1.159017
819.2863, 0.7907930
819.7684, 0.2396650
820.2505, 5.1295999E-02
820.7327, 0.5135790
821.2148, 0.7571780
821.6969, 0.7098800
822.1790, 0.5744940
822.6611, 0.5530700
823.1432, 0.6343830
823.6254, 0.7773420
824.1075, 0.9901160
824.5896, 1.154358
825.0717, 1.142038
825.5538, 1.029616
826.0359, 0.9019460
826.5181, 0.7790190
827.0002, 0.6256770
827.4823, 0.3389990
827.9644, 9.5486000E-02
828.4465, 1.2462000E-02
828.9286, 0.1127120
829.4108, 0.2998410
829.8929, 0.5947430
830.3750, 0.8377550
830.8571, 0.7537660
831.3392, 0.5011820
831.8214, 0.4621050
832.3035, 0.6840330
832.7856, 0.8468010
833.2677, 0.6168640
833.7498, 0.3429780
834.2319, 0.3207500
834.7141, 0.6829060
835.1962, 0.8638820
835.6783, 0.8045830
836.1604, 0.6635900
836.6425, 0.4741870
837.1246, 0.2593340
837.6068, 0.3860610
838.0889, 0.8534040
838.5710, 1.190024
839.0531, 0.7917100
839.5352, 0.2211830
840.0173, 0.1553950
840.4995, 0.6298360
840.9816, 1.015925
841.4637, 1.113542
841.9458, 1.058727
842.4279, 0.8642790
842.9100, 0.5356470
843.3922, 0.4100210
843.8743, 0.5231980
844.3564, 0.6430690
844.8385, 0.5822120
845.3206, 0.4421590
845.8027, 0.5134020
846.2849, 0.7508530
846.7670, 0.8997190
847.2491, 0.7464950
847.7312, 0.5290060
848.2133, 0.3623020
848.6954, 0.2684390
849.1776, 0.2047330
849.6597, 0.1198600
850.1418, 0.1136770
850.6239, 0.2415560
851.1060, 0.4694040
851.5881, 0.7741160
852.0703, 1.121132
852.5524, 1.212356
853.0345, 0.6504140
853.5166, 1.6860000E-03
853.9987, 0.2939400
854.4808, 0.2713910
854.9630, 4.7132000E-02
855.4451, 0.7148000
855.9272, 1.194487
856.4093, 1.175411
856.8914, 0.8397700
857.3735, 0.5238410
857.8557, 0.2042770
858.3378, 0.1291670
858.8199, 0.4416230
859.3020, 0.8663410
859.7841, 1.006210
860.2662, 0.9448800
860.7484, 0.8520710
861.2305, 0.7303870
861.7126, 0.6660240
862.1947, 0.7359480
862.6768, 0.8650200
863.1589, 0.9611930
863.6411, 1.073197
864.1232, 0.9784250
864.6053, 0.5846030
865.0874, 0.1547690
865.5695, 4.9637001E-02
866.0516, 0.1944730
866.5338, 0.3658100
867.0159, 0.5338830
867.4980, 0.6706560
867.9801, 0.7821560
868.4622, 0.8394050
868.9443, 0.8053660
869.4265, 0.6065560
869.9086, 0.4767890
870.3907, 0.4158660
870.8728, 0.4266460
871.3549, 0.5878520
871.8370, 0.8681400
872.3192, 0.8005640
872.8013, 0.3589470
873.2834, 2.3135001E-02
873.7655, 8.9148998E-02
874.2476, 0.3859960
874.7297, 0.6020480
875.2119, 0.7136510
875.6940, 0.6703520
876.1761, 0.2326520
876.6582, 0.1197770
877.1403, 0.1576790
877.6224, 8.8340998E-02
878.1046, 0.1531340
878.5867, 2.2990000E-02
879.0688, 2.3759999E-03
879.5509, 0.4552190
880.0330, 1.019024
880.5151, 1.140276
880.9973, 0.9048660
881.4794, 0.6491430
881.9615, 0.4361510
882.4436, 0.3115590
882.9257, 0.3250030
883.4078, 0.4353220
883.8900, 0.5527570
884.3721, 0.6930250
884.8542, 0.7462260
885.3363, 0.6464290
885.8184, 0.4995570
886.3005, 0.4874470
886.7827, 0.5791340
887.2648, 0.6956730
887.7469, 0.8383970
888.2290, 0.9540260
888.7111, 1.058367
889.1932, 1.103261
889.6754, 1.005632
890.1575, 0.6661540
890.6396, 0.4620440
891.1217, 0.4537940
891.6038, 0.5158260
892.0859, 0.4977050
892.5681, 0.4210850
893.0502, 0.3417130
893.5323, 0.2637270
894.0144, 0.2251530
894.4965, 0.2910610
894.9786, 0.3830880
895.4608, 0.4252510
895.9429, 0.3784100
896.4250, 0.4176710
896.9071, 0.6127040
897.3892, 0.7716590
897.8713, 0.6304750
898.3535, 0.2904430
898.8356, 0.3295170
899.3177, 0.7273790
899.7998, 1.129263
900.2819, 1.370756
900.7640, 1.465630
901.2462, 1.369322
901.7283, 1.106207
902.2104, 0.8913850
902.6925, 0.6898770
903.1746, 0.6578060
903.6567, 0.9578310
904.1389, 1.395402
904.6210, 1.255698
905.1031, 0.6050080
905.5852, 2.8470000E-02
906.0673, 0.2709970
906.5494, 0.3477760
907.0316, 0.1146890
907.5137, 0.2758570
907.9958, 0.5581010
908.4779, 0.5542300
908.9600, 0.5891180
909.4421, 0.7285220
909.9243, 0.8781980
910.4064, 0.8844100
910.8885, 0.7583050
911.3706, 0.7186520
911.8527, 0.7957440
912.3348, 0.8730940
912.8170, 0.8477150
913.2991, 0.7446200
913.7812, 0.5703560
914.2633, 0.2835820
914.7454, 0.1189650
915.2275, 0.1845090
915.7097, 0.2894040
916.1918, 0.3086690
916.6739, 0.2451980
917.1560, 0.3282430
917.6381, 0.5587220
918.1202, 0.7419920
918.6024, 0.6568240
919.0845, 0.5134730
919.5666, 0.5842290
920.0487, 0.8265670
920.5308, 0.9630770
921.0129, 0.7842420
921.4951, 0.6499180
921.9772, 0.7016940
922.4593, 0.8391750
922.9414, 0.6715620
923.4235, 0.2179060
923.9056, 2.8867001E-02
924.3878, 0.4318820
924.8699, 0.9156460
925.3520, 0.8291010
925.8341, 0.4480210
926.3162, 0.2136180
926.7983, 0.4916380
927.2805, 0.5852530
927.7626, 0.3085910
928.2447, 7.5909998E-03
928.7268, 6.5013997E-02
929.2089, 0.4829690
929.6910, 0.8318590
930.1732, 1.087890
930.6553, 1.178911
931.1374, 0.8594390
931.6195, 0.4445600
932.1016, 0.3174350
932.5837, 0.5392170
933.0659, 0.7053890
933.5480, 0.7054640
934.0301, 0.6257290
934.5122, 0.4619020
934.9943, 0.2457670
935.4764, 0.1833720
935.9586, 0.2629210
936.4407, 0.4206350
936.9228, 0.7033970
937.4049, 0.9765510
937.8870, 1.123131
938.3691, 1.150969
938.8513, 1.074623
939.3334, 0.6767760
939.8155, 0.4918150
940.2976, 0.7110740
940.7797, 1.046843
941.2618, 0.9564360
941.7440, 0.4878730
942.2261, 0.3497330
942.7082, 0.7160510
943.1903, 1.111477
943.6724, 1.032325
944.1545, 0.7677540
944.6367, 0.6290640
945.1188, 0.7193340
945.6009, 0.7083530
946.0830, 0.4957230
946.5651, 0.2944770
947.0472, 0.1990860
947.5294, 0.2170580
948.0115, 0.5073320
948.4936, 1.038556
948.9757, 1.435251
949.4578, 1.419396
949.9399, 1.213500
950.4221, 0.8740910
950.9042, 0.4722210
951.3863, 0.2797510
951.8684, 0.4321520
952.3505, 0.5837030
952.8326, 0.7129520
953.3148, 0.7573450
953.7969, 0.4793160
954.2790, 1.3369000E-02
954.7611, 0.2282700
955.2432, 1.5289000E-02
955.7253, 0.3462340
956.2075, 0.5605890
956.6896, 0.6942530
957.1717, 0.7860890
957.6538, 0.8535600
958.1359, 0.8272500
958.6180, 0.6761560
959.1002, 0.5074020
959.5823, 0.3597460
960.0644, 0.2612320
960.5465, 0.3696210
961.0286, 0.6514870
961.5107, 0.8344780
961.9929, 0.6033360
962.4750, 0.3939020
962.9571, 0.4971160
963.4392, 0.8179940
963.9213, 0.9666190
964.4034, 0.9095020
964.8856, 0.8979950
965.3677, 0.9992240
965.8498, 1.119687
966.3319, 1.132505
966.8140, 1.059704
967.2961, 0.9220300
967.7783, 0.6490240
968.2604, 0.5179950
968.7425, 0.8206450
969.2246, 1.163094
969.7067, 1.194845
970.1888, 0.8352600
970.6710, 0.7973990
971.1531, 1.116094
971.6352, 1.425949
972.1173, 1.431267
972.5994, 1.269413
973.0815, 1.088379
973.5637, 0.8991390
974.0458, 0.7186620
974.5279, 0.5023210
975.0100, 0.3611690
975.4921, 0.3255760
975.9742, 0.3767840
976.4564, 0.5165820
976.9385, 0.7348310
977.4206, 0.7920090
977.9027, 0.5713730
978.3848, 0.3434770
978.8669, 0.4622080
979.3491, 0.6761560
979.8312, 0.6452020
980.3133, 8.5542999E-02
980.7954, 0.1133600
981.2775, 0.1888950
981.7596, 0.6505090
982.2418, 1.229030
982.7239, 1.795528
983.2060, 1.371880
983.6881, 9.4927996E-02
984.1702, 0.8048960
984.6523, 0.1986510
985.1345, 0.6518100
985.6166, 1.059243
986.0987, 1.078125
986.5808, 1.044742
987.0629, 0.9409110
987.5450, 0.8535780
988.0272, 0.8178530
988.5093, 0.7611120
988.9914, 0.5174090
989.4735, 0.1896460
989.9556, 3.1716000E-02
990.4377, 0.1252850
990.9199, 9.7528003E-02
991.4020, 0.1774970
991.8841, 0.4819270
992.3662, 0.6491810
992.8483, 0.6902960
993.3304, 0.6703310
993.8126, 0.5862200
994.2947, 0.4942630
994.7768, 0.3971410
995.2589, 0.3351520
995.7410, 0.3978490
996.2231, 0.5365840
996.7053, 0.6129090
997.1874, 0.4810940
997.6695, 0.4250160
998.1516, 0.4806880
998.6337, 0.6295660
999.1158, 0.9357960
999.5980, 1.348205
1000.080, 1.437721
1000.562, 1.108078
1001.044, 0.7831080
1001.526, 0.8259690
1002.009, 0.9828090
1002.491, 1.033479
1002.973, 0.9443570
1003.455, 0.9400320
1003.937, 1.040576
1004.419, 1.168734
1004.901, 1.332880
1005.383, 1.464926
1005.865, 1.359525
1006.348, 1.096498
1006.830, 0.9009600
1007.312, 1.007664
1007.794, 1.028558
1008.276, 0.6881750
1008.758, 0.3011720
1009.240, 0.2248390
1009.722, 0.4953650
1010.205, 0.7316890
1010.687, 0.9179360
1011.169, 1.016170
1011.651, 0.9302280
1012.133, 0.7822210
1012.615, 0.6741900
1013.097, 0.6460760
1013.579, 0.6997720
1014.061, 0.9593760
1014.544, 1.080262
1015.026, 0.8877410
1015.508, 0.5843530
1015.990, 0.6578650
1016.472, 1.011630
1016.954, 1.164071
1017.436, 0.8919360
1017.918, 0.5814620
1018.401, 0.4704930
1018.883, 0.4430130
1019.365, 0.3706650
1019.847, 0.2189480
1020.329, 0.1840580
1020.811, 0.2842050
1021.293, 0.4016680
1021.775, 0.4653730
1022.257, 0.4854150
1022.740, 0.4344690
1023.222, 0.3466900
1023.704, 0.3481560
1024.186, 0.5981920
1024.668, 0.7885620
1025.150, 0.7984830
1025.632, 0.7701710
1026.114, 1.002967
1026.596, 1.451012
1027.079, 1.724906
1027.561, 1.754582
1028.043, 1.673029
1028.525, 1.539480
1029.007, 1.376894
1029.489, 1.180525
1029.971, 0.9467320
1030.453, 0.8266980
1030.936, 0.8358100
1031.418, 0.9172580
1031.900, 1.097489
1032.382, 1.279359
1032.864, 1.255314
1033.346, 1.078707
1033.828, 0.8714850
1034.310, 0.5970660
1034.792, 0.4236320
1035.275, 0.4474150
1035.757, 0.5391350
1036.239, 0.5821960
1036.721, 0.5762600
1037.203, 0.6705200
1037.685, 0.8670870
1038.167, 0.9995470
1038.649, 0.9158790
1039.132, 0.7435090
1039.614, 0.4750730
1040.096, 0.1715690
1040.578, 0.1087250
1041.060, 0.3988540
1041.542, 0.6551650
1042.024, 0.7578860
1042.506, 0.8293140
1042.989, 0.9373940
1043.471, 1.005657
1043.953, 0.8487430
1044.435, 0.3697730
1044.917, 3.4938999E-02
1045.399, 0.2053730
1045.881, 0.3772310
1046.363, 0.2581150
1046.845, 9.4788000E-02
1047.328, 0.1827460
1047.810, 2.7148999E-02
1048.292, 6.6361003E-02
1048.774, 0.1447220
1049.256, 0.3060110
1049.738, 3.4798000E-02
1050.220, 0.4270850
1050.702, 0.6766270
1051.184, 0.5429360
1051.667, 0.5605750
1052.149, 0.7958060
1052.631, 1.000286
1053.113, 0.8852920
1053.595, 0.6159290
1054.077, 0.5135660
1054.559, 0.5745060
1055.041, 0.6675670
1055.523, 0.7930340
1056.006, 0.8785970
1056.488, 0.9469940
1056.970, 0.9376340
1057.452, 0.7446330
1057.934, 0.4104570
1058.416, 0.3052060
1058.898, 0.5310080
1059.380, 0.7873520
1059.863, 0.8401080
1060.345, 0.8091150
1060.827, 0.7733070
1061.309, 0.7376550
1061.791, 0.7866110
1062.273, 0.9660440
1062.755, 0.9984990
1063.237, 0.6807600
1063.719, 0.2587610
1064.202, 4.6236001E-02
1064.684, 2.8324001E-02
1065.166, 0.1927130
1065.648, 0.7901790
1066.130, 1.116146
1066.612, 1.042425
1067.094, 0.7896970
1067.576, 0.4314830
1068.059, 2.9163999E-02
1068.541, 3.1118000E-02
1069.023, 0.3945010
1069.505, 0.7329420
1069.987, 0.7605360
1070.469, 0.7623350
1070.951, 1.029682
1071.433, 1.318285
1071.916, 1.049117
1072.398, 0.1107920
1072.880, 0.3175410
1073.362, 2.3159999E-02
1073.844, 0.4520250
1074.326, 0.5840940
1074.808, 0.5912350
1075.290, 0.7414910
1075.772, 1.056840
1076.255, 1.167314
1076.737, 0.9419130
1077.219, 0.7756130
1077.701, 0.8109090
1078.183, 0.9561510
1078.665, 1.085164
1079.147, 1.173977
1079.629, 1.152794
1080.111, 0.9595860
1080.594, 0.7904530
1081.076, 0.7457600
1081.558, 0.7006760
1082.040, 0.5622850
1082.522, 0.3483630
1083.004, 0.2480890
1083.486, 0.2566160
1083.968, 0.3532470
1084.450, 0.5499310
1084.933, 0.7329230
1085.415, 0.8354090
1085.897, 0.8794670
1086.379, 0.9097450
1086.861, 0.9349560
1087.343, 0.9179600
1087.825, 0.8575390
1088.307, 0.7525650
1088.790, 0.5120400
1089.272, 0.2874450
1089.754, 0.3051960
1090.236, 0.5256320
1090.718, 0.6843650
1091.200, 0.6962140
1091.682, 0.7071270
1092.164, 0.7319470
1092.646, 0.7838770
1093.129, 0.9586790
1093.611, 1.162994
1094.093, 1.122932
1094.575, 0.7784150
1095.057, 0.4925440
1095.539, 0.4787130
1096.021, 0.5086620
1096.503, 0.4663150
1096.986, 0.3940340
1097.468, 0.4740520
1097.950, 0.6898570
1098.432, 0.9090010
1098.914, 1.124113
1099.396, 1.240990
1099.878, 1.109427
1100.360, 0.8993510
1100.843, 0.7684620
1101.325, 0.7187470
1101.807, 0.7986310
1102.289, 1.032217
1102.771, 1.141271
1103.253, 0.8780580
1103.735, 0.4959720
1104.217, 0.2248480
1104.699, 6.8008997E-02
1105.182, 4.6976000E-02
1105.664, 0.2418800
1106.146, 0.4879850
1106.628, 0.8137750
1107.110, 1.069318
1107.592, 1.150460
1108.074, 1.079190
1108.556, 0.8625820
1109.038, 0.5449380
1109.521, 0.3429550
1110.003, 0.4688750
1110.485, 0.5137230
1110.967, 0.3189360
1111.449, 9.9138997E-02
1111.931, 0.3124440
1112.413, 0.8074160
1112.895, 0.7858830
1113.377, 0.1444230
1113.860, 0.3606230
1114.342, 0.1024060
1114.824, 0.2551860
1115.306, 0.3322630
1115.788, 0.2162350
1116.270, 0.1516660
1116.752, 0.1400390
1117.234, 0.3327160
1117.717, 0.8466630
1118.199, 1.277742
1118.681, 1.208631
1119.163, 0.9267880
1119.645, 0.6705730
1120.127, 0.4581570
1120.609, 0.2603440
1121.091, 7.4504003E-02
1121.573, 4.6889000E-02
1122.056, 6.5227002E-02
1122.538, 8.5070003E-03
1123.020, 0.1187750
1123.502, 0.2847710
1123.984, 0.4479640
1124.466, 0.6421630
1124.948, 0.7006810
1125.430, 0.5570290
1125.913, 0.4477210
1126.395, 0.6000080
1126.877, 0.8644950
1127.359, 0.9047550
1127.841, 0.7712280
1128.323, 0.6020530
1128.805, 0.3419710
1129.287, 0.2106100
1129.770, 0.2692720
1130.252, 0.4010290
1130.734, 0.4738120
1131.216, 0.5406620
1131.698, 0.7018920
1132.180, 0.9294350
1132.662, 1.000312
1133.144, 0.5718290
1133.626, 0.2335690
1134.109, 0.2127090
1134.591, 0.3814010
1135.073, 0.6202590
1135.555, 0.9068350
1136.037, 0.9591120
1136.519, 0.7406510
1137.001, 0.4669340
1137.483, 0.1301840
1137.965, 5.6618001E-02
1138.448, 0.1910020
1138.930, 0.6879820
1139.412, 0.8752230
1139.894, 0.7439950
1140.376, 0.4627280
1140.858, 1.6697999E-02
1141.340, 0.2976700
1141.822, 0.1100210
1142.304, 0.2670320
1142.787, 0.6012140
1143.269, 0.8632230
1143.751, 0.9212940
1144.233, 0.7407200
1144.715, 0.5347570
1145.197, 0.3557650
1145.679, 0.2370880
1146.161, 0.2329610
1146.644, 0.3140320
1147.126, 0.4654830
1147.608, 0.7302170
1148.090, 0.8607150
1148.572, 0.8365660
1149.054, 0.7273310
1149.536, 0.5286160
1150.018, 0.3101060
1150.500, 0.1882240
1150.983, 0.1395940
1151.465, 0.1158060
1151.947, 9.5886000E-02
1152.429, 0.1212920
1152.911, 0.1957180
1153.393, 0.3092210
1153.875, 0.5069700
1154.357, 0.7193040
1154.840, 0.7033250
1155.322, 0.5317260
1155.804, 0.4389850
1156.286, 0.5336610
1156.768, 0.7107280
1157.250, 1.048743
1157.732, 1.315767
1158.214, 1.213672
1158.697, 0.8531290
1159.179, 0.7382320
1159.661, 0.8411710
1160.143, 0.9239680
1160.625, 0.8173060
1161.107, 0.7389760
1161.589, 0.7790430
1162.071, 0.8543720
1162.553, 0.8866080
1163.036, 0.8661360
1163.518, 0.6428690
1164.000, 0.2282720
1164.482, 5.6679999E-03
1164.964, 0.5281500
1165.446, 0.9390170
1165.928, 0.7029840
1166.410, 0.1633610
1166.892, 8.4233999E-02
1167.375, 5.0787002E-02
1167.857, 0.2220850
1168.339, 0.7472590
1168.821, 1.078162
1169.303, 0.6373370
1169.785, 0.1388500
1170.267, 0.1285450
1170.749, 0.4146840
1171.231, 0.4076650
1171.714, 8.8336997E-02
1172.196, 5.6676000E-02
1172.678, 7.6082997E-02
1173.160, 0.2436900
1173.642, 0.2877440
1174.124, 0.2492670
1174.606, 9.7043999E-02
1175.088, 0.1248630
1175.571, 0.1345390
1176.053, 8.0548003E-02
1176.535, 0.2645250
1177.017, 0.3566290
1177.499, 0.3596950
1177.981, 0.1153800
1178.463, 0.1030530
1178.945, 4.1901000E-02
1179.427, 0.5547060
1179.910, 0.8822020
1180.392, 1.021744
1180.874, 1.079884
1181.356, 1.111500
1181.838, 1.042785
1182.320, 0.6088600
1182.802, 0.1378770
1183.284, 6.2849998E-02
1183.767, 0.4777840
1184.249, 0.8352340
1184.731, 1.163455
1185.213, 1.239889
1185.695, 0.8254120
1186.177, 0.3173770
1186.659, 0.1356920
1187.141, 0.1785210
1187.624, 0.3488770
1188.106, 0.7359500
1188.588, 0.7704990
1189.070, 0.3723780
1189.552, 8.3130002E-02
1190.034, 0.2945460
1190.516, 0.7022040
1190.998, 1.050167
1191.480, 1.261501
1191.963, 1.205903
1192.445, 0.6729660
1192.927, 0.4349930
1193.409, 0.5487670
1193.891, 0.6980350
1194.373, 0.6389990
1194.855, 0.5095210
1195.337, 0.5292860
1195.819, 0.6095480
1196.302, 0.5513790
1196.784, 0.1358100
1197.266, 4.7892001E-02
1197.748, 0.3734640
1198.230, 0.7214370
1198.712, 0.7281190
1199.194, 0.5676220
1199.676, 0.4352520
1200.158, 0.3745630
1200.641, 0.5319420
1201.123, 1.182252
1201.605, 1.403464
1202.087, 1.068570
1202.569, 0.6220100
1203.051, 0.4382470
1203.533, 0.4049640
1204.015, 0.4028100
1204.498, 0.4205540
1204.980, 0.4425180
1205.462, 0.4996350
1205.944, 0.4531380
1206.426, 0.2480010
1206.908, 0.1079010
1207.390, 0.3985450
1207.872, 0.7855600
1208.354, 0.7310410
1208.837, 0.3488070
1209.319, 0.2893920
1209.801, 0.8565360
1210.283, 1.104704
1210.765, 0.8728920
1211.247, 0.4978500
1211.729, 0.2216990
1212.211, 8.1745997E-02
1212.694, 0.2033080
1213.176, 0.5356790
1213.658, 0.7556490
1214.140, 0.7942400
1214.622, 0.8570630
1215.104, 0.9865720
1215.586, 1.091138
1216.068, 1.063122
1216.551, 0.9905470
1217.033, 0.8687240
1217.515, 0.7345040
1217.997, 0.6672230
1218.479, 0.7020700
1218.961, 0.6765520
1219.443, 0.5455890
1219.925, 0.4243850
1220.407, 0.4384450
1220.890, 0.5331650
1221.372, 0.6911340
1221.854, 0.8858070
1222.336, 0.9381980
1222.818, 0.7992870
1223.300, 0.7034760
1223.782, 0.7010900
1224.264, 0.7293350
1224.746, 0.6796980
1225.229, 0.6511060
1225.711, 0.8234820
1226.193, 1.154354
1226.675, 1.136988
1227.157, 0.6761200
1227.639, 0.3702420
1228.121, 0.3553780
1228.603, 0.4849260
1229.085, 0.7274700
1229.568, 0.9440610
1230.050, 0.9582130
1230.532, 0.7933320
1231.014, 0.7269300
1231.496, 0.7805960
1231.978, 0.7697400
1232.460, 0.6351210
1232.942, 0.5043370
1233.425, 0.5386350
1233.907, 0.6262580
1234.389, 0.6595560
1234.871, 0.6392530
1235.353, 0.5889170
1235.835, 0.5062390
1236.317, 0.4389500
1236.799, 0.4012660
1237.281, 0.4493420
1237.764, 0.8107660
1238.246, 1.128752
1238.728, 1.021247
1239.210, 0.6166250
1239.692, 0.4441610
1240.174, 0.4988060
1240.656, 0.6030710
1241.138, 0.7284320
1241.621, 0.8122080
1242.103, 0.7810660
1242.585, 0.7123930
1243.067, 0.6162080
1243.549, 0.5358480
1244.031, 0.7184670
1244.513, 1.109000
1244.995, 1.210423
1245.478, 0.8501870
1245.960, 0.5331000
1246.442, 0.7417480
1246.924, 0.8759930
1247.406, 0.5407200
1247.888, 5.6740999E-02
1248.370, 0.2575280
1248.852, 0.1363240
1249.334, 3.5220000E-03
1249.817, 9.9209003E-02
1250.299, 0.1674940
1250.781, 0.1971730
1251.263, 0.2168170
1251.745, 0.2128840
1252.227, 0.2304040
1252.709, 0.4550360
1253.191, 0.7887250
1253.673, 0.9493060
1254.156, 0.8709350
1254.638, 0.6797240
1255.120, 0.1965150
1255.602, 3.6548998E-02
1256.084, 0.2692300
1256.566, 0.7776620
1257.048, 0.7670730
1257.530, 0.4614760
1258.012, 0.3290550
1258.495, 0.4675870
1258.977, 0.5775910
1259.459, 0.5819960
1259.941, 0.6308460
1260.423, 0.7990740
1260.905, 0.9771060
1261.387, 1.005873
1261.869, 0.9220070
1262.352, 0.7135380
1262.834, 0.3651520
1263.316, 0.3530860
1263.798, 0.8492230
1264.280, 1.083859
1264.762, 0.7518900
1265.244, 0.3188100
1265.726, 0.4109070
1266.208, 0.6742010
1266.691, 0.6686890
1267.173, 0.3666400
1267.655, 0.3097900
1268.137, 0.5337170
1268.619, 0.7030400
1269.101, 0.7211530
1269.583, 0.6969320
1270.065, 0.7440770
1270.548, 0.7870010
1271.030, 0.7215290
1271.512, 0.5877080
1271.994, 0.6311600
1272.476, 0.8423860
1272.958, 0.7138150
1273.440, 6.2817000E-02
1273.922, 0.4020480
1274.405, 4.5221999E-02
1274.887, 0.6265960
1275.369, 0.8807300
1275.851, 0.9105040
1276.333, 0.6754780
1276.815, 0.2416360
1277.297, 0.1409770
1277.779, 0.4988480
1278.261, 0.7847240
1278.744, 0.6373690
1279.226, 0.4490940
1279.708, 0.3901920
1280.190, 0.4026680
1280.672, 0.3901020
1281.154, 0.3826050
1281.636, 0.4780520
1282.118, 0.6902850
1282.600, 0.8698150
1283.083, 1.017935
1283.565, 1.029627
1284.047, 0.8284980
1284.529, 0.6034800
1285.011, 0.7017540
1285.493, 0.9125420
1285.975, 0.8720960
1286.457, 0.5693690
1286.939, 0.3833380
1287.422, 0.3884780
1287.904, 0.3369710
1288.386, 4.5371000E-02
1288.868, 7.3063001E-02
1289.350, 3.9106000E-02
1289.832, 9.4915003E-02
1290.314, 0.4109510
1290.796, 0.8029670
1291.279, 0.8218070
1291.761, 0.4140450
1292.243, 0.1929510
1292.725, 0.2493700
1293.207, 0.4021950
1293.689, 0.6338180
1294.171, 0.7833750
1294.653, 0.6432790
1295.135, 0.3924590
1295.618, 0.2713310
1296.100, 0.3439620
1296.582, 0.5193720
1297.064, 0.7242310
1297.546, 0.8065290
1298.028, 0.5711460
1298.510, 0.3288040
1298.992, 0.1619030
1299.475, 8.1046000E-02
1299.957, 0.1311870
1300.439, 0.2505920
1300.921, 0.2254000
1301.403, 7.7302001E-02
1301.885, 0.0000000E+00
##END=



