##NAMES=Thomasclarkite-(Y)
##RRUFFID=R110186
##IDEAL CHEMISTRY=NaY(HCO_3_)(OH)_3_&#183;4H_2_O
##LOCALITY=Mont Saint-Hilaire, Quebec, Canada
##OWNER=RRUFF
##SOURCE=Donald Doell
##DESCRIPTION=Aggregate of sharp yellow blocky crystals
##STATUS=The identification of this mineral has been confirmed only by single crystal X-ray diffraction.
##URL=rruff.info/R110186
92.08563, 240.9492
92.56775, 240.4324
93.04987, 245.1553
93.53198, 251.2082
94.01410, 255.0051
94.49622, 256.0991
94.97833, 254.8843
95.46045, 251.6252
95.94257, 246.2835
96.42468, 241.9887
96.90680, 239.6259
97.38892, 237.4822
97.87103, 235.0912
98.35315, 232.1354
98.83527, 228.6240
99.31738, 225.1655
99.79950, 221.7053
100.2816, 218.8172
100.7637, 216.2773
101.2458, 214.2355
101.7280, 213.0166
102.2101, 212.7263
102.6922, 212.7814
103.1743, 212.0742
103.6564, 210.4939
104.1385, 209.3488
104.6207, 209.2954
105.1028, 210.0673
105.5849, 210.7897
106.0670, 211.1683
106.5491, 211.3101
107.0313, 211.3575
107.5134, 211.3010
107.9955, 211.1991
108.4776, 211.1191
108.9597, 211.0729
109.4418, 210.9585
109.9240, 210.3736
110.4061, 209.8872
110.8882, 210.0899
111.3703, 211.2523
111.8524, 212.9038
112.3345, 213.7324
112.8167, 212.7116
113.2988, 212.2068
113.7809, 212.9265
114.2630, 214.2565
114.7451, 215.3641
115.2272, 215.6882
115.7094, 215.2976
116.1915, 215.4870
116.6736, 216.9760
117.1557, 218.2420
117.6378, 218.6751
118.1199, 218.3891
118.6021, 217.8667
119.0842, 217.4377
119.5663, 217.1272
120.0484, 217.1425
120.5305, 217.4691
121.0126, 218.1096
121.4948, 219.1614
121.9769, 220.6692
122.4590, 222.2924
122.9411, 223.7231
123.4232, 224.9942
123.9053, 226.1334
124.3875, 227.0558
124.8696, 227.8434
125.3517, 228.7551
125.8338, 230.0031
126.3159, 231.1078
126.7980, 231.6316
127.2802, 231.6868
127.7623, 231.7905
128.2444, 232.4742
128.7265, 233.8193
129.2086, 234.8523
129.6907, 235.1024
130.1729, 235.3026
130.6550, 235.8035
131.1371, 236.6373
131.6192, 237.5865
132.1013, 238.3226
132.5834, 238.6245
133.0656, 239.1771
133.5477, 239.7081
134.0298, 240.5951
134.5119, 242.3017
134.9940, 244.9378
135.4761, 248.0578
135.9583, 250.6257
136.4404, 252.0459
136.9225, 253.6101
137.4046, 255.5376
137.8867, 257.6240
138.3688, 259.5419
138.8510, 261.1354
139.3331, 262.5036
139.8152, 263.9479
140.2973, 265.4330
140.7794, 267.0182
141.2615, 268.8252
141.7437, 270.7882
142.2258, 272.6296
142.7079, 274.0899
143.1900, 275.3807
143.6721, 276.9535
144.1542, 278.9287
144.6364, 281.0714
145.1185, 283.2578
145.6006, 285.5375
146.0827, 287.5477
146.5648, 288.6786
147.0469, 289.5764
147.5291, 290.9960
148.0112, 293.4264
148.4933, 296.2981
148.9754, 298.2273
149.4575, 298.5361
149.9396, 299.0675
150.4218, 300.7602
150.9039, 302.9329
151.3860, 304.6445
151.8681, 305.2785
152.3502, 304.9839
152.8323, 305.0305
153.3145, 305.8955
153.7966, 306.6618
154.2787, 307.0815
154.7608, 307.2584
155.2429, 307.4323
155.7250, 307.7982
156.2072, 308.3723
156.6893, 308.8588
157.1714, 309.4931
157.6535, 309.8523
158.1356, 309.6953
158.6177, 309.0631
159.0999, 308.1391
159.5820, 306.9740
160.0641, 305.4673
160.5462, 304.9023
161.0283, 306.0162
161.5104, 307.5175
161.9926, 308.3383
162.4747, 308.3441
162.9568, 308.3122
163.4389, 309.1845
163.9210, 310.9085
164.4031, 312.3718
164.8853, 313.1813
165.3674, 313.6846
165.8495, 314.4482
166.3316, 315.6837
166.8137, 316.8180
167.2958, 317.0315
167.7780, 316.5835
168.2601, 316.5103
168.7422, 317.5887
169.2243, 319.5172
169.7064, 320.9853
170.1885, 321.3428
170.6707, 321.9003
171.1528, 323.6371
171.6349, 326.3468
172.1170, 329.1393
172.5991, 331.3345
173.0812, 332.9095
173.5634, 334.3760
174.0455, 335.3808
174.5276, 336.6030
175.0097, 338.3039
175.4918, 340.4991
175.9739, 343.0857
176.4561, 346.1356
176.9382, 350.1027
177.4203, 353.0059
177.9024, 353.7212
178.3845, 354.3643
178.8666, 356.0880
179.3488, 358.9976
179.8309, 362.4572
180.3130, 365.5897
180.7951, 368.2591
181.2772, 370.8515
181.7593, 373.0417
182.2415, 375.3602
182.7236, 378.3501
183.2057, 382.0875
183.6878, 386.0204
184.1699, 389.2981
184.6520, 391.4739
185.1342, 393.8237
185.6163, 396.6418
186.0984, 399.5233
186.5805, 401.9413
187.0626, 403.7166
187.5447, 405.2932
188.0269, 407.5098
188.5090, 410.5792
188.9911, 413.3333
189.4732, 415.1083
189.9553, 416.4585
190.4374, 418.4177
190.9196, 421.4680
191.4017, 424.8485
191.8838, 427.1372
192.3659, 428.1302
192.8480, 430.1092
193.3301, 435.2165
193.8123, 442.4234
194.2944, 447.8115
194.7765, 449.5551
195.2586, 450.0840
195.7407, 451.9882
196.2228, 455.2776
196.7050, 459.0506
197.1871, 462.8984
197.6692, 466.8020
198.1513, 470.2728
198.6334, 472.6017
199.1155, 475.0002
199.5977, 478.3007
200.0798, 482.5482
200.5619, 487.2011
201.0440, 491.8708
201.5261, 496.6278
202.0082, 501.1220
202.4904, 504.8336
202.9725, 508.6358
203.4546, 513.1397
203.9367, 518.3478
204.4188, 523.6902
204.9009, 528.3506
205.3831, 531.9545
205.8652, 536.0134
206.3473, 541.1327
206.8294, 546.2596
207.3115, 550.7083
207.7936, 554.3951
208.2758, 557.7666
208.7579, 561.3799
209.2400, 565.2042
209.7221, 569.3810
210.2042, 574.0754
210.6863, 578.9186
211.1685, 583.8149
211.6506, 588.6854
212.1327, 593.3242
212.6148, 597.4136
213.0969, 600.3461
213.5790, 603.9729
214.0612, 608.5398
214.5433, 613.5689
215.0254, 619.0189
215.5075, 624.7643
215.9896, 630.2816
216.4717, 634.7187
216.9539, 637.4662
217.4360, 640.5461
217.9181, 644.3680
218.4002, 648.3546
218.8823, 651.8400
219.3644, 654.6486
219.8466, 657.3943
220.3287, 660.9991
220.8108, 665.6732
221.2929, 670.0875
221.7750, 674.4655
222.2571, 678.3428
222.7393, 680.8152
223.2214, 681.5170
223.7035, 681.8759
224.1856, 683.9966
224.6677, 687.7281
225.1498, 690.7744
225.6320, 692.2010
226.1141, 692.6660
226.5962, 693.1745
227.0783, 693.8522
227.5604, 694.6813
228.0425, 695.5862
228.5247, 696.5811
229.0068, 697.9060
229.4889, 700.0663
229.9710, 702.5756
230.4531, 704.3669
230.9352, 705.2679
231.4174, 705.5272
231.8995, 705.0790
232.3816, 704.1503
232.8637, 703.3541
233.3458, 703.2631
233.8279, 703.5600
234.3101, 703.1218
234.7922, 701.5212
235.2743, 699.8507
235.7564, 698.6542
236.2385, 697.8476
236.7206, 697.2899
237.2028, 697.1063
237.6849, 697.1269
238.1670, 696.6923
238.6491, 696.1290
239.1312, 694.4753
239.6133, 690.6578
240.0955, 685.7398
240.5776, 681.5234
241.0597, 679.3487
241.5418, 678.6602
242.0239, 676.7433
242.5060, 672.4490
242.9882, 668.4429
243.4703, 665.4811
243.9524, 663.2697
244.4345, 661.4795
244.9166, 660.0647
245.3987, 658.7621
245.8809, 656.2753
246.3630, 651.1298
246.8451, 646.6796
247.3272, 643.9603
247.8093, 642.1901
248.2914, 640.3830
248.7736, 638.0012
249.2557, 635.1949
249.7378, 632.5886
250.2199, 630.0286
250.7020, 627.9065
251.1841, 626.6966
251.6663, 625.8112
252.1484, 624.5912
252.6305, 622.7111
253.1126, 620.3204
253.5947, 617.8096
254.0768, 614.1873
254.5590, 611.7708
255.0411, 611.6398
255.5232, 612.4027
256.0053, 612.4448
256.4874, 611.0890
256.9695, 608.9664
257.4517, 607.6021
257.9338, 607.6887
258.4159, 607.7805
258.8980, 607.7045
259.3801, 607.6954
259.8622, 608.1826
260.3444, 609.2919
260.8265, 610.4719
261.3086, 610.6452
261.7907, 608.5516
262.2728, 607.4352
262.7549, 608.1179
263.2371, 609.4075
263.7192, 609.9219
264.2013, 609.3231
264.6834, 608.6283
265.1655, 609.4164
265.6476, 612.5326
266.1298, 615.1910
266.6119, 617.4494
267.0940, 619.1837
267.5761, 620.0140
268.0582, 619.9190
268.5403, 619.6777
269.0225, 620.1863
269.5046, 621.6243
269.9867, 623.2460
270.4688, 625.1827
270.9509, 627.2082
271.4330, 629.1031
271.9152, 630.8450
272.3973, 632.6133
272.8794, 634.5671
273.3615, 636.7327
273.8436, 638.9275
274.3257, 641.1029
274.8079, 643.3483
275.2900, 645.7537
275.7721, 648.3187
276.2542, 650.8985
276.7363, 653.5322
277.2184, 656.0805
277.7006, 657.9971
278.1827, 658.4609
278.6648, 658.9261
279.1469, 660.4918
279.6290, 663.0624
280.1111, 665.8074
280.5933, 668.3090
281.0754, 670.5861
281.5575, 672.8091
282.0396, 674.9747
282.5217, 677.0895
283.0038, 679.0377
283.4860, 680.8892
283.9681, 683.0526
284.4502, 685.8163
284.9323, 688.9332
285.4144, 691.8777
285.8965, 694.6537
286.3787, 697.2685
286.8608, 699.6548
287.3429, 701.8600
287.8250, 703.9915
288.3071, 705.8224
288.7892, 707.9852
289.2714, 711.6215
289.7535, 716.9293
290.2356, 721.8292
290.7177, 724.7977
291.1998, 726.6041
291.6819, 729.4101
292.1641, 733.9235
292.6462, 739.1045
293.1283, 743.9125
293.6104, 748.3782
294.0925, 752.7219
294.5746, 756.6775
295.0568, 760.6116
295.5389, 765.3456
296.0210, 771.1338
296.5031, 777.2366
296.9852, 783.1415
297.4673, 788.8885
297.9495, 794.6059
298.4316, 800.4456
298.9137, 806.2150
299.3958, 811.3130
299.8779, 815.4636
300.3600, 820.2586
300.8422, 827.2543
301.3243, 835.5616
301.8064, 843.6309
302.2885, 851.0089
302.7706, 858.2313
303.2527, 866.0491
303.7349, 874.5502
304.2170, 882.8110
304.6991, 889.8736
305.1812, 896.7180
305.6633, 904.7713
306.1454, 914.5672
306.6276, 924.6370
307.1097, 933.5920
307.5918, 941.4880
308.0739, 949.5662
308.5560, 957.8484
309.0381, 966.8023
309.5203, 977.1701
310.0024, 989.1940
310.4845, 1000.725
310.9666, 1009.795
311.4487, 1016.936
311.9308, 1024.718
312.4130, 1033.737
312.8951, 1043.327
313.3772, 1052.793
313.8593, 1062.180
314.3414, 1071.544
314.8235, 1081.002
315.3057, 1090.467
315.7878, 1099.968
316.2699, 1109.686
316.7520, 1118.886
317.2341, 1126.739
317.7162, 1133.650
318.1984, 1140.485
318.6805, 1147.805
319.1626, 1155.086
319.6447, 1161.456
320.1268, 1166.828
320.6089, 1171.757
321.0911, 1176.686
321.5732, 1181.339
322.0553, 1185.253
322.5374, 1188.310
323.0195, 1190.681
323.5016, 1192.338
323.9838, 1193.289
324.4659, 1194.239
324.9480, 1195.944
325.4301, 1197.368
325.9122, 1197.102
326.3943, 1194.784
326.8765, 1192.288
327.3586, 1191.337
327.8407, 1191.537
328.3228, 1190.805
328.8049, 1188.856
329.2870, 1185.455
329.7692, 1180.268
330.2513, 1173.444
330.7334, 1166.232
331.2155, 1159.001
331.6976, 1151.852
332.1797, 1145.206
332.6619, 1139.397
333.1440, 1133.263
333.6261, 1125.416
334.1082, 1116.488
334.5903, 1107.832
335.0724, 1100.467
335.5546, 1093.352
336.0367, 1085.056
336.5188, 1075.522
337.0009, 1065.708
337.4830, 1056.218
337.9651, 1046.755
338.4473, 1036.719
338.9294, 1025.425
339.4115, 1014.543
339.8936, 1006.284
340.3757, 1000.143
340.8578, 992.4565
341.3400, 981.1964
341.8221, 968.3007
342.3042, 956.5428
342.7863, 945.8107
343.2684, 936.3037
343.7505, 928.8544
344.2327, 922.6683
344.7148, 915.9085
345.1969, 908.2286
345.6790, 899.7984
346.1611, 889.9160
346.6432, 878.8905
347.1254, 869.5759
347.6075, 864.3860
348.0896, 860.5043
348.5717, 854.2438
349.0538, 845.1882
349.5359, 836.0726
350.0181, 828.8826
350.5002, 823.3322
350.9823, 817.7460
351.4644, 811.9327
351.9465, 806.1840
352.4286, 800.5795
352.9108, 795.1703
353.3929, 790.0605
353.8750, 785.2797
354.3571, 780.9078
354.8392, 777.1177
355.3214, 773.9969
355.8035, 771.1408
356.2856, 768.6253
356.7677, 766.2504
357.2498, 763.6812
357.7319, 760.8242
358.2141, 757.7271
358.6962, 754.3768
359.1783, 750.7505
359.6604, 747.0296
360.1425, 742.3998
360.6246, 738.1819
361.1068, 735.9769
361.5889, 735.7929
362.0710, 736.0198
362.5531, 735.4105
363.0352, 733.9324
363.5173, 732.1417
363.9995, 729.3016
364.4816, 726.8915
364.9637, 725.9915
365.4458, 726.1155
365.9279, 725.9216
366.4100, 724.6472
366.8922, 722.7369
367.3743, 721.6760
367.8564, 721.8538
368.3385, 722.2488
368.8206, 723.0077
369.3027, 723.7991
369.7849, 724.0732
370.2670, 723.7107
370.7491, 723.3586
371.2312, 724.0448
371.7133, 726.5579
372.1954, 727.5706
372.6776, 726.0506
373.1597, 724.0248
373.6418, 722.5081
374.1239, 721.6255
374.6060, 721.1762
375.0881, 721.0148
375.5703, 721.1423
376.0524, 721.4856
376.5345, 722.5642
377.0166, 723.2723
377.4987, 723.3362
377.9808, 722.8829
378.4630, 721.8761
378.9451, 720.2906
379.4272, 718.7032
379.9093, 718.6572
380.3914, 722.2947
380.8735, 723.8151
381.3557, 721.8091
381.8378, 718.7131
382.3199, 716.0344
382.8020, 714.1248
383.2841, 712.7916
383.7662, 711.9754
384.2484, 711.8367
384.7305, 711.0397
385.2126, 709.3342
385.6947, 707.1496
386.1768, 704.2092
386.6589, 700.8989
387.1411, 697.9335
387.6232, 695.7834
388.1053, 694.1982
388.5874, 692.2880
389.0695, 689.8473
389.5516, 687.4668
390.0338, 685.2460
390.5159, 683.1454
390.9980, 681.3043
391.4801, 679.7433
391.9622, 677.9398
392.4443, 675.0519
392.9265, 670.9428
393.4086, 667.1570
393.8907, 664.1376
394.3728, 661.2742
394.8549, 658.0373
395.3370, 654.5969
395.8192, 651.6511
396.3013, 649.8361
396.7834, 648.8506
397.2655, 647.8709
397.7476, 647.1667
398.2297, 645.7654
398.7119, 642.7162
399.1940, 638.7961
399.6761, 634.8663
400.1582, 631.0009
400.6403, 627.4864
401.1224, 624.6112
401.6046, 622.3444
402.0867, 620.6669
402.5688, 620.0276
403.0509, 619.4571
403.5330, 617.6235
404.0151, 614.4965
404.4973, 611.6773
404.9794, 609.8441
405.4615, 608.7775
405.9436, 608.3192
406.4257, 608.5496
406.9078, 608.6115
407.3900, 607.6825
407.8721, 605.9431
408.3542, 604.4199
408.8363, 603.0272
409.3184, 602.0167
409.8005, 601.7158
410.2827, 601.9786
410.7648, 602.3371
411.2469, 602.6169
411.7290, 602.8118
412.2111, 602.8297
412.6932, 602.3885
413.1754, 602.4679
413.6575, 603.9250
414.1396, 605.6120
414.6217, 606.0618
415.1038, 605.1251
415.5859, 604.1330
416.0681, 604.4548
416.5502, 606.2474
417.0323, 607.6760
417.5144, 608.5096
417.9965, 609.2811
418.4786, 610.4601
418.9608, 611.7067
419.4429, 612.1950
419.9250, 611.4509
420.4071, 610.1154
420.8892, 610.0175
421.3713, 612.5703
421.8535, 614.2424
422.3356, 614.4641
422.8177, 614.1699
423.2998, 613.9836
423.7819, 614.0367
424.2640, 614.1732
424.7462, 614.1537
425.2283, 613.9243
425.7104, 614.3686
426.1925, 616.9608
426.6746, 618.5991
427.1567, 617.6427
427.6389, 615.3344
428.1210, 613.6232
428.6031, 613.4697
429.0852, 614.2448
429.5673, 614.7688
430.0494, 615.0502
430.5316, 615.0629
431.0137, 614.6940
431.4958, 614.1113
431.9779, 613.4084
432.4600, 612.5912
432.9421, 611.6071
433.4243, 610.3075
433.9064, 608.7858
434.3885, 607.4873
434.8706, 606.5676
435.3527, 605.5449
435.8348, 604.1843
436.3170, 602.4991
436.7991, 600.3940
437.2812, 597.6253
437.7633, 594.7467
438.2454, 592.4340
438.7275, 590.5574
439.2097, 588.2074
439.6918, 584.8762
440.1739, 581.2454
440.6560, 578.4971
441.1381, 576.7078
441.6202, 574.5172
442.1024, 571.6150
442.5845, 568.0872
443.0666, 563.5306
443.5487, 558.0576
444.0308, 553.4675
444.5129, 551.4896
444.9951, 551.6998
445.4772, 549.9010
445.9593, 544.4809
446.4414, 539.2645
446.9235, 535.6184
447.4056, 532.8411
447.8878, 529.8651
448.3699, 526.3248
448.8520, 522.5212
449.3341, 518.9039
449.8162, 515.6500
450.2983, 512.0931
450.7805, 507.9372
451.2626, 503.8078
451.7447, 499.9630
452.2268, 496.4119
452.7089, 493.0686
453.1910, 489.9092
453.6732, 486.8897
454.1553, 483.8887
454.6374, 481.1626
455.1195, 477.9772
455.6016, 473.5956
456.0837, 469.1749
456.5659, 465.9572
457.0480, 464.0391
457.5301, 462.2248
458.0122, 459.1293
458.4943, 454.7716
458.9764, 450.8000
459.4586, 447.3700
459.9407, 444.1971
460.4228, 441.2027
460.9049, 438.3276
461.3870, 435.4589
461.8691, 432.5338
462.3513, 429.6416
462.8334, 426.8882
463.3155, 424.2745
463.7976, 421.8959
464.2797, 420.0815
464.7618, 418.1466
465.2440, 414.9186
465.7261, 410.3501
466.2082, 406.5401
466.6903, 404.8876
467.1724, 403.9842
467.6545, 402.0326
468.1367, 398.9493
468.6188, 395.6900
469.1009, 392.6753
469.5830, 390.0904
470.0651, 388.7872
470.5472, 390.7316
471.0294, 391.3159
471.5115, 388.5341
471.9936, 384.1046
472.4757, 379.9292
472.9578, 376.5704
473.4399, 373.9362
473.9221, 372.0344
474.4042, 371.1041
474.8863, 369.5002
475.3684, 366.6920
475.8505, 363.8429
476.3326, 361.2842
476.8148, 359.0040
477.2969, 356.9778
477.7790, 355.2163
478.2611, 353.5527
478.7432, 351.5688
479.2253, 348.9761
479.7075, 346.9149
480.1896, 346.2332
480.6717, 345.5273
481.1538, 343.8180
481.6359, 341.2986
482.1180, 339.0078
482.6002, 337.8835
483.0823, 337.4278
483.5644, 336.0753
484.0465, 333.5464
484.5286, 331.1810
485.0107, 329.9035
485.4929, 328.9334
485.9750, 327.1707
486.4571, 324.3040
486.9392, 321.7648
487.4213, 320.6807
487.9034, 320.5110
488.3856, 320.0836
488.8677, 319.1971
489.3498, 318.1525
489.8319, 317.1859
490.3140, 316.2890
490.7961, 315.3746
491.2783, 314.7047
491.7604, 313.7343
492.2425, 312.1501
492.7246, 310.0989
493.2067, 307.6888
493.6888, 304.9654
494.1710, 302.3617
494.6531, 300.6319
495.1352, 300.1501
495.6173, 299.3913
496.0994, 298.1971
496.5815, 296.9238
497.0637, 295.7329
497.5458, 294.6027
498.0279, 293.4913
498.5100, 292.3913
498.9921, 291.1982
499.4742, 289.5346
499.9564, 287.0653
500.4385, 284.9850
500.9206, 283.4092
501.4027, 282.2954
501.8848, 281.8679
502.3669, 281.9899
502.8491, 282.0731
503.3312, 281.7123
503.8133, 281.0219
504.2954, 280.3168
504.7775, 279.6250
505.2596, 278.7879
505.7418, 277.5254
506.2239, 276.2007
506.7060, 275.4063
507.1881, 275.3384
507.6702, 275.1070
508.1523, 274.0846
508.6345, 272.6699
509.1166, 271.4801
509.5987, 270.6026
510.0808, 269.9966
510.5629, 269.6979
511.0450, 269.6682
511.5272, 269.4387
512.0093, 268.9300
512.4914, 268.3422
512.9735, 267.6694
513.4556, 266.9752
513.9377, 266.3048
514.4199, 265.6852
514.9020, 265.1797
515.3841, 264.9217
515.8662, 264.9951
516.3483, 264.7471
516.8304, 263.5640
517.3126, 262.7148
517.7947, 262.9112
518.2768, 263.5615
518.7589, 263.7033
519.2410, 262.9296
519.7231, 261.9428
520.2053, 261.8754
520.6874, 262.8145
521.1695, 263.3730
521.6516, 263.1611
522.1337, 262.7888
522.6158, 262.7521
523.0980, 262.9081
523.5801, 262.8295
524.0622, 262.1323
524.5443, 261.3687
525.0264, 261.1486
525.5085, 261.4029
525.9907, 261.7348
526.4728, 262.0079
526.9549, 262.3031
527.4370, 262.7449
527.9191, 263.3494
528.4012, 264.0174
528.8834, 264.9453
529.3655, 265.7594
529.8476, 266.2765
530.3297, 266.4628
530.8118, 266.1497
531.2939, 265.1935
531.7761, 264.0230
532.2582, 263.8113
532.7403, 265.5590
533.2224, 266.4041
533.7045, 265.5284
534.1866, 264.5278
534.6688, 264.4429
535.1509, 265.0981
535.6330, 265.6908
536.1151, 265.7055
536.5972, 265.2931
537.0793, 264.7545
537.5615, 263.9713
538.0436, 263.5765
538.5257, 264.1022
539.0078, 264.8375
539.4899, 265.2728
539.9720, 265.3789
540.4542, 265.0915
540.9363, 264.0362
541.4184, 262.7411
541.9005, 262.0486
542.3826, 261.9553
542.8647, 261.8047
543.3469, 261.2582
543.8290, 260.4288
544.3111, 259.5730
544.7932, 258.6236
545.2753, 257.8085
545.7574, 257.6029
546.2396, 257.2199
546.7217, 255.6907
547.2038, 253.2254
547.6859, 250.9792
548.1680, 249.7722
548.6501, 249.3922
549.1323, 248.9118
549.6144, 248.3022
550.0965, 247.6387
550.5786, 246.7120
551.0607, 245.9037
551.5428, 245.7381
552.0250, 246.0710
552.5071, 246.0472
552.9892, 244.8379
553.4713, 242.8806
553.9534, 241.4182
554.4355, 240.5042
554.9177, 239.8472
555.3998, 239.4995
555.8819, 239.2301
556.3640, 238.7241
556.8461, 237.9554
557.3282, 237.1273
557.8104, 236.1673
558.2925, 235.2723
558.7746, 234.7362
559.2567, 234.5350
559.7388, 234.3799
560.2209, 234.0916
560.7031, 233.7305
561.1852, 233.4886
561.6673, 233.4526
562.1494, 233.4174
562.6315, 233.4357
563.1136, 233.4116
563.5958, 233.3171
564.0779, 233.1199
564.5600, 232.7067
565.0421, 231.9243
565.5242, 230.9928
566.0063, 230.7355
566.4885, 231.4475
566.9706, 231.9706
567.4527, 231.6669
567.9348, 231.3614
568.4169, 231.7358
568.8990, 232.7229
569.3812, 233.6233
569.8633, 234.1435
570.3454, 234.3212
570.8275, 234.0319
571.3096, 233.3237
571.7917, 232.8508
572.2739, 232.9016
572.7560, 233.3123
573.2381, 233.8975
573.7202, 234.8472
574.2023, 235.2417
574.6844, 234.2168
575.1666, 233.2895
575.6487, 233.8466
576.1308, 235.3811
576.6129, 236.3340
577.0950, 235.8633
577.5771, 234.7347
578.0593, 234.7805
578.5414, 236.7549
579.0235, 237.8362
579.5056, 237.0997
579.9877, 236.1659
580.4698, 235.7356
580.9520, 235.6753
581.4341, 235.5382
581.9162, 235.0553
582.3983, 234.5564
582.8804, 234.6349
583.3625, 235.2104
583.8447, 235.3767
584.3268, 234.8165
584.8089, 234.0406
585.2910, 233.5581
585.7731, 233.3432
586.2552, 233.1309
586.7374, 233.2237
587.2195, 232.9760
587.7016, 231.7878
588.1837, 230.1012
588.6658, 228.6346
589.1479, 227.6145
589.6301, 226.9363
590.1122, 226.5582
590.5943, 226.5738
591.0764, 225.9628
591.5585, 223.9071
592.0406, 222.1669
592.5228, 221.4628
593.0049, 221.1469
593.4870, 220.4255
593.9691, 219.0963
594.4512, 217.6332
594.9333, 216.4898
595.4155, 215.5871
595.8976, 214.5814
596.3797, 213.4328
596.8618, 212.2859
597.3439, 211.2543
597.8260, 210.2750
598.3082, 209.2018
598.7903, 208.0011
599.2724, 206.7962
599.7545, 205.5042
600.2366, 204.3030
600.7188, 203.4303
601.2009, 202.8684
601.6830, 202.4563
602.1651, 202.1234
602.6472, 201.7563
603.1293, 200.8762
603.6115, 198.8766
604.0936, 197.4921
604.5757, 197.2933
605.0578, 197.2768
605.5399, 196.8235
606.0220, 196.0033
606.5042, 195.2124
606.9863, 194.6629
607.4684, 194.2789
607.9505, 194.0295
608.4326, 193.9048
608.9147, 193.4956
609.3969, 192.5781
609.8790, 191.5595
610.3611, 190.8527
610.8432, 190.4387
611.3253, 190.1994
611.8074, 190.2078
612.2896, 190.3000
612.7717, 190.4335
613.2538, 190.5797
613.7359, 190.7442
614.2180, 190.9134
614.7001, 190.9331
615.1823, 190.5708
615.6644, 189.7944
616.1465, 189.3012
616.6286, 189.3222
617.1107, 189.3172
617.5928, 189.0858
618.0750, 188.7982
618.5571, 188.6285
619.0392, 188.6099
619.5213, 188.6617
620.0034, 188.8640
620.4855, 189.0603
620.9677, 188.7529
621.4498, 187.9000
621.9319, 187.3338
622.4140, 187.5866
622.8961, 188.2447
623.3782, 188.3926
623.8604, 187.8421
624.3425, 187.4512
624.8246, 187.0992
625.3067, 187.1267
625.7888, 188.2182
626.2709, 189.8520
626.7531, 190.7457
627.2352, 190.2511
627.7173, 189.0969
628.1994, 188.6210
628.6815, 188.9586
629.1636, 189.2168
629.6458, 189.3361
630.1279, 189.3822
630.6100, 189.4575
631.0921, 189.4751
631.5742, 189.2583
632.0563, 188.7074
632.5385, 188.0877
633.0206, 187.5140
633.5027, 187.0276
633.9848, 186.7350
634.4669, 186.6494
634.9490, 186.6236
635.4312, 186.5321
635.9133, 186.4244
636.3954, 186.5364
636.8775, 186.5569
637.3596, 187.2575
637.8417, 190.4625
638.3239, 192.8866
638.8060, 191.4709
639.2881, 187.0422
639.7702, 182.7133
640.2523, 180.2390
640.7344, 179.1773
641.2166, 179.0295
641.6987, 179.8530
642.1808, 180.2535
642.6629, 179.9285
643.1450, 179.1645
643.6271, 177.8911
644.1093, 176.3185
644.5914, 175.3015
645.0735, 175.3829
645.5556, 175.5595
646.0377, 175.4090
646.5198, 175.0508
647.0020, 174.5496
647.4841, 173.9731
647.9662, 173.6179
648.4483, 173.8186
648.9304, 174.4409
649.4125, 174.5299
649.8947, 173.9768
650.3768, 173.0733
650.8589, 171.3222
651.3410, 169.6944
651.8231, 168.9178
652.3052, 168.9369
652.7874, 169.1933
653.2695, 169.5370
653.7516, 169.8552
654.2337, 170.0723
654.7158, 170.1564
655.1979, 169.9276
655.6801, 169.3107
656.1622, 168.4836
656.6443, 167.5228
657.1264, 166.3862
657.6085, 166.0218
658.0906, 167.1550
658.5728, 168.0402
659.0549, 168.1238
659.5370, 167.8465
660.0191, 167.6677
660.5012, 167.6583
660.9833, 167.6096
661.4655, 167.2893
661.9476, 166.8340
662.4297, 166.7265
662.9118, 167.0191
663.3939, 167.2392
663.8760, 167.1810
664.3582, 167.0638
664.8403, 167.2047
665.3224, 167.5769
665.8045, 167.7889
666.2866, 167.5975
666.7687, 167.4210
667.2509, 167.4695
667.7330, 167.6964
668.2151, 168.0395
668.6972, 168.4726
669.1793, 168.9375
669.6614, 169.3531
670.1436, 169.7394
670.6257, 170.4513
671.1078, 171.9258
671.5899, 172.8248
672.0720, 172.2893
672.5541, 171.3747
673.0363, 170.8390
673.5184, 170.7187
674.0005, 170.7520
674.4826, 170.7754
674.9647, 170.9422
675.4468, 171.5542
675.9290, 172.4421
676.4111, 173.0949
676.8932, 173.3519
677.3753, 173.3682
677.8574, 173.2380
678.3395, 172.9302
678.8217, 173.2944
679.3038, 175.2182
679.7859, 176.6871
680.2680, 177.1373
680.7501, 177.1404
681.2322, 177.0620
681.7144, 177.0234
682.1965, 177.2249
682.6786, 177.8592
683.1607, 178.7699
683.6428, 179.9249
684.1249, 181.2368
684.6071, 181.8036
685.0892, 181.2208
685.5713, 180.2952
686.0534, 179.8996
686.5355, 180.0598
687.0176, 180.3853
687.4998, 180.9353
687.9819, 181.5542
688.4640, 182.3595
688.9461, 183.1151
689.4282, 183.6208
689.9103, 183.8336
690.3925, 183.7610
690.8746, 183.2792
691.3567, 182.6430
691.8388, 182.4910
692.3209, 182.8384
692.8030, 183.3338
693.2852, 183.9986
693.7673, 184.5765
694.2494, 184.7979
694.7315, 184.6720
695.2136, 184.4266
695.6957, 183.8945
696.1779, 183.4567
696.6600, 183.2071
697.1421, 183.1402
697.6242, 183.4830
698.1063, 184.0874
698.5884, 184.1756
699.0706, 182.9662
699.5527, 181.1453
700.0348, 180.9084
700.5169, 182.5923
700.9990, 183.6752
701.4811, 183.4678
701.9633, 182.8169
702.4454, 182.4135
702.9275, 182.1573
703.4096, 181.6883
703.8917, 180.8634
704.3738, 179.9513
704.8560, 178.9106
705.3381, 177.9233
705.8202, 177.1994
706.3023, 176.7542
706.7844, 176.5128
707.2665, 176.4539
707.7487, 176.4567
708.2308, 176.2353
708.7129, 175.8263
709.1950, 174.9961
709.6771, 173.4959
710.1592, 171.8578
710.6414, 170.2113
711.1235, 168.7121
711.6056, 167.7574
712.0877, 167.6236
712.5698, 167.5405
713.0519, 167.1214
713.5341, 166.5645
714.0162, 166.1142
714.4983, 165.7671
714.9804, 165.3790
715.4625, 164.8648
715.9446, 164.2621
716.4268, 163.6067
716.9089, 162.8299
717.3910, 162.3176
717.8731, 162.3014
718.3552, 162.2408
718.8373, 161.9566
719.3195, 161.4477
719.8016, 160.5853
720.2837, 159.2290
720.7658, 158.2290
721.2479, 158.2215
721.7300, 158.6093
722.2122, 158.7811
722.6943, 158.7565
723.1764, 158.8091
723.6585, 159.0609
724.1406, 159.3076
724.6227, 159.2201
725.1049, 158.7607
725.5870, 158.3115
726.0691, 157.8180
726.5512, 157.4285
727.0333, 157.2270
727.5154, 157.1294
727.9976, 157.0353
728.4797, 156.9396
728.9618, 156.9849
729.4439, 157.4381
729.9260, 157.8791
730.4081, 158.0484
730.8903, 157.8864
731.3724, 157.1671
731.8545, 155.8565
732.3366, 154.4230
732.8187, 153.3554
733.3008, 152.6253
733.7830, 151.8612
734.2651, 151.0410
734.7472, 150.2367
735.2293, 149.4775
735.7114, 148.7299
736.1935, 147.9834
736.6757, 147.2334
737.1578, 146.4388
737.6399, 145.3875
738.1220, 144.5494
738.6041, 144.5922
739.0862, 144.9122
739.5684, 144.2846
740.0505, 142.7150
740.5326, 141.5495
741.0147, 141.8413
741.4968, 143.0188
741.9789, 143.2463
742.4611, 142.1337
742.9432, 141.5251
743.4253, 141.9095
743.9074, 142.4314
744.3895, 142.4458
744.8716, 142.2930
745.3538, 142.6203
745.8359, 143.6002
746.3180, 144.8244
746.8001, 146.4021
747.2822, 147.9152
747.7643, 148.9669
748.2465, 149.5577
748.7286, 149.7880
749.2107, 149.7012
749.6928, 149.4670
750.1749, 149.4237
750.6570, 149.6059
751.1392, 149.1638
751.6213, 147.8310
752.1034, 146.4896
752.5855, 145.7407
753.0676, 144.9722
753.5497, 143.3323
754.0319, 140.7833
754.5140, 138.4451
754.9961, 136.6021
755.4782, 135.0244
755.9603, 133.7913
756.4424, 132.6555
756.9246, 131.2027
757.4067, 129.3747
757.8888, 127.4549
758.3709, 125.5827
758.8530, 123.8894
759.3351, 122.9424
759.8173, 122.8514
760.2994, 122.5744
760.7815, 121.8245
761.2636, 120.9705
761.7457, 120.3151
762.2278, 119.8248
762.7100, 119.3165
763.1921, 118.8275
763.6742, 118.2620
764.1563, 117.3964
764.6384, 116.6148
765.1205, 116.3657
765.6027, 116.4682
766.0848, 116.4193
766.5669, 115.9897
767.0490, 115.2669
767.5311, 114.1240
768.0132, 112.7253
768.4954, 112.1155
768.9775, 112.4517
769.4596, 112.7405
769.9417, 112.4788
770.4238, 111.9368
770.9059, 111.5693
771.3881, 111.4074
771.8702, 111.3148
772.3523, 111.6044
772.8344, 111.5900
773.3165, 110.6739
773.7986, 109.5439
774.2808, 108.9811
774.7629, 109.0722
775.2450, 109.3527
775.7271, 109.6040
776.2092, 109.7828
776.6913, 109.8740
777.1735, 109.8447
777.6556, 109.5158
778.1377, 108.8376
778.6198, 108.0089
779.1019, 107.1370
779.5840, 106.3035
780.0662, 105.9805
780.5483, 106.6756
781.0304, 106.9135
781.5125, 106.1351
781.9946, 105.3651
782.4767, 105.1658
782.9589, 105.3134
783.4410, 105.3154
783.9231, 104.9950
784.4052, 104.8179
784.8873, 105.4083
785.3694, 106.0660
785.8516, 105.6559
786.3337, 104.4982
786.8158, 103.9059
787.2979, 104.3984
787.7800, 105.2707
788.2621, 105.6139
788.7443, 105.4425
789.2264, 105.2866
789.7085, 105.1893
790.1906, 104.9802
790.6727, 104.5066
791.1548, 103.9975
791.6370, 103.6153
792.1191, 103.3725
792.6012, 103.3996
793.0833, 104.0559
793.5654, 104.5601
794.0475, 104.5272
794.5297, 104.2606
795.0118, 104.0197
795.4939, 103.8473
795.9760, 103.7448
796.4581, 103.7313
796.9402, 103.6642
797.4224, 103.1968
797.9045, 102.4309
798.3866, 102.1479
798.8687, 102.4722
799.3508, 102.6790
799.8329, 102.2613
800.3151, 101.7390
800.7972, 102.2121
801.2793, 104.2368
801.7614, 105.0456
802.2435, 103.7238
802.7256, 102.4332
803.2078, 101.5736
803.6899, 101.1996
804.1720, 101.6154
804.6541, 102.6593
805.1362, 103.3283
805.6183, 102.8062
806.1005, 101.9978
806.5826, 101.8447
807.0647, 102.1253
807.5468, 102.3402
808.0289, 102.4105
808.5110, 102.5617
808.9932, 102.9887
809.4753, 103.4896
809.9574, 103.4535
810.4395, 102.6859
810.9216, 102.2742
811.4037, 102.4508
811.8859, 102.6885
812.3680, 102.6932
812.8501, 102.6167
813.3322, 102.6836
813.8143, 102.9209
814.2964, 103.1684
814.7786, 103.4542
815.2607, 103.6725
815.7428, 103.7542
816.2249, 103.7323
816.7070, 103.6039
817.1891, 103.4044
817.6713, 103.2955
818.1534, 103.4641
818.6355, 103.7011
819.1176, 103.5033
819.5997, 102.9472
820.0818, 102.6953
820.5640, 102.8984
821.0461, 103.0579
821.5282, 102.7407
822.0103, 102.2160
822.4924, 102.3636
822.9745, 103.8858
823.4567, 104.5094
823.9388, 103.3085
824.4209, 102.2798
824.9030, 102.2894
825.3851, 102.7893
825.8672, 103.1169
826.3494, 103.1706
826.8315, 103.0615
827.3136, 102.5228
827.7957, 102.1464
828.2778, 102.7541
828.7599, 103.7805
829.2421, 104.0763
829.7242, 103.5132
830.2063, 102.9263
830.6884, 102.9582
831.1705, 103.3781
831.6526, 103.5930
832.1348, 103.5896
832.6169, 103.7703
833.0990, 104.2415
833.5811, 104.7183
834.0632, 105.1327
834.5453, 105.3675
835.0275, 105.0962
835.5096, 104.0026
835.9917, 103.3572
836.4738, 103.5370
836.9559, 103.7255
837.4380, 103.6120
837.9202, 103.3554
838.4023, 103.1088
838.8844, 102.9122
839.3665, 102.7964
839.8486, 102.7593
840.3307, 102.8350
840.8129, 103.2004
841.2950, 103.6605
841.7771, 103.7610
842.2592, 103.4865
842.7413, 103.2301
843.2234, 103.2512
843.7056, 103.3661
844.1877, 103.1289
844.6698, 102.4857
845.1519, 102.1999
845.6340, 102.3931
846.1161, 102.6804
846.5983, 103.0461
847.0804, 103.2864
847.5625, 103.0249
848.0446, 102.2202
848.5267, 101.6191
849.0089, 101.4456
849.4910, 101.2283
849.9731, 100.7402
850.4552, 100.2247
850.9373, 99.83601
851.4194, 99.62333
851.9016, 99.67432
852.3837, 100.0947
852.8658, 100.5415
853.3479, 100.7516
853.8300, 100.7555
854.3121, 100.4996
854.7943, 100.0631
855.2764, 99.82194
855.7585, 99.94187
856.2406, 100.1189
856.7227, 99.93638
857.2048, 99.42699
857.6870, 99.00991
858.1691, 98.70827
858.6512, 98.42731
859.1333, 98.20981
859.6154, 97.89393
860.0975, 97.19721
860.5797, 96.24892
861.0618, 95.77542
861.5439, 96.33279
862.0260, 96.42664
862.5081, 95.26901
862.9902, 94.24361
863.4724, 94.37962
863.9545, 95.12987
864.4366, 95.58927
864.9187, 95.53255
865.4008, 95.19146
865.8829, 94.47813
866.3651, 93.75622
866.8472, 93.47533
867.3293, 93.51237
867.8114, 93.60793
868.2935, 93.68056
868.7756, 93.62718
869.2578, 93.34463
869.7399, 92.96348
870.2220, 92.83492
870.7041, 92.97308
871.1862, 92.88342
871.6683, 92.19902
872.1505, 92.67144
872.6326, 96.11884
873.1147, 100.1782
873.5968, 100.6500
874.0789, 96.69727
874.5610, 93.65240
875.0432, 91.60478
875.5253, 90.32357
876.0074, 90.32771
876.4895, 90.62669
876.9716, 90.37207
877.4537, 89.64763
877.9359, 89.04215
878.4180, 88.81155
878.9001, 88.58289
879.3822, 87.93194
879.8643, 87.30103
880.3464, 87.30840
880.8286, 87.77201
881.3107, 88.09763
881.7928, 88.07293
882.2749, 87.95396
882.7570, 88.05639
883.2391, 88.26128
883.7213, 88.10387
884.2034, 87.61699
884.6855, 87.38310
885.1676, 87.55683
885.6497, 87.89082
886.1318, 88.26330
886.6140, 88.56682
887.0961, 88.38356
887.5782, 87.37028
888.0603, 86.76070
888.5424, 86.82674
889.0245, 86.93075
889.5067, 86.86320
889.9888, 86.67097
890.4709, 86.36296
890.9530, 85.94217
891.4351, 85.60180
891.9172, 85.15171
892.3994, 85.07297
892.8815, 85.99515
893.3636, 87.05147
893.8457, 87.40327
894.3278, 87.10712
894.8099, 86.52854
895.2921, 85.76356
895.7742, 85.26411
896.2563, 85.72862
896.7384, 86.60381
897.2205, 86.94561
897.7026, 86.80420
898.1848, 86.52406
898.6669, 86.22118
899.1490, 85.90948
899.6311, 85.55930
900.1132, 85.26444
900.5953, 85.46638
901.0775, 86.22419
901.5596, 86.81965
902.0417, 87.18834
902.5238, 87.23738
903.0059, 86.74719
903.4880, 86.06886
903.9702, 85.96168
904.4523, 86.62582
904.9344, 87.05387
905.4165, 87.12501
905.8986, 87.11520
906.3807, 86.91592
906.8629, 86.79424
907.3450, 87.23917
907.8271, 88.00768
908.3092, 88.02080
908.7913, 86.35839
909.2734, 85.24679
909.7556, 86.25855
910.2377, 87.74230
910.7198, 88.32994
911.2019, 88.20022
911.6840, 87.78658
912.1661, 87.28918
912.6483, 87.14122
913.1304, 87.92785
913.6125, 89.08395
914.0946, 89.80776
914.5767, 90.11118
915.0588, 89.86536
915.5410, 89.12100
916.0231, 88.53966
916.5052, 88.54787
916.9873, 88.90157
917.4694, 89.13517
917.9515, 89.24218
918.4337, 89.41251
918.9158, 89.64396
919.3979, 89.99742
919.8800, 90.63103
920.3621, 91.10020
920.8442, 90.79585
921.3264, 89.83484
921.8085, 89.47208
922.2906, 90.16647
922.7727, 90.71093
923.2548, 91.05869
923.7369, 91.24818
924.2191, 91.17036
924.7012, 91.00127
925.1833, 91.06475
925.6654, 91.41467
926.1475, 91.53249
926.6296, 90.76340
927.1118, 90.31583
927.5939, 91.11033
928.0760, 92.32648
928.5581, 93.11760
929.0402, 93.45643
929.5223, 93.68046
930.0045, 93.93539
930.4866, 94.14080
930.9687, 94.17940
931.4508, 94.14931
931.9329, 94.18992
932.4150, 94.29940
932.8972, 94.45596
933.3793, 94.64867
933.8614, 94.85072
934.3435, 95.03885
934.8256, 95.21795
935.3077, 95.36608
935.7899, 95.49437
936.2720, 95.84395
936.7541, 96.47280
937.2362, 96.87007
937.7183, 96.71143
938.2004, 96.42590
938.6826, 96.69325
939.1647, 97.53133
939.6468, 98.10892
940.1289, 98.28963
940.6110, 98.54128
941.0931, 98.98344
941.5753, 99.47320
942.0574, 99.97850
942.5395, 100.4440
943.0216, 100.7324
943.5037, 100.8239
943.9858, 100.7975
944.4680, 100.4139
944.9501, 100.2132
945.4322, 100.5194
945.9143, 101.0193
946.3964, 101.3627
946.8785, 101.5769
947.3607, 101.9609
947.8428, 102.7374
948.3249, 103.4382
948.8070, 103.7123
949.2891, 103.8779
949.7712, 104.1571
950.2534, 104.5863
950.7355, 105.2637
951.2176, 106.1642
951.6997, 106.9320
952.1818, 107.2240
952.6639, 107.3288
953.1461, 107.6712
953.6282, 108.1224
954.1103, 108.2737
954.5924, 108.1675
955.0745, 108.3836
955.5566, 109.2196
956.0388, 110.1240
956.5209, 110.2331
957.0030, 109.7684
957.4851, 109.8786
957.9672, 110.5629
958.4493, 111.4676
958.9315, 112.5811
959.4136, 113.3239
959.8957, 113.1488
960.3778, 112.5523
960.8599, 112.8923
961.3420, 114.4278
961.8242, 115.5881
962.3063, 116.3801
962.7884, 116.7227
963.2705, 116.2498
963.7526, 115.7621
964.2347, 116.1971
964.7169, 117.3855
965.1990, 118.0872
965.6811, 117.5872
966.1632, 117.6992
966.6453, 119.1415
967.1274, 120.3738
967.6096, 120.5793
968.0917, 120.3164
968.5738, 120.2392
969.0559, 120.4039
969.5380, 120.6962
970.0201, 121.1615
970.5023, 121.6548
970.9844, 122.2642
971.4665, 122.7572
971.9486, 122.7113
972.4307, 122.4790
972.9128, 122.8468
973.3950, 124.0058
973.8771, 125.1299
974.3592, 125.7887
974.8413, 126.1539
975.3234, 126.2743
975.8055, 126.2589
976.2877, 126.2114
976.7698, 126.1831
977.2519, 126.2069
977.7340, 126.2907
978.2161, 126.6443
978.6982, 127.8416
979.1804, 129.2796
979.6625, 129.5297
980.1446, 128.9879
980.6267, 129.1603
981.1088, 130.2979
981.5909, 131.4792
982.0731, 132.0735
982.5552, 132.3462
983.0373, 132.8197
983.5194, 133.4333
984.0015, 133.6848
984.4836, 133.5629
984.9658, 133.6018
985.4479, 134.0007
985.9300, 134.2713
986.4121, 133.8701
986.8942, 133.1271
987.3763, 133.3129
987.8585, 134.5931
988.3406, 135.7433
988.8227, 136.7121
989.3048, 137.5262
989.7869, 138.1990
990.2690, 138.6960
990.7512, 138.9372
991.2333, 138.9464
991.7154, 139.0088
992.1975, 139.0537
992.6796, 139.3050
993.1617, 139.8245
993.6439, 140.4873
994.1260, 141.3864
994.6081, 142.3133
995.0902, 142.9603
995.5723, 143.3197
996.0544, 143.6549
996.5366, 143.9971
997.0187, 144.2889
997.5008, 144.1943
997.9829, 144.3809
998.4650, 145.7063
998.9471, 147.4099
999.4293, 147.9571
999.9114, 147.0705
1000.393, 146.8813
1000.876, 148.7291
1001.358, 150.4249
1001.840, 150.9044
1002.322, 150.9577
1002.804, 151.2033
1003.286, 151.6450
1003.768, 152.1488
1004.250, 152.6852
1004.733, 153.1134
1005.215, 153.2045
1005.697, 153.3221
1006.179, 153.8117
1006.661, 154.4428
1007.143, 154.8929
1007.625, 155.1848
1008.107, 155.4939
1008.589, 155.8747
1009.072, 156.5184
1009.554, 157.6220
1010.036, 159.0373
1010.518, 160.9702
1011.000, 162.9405
1011.482, 164.0139
1011.964, 164.1206
1012.446, 163.6526
1012.929, 162.7325
1013.411, 162.1933
1013.893, 163.4504
1014.375, 165.5987
1014.857, 166.7283
1015.339, 167.0892
1015.821, 167.7868
1016.303, 169.0328
1016.785, 170.2902
1017.268, 171.1998
1017.750, 171.8923
1018.232, 172.4949
1018.714, 173.0755
1019.196, 173.9637
1019.678, 175.1346
1020.160, 176.3945
1020.642, 177.6904
1021.125, 178.6055
1021.607, 178.7237
1022.089, 178.5667
1022.571, 179.4935
1023.053, 181.4280
1023.535, 182.7092
1024.017, 183.2556
1024.499, 183.6713
1024.981, 184.0908
1025.464, 184.9119
1025.946, 186.6249
1026.428, 188.7767
1026.910, 189.7582
1027.392, 189.3635
1027.874, 189.8724
1028.356, 191.5534
1028.838, 193.2192
1029.321, 194.5030
1029.803, 195.4881
1030.285, 196.1872
1030.767, 196.7161
1031.249, 197.5991
1031.731, 198.9023
1032.213, 200.3719
1032.695, 202.2163
1033.177, 203.6455
1033.660, 204.1932
1034.142, 204.4829
1034.624, 205.0998
1035.106, 206.0352
1035.588, 207.2351
1036.070, 208.9412
1036.552, 210.3211
1037.034, 211.1941
1037.516, 212.0173
1037.999, 212.8176
1038.481, 213.7851
1038.963, 215.2098
1039.445, 217.0172
1039.927, 218.6345
1040.409, 220.2240
1040.891, 221.3308
1041.373, 221.2432
1041.855, 221.5776
1042.338, 223.2488
1042.820, 225.3827
1043.302, 227.0742
1043.784, 228.3942
1044.266, 229.9733
1044.748, 232.3606
1045.230, 234.1036
1045.712, 234.6171
1046.195, 235.0815
1046.677, 235.6530
1047.159, 236.6335
1047.641, 238.6336
1048.123, 241.4424
1048.605, 243.6427
1049.087, 244.6938
1049.569, 245.8594
1050.052, 247.3418
1050.534, 248.9360
1051.016, 250.8199
1051.498, 252.5744
1051.980, 253.4147
1052.462, 253.5881
1052.944, 254.6810
1053.426, 257.3788
1053.908, 260.1861
1054.391, 263.1145
1054.873, 265.6610
1055.355, 267.3730
1055.837, 268.7135
1056.319, 270.2297
1056.801, 271.9053
1057.283, 273.3560
1057.765, 274.1921
1058.248, 275.4996
1058.730, 277.5833
1059.212, 280.2465
1059.694, 283.9130
1060.176, 287.7296
1060.658, 290.6070
1061.140, 292.7105
1061.622, 295.1319
1062.104, 298.1217
1062.587, 301.5418
1063.069, 305.5961
1063.551, 309.7560
1064.033, 313.6743
1064.515, 317.5580
1064.997, 321.3951
1065.479, 325.4257
1065.961, 330.4333
1066.443, 336.7914
1066.926, 343.5467
1067.408, 350.3474
1067.890, 357.3769
1068.372, 364.3280
1068.854, 371.9056
1069.336, 380.7811
1069.818, 391.0084
1070.300, 402.5029
1070.782, 415.3073
1071.265, 429.3477
1071.747, 445.3096
1072.229, 461.7813
1072.711, 479.5057
1073.193, 496.1185
1073.675, 509.1170
1074.157, 518.5504
1074.639, 524.9238
1075.122, 527.9147
1075.604, 531.6005
1076.086, 537.5310
1076.568, 545.0735
1077.050, 554.2754
1077.532, 564.5716
1078.014, 577.7987
1078.496, 591.1125
1078.979, 598.8190
1079.461, 599.6163
1079.943, 592.4028
1080.425, 573.4160
1080.907, 550.2696
1081.389, 524.2377
1081.871, 498.6353
1082.353, 475.4403
1082.835, 455.4561
1083.318, 439.8581
1083.800, 428.9004
1084.282, 420.9632
1084.764, 415.6048
1085.246, 412.7923
1085.728, 413.7718
1086.210, 416.1200
1086.692, 417.7133
1087.175, 419.1331
1087.657, 421.7951
1088.139, 425.9020
1088.621, 430.3295
1089.103, 434.8582
1089.585, 439.2981
1090.067, 443.3578
1090.549, 447.5089
1091.031, 451.6797
1091.514, 456.3878
1091.996, 462.0834
1092.478, 468.9684
1092.960, 477.6986
1093.442, 489.0980
1093.924, 501.2012
1094.406, 513.3834
1094.888, 526.0605
1095.370, 540.6174
1095.853, 555.1458
1096.335, 567.4473
1096.817, 577.4075
1097.299, 585.8873
1097.781, 593.8615
1098.263, 598.4715
1098.745, 597.7525
1099.227, 594.7079
1099.709, 589.8550
1100.192, 584.2834
1100.674, 578.9437
1101.156, 573.8400
1101.638, 568.6019
1102.120, 562.9628
1102.602, 557.9028
1103.084, 553.0629
1103.566, 549.5670
1104.049, 548.1827
1104.531, 548.0033
1105.013, 548.5187
1105.495, 549.5420
1105.977, 550.6063
1106.459, 551.4522
1106.941, 553.7634
1107.423, 559.6450
1107.906, 564.4850
1108.388, 565.7410
1108.870, 566.9174
1109.352, 570.5721
1109.834, 575.5994
1110.316, 579.9639
1110.798, 583.5509
1111.280, 587.2751
1111.762, 591.6325
1112.245, 595.5284
1112.727, 597.7302
1113.209, 600.7336
1113.691, 606.5660
1114.173, 613.3342
1114.655, 618.3430
1115.137, 621.7807
1115.619, 626.6828
1116.102, 634.6162
1116.584, 641.1776
1117.066, 645.1789
1117.548, 649.4754
1118.030, 655.3879
1118.512, 661.6443
1118.994, 666.9099
1119.476, 671.5576
1119.958, 677.0876
1120.441, 683.5802
1120.923, 690.8015
1121.405, 699.3417
1121.887, 707.2428
1122.369, 713.8102
1122.851, 719.8508
1123.333, 725.6349
1123.815, 731.6500
1124.297, 739.1686
1124.780, 748.3622
1125.262, 756.5766
1125.744, 763.6415
1126.226, 770.0443
1126.708, 775.4509
1127.190, 781.6000
1127.672, 789.4974
1128.154, 798.5961
1128.636, 808.4036
1129.119, 818.6492
1129.601, 826.4770
1130.083, 831.5537
1130.565, 838.4969
1131.047, 847.9091
1131.529, 857.6124
1132.011, 866.7267
1132.493, 875.5463
1132.976, 884.3439
1133.458, 893.1103
1133.940, 901.6691
1134.422, 910.1162
1134.904, 919.7496
1135.386, 930.5373
1135.868, 941.0215
1136.350, 950.8026
1136.833, 959.8950
1137.315, 968.2495
1137.797, 976.6523
1138.279, 986.4189
1138.761, 997.3098
1139.243, 1008.861
1139.725, 1020.748
1140.207, 1031.228
1140.689, 1040.362
1141.172, 1050.434
1141.654, 1062.549
1142.136, 1075.044
1142.618, 1086.124
1143.100, 1096.385
1143.582, 1106.315
1144.064, 1116.379
1144.546, 1127.331
1145.029, 1139.396
1145.511, 1153.313
1145.993, 1169.060
1146.475, 1184.599
1146.957, 1198.813
1147.439, 1211.611
1147.921, 1221.632
1148.403, 1231.266
1148.885, 1242.970
1149.368, 1256.512
1149.850, 1271.797
1150.332, 1288.136
1150.814, 1303.783
1151.296, 1317.804
1151.778, 1331.691
1152.260, 1345.860
1152.742, 1360.618
1153.224, 1376.084
1153.707, 1392.510
1154.189, 1411.085
1154.671, 1430.617
1155.153, 1448.026
1155.635, 1462.726
1156.117, 1478.871
1156.599, 1499.459
1157.081, 1519.289
1157.563, 1534.938
1158.046, 1551.316
1158.528, 1572.605
1159.010, 1595.620
1159.492, 1615.561
1159.974, 1632.722
1160.456, 1652.659
1160.938, 1677.913
1161.420, 1701.814
1161.903, 1722.950
1162.385, 1744.244
1162.867, 1766.245
1163.349, 1788.960
1163.831, 1812.338
1164.313, 1836.520
1164.795, 1861.764
1165.277, 1888.406
1165.760, 1913.838
1166.242, 1937.308
1166.724, 1962.015
1167.206, 1988.363
1167.688, 2016.026
1168.170, 2045.143
1168.652, 2074.254
1169.134, 2101.088
1169.616, 2126.417
1170.099, 2153.834
1170.581, 2183.419
1171.063, 2212.069
1171.545, 2239.676
1172.027, 2269.409
1172.509, 2302.489
1172.991, 2337.829
1173.473, 2375.116
1173.956, 2411.653
1174.438, 2441.286
1174.920, 2466.783
1175.402, 2496.978
1175.884, 2530.775
1176.366, 2564.041
1176.848, 2596.345
1177.330, 2628.624
1177.813, 2661.396
1178.295, 2694.824
1178.777, 2729.240
1179.259, 2764.846
1179.741, 2802.984
1180.223, 2841.614
1180.705, 2877.304
1181.187, 2911.041
1181.669, 2944.272
1182.151, 2977.588
1182.634, 3011.865
1183.116, 3047.179
1183.598, 3084.098
1184.080, 3124.828
1184.562, 3164.860
1185.044, 3199.818
1185.526, 3233.586
1186.008, 3270.770
1186.490, 3310.196
1186.973, 3348.745
1187.455, 3385.801
1187.937, 3421.183
1188.419, 3453.200
1188.901, 3486.261
1189.383, 3522.192
1189.865, 3558.440
1190.347, 3593.441
1190.830, 3628.170
1191.312, 3664.581
1191.794, 3701.655
1192.276, 3734.359
1192.758, 3761.061
1193.240, 3789.215
1193.722, 3819.081
1194.204, 3849.686
1194.687, 3881.370
1195.169, 3911.934
1195.651, 3940.072
1196.133, 3966.440
1196.615, 3991.813
1197.097, 4016.551
1197.579, 4044.396
1198.061, 4075.116
1198.543, 4100.854
1199.026, 4121.171
1199.508, 4139.887
1199.990, 4158.291
1200.472, 4177.670
1200.954, 4199.111
1201.436, 4220.764
1201.918, 4240.649
1202.400, 4258.385
1202.883, 4271.384
1203.365, 4282.157
1203.847, 4297.780
1204.329, 4317.082
1204.811, 4333.179
1205.293, 4343.394
1205.775, 4348.347
1206.257, 4343.859
1206.740, 4340.694
1207.222, 4349.719
1207.704, 4360.631
1208.186, 4362.958
1208.668, 4361.559
1209.150, 4365.444
1209.632, 4373.930
1210.114, 4378.251
1210.596, 4374.760
1211.078, 4372.740
1211.561, 4374.595
1212.043, 4377.334
1212.525, 4380.497
1213.007, 4383.789
1213.489, 4388.782
1213.971, 4392.438
1214.453, 4389.068
1214.935, 4379.182
1215.417, 4372.799
1215.900, 4370.887
1216.382, 4368.475
1216.864, 4364.759
1217.346, 4363.556
1217.828, 4366.786
1218.310, 4368.654
1218.792, 4364.277
1219.274, 4357.773
1219.757, 4357.329
1220.239, 4361.353
1220.721, 4361.258
1221.203, 4358.333
1221.685, 4359.467
1222.167, 4364.690
1222.649, 4368.577
1223.131, 4369.462
1223.614, 4371.107
1224.096, 4376.066
1224.578, 4383.884
1225.060, 4394.713
1225.542, 4407.507
1226.024, 4424.333
1226.506, 4440.123
1226.988, 4445.421
1227.470, 4442.744
1227.953, 4441.736
1228.435, 4444.993
1228.917, 4450.928
1229.399, 4460.058
1229.881, 4470.064
1230.363, 4479.998
1230.845, 4490.893
1231.327, 4502.970
1231.810, 4516.616
1232.292, 4533.442
1232.774, 4552.269
1233.256, 4568.192
1233.738, 4580.247
1234.220, 4593.451
1234.702, 4607.693
1235.184, 4623.457
1235.667, 4641.321
1236.149, 4658.390
1236.631, 4672.686
1237.113, 4687.641
1237.595, 4708.075
1238.077, 4731.276
1238.559, 4748.493
1239.041, 4761.299
1239.523, 4778.174
1240.005, 4798.731
1240.488, 4818.236
1240.970, 4835.976
1241.452, 4854.208
1241.934, 4874.196
1242.416, 4895.362
1242.898, 4917.255
1243.380, 4940.000
1243.862, 4965.381
1244.344, 4990.355
1244.827, 5010.368
1245.309, 5028.218
1245.791, 5048.955
1246.273, 5072.792
1246.755, 5097.068
1247.237, 5122.268
1247.719, 5143.894
1248.201, 5156.364
1248.684, 5171.719
1249.166, 5196.525
1249.648, 5221.649
1250.130, 5241.978
1250.612, 5259.519
1251.094, 5276.075
1251.576, 5292.463
1252.058, 5315.084
1252.541, 5346.114
1253.023, 5366.328
1253.505, 5374.299
1253.987, 5383.273
1254.469, 5396.316
1254.951, 5412.875
1255.433, 5432.766
1255.915, 5453.686
1256.397, 5474.003
1256.880, 5491.858
1257.362, 5500.928
1257.844, 5506.178
1258.326, 5518.011
1258.808, 5534.369
1259.290, 5549.638
1259.772, 5562.210
1260.254, 5571.274
1260.737, 5575.878
1261.219, 5581.852
1261.701, 5596.995
1262.183, 5607.945
1262.665, 5603.100
1263.147, 5597.191
1263.629, 5601.642
1264.111, 5611.250
1264.594, 5619.585
1265.076, 5625.913
1265.558, 5627.727
1266.040, 5623.598
1266.522, 5619.966
1267.004, 5617.037
1267.486, 5614.018
1267.968, 5611.145
1268.450, 5605.825
1268.932, 5596.362
1269.415, 5586.724
1269.897, 5582.054
1270.379, 5578.634
1270.861, 5566.083
1271.343, 5547.729
1271.825, 5532.658
1272.307, 5521.062
1272.789, 5513.957
1273.271, 5509.597
1273.754, 5501.364
1274.236, 5486.766
1274.718, 5470.654
1275.200, 5455.104
1275.682, 5440.911
1276.164, 5429.560
1276.646, 5418.562
1277.128, 5407.466
1277.611, 5394.791
1278.093, 5378.376
1278.575, 5359.161
1279.057, 5340.128
1279.539, 5321.173
1280.021, 5306.785
1280.503, 5298.278
1280.985, 5287.353
1281.468, 5273.983
1281.950, 5261.828
1282.432, 5252.432
1282.914, 5242.322
1283.396, 5228.393
1283.878, 5213.125
1284.360, 5200.591
1284.842, 5187.938
1285.324, 5168.154
##END=



