##NAMES=Thortveitite
##RRUFFID=R060360
##IDEAL CHEMISTRY=Sc^3+^_2_Si_2_O_7_
##LOCALITY=Rossa, near Evje, southern Norway
##OWNER=RRUFF
##SOURCE=Michael Scott
##DESCRIPTION=Gray transparent prismatic crystal
##STATUS=The identification of this mineral is confirmed by single-crystal X-ray diffraction and chemical analysis.
##URL=rruff.info/R060360
##MEASURED CHEMISTRY=(Sc_1.44_Y_0.30_Zr_0.07_Fe^3+^_0.08_Mn_0.06_Yb_0.05_)_Σ=2_(Si_1.99_Al_0.01_)_Σ=2_O_7_
91.53320, 1443.281
92.01532, 1430.452
92.49744, 1422.219
92.97955, 1443.141
93.46167, 1469.644
93.94379, 1477.973
94.42590, 1474.603
94.90802, 1466.479
95.39014, 1458.081
95.87225, 1450.349
96.35437, 1439.510
96.83649, 1424.739
97.31860, 1407.899
97.80072, 1390.261
98.28284, 1370.499
98.76495, 1348.084
99.24707, 1327.364
99.72919, 1308.675
100.2113, 1291.775
100.6934, 1276.627
101.1755, 1262.809
101.6577, 1249.878
102.1398, 1237.198
102.6219, 1224.460
103.1040, 1213.475
103.5861, 1204.352
104.0682, 1196.043
104.5504, 1188.220
105.0325, 1180.705
105.5146, 1173.014
105.9967, 1164.283
106.4788, 1153.681
106.9609, 1143.856
107.4431, 1135.342
107.9252, 1127.464
108.4073, 1119.114
108.8894, 1109.602
109.3715, 1100.167
109.8536, 1093.334
110.3358, 1089.523
110.8179, 1085.547
111.3000, 1079.195
111.7821, 1070.755
112.2642, 1063.051
112.7463, 1057.193
113.2285, 1052.668
113.7106, 1049.201
114.1927, 1047.068
114.6748, 1045.150
115.1569, 1041.719
115.6390, 1035.942
116.1212, 1030.685
116.6033, 1026.773
117.0854, 1023.677
117.5675, 1020.907
118.0496, 1018.198
118.5317, 1015.626
119.0139, 1013.628
119.4960, 1012.761
119.9781, 1011.922
120.4602, 1010.630
120.9423, 1009.215
121.4244, 1008.282
121.9066, 1008.315
122.3887, 1009.376
122.8708, 1010.589
123.3529, 1012.099
123.8350, 1013.598
124.3171, 1014.728
124.7993, 1015.579
125.2814, 1016.699
125.7635, 1018.659
126.2456, 1021.659
126.7277, 1024.905
127.2098, 1028.366
127.6920, 1032.067
128.1741, 1036.032
128.6562, 1040.228
129.1383, 1044.752
129.6204, 1049.943
130.1025, 1055.723
130.5847, 1061.363
131.0668, 1066.297
131.5489, 1070.796
132.0310, 1075.736
132.5131, 1081.139
132.9952, 1087.425
133.4774, 1094.992
133.9595, 1103.833
134.4416, 1113.038
134.9237, 1121.897
135.4058, 1130.451
135.8879, 1138.719
136.3701, 1145.976
136.8522, 1153.409
137.3343, 1161.421
137.8164, 1170.222
138.2985, 1180.135
138.7806, 1192.163
139.2628, 1208.508
139.7449, 1222.940
140.2270, 1233.956
140.7091, 1243.600
141.1912, 1253.456
141.6733, 1264.189
142.1555, 1275.854
142.6376, 1288.495
143.1197, 1303.410
143.6018, 1317.884
144.0839, 1331.204
144.5660, 1343.934
145.0482, 1357.021
145.5303, 1371.022
146.0124, 1385.803
146.4945, 1400.705
146.9766, 1414.884
147.4587, 1429.868
147.9409, 1446.670
148.4230, 1465.007
148.9051, 1483.547
149.3872, 1501.581
149.8693, 1519.056
150.3514, 1536.542
150.8336, 1554.274
151.3157, 1571.872
151.7978, 1588.925
152.2799, 1605.451
152.7620, 1622.021
153.2441, 1639.722
153.7263, 1657.789
154.2084, 1675.089
154.6905, 1689.897
155.1726, 1703.726
155.6547, 1720.379
156.1368, 1741.297
156.6190, 1762.404
157.1011, 1781.594
157.5832, 1799.364
158.0653, 1816.886
158.5474, 1834.901
159.0295, 1853.326
159.5117, 1871.066
159.9938, 1887.423
160.4759, 1903.860
160.9580, 1920.805
161.4401, 1938.222
161.9222, 1955.861
162.4044, 1973.596
162.8865, 1991.692
163.3686, 2008.824
163.8507, 2024.312
164.3328, 2039.603
164.8149, 2055.354
165.2971, 2071.638
165.7792, 2087.766
166.2613, 2103.196
166.7434, 2118.073
167.2255, 2131.322
167.7076, 2142.370
168.1898, 2152.530
168.6719, 2162.940
169.1540, 2173.798
169.6361, 2183.969
170.1182, 2191.620
170.6003, 2195.085
171.0825, 2200.290
171.5646, 2209.599
172.0467, 2219.955
172.5288, 2227.595
173.0109, 2231.280
173.4930, 2233.167
173.9752, 2236.850
174.4573, 2242.556
174.9394, 2247.813
175.4215, 2252.224
175.9036, 2255.680
176.3857, 2258.053
176.8679, 2259.626
177.3500, 2259.427
177.8321, 2255.773
178.3142, 2248.330
178.7963, 2241.349
179.2784, 2238.017
179.7606, 2237.812
180.2427, 2236.791
180.7248, 2234.045
181.2069, 2229.837
181.6890, 2224.184
182.1711, 2217.007
182.6533, 2209.697
183.1354, 2204.141
183.6175, 2200.791
184.0996, 2195.651
184.5817, 2186.587
185.0638, 2176.099
185.5460, 2165.348
186.0281, 2154.610
186.5102, 2143.800
186.9923, 2132.813
187.4744, 2121.652
187.9565, 2110.269
188.4387, 2098.900
188.9208, 2087.161
189.4029, 2074.679
189.8850, 2061.307
190.3671, 2047.562
190.8492, 2034.328
191.3314, 2023.161
191.8135, 2009.927
192.2956, 1993.555
192.7777, 1975.766
193.2598, 1957.638
193.7419, 1939.701
194.2241, 1922.372
194.7062, 1906.697
195.1883, 1895.042
195.6704, 1882.304
196.1525, 1868.437
196.6346, 1853.454
197.1168, 1836.935
197.5989, 1818.613
198.0810, 1799.484
198.5631, 1782.526
199.0452, 1769.039
199.5273, 1755.786
200.0095, 1743.124
200.4916, 1730.286
200.9737, 1715.752
201.4558, 1698.553
201.9379, 1679.637
202.4200, 1661.274
202.9022, 1643.505
203.3843, 1626.188
203.8664, 1608.799
204.3485, 1591.732
204.8306, 1576.502
205.3127, 1564.492
205.7949, 1553.919
206.2770, 1540.906
206.7591, 1524.488
207.2412, 1507.858
207.7233, 1493.154
208.2054, 1479.976
208.6876, 1466.162
209.1697, 1450.372
209.6518, 1433.811
210.1339, 1418.578
210.6160, 1405.296
211.0981, 1391.963
211.5803, 1376.408
212.0624, 1358.651
212.5445, 1341.995
213.0266, 1328.376
213.5087, 1316.174
213.9908, 1304.116
214.4730, 1292.185
214.9551, 1279.922
215.4372, 1266.708
215.9193, 1252.236
216.4014, 1238.440
216.8836, 1226.571
217.3657, 1215.154
217.8478, 1203.018
218.3299, 1189.927
218.8120, 1176.656
219.2941, 1164.563
219.7763, 1154.231
220.2584, 1143.151
220.7405, 1129.440
221.2226, 1115.668
221.7047, 1103.876
222.1868, 1094.557
222.6690, 1086.239
223.1511, 1076.473
223.6332, 1064.167
224.1153, 1052.795
224.5974, 1043.009
225.0795, 1033.942
225.5617, 1024.961
226.0438, 1015.903
226.5259, 1007.091
227.0080, 999.2343
227.4901, 993.6324
227.9722, 986.6115
228.4544, 977.1273
228.9365, 966.9855
229.4186, 957.6256
229.9007, 949.4695
230.3828, 941.9881
230.8649, 934.3517
231.3471, 926.2560
231.8292, 918.4440
232.3113, 910.8597
232.7934, 903.5698
233.2755, 896.6455
233.7576, 890.1221
234.2398, 883.7983
234.7219, 877.4229
235.2040, 870.6044
235.6861, 864.4795
236.1682, 859.2210
236.6503, 854.5308
237.1325, 850.4949
237.6146, 847.0890
238.0967, 843.5428
238.5788, 838.6366
239.0609, 831.6021
239.5430, 824.9343
240.0252, 818.1677
240.5073, 812.0967
240.9894, 807.9117
241.4715, 805.8657
241.9536, 804.6196
242.4357, 802.4388
242.9179, 799.1848
243.4000, 795.5618
243.8821, 791.2057
244.3642, 786.7177
244.8463, 782.8348
245.3284, 779.7069
245.8106, 776.8052
246.2927, 773.3282
246.7748, 769.2123
247.2569, 765.9631
247.7390, 764.5646
248.2211, 763.8105
248.7033, 762.2497
249.1854, 759.6240
249.6675, 756.4961
250.1496, 752.9969
250.6317, 749.2391
251.1138, 746.4606
251.5960, 745.6956
252.0781, 745.7125
252.5602, 744.9489
253.0423, 743.2291
253.5244, 740.9849
254.0065, 738.1173
254.4887, 734.9544
254.9708, 732.5010
255.4529, 731.5360
255.9350, 731.2184
256.4171, 730.2188
256.8992, 728.2797
257.3813, 726.6719
257.8635, 727.1260
258.3456, 728.4840
258.8277, 728.6720
259.3098, 725.9620
259.7919, 722.4412
260.2740, 721.4071
260.7562, 723.4075
261.2383, 725.5107
261.7204, 725.9652
262.2025, 725.5343
262.6846, 725.0334
263.1667, 724.6031
263.6489, 724.3073
264.1310, 724.3593
264.6131, 724.9009
265.0952, 725.1671
265.5773, 724.4730
266.0594, 723.4672
266.5416, 722.7741
267.0237, 722.6272
267.5058, 722.6783
267.9879, 722.3273
268.4700, 721.3926
268.9521, 720.9371
269.4343, 721.8281
269.9164, 723.1022
270.3985, 724.0781
270.8806, 724.5908
271.3627, 724.8356
271.8448, 725.0156
272.3270, 725.1192
272.8091, 725.2109
273.2912, 725.2020
273.7733, 725.2448
274.2554, 725.5206
274.7375, 726.0433
275.2197, 726.5113
275.7018, 726.2579
276.1839, 724.9778
276.6660, 724.9497
277.1481, 728.1359
277.6302, 731.5001
278.1124, 733.4711
278.5945, 733.9943
279.0766, 734.0361
279.5587, 734.4315
280.0408, 735.1881
280.5229, 736.2632
281.0051, 737.9687
281.4872, 739.7560
281.9693, 741.5637
282.4514, 743.2897
282.9335, 744.7364
283.4156, 745.8281
283.8978, 746.5755
284.3799, 746.4423
284.8620, 743.8429
285.3441, 741.9576
285.8262, 742.2241
286.3083, 744.0618
286.7905, 746.1133
287.2726, 747.4019
287.7547, 748.0267
288.2368, 748.9733
288.7189, 750.9842
289.2010, 752.3922
289.6832, 752.5356
290.1653, 751.8540
290.6474, 750.9127
291.1295, 749.9475
291.6116, 749.1178
292.0938, 749.1619
292.5759, 751.0337
293.0580, 752.4330
293.5401, 752.8195
294.0222, 752.5855
294.5043, 751.9589
294.9865, 751.0074
295.4686, 750.1841
295.9507, 750.8278
296.4328, 754.7173
296.9149, 756.8187
297.3970, 755.4385
297.8792, 752.9020
298.3613, 751.1536
298.8434, 750.7916
299.3255, 751.1771
299.8076, 751.2262
300.2897, 750.5914
300.7719, 750.4212
301.2540, 751.5316
301.7361, 752.4974
302.2182, 751.8624
302.7003, 749.6925
303.1824, 747.7535
303.6646, 748.4791
304.1467, 752.9659
304.6288, 756.1262
305.1109, 757.7794
305.5930, 758.3849
306.0751, 757.9284
306.5573, 756.5367
307.0394, 754.4067
307.5215, 751.4692
308.0036, 747.5564
308.4857, 745.1151
308.9678, 745.4310
309.4500, 746.0192
309.9321, 746.2608
310.4142, 746.2323
310.8963, 746.2104
311.3784, 746.3551
311.8605, 746.6852
312.3427, 747.3720
312.8248, 749.5145
313.3069, 750.6873
313.7890, 749.7003
314.2711, 747.7382
314.7532, 746.2232
315.2354, 745.8499
315.7175, 746.4830
316.1996, 747.9064
316.6817, 751.6183
317.1638, 753.6578
317.6459, 752.8109
318.1281, 750.7426
318.6102, 748.6885
319.0923, 747.1048
319.5744, 746.0561
320.0565, 745.7357
320.5386, 746.5276
321.0208, 747.1766
321.5029, 747.5175
321.9850, 747.8043
322.4671, 748.3148
322.9492, 749.0079
323.4313, 749.4928
323.9135, 749.1461
324.3956, 747.5901
324.8777, 747.1425
325.3598, 748.9320
325.8419, 750.7787
326.3240, 751.8912
326.8062, 752.3434
327.2883, 752.6063
327.7704, 753.0523
328.2525, 753.6600
328.7346, 754.0410
329.2167, 754.1268
329.6989, 754.0426
330.1810, 753.4686
330.6631, 752.8296
331.1452, 752.7875
331.6273, 753.7429
332.1094, 755.3795
332.5916, 756.7351
333.0737, 757.7981
333.5558, 758.5637
334.0379, 758.5005
334.5200, 758.4616
335.0021, 759.3712
335.4843, 761.5079
335.9664, 764.1806
336.4485, 766.4196
336.9306, 768.4137
337.4127, 769.3704
337.8948, 768.0609
338.3770, 766.6127
338.8591, 766.2077
339.3412, 766.9680
339.8233, 768.3582
340.3055, 770.0392
340.7876, 772.0750
341.2697, 773.6393
341.7518, 773.3392
342.2339, 773.9772
342.7160, 777.8343
343.1982, 783.5733
343.6803, 787.9374
344.1624, 788.3141
344.6445, 785.6136
345.1266, 784.2985
345.6087, 784.3473
346.0909, 786.0272
346.5730, 790.3484
347.0551, 795.7410
347.5372, 800.2626
348.0193, 803.1710
348.5014, 804.8690
348.9836, 805.9296
349.4657, 806.0807
349.9478, 806.4975
350.4299, 807.7979
350.9120, 809.2910
351.3941, 810.2462
351.8763, 810.5554
352.3584, 811.2411
352.8405, 813.8527
353.3226, 818.4864
353.8047, 821.7448
354.2868, 821.6626
354.7690, 821.6808
355.2511, 824.1373
355.7332, 828.6716
356.2153, 833.4544
356.6974, 837.6011
357.1795, 841.0958
357.6617, 843.7076
358.1438, 844.9355
358.6259, 846.2869
359.1080, 849.0510
359.5901, 852.4063
360.0722, 854.9438
360.5544, 855.6335
361.0365, 855.8965
361.5186, 857.8163
362.0007, 861.5349
362.4828, 865.8143
362.9649, 871.1935
363.4471, 876.2611
363.9292, 879.0812
364.4113, 878.9686
364.8934, 878.8317
365.3755, 881.0658
365.8576, 885.3031
366.3398, 889.6466
366.8219, 894.0446
367.3040, 897.8528
367.7861, 900.0451
368.2682, 900.8029
368.7503, 902.0482
369.2325, 905.1151
369.7146, 909.0032
370.1967, 911.8898
370.6788, 913.5034
371.1609, 914.8688
371.6430, 916.4463
372.1252, 918.3993
372.6073, 921.2279
373.0894, 926.0605
373.5715, 930.9401
374.0536, 934.2311
374.5357, 936.1044
375.0179, 937.5672
375.5000, 938.8679
375.9821, 940.2469
376.4642, 942.3920
376.9463, 945.8459
377.4284, 948.7175
377.9106, 949.2004
378.3927, 948.8771
378.8748, 950.9209
379.3569, 956.3821
379.8390, 962.6989
380.3211, 966.5862
380.8033, 967.6017
381.2854, 968.5363
381.7675, 969.3968
382.2496, 970.3638
382.7317, 971.6963
383.2138, 973.3450
383.6960, 974.8738
384.1781, 975.8841
384.6602, 976.4407
385.1423, 977.6284
385.6244, 979.7762
386.1065, 982.0415
386.5887, 984.0458
387.0708, 985.9839
387.5529, 988.3759
388.0350, 991.4857
388.5171, 994.7539
388.9992, 996.9728
389.4814, 997.7244
389.9635, 997.9118
390.4456, 997.4559
390.9277, 996.5083
391.4098, 994.7109
391.8919, 992.2977
392.3741, 990.4404
392.8562, 990.4794
393.3383, 992.7234
393.8204, 994.5531
394.3025, 996.0411
394.7846, 997.0878
395.2668, 997.8314
395.7489, 998.0905
396.2310, 997.4084
396.7131, 995.4328
397.1952, 992.6312
397.6773, 990.5767
398.1595, 989.1929
398.6416, 988.7902
399.1237, 990.5967
399.6058, 992.5475
400.0879, 992.5055
400.5700, 990.1310
401.0522, 987.3154
401.5343, 986.7551
402.0164, 989.1141
402.4985, 989.7373
402.9806, 986.6720
403.4627, 983.4677
403.9449, 981.4118
404.4270, 980.4445
404.9091, 980.2062
405.3912, 980.8213
405.8733, 981.8278
406.3554, 981.7181
406.8376, 980.1639
407.3197, 978.2850
407.8018, 976.4642
408.2839, 974.5850
408.7660, 972.3295
409.2481, 969.4447
409.7303, 967.0389
410.2124, 966.9034
410.6945, 968.8132
411.1766, 969.0430
411.6587, 965.8621
412.1408, 961.9656
412.6230, 959.9523
413.1051, 959.6014
413.5872, 959.3459
414.0693, 958.8532
414.5514, 957.9334
415.0335, 955.9580
415.5157, 952.7643
415.9978, 949.9681
416.4799, 949.0150
416.9620, 949.1945
417.4441, 948.1714
417.9262, 944.3459
418.4084, 941.3197
418.8905, 942.0055
419.3726, 945.1066
419.8547, 947.2935
420.3368, 947.4067
420.8189, 946.2560
421.3011, 944.9676
421.7832, 943.4507
422.2653, 942.2129
422.7474, 941.5560
423.2295, 941.0425
423.7116, 940.2675
424.1938, 939.2267
424.6759, 938.0780
425.1580, 936.7681
425.6401, 935.3900
426.1222, 935.7180
426.6043, 939.9994
427.0865, 943.0953
427.5686, 942.9637
428.0507, 941.1185
428.5328, 939.6327
429.0149, 939.3046
429.4970, 939.6657
429.9792, 939.8540
430.4613, 939.4254
430.9434, 939.8406
431.4255, 942.1057
431.9076, 944.1893
432.3897, 944.6776
432.8719, 943.8716
433.3540, 943.0485
433.8361, 943.1293
434.3182, 944.0839
434.8003, 945.7883
435.2824, 948.9418
435.7646, 951.7800
436.2467, 953.8807
436.7288, 955.4800
437.2109, 956.8593
437.6930, 958.1112
438.1751, 958.9783
438.6573, 958.7220
439.1394, 957.1751
439.6215, 956.9544
440.1036, 959.3778
440.5857, 962.1644
441.0678, 963.6263
441.5500, 964.1089
442.0321, 964.9950
442.5142, 967.0490
442.9963, 969.9217
443.4784, 973.2282
443.9605, 977.0765
444.4427, 980.5199
444.9248, 982.9922
445.4069, 984.7692
445.8890, 986.2902
446.3711, 987.4094
446.8532, 988.7516
447.3354, 991.1277
447.8175, 993.9205
448.2996, 995.2985
448.7817, 994.5665
449.2638, 994.2786
449.7459, 997.7233
450.2281, 1005.194
450.7102, 1010.748
451.1923, 1013.478
451.6744, 1014.844
452.1565, 1014.619
452.6386, 1013.651
453.1208, 1014.399
453.6029, 1018.336
454.0850, 1024.172
454.5671, 1028.333
455.0492, 1029.548
455.5313, 1030.706
456.0135, 1031.516
456.4956, 1032.503
456.9777, 1034.399
457.4598, 1037.098
457.9419, 1039.604
458.4240, 1040.898
458.9062, 1040.960
459.3883, 1041.462
459.8704, 1041.970
460.3525, 1043.522
460.8346, 1047.390
461.3167, 1052.042
461.7989, 1055.558
462.2810, 1057.215
462.7631, 1057.736
463.2452, 1057.960
463.7273, 1057.695
464.2094, 1058.289
464.6916, 1061.017
465.1737, 1063.581
465.6558, 1064.293
466.1379, 1063.592
466.6200, 1063.246
467.1021, 1064.395
467.5843, 1066.442
468.0664, 1068.224
468.5485, 1069.719
469.0306, 1071.209
469.5127, 1073.195
469.9948, 1075.000
470.4770, 1075.336
470.9591, 1073.616
471.4412, 1072.530
471.9233, 1074.492
472.4054, 1077.749
472.8875, 1078.614
473.3697, 1076.301
473.8518, 1073.835
474.3339, 1074.116
474.8160, 1077.150
475.2981, 1079.171
475.7802, 1080.034
476.2624, 1080.064
476.7445, 1079.254
477.2266, 1077.731
477.7087, 1075.375
478.1908, 1072.093
478.6729, 1068.923
479.1551, 1067.925
479.6372, 1070.934
480.1193, 1071.733
480.6014, 1068.017
481.0835, 1064.454
481.5656, 1064.130
482.0478, 1066.271
482.5299, 1068.186
483.0120, 1068.070
483.4941, 1066.464
483.9762, 1065.407
484.4583, 1065.227
484.9405, 1064.958
485.4226, 1064.491
485.9047, 1063.830
486.3868, 1063.187
486.8689, 1062.504
487.3510, 1061.118
487.8332, 1057.775
488.3153, 1053.081
488.7974, 1050.097
489.2795, 1049.488
489.7616, 1049.223
490.2437, 1047.821
490.7259, 1046.016
491.2080, 1045.113
491.6901, 1046.061
492.1722, 1046.517
492.6543, 1044.029
493.1364, 1039.663
493.6186, 1036.723
494.1007, 1036.245
494.5828, 1036.422
495.0649, 1035.155
495.5470, 1032.274
496.0291, 1029.717
496.5113, 1027.669
496.9934, 1025.838
497.4755, 1024.181
497.9576, 1022.600
498.4397, 1021.011
498.9218, 1019.416
499.4040, 1017.493
499.8861, 1014.415
500.3682, 1008.657
500.8503, 1004.644
501.3324, 1003.612
501.8145, 1003.039
502.2967, 1001.221
502.7788, 998.4025
503.2609, 995.9139
503.7430, 994.7495
504.2251, 994.5286
504.7072, 993.9324
505.1894, 993.3074
505.6715, 991.4653
506.1536, 986.9271
506.6357, 981.8555
507.1178, 977.8864
507.5999, 975.2298
508.0821, 973.1672
508.5642, 971.4923
509.0463, 970.0043
509.5284, 968.0671
510.0105, 965.6090
510.4926, 962.8776
510.9748, 959.8530
511.4569, 956.7194
511.9390, 953.9411
512.4211, 951.9097
512.9032, 949.5876
513.3853, 946.2847
513.8674, 942.4017
514.3495, 938.5724
514.8317, 934.9056
515.3138, 931.5258
515.7959, 928.6279
516.2780, 926.2554
516.7601, 923.4805
517.2422, 919.9564
517.7244, 916.4689
518.2065, 913.3354
518.6886, 910.3866
519.1707, 907.2543
519.6528, 903.8423
520.1349, 900.5638
520.6171, 898.2689
521.0992, 897.4479
521.5813, 895.6299
522.0634, 891.9745
522.5455, 888.1121
523.0276, 884.3042
523.5098, 880.7599
523.9919, 877.9286
524.4740, 876.1908
524.9561, 874.6761
525.4382, 871.7907
525.9203, 867.5117
526.4025, 864.0910
526.8846, 862.6880
527.3667, 861.4671
527.8488, 858.5382
528.3309, 854.1361
528.8130, 849.5876
529.2952, 844.8314
529.7773, 840.4362
530.2594, 836.9550
530.7415, 834.3116
531.2236, 832.3242
531.7057, 831.1553
532.1879, 829.8729
532.6700, 826.4875
533.1521, 819.1449
533.6342, 813.9454
534.1163, 812.8978
534.5984, 812.4273
535.0806, 810.2321
535.5627, 806.5497
536.0448, 802.7411
536.5269, 799.6771
537.0090, 797.0018
537.4911, 793.6185
537.9733, 788.9800
538.4554, 784.7687
538.9375, 781.6547
539.4196, 778.6149
539.9017, 774.6478
540.3839, 770.0317
540.8660, 766.2214
541.3481, 764.9814
541.8302, 764.7135
542.3123, 761.3397
542.7944, 754.4471
543.2766, 748.1729
543.7587, 744.2762
544.2408, 741.7751
544.7229, 739.3090
545.2050, 736.9175
545.6871, 734.2660
546.1693, 731.2629
546.6514, 727.9427
547.1335, 724.0965
547.6156, 719.8524
548.0977, 715.9081
548.5798, 712.7482
549.0620, 710.0947
549.5441, 707.0435
550.0262, 702.1724
550.5083, 698.8531
550.9904, 699.0876
551.4725, 699.3597
551.9547, 696.6649
552.4368, 691.3236
552.9189, 685.6758
553.4010, 681.3994
553.8831, 678.2791
554.3652, 675.6678
554.8474, 673.9692
555.3295, 671.7995
555.8116, 668.7272
556.2937, 665.1011
556.7758, 660.8894
557.2579, 656.2052
557.7401, 651.7831
558.2222, 647.7641
558.7043, 644.4108
559.1864, 642.7329
559.6685, 642.7715
560.1506, 641.5464
560.6328, 636.9758
561.1149, 630.8804
561.5970, 627.4515
562.0791, 627.5934
562.5612, 626.9541
563.0433, 624.6644
563.5255, 621.3456
564.0076, 616.8883
564.4897, 611.7489
564.9718, 607.2175
565.4539, 604.1408
565.9360, 602.1995
566.4182, 600.4635
566.9003, 599.7184
567.3824, 597.6255
567.8645, 592.5792
568.3466, 587.5264
568.8287, 584.5302
569.3109, 583.2849
569.7930, 582.2233
570.2751, 580.4989
570.7572, 578.1937
571.2393, 575.3661
571.7214, 571.9805
572.2036, 568.6180
572.6857, 565.4631
573.1678, 562.4471
573.6499, 559.3485
574.1320, 556.1789
574.6141, 553.4862
575.0963, 551.8123
575.5784, 550.3740
576.0605, 548.5267
576.5426, 546.3277
577.0247, 543.9827
577.5068, 541.5602
577.9890, 539.2730
578.4711, 537.6246
578.9532, 537.3715
579.4353, 535.7812
579.9174, 531.4843
580.3995, 527.3909
580.8817, 524.9792
581.3638, 523.8099
581.8459, 523.0667
582.3280, 522.4439
582.8101, 521.4143
583.2922, 518.7171
583.7744, 514.1766
584.2565, 510.7462
584.7386, 509.5999
585.2207, 508.4595
585.7029, 504.9845
586.1850, 500.2542
586.6671, 497.1711
587.1492, 497.5598
587.6313, 498.2372
588.1135, 496.6379
588.5956, 493.5873
589.0777, 491.0708
589.5598, 489.6037
590.0419, 488.3219
590.5240, 486.2452
591.0062, 483.3178
591.4883, 481.1060
591.9704, 480.1075
592.4525, 479.1302
592.9346, 478.3451
593.4167, 477.1944
593.8989, 474.7166
594.3810, 470.8922
594.8631, 467.0707
595.3452, 464.7219
595.8273, 463.7274
596.3094, 462.6985
596.7916, 461.7623
597.2737, 460.4991
597.7558, 458.5338
598.2379, 456.2272
598.7200, 453.8854
599.2021, 451.5253
599.6843, 449.2678
600.1664, 446.8629
600.6485, 444.7357
601.1306, 443.8994
601.6127, 444.2253
602.0948, 443.8523
602.5770, 441.4893
603.0591, 438.0854
603.5412, 436.2899
604.0233, 437.7054
604.5054, 438.1348
604.9875, 437.0651
605.4697, 435.4763
605.9518, 433.9329
606.4339, 432.4063
606.9160, 430.5679
607.3981, 428.1715
607.8802, 425.6698
608.3624, 424.0707
608.8445, 423.5143
609.3266, 422.8129
609.8087, 421.8215
610.2908, 420.5941
610.7729, 418.9462
611.2551, 417.0872
611.7372, 415.6666
612.2193, 415.2324
612.7014, 414.8036
613.1835, 413.9606
613.6656, 412.5628
614.1478, 409.9091
614.6299, 405.8541
615.1120, 401.9588
615.5941, 399.8255
616.0762, 399.4579
616.5583, 399.3366
617.0405, 400.2443
617.5226, 400.4067
618.0047, 398.7430
618.4868, 396.6818
618.9689, 395.9102
619.4510, 396.4806
619.9332, 396.7680
620.4153, 395.1427
620.8974, 392.2035
621.3795, 390.1918
621.8616, 389.2831
622.3438, 388.3766
622.8259, 386.9744
623.3080, 385.4709
623.7901, 384.5359
624.2722, 384.2237
624.7543, 383.4538
625.2365, 381.5958
625.7186, 379.4506
626.2007, 377.4622
626.6828, 375.7457
627.1649, 374.5346
627.6470, 373.9216
628.1292, 373.7817
628.6113, 374.0286
629.0934, 374.9541
629.5755, 375.0219
630.0576, 373.7311
630.5397, 372.0573
631.0219, 369.8070
631.5040, 367.5130
631.9861, 365.9408
632.4682, 365.3264
632.9503, 364.9851
633.4324, 364.4330
633.9146, 363.6507
634.3967, 362.3804
634.8788, 360.5095
635.3609, 359.1526
635.8430, 359.2376
636.3251, 360.1444
636.8073, 360.0471
637.2894, 358.6195
637.7715, 357.1622
638.2536, 355.8706
638.7357, 354.6150
639.2178, 353.1285
639.7000, 351.5826
640.1821, 350.5339
640.6642, 350.3164
641.1463, 350.4329
641.6284, 349.7226
642.1105, 347.9066
642.5927, 346.8189
643.0748, 347.3351
643.5569, 347.6830
644.0390, 346.5313
644.5211, 344.5788
645.0032, 343.2941
645.4854, 343.2646
645.9675, 343.3601
646.4496, 342.8312
646.9317, 341.9046
647.4138, 341.0561
647.8959, 340.3357
648.3781, 339.3016
648.8602, 337.5027
649.3423, 335.2433
649.8244, 334.0379
650.3065, 334.9171
650.7886, 335.3265
651.2708, 334.6794
651.7529, 333.9846
652.2350, 334.4515
652.7171, 335.4766
653.1992, 335.1389
653.6813, 332.0710
654.1635, 328.0374
654.6456, 325.6772
655.1277, 324.8928
655.6098, 324.5750
656.0919, 324.6774
656.5740, 324.7481
657.0562, 324.4208
657.5383, 323.7049
658.0204, 322.8451
658.5025, 321.4195
658.9846, 320.3815
659.4667, 320.2686
659.9489, 320.5274
660.4310, 320.6417
660.9131, 320.5227
661.3952, 320.2836
661.8773, 320.0055
662.3594, 319.6683
662.8416, 319.2219
663.3237, 318.6949
663.8058, 317.9450
664.2879, 316.8586
664.7700, 315.6187
665.2521, 313.9702
665.7343, 312.2333
666.2164, 311.5413
666.6985, 313.0445
667.1806, 314.5674
667.6627, 314.3503
668.1448, 313.1223
668.6270, 312.2298
669.1091, 311.9512
669.5912, 311.9333
670.0733, 311.9078
670.5554, 311.8584
671.0375, 311.6788
671.5197, 311.5298
672.0018, 310.9635
672.4839, 309.4550
672.9660, 307.9598
673.4481, 307.1842
673.9302, 307.0251
674.4124, 306.9737
674.8945, 306.9236
675.3766, 306.6283
675.8587, 305.3283
676.3408, 303.3973
676.8229, 302.8499
677.3051, 304.3274
677.7872, 305.8573
678.2693, 305.6372
678.7514, 303.8297
679.2335, 302.2927
679.7156, 300.8591
680.1978, 299.8801
680.6799, 299.5242
681.1620, 299.5489
681.6441, 300.0891
682.1262, 300.8653
682.6083, 301.0552
683.0905, 300.0475
683.5726, 298.3950
684.0547, 296.9825
684.5368, 295.8146
685.0189, 295.2141
685.5010, 295.3699
685.9832, 295.8354
686.4653, 296.4927
686.9474, 297.1817
687.4295, 297.1478
687.9116, 295.7905
688.3937, 294.5097
688.8759, 293.8244
689.3580, 293.3335
689.8401, 292.4268
690.3222, 291.2559
690.8043, 290.7844
691.2864, 291.7858
691.7686, 293.3366
692.2507, 292.9498
692.7328, 290.2142
693.2149, 288.1935
693.6970, 287.6022
694.1791, 287.3629
694.6613, 286.8304
695.1434, 286.0836
695.6255, 285.2131
696.1076, 283.8975
696.5897, 283.1460
697.0718, 283.8760
697.5540, 285.1491
698.0361, 285.9008
698.5182, 286.0453
699.0003, 285.8774
699.4824, 285.5459
699.9645, 285.1931
700.4467, 285.2891
700.9288, 286.1482
701.4109, 286.2626
701.8930, 285.0587
702.3751, 283.6843
702.8572, 282.7144
703.3394, 281.9680
703.8215, 281.0541
704.3036, 279.7645
704.7857, 278.8655
705.2678, 278.9024
705.7499, 279.5471
706.2321, 280.6723
706.7142, 282.0671
707.1963, 282.8904
707.6784, 282.6783
708.1605, 281.8399
708.6426, 281.1937
709.1248, 280.8537
709.6069, 280.2958
710.0890, 279.3062
710.5711, 278.3410
711.0532, 277.6518
711.5353, 277.0321
712.0175, 276.1151
712.4996, 274.8030
712.9817, 273.7321
713.4638, 273.5375
713.9459, 273.6685
714.4280, 273.3092
714.9102, 272.5259
715.3923, 271.7694
715.8744, 271.2101
716.3565, 270.9688
716.8386, 271.3222
717.3207, 272.4404
717.8029, 272.9051
718.2850, 272.1801
718.7671, 271.4395
719.2492, 270.9619
719.7313, 270.5850
720.2134, 270.2001
720.6956, 269.7685
721.1777, 269.1633
721.6598, 268.0704
722.1419, 266.9256
722.6240, 266.4277
723.1061, 266.4029
723.5883, 266.0574
724.0704, 265.1282
724.5525, 264.3043
725.0346, 264.4090
725.5167, 265.3995
725.9988, 265.6869
726.4810, 264.7430
726.9631, 263.8374
727.4452, 263.1719
727.9273, 262.5532
728.4094, 261.8395
728.8915, 261.0326
729.3737, 260.1928
729.8558, 259.2675
730.3379, 258.4514
730.8200, 258.1283
731.3021, 258.0670
731.7842, 257.5940
732.2664, 256.5975
732.7485, 255.3674
733.2306, 254.0250
733.7127, 252.7398
734.1948, 252.2265
734.6769, 253.1801
735.1591, 253.6414
735.6412, 253.4058
736.1233, 252.8609
736.6054, 252.1027
737.0875, 251.2004
737.5696, 250.1910
738.0518, 249.0361
738.5339, 248.0688
739.0160, 247.6849
739.4981, 247.6125
739.9802, 247.4122
740.4623, 247.0377
740.9445, 246.4424
741.4266, 245.5820
741.9087, 244.5916
742.3908, 243.7334
742.8729, 243.0806
743.3550, 242.2217
743.8372, 240.9342
744.3193, 239.7031
744.8014, 238.4397
745.2835, 237.4245
745.7656, 237.2959
746.2477, 238.0295
746.7299, 238.0847
747.2120, 235.6795
747.6941, 232.8578
748.1762, 232.3978
748.6583, 233.5521
749.1404, 233.8207
749.6226, 232.5022
750.1047, 230.8608
750.5868, 230.2564
751.0689, 230.5383
751.5510, 229.9254
752.0331, 227.5532
752.5153, 225.9597
752.9974, 226.1463
753.4795, 226.7066
753.9616, 226.9561
754.4437, 226.8499
754.9258, 226.3936
755.4080, 225.4848
755.8901, 224.4185
756.3722, 223.2685
756.8543, 222.1489
757.3364, 221.3211
757.8185, 220.7457
758.3007, 220.0265
758.7828, 218.9090
759.2649, 217.6196
759.7470, 216.7064
760.2291, 216.3128
760.7112, 215.4937
761.1934, 213.5531
761.6755, 212.2380
762.1576, 213.4237
762.6397, 215.1971
763.1218, 214.8413
763.6039, 211.8603
764.0861, 209.3591
764.5682, 208.7267
765.0503, 208.6776
765.5324, 208.4815
766.0145, 208.0474
766.4966, 207.1747
766.9788, 205.8725
767.4609, 204.6909
767.9430, 204.2904
768.4251, 204.4454
768.9072, 203.9229
769.3893, 202.5532
769.8715, 201.4098
770.3536, 200.8622
770.8357, 200.4646
771.3178, 199.8388
771.7999, 199.0121
772.2820, 198.1153
772.7642, 196.9383
773.2463, 195.9842
773.7284, 195.5876
774.2105, 195.3149
774.6926, 194.8580
775.1747, 194.1726
775.6569, 193.2223
776.1390, 191.9569
776.6211, 190.7205
777.1032, 190.1449
777.5853, 190.0637
778.0674, 189.3400
778.5496, 187.7783
779.0317, 186.6697
779.5138, 186.8073
779.9959, 187.5086
780.4780, 187.5823
780.9601, 186.8733
781.4423, 186.1297
781.9244, 185.2443
782.4065, 184.4575
782.8886, 184.2235
783.3707, 183.8948
783.8528, 182.4277
784.3350, 179.9468
784.8171, 178.0187
785.2992, 177.8073
785.7813, 178.3941
786.2634, 178.8532
786.7455, 179.1046
787.2277, 178.7402
787.7098, 177.6943
788.1919, 176.6968
788.6740, 176.3584
789.1561, 176.4652
789.6382, 176.2364
790.1204, 175.5717
790.6025, 174.8149
791.0846, 173.8600
791.5667, 172.9510
792.0488, 172.2090
792.5309, 171.5734
793.0131, 170.9322
793.4952, 170.2563
793.9773, 169.6553
794.4594, 169.1520
794.9415, 168.7707
795.4236, 168.7370
795.9058, 168.8134
796.3879, 168.4056
796.8700, 167.3602
797.3521, 166.1003
797.8342, 164.9503
798.3163, 164.0047
798.7985, 163.9398
799.2806, 164.9995
799.7627, 165.4884
800.2448, 164.8423
800.7269, 163.8194
801.2090, 162.9956
801.6912, 162.3437
802.1733, 161.6799
802.6554, 160.9524
803.1375, 160.2917
803.6196, 159.7678
804.1017, 159.2794
804.5839, 158.6800
805.0660, 158.0762
805.5481, 157.7422
806.0302, 157.7799
806.5123, 157.8725
806.9944, 157.8021
807.4766, 157.5250
807.9587, 156.7320
808.4408, 155.4947
808.9229, 154.8178
809.4050, 155.1707
809.8871, 155.5497
810.3693, 154.6272
810.8514, 152.4249
811.3335, 151.1399
811.8156, 151.4946
812.2977, 151.5573
812.7798, 150.7642
813.2620, 149.8512
813.7441, 149.2988
814.2262, 149.0245
814.7083, 148.6845
815.1904, 148.0388
815.6725, 147.6895
816.1547, 148.3190
816.6368, 149.1828
817.1189, 149.4189
817.6010, 149.0936
818.0831, 148.6593
818.5652, 148.3102
819.0474, 147.9161
819.5295, 147.2249
820.0116, 146.2991
820.4937, 145.8042
820.9758, 145.8492
821.4579, 145.6095
821.9401, 144.5965
822.4222, 143.6168
822.9043, 143.7191
823.3864, 144.8334
823.8685, 145.1188
824.3506, 143.7770
824.8328, 142.7665
825.3149, 142.9609
825.7970, 143.0684
826.2791, 141.8989
826.7612, 139.9142
827.2433, 138.2774
827.7255, 137.3861
828.2076, 137.0274
828.6897, 137.1469
829.1718, 137.6152
829.6539, 138.6355
830.1360, 139.8954
830.6182, 139.7448
831.1003, 137.5431
831.5824, 135.2747
832.0645, 135.5130
832.5466, 137.9722
833.0287, 139.0705
833.5109, 138.5043
833.9930, 137.4270
834.4751, 135.6857
834.9572, 133.9697
835.4393, 132.8014
835.9214, 132.1126
836.4036, 131.7821
836.8857, 132.1080
837.3678, 132.1732
837.8499, 131.4159
838.3320, 130.6380
838.8141, 130.4831
839.2963, 130.7244
839.7784, 130.9082
840.2605, 130.8846
840.7426, 130.7169
841.2247, 130.3849
841.7068, 129.9838
842.1890, 129.6581
842.6711, 129.4222
843.1532, 129.4435
843.6353, 129.7768
844.1174, 129.9959
844.5995, 129.6896
845.0817, 128.9939
845.5638, 128.5763
846.0459, 128.6756
846.5280, 128.3598
847.0101, 127.1202
847.4922, 126.0351
847.9744, 125.8274
848.4565, 126.0438
848.9386, 125.9627
849.4207, 125.4659
849.9028, 125.1394
850.3849, 125.4645
850.8671, 125.6574
851.3492, 125.0183
851.8313, 124.0875
852.3134, 123.7479
852.7955, 124.0091
853.2776, 123.9734
853.7598, 122.8666
854.2419, 121.5307
854.7240, 121.4349
855.2061, 122.2378
855.6882, 122.5334
856.1703, 122.1526
856.6525, 121.7298
857.1346, 121.6347
857.6167, 121.6453
858.0988, 121.3080
858.5809, 120.5256
859.0630, 120.0599
859.5452, 120.1566
860.0273, 120.1352
860.5094, 119.8316
860.9915, 119.2915
861.4736, 118.2898
861.9557, 116.9948
862.4379, 116.3928
862.9200, 117.3292
863.4021, 118.0410
863.8842, 117.7853
864.3663, 117.1634
864.8484, 116.6912
865.3306, 116.3015
865.8127, 115.5222
866.2948, 114.1850
866.7769, 113.2071
867.2590, 113.9787
867.7411, 115.5639
868.2233, 115.8714
868.7054, 115.0907
869.1875, 114.5405
869.6696, 114.6017
870.1517, 114.6531
870.6339, 114.0689
871.1160, 113.0385
871.5981, 112.4360
872.0802, 112.3751
872.5623, 112.3213
873.0444, 112.1711
873.5266, 112.1187
874.0087, 112.4487
874.4908, 112.8673
874.9729, 112.7867
875.4550, 112.0962
875.9371, 111.5446
876.4193, 111.4019
876.9014, 111.2141
877.3835, 110.8452
877.8656, 110.3022
878.3477, 109.3315
878.8298, 108.1556
879.3120, 107.6693
879.7941, 108.5857
880.2762, 109.6301
880.7583, 109.4594
881.2404, 108.6187
881.7225, 107.8422
882.2047, 107.3087
882.6868, 107.5808
883.1689, 108.8956
883.6510, 110.1167
884.1331, 109.5803
884.6152, 107.6278
885.0974, 107.0791
885.5795, 108.2077
886.0616, 108.7293
886.5437, 107.9688
887.0258, 106.8158
887.5079, 105.8268
887.9901, 105.0717
888.4722, 104.8457
888.9543, 105.6482
889.4364, 106.0281
889.9185, 105.7955
890.4006, 105.3724
890.8828, 104.7031
891.3649, 104.0633
891.8470, 103.9070
892.3291, 104.2249
892.8112, 104.2417
893.2933, 103.3814
893.7755, 102.4293
894.2576, 101.7721
894.7397, 101.3686
895.2218, 101.2406
895.7039, 101.3169
896.1860, 101.3854
896.6682, 101.3398
897.1503, 101.3544
897.6324, 101.8139
898.1145, 102.4715
898.5966, 102.5962
899.0787, 102.1943
899.5609, 101.4122
900.0430, 100.2545
900.5251, 99.28371
901.0072, 99.05930
901.4893, 99.46065
901.9714, 99.99731
902.4536, 100.8598
902.9357, 101.1055
903.4178, 100.2929
903.8999, 99.50172
904.3820, 99.34145
904.8641, 99.52898
905.3463, 99.61887
905.8284, 99.62218
906.3105, 99.46295
906.7926, 99.08967
907.2747, 98.61415
907.7568, 97.86389
908.2390, 97.19298
908.7211, 96.92429
909.2032, 97.00662
909.6853, 97.26952
910.1674, 97.77940
910.6495, 97.93903
911.1317, 96.97396
911.6138, 95.74117
912.0959, 95.08799
912.5780, 95.00706
913.0601, 95.55540
913.5422, 96.61800
914.0244, 97.32953
914.5065, 96.80290
914.9886, 95.68304
915.4707, 95.40193
915.9528, 95.81337
916.4349, 95.96887
916.9171, 95.73792
917.3992, 95.50262
917.8813, 95.47983
918.3634, 95.52828
918.8455, 95.41896
919.3276, 95.14882
919.8098, 94.72381
920.2919, 93.96346
920.7740, 93.54123
921.2561, 93.95567
921.7382, 94.31136
922.2203, 93.55489
922.7025, 92.12222
923.1846, 91.78568
923.6667, 93.47431
924.1488, 94.22211
924.6309, 92.93631
925.1130, 91.58978
925.5952, 91.06169
926.0773, 90.98573
926.5594, 90.88515
927.0415, 90.71531
927.5236, 90.71985
928.0057, 91.26638
928.4879, 91.62120
928.9700, 91.03588
929.4521, 90.18545
929.9342, 89.89872
930.4163, 90.06643
930.8984, 90.15559
931.3806, 89.96639
931.8627, 89.72154
932.3448, 89.71324
932.8269, 89.37378
933.3090, 89.43944
933.7911, 88.83403
934.2733, 88.37632
934.7554, 88.14526
935.2375, 87.94536
935.7196, 87.64199
936.2017, 87.30474
936.6838, 87.09996
937.1660, 87.03661
937.6481, 86.84519
938.1302, 86.40401
938.6123, 86.50398
939.0944, 87.80975
939.5765, 88.87251
940.0587, 87.97563
940.5408, 85.48585
941.0229, 84.13777
941.5050, 84.80002
941.9871, 85.01189
942.4692, 84.20756
942.9514, 83.50975
943.4335, 83.66829
943.9156, 84.00861
944.3977, 83.51537
944.8798, 82.15511
945.3619, 81.21678
945.8441, 81.13962
946.3262, 81.30760
946.8083, 81.71391
947.2904, 82.09290
947.7725, 82.31419
948.2546, 82.30888
948.7368, 81.89476
949.2189, 81.00470
949.7010, 80.22321
950.1831, 80.01180
950.6652, 80.01410
951.1473, 80.02391
951.6295, 79.91911
952.1116, 79.39223
952.5937, 78.50361
953.0758, 77.71544
953.5579, 77.29007
954.0400, 77.06181
954.5222, 76.79879
955.0043, 76.55142
955.4864, 76.53419
955.9685, 76.70753
956.4506, 76.78410
956.9327, 76.67680
957.4149, 76.24863
957.8970, 75.28455
958.3791, 74.10231
958.8612, 73.81538
959.3433, 74.52522
959.8254, 74.56577
960.3076, 73.62366
960.7897, 72.96112
961.2718, 73.22517
961.7539, 73.79131
962.2360, 73.88029
962.7181, 73.51153
963.2003, 73.12566
963.6824, 72.70234
964.1645, 72.31245
964.6466, 72.13709
965.1287, 71.78097
965.6108, 70.66856
966.0930, 69.41450
966.5751, 69.07054
967.0572, 69.77010
967.5393, 70.11395
968.0214, 69.66969
968.5035, 69.23897
968.9857, 69.07332
969.4678, 68.96875
969.9499, 68.78970
970.4320, 68.53618
970.9141, 68.19286
971.3962, 67.72822
971.8784, 67.44499
972.3605, 67.73269
972.8426, 67.98110
973.3247, 67.69820
973.8068, 67.17157
974.2889, 66.80006
974.7711, 66.57118
975.2532, 66.15339
975.7353, 65.34619
976.2174, 64.65331
976.6995, 64.71021
977.1816, 65.03215
977.6638, 64.89233
978.1459, 64.45067
978.6280, 64.19725
979.1101, 64.21687
979.5922, 64.23760
980.0743, 64.05649
980.5565, 63.83212
981.0386, 63.88327
981.5207, 64.10609
982.0028, 64.10503
982.4849, 63.88169
982.9670, 63.60319
983.4492, 63.32448
983.9313, 63.29471
984.4134, 63.84771
984.8955, 64.64574
985.3776, 64.48192
985.8597, 63.31705
986.3419, 62.48553
986.8240, 62.12708
987.3061, 61.87733
987.7882, 61.62882
988.2703, 61.25688
988.7524, 60.53787
989.2346, 59.54013
989.7167, 59.05302
990.1988, 59.25558
990.6809, 59.43159
991.1630, 59.54958
991.6451, 59.56257
992.1273, 59.38882
992.6094, 59.15000
993.0915, 59.07111
993.5736, 59.17594
994.0557, 59.01063
994.5378, 58.12248
995.0200, 57.63588
995.5021, 58.05172
995.9842, 58.47337
996.4663, 58.39883
996.9484, 58.02421
997.4305, 57.65516
997.9127, 57.31089
998.3948, 57.03646
998.8769, 56.82412
999.3590, 56.70060
999.8411, 56.73939
1000.323, 56.80864
1000.805, 56.81384
1001.287, 56.76860
1001.770, 56.72949
1002.252, 56.71301
1002.734, 56.62267
1003.216, 56.42735
1003.698, 56.13686
1004.180, 55.71264
1004.662, 55.23024
1005.144, 54.71764
1005.627, 54.22893
1006.109, 53.85725
1006.591, 53.63187
1007.073, 53.58550
1007.555, 53.72024
1008.037, 54.06417
1008.519, 54.93394
1009.001, 55.88277
1009.483, 56.19226
1009.966, 55.85683
1010.448, 55.18551
1010.930, 54.30508
1011.412, 53.57281
1011.894, 53.39678
1012.376, 53.56759
1012.858, 53.96790
1013.340, 54.39982
1013.823, 54.32004
1014.305, 53.71202
1014.787, 53.02555
1015.269, 52.51453
1015.751, 52.12334
1016.233, 51.70425
1016.715, 51.36983
1017.197, 51.60883
1017.679, 52.26257
1018.162, 52.51415
1018.644, 52.20692
1019.126, 51.77870
1019.608, 51.51521
1020.090, 51.33965
1020.572, 51.12692
1021.054, 50.88269
1021.536, 50.62276
1022.018, 50.35052
1022.501, 50.15018
1022.983, 50.04217
1023.465, 49.99628
1023.947, 50.00685
1024.429, 50.00338
1024.911, 49.79258
1025.393, 49.36597
1025.875, 49.14222
1026.358, 49.14288
1026.840, 49.20220
1027.322, 49.32003
1027.804, 49.25085
1028.286, 48.70681
1028.768, 48.01794
1029.250, 48.09151
1029.732, 49.07301
1030.214, 49.71653
1030.697, 50.04493
1031.179, 49.87864
1031.661, 48.93780
1032.143, 48.03204
1032.625, 47.82925
1033.107, 48.10830
1033.589, 48.25375
1034.071, 48.25036
1034.553, 48.17056
1035.036, 47.94389
1035.518, 47.79681
1036.000, 47.83578
1036.482, 47.90246
1036.964, 47.90393
1037.446, 47.82407
1037.928, 47.57998
1038.410, 47.01638
1038.893, 46.85331
1039.375, 47.62774
1039.857, 47.93648
1040.339, 46.95208
1040.821, 45.91446
1041.303, 45.95838
1041.785, 46.64681
1042.267, 46.65227
1042.750, 45.56145
1043.232, 45.16782
1043.714, 46.31751
1044.196, 47.04385
1044.678, 46.71310
1045.160, 45.98524
1045.642, 44.96184
1046.124, 43.98832
1046.606, 44.01406
1047.089, 45.49218
1047.571, 46.24910
1048.053, 45.45565
1048.535, 44.72918
1049.017, 44.57910
1049.499, 44.58470
1049.981, 44.47858
1050.463, 44.26298
1050.945, 43.95456
1051.428, 43.52636
1051.910, 43.19881
1052.392, 42.98781
1052.874, 42.91940
1053.356, 43.32836
1053.838, 43.57764
1054.320, 42.86605
1054.802, 41.72852
1055.285, 41.32053
1055.767, 41.87060
1056.249, 42.40946
1056.731, 42.74314
1057.213, 42.94643
1057.695, 42.89976
1058.177, 42.87054
1058.659, 43.25327
1059.141, 43.73366
1059.624, 43.65232
1060.106, 42.89657
1060.588, 42.19504
1061.070, 41.60483
1061.552, 41.34356
1062.034, 41.85839
1062.516, 42.39068
1062.998, 42.21587
1063.480, 41.69373
1063.963, 41.54529
1064.445, 41.86499
1064.927, 42.04478
1065.409, 41.59090
1065.891, 41.32268
1066.373, 41.88610
1066.855, 42.45519
1067.337, 42.35070
1067.820, 41.83768
1068.302, 41.29740
1068.784, 40.83068
1069.266, 40.59081
1069.748, 40.79610
1070.230, 40.95960
1070.712, 40.86930
1071.194, 40.65423
1071.677, 40.34869
1072.159, 40.01649
1072.641, 39.66217
1073.123, 39.33813
1073.605, 39.31426
1074.087, 39.90464
1074.569, 40.28553
1075.051, 39.89206
1075.533, 39.34409
1076.016, 39.01374
1076.498, 38.84434
1076.980, 38.75495
1077.462, 38.71799
1077.944, 38.71496
1078.426, 38.77683
1078.908, 38.73717
1079.390, 38.35011
1079.873, 38.02432
1080.355, 38.02496
1080.837, 38.24221
1081.319, 38.64286
1081.801, 39.12102
1082.283, 39.46746
1082.765, 39.64721
1083.247, 39.52219
1083.729, 38.55558
1084.212, 37.83308
1084.694, 38.37737
1085.176, 39.16616
1085.658, 39.10754
1086.140, 38.40301
1086.622, 37.67884
1087.104, 37.06635
1087.586, 36.87872
1088.068, 37.89276
1088.551, 38.53937
1089.033, 37.58687
1089.515, 36.34245
1089.997, 35.96852
1090.479, 36.17061
1090.961, 36.24222
1091.443, 36.05701
1091.925, 35.89593
1092.408, 35.83564
1092.890, 35.85842
1093.372, 36.17565
1093.854, 36.35047
1094.336, 35.80048
1094.818, 35.04642
1095.300, 35.00184
1095.782, 35.64602
1096.265, 35.93306
1096.747, 35.28677
1097.229, 34.78315
1097.711, 35.07908
1098.193, 35.28173
1098.675, 34.52239
1099.157, 33.62499
1099.639, 33.75762
1100.121, 34.70164
1100.604, 35.12196
1101.086, 34.49887
1101.568, 34.09653
1102.050, 34.49484
1102.532, 34.86590
1103.014, 34.82544
1103.496, 34.61885
1103.978, 34.51925
1104.460, 34.43945
1104.943, 34.03594
1105.425, 33.14532
1105.907, 32.63277
1106.389, 32.85134
1106.871, 33.19341
1107.353, 33.66741
1107.835, 34.02295
1108.317, 34.03949
1108.800, 33.84498
1109.282, 33.63642
1109.764, 33.42532
1110.246, 33.27359
1110.728, 33.25999
1111.210, 33.19410
1111.692, 32.90545
1112.174, 32.72647
1112.656, 33.09785
1113.139, 33.48090
1113.621, 32.98548
1114.103, 31.74368
1114.585, 31.25631
1115.067, 32.22856
1115.549, 32.69936
1116.031, 32.27951
1116.513, 31.91247
1116.995, 32.01224
1117.478, 32.14535
1117.960, 31.84677
1118.442, 31.30095
1118.924, 31.11527
1119.406, 31.41530
1119.888, 31.57632
1120.370, 31.52994
1120.852, 31.48822
1121.335, 31.50953
1121.817, 31.52662
1122.299, 31.53440
1122.781, 31.46270
1123.263, 31.13261
1123.745, 30.53360
1124.227, 30.29442
1124.709, 30.56359
1125.192, 30.65508
1125.674, 30.44149
1126.156, 30.17470
1126.638, 29.95564
1127.120, 29.75811
1127.602, 29.50826
1128.084, 29.28272
1128.566, 29.54035
1129.048, 30.37042
1129.531, 30.87693
1130.013, 31.00148
1130.495, 30.95403
1130.977, 30.80135
1131.459, 30.43480
1131.941, 29.69291
1132.423, 28.91935
1132.905, 28.97789
1133.387, 29.79865
1133.870, 30.32780
1134.352, 30.56466
1134.834, 30.29816
1135.316, 29.50025
1135.798, 29.00741
1136.280, 29.29750
1136.762, 29.73866
1137.244, 29.45559
1137.727, 28.74297
1138.209, 28.48987
1138.691, 28.60821
1139.173, 28.76488
1139.655, 28.91255
1140.137, 28.99612
1140.619, 29.00942
1141.101, 29.15291
1141.583, 29.67507
1142.066, 30.13372
1142.548, 29.64020
1143.030, 28.69664
1143.512, 28.30034
1143.994, 28.35845
1144.476, 28.53106
1144.958, 28.71313
1145.440, 28.85386
1145.922, 28.93040
1146.405, 28.92346
1146.887, 28.80000
1147.369, 28.59836
1147.851, 28.32199
1148.333, 28.02153
1148.815, 27.73650
1149.297, 27.50452
1149.779, 27.37253
1150.262, 27.36110
1150.744, 27.52993
1151.226, 28.07135
1151.708, 28.53867
1152.190, 28.61840
1152.672, 28.52674
1153.154, 28.45431
1153.636, 28.32722
1154.119, 27.80932
1154.601, 27.08030
1155.083, 27.06986
1155.565, 28.33567
1156.047, 29.24539
1156.529, 29.12197
1157.011, 28.71558
1157.493, 28.15106
1157.975, 27.62766
1158.458, 27.23090
1158.940, 27.01883
1159.422, 27.14527
1159.904, 27.65197
1160.386, 28.03954
1160.868, 28.13003
1161.350, 28.31106
1161.832, 28.92542
1162.314, 29.24051
1162.797, 28.78825
1163.279, 28.04776
1163.761, 27.42877
1164.243, 26.96872
1164.725, 26.89150
1165.207, 27.39115
1165.689, 27.56229
1166.171, 27.24157
1166.654, 27.09978
1167.136, 27.35776
1167.618, 27.63868
1168.100, 27.69020
1168.582, 27.62946
1169.064, 27.66021
1169.546, 27.76498
1170.028, 27.78762
1170.510, 27.72758
1170.993, 27.55964
1171.475, 27.27747
1171.957, 27.09812
1172.439, 27.10139
1172.921, 27.27899
1173.403, 27.66153
1173.885, 28.06804
1174.367, 28.07173
1174.849, 27.81085
1175.332, 27.75109
1175.814, 27.86419
1176.296, 28.06128
1176.778, 28.26547
1177.260, 28.14167
1177.742, 27.53268
1178.224, 26.97921
1178.706, 27.10776
1179.189, 26.81443
1179.671, 27.31082
1180.153, 27.06260
1180.635, 27.35511
1181.117, 27.98947
1181.599, 28.45811
1182.081, 28.64726
1182.563, 28.68113
1183.046, 28.59332
1183.528, 28.43972
1184.010, 28.17360
1184.492, 27.94497
1184.974, 27.88882
1185.456, 27.89547
1185.938, 27.79220
1186.420, 27.66805
1186.902, 27.82591
1187.385, 28.33859
1187.867, 28.56114
1188.349, 28.01088
1188.831, 27.70042
1189.313, 28.07639
1189.795, 28.42011
1190.277, 28.35831
1190.759, 28.11823
1191.241, 27.82917
1191.724, 27.56359
1192.206, 27.62486
1192.688, 28.10674
1193.170, 28.53260
1193.652, 28.94050
1194.134, 29.16233
1194.616, 29.13995
1195.098, 28.98620
1195.581, 28.71569
1196.063, 28.50203
1196.545, 28.59741
1197.027, 28.93883
1197.509, 29.25324
1197.991, 29.54855
1198.473, 30.00437
1198.955, 30.59581
1199.438, 30.79798
1199.920, 30.49204
1200.402, 30.10794
1200.884, 29.91556
1201.366, 29.96484
1201.848, 30.56607
1202.330, 31.29169
1202.812, 31.21608
1203.294, 30.68856
1203.776, 30.31803
1204.259, 30.19852
1204.741, 30.35958
1205.223, 30.77640
1205.705, 31.24835
1206.187, 31.72287
1206.669, 32.05849
1207.151, 32.06321
1207.633, 31.99328
1208.116, 32.01937
1208.598, 32.10894
1209.080, 32.20895
1209.562, 32.32899
1210.044, 32.54414
1210.526, 32.88504
1211.008, 33.06303
1211.490, 32.84023
1211.973, 32.72837
1212.455, 32.78950
1212.937, 33.02576
1213.419, 33.60385
1213.901, 34.17520
1214.383, 34.32742
1214.865, 34.21513
1215.347, 34.37733
1215.829, 34.86272
1216.312, 35.30533
1216.794, 35.72654
1217.276, 35.92522
1217.758, 35.80076
1218.240, 35.93549
1218.722, 36.65892
1219.204, 37.45444
1219.686, 37.73392
1220.168, 37.69047
1220.651, 37.79543
1221.133, 38.01572
1221.615, 38.14187
1222.097, 38.25201
1222.579, 38.80236
1223.061, 39.76829
1223.543, 40.50412
1224.025, 40.70513
1224.508, 40.80946
1224.990, 41.31492
1225.472, 41.76546
1225.954, 41.62995
1226.436, 41.24727
1226.918, 40.88805
1227.400, 40.63173
1227.882, 40.50149
1228.365, 40.53786
1228.847, 40.89108
1229.329, 41.67820
1229.811, 42.45783
1230.293, 43.25986
1230.775, 43.83167
1231.257, 43.84400
1231.739, 43.87022
1232.221, 44.32955
1232.703, 44.97940
1233.186, 45.57762
1233.668, 46.09121
1234.150, 46.23634
1234.632, 45.77968
1235.114, 45.93641
1235.596, 46.87690
1236.078, 47.64243
1236.560, 47.98992
1237.043, 48.31843
1237.525, 48.88293
1238.007, 49.37009
1238.489, 49.31392
1238.971, 48.96843
1239.453, 49.06283
1239.935, 49.45765
1240.417, 49.65923
1240.900, 49.71661
1241.382, 49.92884
1241.864, 50.33961
1242.346, 50.80323
1242.828, 51.25356
1243.310, 51.63892
1243.792, 51.92441
1244.274, 52.12316
1244.756, 52.05880
1245.239, 52.09303
1245.721, 52.89576
1246.203, 53.84571
1246.685, 53.76186
1247.167, 52.81412
1247.649, 52.52138
1248.131, 53.46487
1248.613, 53.98297
1249.095, 53.60820
1249.578, 53.19524
1250.060, 52.85842
1250.542, 52.55013
1251.024, 52.16236
1251.506, 51.94651
1251.988, 52.30978
1252.470, 52.03710
1252.952, 51.99889
1253.435, 52.11844
1253.917, 51.81800
1254.399, 52.04350
1254.881, 52.15804
1255.363, 52.04366
1255.845, 51.81788
1256.327, 51.53829
1256.809, 51.25504
1257.292, 50.98326
1257.774, 50.81367
1258.256, 50.98288
1258.738, 51.24514
1259.220, 51.31617
1259.702, 51.18310
1260.184, 50.68980
1260.666, 50.03081
1261.148, 49.82476
1261.630, 50.24339
1262.113, 50.52861
1262.595, 50.12675
1263.077, 49.96874
1263.559, 50.69693
1264.041, 51.26042
1264.523, 51.21226
1265.005, 50.68653
1265.487, 49.43896
1265.970, 48.04851
1266.452, 47.99841
1266.934, 49.32236
1267.416, 49.62649
1267.898, 48.74112
1268.380, 48.15635
1268.862, 48.03251
1269.344, 47.87967
1269.827, 47.53692
1270.309, 47.03013
1270.791, 46.35451
1271.273, 45.73018
1271.755, 45.52689
1272.237, 45.54470
1272.719, 45.45829
1273.201, 45.30031
1273.683, 45.12465
1274.166, 44.93097
1274.648, 44.72149
1275.130, 44.48350
1275.612, 44.15440
1276.094, 43.69972
1276.576, 43.20061
1277.058, 42.53093
1277.540, 42.04429
1278.022, 42.06818
1278.505, 42.11100
1278.987, 41.72823
1279.469, 41.29305
1279.951, 41.29554
1280.433, 41.60192
1280.915, 41.64254
1281.397, 41.37370
1281.879, 41.26940
1282.362, 41.36478
1282.844, 41.11979
1283.326, 40.43762
1283.808, 40.17584
1284.290, 40.68424
1284.772, 41.17883
1285.254, 41.01313
1285.736, 40.18829
##END=



