##NAMES=Tintinaite
##RRUFFID=R110163
##IDEAL CHEMISTRY=Pb^2+^_10_Cu^1+^_2_Sb^3+^_16_S^2-^_35_
##LOCALITY=Tintina Silver mine, Watson Lake, Yukon Territory, Canada
##OWNER=RRUFF
##SOURCE=Big piece from Royal Ontario Museum (M37320) and two smaller pieces from Mark Feinglos. 
##DESCRIPTION=Cut slab of malachite-stained weathered quartz containing massive lead-grey veinlets. Co-type material.
##STATUS=The identification of this mineral has been confirmed by single-crystal X-ray diffraction.
##URL=rruff.info/R110163
125.3517, 0.0000000E+00
125.8338, 1.229656
126.3159, 3.416384
126.7980, 3.936710
127.2802, 2.958195
127.7623, 1.710880
128.2444, 1.134428
128.7265, 1.264353
129.2086, 1.481852
129.6907, 1.662258
130.1729, 1.971226
130.6550, 2.534113
131.1371, 3.340794
131.6192, 4.257261
132.1013, 5.133635
132.5834, 6.090137
133.0656, 6.749485
133.5477, 7.161583
134.0298, 7.292000
134.5119, 7.015926
134.9940, 6.316515
135.4761, 5.499247
135.9583, 5.124313
136.4404, 5.754738
136.9225, 6.148077
137.4046, 6.031387
137.8867, 5.684689
138.3688, 5.481712
138.8510, 5.583805
139.3331, 5.966125
139.8152, 6.548290
140.2973, 7.354742
140.7794, 8.689945
141.2615, 10.50120
141.7437, 12.47170
142.2258, 13.30001
142.7079, 11.59953
143.1900, 8.671223
143.6721, 6.582735
144.1542, 5.925484
144.6364, 6.393742
145.1185, 7.440046
145.6006, 8.037270
146.0827, 8.497826
146.5648, 9.193609
147.0469, 9.797874
147.5291, 9.893654
148.0112, 9.222317
148.4933, 8.076168
148.9754, 7.121256
149.4575, 6.507071
149.9396, 5.818970
150.4218, 4.601173
150.9039, 3.301105
151.3860, 2.605692
151.8681, 3.051651
152.3502, 4.435366
152.8323, 4.960718
153.3145, 3.650616
153.7966, 2.348341
154.2787, 1.324192
154.7608, 0.5846860
155.2429, 1.4020000E-03
155.7250, 0.5718360
156.2072, 1.182898
156.6893, 0.9479220
157.1714, 1.086489
157.6535, 2.921961
158.1356, 3.742498
158.6177, 3.557825
159.0999, 2.782047
159.5820, 1.673086
160.0641, 0.1251750
160.5462, 0.7229460
161.0283, 0.3518510
161.5104, 0.3272510
161.9926, 0.7348770
162.4747, 0.7857890
162.9568, 0.4846670
163.4389, 0.4466320
163.9210, 1.954102
164.4031, 2.771429
164.8853, 2.266308
165.3674, 1.065739
165.8495, 5.6506999E-02
166.3316, 0.6331710
166.8137, 1.145561
167.2958, 1.648676
167.7780, 2.121559
168.2601, 2.411343
168.7422, 2.231333
169.2243, 1.752708
169.7064, 1.713091
170.1885, 2.492245
170.6707, 3.353559
171.1528, 3.776125
171.6349, 3.835821
172.1170, 3.882229
172.5991, 4.206553
173.0812, 4.800581
173.5634, 5.433126
174.0455, 6.598656
174.5276, 7.445278
175.0097, 7.473249
175.4918, 6.756388
175.9739, 5.762005
176.4561, 4.784952
176.9382, 3.437145
177.4203, 3.502903
177.9024, 6.731968
178.3845, 9.855518
178.8666, 11.02548
179.3488, 10.08036
179.8309, 8.120216
180.3130, 6.605469
180.7951, 5.744591
181.2772, 4.913521
181.7593, 3.775070
182.2415, 2.869625
182.7236, 2.760889
183.2057, 3.514458
183.6878, 4.599575
184.1699, 5.178623
184.6520, 4.915253
185.1342, 4.753511
185.6163, 4.996716
186.0984, 5.225471
186.5805, 4.758484
187.0626, 3.339846
187.5447, 1.826258
188.0269, 1.915562
188.5090, 4.060949
188.9911, 5.653782
189.4732, 5.733791
189.9553, 4.946569
190.4374, 4.436977
190.9196, 4.603914
191.4017, 4.976017
191.8838, 4.863222
192.3659, 4.266880
192.8480, 3.557022
193.3301, 2.521479
193.8123, 1.415949
194.2944, 1.348104
194.7765, 3.332443
195.2586, 5.544405
195.7407, 5.805325
196.2228, 4.077757
196.7050, 2.548355
197.1871, 3.188370
197.6692, 5.875366
198.1513, 7.836943
198.6334, 8.279612
199.1155, 7.964958
199.5977, 7.210234
200.0798, 6.087912
200.5619, 4.992477
201.0440, 4.281197
201.5261, 3.976038
202.0082, 3.899487
202.4904, 4.311781
202.9725, 4.749111
203.4546, 4.964844
203.9367, 4.940683
204.4188, 4.843567
204.9009, 4.940805
205.3831, 5.420303
205.8652, 5.496300
206.3473, 4.759777
206.8294, 3.937645
207.3115, 3.484711
207.7936, 3.453363
208.2758, 3.550739
208.7579, 3.294224
209.2400, 2.160576
209.7221, 1.888216
210.2042, 2.935492
210.6863, 4.356764
211.1685, 5.825928
211.6506, 7.143457
212.1327, 7.894037
212.6148, 7.353727
213.0969, 4.270399
213.5790, 2.537132
214.0612, 3.078562
214.5433, 4.324533
215.0254, 5.027477
215.5075, 4.831680
215.9896, 4.358320
216.4717, 4.531271
216.9539, 5.887766
217.4360, 6.565353
217.9181, 6.412554
218.4002, 5.591265
218.8823, 3.945965
219.3644, 1.420048
219.8466, 0.8695660
220.3287, 1.087717
220.8108, 1.226194
221.2929, 2.879475
221.7750, 2.704176
222.2571, 1.888773
222.7393, 2.138990
223.2214, 3.957411
223.7035, 6.084227
224.1856, 6.761042
224.6677, 6.112150
225.1498, 5.550713
225.6320, 5.444630
226.1141, 5.644650
226.5962, 6.044390
227.0783, 6.785915
227.5604, 7.251715
228.0425, 6.575384
228.5247, 5.020515
229.0068, 3.545635
229.4889, 2.216120
229.9710, 1.256306
230.4531, 1.348242
230.9352, 2.996408
231.4174, 4.789614
231.8995, 5.528461
232.3816, 5.529354
232.8637, 5.626421
233.3458, 6.279142
233.8279, 7.343639
234.3101, 8.485678
234.7922, 10.09464
235.2743, 11.13601
235.7564, 10.66111
236.2385, 9.176542
236.7206, 7.791628
237.2028, 7.001980
237.6849, 6.779284
238.1670, 7.043219
238.6491, 8.102825
239.1312, 9.216276
239.6133, 10.44138
240.0955, 11.47285
240.5776, 11.74336
241.0597, 10.67497
241.5418, 8.639166
242.0239, 7.470718
242.5060, 7.620491
242.9882, 8.108965
243.4703, 8.913216
243.9524, 9.778568
244.4345, 10.35777
244.9166, 10.43583
245.3987, 10.09324
245.8809, 9.706320
246.3630, 9.295277
246.8451, 8.801306
247.3272, 8.089901
247.8093, 7.343040
248.2914, 6.920927
248.7736, 6.784973
249.2557, 6.855303
249.7378, 6.453270
250.2199, 4.735439
250.7020, 3.602266
251.1841, 3.585705
251.6663, 4.178873
252.1484, 4.794043
252.6305, 5.149395
253.1126, 5.347094
253.5947, 5.733694
254.0768, 7.185898
254.5590, 7.700237
255.0411, 6.364683
255.5232, 4.350395
256.0053, 2.931849
256.4874, 2.652281
256.9695, 3.145332
257.4517, 3.526453
257.9338, 3.617285
258.4159, 3.807465
258.8980, 4.163570
259.3801, 4.592724
259.8622, 5.038191
260.3444, 5.475876
260.8265, 5.842783
261.3086, 6.014376
261.7907, 5.821550
262.2728, 5.685387
262.7549, 5.462906
263.2371, 5.370134
263.7192, 5.804436
264.2013, 6.844250
264.6834, 7.908268
265.1655, 8.091152
265.6476, 6.886171
266.1298, 5.963339
266.6119, 5.166689
267.0940, 4.763699
267.5761, 5.240019
268.0582, 6.649012
268.5403, 8.193044
269.0225, 8.880107
269.5046, 8.418318
269.9867, 8.410040
270.4688, 9.379589
270.9509, 10.51115
271.4330, 11.11842
271.9152, 11.12125
272.3973, 10.81377
272.8794, 10.39343
273.3615, 9.853150
273.8436, 9.507781
274.3257, 9.387540
274.8079, 9.443089
275.2900, 9.726967
275.7721, 10.21734
276.2542, 10.64960
276.7363, 10.76931
277.2184, 10.63223
277.7006, 10.72558
278.1827, 11.55452
278.6648, 12.27439
279.1469, 12.08123
279.6290, 11.07240
280.1111, 10.04041
280.5933, 9.357880
281.0754, 9.069276
281.5575, 9.125586
282.0396, 9.720310
282.5217, 10.41773
283.0038, 11.12602
283.4860, 11.77940
283.9681, 12.01611
284.4502, 11.57997
284.9323, 10.67591
285.4144, 9.784172
285.8965, 8.894277
286.3787, 8.040086
286.8608, 7.225628
287.3429, 6.460672
287.8250, 5.805806
288.3071, 5.385406
288.7892, 4.942173
289.2714, 4.016331
289.7535, 2.535291
290.2356, 1.197226
290.7177, 0.4323600
291.1998, 6.7883000E-02
291.6819, 0.4674060
292.1641, 1.481270
292.6462, 2.179965
293.1283, 1.423747
293.6104, 0.5217940
294.0925, 1.866828
294.5746, 1.735853
295.0568, 0.7907710
295.5389, 0.2499160
296.0210, 0.2684910
296.5031, 0.6542520
296.9852, 1.698425
297.4673, 3.066775
297.9495, 3.716041
298.4316, 2.708447
298.9137, 1.020041
299.3958, 7.7174000E-02
299.8779, 4.6089999E-03
300.3600, 0.4239770
300.8422, 1.685672
301.3243, 3.184549
301.8064, 3.721466
302.2885, 2.172904
302.7706, 0.3181690
303.2527, 0.8659580
303.7349, 4.080796
304.2170, 6.109998
304.6991, 3.779934
305.1812, 0.1582890
305.6633, 1.833072
306.1454, 0.1672210
306.6276, 2.311793
307.1097, 3.465989
307.5918, 3.366050
308.0739, 3.186944
308.5560, 3.232432
309.0381, 3.383611
309.5203, 3.593595
310.0024, 3.894492
310.4845, 3.986745
310.9666, 3.475323
311.4487, 2.512682
311.9308, 1.852627
312.4130, 1.667032
312.8951, 1.847351
313.3772, 2.523606
313.8593, 3.619197
314.3414, 4.415692
314.8235, 4.015338
315.3057, 3.062302
315.7878, 3.396979
316.2699, 5.589947
316.7520, 8.068766
317.2341, 9.788420
317.7162, 10.91920
318.1984, 11.74520
318.6805, 12.15011
319.1626, 12.40420
319.6447, 12.99972
320.1268, 14.01217
320.6089, 14.93861
321.0911, 15.60692
321.5732, 15.98399
322.0553, 15.89690
322.5374, 15.02002
323.0195, 14.14311
323.5016, 14.07240
323.9838, 14.81105
324.4659, 15.97419
324.9480, 17.85584
325.4301, 19.77253
325.9122, 20.83245
326.3943, 20.87364
326.8765, 20.71588
327.3586, 20.84090
327.8407, 21.24383
328.3228, 21.98207
328.8049, 23.43039
329.2870, 24.67556
329.7692, 24.65461
330.2513, 23.48223
330.7334, 22.33397
331.2155, 22.18240
331.6976, 22.42138
332.1797, 21.39860
332.6619, 18.50426
333.1440, 15.58918
333.6261, 14.52627
334.1082, 14.64197
334.5903, 14.37916
335.0724, 13.12871
335.5546, 11.34201
336.0367, 9.301672
336.5188, 6.904102
337.0009, 5.182758
337.4830, 5.023860
337.9651, 5.889764
338.4473, 6.841372
338.9294, 8.181521
339.4115, 8.956550
339.8936, 7.864374
340.3757, 5.203166
340.8578, 3.307494
341.3400, 3.297040
341.8221, 4.229774
342.3042, 4.553951
342.7863, 4.142206
343.2684, 3.871933
343.7505, 4.605651
344.2327, 5.784296
344.7148, 5.896527
345.1969, 4.364919
345.6790, 2.413619
346.1611, 1.402675
346.6432, 1.189477
347.1254, 1.270738
347.6075, 1.957855
348.0896, 2.657029
348.5717, 2.513371
349.0538, 1.431599
349.5359, 0.1349200
350.0181, 1.235413
350.5002, 2.412164
350.9823, 2.379634
351.4644, 0.2859050
351.9465, 2.984762
352.4286, 3.837262
352.9108, 3.152103
353.3929, 2.404684
353.8750, 2.260743
354.3571, 2.540027
354.8392, 2.860119
355.3214, 3.475916
355.8035, 3.607821
356.2856, 2.515506
356.7677, 0.8289700
357.2498, 0.3279240
357.7319, 0.6129250
358.2141, 0.4466000
358.6962, 0.4050350
359.1783, 0.5534290
359.6604, 0.4128870
360.1425, 0.4602740
360.6246, 1.407320
361.1068, 1.715372
361.5889, 1.356376
362.0710, 0.9319870
362.5531, 0.9753170
363.0352, 1.458358
363.5173, 1.527008
363.9995, 1.196520
364.4816, 0.9444840
364.9637, 0.6636480
365.4458, 0.4373480
365.9279, 0.5997780
366.4100, 1.370173
366.8922, 2.585323
367.3743, 3.750417
367.8564, 5.753348
368.3385, 6.485839
368.8206, 4.469158
369.3027, 1.553756
369.7849, 4.7164001E-02
370.2670, 0.2660430
370.7491, 1.446968
371.2312, 2.057298
371.7133, 1.780911
372.1954, 1.881559
372.6776, 2.794033
373.1597, 3.690127
373.6418, 3.979332
374.1239, 3.737300
374.6060, 3.504885
375.0881, 3.769045
375.5703, 4.494506
376.0524, 4.488513
376.5345, 2.737989
377.0166, 1.429628
377.4987, 1.311031
377.9808, 1.872460
378.4630, 2.346892
378.9451, 2.380533
379.4272, 2.177547
379.9093, 2.220397
380.3914, 2.627042
380.8735, 3.107638
381.3557, 3.908722
381.8378, 4.593467
382.3199, 4.787231
382.8020, 4.473525
383.2841, 3.952647
383.7662, 3.561495
384.2484, 3.334478
384.7305, 2.994834
385.2126, 2.131941
385.6947, 1.564655
386.1768, 1.817120
386.6589, 2.555044
387.1411, 3.079457
387.6232, 2.927388
388.1053, 2.326097
388.5874, 2.085209
389.0695, 2.297497
389.5516, 2.722516
390.0338, 3.681767
390.5159, 4.595934
390.9980, 4.885990
391.4801, 4.395486
391.9622, 3.509301
392.4443, 2.449048
392.9265, 1.107405
393.4086, 0.6695590
393.8907, 2.141885
394.3728, 3.775351
394.8549, 4.661653
395.3370, 4.838780
395.8192, 4.640720
396.3013, 4.016120
396.7834, 3.184012
397.2655, 2.919845
397.7476, 3.385136
398.2297, 4.001622
398.7119, 4.797171
399.1940, 5.463669
399.6761, 5.441372
400.1582, 4.302569
400.6403, 3.084563
401.1224, 3.098820
401.6046, 4.248560
402.0867, 4.814902
402.5688, 3.941182
403.0509, 2.646529
403.5330, 2.181565
404.0151, 2.550675
404.4973, 2.981788
404.9794, 3.305508
405.4615, 3.434668
405.9436, 3.050007
406.4257, 2.037485
406.9078, 1.120098
407.3900, 0.8669610
407.8721, 1.171258
408.3542, 1.587441
408.8363, 2.361290
409.3184, 3.292797
409.8005, 4.277232
410.2827, 5.114130
410.7648, 5.080399
411.2469, 3.681022
411.7290, 1.583413
412.2111, 0.3011660
412.6932, 3.4488000E-02
413.1754, 5.9268001E-02
413.6575, 0.3420100
414.1396, 0.8831690
414.6217, 1.178504
415.1038, 1.155899
415.5859, 1.225069
416.0681, 1.844116
416.5502, 3.090223
417.0323, 3.895577
417.5144, 4.407283
417.9965, 4.488185
418.4786, 3.582095
418.9608, 2.197815
419.4429, 1.452967
419.9250, 1.969316
420.4071, 3.088292
420.8892, 2.900999
421.3713, 0.2740630
421.8535, 2.217576
422.3356, 2.193911
422.8177, 1.435665
423.2998, 0.7825890
423.7819, 0.3815060
424.2640, 2.2937000E-02
424.7462, 0.7459460
425.2283, 1.839040
425.7104, 2.408475
426.1925, 2.043917
426.6746, 1.560614
427.1567, 0.8430730
427.6389, 0.1841890
428.1210, 0.2533350
428.6031, 1.446774
429.0852, 3.108703
429.5673, 3.823410
430.0494, 3.215531
430.5316, 3.040328
431.0137, 4.870090
431.4958, 6.442990
431.9779, 5.808950
432.4600, 3.038103
432.9421, 0.4504630
433.4243, 4.0736001E-02
433.9064, 1.328266
434.3885, 2.160353
434.8706, 2.206348
435.3527, 2.328625
435.8348, 3.595307
436.3170, 5.239191
436.7991, 5.841146
437.2812, 4.455102
437.7633, 2.763939
438.2454, 2.573442
438.7275, 3.636102
439.2097, 4.193418
439.6918, 3.519628
440.1739, 2.270514
440.6560, 1.170359
441.1381, 1.3097000E-02
441.6202, 0.1292650
442.1024, 2.378120
442.5845, 5.447446
443.0666, 6.498145
443.5487, 5.386858
444.0308, 3.859556
444.5129, 3.073498
444.9951, 3.027179
445.4772, 3.556130
445.9593, 6.008307
446.4414, 7.391143
446.9235, 5.828728
447.4056, 2.908880
447.8878, 0.9673720
448.3699, 0.8024610
448.8520, 1.744951
449.3341, 2.873929
449.8162, 4.476803
450.2983, 5.385659
450.7805, 5.239762
451.2626, 4.829909
451.7447, 4.400845
452.2268, 4.063193
452.7089, 3.949143
453.1910, 4.132107
453.6732, 4.639892
454.1553, 5.737202
454.6374, 8.570029
455.1195, 9.957004
455.6016, 8.350932
456.0837, 5.971291
456.5659, 4.741095
457.0480, 4.972769
457.5301, 5.568366
458.0122, 5.185685
458.4943, 3.858779
458.9764, 3.500872
459.4586, 4.600965
459.9407, 6.066346
460.4228, 7.664115
460.9049, 9.136614
461.3870, 9.963556
461.8691, 9.781221
462.3513, 9.188608
462.8334, 8.969034
463.3155, 9.098112
463.7976, 8.880875
464.2797, 7.861151
464.7618, 6.688380
465.2440, 6.259370
465.7261, 6.586667
466.2082, 6.850175
466.6903, 6.606170
467.1724, 6.237606
467.6545, 6.298579
468.1367, 6.802066
468.6188, 7.300482
469.1009, 7.649621
469.5830, 7.702012
470.0651, 6.709746
470.5472, 3.152266
471.0294, 0.6173380
471.5115, 0.4318480
471.9936, 1.602635
472.4757, 3.117120
472.9578, 4.651328
473.4399, 6.058570
473.9221, 7.219734
474.4042, 8.237550
474.8863, 8.354821
475.3684, 6.635060
475.8505, 5.117944
476.3326, 4.577940
476.8148, 4.754580
477.2969, 5.246237
477.7790, 5.875146
478.2611, 6.412732
478.7432, 6.253258
479.2253, 4.983465
479.7075, 4.011572
480.1896, 4.252542
480.6717, 4.486830
481.1538, 3.649819
481.6359, 2.023294
482.1180, 1.000821
482.6002, 1.865425
483.0823, 3.877861
483.5644, 4.896091
484.0465, 4.674975
484.5286, 4.331370
485.0107, 4.312885
485.4929, 4.454597
485.9750, 4.570741
486.4571, 4.639725
486.9392, 4.697870
487.4213, 4.883002
487.9034, 5.056527
488.3856, 4.809576
488.8677, 4.020761
489.3498, 3.301643
489.8319, 3.261721
490.3140, 3.791263
490.7961, 3.744269
491.2783, 2.193533
491.7604, 1.057642
492.2425, 1.632090
492.7246, 3.152524
493.2067, 4.246693
493.6888, 4.431727
494.1710, 3.961394
494.6531, 3.124027
495.1352, 1.553154
495.6173, 0.8255670
496.0994, 1.986259
496.5815, 2.854104
497.0637, 1.742296
497.5458, 0.4518330
498.0279, 1.618900
498.5100, 0.4984280
498.9921, 1.985724
499.4742, 3.572692
499.9564, 4.134657
500.4385, 4.101954
500.9206, 2.879619
501.4027, 1.605021
501.8848, 0.9950500
502.3669, 1.028244
502.8491, 1.241055
503.3312, 1.386029
503.8133, 1.463719
504.2954, 1.437781
504.7775, 1.269300
505.2596, 1.180791
505.7418, 1.256388
506.2239, 1.490373
506.7060, 1.918929
507.1881, 2.620000
507.6702, 3.188796
508.1523, 3.440699
508.6345, 3.423848
509.1166, 3.005799
509.5987, 2.164041
510.0808, 1.757957
510.5629, 2.735371
511.0450, 4.885508
511.5272, 5.789255
512.0093, 4.656887
512.4914, 3.402972
512.9735, 2.395322
513.4556, 1.661721
513.9377, 1.099905
514.4199, 0.7250290
514.9020, 0.8997240
515.3841, 2.274961
515.8662, 5.201426
516.3483, 6.898568
516.8304, 6.484326
517.3126, 5.724526
517.7947, 4.817475
518.2768, 3.951139
518.7589, 3.343986
519.2410, 3.086666
519.7231, 3.047266
520.2053, 3.113215
520.6874, 3.304963
521.1695, 3.274863
521.6516, 2.802462
522.1337, 2.321237
522.6158, 2.175267
523.0980, 2.258055
523.5801, 2.253648
524.0622, 1.889841
524.5443, 1.551230
525.0264, 1.658789
525.5085, 2.166943
525.9907, 2.899864
526.4728, 3.954428
526.9549, 4.863463
527.4370, 4.829543
527.9191, 3.703465
528.4012, 2.665961
528.8834, 1.386150
529.3655, 0.6116000
529.8476, 1.318387
530.3297, 3.010712
530.8118, 4.204376
531.2939, 4.071197
531.7761, 3.157725
532.2582, 2.911119
532.7403, 4.181914
533.2224, 4.527423
533.7045, 3.030511
534.1866, 1.489341
534.6688, 1.021742
535.1509, 1.478621
535.6330, 2.077521
536.1151, 2.309813
536.5972, 2.337011
537.0793, 2.703914
537.5615, 3.603106
538.0436, 4.037711
538.5257, 3.416031
539.0078, 2.426068
539.4899, 1.494868
539.9720, 0.6689100
540.4542, 0.2960810
540.9363, 0.9466360
541.4184, 1.953722
541.9005, 2.276285
542.3826, 1.913949
542.8647, 1.600906
543.3469, 1.701499
543.8290, 2.114934
544.3111, 2.696577
544.7932, 3.930814
545.2753, 4.207774
545.7574, 2.424765
546.2396, 0.2749210
546.7217, 0.9373880
547.2038, 1.248096
547.6859, 1.108821
548.1680, 0.7552760
548.6501, 0.1632800
549.1323, 0.7860560
549.6144, 2.861820
550.0965, 3.905361
550.5786, 2.859627
551.0607, 1.478545
551.5428, 1.190487
552.0250, 1.934322
552.5071, 2.496382
552.9892, 1.641096
553.4713, 6.8278000E-02
553.9534, 1.4394000E-02
554.4355, 1.692216
554.9177, 3.411579
555.3998, 4.594771
555.8819, 5.253466
556.3640, 5.656702
556.8461, 5.800293
557.3282, 5.402003
557.8104, 3.717912
558.2925, 1.805895
558.7746, 0.9848720
559.2567, 1.251709
559.7388, 1.875671
560.2209, 2.487186
560.7031, 3.035211
561.1852, 3.356369
561.6673, 3.076350
562.1494, 3.198104
562.6315, 4.254596
563.1136, 5.169185
563.5958, 4.995871
564.0779, 3.959693
564.5600, 3.034684
565.0421, 2.947299
565.5242, 3.407302
566.0063, 3.446970
566.4885, 2.978632
566.9706, 2.343547
567.4527, 1.048547
567.9348, 5.6759998E-02
568.4169, 0.2671700
568.8990, 1.557102
569.3812, 2.809062
569.8633, 3.185146
570.3454, 3.310777
570.8275, 4.500714
571.3096, 6.619275
571.7917, 7.548790
572.2739, 6.076323
572.7560, 3.462413
573.2381, 1.910736
573.7202, 1.556531
574.2023, 1.598997
574.6844, 2.463520
575.1666, 3.269618
575.6487, 3.261576
576.1308, 2.684803
576.6129, 2.242289
577.0950, 2.296783
577.5771, 2.719049
578.0593, 3.323434
578.5414, 4.420708
579.0235, 4.845089
579.5056, 3.881100
579.9877, 2.837358
580.4698, 2.241042
580.9520, 2.035055
581.4341, 1.988921
581.9162, 2.076218
582.3983, 2.150565
582.8804, 1.872666
583.3625, 1.306949
583.8447, 1.299405
584.3268, 2.244046
584.8089, 3.159274
585.2910, 2.625799
585.7731, 0.8632250
586.2552, 0.2142840
586.7374, 2.034768
587.2195, 3.807996
587.7016, 4.028163
588.1837, 3.363458
588.6658, 3.030336
589.1479, 3.388686
589.6301, 3.939836
590.1122, 4.078137
590.5943, 3.767734
591.0764, 3.371909
591.5585, 2.652819
592.0406, 2.131823
592.5228, 2.178569
593.0049, 2.391181
593.4870, 2.100113
593.9691, 1.185056
594.4512, 0.4039120
594.9333, 0.7161880
595.4155, 1.812057
595.8976, 2.235400
596.3797, 1.748690
596.8618, 1.291913
597.3439, 1.364296
597.8260, 1.873411
598.3082, 2.588573
598.7903, 3.836735
599.2724, 4.680373
599.7545, 4.807325
600.2366, 4.414300
600.7188, 3.292942
601.2009, 1.653625
601.6830, 0.5012680
602.1651, 0.5965430
602.6472, 1.480068
603.1293, 1.359847
603.6115, 0.8751260
604.0936, 2.047888
604.5757, 1.333593
605.0578, 0.1954290
605.5399, 0.5427190
606.0220, 0.9318840
606.5042, 1.448995
606.9863, 2.451790
607.4684, 3.526643
607.9505, 3.920853
608.4326, 3.653136
608.9147, 3.516524
609.3969, 3.860290
609.8790, 4.128649
610.3611, 3.377601
610.8432, 1.742151
611.3253, 1.132029
611.8074, 2.955838
612.2896, 4.575864
612.7717, 4.381953
613.2538, 3.118216
613.7359, 1.891588
614.2180, 1.147308
614.7001, 0.9880450
615.1823, 1.940887
615.6644, 4.119509
616.1465, 5.001745
616.6286, 3.562738
617.1107, 2.197475
617.5928, 1.655625
618.0750, 1.407892
618.5571, 0.7878100
619.0392, 0.3004920
619.5213, 1.128795
620.0034, 1.027012
620.4855, 0.3025370
620.9677, 0.4518850
621.4498, 1.217107
621.9319, 1.810733
622.4140, 2.185274
622.8961, 2.245733
623.3782, 2.191832
623.8604, 2.052652
624.3425, 1.840452
624.8246, 1.323008
625.3067, 0.9403920
625.7888, 1.136195
626.2709, 1.705188
626.7531, 2.135347
627.2352, 2.173709
627.7173, 1.954964
628.1994, 1.572776
628.6815, 0.8556860
629.1636, 0.9912740
629.6458, 2.963587
630.1279, 4.596637
630.6100, 4.444527
631.0921, 3.347777
631.5742, 2.812598
632.0563, 3.328367
632.5385, 4.099978
633.0206, 4.744090
633.5027, 5.191222
633.9848, 5.209595
634.4669, 4.777934
634.9490, 4.318743
635.4312, 4.170488
635.9133, 4.224600
636.3954, 3.959212
636.8775, 3.077780
637.3596, 2.265498
637.8417, 1.083242
638.3239, 0.3542150
638.8060, 1.267619
639.2881, 3.230545
639.7702, 4.260213
640.2523, 2.979902
640.7344, 0.6804940
641.2166, 5.8770999E-02
641.6987, 0.8632380
642.1808, 1.612257
642.6629, 1.842101
643.1450, 1.796406
643.6271, 1.529078
644.1093, 1.132790
644.5914, 0.9797180
645.0735, 1.396672
645.5556, 1.750989
646.0377, 1.487229
646.5198, 1.088564
647.0020, 1.428170
647.4841, 2.567620
647.9662, 3.660880
648.4483, 3.969085
648.9304, 3.557045
649.4125, 2.788642
649.8947, 1.071271
650.3768, 0.1436150
650.8589, 0.8960190
651.3410, 2.028568
651.8231, 2.714325
652.3052, 2.937538
652.7874, 3.048587
653.2695, 3.187824
653.7516, 3.334766
654.2337, 3.718805
654.7158, 4.158648
655.1979, 3.489448
655.6801, 1.154371
656.1622, 0.9936850
656.6443, 0.6898740
657.1264, 2.257936
657.6085, 3.928637
658.0906, 3.593079
658.5728, 3.086620
659.0549, 2.691857
659.5370, 2.431192
660.0191, 2.311851
660.5012, 2.327078
660.9833, 2.456966
661.4655, 2.704225
661.9476, 2.938380
662.4297, 2.816905
662.9118, 2.277858
663.3939, 2.044764
663.8760, 2.499628
664.3582, 3.150235
664.8403, 3.387161
665.3224, 3.247257
665.8045, 3.152586
666.2866, 3.388178
666.7687, 3.551363
667.2509, 3.178479
667.7330, 2.364275
668.2151, 1.479599
668.6972, 0.6860540
669.1793, 0.6292020
669.6614, 2.193021
670.1436, 5.166851
670.6257, 5.696199
671.1078, 2.027092
671.5899, 0.4538530
672.0720, 1.040892
672.5541, 3.389802
673.0363, 3.992577
673.5184, 2.878445
674.0005, 2.095458
674.4826, 2.801306
674.9647, 4.003061
675.4468, 5.021510
675.9290, 5.720049
676.4111, 5.542360
676.8932, 4.271704
677.3753, 2.790297
677.8574, 2.316605
678.3395, 2.960182
678.8217, 2.768999
679.3038, 9.4738998E-02
679.7859, 1.348852
680.2680, 4.6459001E-02
680.7501, 2.181303
681.2322, 3.735800
681.7144, 4.402310
682.1965, 4.701190
682.6786, 4.805193
683.1607, 4.829769
683.6428, 5.105528
684.1249, 5.559186
684.6071, 5.415337
685.0892, 4.277086
685.5713, 3.113741
686.0534, 3.097220
686.5355, 4.358567
687.0176, 4.730609
687.4998, 3.082932
687.9819, 2.047993
688.4640, 3.122553
688.9461, 4.600939
689.4282, 4.487244
689.9103, 2.758932
690.3925, 1.115904
690.8746, 0.8562570
691.3567, 1.565901
691.8388, 2.358115
692.3209, 3.237677
692.8030, 4.051968
693.2852, 4.690841
693.7673, 5.404312
694.2494, 6.844034
694.7315, 8.859541
695.2136, 9.300122
695.6957, 6.871161
696.1779, 4.326927
696.6600, 2.281119
697.1421, 0.8191800
697.6242, 4.2477999E-02
698.1063, 0.2519360
698.5884, 0.4664110
699.0706, 2.526407
699.5527, 5.291127
700.0348, 6.721539
700.5169, 6.669608
700.9990, 6.106087
701.4811, 4.721132
701.9633, 3.569304
702.4454, 3.972108
702.9275, 5.402071
703.4096, 6.064878
703.8917, 4.978688
704.3738, 4.118754
704.8560, 4.791538
705.3381, 5.858760
705.8202, 5.736724
706.3023, 4.474699
706.7844, 3.422265
707.2665, 3.548810
707.7487, 4.413824
708.2308, 4.964024
708.7129, 5.215385
709.1950, 5.278264
709.6771, 5.099608
710.1592, 4.821242
710.6414, 4.463086
711.1235, 4.086257
711.6056, 3.833248
712.0877, 3.774689
712.5698, 3.729647
713.0519, 3.532973
713.5341, 3.350654
714.0162, 3.418302
714.4983, 3.751040
714.9804, 3.856007
715.4625, 3.315606
715.9446, 2.525956
716.4268, 2.410571
716.9089, 3.209306
717.3910, 3.592042
717.8731, 3.303757
718.3552, 2.890532
718.8373, 2.540437
719.3195, 2.257471
719.8016, 1.998777
720.2837, 1.708857
720.7658, 1.730968
721.2479, 2.492529
721.7300, 3.467050
722.2122, 4.621741
722.6943, 5.601604
723.1764, 4.970439
723.6585, 2.071994
724.1406, 1.250978
724.6227, 1.957704
725.1049, 0.3431110
725.5870, 1.413658
726.0691, 0.2709360
726.5512, 0.5191680
727.0333, 0.3376910
727.5154, 1.706393
727.9976, 2.450829
728.4797, 2.477223
728.9618, 2.398587
729.4439, 2.358732
729.9260, 2.426963
730.4081, 2.463012
730.8903, 2.515957
731.3724, 2.718938
731.8545, 3.105890
732.3366, 3.592949
732.8187, 4.140919
733.3008, 4.714763
733.7830, 4.846189
734.2651, 4.184407
734.7472, 3.843382
735.2293, 4.689889
735.7114, 5.422957
736.1935, 5.004704
736.6757, 3.618023
737.1578, 2.170110
737.6399, 0.4717580
738.1220, 0.5831370
738.6041, 0.3090720
739.0862, 0.7405820
739.5684, 1.905970
740.0505, 2.996868
740.5326, 3.852461
741.0147, 4.393176
741.4968, 4.499545
741.9789, 3.588616
742.4611, 1.104696
742.9432, 0.3191950
743.4253, 1.7517000E-02
743.9074, 0.9092140
744.3895, 2.068393
744.8716, 3.178102
745.3538, 3.564574
745.8359, 2.906164
746.3180, 2.242083
746.8001, 1.886895
747.2822, 1.876471
747.7643, 2.663936
748.2465, 3.799851
748.7286, 4.029035
749.2107, 2.778641
749.6928, 1.065424
750.1749, 0.4448330
750.6570, 0.9722920
751.1392, 1.453744
751.6213, 1.936860
752.1034, 2.262965
752.5855, 2.243942
753.0676, 2.120064
753.5497, 2.179221
754.0319, 2.435403
754.5140, 2.736780
754.9961, 3.333475
755.4782, 3.643739
755.9603, 2.873542
756.4424, 1.844838
756.9246, 1.916525
757.4067, 3.231877
757.8888, 4.598770
758.3709, 5.027980
758.8530, 4.693372
759.3351, 4.031879
759.8173, 2.953571
760.2994, 2.393773
760.7815, 2.827657
761.2636, 3.332133
761.7457, 3.057623
762.2278, 2.170567
762.7100, 1.520811
763.1921, 1.314650
763.6742, 1.054440
764.1563, 0.2187610
764.6384, 0.3800970
765.1205, 0.2836280
765.6027, 1.744233
766.0848, 2.680192
766.5669, 2.462485
767.0490, 1.780258
767.5311, 1.468741
768.0132, 1.481401
768.4954, 1.603566
768.9775, 1.844579
769.4596, 1.978076
769.9417, 1.823867
770.4238, 1.607299
770.9059, 1.753215
771.3881, 2.400738
771.8702, 2.853306
772.3523, 3.141727
772.8344, 3.209363
773.3165, 2.944097
773.7986, 2.501601
774.2808, 1.908258
774.7629, 1.257734
775.2450, 0.9467910
775.7271, 1.428284
776.2092, 2.221400
776.6913, 2.829336
777.1735, 3.157336
777.6556, 2.511637
778.1377, 0.6814940
778.6198, 0.7874490
779.1019, 0.4332280
779.5840, 1.293720
780.0662, 2.020417
780.5483, 0.7487450
781.0304, 0.3790110
781.5125, 2.093488
781.9946, 3.615489
782.4767, 3.581623
782.9589, 2.916274
783.4410, 3.204067
783.9231, 5.193697
784.4052, 6.348365
784.8873, 4.216196
785.3694, 1.162374
785.8516, 0.3995290
786.3337, 1.480952
786.8158, 2.060100
787.2979, 1.210231
787.7800, 0.2737450
788.2621, 1.294559
788.7443, 4.156180
789.2264, 5.017361
789.7085, 2.835556
790.1906, 1.624271
790.6727, 3.524357
791.1548, 5.911349
791.6370, 5.923444
792.1191, 3.917396
792.6012, 2.367746
793.0833, 1.454495
793.5654, 1.272972
794.0475, 2.508754
794.5297, 4.048160
795.0118, 4.715366
795.4939, 4.562377
795.9760, 4.295341
796.4581, 4.397604
796.9402, 4.033823
797.4224, 4.216968
797.9045, 3.450381
798.3866, 2.850440
798.8687, 2.460325
799.3508, 2.296970
799.8329, 2.380458
800.3151, 2.690919
800.7972, 3.263330
801.2793, 4.431615
801.7614, 4.724589
802.2435, 3.440315
802.7256, 2.224760
803.2078, 1.663065
803.6899, 1.334148
804.1720, 0.6199550
804.6541, 0.4197120
805.1362, 0.9758020
805.6183, 0.3755180
806.1005, 0.6218250
806.5826, 1.399922
807.0647, 1.933817
807.5468, 2.064182
808.0289, 1.812186
808.5110, 1.612879
808.9932, 1.807695
809.4753, 2.154397
809.9574, 1.934179
810.4395, 0.9452230
810.9216, 0.2517440
811.4037, 0.3088690
811.8859, 0.2033490
812.3680, 1.655343
812.8501, 3.963554
813.3322, 4.627709
813.8143, 3.273914
814.2964, 2.404813
814.7786, 3.156340
815.2607, 3.945544
815.7428, 3.836397
816.2249, 3.192963
816.7070, 2.492076
817.1891, 1.882036
817.6713, 1.387934
818.1534, 0.9828500
818.6355, 0.7832080
819.1176, 1.104074
819.5997, 1.883818
820.0818, 2.806790
820.5640, 3.905865
821.0461, 4.252890
821.5282, 2.934659
822.0103, 0.6724560
822.4924, 0.3116210
822.9745, 0.7732080
823.4567, 1.469426
823.9388, 1.618710
824.4209, 1.567462
824.9030, 1.248556
825.3851, 0.9203820
825.8672, 0.9728790
826.3494, 1.376453
826.8315, 1.585851
827.3136, 1.221831
827.7957, 0.8068280
828.2778, 0.8323630
828.7599, 1.109230
829.2421, 1.162951
829.7242, 0.9831660
830.2063, 1.171831
830.6884, 2.269290
831.1705, 3.826254
831.6526, 4.683002
832.1348, 4.810822
832.6169, 5.078399
833.0990, 5.777934
833.5811, 6.161674
834.0632, 5.749768
834.5453, 4.772446
835.0275, 3.682967
835.5096, 2.231227
835.9917, 1.510012
836.4738, 1.955561
836.9559, 2.505173
837.4380, 2.973889
837.9202, 3.152589
838.4023, 2.518319
838.8844, 1.241190
839.3665, 0.6791320
839.8486, 2.299247
840.3307, 4.029373
840.8129, 3.395257
841.2950, 1.442398
841.7771, 0.1194920
842.2592, 0.2587890
842.7413, 7.5327002E-02
843.2234, 1.049438
843.7056, 2.185745
844.1877, 2.301184
844.6698, 1.240393
845.1519, 1.217881
845.6340, 2.741598
846.1161, 4.038097
846.5983, 4.371399
847.0804, 4.094631
847.5625, 3.643731
848.0446, 2.820177
848.5267, 2.439662
849.0089, 2.893951
849.4910, 3.389587
849.9731, 3.814282
850.4552, 4.100590
850.9373, 4.173645
851.4194, 4.059570
851.9016, 3.819369
852.3837, 3.423746
852.8658, 3.110930
853.3479, 3.224708
853.8300, 3.509021
854.3121, 3.460424
854.7943, 3.131316
855.2764, 2.908343
855.7585, 2.979844
856.2406, 3.147577
856.7227, 3.091824
857.2048, 2.859266
857.6870, 3.261183
858.1691, 4.684391
858.6512, 5.098798
859.1333, 3.481494
859.6154, 1.525675
860.0975, 0.5236140
860.5797, 0.4460920
861.0618, 1.033500
861.5439, 3.106910
862.0260, 4.456777
862.5081, 4.105377
862.9902, 3.688056
863.4724, 4.604420
863.9545, 6.026309
864.4366, 6.526492
864.9187, 5.770625
865.4008, 4.651651
865.8829, 3.465987
866.3651, 2.461777
866.8472, 1.798478
867.3293, 1.560347
867.8114, 2.332437
868.2935, 4.018707
868.7756, 4.870456
869.2578, 3.351402
869.7399, 0.7418160
870.2220, 0.5496300
870.7041, 2.938454
871.1862, 4.092491
871.6683, 3.467818
872.1505, 2.352305
872.6326, 1.047855
873.1147, 4.5671999E-02
873.5968, 0.3729810
874.0789, 2.481576
874.5610, 3.463531
875.0432, 2.415392
875.5253, 1.480501
876.0074, 0.9723930
876.4895, 0.9018820
876.9716, 1.583300
877.4537, 2.721658
877.9359, 3.319146
878.4180, 2.890437
878.9001, 2.246092
879.3822, 1.740506
879.8643, 1.386260
880.3464, 1.295643
880.8286, 1.363414
881.3107, 1.290607
881.7928, 0.9710350
882.2749, 0.4818760
882.7570, 0.3037790
883.2391, 1.096118
883.7213, 0.7831780
884.2034, 0.5604770
884.6855, 1.699356
885.1676, 2.354225
885.6497, 2.677506
886.1318, 2.699371
886.6140, 2.588233
887.0961, 2.978545
887.5782, 4.289701
888.0603, 5.041310
888.5424, 5.368842
889.0245, 4.935555
889.5067, 2.821851
889.9888, 0.3752390
890.4709, 0.8354970
890.9530, 0.7567260
891.4351, 0.3767520
891.9172, 0.5635620
892.3994, 1.192725
892.8815, 0.4070260
893.3636, 0.2886530
893.8457, 1.326064
894.3278, 4.354004
894.8099, 5.677225
895.2921, 3.798287
895.7742, 1.421718
896.2563, 1.309227
896.7384, 2.293638
897.2205, 2.061500
897.7026, 1.015116
898.1848, 1.530731
898.6669, 4.243621
899.1490, 6.521328
899.6311, 5.580155
900.1132, 2.449601
900.5953, 1.155825
901.0775, 1.847689
901.5596, 2.615257
902.0417, 3.239182
902.5238, 3.866450
903.0059, 4.899828
903.4880, 5.658573
903.9702, 4.496545
904.4523, 0.5261680
904.9344, 1.754840
905.4165, 1.275856
905.8986, 0.4962890
906.3807, 0.1762770
906.8629, 0.8280110
907.3450, 1.628300
907.8271, 2.498277
908.3092, 3.088389
908.7913, 3.203936
909.2734, 3.259439
909.7556, 3.772571
910.2377, 4.018802
910.7198, 2.987698
911.2019, 1.288282
911.6840, 0.1334260
912.1661, 0.1112500
912.6483, 0.1521250
913.1304, 0.8442420
913.6125, 1.615232
914.0946, 1.733193
914.5767, 1.446609
915.0588, 1.617176
915.5410, 2.351728
916.0231, 3.135987
916.5052, 3.672756
916.9873, 3.924386
917.4694, 3.754389
917.9515, 3.143682
918.4337, 2.627621
918.9158, 2.223083
919.3979, 1.814763
919.8800, 1.278664
920.3621, 0.9096380
920.8442, 1.119758
921.3264, 1.826758
921.8085, 2.138865
922.2906, 1.412117
922.7727, 1.352207
923.2548, 2.895156
923.7369, 4.152673
924.2191, 3.825688
924.7012, 2.836808
925.1833, 2.742822
925.6654, 3.762845
926.1475, 4.392033
926.6296, 3.402329
927.1118, 2.834212
927.5939, 4.673900
928.0760, 6.837816
928.5581, 6.740687
929.0402, 4.754534
929.5223, 3.017382
930.0045, 2.467517
930.4866, 2.354376
930.9687, 1.952197
931.4508, 1.570259
931.9329, 1.799071
932.4150, 2.472552
932.8972, 2.947189
933.3793, 3.078383
933.8614, 3.462067
934.3435, 4.807158
934.8256, 6.302654
935.3077, 5.477038
935.7899, 2.575320
936.2720, 1.362185
936.7541, 2.367099
937.2362, 3.670263
937.7183, 4.433275
938.2004, 4.662965
938.6826, 4.250592
939.1647, 3.168706
939.6468, 2.769235
940.1289, 3.429154
940.6110, 3.821826
941.0931, 3.604286
941.5753, 3.362377
942.0574, 3.373939
942.5395, 3.449729
943.0216, 3.306872
943.5037, 2.831399
943.9858, 2.486856
944.4680, 2.620806
944.9501, 2.671901
945.4322, 1.534571
945.9143, 0.4914460
946.3964, 1.243126
946.8785, 3.543171
947.3607, 5.764947
947.8428, 7.740655
948.3249, 8.579884
948.8070, 7.199993
949.2891, 5.141750
949.7712, 3.325115
950.2534, 2.101264
950.7355, 2.307652
951.2176, 3.927622
951.6997, 5.363463
952.1818, 5.216704
952.6639, 4.342733
953.1461, 3.848673
953.6282, 3.549966
954.1103, 2.908157
954.5924, 1.962221
955.0745, 1.296255
955.5566, 1.149656
956.0388, 1.419933
956.5209, 2.131891
957.0030, 3.104259
957.4851, 3.221535
957.9672, 2.492618
958.4493, 2.419930
958.9315, 3.467355
959.4136, 4.066640
959.8957, 2.836166
960.3778, 0.8028480
960.8599, 0.8778130
961.3420, 3.810333
961.8242, 4.838645
962.3063, 2.977318
962.7884, 1.545161
963.2705, 2.222608
963.7526, 3.372609
964.2347, 3.078469
964.7169, 1.632591
965.1990, 1.439041
965.6811, 4.323093
966.1632, 5.659394
966.6453, 4.198044
967.1274, 2.584857
967.6096, 1.543353
968.0917, 1.189971
968.5738, 2.069135
969.0559, 4.089168
969.5380, 5.066408
970.0201, 3.238484
970.5023, 1.885639
970.9844, 2.800740
971.4665, 4.021480
971.9486, 3.846227
972.4307, 2.766531
972.9128, 1.925802
973.3950, 1.634785
973.8771, 1.773606
974.3592, 2.681756
974.8413, 3.576035
975.3234, 3.801070
975.8055, 3.553555
976.2877, 2.910122
976.7698, 2.083661
977.2519, 1.656711
977.7340, 1.911902
978.2161, 2.333701
978.6982, 2.264394
979.1804, 2.035460
979.6625, 2.587039
980.1446, 3.539521
980.6267, 3.207759
981.1088, 1.449799
981.5909, 0.4773960
982.0731, 1.970375
982.5552, 0.7509930
983.0373, 3.731985
983.5194, 1.044655
984.0015, 0.1787260
984.4836, 1.245591
984.9658, 2.087183
985.4479, 2.006880
985.9300, 1.685105
986.4121, 1.722585
986.8942, 2.056535
987.3763, 2.485704
987.8585, 3.031435
988.3406, 3.604913
988.8227, 4.354523
989.3048, 4.580167
989.7869, 3.864483
990.2690, 2.706138
990.7512, 1.540769
991.2333, 0.4347770
991.7154, 0.2088900
992.1975, 1.322477
992.6796, 2.367844
993.1617, 3.199256
993.6439, 4.030110
994.1260, 5.537669
994.6081, 6.811292
995.0902, 6.180037
995.5723, 3.610597
996.0544, 2.398159
996.5366, 4.380108
997.0187, 5.260079
997.5008, 3.503485
997.9829, 1.318112
998.4650, 0.6920420
998.9471, 1.912979
999.4293, 0.8680790
999.9114, 2.790443
1000.393, 5.025090
1000.876, 3.989392
1001.358, 2.246091
1001.840, 0.2512070
1002.322, 2.051945
1002.804, 1.118484
1003.286, 1.365661
1003.768, 2.369320
1004.250, 0.9860270
1004.733, 3.0239001E-02
1005.215, 1.448610
1005.697, 3.136614
1006.179, 3.032979
1006.661, 2.298506
1007.143, 2.641579
1007.625, 3.858278
1008.107, 4.689238
1008.589, 4.611176
1009.072, 3.978557
1009.554, 2.550444
1010.036, 1.176508
1010.518, 1.231660
1011.000, 1.997099
1011.482, 1.774404
1011.964, 0.5769640
1012.446, 4.9300998E-02
1012.929, 0.7702710
1013.411, 2.139128
1013.893, 3.437191
1014.375, 4.288328
1014.857, 3.288656
1015.339, 1.159323
1015.821, 0.5611480
1016.303, 1.956040
1016.785, 3.785079
1017.268, 5.064064
1017.750, 5.721555
1018.232, 5.338251
1018.714, 5.656446
1019.196, 5.296079
1019.678, 4.509059
1020.160, 4.131286
1020.642, 2.434777
1021.125, 1.156299
1021.607, 1.818985
1022.089, 0.6056000
1022.571, 2.861887
1023.053, 0.5740710
1023.535, 2.3643000E-02
1024.017, 1.412277
1024.499, 2.629442
1024.981, 3.059245
1025.464, 2.729958
1025.946, 1.476353
1026.428, 0.1739590
1026.910, 0.3977510
1027.392, 1.006516
1027.874, 1.852672
1028.356, 1.945860
1028.838, 2.122345
1029.321, 2.768187
1029.803, 3.252412
1030.285, 2.763490
1030.767, 3.604245
1031.249, 4.488924
1031.731, 4.703168
1032.213, 6.466172
1032.695, 7.456878
1033.177, 7.408472
1033.660, 5.841533
1034.142, 3.791024
1034.624, 2.201875
1035.106, 1.076553
1035.588, 0.5029910
1036.070, 0.5651810
1036.552, 1.035728
1037.034, 2.499222
1037.516, 3.334774
1037.999, 2.582968
1038.481, 1.288826
1038.963, 0.3591060
1039.445, 0.1699950
1039.927, 4.5649000E-02
1040.409, 1.739716
1040.891, 2.866317
1041.373, 2.875820
1041.855, 2.987892
1042.338, 4.060317
1042.820, 5.174940
1043.302, 5.380308
1043.784, 4.757505
1044.266, 3.960495
1044.748, 2.715417
1045.230, 1.793055
1045.712, 1.191799
1046.195, 0.9728390
1046.677, 1.665541
1047.159, 2.393168
1047.641, 1.807798
1048.123, 0.2157690
1048.605, 9.1883004E-02
1049.087, 2.248722
1049.569, 3.825666
1050.052, 4.204714
1050.534, 3.685851
1051.016, 1.218841
1051.498, 1.242510
1051.980, 1.202369
1052.462, 1.012679
1052.944, 2.639471
1053.426, 2.913970
1053.908, 3.150217
1054.391, 3.836770
1054.873, 4.324553
1055.355, 4.175466
1055.837, 3.729032
1056.319, 3.309979
1056.801, 2.905432
1057.283, 2.405592
1057.765, 1.550570
1058.248, 1.042792
1058.730, 1.216115
1059.212, 1.672883
1059.694, 2.680674
1060.176, 3.371236
1060.658, 2.600546
1061.140, 0.8145820
1061.622, 6.4102001E-02
1062.104, 1.373651
1062.587, 2.442653
1063.069, 2.537598
1063.551, 2.134906
1064.033, 0.8553020
1064.515, 0.2945740
1064.997, 0.2050930
1065.479, 1.914484
1065.961, 2.775312
1066.443, 1.952886
1066.926, 1.132575
1067.408, 0.9713710
1067.890, 1.044251
1068.372, 1.165870
1068.854, 1.333456
1069.336, 1.546989
1069.818, 1.835665
1070.300, 2.266679
1070.782, 2.989604
1071.265, 3.539548
1071.747, 3.873758
1072.229, 3.793248
1072.711, 2.628294
1073.193, 1.403176
1073.675, 1.504095
1074.157, 2.513313
1074.639, 2.830144
1075.122, 1.864046
1075.604, 1.358123
1076.086, 2.801247
1076.568, 4.112667
1077.050, 3.827384
1077.532, 2.992741
1078.014, 2.561244
1078.496, 2.575053
1078.979, 2.924454
1079.461, 3.614194
1079.943, 3.965215
1080.425, 3.159184
1080.907, 2.551591
1081.389, 3.397358
1081.871, 4.362377
1082.353, 3.705867
1082.835, 2.244601
1083.318, 2.169760
1083.800, 3.945529
1084.282, 5.011201
1084.764, 3.334326
1085.246, 1.949812
1085.728, 2.675212
1086.210, 3.961972
1086.692, 4.586729
1087.175, 4.713310
1087.657, 4.994521
1088.139, 5.482805
1088.621, 5.198040
1089.103, 2.935546
1089.585, 0.9676920
1090.067, 7.0360000E-03
1090.549, 2.2417000E-02
1091.031, 1.497658
1091.514, 3.553386
1091.996, 4.841398
1092.478, 5.144612
1092.960, 4.540354
1093.442, 1.806367
1093.924, 0.5037710
1094.406, 3.825947
1094.888, 6.979278
1095.370, 6.217894
1095.853, 3.839914
1096.335, 2.929499
1096.817, 3.441767
1097.299, 3.638364
1097.781, 2.884054
1098.263, 2.307820
1098.745, 2.163128
1099.227, 2.409134
1099.709, 3.600762
1100.192, 4.732732
1100.674, 4.320652
1101.156, 2.916117
1101.638, 2.707739
1102.120, 4.553420
1102.602, 5.889991
1103.084, 6.331432
1103.566, 5.851990
1104.049, 3.054387
1104.531, 0.5708460
1105.013, 1.150183
1105.495, 3.672856
1105.977, 5.263153
1106.459, 5.462749
1106.941, 5.522043
1107.423, 5.756286
1107.906, 5.704168
1108.388, 4.922055
1108.870, 4.145206
1109.352, 4.032828
1109.834, 4.147509
1110.316, 3.392099
1110.798, 1.541647
1111.280, 0.8240090
1111.762, 2.490112
1112.245, 3.666858
1112.727, 3.836912
1113.209, 3.640891
1113.691, 3.209715
1114.173, 2.697230
1114.655, 2.296337
1115.137, 1.998594
1115.619, 1.656927
1116.102, 1.029468
1116.584, 0.8021910
1117.066, 1.401927
1117.548, 1.764422
1118.030, 1.138509
1118.512, 0.5566640
1118.994, 1.248070
1119.476, 2.767942
1119.958, 3.224093
1120.441, 1.935573
1120.923, 1.891253
1121.405, 4.203995
1121.887, 5.189416
1122.369, 3.093626
1122.851, 0.9529430
1123.333, 1.140597
1123.815, 2.676738
1124.297, 3.451077
1124.780, 3.442104
1125.262, 2.883259
1125.744, 1.576669
1126.226, 0.4091820
1126.708, 0.5783680
1127.190, 1.008143
1127.672, 0.5716670
1128.154, 0.2963720
1128.636, 1.005050
1129.119, 1.552681
1129.601, 1.923327
1130.083, 2.122107
1130.565, 2.026517
1131.047, 1.565703
1131.529, 1.388351
1132.011, 1.784744
1132.493, 2.363302
1132.976, 2.773622
1133.458, 2.966367
1133.940, 2.631525
1134.422, 1.851038
1134.904, 1.731113
1135.386, 2.295725
1135.868, 3.135263
1136.350, 4.120445
1136.833, 4.583975
1137.315, 4.084539
1137.797, 3.106078
1138.279, 2.212878
1138.761, 1.601727
1139.243, 1.808325
1139.725, 2.647201
1140.207, 3.525271
1140.689, 4.229427
1141.172, 4.076463
1141.654, 2.758864
1142.136, 1.472811
1142.618, 1.662711
1143.100, 2.507422
1143.582, 2.783391
1144.064, 2.585567
1144.546, 1.782129
1145.029, 0.7249060
1145.511, 0.4208350
1145.993, 1.118826
1146.475, 2.269560
1146.957, 3.782442
1147.439, 4.869132
1147.921, 4.379116
1148.403, 3.334776
1148.885, 2.743798
1149.368, 2.637595
1149.850, 3.193918
1150.332, 4.161881
1150.814, 4.654905
1151.296, 4.290138
1151.778, 3.513543
1152.260, 2.291456
1152.742, 1.101830
1153.224, 0.2899040
1153.707, 1.035378
1154.189, 0.4778870
1154.671, 3.147702
1155.153, 4.345178
1155.635, 3.533032
1156.117, 2.571050
1156.599, 1.483910
1157.081, 1.132154
1157.563, 2.800443
1158.046, 4.171849
1158.528, 3.089202
1159.010, 1.308223
1159.492, 1.571789
1159.974, 3.644334
1160.456, 4.371365
1160.938, 2.438559
1161.420, 1.223387
1161.903, 1.045319
1162.385, 1.337646
1162.867, 2.302606
1163.349, 3.293242
1163.831, 4.012849
1164.313, 4.329468
1164.795, 3.633744
1165.277, 1.795060
1165.760, 0.6747090
1166.242, 0.2111770
1166.724, 0.8819430
1167.206, 3.346620
1167.688, 4.952074
1168.170, 4.072546
1168.652, 2.399167
1169.134, 2.090279
1169.616, 2.876280
1170.099, 3.665545
1170.581, 4.466921
1171.063, 4.364815
1171.545, 3.293753
1172.027, 2.330000
1172.509, 1.795989
1172.991, 1.522975
1173.473, 1.405975
1173.956, 1.323654
1174.438, 0.9897460
1174.920, 0.5493220
1175.402, 0.3332860
1175.884, 0.4358590
1176.366, 1.555194
1176.848, 3.397342
1177.330, 3.866675
1177.813, 2.138726
1178.295, 0.3876790
1178.777, 0.6345370
1179.259, 1.725181
1179.741, 2.533457
1180.223, 3.030619
1180.705, 3.439564
1181.187, 3.614758
1181.669, 2.967803
1182.151, 1.642668
1182.634, 0.8462500
1183.116, 1.211842
1183.598, 1.858092
1184.080, 2.329809
1184.562, 2.825611
1185.044, 4.070307
1185.526, 4.956402
1186.008, 3.682531
1186.490, 1.233128
1186.973, 0.2130030
1187.455, 1.134089
1187.937, 1.849213
1188.419, 1.964654
1188.901, 1.802831
1189.383, 0.9822110
1189.865, 0.4214720
1190.347, 0.8644840
1190.830, 1.569735
1191.312, 1.694847
1191.794, 1.380486
1192.276, 1.404621
1192.758, 2.050895
1193.240, 1.976076
1193.722, 0.9717160
1194.204, 0.2975080
1194.687, 2.086129
1195.169, 2.636730
1195.651, 0.4694240
1196.133, 2.526801
1196.615, 3.245738
1197.097, 2.108385
1197.579, 1.634500
1198.061, 1.799109
1198.543, 2.201050
1199.026, 2.775842
1199.508, 3.225873
1199.990, 3.445315
1200.472, 3.422187
1200.954, 3.108475
1201.436, 2.727717
1201.918, 2.782874
1202.400, 2.921286
1202.883, 1.863916
1203.365, 0.4958460
1203.847, 1.431169
1204.329, 4.188941
1204.811, 5.725753
1205.293, 4.882938
1205.775, 3.985375
1206.257, 5.263350
1206.740, 6.124421
1207.222, 3.665077
1207.704, 0.9371280
1208.186, 0.9284330
1208.668, 2.388655
1209.150, 3.457914
1209.632, 3.895974
1210.114, 4.009082
1210.596, 3.852131
1211.078, 3.406857
1211.561, 2.119504
1212.043, 1.316825
1212.525, 1.786957
1213.007, 2.314874
1213.489, 1.846043
1213.971, 1.174401
1214.453, 1.733155
1214.935, 1.658722
1215.417, 1.711890
1215.900, 2.588571
1216.382, 2.128743
1216.864, 2.847454
1217.346, 3.288158
1217.828, 2.937244
1218.310, 2.499537
1218.792, 2.484040
1219.274, 2.806727
1219.757, 3.668643
1220.239, 4.662687
1220.721, 3.064075
1221.203, 0.2996710
1221.685, 0.9877480
1222.167, 1.075202
1222.649, 3.193095
1223.131, 4.338092
1223.614, 4.577700
1224.096, 3.768055
1224.578, 2.701169
1225.060, 1.928595
1225.542, 1.650542
1226.024, 2.690243
1226.506, 4.034386
1226.988, 3.958286
1227.470, 2.719831
1227.953, 1.467028
1228.435, 0.5286610
1228.917, 0.6839170
1229.399, 3.656268
1229.881, 5.736155
1230.363, 5.432117
1230.845, 4.221092
1231.327, 2.071887
1231.810, 0.1543190
1232.292, 4.5799999E-04
1232.774, 1.226965
1233.256, 2.403545
1233.738, 3.669706
1234.220, 4.229712
1234.702, 3.848641
1235.184, 3.589897
1235.667, 3.810162
1236.149, 3.335305
1236.631, 1.305811
1237.113, 0.4394750
1237.595, 0.5506650
1238.077, 3.090236
1238.559, 3.420515
1239.041, 2.058987
1239.523, 1.606479
1240.005, 2.029979
1240.488, 2.597930
1240.970, 3.697104
1241.452, 3.768799
1241.934, 2.134359
1242.416, 0.6814930
1242.898, 1.459319
1243.380, 2.894747
1243.862, 3.923130
1244.344, 4.301409
1244.827, 3.212278
1245.309, 4.066135
1245.791, 1.988693
1246.273, 3.152428
1246.755, 3.470607
1247.237, 0.4107400
1247.719, 1.712861
1248.201, 1.266851
1248.684, 0.7495600
1249.166, 2.666217
1249.648, 9.8233998E-02
1250.130, 1.976277
1250.612, 2.079544
1251.094, 2.995075
1251.576, 2.151733
1252.058, 1.851650
1252.541, 3.311047
1253.023, 3.796216
1253.505, 2.696565
1253.987, 3.529243
1254.469, 0.8970600
1254.951, 1.420780
1255.433, 3.305745
1255.915, 2.344862
1256.397, 3.340576
1256.880, 2.165307
1257.362, 2.194245
1257.844, 2.042574
1258.326, 2.219221
1258.808, 2.466301
1259.290, 1.804053
1259.772, 0.5109930
1260.254, 0.4721890
1260.737, 2.729991
1261.219, 4.121549
1261.701, 1.528671
1262.183, 0.4347130
1262.665, 0.9846220
1263.147, 2.882912
1263.629, 3.109934
1264.111, 2.490625
1264.594, 2.329379
1265.076, 2.549013
1265.558, 2.445539
1266.040, 1.852410
1266.522, 1.563771
1267.004, 1.747321
1267.486, 1.631640
1267.968, 0.9140540
1268.450, 0.8370140
1268.932, 0.7813590
1269.415, 1.194738
1269.897, 0.9395610
1270.379, 2.231801
1270.861, 2.500471
1271.343, 2.251050
1271.825, 3.698334
1272.307, 3.431016
1272.789, 2.917630
1273.271, 2.528650
1273.754, 2.380550
1274.236, 2.295937
1274.718, 2.223826
1275.200, 1.368209
1275.682, 0.8164860
1276.164, 1.320197
1276.646, 2.241815
1277.128, 3.721485
1277.611, 4.874473
1278.093, 4.121309
1278.575, 5.085505
1279.057, 5.157310
1279.539, 4.425542
1280.021, 4.865008
1280.503, 2.653322
1280.985, 0.9206950
1281.468, 2.5191000E-02
1281.950, 7.4859001E-02
1282.432, 0.7513280
1282.914, 1.538074
1283.396, 1.311967
1283.878, 8.3839996E-03
1284.360, 0.7854510
1284.842, 1.339082
1285.324, 0.0000000E+00
##END=



