##NAMES=Titanite
##RRUFFID=R100025
##IDEAL CHEMISTRY=CaTi^4+^SiO_5_
##LOCALITY=Kharan, Balochistan, Pakistan
##OWNER=RRUFF
##SOURCE=Ikram Mineralogy
##DESCRIPTION=Bluish-gray flattened wedge-shaped crystals
##STATUS=The identification of this mineral has been confirmed by single-crystal X-ray diffraction.
##URL=rruff.info/R100025
92.49744, 0.0000000E+00
92.97955, 15.82166
93.46167, 57.30164
93.94379, 82.99023
94.42590, 102.1704
94.90802, 116.8831
95.39014, 124.2382
95.87225, 123.2657
96.35437, 119.7092
96.83649, 116.6503
97.31860, 113.5311
97.80072, 109.4314
98.28284, 101.0104
98.76495, 88.25562
99.24707, 80.83398
99.72919, 83.10266
100.2113, 86.26562
100.6934, 86.08508
101.1755, 82.96631
101.6577, 79.87170
102.1398, 79.58655
102.6219, 82.69543
103.1040, 86.67212
103.5861, 91.60742
104.0682, 97.83569
104.5504, 106.4653
105.0325, 119.6160
105.5146, 137.4299
105.9967, 155.8164
106.4788, 170.4830
106.9609, 183.8896
107.4431, 192.5629
107.9252, 196.4810
108.4073, 198.5795
108.8894, 198.9518
109.3715, 194.9980
109.8536, 185.4927
110.3358, 173.8961
110.8179, 161.4135
111.3000, 148.0618
111.7821, 133.9933
112.2642, 120.8270
112.7463, 109.7654
113.2285, 99.60437
113.7106, 89.06104
114.1927, 77.78027
114.6748, 66.46252
115.1569, 56.27063
115.6390, 47.75439
116.1212, 38.86133
116.6033, 28.27112
117.0854, 17.28674
117.5675, 7.118408
118.0496, 1.680542
118.5317, 9.196411
119.0139, 15.80798
119.4960, 21.87842
119.9781, 26.46094
120.4602, 29.46448
120.9423, 30.86926
121.4244, 30.48828
121.9066, 27.93811
122.3887, 22.95056
122.8708, 19.44458
123.3529, 18.29333
123.8350, 17.41003
124.3171, 16.26709
124.7993, 14.64648
125.2814, 12.22632
125.7635, 8.496582
126.2456, 3.109863
126.7277, 2.055664
127.2098, 7.549316
127.6920, 12.51306
128.1741, 15.89087
128.6562, 17.24133
129.1383, 17.79102
129.6204, 19.24878
130.1025, 21.52637
130.5847, 23.01953
131.0668, 22.75098
131.5489, 21.10962
132.0310, 19.38550
132.5131, 17.67773
132.9952, 16.23975
133.4774, 15.09570
133.9595, 14.25537
134.4416, 14.01855
134.9237, 14.62207
135.4058, 16.11646
135.8879, 18.41724
136.3701, 21.37305
136.8522, 25.29883
137.3343, 30.18970
137.8164, 36.18628
138.2985, 43.73193
138.7806, 53.97339
139.2628, 68.68481
139.7449, 83.13794
140.2270, 97.64722
140.7091, 111.4529
141.1912, 123.4995
141.6733, 133.2249
142.1555, 141.6301
142.6376, 151.8999
143.1197, 173.8164
143.6018, 186.4927
144.0839, 184.3887
144.5660, 171.8586
145.0482, 155.1565
145.5303, 137.3879
146.0124, 118.9453
146.4945, 102.6323
146.9766, 86.21680
147.4587, 73.44580
147.9409, 66.26099
148.4230, 64.27612
148.9051, 65.53735
149.3872, 68.65674
149.8693, 74.47485
150.3514, 85.86792
150.8336, 102.8545
151.3157, 123.1541
151.7978, 144.2800
152.2799, 165.9829
152.7620, 191.1072
153.2441, 224.0913
153.7263, 262.0061
154.2084, 301.3435
154.6905, 339.5625
155.1726, 378.2739
155.6547, 422.4246
156.1368, 475.5347
156.6190, 527.3340
157.1011, 573.0757
157.5832, 613.8052
158.0653, 652.0205
158.5474, 689.3623
159.0295, 725.6318
159.5117, 758.2441
159.9938, 789.6521
160.4759, 814.1958
160.9580, 830.0925
161.4401, 837.5415
161.9222, 837.3657
162.4044, 830.1541
162.8865, 815.6938
163.3686, 794.3291
163.8507, 767.4258
164.3328, 733.1018
164.8149, 688.6050
165.2971, 634.6707
165.7792, 575.6633
166.2613, 515.4685
166.7434, 452.0466
167.2255, 395.0081
167.7076, 345.7214
168.1898, 300.5828
168.6719, 257.1125
169.1540, 214.6946
169.6361, 174.9995
170.1182, 140.2847
170.6003, 111.2905
171.0825, 86.81934
171.5646, 67.03491
172.0467, 51.74976
172.5288, 41.53076
173.0109, 36.86548
173.4930, 35.38062
173.9752, 33.52563
174.4573, 30.98975
174.9394, 29.14160
175.4215, 28.15845
175.9036, 28.04419
176.3857, 29.17383
176.8679, 32.34497
177.3500, 36.07275
177.8321, 38.15283
178.3142, 38.55811
178.7963, 39.35986
179.2784, 41.99512
179.7606, 46.49902
180.2427, 51.60718
180.7248, 57.59082
181.2069, 63.09229
181.6890, 66.87793
182.1711, 68.87280
182.6533, 70.28711
183.1354, 72.76660
183.6175, 76.75635
184.0996, 79.13428
184.5817, 77.41846
185.0638, 74.47241
185.5460, 71.18677
186.0281, 67.86084
186.5102, 65.67993
186.9923, 66.32324
187.4744, 70.22095
187.9565, 76.04907
188.4387, 83.51343
188.9208, 92.60376
189.4029, 103.4407
189.8850, 116.0994
190.3671, 130.1394
190.8492, 145.1169
191.3314, 161.1372
191.8135, 177.8372
192.2956, 194.9692
192.7777, 212.6755
193.2598, 230.8479
193.7419, 249.4165
194.2241, 268.8774
194.7062, 290.3765
195.1883, 317.3687
195.6704, 342.6497
196.1525, 364.2869
196.6346, 384.6191
197.1168, 406.1128
197.5989, 429.8032
198.0810, 455.5513
198.5631, 483.1318
199.0452, 513.0737
199.5273, 544.0002
200.0095, 575.0400
200.4916, 606.9580
200.9737, 641.3633
201.4558, 679.3684
201.9379, 719.9998
202.4200, 761.6641
202.9022, 804.6848
203.3843, 847.5320
203.8664, 889.4517
204.3485, 930.8271
204.8306, 972.5950
205.3127, 1015.622
205.7949, 1058.730
206.2770, 1099.291
206.7591, 1137.672
207.2412, 1173.620
207.7233, 1206.713
208.2054, 1237.221
208.6876, 1265.596
209.1697, 1290.352
209.6518, 1314.316
210.1339, 1341.512
210.6160, 1372.740
211.0981, 1405.745
211.5803, 1437.525
212.0624, 1467.602
212.5445, 1499.998
213.0266, 1536.625
213.5087, 1575.883
213.9908, 1616.080
214.4730, 1656.528
214.9551, 1698.513
215.4372, 1743.947
215.9193, 1793.989
216.4014, 1841.717
216.8836, 1882.839
217.3657, 1921.875
217.8478, 1961.772
218.3299, 2003.104
218.8120, 2045.996
219.2941, 2091.265
219.7763, 2140.935
220.2584, 2185.910
220.7405, 2222.896
221.2226, 2256.199
221.7047, 2288.358
222.1868, 2320.101
222.6690, 2350.945
223.1511, 2380.146
223.6332, 2407.865
224.1153, 2433.683
224.5974, 2458.452
225.0795, 2481.117
225.5617, 2500.491
226.0438, 2516.374
226.5259, 2529.943
227.0080, 2543.454
227.4901, 2558.632
227.9722, 2570.167
228.4544, 2578.674
228.9365, 2583.729
229.4186, 2584.720
229.9007, 2581.564
230.3828, 2574.801
230.8649, 2565.518
231.3471, 2555.457
231.8292, 2538.988
232.3113, 2512.489
232.7934, 2482.346
233.2755, 2454.438
233.7576, 2430.255
234.2398, 2405.620
234.7219, 2373.851
235.2040, 2329.245
235.6861, 2286.817
236.1682, 2247.318
236.6503, 2209.472
237.1325, 2172.528
237.6146, 2136.372
238.0967, 2100.677
238.5788, 2064.890
239.0609, 2028.442
239.5430, 1993.860
240.0252, 1960.359
240.5073, 1929.366
240.9894, 1902.197
241.4715, 1879.051
241.9536, 1860.428
242.4357, 1847.747
242.9179, 1842.463
243.4000, 1837.151
243.8821, 1831.134
244.3642, 1824.814
244.8463, 1818.654
245.3284, 1812.739
245.8106, 1806.878
246.2927, 1801.293
246.7748, 1796.100
247.2569, 1788.759
247.7390, 1779.119
248.2211, 1767.005
248.7033, 1752.106
249.1854, 1734.303
249.6675, 1714.062
250.1496, 1691.396
250.6317, 1666.348
251.1138, 1639.375
251.5960, 1612.822
252.0781, 1583.379
252.5602, 1544.911
253.0423, 1495.928
253.5244, 1444.683
254.0065, 1400.290
254.4887, 1360.028
254.9708, 1315.644
255.4529, 1264.201
255.9350, 1207.955
256.4171, 1149.507
256.8992, 1088.384
257.3813, 1027.699
257.8635, 971.3779
258.3456, 916.8103
258.8277, 858.5061
259.3098, 792.1008
259.7919, 723.2910
260.2740, 660.9868
260.7562, 606.4341
261.2383, 553.0505
261.7204, 495.4524
262.2025, 436.9958
262.6846, 381.1768
263.1667, 328.2539
263.6489, 279.3086
264.1310, 236.3914
264.6131, 200.6023
265.0952, 166.0288
265.5773, 127.5608
266.0594, 90.21973
266.5416, 59.60522
267.0237, 38.22119
267.5058, 21.33765
267.9879, 1.485107
268.4700, 22.93506
268.9521, 42.52002
269.4343, 50.96191
269.9164, 54.72803
270.3985, 58.06567
270.8806, 62.01318
271.3627, 65.38940
271.8448, 66.71753
272.3270, 65.82300
272.8091, 63.83887
273.2912, 62.85547
273.7733, 59.59985
274.2554, 51.41968
274.7375, 37.89062
275.2197, 21.42334
275.7018, 4.788330
276.1839, 11.51025
276.6660, 30.74854
277.1481, 54.87891
277.6302, 81.15161
278.1124, 108.1863
278.5945, 135.9875
279.0766, 165.0515
279.5587, 196.5066
280.0408, 230.8535
280.5229, 263.8091
281.0051, 289.5007
281.4872, 318.7930
281.9693, 358.1592
282.4514, 405.7922
282.9335, 455.0249
283.4156, 499.3359
283.8978, 538.5356
284.3799, 581.9143
284.8620, 635.6365
285.3441, 687.4172
285.8262, 732.9534
286.3083, 773.2151
286.7905, 810.7578
287.2726, 846.2676
287.7547, 880.4519
288.2368, 919.1006
288.7189, 967.9937
289.2010, 1014.038
289.6832, 1053.345
290.1653, 1087.271
290.6474, 1118.052
291.1295, 1146.473
291.6116, 1172.999
292.0938, 1199.411
292.5759, 1225.978
293.0580, 1252.146
293.5401, 1276.464
294.0222, 1301.021
294.5043, 1327.486
294.9865, 1356.553
295.4686, 1388.905
295.9507, 1426.620
296.4328, 1472.907
296.9149, 1519.092
297.3970, 1564.433
297.8792, 1609.010
298.3613, 1653.869
298.8434, 1699.138
299.3255, 1741.722
299.8076, 1775.390
300.2897, 1794.265
300.7719, 1818.421
301.2540, 1856.381
301.7361, 1893.612
302.2182, 1920.788
302.7003, 1936.472
303.1824, 1945.930
303.6646, 1955.921
304.1467, 1968.290
304.6288, 1975.637
305.1109, 1974.430
305.5930, 1971.081
306.0751, 1968.586
306.5573, 1966.937
307.0394, 1964.403
307.5215, 1959.350
308.0036, 1951.532
308.4857, 1941.555
308.9678, 1930.166
309.4500, 1915.670
309.9321, 1896.955
310.4142, 1874.488
310.8963, 1849.153
311.3784, 1821.025
311.8605, 1790.254
312.3427, 1760.401
312.8248, 1736.273
313.3069, 1707.419
313.7890, 1669.794
314.2711, 1626.663
314.7532, 1582.265
315.2354, 1538.998
315.7175, 1496.084
316.1996, 1451.781
316.6817, 1406.615
317.1638, 1358.521
317.6459, 1307.113
318.1281, 1253.192
318.6102, 1196.664
319.0923, 1137.768
319.5744, 1078.884
320.0565, 1023.687
320.5386, 972.0596
321.0208, 924.9878
321.5029, 885.2192
321.9850, 847.3035
322.4671, 805.9741
322.9492, 761.5754
323.4313, 720.2271
323.9135, 689.0342
324.3956, 670.2856
324.8777, 650.3069
325.3598, 625.1370
325.8419, 602.2871
326.3240, 584.2715
326.8062, 570.3772
327.2883, 558.1934
327.7704, 545.6277
328.2525, 532.8733
328.7346, 522.6521
329.2167, 518.0945
329.6989, 512.7910
330.1810, 505.6392
330.6631, 496.8518
331.1452, 486.7131
331.6273, 475.4592
332.1094, 463.4849
332.5916, 451.7822
333.0737, 442.0544
333.5558, 429.5713
334.0379, 411.6802
334.5200, 391.4341
335.0021, 371.8586
335.4843, 353.8928
335.9664, 336.9229
336.4485, 320.5557
336.9306, 305.7576
337.4127, 288.4197
337.8948, 266.9065
338.3770, 243.7422
338.8591, 220.0820
339.3412, 196.0635
339.8233, 171.6611
340.3055, 146.1387
340.7876, 119.2776
341.2697, 94.31982
341.7518, 69.36450
342.2339, 48.79810
342.7160, 35.54858
343.1982, 28.06274
343.6803, 22.64062
344.1624, 17.31519
344.6445, 11.96191
345.1266, 5.638428
345.6087, 3.356689
346.0909, 10.39062
346.5730, 14.28760
347.0551, 15.61963
347.5372, 14.91089
348.0193, 12.21484
348.5014, 8.087158
348.9836, 3.327881
349.4657, 2.237061
349.9478, 7.789795
350.4299, 13.62915
350.9120, 19.07910
351.3941, 23.82324
351.8763, 27.76758
352.3584, 30.41772
352.8405, 30.79004
353.3226, 28.81714
353.8047, 27.12500
354.2868, 26.71094
354.7690, 25.91357
355.2511, 23.23633
355.7332, 19.11084
356.2153, 15.45190
356.6974, 15.05688
357.1795, 16.38818
357.6617, 12.56738
358.1438, 0.7226560
358.6259, 10.39990
359.1080, 15.76929
359.5901, 17.25244
360.0722, 17.29443
360.5544, 15.57544
361.0365, 14.17432
361.5186, 17.03101
362.0007, 24.89746
362.4828, 31.01050
362.9649, 30.91211
363.4471, 28.57373
363.9292, 28.73560
364.4113, 32.35938
364.8934, 36.27759
365.3755, 38.03760
365.8576, 37.94336
366.3398, 37.73071
366.8219, 38.01587
367.3040, 37.90918
367.7861, 36.89307
368.2682, 34.97437
368.7503, 31.28931
369.2325, 24.14722
369.7146, 15.36108
370.1967, 9.146484
370.6788, 6.620605
371.1609, 1.648438
371.6430, 12.44189
372.1252, 33.05103
372.6073, 51.03345
373.0894, 62.03296
373.5715, 72.49829
374.0536, 86.84937
374.5357, 104.8401
375.0179, 125.5935
375.5000, 148.3613
375.9821, 173.8059
376.4642, 203.9663
376.9463, 240.7786
377.4284, 276.8413
377.9106, 306.0327
378.3927, 333.3142
378.8748, 367.2334
379.3569, 410.1602
379.8390, 459.1997
380.3211, 511.5439
380.8033, 567.4050
381.2854, 625.8247
381.7675, 683.8564
382.2496, 746.0955
382.7317, 816.5403
383.2138, 895.2859
383.6960, 979.8608
384.1781, 1069.080
384.6602, 1162.659
385.1423, 1262.047
385.6244, 1366.833
386.1065, 1476.620
386.5887, 1591.388
387.0708, 1710.490
387.5529, 1833.475
388.0350, 1960.287
388.5171, 2090.880
388.9992, 2225.613
389.4814, 2363.048
389.9635, 2507.422
390.4456, 2658.388
390.9277, 2816.439
391.4098, 2984.231
391.8919, 3160.468
392.3741, 3340.846
392.8562, 3519.922
393.3383, 3697.493
393.8204, 3881.445
394.3025, 4076.383
394.7846, 4272.724
395.2668, 4467.359
395.7489, 4661.687
396.2310, 4859.597
396.7131, 5064.253
397.1952, 5272.200
397.6773, 5472.564
398.1595, 5664.751
398.6416, 5850.333
399.1237, 6031.405
399.6058, 6205.961
400.0879, 6373.825
400.5700, 6534.489
401.0522, 6684.660
401.5343, 6823.327
402.0164, 6950.600
402.4985, 7060.469
402.9806, 7151.450
403.4627, 7223.368
403.9449, 7274.398
404.4270, 7306.477
404.9091, 7324.554
405.3912, 7333.848
405.8733, 7330.376
406.3554, 7300.700
406.8376, 7240.968
407.3197, 7163.491
407.8018, 7069.018
408.2839, 6961.655
408.7660, 6845.035
409.2481, 6718.804
409.7303, 6584.066
410.2124, 6442.060
410.6945, 6292.696
411.1766, 6129.452
411.6587, 5943.474
412.1408, 5751.459
412.6230, 5570.653
413.1051, 5399.521
413.5872, 5226.298
414.0693, 5043.403
414.5514, 4856.263
415.0335, 4675.023
415.5157, 4500.391
415.9978, 4327.217
416.4799, 4150.142
416.9620, 3973.150
417.4441, 3806.537
417.9262, 3653.223
418.4084, 3506.958
418.8905, 3364.837
419.3726, 3227.074
419.8547, 3095.761
420.3368, 2972.241
420.8189, 2854.578
421.3011, 2740.478
421.7832, 2630.642
422.2653, 2522.854
422.7474, 2415.529
423.2295, 2311.274
423.7116, 2211.518
424.1938, 2116.066
424.6759, 2023.306
425.1580, 1931.511
425.6401, 1841.017
426.1222, 1754.682
426.6043, 1671.430
427.0865, 1593.153
427.5686, 1520.436
428.0507, 1451.738
428.5328, 1384.498
429.0149, 1318.069
429.4970, 1255.320
429.9792, 1200.483
430.4613, 1156.457
430.9434, 1112.268
431.4255, 1066.641
431.9076, 1023.047
432.3897, 982.9404
432.8719, 946.5027
433.3540, 913.3472
433.8361, 883.3267
434.3182, 856.5303
434.8003, 833.2334
435.2824, 815.4175
435.7646, 798.4736
436.2467, 779.3521
436.7288, 761.3132
437.2109, 748.7300
437.6930, 743.0122
438.1751, 739.6567
438.6573, 732.4585
439.1394, 720.9688
439.6215, 711.8564
440.1036, 706.4663
440.5857, 703.2969
441.0678, 700.6099
441.5500, 698.9136
442.0321, 700.1604
442.5142, 707.8533
442.9963, 718.1196
443.4784, 722.9392
443.9605, 721.4119
444.4427, 721.5667
444.9248, 728.7969
445.4069, 739.5310
445.8890, 746.6587
446.3711, 747.7854
446.8532, 751.3438
447.3354, 764.1060
447.8175, 782.4041
448.2996, 799.0405
448.7817, 812.7253
449.2638, 822.3853
449.7459, 824.6738
450.2281, 819.0068
450.7102, 820.2993
451.1923, 834.9995
451.6744, 851.5496
452.1565, 862.3923
452.6386, 868.8718
453.1208, 875.5984
453.6029, 884.7927
454.0850, 896.5300
454.5671, 911.0759
455.0492, 931.9155
455.5313, 950.9136
456.0135, 966.1018
456.4956, 980.6943
456.9777, 997.7063
457.4598, 1017.274
457.9419, 1037.460
458.4240, 1056.384
458.9062, 1073.978
459.3883, 1093.554
459.8704, 1116.697
460.3525, 1140.380
460.8346, 1164.287
461.3167, 1188.243
461.7989, 1212.545
462.2810, 1237.455
462.7631, 1261.267
463.2452, 1280.633
463.7273, 1294.516
464.2094, 1310.279
464.6916, 1335.212
465.1737, 1355.752
465.6558, 1363.732
466.1379, 1360.449
466.6200, 1352.105
467.1021, 1342.805
467.5843, 1330.223
468.0664, 1310.240
468.5485, 1282.821
469.0306, 1247.679
469.5127, 1204.725
469.9948, 1153.102
470.4770, 1092.477
470.9591, 1021.044
471.4412, 947.5017
471.9233, 875.2666
472.4054, 804.0300
472.8875, 734.4575
473.3697, 666.8076
473.8518, 598.3286
474.3339, 525.3105
474.8160, 448.2073
475.2981, 377.4346
475.7802, 313.4521
476.2624, 255.3169
476.7445, 202.7832
477.2266, 155.4153
477.7087, 113.0134
478.1908, 75.15942
478.6729, 41.59131
479.1551, 12.01587
479.6372, 12.96826
480.1193, 35.20288
480.6014, 56.71387
481.0835, 74.24365
481.5656, 84.93872
482.0478, 89.95898
482.5299, 92.49365
483.0120, 94.54150
483.4941, 95.87573
483.9762, 95.97559
484.4583, 96.15088
484.9405, 92.12866
485.4226, 80.86646
485.9047, 66.91504
486.3868, 54.05981
486.8689, 42.62988
487.3510, 30.04346
487.8332, 13.60278
488.3153, 5.918213
488.7974, 25.46753
489.2795, 45.03027
489.7616, 64.30566
490.2437, 81.52734
490.7259, 98.73291
491.2080, 119.8645
491.6901, 146.5750
492.1722, 175.0276
492.6543, 203.4690
493.1364, 231.3923
493.6186, 256.6248
494.1007, 278.3254
494.5828, 299.6211
495.0649, 324.2573
495.5470, 352.6179
496.0291, 381.1169
496.5113, 410.9905
496.9934, 439.9065
497.4755, 465.5813
497.9576, 489.2493
498.4397, 514.3979
498.9218, 542.6387
499.4040, 572.0671
499.8861, 597.8206
500.3682, 616.2373
500.8503, 637.4038
501.3324, 662.8860
501.8145, 689.5173
502.2967, 715.9487
502.7788, 741.9155
503.2609, 767.8662
503.7430, 794.6636
504.2251, 821.3770
504.7072, 843.7334
505.1894, 860.1328
505.6715, 876.4736
506.1536, 892.5876
506.6357, 910.6057
507.1178, 932.8210
507.5999, 959.2612
508.0821, 986.5520
508.5642, 1012.538
509.0463, 1036.983
509.5284, 1059.250
510.0105, 1078.998
510.4926, 1099.838
510.9748, 1125.112
511.4569, 1151.470
511.9390, 1172.056
512.4211, 1184.622
512.9032, 1194.208
513.3853, 1201.188
513.8674, 1207.358
514.3495, 1216.761
514.8317, 1230.249
515.3138, 1243.711
515.7959, 1252.822
516.2780, 1257.460
516.7601, 1258.799
517.2422, 1254.233
517.7244, 1249.849
518.2065, 1248.483
518.6886, 1248.329
519.1707, 1246.755
519.6528, 1242.832
520.1349, 1237.375
520.6171, 1232.025
521.0992, 1227.802
521.5813, 1219.656
522.0634, 1202.185
522.5455, 1186.145
523.0276, 1178.439
523.5098, 1174.522
523.9919, 1165.466
524.4740, 1146.581
524.9561, 1123.024
525.4382, 1101.012
525.9203, 1080.623
526.4025, 1063.110
526.8846, 1050.450
527.3667, 1038.639
527.8488, 1022.593
528.3309, 1003.226
528.8130, 986.5369
529.2952, 977.2185
529.7773, 969.0603
530.2594, 955.6938
530.7415, 938.0950
531.2236, 920.8186
531.7057, 905.5652
532.1879, 892.6313
532.6700, 882.7087
533.1521, 876.6848
533.6342, 871.9905
534.1163, 869.8789
534.5984, 868.0088
535.0806, 866.2034
535.5627, 863.3687
536.0448, 855.9292
536.5269, 840.9126
537.0090, 822.3499
537.4911, 813.7737
537.9733, 822.9697
538.4554, 824.8066
538.9375, 812.2073
539.4196, 795.9695
539.9017, 782.9573
540.3839, 772.9209
540.8660, 761.3931
541.3481, 745.0127
541.8302, 725.6309
542.3123, 706.8271
542.7944, 688.8423
543.2766, 672.8848
543.7587, 661.0303
544.2408, 650.1641
544.7229, 635.3262
545.2050, 615.9927
545.6871, 598.8276
546.1693, 586.2988
546.6514, 576.5669
547.1335, 568.8315
547.6156, 562.5259
548.0977, 556.0425
548.5798, 548.7983
549.0620, 539.8892
549.5441, 526.5381
550.0262, 502.5610
550.5083, 482.2300
550.9904, 469.4175
551.4725, 457.2856
551.9547, 441.0596
552.4368, 420.5220
552.9189, 397.3774
553.4010, 372.5449
553.8831, 346.6475
554.3652, 322.6060
554.8474, 301.1582
555.3295, 280.0200
555.8116, 259.7607
556.2937, 238.8364
556.7758, 215.6665
557.2579, 190.4424
557.7401, 165.4136
558.2222, 142.2041
558.7043, 120.0029
559.1864, 96.12354
559.6685, 70.59375
560.1506, 48.05713
560.6328, 31.13184
561.1149, 18.36230
561.5970, 7.066895
562.0791, 1.903809
562.5612, 12.37354
563.0433, 25.61279
563.5255, 40.21680
564.0076, 56.13818
564.4897, 72.60059
564.9718, 88.03027
565.4539, 101.6782
565.9360, 112.7153
566.4182, 117.7339
566.9003, 111.6426
567.3824, 109.0679
567.8645, 117.2485
568.3466, 123.5352
568.8287, 119.2881
569.3109, 105.5786
569.7930, 89.02979
570.2751, 73.27686
570.7572, 57.57227
571.2393, 41.29736
571.7214, 24.83057
572.2036, 4.132324
572.6857, 22.24805
573.1678, 53.07422
573.6499, 87.71484
574.1320, 125.8799
574.6141, 164.4321
575.0963, 200.0591
575.5784, 237.4888
576.0605, 280.6816
576.5426, 329.1514
577.0247, 381.6895
577.5068, 437.8076
577.9890, 496.0610
578.4711, 553.6084
578.9532, 608.9956
579.4353, 667.5796
579.9174, 728.4907
580.3995, 793.1055
580.8817, 863.6904
581.3638, 937.9775
581.8459, 1010.863
582.3280, 1079.736
582.8101, 1148.960
583.2922, 1226.877
583.7744, 1313.821
584.2565, 1402.019
584.7386, 1491.253
585.2207, 1581.840
585.7029, 1674.627
586.1850, 1769.053
586.6671, 1863.637
587.1492, 1957.479
587.6313, 2052.797
588.1135, 2149.494
588.5956, 2249.132
589.0777, 2356.889
589.5598, 2474.020
590.0419, 2594.062
590.5240, 2709.959
591.0062, 2821.106
591.4883, 2931.690
591.9704, 3043.088
592.4525, 3152.544
592.9346, 3256.837
593.4167, 3360.084
593.8989, 3468.347
594.3810, 3582.187
594.8631, 3697.715
595.3452, 3810.762
595.8273, 3921.509
596.3094, 4034.121
596.7916, 4150.118
597.2737, 4265.658
597.7558, 4381.580
598.2379, 4495.567
598.7200, 4605.078
599.2021, 4709.776
599.6843, 4810.465
600.1664, 4904.875
600.6485, 4997.243
601.1306, 5095.773
601.6127, 5199.666
602.0948, 5300.069
602.5770, 5391.488
603.0591, 5476.304
603.5412, 5561.109
604.0233, 5646.500
604.5054, 5730.771
604.9875, 5817.092
605.4697, 5899.880
605.9518, 5974.548
606.4339, 6042.572
606.9160, 6106.474
607.3981, 6166.942
607.8802, 6227.549
608.3624, 6296.794
608.8445, 6376.108
609.3266, 6452.121
609.8087, 6522.980
610.2908, 6589.598
610.7729, 6652.864
611.2551, 6712.999
611.7372, 6770.583
612.2193, 6821.915
612.7014, 6875.545
613.1835, 6941.537
613.6656, 7013.765
614.1478, 7078.622
614.6299, 7132.448
615.1120, 7181.354
615.5941, 7231.162
616.0762, 7281.916
616.5583, 7330.359
617.0405, 7378.802
617.5226, 7422.096
618.0047, 7459.378
618.4868, 7491.311
618.9689, 7516.533
619.4510, 7535.955
619.9332, 7554.665
620.4153, 7577.929
620.8974, 7603.866
621.3795, 7626.924
621.8616, 7648.031
622.3438, 7660.356
622.8259, 7656.023
623.3080, 7646.716
623.7901, 7651.040
624.2722, 7670.673
624.7543, 7680.794
625.2365, 7667.381
625.7186, 7647.014
626.2007, 7634.049
626.6828, 7626.736
627.1649, 7617.688
627.6470, 7603.725
628.1292, 7585.312
628.6113, 7562.892
629.0934, 7535.647
629.5755, 7507.099
630.0576, 7477.814
630.5397, 7445.605
631.0219, 7409.274
631.5040, 7369.451
631.9861, 7327.237
632.4682, 7283.259
632.9503, 7236.255
633.4324, 7186.718
633.9146, 7132.620
634.3967, 7067.578
634.8788, 6990.812
635.3609, 6910.236
635.8430, 6831.218
636.3251, 6751.267
636.8073, 6663.833
637.2894, 6565.706
637.7715, 6468.622
638.2536, 6377.756
638.7357, 6285.112
639.2178, 6185.701
639.7000, 6078.947
640.1821, 5963.830
640.6642, 5838.811
641.1463, 5709.789
641.6284, 5589.610
642.1105, 5482.611
642.5927, 5361.212
643.0748, 5212.583
643.5569, 5063.785
644.0390, 4929.933
644.5211, 4805.830
645.0032, 4681.192
645.4854, 4552.468
645.9675, 4423.545
646.4496, 4297.337
646.9317, 4172.746
647.4138, 4047.783
647.8959, 3921.409
648.3781, 3791.973
648.8602, 3657.970
649.3423, 3521.775
649.8244, 3398.887
650.3065, 3299.678
650.7886, 3198.271
651.2708, 3090.665
651.7529, 2982.801
652.2350, 2879.389
652.7171, 2779.496
653.1992, 2678.715
653.6813, 2572.586
654.1635, 2468.351
654.6456, 2378.270
655.1277, 2301.337
655.6098, 2225.516
656.0919, 2148.862
656.5740, 2072.041
657.0562, 1994.563
657.5383, 1917.453
658.0204, 1846.556
658.5025, 1785.802
658.9846, 1726.711
659.4667, 1667.896
659.9489, 1609.539
660.4310, 1551.207
660.9131, 1493.465
661.3952, 1438.419
661.8773, 1387.405
662.3594, 1339.259
662.8416, 1289.224
663.3237, 1236.077
663.8058, 1184.824
664.2879, 1135.275
664.7700, 1088.866
665.2521, 1046.671
665.7343, 1008.229
666.2164, 972.0928
666.6985, 938.4482
667.1806, 905.9253
667.6627, 873.8462
668.1448, 842.0869
668.6270, 810.2925
669.1091, 778.6118
669.5912, 746.9707
670.0733, 715.2607
670.5554, 683.8892
671.0375, 655.0620
671.5197, 632.3613
672.0018, 606.4434
672.4839, 571.7051
672.9660, 537.8267
673.4481, 513.1099
673.9302, 495.6484
674.4124, 476.8706
674.8945, 452.1250
675.3766, 425.0913
675.8587, 399.9229
676.3408, 376.4268
676.8229, 353.4927
677.3051, 330.5815
677.7872, 309.5645
678.2693, 292.4194
678.7514, 278.8237
679.2335, 264.9805
679.7156, 250.1768
680.1978, 236.0283
680.6799, 224.8159
681.1620, 212.7544
681.6441, 196.5791
682.1262, 176.4062
682.6083, 154.0859
683.0905, 129.4434
683.5726, 105.9697
684.0547, 91.58984
684.5368, 86.33057
685.0189, 78.46045
685.5010, 64.39111
685.9832, 50.53076
686.4653, 43.15479
686.9474, 40.83789
687.4295, 36.22852
687.9116, 27.49756
688.3937, 18.72314
688.8759, 11.75781
689.3580, 4.890137
689.8401, 4.853516
690.3222, 16.51709
690.8043, 25.19727
691.2864, 27.42920
691.7686, 25.83252
692.2507, 26.53369
692.7328, 29.71191
693.2149, 34.04980
693.6970, 40.00830
694.1791, 46.13135
694.6613, 52.08154
695.1434, 57.40430
695.6255, 61.00391
696.1076, 62.33447
696.5897, 62.70898
697.0718, 62.21387
697.5540, 61.45898
698.0361, 61.83936
698.5182, 62.91992
699.0003, 62.00732
699.4824, 57.25439
699.9645, 50.54883
700.4467, 46.65430
700.9288, 46.45557
701.4109, 45.84912
701.8930, 46.20703
702.3751, 44.01709
702.8572, 34.91016
703.3394, 23.06104
703.8215, 16.26562
704.3036, 17.53564
704.7857, 17.91748
705.2678, 10.24219
705.7499, 0.3188480
706.2321, 5.324707
706.7142, 5.637695
707.1963, 9.758789
707.6784, 22.54248
708.1605, 39.06396
708.6426, 48.96777
709.1248, 49.12207
709.6069, 53.88770
710.0890, 66.55176
710.5711, 80.11523
711.0532, 92.60010
711.5353, 104.3804
712.0175, 116.9507
712.4996, 130.8057
712.9817, 140.9077
713.4638, 137.9688
713.9459, 133.0322
714.4280, 143.9097
714.9102, 168.2832
715.3923, 191.8457
715.8744, 208.6528
716.3565, 220.8066
716.8386, 230.8037
717.3207, 237.8530
717.8029, 248.2490
718.2850, 264.1250
718.7671, 280.8091
719.2492, 297.5767
719.7313, 314.4224
720.2134, 331.9136
720.6956, 349.8628
721.1777, 366.5356
721.6598, 377.6592
722.1419, 389.1587
722.6240, 411.0239
723.1061, 440.3999
723.5883, 465.8921
724.0704, 484.1099
724.5525, 498.4148
725.0346, 512.0640
725.5167, 525.0964
725.9988, 538.8181
726.4810, 551.9309
726.9631, 567.7495
727.4452, 588.6711
727.9273, 610.7695
728.4094, 630.6206
728.8915, 648.8691
729.3737, 668.5806
729.8558, 691.2600
730.3379, 716.0142
730.8200, 744.0044
731.3021, 773.2075
731.7842, 797.5488
732.2664, 816.0015
732.7485, 832.5034
733.2306, 850.0713
733.7127, 867.8403
734.1948, 881.9517
734.6769, 886.8857
735.1591, 898.3677
735.6412, 922.7397
736.1233, 947.3071
736.6054, 965.4846
737.0875, 979.2192
737.5696, 992.4089
738.0518, 1006.069
738.5339, 1020.592
739.0160, 1037.093
739.4981, 1054.387
739.9802, 1070.145
740.4623, 1084.362
740.9445, 1098.542
741.4266, 1113.402
741.9087, 1128.639
742.3908, 1144.165
742.8729, 1161.261
743.3550, 1173.088
743.8372, 1173.920
744.3193, 1176.238
744.8014, 1185.201
745.2835, 1196.268
745.7656, 1204.504
746.2477, 1209.256
746.7299, 1212.907
747.2120, 1216.905
747.6941, 1220.147
748.1762, 1221.102
748.6583, 1220.363
749.1404, 1220.134
749.6226, 1221.129
750.1047, 1221.500
750.5868, 1219.670
751.0689, 1215.411
751.5510, 1205.827
752.0331, 1186.068
752.5153, 1170.436
752.9974, 1167.897
753.4795, 1164.335
753.9616, 1148.626
754.4437, 1124.341
754.9258, 1103.868
755.4080, 1092.560
755.8901, 1082.413
756.3722, 1068.398
756.8543, 1052.027
757.3364, 1035.601
757.8185, 1019.453
758.3007, 1002.341
758.7828, 983.4363
759.2649, 963.2769
759.7470, 942.8757
760.2291, 922.1924
760.7112, 901.7798
761.1934, 881.9609
761.6755, 861.9053
762.1576, 840.9443
762.6397, 819.1455
763.1218, 797.1768
763.6039, 775.1262
764.0861, 752.3152
764.5682, 726.4434
765.0503, 701.4568
765.5324, 681.2583
766.0145, 664.0505
766.4966, 645.9646
766.9788, 625.9717
767.4609, 605.8420
767.9430, 587.7881
768.4251, 570.9958
768.9072, 551.3711
769.3893, 528.9438
769.8715, 503.7485
770.3536, 472.9258
770.8357, 442.8625
771.3178, 420.7407
771.7999, 405.4653
772.2820, 390.3308
772.7642, 375.3818
773.2463, 359.5044
773.7284, 341.7151
774.2105, 323.0378
774.6926, 303.9497
775.1747, 285.2153
775.6569, 268.6233
776.1390, 255.1201
776.6211, 242.9875
777.1032, 228.6802
777.5853, 213.2246
778.0674, 203.3076
778.5496, 200.0752
779.0317, 195.5613
779.5138, 184.5801
779.9959, 171.3960
780.4780, 164.1611
780.9601, 165.1875
781.4423, 162.4343
781.9244, 150.8091
782.4065, 141.4363
782.8886, 140.4580
783.3707, 142.1794
783.8528, 139.0564
784.3350, 131.0027
784.8171, 125.2749
785.2992, 128.1650
785.7813, 133.2258
786.2634, 131.9822
786.7455, 126.1731
787.2277, 120.2788
787.7098, 115.3438
788.1919, 112.9944
788.6740, 114.8850
789.1561, 119.8972
789.6382, 123.8848
790.1204, 125.5913
790.6025, 129.4150
791.0846, 138.8591
791.5667, 146.7988
792.0488, 150.9673
792.5309, 151.3442
793.0131, 146.9258
793.4952, 136.7898
793.9773, 128.1165
794.4594, 124.7649
794.9415, 123.9373
795.4236, 125.0178
795.9058, 126.1980
796.3879, 122.6135
796.8700, 113.2742
797.3521, 104.3020
797.8342, 102.7241
798.3163, 106.6052
798.7985, 105.1367
799.2806, 96.96509
799.7627, 91.45068
800.2448, 92.29785
800.7269, 93.59497
801.2090, 90.44971
801.6912, 83.24316
802.1733, 74.57935
802.6554, 60.38940
803.1375, 51.18066
803.6196, 51.31177
804.1017, 54.92554
804.5839, 60.38330
805.0660, 65.45581
805.5481, 66.41675
806.0302, 61.86890
806.5123, 55.24854
806.9944, 48.38208
807.4766, 42.50122
807.9587, 41.75049
808.4408, 45.73389
808.9229, 47.59106
809.4050, 44.51318
809.8871, 40.81445
810.3693, 41.97632
810.8514, 47.94287
811.3335, 51.42065
811.8156, 52.52051
812.2977, 50.88428
812.7798, 42.56421
813.2620, 35.06787
813.7441, 34.56250
814.2262, 38.93481
814.7083, 41.50928
815.1904, 39.60327
815.6725, 37.89551
816.1547, 39.06592
816.6368, 41.71045
817.1189, 45.16040
817.6010, 48.56567
818.0831, 49.55835
818.5652, 47.18506
819.0474, 44.27026
819.5295, 44.85034
820.0116, 48.44604
820.4937, 50.95068
820.9758, 52.46924
821.4579, 52.13818
821.9401, 49.34912
822.4222, 45.18896
822.9043, 40.48071
823.3864, 35.30249
823.8685, 30.07764
824.3506, 25.43042
824.8328, 19.98462
825.3149, 12.70142
825.7970, 5.320801
826.2791, 1.744873
826.7612, 7.787109
827.2433, 10.99072
827.7255, 10.28174
828.2076, 10.22168
828.6897, 15.58936
829.1718, 23.65381
829.6539, 30.70093
830.1360, 36.26050
830.6182, 39.17944
831.1003, 38.96606
831.5824, 38.12622
832.0645, 39.61572
832.5466, 43.30811
833.0287, 47.14185
833.5109, 51.12866
833.9930, 55.24390
834.4751, 59.84717
834.9572, 64.12256
835.4393, 68.03833
835.9214, 71.05078
836.4036, 71.09863
836.8857, 65.58325
837.3678, 62.03516
837.8499, 64.89600
838.3320, 67.90112
838.8141, 65.82373
839.2963, 60.67236
839.7784, 56.81226
840.2605, 55.53809
840.7426, 54.51074
841.2247, 52.28979
841.7068, 48.58301
842.1890, 42.63306
842.6711, 34.58667
843.1532, 24.94458
843.6353, 13.75659
844.1174, 3.070313
844.5995, 4.958008
845.0817, 11.30493
845.5638, 20.38086
846.0459, 33.15430
846.5280, 45.91553
847.0101, 58.74658
847.4922, 70.98926
847.9744, 80.92407
848.4565, 90.62866
848.9386, 103.5117
849.4207, 120.1394
849.9028, 137.5798
850.3849, 155.3066
850.8671, 173.3311
851.3492, 191.2927
851.8313, 209.7502
852.3134, 229.3696
852.7955, 250.2900
853.2776, 273.1013
853.7598, 299.1436
854.2419, 325.1711
854.7240, 344.6116
855.2061, 359.7583
855.6882, 380.7852
856.1703, 408.7488
856.6525, 433.9656
857.1346, 450.1682
857.6167, 463.0947
858.0988, 483.3899
858.5809, 511.9170
859.0630, 542.6045
859.5452, 580.1545
860.0273, 611.4048
860.5094, 626.7959
860.9915, 638.5217
861.4736, 655.8357
861.9557, 678.8020
862.4379, 706.7493
862.9200, 743.4465
863.4021, 779.6665
863.8842, 812.9519
864.3663, 843.6782
864.8484, 869.3855
865.3306, 893.2864
865.8127, 923.9861
866.2948, 964.5100
866.7769, 1005.347
867.2590, 1035.756
867.7411, 1059.975
868.2233, 1086.093
868.7054, 1114.012
869.1875, 1142.029
869.6696, 1169.685
870.1517, 1198.366
870.6339, 1229.807
871.1160, 1262.677
871.5981, 1290.664
872.0802, 1312.605
872.5623, 1334.103
873.0444, 1354.965
873.5266, 1376.605
874.0087, 1401.886
874.4908, 1427.562
874.9729, 1446.959
875.4550, 1458.933
875.9371, 1471.470
876.4193, 1485.781
876.9014, 1500.578
877.3835, 1517.576
877.8656, 1533.195
878.3477, 1542.353
878.8298, 1546.075
879.3120, 1550.699
879.7941, 1559.464
880.2762, 1569.784
880.7583, 1580.229
881.2404, 1589.991
881.7225, 1597.073
882.2047, 1601.891
882.6868, 1607.061
883.1689, 1613.707
883.6510, 1620.406
884.1331, 1624.164
884.6152, 1626.129
885.0974, 1637.609
885.5795, 1660.996
886.0616, 1679.080
886.5437, 1689.376
887.0258, 1687.936
887.5079, 1668.370
887.9901, 1635.514
888.4722, 1608.152
888.9543, 1585.393
889.4364, 1570.606
889.9185, 1567.709
890.4006, 1567.696
890.8828, 1568.799
891.3649, 1569.845
891.8470, 1570.363
892.3291, 1570.005
892.8112, 1566.392
893.2933, 1555.841
893.7755, 1544.958
894.2576, 1537.884
894.7397, 1533.449
895.2218, 1529.812
895.7039, 1526.385
896.1860, 1523.783
896.6682, 1522.624
897.1503, 1522.052
897.6324, 1519.699
898.1145, 1516.821
898.5966, 1518.067
899.0787, 1523.254
899.5609, 1529.314
900.0430, 1535.494
900.5251, 1541.441
901.0072, 1547.401
901.4893, 1552.111
901.9714, 1548.402
902.4536, 1531.939
902.9357, 1522.331
903.4178, 1523.723
903.8999, 1527.919
904.3820, 1532.533
904.8641, 1536.290
905.3463, 1536.410
905.8284, 1532.328
906.3105, 1530.109
906.7926, 1531.693
907.2747, 1533.379
907.7568, 1533.801
908.2390, 1534.062
908.7211, 1536.871
909.2032, 1540.285
909.6853, 1538.123
910.1674, 1527.249
910.6495, 1514.699
911.1317, 1505.082
911.6138, 1496.095
912.0959, 1484.922
912.5780, 1472.306
913.0601, 1460.927
913.5422, 1451.080
914.0244, 1439.452
914.5065, 1422.213
914.9886, 1402.859
915.4707, 1388.949
915.9528, 1379.749
916.4349, 1370.456
916.9171, 1360.496
917.3992, 1351.510
917.8813, 1344.860
918.3634, 1337.881
918.8455, 1326.041
919.3276, 1309.179
919.8098, 1288.894
920.2919, 1262.394
920.7740, 1239.547
921.2561, 1224.349
921.7382, 1211.266
922.2203, 1195.161
922.7025, 1177.371
923.1846, 1162.990
923.6667, 1153.879
924.1488, 1143.859
924.6309, 1132.315
925.1130, 1119.847
925.5952, 1105.689
926.0773, 1091.456
926.5594, 1079.335
927.0415, 1069.363
927.5236, 1059.324
928.0057, 1047.929
928.4879, 1036.752
928.9700, 1025.604
929.4521, 1016.034
929.9342, 1010.792
930.4163, 1008.585
930.8984, 1005.500
931.3806, 1000.052
931.8627, 994.0793
932.3448, 990.3289
932.8269, 986.8584
933.3090, 978.2830
933.7911, 966.2756
934.2733, 958.3812
934.7554, 955.8391
935.2375, 953.3118
935.7196, 947.1196
936.2017, 943.3597
936.6838, 937.9391
937.1660, 931.3003
937.6481, 925.9863
938.1302, 916.7859
938.6123, 908.9208
939.0944, 904.6121
939.5765, 901.6584
940.0587, 897.5173
940.5408, 892.2212
941.0229, 888.6196
941.5050, 891.0305
941.9871, 887.8086
942.4692, 872.3527
942.9514, 858.1782
943.4335, 852.2932
943.9156, 849.8932
944.3977, 844.6436
944.8798, 836.2781
945.3619, 829.1372
945.8441, 824.7192
946.3262, 820.1829
946.8083, 813.6489
947.2904, 807.8345
947.7725, 806.1211
948.2546, 806.8883
948.7368, 805.4036
949.2189, 799.8610
949.7010, 794.4309
950.1831, 791.4658
950.6652, 790.6399
951.1473, 792.5022
951.6295, 795.7347
952.1116, 798.4231
952.5937, 800.3149
953.0758, 801.8582
953.5579, 803.0447
954.0400, 803.6470
954.5222, 803.1122
955.0043, 802.2069
955.4864, 803.4988
955.9685, 806.5341
956.4506, 806.9425
956.9327, 803.4707
957.4149, 800.8508
957.8970, 803.3503
958.3791, 809.7527
958.8612, 816.2031
959.3433, 822.4791
959.8254, 829.2257
960.3076, 837.0735
960.7897, 842.8446
961.2718, 844.5266
961.7539, 845.4385
962.2360, 850.2526
962.7181, 858.5530
963.2003, 862.5579
963.6824, 859.4255
964.1645, 858.0021
964.6466, 858.7063
965.1287, 861.7344
965.6108, 867.6279
966.0930, 875.5837
966.5751, 885.7090
967.0572, 898.6045
967.5393, 906.7336
968.0214, 905.2430
968.5035, 904.0326
968.9857, 907.0574
969.4678, 910.0916
969.9499, 909.4506
970.4320, 906.5251
970.9141, 904.6990
971.3962, 904.7607
971.8784, 904.4778
972.3605, 903.0200
972.8426, 900.1821
973.3247, 895.1155
973.8068, 889.5139
974.2889, 885.9506
974.7711, 884.0635
975.2532, 881.1053
975.7353, 875.6503
976.2174, 869.4558
976.6995, 863.6355
977.1816, 858.3115
977.6638, 854.9001
978.1459, 851.8004
978.6280, 844.1819
979.1101, 831.8960
979.5922, 820.1521
980.0743, 812.4482
980.5565, 807.7737
981.0386, 805.8535
981.5207, 805.5796
982.0028, 804.3048
982.4849, 801.1379
982.9670, 790.4309
983.4492, 770.3691
983.9313, 746.8232
984.4134, 724.7614
984.8955, 704.3881
985.3776, 686.4028
985.8597, 670.8451
986.3419, 656.0369
986.8240, 641.9183
987.3061, 629.0183
987.7882, 617.5216
988.2703, 607.4613
988.7524, 599.2334
989.2346, 592.5494
989.7167, 584.3549
990.1988, 575.1094
990.6809, 562.7721
991.1630, 545.6725
991.6451, 528.2301
992.1273, 512.0728
992.6094, 497.3430
993.0915, 484.5148
993.5736, 473.6973
994.0557, 462.6304
994.5378, 451.0819
995.0200, 439.5980
995.5021, 430.1764
995.9842, 418.7588
996.4663, 399.8977
996.9484, 379.0067
997.4305, 366.1877
997.9127, 362.9830
998.3948, 356.4680
998.8769, 341.7727
999.3590, 327.2251
999.8411, 315.8677
1000.323, 305.1886
1000.805, 293.4208
1001.287, 280.7133
1001.770, 266.7072
1002.252, 251.0520
1002.734, 239.1545
1003.216, 237.3318
1003.698, 235.1144
1004.180, 227.1509
1004.662, 214.9503
1005.144, 197.1516
1005.627, 177.1014
1006.109, 163.1208
1006.591, 158.3538
1007.073, 154.3765
1007.555, 145.4692
1008.037, 134.4551
1008.519, 124.0613
1009.001, 113.3154
1009.483, 99.16992
1009.966, 82.79712
1010.448, 69.66235
1010.930, 62.37354
1011.412, 56.35229
1011.894, 46.66797
1012.376, 35.41724
1012.858, 25.94189
1013.340, 17.73853
1013.823, 9.833496
1014.305, 1.795654
1014.787, 7.487549
1015.269, 18.87964
1015.751, 29.74023
1016.233, 35.98535
1016.715, 39.11450
1017.197, 42.43701
1017.679, 46.51172
1018.162, 53.69751
1018.644, 64.30176
1019.126, 74.80249
1019.608, 82.94507
1020.090, 89.98560
1020.572, 97.90967
1021.054, 106.7322
1021.536, 116.0288
1022.018, 125.7622
1022.501, 134.0366
1022.983, 140.1685
1023.465, 145.8320
1023.947, 152.2585
1024.429, 158.7944
1024.911, 163.9785
1025.393, 167.7749
1025.875, 170.1877
1026.358, 170.8306
1026.840, 173.4692
1027.322, 179.4517
1027.804, 186.4241
1028.286, 193.6399
1028.768, 198.5857
1029.250, 193.5100
1029.732, 176.4399
1030.214, 165.7810
1030.697, 161.8740
1031.179, 164.1604
1031.661, 174.8936
1032.143, 185.9417
1032.625, 190.8701
1033.107, 191.1201
1033.589, 190.9556
1034.071, 190.6277
1034.553, 189.2041
1035.036, 188.2556
1035.518, 181.5583
1036.000, 162.7625
1036.482, 144.7637
1036.964, 139.0798
1037.446, 141.3298
1037.928, 139.3125
1038.410, 131.1870
1038.893, 124.8730
1039.375, 124.5581
1039.857, 119.1755
1040.339, 102.5110
1040.821, 83.61230
1041.303, 69.79443
1041.785, 59.02051
1042.267, 46.93164
1042.750, 34.38135
1043.232, 17.89404
1043.714, 7.534668
1044.196, 29.90186
1044.678, 47.39014
1045.160, 59.79688
1045.642, 61.81543
1046.124, 59.31250
1046.606, 67.64453
1047.089, 90.92969
1047.571, 110.7285
1048.053, 120.4009
1048.535, 132.1914
1049.017, 154.5259
1049.499, 175.5669
1049.981, 183.3296
1050.463, 183.6460
1050.945, 189.3931
1051.428, 202.2856
1051.910, 219.2959
1052.392, 242.6514
1052.874, 266.0068
1053.356, 285.3467
1053.838, 306.2637
1054.320, 334.5649
1054.802, 366.6914
1055.285, 397.0557
1055.767, 425.1392
1056.249, 446.6099
1056.731, 447.4556
1057.213, 457.9224
1057.695, 494.9277
1058.177, 539.8091
1058.659, 581.9473
1059.141, 619.8667
1059.624, 653.1382
1060.106, 681.3745
1060.588, 708.0449
1061.070, 729.6973
1061.552, 756.9209
1062.034, 797.5918
1062.516, 841.1250
1062.998, 875.4604
1063.480, 907.6343
1063.963, 951.8882
1064.445, 1010.177
1064.927, 1069.884
1065.409, 1125.251
1065.891, 1182.048
1066.373, 1241.577
1066.855, 1303.983
1067.337, 1365.635
1067.820, 1431.532
1068.302, 1511.751
1068.784, 1606.560
1069.266, 1704.490
1069.748, 1798.187
1070.230, 1897.347
1070.712, 2007.975
1071.194, 2124.933
1071.677, 2247.393
1072.159, 2373.146
1072.641, 2498.176
1073.123, 2624.129
1073.605, 2755.528
1074.087, 2892.263
1074.569, 3039.771
1075.051, 3201.025
1075.533, 3373.544
1076.016, 3557.422
1076.498, 3750.090
1076.980, 3949.514
1077.462, 4155.621
1077.944, 4364.757
1078.426, 4573.556
1078.908, 4794.477
1079.390, 5031.726
1079.873, 5286.747
1080.355, 5566.593
1080.837, 5858.026
1081.319, 6139.109
1081.801, 6416.196
1082.283, 6714.275
1082.765, 7043.794
1083.247, 7378.212
1083.729, 7707.494
1084.212, 8035.630
1084.694, 8356.972
1085.176, 8684.150
1085.658, 9034.025
1086.140, 9400.224
1086.622, 9760.680
1087.104, 10111.12
1087.586, 10484.93
1088.068, 10917.54
1088.551, 11348.25
1089.033, 11751.21
1089.515, 12134.63
1089.997, 12499.03
1090.479, 12853.97
1090.961, 13206.24
1091.443, 13559.52
1091.925, 13934.40
1092.408, 14351.31
1092.890, 14775.16
1093.372, 15204.14
1093.854, 15622.60
1094.336, 16034.84
1094.818, 16424.03
1095.300, 16757.01
1095.782, 17039.88
1096.265, 17339.02
1096.747, 17684.51
1097.229, 18030.29
1097.711, 18363.90
1098.193, 18691.37
1098.675, 19011.91
1099.157, 19330.86
1099.639, 19651.69
1100.121, 19976.82
1100.604, 20312.80
1101.086, 20673.14
1101.568, 21009.20
1102.050, 21302.90
1102.532, 21575.88
1103.014, 21834.42
1103.496, 22080.37
1103.978, 22315.60
1104.460, 22540.12
1104.943, 22756.62
1105.425, 22964.84
1105.907, 23163.99
1106.389, 23334.43
1106.871, 23523.89
1107.353, 23775.53
1107.835, 24021.64
1108.317, 24213.84
1108.800, 24368.75
1109.282, 24516.55
1109.764, 24660.24
1110.246, 24777.44
1110.728, 24864.15
1111.210, 24929.04
1111.692, 24967.33
1112.174, 24991.74
1112.656, 24998.16
1113.139, 25001.23
1113.621, 25021.51
1114.103, 25056.96
1114.585, 25083.79
1115.067, 25109.81
1115.549, 25112.61
1116.031, 25080.71
1116.513, 25041.91
1116.995, 25008.80
1117.478, 24967.87
1117.960, 24904.84
1118.442, 24825.11
1118.924, 24746.15
1119.406, 24672.86
1119.888, 24579.86
1120.370, 24455.46
1120.852, 24336.81
1121.335, 24240.96
1121.817, 24137.16
1122.299, 24006.56
1122.781, 23854.98
1123.263, 23690.55
1123.745, 23513.12
1124.227, 23343.57
1124.709, 23188.43
1125.192, 23019.68
1125.674, 22835.70
1126.156, 22632.83
1126.638, 22405.33
1127.120, 22167.33
1127.602, 21934.79
1128.084, 21706.78
1128.566, 21483.95
1129.048, 21270.25
1129.531, 21018.36
1130.013, 20719.58
1130.495, 20420.69
1130.977, 20136.93
1131.459, 19860.26
1131.941, 19586.49
1132.423, 19314.86
1132.905, 19044.90
1133.387, 18776.94
1133.870, 18506.97
1134.352, 18234.62
1134.834, 17962.34
1135.316, 17690.77
1135.798, 17394.79
1136.280, 17059.15
1136.762, 16716.66
1137.244, 16407.82
1137.727, 16123.53
1138.209, 15842.93
1138.691, 15562.90
1139.173, 15269.88
1139.655, 14964.91
1140.137, 14664.58
1140.619, 14373.18
1141.101, 14074.21
1141.583, 13749.62
1142.066, 13419.47
1142.548, 13118.19
1143.030, 12834.08
1143.512, 12548.08
1143.994, 12258.43
1144.476, 11959.35
1144.958, 11653.02
1145.440, 11353.12
1145.922, 11065.09
1146.405, 10787.31
1146.887, 10522.83
1147.369, 10262.77
1147.851, 10001.42
1148.333, 9734.422
1148.815, 9450.208
1149.297, 9159.471
1149.779, 8893.069
1150.262, 8659.046
1150.744, 8424.238
1151.226, 8163.695
1151.708, 7911.939
1152.190, 7702.952
1152.672, 7502.793
1153.154, 7275.979
1153.636, 7040.624
1154.119, 6825.307
1154.601, 6629.351
1155.083, 6430.747
1155.565, 6218.142
1156.047, 6018.972
1156.529, 5855.403
1157.011, 5689.528
1157.493, 5498.034
1157.975, 5303.740
1158.458, 5123.475
1158.940, 4957.485
1159.422, 4803.587
1159.904, 4663.359
1160.386, 4523.742
1160.868, 4380.611
1161.350, 4243.233
1161.832, 4119.691
1162.314, 3993.396
1162.797, 3854.410
1163.279, 3712.421
1163.761, 3574.382
1164.243, 3441.744
1164.725, 3325.735
1165.207, 3230.817
1165.689, 3135.098
1166.171, 3037.369
1166.654, 2940.619
1167.136, 2844.604
1167.618, 2754.328
1168.100, 2675.561
1168.582, 2599.881
1169.064, 2515.133
1169.546, 2423.997
1170.028, 2332.446
1170.510, 2239.794
1170.993, 2165.221
1171.475, 2108.919
1171.957, 2052.060
1172.439, 1986.210
1172.921, 1931.101
1173.403, 1907.423
1173.885, 1892.772
1174.367, 1838.826
1174.849, 1758.026
1175.332, 1691.677
1175.814, 1637.636
1176.296, 1583.394
1176.778, 1527.384
1177.260, 1476.262
1177.742, 1432.975
1178.224, 1394.384
1178.706, 1355.072
1179.189, 1318.931
1179.671, 1297.209
1180.153, 1279.514
1180.635, 1251.634
1181.117, 1213.772
1181.599, 1168.458
1182.081, 1118.399
1182.563, 1070.852
1183.046, 1028.131
1183.528, 993.4980
1184.010, 976.1938
1184.492, 960.0073
1184.974, 931.1636
1185.456, 899.8867
1185.938, 877.1880
1186.420, 860.9585
1186.902, 844.7612
1187.385, 828.0942
1187.867, 807.9658
1188.349, 780.6812
1188.831, 754.1626
1189.313, 726.5967
1189.795, 703.0513
1190.277, 689.8569
1190.759, 679.3994
1191.241, 663.0850
1191.724, 642.9028
1192.206, 627.6284
1192.688, 620.5483
1193.170, 602.5854
1193.652, 569.4170
1194.134, 538.8330
1194.616, 514.2017
1195.098, 493.3784
1195.581, 475.7534
1196.063, 458.9775
1196.545, 439.2832
1197.027, 417.7852
1197.509, 398.6987
1197.991, 381.6353
1198.473, 364.7739
1198.955, 347.9331
1199.438, 330.2368
1199.920, 311.8330
1200.402, 294.6807
1200.884, 280.3271
1201.366, 267.4741
1201.848, 254.7617
1202.330, 242.0054
1202.812, 225.7432
1203.294, 210.9116
1203.776, 211.5254
1204.259, 222.6021
1204.741, 229.3989
1205.223, 226.2954
1205.705, 207.4360
1206.187, 162.7998
1206.669, 119.0933
1207.151, 95.78174
1207.633, 79.84717
1208.116, 60.38867
1208.598, 43.17041
1209.080, 39.68604
1209.562, 43.53320
1210.044, 35.59082
1210.526, 11.45410
1211.008, 9.231445
1211.490, 23.78027
1211.973, 33.67480
1212.455, 33.28613
1212.937, 35.89648
1213.419, 52.31445
1213.901, 69.11719
1214.383, 69.76221
1214.865, 61.12207
1215.347, 67.59082
1215.829, 92.45410
1216.312, 108.9609
1216.794, 114.9746
1217.276, 122.1519
1217.758, 132.6626
1218.240, 142.8896
1218.722, 151.1289
1219.204, 159.2256
1219.686, 169.5737
1220.168, 181.1348
1220.651, 192.1729
1221.133, 202.2788
1221.615, 209.6060
1222.097, 214.4551
1222.579, 219.0352
1223.061, 223.2500
1223.543, 224.0239
1224.025, 219.9683
1224.508, 211.7715
1224.990, 198.9536
1225.472, 183.7383
1225.954, 158.5283
1226.436, 140.7891
1226.918, 155.7114
1227.400, 189.9351
1227.882, 223.0127
1228.365, 250.6353
1228.847, 243.8301
1229.329, 231.7710
1229.811, 217.2500
1230.293, 201.6562
1230.775, 183.0420
1231.257, 158.7075
1231.739, 133.3101
1232.221, 111.8418
1232.703, 89.43994
1233.186, 58.40381
1233.668, 20.43848
1234.150, 12.93945
1234.632, 40.65234
1235.114, 67.28174
1235.596, 91.63672
1236.078, 122.2793
1236.560, 162.6743
1237.043, 198.7344
1237.525, 221.8589
1238.007, 239.7363
1238.489, 261.6333
1238.971, 287.0547
1239.453, 314.9761
1239.935, 345.1519
1240.417, 377.8071
1240.900, 411.8145
1241.382, 442.7720
1241.864, 470.6704
1242.346, 499.8276
1242.828, 532.2671
1243.310, 568.2373
1243.792, 612.3662
1244.274, 654.9258
1244.756, 686.9351
1245.239, 714.9150
1245.721, 741.6836
1246.203, 770.8726
1246.685, 810.2246
1247.167, 857.1763
1247.649, 895.5234
1248.131, 919.1523
1248.613, 945.2866
1249.095, 974.9653
1249.578, 1007.456
1250.060, 1041.694
1250.542, 1076.399
1251.024, 1108.254
1251.506, 1136.723
1251.988, 1167.008
1252.470, 1194.717
1252.952, 1207.139
1253.435, 1202.201
1253.917, 1191.912
1254.399, 1178.152
1254.881, 1165.055
1255.363, 1156.051
1255.845, 1148.619
1256.327, 1144.024
1256.809, 1125.858
1257.292, 1080.047
1257.774, 1027.444
1258.256, 989.5664
1258.738, 959.3350
1259.220, 927.9487
1259.702, 895.7158
1260.184, 870.8428
1260.666, 848.9849
1261.148, 824.5654
1261.630, 799.9941
1262.113, 779.6348
1262.595, 761.1089
1263.077, 754.0732
1263.559, 773.7710
1264.041, 790.5962
1264.523, 792.1294
1265.005, 782.5767
1265.487, 761.5952
1265.970, 730.4331
1266.452, 697.3301
1266.934, 664.3823
1267.416, 636.1641
1267.898, 613.0991
1268.380, 594.3262
1268.862, 580.7969
1269.344, 558.8579
1269.827, 522.8306
1270.309, 484.6411
1270.791, 454.5493
1271.273, 431.3833
1271.755, 413.7710
1272.237, 400.5713
1272.719, 391.9976
1273.201, 384.6045
1273.683, 371.6392
1274.166, 352.6899
1274.648, 328.4253
1275.130, 302.9224
1275.612, 282.6553
1276.094, 267.3857
1276.576, 256.4629
1277.058, 259.6216
1277.540, 256.8540
1278.022, 237.3286
1278.505, 210.0415
1278.987, 177.1216
1279.469, 146.4702
1279.951, 124.9521
1280.433, 110.2578
1280.915, 101.4932
1281.397, 104.0488
1281.879, 95.99609
1282.362, 73.35254
1282.844, 49.27246
1283.326, 27.96680
1283.808, 15.41895
1284.290, 11.95410
1284.772, 9.082031
1285.254, 3.346680
1285.736, 0.0000000E+00
##END=



