##NAMES=Titanite
##RRUFFID=R050472
##IDEAL CHEMISTRY=CaTi^4+^SiO_5_
##LOCALITY=Turner's Island, Lake Clear, Wadawaska, Ontario, Canada
##OWNER=RRUFF
##SOURCE=California Institute of Technology
##DESCRIPTION=Brown flattened wedge-shaped crystal
##STATUS=The identification of this mineral has been confirmed by X-ray diffraction and chemical analysis
##URL=rruff.info/R050472
##MEASURED CHEMISTRY=(Ca_0.99_Na_0.01_)(Ti_0.81_Al_0.09_Fe^3+^_0.07_Nb_0.03_)Si_1.00_O_4_(O_0.80_F_0.20_)
151.7545, 0.0000000E+00
152.2366, 0.4348140
152.7188, 0.2257690
153.2009, 0.1316530
153.6830, 1.356262
154.1651, 5.462036
154.6472, 9.302124
155.1293, 12.12146
155.6115, 13.85645
156.0936, 14.94446
156.5757, 14.03729
157.0578, 12.97186
157.5399, 13.77936
158.0220, 19.49146
158.5042, 24.98407
158.9863, 28.33105
159.4684, 29.18048
159.9505, 29.63788
160.4326, 29.74158
160.9147, 29.95404
161.3969, 30.91864
161.8790, 33.88354
162.3611, 36.64117
162.8432, 38.00934
163.3253, 37.86255
163.8074, 37.55750
164.2896, 38.10071
164.7717, 38.48804
165.2538, 38.33118
165.7359, 38.42682
166.2180, 39.88477
166.7001, 41.11804
167.1823, 42.03180
167.6644, 43.80591
168.1465, 43.97571
168.6286, 43.57538
169.1107, 44.01056
169.5928, 45.26935
170.0750, 46.16638
170.5571, 45.58618
171.0392, 42.05902
171.5213, 37.53961
172.0034, 35.63080
172.4855, 36.19183
172.9677, 36.23114
173.4498, 32.94324
173.9319, 28.03436
174.4140, 24.00781
174.8961, 21.81348
175.3782, 20.40308
175.8604, 18.49982
176.3425, 16.20935
176.8246, 14.39001
177.3067, 14.43982
177.7888, 15.40729
178.2709, 15.28809
178.7531, 13.16461
179.2352, 9.945557
179.7173, 6.480957
180.1994, 2.801147
180.6815, 3.7292000E-02
181.1636, 0.2518920
181.6458, 1.286316
182.1279, 1.874207
182.6100, 3.3875000E-02
183.0921, 3.028809
183.5742, 4.660034
184.0563, 4.808960
184.5385, 4.756653
185.0206, 6.118652
185.5027, 8.548279
185.9848, 10.38934
186.4669, 10.84155
186.9490, 10.31665
187.4312, 9.883667
187.9133, 9.581543
188.3954, 9.427307
188.8775, 9.806946
189.3596, 10.61871
189.8417, 10.75031
190.3239, 9.497620
190.8060, 7.128296
191.2881, 5.036133
191.7702, 3.217041
192.2523, 1.812012
192.7344, 1.130310
193.2166, 1.176025
193.6987, 1.272827
194.1808, 1.229065
194.6629, 1.030701
195.1450, 0.4760740
195.6271, 0.4362180
196.1093, 1.702698
196.5914, 3.363464
197.0735, 5.431580
197.5556, 7.669434
198.0377, 10.04614
198.5198, 12.59680
199.0020, 14.87665
199.4841, 16.82123
199.9662, 18.60236
200.4483, 20.56049
200.9304, 22.70917
201.4125, 24.94269
201.8947, 27.09827
202.3768, 29.12207
202.8589, 31.89160
203.3410, 35.76874
203.8231, 39.95081
204.3052, 42.65851
204.7874, 43.56415
205.2695, 44.51343
205.7516, 46.50806
206.2337, 49.79578
206.7158, 52.32330
207.1979, 53.65796
207.6801, 54.65076
208.1622, 57.16302
208.6443, 61.65094
209.1264, 66.31378
209.6085, 70.40509
210.0906, 73.73016
210.5728, 76.81952
211.0549, 79.29138
211.5370, 81.80548
212.0191, 85.76611
212.5012, 91.50739
212.9833, 97.98492
213.4655, 104.8521
213.9476, 112.4806
214.4297, 119.2023
214.9118, 124.4864
215.3939, 129.1038
215.8760, 134.9847
216.3581, 141.7911
216.8403, 150.4305
217.3224, 162.1008
217.8045, 179.2471
218.2866, 191.7936
218.7687, 197.5970
219.2508, 199.3334
219.7330, 204.0198
220.2151, 212.4860
220.6972, 222.2697
221.1793, 232.2357
221.6614, 242.7416
222.1435, 252.5505
222.6257, 261.2240
223.1078, 269.3331
223.5899, 278.8695
224.0720, 290.6877
224.5541, 302.6271
225.0362, 313.8378
225.5184, 323.5459
226.0005, 334.3417
226.4826, 347.0929
226.9647, 360.8030
227.4468, 373.0535
227.9289, 383.2070
228.4111, 392.8058
228.8932, 402.3785
229.3753, 411.3274
229.8574, 421.8353
230.3395, 434.8900
230.8216, 449.2018
231.3038, 461.6428
231.7859, 472.4980
232.2680, 480.8372
232.7501, 485.7246
233.2322, 484.4928
233.7143, 486.0566
234.1965, 492.5693
234.6786, 501.4611
235.1607, 505.3571
235.6428, 501.2799
236.1249, 496.5079
236.6070, 494.4265
237.0892, 497.1329
237.5713, 497.6104
238.0534, 494.9600
238.5355, 490.2587
239.0176, 486.3989
239.4997, 483.8660
239.9819, 481.5870
240.4640, 478.9890
240.9461, 475.7278
241.4282, 472.7908
241.9103, 470.3900
242.3924, 468.3748
242.8746, 466.2814
243.3567, 464.0465
243.8388, 461.7440
244.3209, 459.4270
244.8030, 457.0217
245.2851, 455.0906
245.7673, 453.8488
246.2494, 452.9979
246.7315, 451.9550
247.2136, 451.0192
247.6957, 449.4177
248.1778, 446.9698
248.6600, 443.8441
249.1421, 439.3834
249.6242, 432.7087
250.1063, 425.0780
250.5884, 419.1750
251.0705, 416.3798
251.5527, 412.8616
252.0348, 407.0594
252.5169, 398.1416
252.9990, 389.8612
253.4811, 382.7455
253.9632, 375.8145
254.4454, 367.4635
254.9275, 357.3598
255.4096, 346.3522
255.8917, 334.3961
256.3738, 321.1310
256.8560, 308.9662
257.3381, 298.2490
257.8202, 288.2600
258.3023, 277.6442
258.7844, 266.1888
259.2665, 254.8318
259.7487, 243.9307
260.2308, 233.6682
260.7129, 222.8621
261.1950, 211.1965
261.6771, 199.3740
262.1592, 188.3558
262.6414, 178.3397
263.1235, 168.8561
263.6056, 159.9344
264.0877, 151.5253
264.5698, 143.3992
265.0519, 135.7383
265.5341, 128.1500
266.0162, 120.0715
266.4983, 111.4641
266.9804, 102.5887
267.4625, 92.98315
267.9446, 82.76385
268.4268, 74.76410
268.9089, 69.69653
269.3910, 65.85907
269.8731, 61.40466
270.3552, 56.03772
270.8373, 51.38385
271.3195, 47.95758
271.8016, 45.62549
272.2837, 42.88965
272.7658, 39.67480
273.2479, 36.13025
273.7300, 31.94409
274.2122, 26.80530
274.6943, 23.11102
275.1764, 21.58838
275.6585, 21.91943
276.1406, 22.59369
276.6227, 23.74664
277.1049, 24.82037
277.5870, 25.04755
278.0691, 24.27277
278.5512, 24.51099
279.0333, 26.15179
279.5154, 28.98865
279.9976, 32.30701
280.4797, 36.06610
280.9618, 40.55151
281.4439, 46.48053
281.9260, 53.84595
282.4081, 60.26685
282.8903, 64.97229
283.3724, 69.06421
283.8545, 75.47247
284.3366, 84.38916
284.8187, 93.61755
285.3008, 101.3875
285.7830, 107.9418
286.2651, 115.5606
286.7472, 124.8771
287.2293, 134.6159
287.7114, 142.0834
288.1935, 147.2931
288.6757, 152.6573
289.1578, 160.1206
289.6399, 169.1113
290.1220, 176.1055
290.6041, 180.6000
291.0862, 184.2038
291.5684, 189.6640
292.0505, 196.7156
292.5326, 202.7087
293.0147, 205.6730
293.4968, 206.5773
293.9789, 208.5464
294.4611, 211.7833
294.9432, 215.2804
295.4253, 217.5586
295.9074, 218.9778
296.3895, 221.0200
296.8716, 224.5914
297.3538, 229.1660
297.8359, 233.4969
298.3180, 237.5771
298.8001, 242.2853
299.2822, 249.6366
299.7643, 258.4386
300.2465, 265.3993
300.7286, 267.7607
301.2107, 268.7174
301.6928, 272.8074
302.1749, 279.8627
302.6570, 287.7690
303.1392, 295.0400
303.6213, 301.9656
304.1034, 308.8923
304.5855, 316.0403
305.0676, 323.1843
305.5497, 330.3916
306.0319, 337.5614
306.5140, 344.5143
306.9961, 350.5929
307.4782, 356.4825
307.9603, 363.1954
308.4424, 371.3750
308.9246, 379.5244
309.4067, 386.1334
309.8888, 391.6658
310.3709, 397.5848
310.8530, 405.3802
311.3351, 413.4450
311.8173, 420.2059
312.2994, 425.0358
312.7815, 429.9288
313.2636, 436.7557
313.7457, 444.3884
314.2278, 450.8341
314.7100, 455.0604
315.1921, 458.0820
315.6742, 460.3399
316.1563, 461.8086
316.6384, 463.1422
317.1205, 464.8836
317.6027, 466.2314
318.0848, 466.7886
318.5669, 466.1997
319.0490, 465.2703
319.5311, 464.1480
320.0132, 462.9791
320.4954, 460.7164
320.9775, 455.6173
321.4596, 450.0539
321.9417, 445.6435
322.4238, 443.7950
322.9059, 442.2109
323.3881, 440.5270
323.8702, 438.7505
324.3523, 436.9792
324.8344, 435.0580
325.3165, 433.4783
325.7986, 432.3100
326.2808, 431.2446
326.7629, 431.2709
327.2450, 433.2179
327.7271, 436.6267
328.2092, 438.8693
328.6913, 438.9939
329.1735, 439.0555
329.6556, 439.2997
330.1377, 439.5132
330.6198, 440.9452
331.1019, 444.1475
331.5840, 448.2561
332.0662, 450.9233
332.5483, 450.6451
333.0304, 450.9910
333.5125, 453.3427
333.9946, 458.4551
334.4767, 461.8911
334.9589, 462.8071
335.4410, 462.8456
335.9231, 464.2229
336.4052, 467.6902
336.8873, 470.5641
337.3694, 472.1600
337.8516, 472.5470
338.3336, 472.4017
338.8158, 471.2133
339.2979, 470.6526
339.7800, 472.6959
340.2621, 477.8477
340.7442, 482.1623
341.2263, 484.9116
341.7085, 486.3840
342.1906, 487.4449
342.6727, 488.1377
343.1548, 488.1622
343.6369, 486.6581
344.1190, 483.8105
344.6012, 482.7403
345.0833, 484.3716
345.5654, 486.7531
346.0475, 486.4971
346.5296, 483.6989
347.0117, 479.7417
347.4939, 475.2797
347.9760, 470.2814
348.4581, 464.6379
348.9402, 458.4029
349.4223, 451.2296
349.9044, 442.5459
350.3866, 432.4436
350.8687, 421.1575
351.3508, 408.0496
351.8329, 394.0237
352.3150, 380.7319
352.7971, 368.0640
353.2793, 354.5878
353.7614, 337.3965
354.2435, 318.7056
354.7256, 302.0734
355.2077, 289.3884
355.6898, 278.0920
356.1720, 266.1306
356.6541, 253.5653
357.1362, 240.7922
357.6183, 227.5708
358.1004, 214.3353
358.5826, 201.4465
359.0647, 188.9463
359.5468, 176.8605
360.0289, 165.0054
360.5110, 153.5842
360.9931, 142.9364
361.4753, 133.6729
361.9574, 124.9846
362.4395, 116.6689
362.9216, 108.8110
363.4037, 100.6373
363.8858, 91.17279
364.3680, 81.57825
364.8501, 73.03632
365.3322, 66.27112
365.8143, 60.24634
366.2964, 55.13086
366.7785, 50.85980
367.2607, 46.03467
367.7428, 39.65582
368.2249, 33.22748
368.7070, 27.63660
369.1891, 23.28955
369.6712, 19.33386
370.1534, 15.91418
370.6355, 12.84021
371.1176, 9.513000
371.5997, 5.648132
372.0818, 1.850647
372.5639, 1.670593
373.0461, 4.874573
373.5282, 8.236816
374.0103, 12.40094
374.4924, 17.85101
374.9745, 16.17145
375.4566, 15.30408
375.9388, 15.20148
376.4209, 18.34943
376.9030, 17.15289
377.3851, 17.60870
377.8672, 18.07233
378.3493, 16.08466
378.8315, 18.43610
379.3136, 16.36182
379.7957, 15.96692
380.2778, 14.71252
380.7599, 15.12158
381.2420, 14.93542
381.7242, 12.96002
382.2063, 11.87787
382.6884, 12.23486
383.1705, 10.55341
383.6526, 12.33838
384.1347, 10.96332
384.6169, 8.188843
385.0990, 8.143188
385.5811, 6.112976
386.0632, 4.748962
386.5453, 6.643311
387.0274, 2.691833
387.5096, 1.173401
387.9917, 2.154358
388.4738, 1.800842
388.9559, 1.311279
389.4380, 2.503479
389.9201, 4.979492
390.4023, 6.263977
390.8844, 9.615173
391.3665, 11.12128
391.8486, 13.57977
392.3307, 17.05109
392.8128, 19.98920
393.2950, 22.71002
393.7771, 25.46533
394.2592, 28.35669
394.7413, 31.06354
395.2234, 33.47192
395.7055, 35.60345
396.1877, 37.49738
396.6698, 38.23438
397.1519, 39.61438
397.6340, 42.34271
398.1161, 46.57867
398.5982, 50.92798
399.0804, 55.64807
399.5625, 60.25824
400.0446, 64.41461
400.5267, 68.04193
401.0088, 71.33136
401.4909, 73.77264
401.9731, 75.84509
402.4552, 79.58478
402.9373, 85.88568
403.4194, 92.40564
403.9015, 97.77600
404.3836, 101.2862
404.8658, 106.6927
405.3479, 114.6545
405.8300, 123.5297
406.3121, 130.8177
406.7942, 136.2665
407.2763, 141.7792
407.7585, 147.8515
408.2406, 154.4887
408.7227, 161.7993
409.2048, 169.8319
409.6869, 177.7963
410.1690, 185.0974
410.6512, 191.6964
411.1333, 197.5516
411.6154, 202.3242
412.0975, 206.9785
412.5796, 213.3649
413.0617, 221.1571
413.5439, 228.8002
414.0260, 235.5839
414.5081, 241.7061
414.9902, 247.1689
415.4723, 251.9432
415.9544, 256.8069
416.4366, 263.0020
416.9187, 269.5358
417.4008, 274.8981
417.8829, 278.4834
418.3650, 280.8163
418.8471, 282.1031
419.3293, 282.3722
419.8114, 281.8481
420.2935, 279.6732
420.7756, 277.3376
421.2577, 276.1547
421.7398, 277.8758
422.2220, 277.7127
422.7041, 273.1552
423.1862, 266.2670
423.6683, 260.7555
424.1504, 259.1523
424.6325, 256.8029
425.1147, 252.4131
425.5968, 245.7248
426.0789, 238.7486
426.5610, 230.7178
427.0431, 223.0884
427.5252, 217.4195
428.0074, 215.2671
428.4895, 211.3107
428.9716, 204.3264
429.4537, 195.4294
429.9358, 188.2397
430.4179, 182.8787
430.9001, 178.0748
431.3822, 173.6397
431.8643, 169.5455
432.3464, 163.8557
432.8285, 156.6409
433.3106, 149.4517
433.7928, 144.3987
434.2749, 141.0832
434.7570, 138.1819
435.2391, 135.2967
435.7212, 132.2701
436.2033, 128.8237
436.6855, 124.7559
437.1676, 120.8194
437.6497, 117.0842
438.1318, 113.7090
438.6139, 110.8321
439.0960, 108.6434
439.5782, 106.6909
440.0603, 104.1451
440.5424, 101.3784
441.0245, 99.39911
441.5066, 99.11298
441.9887, 99.07159
442.4709, 98.45435
442.9530, 97.08679
443.4351, 95.50861
443.9172, 93.44403
444.3993, 91.20343
444.8814, 89.52051
445.3636, 88.37738
445.8457, 87.47394
446.3278, 87.74481
446.8099, 88.31610
447.2920, 87.72308
447.7741, 84.16205
448.2563, 81.58826
448.7384, 81.54291
449.2205, 84.22192
449.7026, 86.36957
450.1847, 87.94543
450.6668, 89.10254
451.1490, 89.92719
451.6311, 90.23145
452.1132, 90.29370
452.5953, 89.98419
453.0774, 89.81189
453.5595, 90.79315
454.0417, 92.90308
454.5238, 95.17743
455.0059, 97.21973
455.4880, 99.00787
455.9701, 100.2574
456.4522, 100.8690
456.9344, 101.7621
457.4165, 104.1002
457.8986, 107.4316
458.3807, 110.5324
458.8628, 112.8723
459.3449, 114.7971
459.8271, 116.8258
460.3092, 118.9566
460.7913, 121.1235
461.2734, 123.0867
461.7555, 124.8195
462.2376, 126.3755
462.7198, 127.9105
463.2019, 129.5678
463.6840, 131.6221
464.1661, 133.6861
464.6482, 135.2917
465.1303, 135.2305
465.6125, 135.8097
466.0946, 138.0894
466.5767, 141.8553
467.0588, 144.8557
467.5409, 146.3044
468.0230, 147.5140
468.5052, 149.0896
468.9873, 151.3598
469.4694, 153.1766
469.9515, 154.3522
470.4336, 155.2465
470.9157, 156.4526
471.3979, 158.1455
471.8800, 159.5386
472.3621, 160.3524
472.8442, 160.7187
473.3263, 161.4207
473.8084, 162.5316
474.2906, 163.3973
474.7727, 162.9877
475.2548, 161.7510
475.7369, 162.2409
476.2190, 165.0967
476.7011, 168.1509
477.1833, 168.4422
477.6654, 166.8009
478.1475, 165.5114
478.6296, 165.8051
479.1117, 166.7150
479.5938, 167.6543
480.0760, 168.5166
480.5581, 168.5449
481.0402, 166.7203
481.5223, 164.2543
482.0044, 162.0438
482.4865, 160.1790
482.9687, 158.8229
483.4508, 158.6056
483.9329, 158.7864
484.4150, 158.3018
484.8971, 156.8821
485.3792, 154.8661
485.8614, 152.0802
486.3435, 148.5911
486.8256, 145.3248
487.3077, 142.4825
487.7898, 139.6571
488.2719, 136.6035
488.7541, 133.2701
489.2362, 130.0739
489.7183, 127.1878
490.2004, 124.2116
490.6825, 120.4606
491.1646, 115.8663
491.6468, 110.9536
492.1289, 105.4747
492.6110, 99.97186
493.0931, 96.18018
493.5752, 94.06360
494.0573, 91.77295
494.5395, 87.68341
495.0216, 82.50006
495.5037, 77.72363
495.9858, 73.72357
496.4679, 69.42578
496.9500, 63.30499
497.4322, 56.35046
497.9143, 50.29559
498.3964, 46.63440
498.8785, 43.33038
499.3606, 39.20319
499.8427, 34.41351
500.3249, 29.94086
500.8070, 25.94513
501.2891, 22.45197
501.7712, 19.69135
502.2533, 18.22430
502.7354, 15.94885
503.2176, 11.84503
503.6997, 7.308289
504.1818, 3.777832
504.6639, 1.852844
505.1460, 0.2492680
505.6281, 3.047791
506.1103, 6.198669
506.5924, 8.107910
507.0745, 8.451172
507.5566, 8.737366
508.0387, 10.02118
508.5208, 12.20782
509.0030, 12.91901
509.4851, 11.85339
509.9672, 11.00366
510.4493, 13.29431
510.9314, 17.69165
511.4135, 20.62592
511.8957, 20.82935
512.3778, 19.79968
512.8599, 18.76178
513.3420, 17.83105
513.8242, 17.37714
514.3063, 18.20459
514.7884, 19.10767
515.2705, 19.28778
515.7526, 18.69672
516.2347, 17.31830
516.7169, 14.22913
517.1990, 10.89764
517.6811, 8.481995
518.1632, 8.742004
518.6453, 7.808472
519.1274, 4.544678
519.6096, 2.4840999E-02
520.0917, 3.982422
520.5738, 6.896301
521.0559, 9.853088
521.5380, 13.04315
522.0201, 16.47729
522.5023, 20.35364
522.9844, 24.73956
523.4665, 29.46783
523.9486, 34.36041
524.4307, 39.45984
524.9128, 45.25903
525.3950, 51.90375
525.8771, 58.62537
526.3592, 64.37421
526.8413, 69.25446
527.3234, 73.91760
527.8055, 78.47308
528.2877, 82.92926
528.7698, 86.85126
529.2519, 90.52460
529.7340, 95.39075
530.2161, 104.0793
530.6982, 113.0190
531.1804, 119.4368
531.6625, 122.4533
532.1446, 125.4403
532.6267, 129.5777
533.1088, 134.1268
533.5909, 138.3168
534.0731, 142.3019
534.5552, 145.6765
535.0373, 147.9612
535.5194, 149.6918
536.0015, 152.7186
536.4836, 158.3554
536.9658, 162.4884
537.4479, 163.2297
537.9300, 160.7415
538.4121, 159.0876
538.8942, 158.4733
539.3763, 157.7626
539.8585, 155.7098
540.3406, 152.5916
540.8227, 150.2304
541.3048, 149.0654
541.7869, 147.8872
542.2690, 144.7674
542.7512, 140.4299
543.2333, 136.7007
543.7154, 134.6801
544.1975, 133.2870
544.6796, 131.9274
545.1617, 130.5278
545.6439, 128.7478
546.1260, 126.0919
546.6081, 123.2760
547.0902, 120.4042
547.5723, 117.1035
548.0544, 115.4920
548.5366, 117.7859
549.0187, 120.8131
549.5008, 121.6358
549.9829, 117.8520
550.4650, 116.3248
550.9471, 118.3292
551.4293, 122.5374
551.9114, 126.0392
552.3935, 128.7790
552.8756, 131.0496
553.3577, 132.5192
553.8398, 133.6149
554.3220, 136.3995
554.8041, 140.9254
555.2862, 146.3005
555.7683, 152.4258
556.2504, 158.8235
556.7325, 164.4407
557.2147, 168.9111
557.6968, 173.8282
558.1789, 180.6614
558.6610, 188.7624
559.1431, 197.0989
559.6252, 205.3372
560.1074, 213.6903
560.5895, 222.0132
561.0716, 230.4205
561.5537, 239.2353
562.0358, 249.4532
562.5179, 259.3985
563.0001, 268.0919
563.4822, 275.2119
563.9643, 283.6118
564.4464, 294.7089
564.9285, 305.4021
565.4106, 312.9325
565.8928, 316.5641
566.3749, 321.7875
566.8570, 329.5463
567.3391, 338.4924
567.8212, 347.2618
568.3033, 355.4961
568.7855, 361.0015
569.2676, 362.5958
569.7497, 362.0559
570.2318, 361.8300
570.7139, 361.6993
571.1960, 360.9436
571.6782, 359.4631
572.1603, 356.7926
572.6424, 352.3765
573.1245, 346.1363
573.6066, 339.4534
574.0887, 333.0747
574.5709, 326.4774
575.0530, 319.1243
575.5351, 309.3822
576.0172, 300.8179
576.4993, 294.7267
576.9814, 289.5519
577.4636, 282.5862
577.9457, 273.0100
578.4278, 263.0129
578.9099, 252.7875
579.3920, 242.8141
579.8741, 235.1688
580.3563, 229.9979
580.8384, 225.5651
581.3205, 221.3568
581.8026, 217.0267
582.2847, 211.4144
582.7668, 204.4387
583.2490, 197.6206
583.7311, 192.4194
584.2132, 188.0851
584.6953, 183.4868
585.1774, 177.9865
585.6595, 173.1674
586.1416, 170.6765
586.6237, 169.2010
587.1058, 166.7249
587.5880, 161.4802
588.0701, 156.6252
588.5522, 152.9116
589.0343, 150.1851
589.5164, 147.8829
589.9985, 146.5369
590.4807, 144.6677
590.9628, 141.1835
591.4449, 136.0062
591.9270, 133.3611
592.4091, 133.7722
592.8912, 134.4135
593.3734, 132.3439
593.8555, 128.1677
594.3376, 124.8359
594.8197, 122.8765
595.3018, 121.3466
595.7839, 119.1990
596.2661, 116.7532
596.7482, 114.6047
597.2303, 112.5780
597.7124, 111.3690
598.1945, 111.9958
598.6766, 113.8544
599.1588, 115.1456
599.6409, 115.0038
600.1230, 114.5200
600.6051, 113.9423
601.0872, 113.2498
601.5693, 113.0322
602.0515, 113.5599
602.5336, 114.1638
603.0157, 114.3011
603.4978, 113.7643
603.9799, 114.0002
604.4620, 115.1182
604.9442, 116.7759
605.4263, 118.9335
605.9084, 121.4091
606.3905, 122.8469
606.8726, 122.6650
607.3547, 121.9224
607.8369, 121.9424
608.3190, 122.4619
608.8011, 122.8281
609.2832, 122.2333
609.7653, 121.7906
610.2474, 122.6985
610.7296, 124.6791
611.2117, 125.4745
611.6938, 123.0657
612.1759, 120.4949
612.6580, 119.3864
613.1401, 120.2063
613.6223, 120.4932
614.1044, 120.3628
614.5865, 119.5399
615.0686, 117.4294
615.5507, 113.7838
616.0328, 111.2833
616.5150, 110.4423
616.9971, 110.3002
617.4792, 109.7225
617.9613, 108.6858
618.4434, 106.9148
618.9255, 103.7582
619.4077, 100.5602
619.8898, 98.93445
620.3719, 98.56946
620.8540, 98.43469
621.3361, 98.18494
621.8182, 97.88696
622.3004, 97.57642
622.7825, 97.25208
623.2646, 96.88879
623.7467, 96.88892
624.2288, 96.47192
624.7109, 94.96948
625.1931, 91.46875
625.6752, 90.19727
626.1573, 92.09619
626.6394, 94.59546
627.1215, 94.78430
627.6036, 92.60681
628.0858, 90.98340
628.5679, 90.50195
629.0500, 90.34338
629.5321, 88.87634
630.0142, 86.61462
630.4963, 85.33118
630.9785, 86.40906
631.4606, 88.09155
631.9427, 88.99341
632.4248, 89.28040
632.9069, 89.43774
633.3890, 90.07800
633.8712, 90.25598
634.3533, 89.37036
634.8354, 87.31616
635.3175, 85.47485
635.7996, 83.41809
636.2817, 82.04968
636.7639, 82.05225
637.2460, 83.81921
637.7281, 84.94275
638.2102, 85.35437
638.6923, 85.20068
639.1744, 84.46948
639.6566, 83.25098
640.1387, 82.02600
640.6208, 80.89771
641.1029, 79.86011
641.5850, 78.82886
642.0671, 77.92126
642.5493, 77.32874
643.0314, 77.07410
643.5135, 77.25305
643.9956, 78.79614
644.4777, 80.95276
644.9598, 81.37708
645.4420, 77.16565
645.9241, 73.67065
646.4062, 72.92712
646.8883, 74.78406
647.3704, 75.31580
647.8525, 73.91956
648.3347, 72.53259
648.8168, 72.58435
649.2989, 73.99036
649.7810, 74.27466
650.2631, 73.30969
650.7452, 72.18567
651.2274, 72.38525
651.7095, 73.13831
652.1916, 72.51611
652.6737, 69.71130
653.1558, 67.36792
653.6379, 67.69189
654.1201, 69.52319
654.6022, 71.32458
655.0843, 73.38708
655.5664, 74.50757
656.0485, 73.91711
656.5306, 72.22864
657.0128, 70.82495
657.4949, 69.81287
657.9770, 68.96533
658.4591, 68.36523
658.9412, 67.82520
659.4233, 66.18079
659.9055, 63.27893
660.3876, 61.07922
660.8697, 61.60046
661.3518, 63.43250
661.8339, 62.70227
662.3160, 59.51904
662.7982, 56.18176
663.2803, 54.15930
663.7624, 52.91016
664.2445, 52.08569
664.7266, 51.77075
665.2087, 50.96167
665.6909, 48.70215
666.1730, 46.25439
666.6551, 44.65576
667.1372, 44.87598
667.6193, 44.24524
668.1014, 42.40857
668.5836, 40.14941
669.0657, 38.55310
669.5478, 37.69897
670.0299, 37.04944
670.5120, 36.65894
670.9941, 36.15430
671.4763, 34.70508
671.9584, 32.48755
672.4405, 30.22601
672.9226, 28.31818
673.4047, 26.52643
673.8868, 24.34088
674.3690, 22.08044
674.8511, 20.63330
675.3332, 21.55280
675.8153, 22.16315
676.2974, 20.73627
676.7795, 17.12311
677.2617, 15.29572
677.7438, 16.56018
678.2259, 17.62433
678.7080, 16.44641
679.1901, 12.77295
679.6722, 10.59546
680.1544, 10.03546
680.6365, 9.894836
681.1186, 8.911194
681.6007, 7.502014
682.0828, 6.936768
682.5649, 7.597046
683.0471, 7.763794
683.5292, 5.098816
684.0113, 1.564880
684.4934, 0.2857670
684.9755, 1.838806
685.4576, 3.138306
685.9398, 1.425903
686.4219, 1.620605
686.9040, 3.187317
687.3861, 2.486023
687.8682, 1.883789
688.3503, 1.623962
688.8325, 1.747681
689.3146, 2.554077
689.7967, 4.010376
690.2788, 5.067688
690.7609, 5.205994
691.2430, 4.860413
691.7252, 5.094299
692.2073, 5.657959
692.6894, 5.427979
693.1715, 2.553528
693.6536, 0.3272710
694.1357, 0.9423830
694.6179, 0.6947020
695.1000, 1.742859
695.5821, 0.8596190
696.0642, 0.2680660
696.5463, 0.7813110
697.0284, 0.4392700
697.5106, 0.5762940
697.9927, 1.322144
698.4748, 2.218262
698.9569, 2.960571
699.4390, 3.542908
699.9211, 3.866089
700.4033, 3.859863
700.8854, 4.050781
701.3675, 5.405701
701.8496, 7.149475
702.3317, 7.938416
702.8138, 7.207642
703.2960, 6.698914
703.7781, 7.912842
704.2602, 9.461609
704.7423, 9.695435
705.2244, 6.466919
705.7065, 4.284851
706.1887, 3.728516
706.6708, 4.327637
707.1529, 5.250732
707.6350, 6.647461
708.1171, 7.469666
708.5992, 7.406067
709.0814, 6.647644
709.5635, 4.983337
710.0456, 2.743835
710.5277, 1.557922
711.0098, 3.541748
711.4919, 5.903015
711.9741, 5.831848
712.4562, 3.943298
712.9383, 2.672302
713.4204, 4.071411
713.9025, 5.168030
714.3846, 4.216553
714.8668, 1.350952
715.3489, 3.1799000E-02
715.8310, 0.7105100
716.3131, 1.609985
716.7952, 1.679626
717.2773, 0.9742430
717.7595, 0.1001590
718.2416, 1.578857
718.7237, 2.642151
719.2058, 2.113220
719.6879, 0.9385380
720.1700, 0.8071900
720.6522, 1.968628
721.1343, 2.819763
721.6164, 1.894043
722.0985, 0.6170650
722.5806, 0.3160400
723.0627, 2.139709
723.5449, 2.623291
724.0270, 0.7708740
724.5091, 1.641541
724.9912, 2.995178
725.4733, 3.149353
725.9554, 3.027771
726.4376, 2.695190
726.9197, 2.146606
727.4018, 1.095154
727.8839, 0.1831050
728.3660, 0.8009030
728.8481, 0.4827880
729.3303, 0.3973390
729.8124, 2.245972
730.2945, 4.258118
730.7766, 5.200256
731.2587, 3.728882
731.7408, 2.284607
732.2230, 1.148804
732.7051, 0.4422000
733.1872, 0.5382080
733.6693, 1.780884
734.1514, 2.875854
734.6335, 3.567749
735.1157, 3.888611
735.5978, 3.729797
736.0799, 3.170227
736.5620, 2.850464
737.0441, 3.279358
737.5262, 3.940552
738.0084, 4.495667
738.4905, 4.820557
738.9726, 4.483887
739.4547, 2.052307
739.9368, 0.1121220
740.4189, 0.4038090
740.9011, 2.730042
741.3832, 3.304077
741.8653, 1.308228
742.3474, 1.022034
742.8295, 2.883606
743.3116, 4.301514
743.7938, 5.211975
744.2759, 5.621277
744.7580, 5.813538
745.2401, 5.703796
745.7222, 5.577759
746.2043, 5.821350
746.6865, 6.459961
747.1686, 7.544067
747.6507, 10.01593
748.1328, 12.25153
748.6149, 12.93945
749.0970, 11.45288
749.5792, 10.67828
750.0613, 11.07990
750.5434, 11.71472
751.0255, 11.94531
751.5076, 11.72394
751.9897, 11.70392
752.4719, 11.88098
752.9540, 12.44781
753.4361, 14.11334
753.9182, 16.19360
754.4003, 17.24750
754.8824, 16.98596
755.3646, 16.44910
755.8467, 16.26605
756.3288, 16.16132
756.8109, 15.88306
757.2930, 15.45831
757.7751, 14.71307
758.2573, 13.64801
758.7394, 12.26074
759.2215, 10.27301
759.7036, 7.404419
760.1857, 6.080933
760.6678, 6.864746
761.1500, 8.037598
761.6321, 7.421021
762.1142, 5.473328
762.5963, 3.213135
763.0784, 0.7449950
763.5605, 1.547180
764.0427, 3.294495
764.5248, 4.740784
765.0069, 6.192505
765.4890, 8.090332
765.9711, 9.457397
766.4532, 9.816650
766.9354, 9.925537
767.4175, 10.95569
767.8996, 13.07263
768.3817, 15.19232
768.8638, 17.22015
769.3459, 19.00140
769.8281, 19.52405
770.3102, 19.51837
770.7923, 21.33594
771.2744, 27.29919
771.7565, 32.93994
772.2386, 34.28229
772.7208, 33.41913
773.2029, 33.97546
773.6850, 38.03967
774.1671, 42.15033
774.6492, 45.95483
775.1313, 49.40100
775.6135, 52.37152
776.0956, 54.78479
776.5777, 56.86627
777.0598, 58.60687
777.5419, 60.32080
778.0240, 62.72571
778.5062, 65.50854
778.9883, 67.87079
779.4704, 68.93982
779.9525, 70.13965
780.4346, 72.56506
780.9167, 75.63031
781.3989, 78.22394
781.8810, 79.68164
782.3631, 81.45251
782.8452, 83.77905
783.3273, 86.45996
783.8094, 89.02985
784.2916, 91.48523
784.7737, 93.94006
785.2558, 96.59021
785.7379, 99.07251
786.2200, 100.5899
786.7021, 101.4290
787.1843, 102.3359
787.6664, 103.9556
788.1485, 105.5492
788.6306, 106.3214
789.1127, 106.5799
789.5948, 107.6394
790.0770, 110.9681
790.5591, 113.0999
791.0412, 112.8091
791.5233, 110.9643
792.0054, 110.5648
792.4875, 111.6144
792.9697, 112.7171
793.4518, 113.1179
793.9339, 113.2783
794.4160, 113.9451
794.8981, 115.0541
795.3802, 116.3039
795.8624, 118.6303
796.3445, 119.9654
796.8266, 118.4826
797.3087, 114.7868
797.7908, 112.5778
798.2729, 112.9513
798.7551, 113.3560
799.2372, 112.8165
799.7193, 111.5753
800.2014, 110.7926
800.6835, 110.4978
801.1656, 110.7178
801.6478, 111.7438
802.1299, 113.1485
802.6120, 114.6533
803.0941, 116.1506
803.5762, 117.2814
804.0583, 116.9734
804.5405, 117.1224
805.0226, 119.0900
805.5047, 122.0994
805.9868, 123.2745
806.4689, 122.0234
806.9510, 121.1574
807.4332, 121.4895
807.9153, 122.7593
808.3974, 124.6373
808.8795, 127.0435
809.3616, 129.4172
809.8438, 130.9555
810.3259, 132.6993
810.8080, 135.9919
811.2901, 140.1713
811.7722, 143.3478
812.2543, 143.6532
812.7365, 144.7392
813.2186, 147.7239
813.7007, 152.1041
814.1828, 156.1234
814.6649, 159.8051
815.1470, 163.1946
815.6292, 166.2167
816.1113, 169.0206
816.5934, 171.5134
817.0755, 173.9816
817.5576, 177.2717
818.0397, 182.0334
818.5219, 187.1262
819.0040, 192.2291
819.4861, 197.3679
819.9682, 202.2925
820.4503, 207.1167
820.9324, 211.6509
821.4146, 215.4587
821.8967, 219.0433
822.3788, 224.0056
822.8609, 230.2144
823.3430, 236.3099
823.8251, 241.8710
824.3073, 246.9584
824.7894, 251.2601
825.2715, 255.2064
825.7536, 259.9156
826.2357, 266.6725
826.7178, 273.1810
827.2000, 278.1407
827.6821, 282.5638
828.1642, 288.4142
828.6463, 296.3973
829.1284, 303.4875
829.6105, 309.1077
830.0927, 313.6670
830.5748, 317.2544
831.0569, 320.3964
831.5390, 325.0269
832.0211, 332.6719
832.5032, 340.6632
832.9854, 346.7157
833.4675, 351.9756
833.9496, 358.0623
834.4317, 365.7538
834.9138, 373.7253
835.3959, 382.0995
835.8781, 390.4299
836.3602, 398.0818
836.8423, 404.9694
837.3244, 411.7566
837.8065, 418.4072
838.2886, 425.4631
838.7708, 433.6218
839.2529, 442.6693
839.7350, 452.4591
840.2171, 463.7926
840.6992, 474.1432
841.1813, 482.2921
841.6635, 489.2987
842.1456, 496.3670
842.6277, 503.5551
843.1098, 510.4862
843.5919, 517.0687
844.0740, 523.6308
844.5562, 530.8041
845.0383, 538.2429
845.5204, 544.7187
846.0025, 549.9670
846.4846, 554.9068
846.9667, 559.9532
847.4489, 565.1850
847.9310, 570.6760
848.4131, 576.6966
848.8952, 582.4419
849.3773, 588.2665
849.8594, 593.3260
850.3416, 596.4919
850.8237, 597.8369
851.3058, 600.9847
851.7879, 606.2290
852.2700, 610.7957
852.7521, 611.5356
853.2343, 610.8398
853.7164, 611.8441
854.1985, 614.9476
854.6806, 617.1085
855.1627, 617.0179
855.6448, 615.9434
856.1270, 614.5035
856.6091, 612.6811
857.0912, 610.2373
857.5733, 606.9755
858.0554, 604.3173
858.5375, 603.9343
859.0197, 604.5627
859.5018, 603.2679
859.9839, 600.2729
860.4660, 597.0439
860.9481, 594.9255
861.4302, 592.2990
861.9124, 587.5334
862.3945, 581.0029
862.8766, 576.5374
863.3587, 575.2352
863.8408, 573.7783
864.3229, 571.2637
864.8051, 567.7037
865.2872, 562.6304
865.7693, 556.3391
866.2514, 550.8538
866.7335, 548.0089
867.2156, 545.5931
867.6978, 542.0314
868.1799, 537.6698
868.6620, 533.2103
869.1441, 529.6763
869.6262, 524.9125
870.1083, 518.2253
870.5905, 510.3689
871.0726, 502.9326
871.5547, 495.7974
872.0368, 488.3508
872.5189, 480.1809
873.0010, 472.3928
873.4832, 467.4033
873.9653, 463.2664
874.4474, 456.7659
874.9295, 445.6003
875.4116, 434.6608
875.8937, 425.0865
876.3759, 415.8105
876.8580, 406.0808
877.3401, 395.8514
877.8222, 386.1523
878.3043, 377.0685
878.7864, 368.1030
879.2686, 358.1045
879.7507, 347.7868
880.2328, 338.8130
880.7149, 331.6303
881.1970, 324.1401
881.6791, 315.0052
882.1613, 305.4756
882.6434, 296.0836
883.1255, 286.6824
883.6076, 278.4019
884.0897, 271.6996
884.5718, 264.7231
885.0540, 255.6095
885.5361, 245.2618
886.0182, 236.9678
886.5003, 230.5410
886.9824, 224.9103
887.4645, 219.4832
887.9467, 214.4736
888.4288, 210.2426
888.9109, 206.7059
889.3930, 202.4670
889.8751, 197.3566
890.3572, 192.0754
890.8394, 186.6927
891.3215, 181.4905
891.8036, 177.7283
892.2857, 175.1047
892.7678, 171.8479
893.2499, 166.6432
893.7321, 161.3444
894.2142, 157.0813
894.6963, 153.7124
895.1784, 151.0255
895.6605, 149.3438
896.1426, 147.7865
896.6248, 146.1866
897.1069, 144.7268
897.5890, 143.7287
898.0711, 143.1317
898.5532, 142.5510
899.0353, 141.8565
899.5175, 141.3074
899.9996, 141.0364
900.4817, 141.0621
900.9638, 141.5170
901.4459, 142.7122
901.9280, 143.3655
902.4102, 142.8585
902.8923, 142.3416
903.3744, 142.7540
903.8565, 144.1160
904.3386, 144.8024
904.8207, 144.8030
905.3029, 144.6479
905.7850, 144.3752
906.2671, 144.4489
906.7492, 145.7964
907.2313, 148.3030
907.7134, 149.9395
908.1956, 149.4272
908.6777, 148.6986
909.1598, 148.5576
909.6419, 148.7197
910.1240, 147.5162
910.6061, 144.9369
911.0883, 142.6450
911.5704, 141.6463
912.0525, 141.0075
912.5346, 139.9318
913.0167, 138.2048
913.4988, 135.3626
913.9810, 130.1009
914.4631, 125.1487
914.9452, 121.3329
915.4273, 117.9201
915.9094, 113.7513
916.3915, 108.7968
916.8737, 104.1557
917.3558, 100.0135
917.8379, 96.07330
918.3200, 92.45349
918.8021, 88.63208
919.2842, 83.49750
919.7664, 76.42050
920.2485, 70.32764
920.7306, 67.26630
921.2127, 64.46671
921.6948, 60.30182
922.1769, 54.64697
922.6591, 48.96158
923.1412, 43.15195
923.6233, 37.99265
924.1054, 34.21130
924.5875, 31.22369
925.0696, 28.39026
925.5518, 25.59122
926.0339, 22.32275
926.5160, 17.63992
926.9981, 13.36322
927.4802, 10.19464
927.9623, 7.883057
928.4445, 5.541016
928.9266, 3.113434
929.4087, 1.258331
929.8908, 0.3282170
930.3729, 0.3570560
930.8550, 1.526093
931.3372, 3.185181
931.8193, 5.371704
932.3014, 9.249115
932.7835, 11.76712
933.2656, 11.07318
933.7477, 9.628235
934.2299, 9.732391
934.7120, 11.57761
935.1941, 13.15198
935.6762, 14.37531
936.1583, 15.07343
936.6404, 14.57141
937.1226, 13.68179
937.6047, 13.47513
938.0868, 14.05380
938.5689, 14.77652
939.0510, 16.13022
939.5331, 16.81812
940.0153, 16.20740
940.4974, 14.49030
940.9795, 12.86981
941.4616, 11.34326
941.9437, 10.25403
942.4258, 9.806793
942.9080, 9.810730
943.3901, 10.38235
943.8722, 11.17502
944.3543, 11.44806
944.8364, 10.89212
945.3185, 9.815948
945.8007, 7.876770
946.2828, 5.826843
946.7649, 4.734680
947.2470, 4.575134
947.7291, 4.627106
948.2112, 4.882233
948.6934, 4.711853
949.1755, 3.256012
949.6576, 1.213165
950.1397, 0.6196590
950.6218, 2.052856
951.1039, 3.816101
951.5861, 6.556915
952.0682, 8.818695
952.5503, 9.602966
953.0324, 9.231567
953.5145, 10.08307
953.9966, 12.06116
954.4788, 13.94943
954.9609, 14.67978
955.4430, 15.38705
955.9251, 17.17868
956.4072, 19.66034
956.8893, 21.74796
957.3715, 22.87085
957.8536, 24.35660
958.3357, 26.57629
958.8178, 28.91083
959.2999, 30.10037
959.7820, 30.46997
960.2642, 31.62836
960.7463, 34.01727
961.2284, 36.38025
961.7105, 37.65945
962.1926, 38.60559
962.6747, 39.96588
963.1569, 41.99661
963.6390, 43.33087
964.1211, 43.65723
964.6032, 44.13867
965.0853, 45.65622
965.5674, 47.83600
966.0496, 49.58932
966.5317, 50.99698
967.0138, 52.46490
967.4959, 54.28757
967.9780, 56.14157
968.4601, 57.84332
968.9423, 59.46942
969.4244, 61.20120
969.9065, 63.12006
970.3886, 64.77747
970.8707, 66.01031
971.3528, 67.23593
971.8350, 69.26990
972.3171, 71.62753
972.7992, 73.36398
973.2813, 74.14816
973.7634, 75.04794
974.2455, 76.42151
974.7277, 78.08383
975.2098, 80.00247
975.6919, 82.18381
976.1740, 84.02213
976.6561, 85.50778
977.1382, 86.83624
977.6204, 88.00128
978.1025, 89.17035
978.5846, 90.46191
979.0667, 91.91907
979.5488, 93.67920
980.0309, 96.34488
980.5131, 98.52524
980.9952, 99.85379
981.4773, 100.7522
981.9594, 101.8606
982.4415, 103.1684
982.9236, 104.6334
983.4058, 106.2711
983.8879, 107.7930
984.3700, 109.0524
984.8521, 110.0215
985.3342, 110.5328
985.8163, 110.3727
986.2985, 110.9199
986.7806, 112.5159
987.2627, 114.0735
987.7448, 114.9269
988.2269, 115.3478
988.7090, 116.1588
989.1912, 117.2609
989.6733, 118.3161
990.1554, 119.6021
990.6375, 120.1102
991.1196, 118.8385
991.6017, 116.9507
992.0839, 116.2958
992.5660, 117.0191
993.0481, 117.8004
993.5302, 118.5770
994.0123, 119.1889
994.4944, 119.3797
994.9766, 119.4124
995.4587, 119.6206
995.9408, 120.0024
996.4229, 120.2492
996.9050, 120.4724
997.3871, 120.2259
997.8693, 119.2086
998.3514, 117.6838
998.8335, 116.8247
999.3156, 116.6124
999.7977, 116.7755
1000.280, 117.3449
1000.762, 117.9425
1001.244, 118.1799
1001.726, 118.1904
1002.208, 118.2550
1002.690, 118.6169
1003.173, 118.8481
1003.655, 118.8493
1004.137, 119.0722
1004.619, 120.1759
1005.101, 121.7591
1005.583, 122.5291
1006.065, 122.4201
1006.547, 121.9824
1007.029, 120.8072
1007.512, 120.2465
1007.994, 121.6165
1008.476, 124.3041
1008.958, 125.6868
1009.440, 125.5773
1009.922, 125.4312
1010.404, 125.7149
1010.886, 125.9538
1011.369, 125.3763
1011.851, 124.4167
1012.333, 123.8386
1012.815, 124.2534
1013.297, 123.9380
1013.779, 121.8558
1014.261, 119.9140
1014.743, 119.7174
1015.225, 121.1422
1015.708, 121.5580
1016.190, 121.0462
1016.672, 119.9879
1017.154, 118.2658
1017.636, 116.4241
1018.118, 114.9236
1018.600, 113.6401
1019.082, 112.0892
1019.565, 110.2892
1020.047, 107.9904
1020.529, 104.8300
1021.011, 101.9158
1021.493, 101.5555
1021.975, 102.3531
1022.457, 101.0906
1022.939, 97.00241
1023.421, 93.01343
1023.904, 90.67960
1024.386, 88.48489
1024.868, 85.44250
1025.350, 81.72461
1025.832, 79.19147
1026.314, 77.82724
1026.796, 75.80316
1027.278, 71.88971
1027.760, 67.48859
1028.243, 63.61215
1028.725, 60.31000
1029.207, 57.72681
1029.689, 56.59543
1030.171, 54.97705
1030.653, 52.79947
1031.135, 50.23996
1031.617, 47.21246
1032.100, 43.99733
1032.582, 41.26947
1033.064, 39.01172
1033.546, 36.83966
1034.028, 34.29913
1034.510, 32.04218
1034.992, 30.49829
1035.474, 29.41371
1035.957, 28.43431
1036.439, 27.59604
1036.921, 25.95193
1037.403, 22.99585
1037.885, 20.09506
1038.367, 19.27325
1038.849, 19.19344
1039.331, 18.06302
1039.813, 15.05685
1040.296, 13.24617
1040.778, 13.25627
1041.260, 13.51166
1041.742, 13.27176
1042.224, 12.64795
1042.706, 12.07532
1043.188, 11.48538
1043.670, 10.57132
1044.152, 8.614273
1044.635, 7.035950
1045.117, 6.593491
1045.599, 6.793289
1046.081, 7.184631
1046.563, 7.892502
1047.045, 7.604691
1047.527, 6.174316
1048.009, 4.572479
1048.492, 3.376236
1048.974, 2.673767
1049.456, 2.846558
1049.938, 3.797775
1050.420, 4.223419
1050.902, 3.852158
1051.384, 3.198166
1051.866, 2.179596
1052.349, 1.243652
1052.831, 1.498123
1053.313, 2.548782
1053.795, 3.267548
1054.277, 3.265030
1054.759, 3.101410
1055.241, 2.999893
1055.723, 2.944595
1056.205, 2.899918
1056.688, 2.866959
1057.170, 2.995514
1057.652, 3.285553
1058.134, 3.503494
1058.616, 3.465149
1059.098, 3.361771
1059.580, 3.421265
1060.062, 3.536377
1060.544, 3.488068
1061.027, 3.056763
1061.509, 2.889236
1061.991, 3.077820
1062.473, 3.324768
1062.955, 3.270142
1063.437, 3.088760
1063.919, 3.230057
1064.401, 3.671280
1064.884, 3.989029
1065.366, 3.946030
1065.848, 3.799011
1066.330, 3.604675
1066.812, 3.393158
1067.294, 3.259735
1067.776, 3.192032
1068.258, 2.966110
1068.740, 2.480896
1069.223, 2.196899
1069.705, 2.897095
1070.187, 3.643234
1070.669, 3.571976
1071.151, 2.612701
1071.633, 1.379562
1072.115, 0.3712620
1072.597, 1.202866
1073.079, 3.1296000E-02
1073.562, 1.804352
1074.044, 2.145920
1074.526, 1.672440
1075.008, 1.687851
1075.490, 3.263260
1075.972, 4.085678
1076.454, 3.771866
1076.936, 3.034393
1077.419, 2.338501
1077.901, 1.689926
1078.383, 0.9834900
1078.865, 0.2759090
1079.347, 3.9519998E-03
1079.829, 0.8936000
1080.311, 1.722488
1080.793, 1.732880
1081.275, 1.424820
1081.758, 1.721039
1082.240, 2.689911
1082.722, 2.909775
1083.204, 2.156372
1083.686, 1.101288
1084.168, 1.5976001E-02
1084.650, 0.9116060
1085.132, 1.241364
1085.615, 0.9925080
1086.097, 0.7883300
1086.579, 0.6686550
1087.061, 0.4981230
1087.543, 0.1639100
1088.025, 0.1026000
1088.507, 0.1648710
1088.989, 0.7386780
1089.471, 1.237656
1089.953, 1.602951
1090.436, 1.774078
1090.918, 1.601639
1091.400, 1.436462
1091.882, 1.551025
1092.364, 1.810364
1092.846, 1.508606
1093.328, 0.7496640
1093.810, 2.0691000E-02
1094.293, 0.4921420
1094.775, 0.8700710
1095.257, 1.162720
1095.739, 1.317902
1096.221, 1.287292
1096.703, 1.060303
1097.185, 0.6011810
1097.667, 0.1135860
1098.150, 0.5585020
1098.632, 6.3187003E-02
1099.114, 0.7949830
1099.596, 0.5746310
1100.078, 0.2330470
1100.560, 0.3321530
1101.042, 0.6920930
1101.524, 1.343811
1102.006, 1.379105
1102.489, 1.167969
1102.971, 1.014191
1103.453, 0.9558560
1103.935, 1.154434
1104.417, 1.607895
1104.899, 1.771286
1105.381, 1.087875
1105.863, 0.7861330
1106.345, 1.411331
1106.828, 2.333527
1107.310, 2.049316
1107.792, 0.9325560
1108.274, 0.1090850
1108.756, 0.1365660
1109.238, 0.2454680
1109.720, 0.2888640
1110.202, 0.4122160
1110.685, 0.8040620
1111.167, 1.354095
1111.649, 1.145279
1112.131, 0.2515110
1112.613, 0.6598050
1113.095, 1.342072
1113.577, 1.865814
1114.059, 2.290665
1114.542, 2.560608
1115.024, 2.565323
1115.506, 2.191574
1115.988, 2.204483
1116.470, 2.644653
1116.952, 3.044983
1117.434, 3.225647
1117.916, 3.095840
1118.398, 2.212479
1118.880, 0.9774480
1119.363, 0.3914790
1119.845, 0.8898160
1120.327, 1.406601
1120.809, 1.911423
1121.291, 2.300751
1121.773, 2.441223
1122.255, 2.403809
1122.737, 2.259827
1123.220, 2.032211
1123.702, 1.832123
1124.184, 1.537750
1124.666, 1.542389
1125.148, 2.052094
1125.630, 2.692657
1126.112, 2.766434
1126.594, 2.478210
1127.077, 2.533188
1127.559, 3.051849
1128.041, 3.410904
1128.523, 3.103867
1129.005, 2.783600
1129.487, 2.753998
1129.969, 2.884369
1130.451, 2.735931
1130.933, 2.507965
1131.416, 2.865158
1131.898, 4.205093
1132.380, 5.189041
1132.862, 4.408691
1133.344, 3.331375
1133.826, 3.122391
1134.308, 3.745102
1134.790, 4.538559
1135.272, 5.519089
1135.755, 5.960602
1136.237, 5.298798
1136.719, 4.476517
1137.201, 4.393173
1137.683, 4.688614
1138.165, 4.902893
1138.647, 5.015808
1139.129, 4.905106
1139.612, 4.521088
1140.094, 4.283981
1140.576, 4.583450
1141.058, 5.064743
1141.540, 5.452118
1142.022, 5.642502
1142.504, 5.365036
1142.986, 4.108795
1143.469, 3.464890
1143.951, 3.583191
1144.433, 3.936417
1144.915, 4.122116
1145.397, 4.221710
1145.879, 4.375458
1146.361, 4.539246
1146.843, 4.593384
1147.325, 4.422607
1147.807, 4.267960
1148.290, 4.175797
1148.772, 4.134735
1149.254, 4.188797
1149.736, 4.223755
1150.218, 3.933517
1150.700, 3.339554
1151.182, 2.794418
1151.664, 2.016068
1152.147, 1.874954
1152.629, 2.867432
1153.111, 4.309067
1153.593, 4.912613
1154.075, 4.819443
1154.557, 4.713684
1155.039, 4.711441
1155.521, 4.490158
1156.004, 3.298264
1156.486, 2.546677
1156.968, 3.076218
1157.450, 4.330643
1157.932, 4.463303
1158.414, 3.654388
1158.896, 3.125916
1159.378, 3.184616
1159.860, 3.409424
1160.343, 3.589905
1160.825, 3.767822
1161.307, 4.014969
1161.789, 4.306503
1162.271, 4.444366
1162.753, 4.425949
1163.235, 4.169739
1163.717, 3.479797
1164.199, 2.970810
1164.682, 3.245346
1165.164, 3.884201
1165.646, 4.605408
1166.128, 5.430099
1166.610, 5.364944
1167.092, 4.373230
1167.574, 3.654160
1168.056, 3.972855
1168.539, 4.508698
1169.021, 4.829575
1169.503, 4.877777
1169.985, 4.431519
1170.467, 3.238586
1170.949, 2.603088
1171.431, 2.576981
1171.913, 2.753418
1172.396, 3.010422
1172.878, 3.223892
1173.360, 3.135651
1173.842, 2.919159
1174.324, 2.947067
1174.806, 3.534119
1175.288, 3.413940
1175.770, 2.340775
1176.252, 1.577209
1176.734, 2.795242
1177.217, 4.396240
1177.699, 3.973236
1178.181, 2.277145
1178.663, 1.668320
1179.145, 3.087158
1179.627, 4.042953
1180.109, 4.288696
1180.591, 4.239868
1181.074, 4.332687
1181.556, 4.367661
1182.038, 3.965820
1182.520, 3.221588
1183.002, 2.629593
1183.484, 2.133606
1183.966, 2.119980
1184.448, 2.787369
1184.931, 3.499634
1185.413, 3.389053
1185.895, 2.917038
1186.377, 2.937912
1186.859, 3.410873
1187.341, 3.457779
1187.823, 2.607315
1188.305, 1.920959
1188.787, 1.574341
1189.270, 1.498672
1189.752, 1.795456
1190.234, 2.215897
1190.716, 2.261993
1191.198, 1.898315
1191.680, 1.693909
1192.162, 1.847717
1192.644, 2.021194
1193.126, 2.150726
1193.609, 2.238480
1194.091, 2.342590
1194.573, 2.383469
1195.055, 2.142838
1195.537, 1.569382
1196.019, 1.255615
1196.501, 1.446701
1196.983, 1.700424
1197.466, 1.924042
1197.948, 2.077942
1198.430, 2.034882
1198.912, 1.872620
1199.394, 1.738968
1199.876, 1.657089
1200.358, 1.644257
1200.840, 1.776428
1201.323, 1.822739
1201.805, 1.669495
1202.287, 1.435287
1202.769, 1.374771
1203.251, 1.407974
1203.733, 1.352417
1204.215, 1.127548
1204.697, 1.029633
1205.179, 1.254013
1205.661, 1.333328
1206.144, 0.9974210
1206.626, 0.4582520
1207.108, 5.3863999E-02
1207.590, 0.3360750
1208.072, 0.2469180
1208.554, 2.429825
1209.036, 3.427567
1209.518, 2.384216
1210.001, 1.059341
1210.483, 0.1255190
1210.965, 0.3011470
1211.447, 0.4880370
1211.929, 2.000763
1212.411, 2.917542
1212.893, 2.602188
1213.375, 2.642792
1213.858, 3.595276
1214.340, 4.113220
1214.822, 3.145874
1215.304, 1.456970
1215.786, 0.9155580
1216.268, 1.112747
1216.750, 1.123962
1217.232, 0.3203430
1217.714, 0.2002870
1218.197, 1.196274
1218.679, 2.125061
1219.161, 2.091675
1219.643, 1.575287
1220.125, 1.699356
1220.607, 2.156204
1221.089, 2.216293
1221.571, 1.249954
1222.053, 0.6480410
1222.536, 0.5138850
1223.018, 0.6472470
1223.500, 1.181015
1223.982, 1.727570
1224.464, 1.101395
1224.946, 0.1002200
1225.428, 0.5196990
1225.910, 1.349808
1226.393, 2.005005
1226.875, 1.018631
1227.357, 1.6295999E-02
1227.839, 0.3502960
1228.321, 1.262680
1228.803, 1.167419
1229.285, 0.4321900
1229.767, 0.1041260
1230.250, 0.3643190
1230.732, 3.2471001E-02
1231.214, 1.128922
1231.696, 1.973267
1232.178, 1.077469
1232.660, 0.2762150
1233.142, 0.1190190
1233.624, 0.9364170
1234.106, 1.401001
1234.589, 0.7544710
1235.071, 0.3579250
1235.553, 0.2820280
1236.035, 0.2476810
1236.517, 6.9077000E-02
1236.999, 0.3710940
1237.481, 0.2267150
1237.963, 0.1846010
1238.445, 0.4296420
1238.928, 0.4529720
1239.410, 0.3334050
1239.892, 3.2393999E-02
1240.374, 8.8867001E-02
1240.856, 0.4444120
1241.338, 1.092514
1241.820, 1.358231
1242.302, 1.367310
1242.785, 1.441483
1243.267, 1.673874
1243.749, 1.490601
1244.231, 0.8500820
1244.713, 0.2611690
1245.195, 1.6940000E-03
1245.677, 2.0996001E-02
1246.159, 0.4315190
1246.641, 1.035629
1247.124, 1.619553
1247.606, 2.210495
1248.088, 2.043060
1248.570, 1.099808
1249.052, 0.4841160
1249.534, 1.424484
1250.016, 2.288376
1250.498, 1.761185
1250.980, 0.7568050
1251.463, 0.5435640
1251.945, 1.112045
1252.427, 1.408218
1252.909, 1.405350
1253.391, 1.423019
1253.873, 1.945541
1254.355, 2.160736
1254.837, 1.389359
1255.320, 0.4185940
1255.802, 0.2062680
1256.284, 0.6864320
1256.766, 0.9630740
1257.248, 1.064606
1257.730, 1.170258
1258.212, 1.672516
1258.694, 1.823517
1259.177, 1.015625
1259.659, 0.2303920
1260.141, 0.7022400
1260.623, 1.954819
1261.105, 2.543991
1261.587, 2.443924
1262.069, 2.109314
1262.551, 1.150665
1263.033, 0.6586000
1263.516, 0.9721830
1263.998, 1.421158
1264.480, 1.296051
1264.962, 0.8487400
1265.444, 0.4594420
1265.926, 0.2257540
1266.408, 0.3625180
1266.890, 1.347351
1267.372, 1.846176
1267.855, 1.776871
1268.337, 1.347839
1268.819, 0.2118990
1269.301, 0.7548220
1269.783, 4.5395002E-02
1270.265, 1.957825
1270.747, 3.095352
1271.229, 3.216217
1271.712, 2.888046
1272.194, 2.044815
1272.676, 1.390686
1273.158, 1.788605
1273.640, 2.433868
1274.122, 2.473129
1274.604, 2.213501
1275.086, 2.390656
1275.568, 3.086334
1276.051, 3.336472
1276.533, 3.185379
1277.015, 2.890457
1277.497, 1.905762
1277.979, 1.477646
1278.461, 1.763138
1278.943, 2.244827
1279.425, 2.480972
1279.907, 2.475128
1280.390, 1.880142
1280.872, 0.7913210
1281.354, 1.0498000E-02
1281.836, 0.1840360
1282.318, 0.4963380
1282.800, 0.6849980
1283.282, 0.7959440
1283.764, 0.3479770
1284.247, 8.7798998E-02
1284.729, 0.1171880
1285.211, 0.0000000E+00
##END=



