##NAMES=Tolovkite
##RRUFFID=R070110
##IDEAL CHEMISTRY=IrSbS
##LOCALITY=placer from Ust-Belsky Massif, Korjak Highand, Russia
##OWNER=RRUFF
##SOURCE=Michael Scott
##DESCRIPTION=Dark gray metallic crystal embedded in epoxy
##STATUS=The identification of this mineral is not yet confirmed.
##URL=rruff.info/R070110
152.6476, 0.0000000E+00
153.1297, 72.59180
153.6118, 173.0427
154.0940, 294.0488
154.5761, 381.8809
155.0582, 457.3503
155.5403, 523.5220
156.0224, 490.0654
156.5045, 335.9441
156.9867, 171.7546
157.4688, 63.94702
157.9509, 15.53540
158.4330, 11.68457
158.9151, 17.67261
159.3972, 1.034668
159.8794, 55.69580
160.3615, 135.9397
160.8436, 224.7808
161.3257, 313.3330
161.8078, 401.3792
162.2899, 459.0103
162.7721, 450.4829
163.2542, 444.2505
163.7363, 464.1709
164.2184, 499.5093
164.7005, 525.2039
165.1826, 521.0637
165.6648, 486.9272
166.1469, 462.0974
166.6290, 449.2559
167.1111, 442.0496
167.5932, 445.3020
168.0753, 455.4697
168.5575, 466.1914
169.0396, 473.7434
169.5217, 478.9353
170.0038, 490.7581
170.4859, 515.0037
170.9680, 536.8259
171.4502, 554.0315
171.9323, 566.7876
172.4144, 573.0122
172.8965, 568.7129
173.3786, 559.9475
173.8607, 550.5244
174.3429, 540.0266
174.8250, 525.0820
175.3071, 507.2905
175.7892, 484.7202
176.2713, 451.4802
176.7534, 401.8862
177.2356, 338.5198
177.7177, 298.5039
178.1998, 297.2151
178.6819, 296.2732
179.1640, 279.2527
179.6461, 252.6946
180.1283, 234.8320
180.6104, 239.2568
181.0925, 261.6313
181.5746, 260.7927
182.0567, 217.0911
182.5388, 177.4421
183.0210, 159.7886
183.5031, 157.9299
183.9852, 158.4407
184.4673, 154.7322
184.9494, 146.9341
185.4315, 132.3105
185.9137, 105.3984
186.3958, 80.51855
186.8779, 60.03833
187.3600, 44.08350
187.8421, 33.90918
188.3242, 31.03931
188.8064, 34.23853
189.2885, 38.49146
189.7706, 50.01855
190.2527, 55.54150
190.7348, 46.13550
191.2169, 27.61841
191.6991, 12.88428
192.1812, 9.085205
192.6633, 12.44946
193.1454, 8.356201
193.6275, 11.66870
194.1096, 24.96313
194.5918, 22.13477
195.0739, 7.919678
195.5560, 10.04224
196.0381, 29.83203
196.5202, 49.07593
197.0023, 61.11426
197.4845, 63.57397
197.9666, 66.25610
198.4487, 74.96533
198.9308, 85.61523
199.4129, 90.43994
199.8950, 86.65503
200.3772, 76.44238
200.8593, 60.34082
201.3414, 34.70508
201.8235, 17.21436
202.3056, 15.94458
202.7877, 25.47241
203.2699, 37.79224
203.7520, 51.45044
204.2341, 64.94141
204.7162, 76.35181
205.1983, 86.27588
205.6804, 92.63574
206.1626, 93.33350
206.6447, 90.53662
207.1268, 86.39160
207.6089, 80.66089
208.0910, 77.44482
208.5731, 85.52075
209.0553, 106.8499
209.5374, 118.4639
210.0195, 110.9792
210.5016, 99.41333
210.9837, 87.26831
211.4658, 76.25659
211.9480, 66.05249
212.4301, 54.48730
212.9122, 41.70581
213.3943, 35.19556
213.8764, 40.16602
214.3585, 50.82617
214.8407, 61.94434
215.3228, 73.52612
215.8049, 81.44629
216.2870, 78.22510
216.7691, 66.55981
217.2512, 64.37598
217.7334, 84.11230
218.2155, 106.7095
218.6976, 113.5991
219.1797, 104.4094
219.6618, 91.27393
220.1439, 79.72559
220.6261, 71.35352
221.1082, 70.75635
221.5903, 85.10669
222.0724, 102.8113
222.5545, 116.6963
223.0366, 127.8113
223.5188, 136.6741
224.0009, 143.6562
224.4830, 147.7446
224.9651, 146.8948
225.4472, 138.1948
225.9293, 128.2913
226.4115, 120.9285
226.8936, 115.5964
227.3757, 110.2078
227.8578, 103.7249
228.3399, 97.15186
228.8220, 91.55103
229.3041, 84.53076
229.7863, 84.22900
230.2684, 101.7034
230.7505, 129.0581
231.2326, 144.7498
231.7147, 138.8884
232.1968, 122.2837
232.6790, 114.3096
233.1611, 115.6658
233.6432, 119.3481
234.1253, 125.2366
234.6074, 131.6230
235.0895, 134.1055
235.5717, 130.5083
236.0538, 127.3733
236.5359, 137.0984
237.0180, 161.9084
237.5001, 177.3372
237.9822, 172.6172
238.4644, 158.6687
238.9465, 146.8386
239.4286, 138.8171
239.9107, 135.7815
240.3928, 141.0786
240.8749, 155.3667
241.3571, 166.4956
241.8392, 175.0293
242.3213, 179.0515
242.8034, 175.0242
243.2855, 163.2356
243.7676, 149.6912
244.2498, 137.4456
244.7319, 127.3958
245.2140, 125.4119
245.6961, 144.0449
246.1782, 159.6753
246.6603, 153.6487
247.1425, 130.2900
247.6246, 110.5701
248.1067, 107.4233
248.5888, 118.0244
249.0709, 126.5413
249.5530, 136.0125
250.0352, 140.7092
250.5173, 135.3186
250.9994, 123.6433
251.4815, 113.2456
251.9636, 107.7026
252.4457, 106.3633
252.9279, 105.4910
253.4100, 103.2192
253.8921, 102.9683
254.3742, 107.1438
254.8563, 113.0554
255.3384, 117.1152
255.8206, 118.1890
256.3027, 117.5562
256.7848, 117.5874
257.2669, 121.0173
257.7490, 118.2834
258.2311, 100.4890
258.7133, 81.47437
259.1954, 74.24536
259.6775, 80.55225
260.1596, 92.48804
260.6417, 102.2664
261.1238, 110.7852
261.6060, 110.6848
262.0881, 96.72583
262.5702, 79.53955
263.0523, 65.08032
263.5344, 53.22510
264.0165, 40.13696
264.4987, 21.69604
264.9808, 2.096680
265.4629, 14.53784
265.9450, 8.521484
266.4271, 0.3925780
266.9092, 7.907227
267.3914, 14.36694
267.8735, 15.24219
268.3556, 7.900146
268.8377, 4.960205
269.3198, 11.95142
269.8019, 7.581543
270.2841, 3.038330
270.7662, 3.957520
271.2483, 9.498535
271.7304, 8.374512
272.2125, 1.200928
272.6946, 14.79346
273.1768, 24.29224
273.6589, 29.58081
274.1410, 30.36597
274.6231, 21.61890
275.1052, 12.58960
275.5873, 11.20459
276.0695, 17.77075
276.5516, 25.35645
277.0337, 26.00903
277.5158, 18.83203
277.9979, 8.717773
278.4800, 16.24512
278.9622, 33.28003
279.4443, 26.38696
279.9264, 2.362549
280.4085, 19.22559
280.8906, 22.79492
281.3727, 9.969482
281.8549, 0.7038570
282.3370, 8.593018
282.8191, 14.66284
283.3012, 21.04980
283.7833, 25.41943
284.2654, 23.10059
284.7476, 10.35449
285.2297, 6.339844
285.7118, 10.52954
286.1939, 3.099121
286.6760, 16.75684
287.1581, 25.16895
287.6403, 32.34253
288.1224, 42.74219
288.6045, 57.61328
289.0866, 71.45850
289.5687, 76.43164
290.0508, 71.52661
290.5330, 68.54272
291.0151, 72.10645
291.4972, 75.85327
291.9793, 74.80957
292.4614, 69.39502
292.9435, 64.47363
293.4257, 62.29932
293.9078, 63.16870
294.3899, 69.81689
294.8720, 86.60596
295.3541, 101.2131
295.8362, 102.6956
296.3184, 95.86768
296.8005, 91.48389
297.2826, 93.77051
297.7647, 100.5842
298.2468, 110.0256
298.7289, 122.5576
299.2111, 133.6519
299.6932, 140.8752
300.1753, 145.0449
300.6574, 146.9614
301.1395, 143.5950
301.6216, 143.5190
302.1038, 155.2473
302.5859, 176.2935
303.0680, 196.7183
303.5501, 214.7046
304.0322, 227.9871
304.5143, 231.4019
304.9964, 223.6477
305.4785, 216.7307
305.9607, 212.2632
306.4428, 211.8289
306.9249, 219.9861
307.4070, 238.0051
307.8891, 256.4756
308.3712, 264.7927
308.8534, 261.5471
309.3355, 263.2136
309.8176, 274.2021
310.2997, 286.9324
310.7818, 298.7107
311.2639, 308.2708
311.7461, 310.5168
312.2282, 299.2407
312.7103, 278.7544
313.1924, 280.7576
313.6745, 328.9707
314.1566, 367.8303
314.6388, 381.3994
315.1209, 378.0959
315.6030, 367.3384
316.0851, 352.7898
316.5672, 339.4426
317.0493, 337.6584
317.5315, 359.3250
318.0136, 372.3325
318.4957, 371.5989
318.9778, 366.5432
319.4599, 361.2654
319.9420, 357.7122
320.4242, 358.8513
320.9063, 368.8545
321.3884, 389.1907
321.8705, 403.4883
322.3526, 408.2373
322.8347, 409.8518
323.3169, 410.5522
323.7990, 410.0408
324.2811, 404.8679
324.7632, 391.7791
325.2453, 374.3435
325.7274, 364.6653
326.2096, 365.4985
326.6917, 368.5342
327.1738, 374.9736
327.6559, 381.5706
328.1380, 385.2954
328.6201, 385.3865
329.1023, 382.0134
329.5844, 372.1392
330.0665, 354.5403
330.5486, 347.6113
331.0307, 361.6445
331.5128, 379.8313
331.9950, 391.7708
332.4771, 398.7273
332.9592, 404.6411
333.4413, 409.8430
333.9234, 414.9746
334.4055, 423.5381
334.8877, 437.3865
335.3698, 450.0186
335.8519, 454.0081
336.3340, 454.5247
336.8161, 460.6362
337.2982, 477.5063
337.7804, 494.8662
338.2625, 501.9097
338.7446, 501.5439
339.2267, 505.7764
339.7088, 520.4963
340.1909, 538.1890
340.6731, 544.2661
341.1552, 535.2927
341.6373, 532.6431
342.1194, 549.6250
342.6015, 572.5078
343.0836, 580.3120
343.5658, 570.5122
344.0479, 563.0400
344.5300, 576.9792
345.0121, 614.4624
345.4942, 643.2380
345.9763, 655.8926
346.4585, 667.6819
346.9406, 690.7905
347.4227, 718.6611
347.9048, 734.1030
348.3869, 726.8394
348.8690, 705.4861
349.3512, 697.8718
349.8333, 719.3604
350.3154, 734.7065
350.7975, 744.2659
351.2796, 746.4731
351.7617, 738.4668
352.2439, 720.5203
352.7260, 697.1763
353.2081, 672.5164
353.6902, 645.0508
354.1723, 624.7681
354.6544, 624.7009
355.1366, 619.7341
355.6187, 603.5669
356.1008, 576.0488
356.5829, 535.6099
357.0650, 476.1904
357.5471, 410.7629
358.0293, 374.4985
358.5114, 375.4377
358.9935, 383.2061
359.4756, 395.2393
359.9577, 405.8396
360.4398, 409.1455
360.9220, 403.8164
361.4041, 395.6567
361.8862, 388.2244
362.3683, 381.7844
362.8504, 377.9604
363.3326, 377.4272
363.8147, 378.8110
364.2968, 380.4185
364.7789, 382.6074
365.2610, 387.6909
365.7431, 397.2114
366.2253, 409.2913
366.7074, 422.0837
367.1895, 435.5999
367.6716, 451.7578
368.1537, 474.4668
368.6358, 498.4600
369.1180, 505.5618
369.6001, 483.6282
370.0822, 467.7483
370.5643, 474.4709
371.0464, 490.0854
371.5285, 497.2036
372.0107, 491.4265
372.4928, 477.1235
372.9749, 458.0649
373.4570, 430.9487
373.9391, 414.7405
374.4212, 421.2153
374.9034, 425.5540
375.3855, 415.1001
375.8676, 393.5911
376.3497, 370.9614
376.8318, 353.6367
377.3139, 338.5791
377.7961, 314.1450
378.2782, 273.5198
378.7603, 235.8347
379.2424, 198.5857
379.7245, 167.8247
380.2066, 150.6216
380.6888, 147.0852
381.1709, 147.7129
381.6530, 142.5007
382.1351, 131.5776
382.6172, 122.8564
383.0993, 119.9126
383.5815, 114.1143
384.0636, 95.75928
384.5457, 71.89600
385.0278, 57.76709
385.5099, 64.75000
385.9920, 76.85400
386.4742, 70.51343
386.9563, 46.50732
387.4384, 30.18994
387.9205, 34.06421
388.4026, 47.54492
388.8847, 54.00049
389.3669, 54.02222
389.8490, 52.34009
390.3311, 47.28491
390.8132, 40.33228
391.2953, 33.61279
391.7774, 27.27100
392.2596, 20.90918
392.7417, 14.05298
393.2238, 6.494141
393.7059, 1.175537
394.1880, 5.719482
394.6701, 6.558105
395.1523, 7.375244
395.6344, 27.36255
396.1165, 39.96973
396.5986, 39.95996
397.0807, 31.94287
397.5628, 23.44580
398.0450, 12.96240
398.5271, 5.812012
399.0092, 0.3813480
399.4913, 0.7111820
399.9734, 6.353760
400.4555, 19.30200
400.9377, 32.53906
401.4197, 43.69629
401.9019, 51.09814
402.3840, 45.41309
402.8661, 16.63330
403.3482, 0.8518070
403.8303, 19.85376
404.3124, 49.62134
404.7946, 60.08325
405.2767, 44.78955
405.7588, 25.39478
406.2409, 19.11719
406.7230, 22.76245
407.2051, 23.46680
407.6873, 18.24536
408.1694, 13.37061
408.6515, 17.25806
409.1336, 27.20142
409.6157, 29.15137
410.0978, 12.45801
410.5800, 4.448730
411.0621, 11.07593
411.5442, 8.721680
412.0263, 0.1198730
412.5084, 14.33765
412.9905, 30.69312
413.4727, 40.90088
413.9548, 40.06177
414.4369, 41.89038
414.9190, 52.16724
415.4011, 60.61719
415.8832, 57.39819
416.3654, 44.72070
416.8475, 34.50439
417.3296, 34.82715
417.8117, 43.44141
418.2938, 47.45361
418.7759, 44.66357
419.2581, 41.11157
419.7402, 36.85034
420.2223, 32.97729
420.7044, 31.13989
421.1865, 31.58789
421.6686, 31.64868
422.1508, 27.70679
422.6329, 20.27026
423.1150, 15.21875
423.5971, 13.88257
424.0792, 13.42065
424.5613, 10.80615
425.0435, 7.587402
425.5256, 7.652588
426.0077, 14.06982
426.4898, 21.73022
426.9719, 25.55566
427.4540, 26.72925
427.9362, 31.04224
428.4183, 41.69360
428.9004, 53.10522
429.3825, 55.51440
429.8646, 45.53467
430.3467, 39.68652
430.8289, 46.57910
431.3110, 51.86035
431.7931, 41.83789
432.2752, 20.21460
432.7573, 1.116943
433.2394, 6.335449
433.7216, 4.476563
434.2037, 2.297607
434.6858, 2.186035
435.1679, 3.637939
435.6500, 1.354004
436.1321, 7.208496
436.6143, 10.71924
437.0964, 10.91797
437.5785, 7.014648
438.0606, 4.154785
438.5427, 21.01587
439.0248, 31.19458
439.5070, 32.25879
439.9891, 32.01758
440.4712, 37.60596
440.9533, 43.05981
441.4354, 37.96631
441.9175, 15.52637
442.3997, 2.697754
442.8818, 7.148438
443.3639, 33.98486
443.8460, 45.41187
444.3281, 33.29785
444.8102, 13.93628
445.2924, 3.485107
445.7745, 2.753174
446.2566, 2.701660
446.7387, 28.75391
447.2208, 43.20654
447.7029, 17.04333
448.1851, 29.07935
448.6672, 54.67822
449.1493, 42.90723
449.6314, 12.93262
450.1135, 0.1711430
450.5956, 11.74194
451.0778, 19.37976
451.5599, 18.18469
452.0420, 17.14282
452.5241, 22.05103
453.0062, 30.60986
453.4883, 36.36414
453.9705, 35.11084
454.4526, 30.11877
454.9347, 27.82507
455.4168, 28.45142
455.8989, 30.48511
456.3810, 35.31970
456.8632, 39.71411
457.3453, 40.84680
457.8274, 38.70752
458.3095, 33.73499
458.7916, 22.41162
459.2737, 10.39648
459.7559, 2.638306
460.2380, 1.6724000E-02
460.7201, 7.948120
461.2022, 33.15271
461.6843, 67.61951
462.1664, 84.53259
462.6486, 75.61353
463.1307, 63.10706
463.6128, 40.91357
464.0949, 21.17017
464.5770, 17.13306
465.0591, 28.31604
465.5413, 42.99377
466.0234, 51.91296
466.5055, 54.01392
466.9876, 46.34985
467.4697, 18.44128
467.9518, 0.2491460
468.4340, 3.815308
468.9161, 16.48877
469.3982, 29.22595
469.8803, 39.82520
470.3624, 45.61926
470.8445, 41.13538
471.3267, 30.73547
471.8088, 31.75903
472.2909, 49.23486
472.7730, 59.85791
473.2551, 43.81519
473.7372, 9.070068
474.2194, 14.04663
474.7015, 24.03894
475.1836, 24.13831
475.6657, 10.02942
476.1478, 11.04919
476.6299, 31.54651
477.1121, 49.12195
477.5942, 59.43372
478.0763, 56.68054
478.5584, 40.30664
479.0405, 30.88123
479.5226, 32.28235
480.0048, 35.15833
480.4869, 40.21802
480.9690, 45.00757
481.4511, 45.90222
481.9332, 42.01501
482.4153, 37.55737
482.8975, 38.01562
483.3796, 43.01831
483.8617, 46.37329
484.3438, 48.58252
484.8259, 47.40710
485.3080, 34.51819
485.7902, 17.94470
486.2723, 15.37048
486.7544, 40.67053
487.2365, 62.25549
487.7186, 52.02930
488.2007, 25.13416
488.6829, 15.20813
489.1650, 30.47681
489.6471, 50.58069
490.1292, 53.59875
490.6113, 37.61511
491.0934, 28.70410
491.5756, 29.21509
492.0577, 33.62854
492.5398, 44.83911
493.0219, 56.90417
493.5040, 61.67859
493.9861, 56.74231
494.4683, 49.11694
494.9504, 46.08789
495.4325, 46.10632
495.9146, 44.64148
496.3967, 40.06055
496.8788, 36.12683
497.3610, 37.25208
497.8431, 39.69836
498.3252, 35.88477
498.8073, 19.66260
499.2894, 7.337646
499.7715, 17.09338
500.2536, 39.16565
500.7357, 48.54858
501.2179, 39.19470
501.7000, 26.44568
502.1821, 25.00854
502.6642, 35.06555
503.1463, 41.44629
503.6284, 43.40930
504.1106, 42.94617
504.5927, 38.18335
505.0748, 31.23206
505.5569, 23.94849
506.0390, 16.76440
506.5211, 14.82373
507.0033, 29.03967
507.4854, 59.63647
507.9675, 74.07996
508.4496, 62.39221
508.9317, 51.19189
509.4138, 55.24426
509.8960, 64.96191
510.3781, 67.89441
510.8602, 60.56738
511.3423, 51.13245
511.8244, 43.66675
512.3066, 38.42834
512.7887, 36.77063
513.2708, 38.90430
513.7529, 41.66687
514.2350, 43.09338
514.7172, 43.00317
515.1993, 40.49597
515.6814, 29.26660
516.1635, 24.08899
516.6456, 36.00769
517.1277, 49.87122
517.6099, 47.34570
518.0920, 28.59314
518.5741, 11.04309
519.0562, 10.28760
519.5383, 23.70801
520.0204, 37.29041
520.5026, 55.35449
520.9847, 62.93835
521.4668, 44.61694
521.9489, 19.26099
522.4310, 1.706177
522.9131, 6.671143
523.3953, 6.062500
523.8774, 11.08887
524.3595, 33.30115
524.8416, 45.19470
525.3237, 46.28687
525.8058, 40.28015
526.2880, 27.57556
526.7701, 13.69922
527.2522, 13.60791
527.7343, 46.38135
528.2164, 61.19409
528.6985, 43.30493
529.1807, 20.64233
529.6628, 9.384766
530.1449, 9.147461
530.6270, 13.21216
531.1091, 18.05701
531.5912, 23.63025
532.0734, 29.48279
532.5555, 36.61389
533.0376, 41.59583
533.5197, 44.93823
534.0018, 46.17212
534.4839, 44.09216
534.9661, 38.79688
535.4482, 30.58728
535.9303, 14.09839
536.4124, 0.3398440
536.8945, 3.539429
537.3766, 2.034058
537.8588, 9.663696
538.3409, 16.37964
538.8230, 22.07056
539.3051, 26.81714
539.7872, 31.48230
540.2693, 37.27527
540.7515, 51.04919
541.2336, 58.14636
541.7157, 47.58765
542.1978, 30.98889
542.6799, 24.60999
543.1620, 33.20386
543.6442, 44.54431
544.1263, 45.52563
544.6084, 38.55457
545.0905, 34.34790
545.5726, 33.89709
546.0547, 35.36841
546.5369, 39.12671
547.0190, 43.65857
547.5011, 43.72827
547.9832, 37.06555
548.4653, 31.00061
548.9474, 24.40295
549.4296, 21.03638
549.9116, 30.47742
550.3937, 48.93579
550.8759, 56.44080
551.3580, 36.52551
551.8401, 0.4166260
552.3222, 8.238037
552.8043, 24.46191
553.2864, 50.41382
553.7686, 59.35864
554.2507, 61.17554
554.7328, 59.17480
555.2149, 54.49402
555.6970, 50.14771
556.1791, 48.25061
556.6613, 46.20752
557.1434, 40.77258
557.6255, 33.70715
558.1076, 29.13379
558.5897, 28.22412
559.0718, 30.56372
559.5540, 36.84436
560.0361, 48.71436
560.5182, 52.41943
561.0003, 40.18384
561.4824, 29.96643
561.9645, 28.71985
562.4467, 32.11145
562.9288, 35.46448
563.4109, 37.19360
563.8930, 36.61023
564.3751, 31.15100
564.8572, 22.32153
565.3394, 19.43030
565.8215, 24.13647
566.3036, 28.99731
566.7857, 29.62646
567.2678, 28.62878
567.7499, 31.05469
568.2321, 37.86206
568.7142, 44.54297
569.1963, 53.46265
569.6784, 59.00806
570.1605, 53.17004
570.6426, 38.85693
571.1248, 26.14648
571.6069, 20.53845
572.0890, 20.62012
572.5711, 24.60876
573.0532, 35.55884
573.5353, 40.13965
574.0175, 30.05627
574.4996, 21.46021
574.9817, 24.03931
575.4638, 33.43262
575.9459, 39.98389
576.4280, 40.00769
576.9102, 37.21533
577.3923, 32.63208
577.8744, 27.67212
578.3565, 26.30847
578.8386, 29.26294
579.3207, 35.16284
579.8029, 44.09949
580.2850, 54.27649
580.7671, 54.93005
581.2492, 34.17944
581.7313, 21.33813
582.2134, 22.62329
582.6956, 28.08008
583.1777, 30.83765
583.6598, 30.53870
584.1419, 30.44373
584.6240, 33.52429
585.1061, 36.82324
585.5883, 30.68774
586.0704, 15.31714
586.5525, 14.34668
587.0346, 40.52563
587.5167, 68.86133
587.9988, 69.50000
588.4810, 41.05518
588.9631, 23.67371
589.4452, 26.89453
589.9273, 31.46338
590.4094, 29.89062
590.8915, 25.08716
591.3737, 19.95483
591.8558, 15.81421
592.3379, 15.29846
592.8200, 24.00012
593.3021, 38.86938
593.7842, 37.87842
594.2664, 15.74268
594.7485, 6.789673
595.2306, 28.44824
595.7127, 41.68762
596.1948, 35.36230
596.6769, 8.576782
597.1591, 14.36816
597.6412, 23.17224
598.1233, 28.79578
598.6054, 42.90295
599.0875, 60.49048
599.5696, 68.54456
600.0518, 62.28674
600.5339, 48.06140
601.0160, 33.73938
601.4981, 18.64062
601.9802, 9.788940
602.4623, 11.59888
602.9445, 13.04016
603.4266, 9.222900
603.9087, 3.553955
604.3908, 0.2810060
604.8729, 0.2088620
605.3550, 0.5031740
605.8372, 5.966919
606.3193, 12.11157
606.8014, 12.77441
607.2835, 8.656128
607.7656, 5.066406
608.2477, 4.930786
608.7299, 5.620361
609.2120, 1.742554
609.6941, 7.984009
610.1762, 14.29797
610.6583, 19.12598
611.1404, 21.18921
611.6226, 19.28711
612.1047, 14.76294
612.5868, 7.649658
613.0689, 2.663696
613.5510, 7.619873
614.0331, 4.416870
614.5153, 25.31726
614.9974, 38.49963
615.4795, 42.87219
615.9616, 42.73669
616.4437, 40.09021
616.9258, 35.19775
617.4080, 28.42432
617.8901, 17.89050
618.3722, 9.451294
618.8543, 1.580566
619.3364, 2.883301
619.8185, 0.8121340
620.3007, 5.188721
620.7828, 10.94360
621.2649, 14.96045
621.7470, 17.91431
622.2291, 20.30225
622.7112, 22.06677
623.1934, 23.33948
623.6755, 24.25024
624.1576, 25.33899
624.6397, 27.21960
625.1218, 29.03857
625.6039, 28.26245
626.0861, 19.25049
626.5682, 18.81897
627.0503, 37.01465
627.5324, 54.41479
628.0145, 59.67847
628.4966, 55.98657
628.9788, 50.41626
629.4609, 45.69287
629.9430, 41.18774
630.4251, 35.32629
630.9072, 28.80176
631.3893, 25.48718
631.8715, 26.11670
632.3536, 26.97827
632.8357, 25.37671
633.3178, 23.14307
633.7999, 26.08472
634.2820, 40.58606
634.7642, 45.96960
635.2463, 28.42468
635.7284, 13.16504
636.2105, 20.66174
636.6926, 41.37683
637.1747, 54.38538
637.6569, 51.02515
638.1390, 39.69702
638.6211, 26.54822
639.1032, 13.37244
639.5853, 13.08325
640.0674, 28.73193
640.5496, 45.21643
641.0317, 55.44238
641.5138, 60.05872
641.9959, 59.87085
642.4780, 52.46948
642.9601, 46.86572
643.4423, 44.94299
643.9244, 43.77380
644.4065, 42.45251
644.8886, 40.38501
645.3707, 34.22998
645.8528, 22.62610
646.3350, 16.68542
646.8171, 38.46716
647.2992, 79.62085
647.7813, 92.73254
648.2634, 71.83533
648.7455, 47.50269
649.2277, 32.98975
649.7098, 26.69824
650.1919, 26.46545
650.6740, 35.40039
651.1561, 40.66992
651.6382, 39.82629
652.1204, 36.97888
652.6025, 30.24292
653.0846, 22.72949
653.5667, 22.22461
654.0488, 31.90112
654.5309, 43.39990
655.0131, 43.18628
655.4952, 34.65234
655.9773, 33.65967
656.4594, 41.06567
656.9415, 51.03247
657.4236, 63.23694
657.9058, 73.25269
658.3879, 73.05078
658.8700, 59.10034
659.3521, 47.76599
659.8342, 36.64172
660.3163, 30.71741
660.7985, 34.31042
661.2806, 43.16553
661.7627, 54.74304
662.2448, 67.12622
662.7269, 72.60596
663.2090, 56.83984
663.6912, 31.31287
664.1733, 25.61853
664.6554, 39.28052
665.1375, 51.09729
665.6196, 53.35913
666.1017, 51.29407
666.5839, 51.39343
667.0660, 54.11133
667.5481, 57.11487
668.0302, 63.84375
668.5123, 66.31750
668.9944, 59.09729
669.4766, 49.19775
669.9587, 42.74939
670.4408, 40.65991
670.9229, 41.30505
671.4050, 45.38831
671.8871, 50.37622
672.3693, 51.81335
672.8514, 50.05237
673.3335, 45.10291
673.8156, 36.53296
674.2977, 31.64771
674.7798, 39.31897
675.2620, 57.71741
675.7441, 64.27246
676.2262, 45.61975
676.7083, 35.75146
677.1904, 45.57324
677.6725, 58.45361
678.1547, 63.52344
678.6368, 61.54480
679.1189, 57.59460
679.6010, 51.64417
680.0831, 48.18616
680.5652, 55.57874
681.0474, 67.04761
681.5295, 64.74561
682.0116, 48.18567
682.4937, 39.93652
682.9758, 57.62134
683.4579, 89.77600
683.9401, 100.0134
684.4222, 78.26794
684.9043, 64.11243
685.3864, 65.85754
685.8685, 68.82141
686.3506, 62.78638
686.8328, 53.62244
687.3149, 53.95789
687.7970, 70.35803
688.2791, 80.85120
688.7612, 64.40845
689.2433, 44.53186
689.7255, 50.66919
690.2076, 76.58081
690.6897, 97.18494
691.1718, 101.1132
691.6539, 95.92322
692.1360, 92.17126
692.6182, 89.88550
693.1003, 88.29980
693.5824, 88.84631
694.0645, 85.90894
694.5466, 73.64465
695.0287, 59.12744
695.5109, 53.28540
695.9930, 57.00842
696.4751, 60.00720
696.9572, 58.49902
697.4393, 58.22400
697.9214, 64.38721
698.4036, 72.62842
698.8857, 76.56299
699.3678, 75.04163
699.8499, 71.75366
700.3320, 68.60083
700.8141, 66.85107
701.2963, 71.56848
701.7784, 82.55322
702.2605, 89.70911
702.7426, 90.36438
703.2247, 86.24170
703.7068, 76.89832
704.1890, 63.16101
704.6711, 58.58179
705.1532, 67.78662
705.6353, 79.86169
706.1174, 104.0291
706.5995, 121.7406
707.0817, 113.7443
707.5638, 87.49695
708.0459, 66.59094
708.5280, 61.52429
709.0101, 63.33081
709.4922, 67.00940
709.9744, 70.40234
710.4565, 67.64380
710.9386, 58.81116
711.4207, 50.79688
711.9028, 47.79517
712.3849, 47.15930
712.8671, 42.09558
713.3492, 29.41077
713.8313, 24.81653
714.3134, 29.07312
714.7955, 39.03271
715.2776, 59.14734
715.7598, 81.09863
716.2419, 93.17517
716.7240, 93.51807
717.2061, 92.37671
717.6882, 92.71326
718.1703, 93.39453
718.6525, 96.94971
719.1346, 99.21399
719.6167, 87.97986
720.0988, 62.49402
720.5809, 43.73254
721.0630, 56.63416
721.5452, 90.34302
722.0273, 99.98596
722.5094, 82.95898
722.9915, 68.93921
723.4736, 64.82166
723.9557, 66.90698
724.4379, 73.11426
724.9200, 82.98486
725.4021, 91.38965
725.8842, 102.8420
726.3663, 106.6472
726.8484, 91.14270
727.3306, 76.51819
727.8127, 83.02551
728.2948, 102.0068
728.7769, 107.5620
729.2590, 85.94592
729.7411, 63.09497
730.2233, 66.51526
730.7054, 84.57141
731.1875, 95.46826
731.6696, 97.77515
732.1517, 97.08105
732.6339, 96.22046
733.1160, 93.20508
733.5981, 84.52478
734.0802, 69.63745
734.5623, 51.20422
735.0444, 17.48022
735.5266, 1.796509
736.0087, 34.50000
736.4908, 78.34570
736.9729, 93.25024
737.4550, 78.59827
737.9371, 64.71448
738.4193, 59.30103
738.9014, 55.40637
739.3835, 49.70874
739.8656, 43.41052
740.3477, 37.55737
740.8298, 32.69568
741.3120, 29.06250
741.7941, 25.59875
742.2762, 26.53882
742.7583, 45.68799
743.2404, 78.69214
743.7225, 90.71912
744.2047, 74.38367
744.6868, 57.66980
745.1689, 59.26453
745.6510, 72.70886
746.1331, 80.33325
746.6152, 80.66614
747.0973, 78.61902
747.5794, 73.31506
748.0615, 66.64233
748.5436, 58.39783
749.0258, 49.69446
749.5079, 40.66907
749.9900, 31.50940
750.4721, 25.86475
750.9542, 28.60156
751.4363, 32.69006
751.9185, 30.49634
752.4006, 25.51807
752.8827, 26.77930
753.3648, 35.30872
753.8469, 40.82544
754.3290, 33.39026
754.8112, 19.16748
755.2933, 17.54382
755.7754, 29.06824
756.2575, 41.02588
756.7396, 52.69385
757.2217, 59.45166
757.7039, 56.28442
758.1860, 46.03418
758.6681, 39.17493
759.1502, 35.25171
759.6323, 35.85425
760.1144, 51.31238
760.5966, 60.44568
761.0787, 47.81909
761.5608, 24.10120
762.0429, 4.939941
762.5250, 6.574097
763.0071, 8.296631
763.4893, 10.88965
763.9714, 33.17407
764.4535, 36.66321
764.9356, 26.83594
765.4177, 16.95898
765.8998, 11.45166
766.3820, 13.87671
766.8641, 29.61450
767.3462, 51.43237
767.8283, 50.38452
768.3104, 22.97009
768.7925, 11.69543
769.2747, 32.29175
769.7568, 50.23022
770.2389, 33.48022
770.7210, 5.052246
771.2031, 16.28601
771.6852, 25.53564
772.1674, 45.21179
772.6495, 17.81995
773.1316, 8.759888
773.6137, 5.745605
774.0958, 12.26123
774.5779, 19.36902
775.0601, 9.143677
775.5422, 0.3966060
776.0243, 3.773438
776.5064, 12.41821
776.9885, 18.24976
777.4706, 19.89160
777.9528, 11.52417
778.4349, 6.506836
778.9170, 20.63147
779.3991, 18.17078
779.8812, 4.430542
780.3633, 4.637695
780.8455, 8.741455
781.3276, 13.97290
781.8097, 21.69287
782.2918, 29.10669
782.7739, 34.07349
783.2560, 37.61914
783.7382, 42.82898
784.2203, 53.43457
784.7024, 56.94324
785.1845, 47.46155
785.6666, 37.83362
786.1487, 33.63721
786.6309, 31.72168
787.1130, 26.41260
787.5951, 17.40576
788.0772, 13.46631
788.5593, 26.58313
789.0414, 39.15649
789.5236, 32.35693
790.0057, 15.14880
790.4878, 4.330322
790.9699, 3.244141
791.4520, 11.18018
791.9341, 28.08655
792.4163, 45.98755
792.8984, 46.30786
793.3805, 31.33374
793.8626, 25.59851
794.3447, 32.58228
794.8268, 36.27576
795.3090, 26.75745
795.7911, 12.60913
796.2732, 10.27991
796.7553, 21.86523
797.2374, 28.91943
797.7195, 31.82556
798.2017, 29.85913
798.6838, 17.86523
799.1659, 4.980103
799.6480, 1.058350
800.1301, 0.4588620
800.6122, 2.420410
801.0944, 8.170288
801.5765, 13.57581
802.0586, 19.01147
802.5407, 22.12268
803.0228, 16.80029
803.5049, 7.260498
803.9871, 7.292358
804.4692, 23.42834
804.9513, 38.33496
805.4334, 26.90186
805.9155, 2.485107
806.3976, 0.6452640
806.8798, 15.16907
807.3619, 26.06238
807.8440, 23.80615
808.3261, 16.46106
808.8082, 12.61206
809.2903, 11.59314
809.7725, 7.867798
810.2546, 0.5179440
810.7367, 3.982544
811.2188, 1.556030
811.7009, 8.243408
812.1830, 10.97266
812.6652, 10.59900
813.1473, 9.455200
813.6294, 6.151855
814.1115, 5.132935
814.5936, 8.379883
815.0757, 12.33521
815.5579, 16.94983
816.0400, 20.44238
816.5221, 19.07410
817.0042, 13.04028
817.4863, 9.725220
817.9684, 19.66394
818.4506, 27.34692
818.9327, 13.36890
819.4148, 8.934570
819.8969, 18.54053
820.3790, 13.43274
820.8611, 0.7680660
821.3433, 22.10974
821.8254, 41.11951
822.3075, 40.00098
822.7896, 22.52673
823.2717, 7.360352
823.7538, 4.452881
824.2360, 8.208252
824.7181, 0.7006840
825.2002, 10.28577
825.6823, 14.70605
826.1644, 12.59790
826.6465, 11.90173
827.1287, 14.09094
827.6108, 14.05518
828.0929, 4.969238
828.5750, 0.1588130
829.0571, 16.17200
829.5392, 43.88782
830.0214, 51.16492
830.5035, 25.47473
830.9856, 4.805908
831.4677, 4.896973
831.9498, 6.077393
832.4319, 5.533447
832.9141, 21.90747
833.3962, 33.11670
833.8783, 37.06775
834.3604, 36.27759
834.8425, 29.76074
835.3246, 21.49890
835.8068, 14.78125
836.2889, 10.05261
836.7710, 7.764282
837.2531, 8.537842
837.7352, 12.31128
838.2173, 18.50195
838.6995, 25.50439
839.1816, 32.80371
839.6637, 39.36792
840.1458, 36.39209
840.6279, 23.49268
841.1100, 20.77429
841.5922, 37.71558
842.0743, 57.28516
842.5564, 59.39124
843.0385, 45.89404
843.5206, 39.84216
844.0027, 44.41846
844.4849, 48.51782
844.9670, 54.48657
845.4491, 53.51709
845.9312, 32.17273
846.4133, 1.871338
846.8954, 7.122925
847.3776, 15.68896
847.8597, 27.53259
848.3418, 10.78772
848.8239, 1.465576
849.3060, 11.47949
849.7881, 31.49011
850.2703, 34.66821
850.7524, 21.96057
851.2345, 18.05042
851.7166, 45.03137
852.1987, 65.40906
852.6808, 45.87512
853.1630, 12.75977
853.6451, 7.978760
854.1272, 13.41296
854.6093, 3.206055
855.0914, 22.64075
855.5735, 48.03296
856.0557, 55.89502
856.5378, 51.19727
857.0199, 41.14746
857.5020, 27.63977
857.9841, 19.87219
858.4662, 19.94727
858.9484, 22.72571
859.4305, 24.35718
859.9126, 25.41248
860.3947, 27.42163
860.8768, 30.46277
861.3589, 33.91760
861.8411, 38.49854
862.3232, 38.96741
862.8053, 29.74866
863.2874, 21.37256
863.7695, 31.39795
864.2516, 59.39368
864.7338, 75.40137
865.2159, 73.69604
865.6980, 71.08606
866.1801, 69.57434
866.6622, 68.45129
867.1443, 69.11084
867.6265, 69.70837
868.1086, 65.03015
868.5907, 52.72046
869.0728, 41.10962
869.5549, 28.59656
870.0370, 20.07959
870.5192, 16.77747
871.0013, 19.80847
871.4834, 35.74023
871.9655, 61.65759
872.4476, 76.50818
872.9297, 62.13000
873.4119, 46.16284
873.8940, 54.81409
874.3761, 69.79236
874.8582, 63.46887
875.3403, 41.76001
875.8224, 30.12927
876.3046, 38.35852
876.7867, 51.71289
877.2688, 56.23730
877.7509, 53.27087
878.2330, 41.87854
878.7151, 26.06677
879.1973, 19.67065
879.6794, 25.17432
880.1615, 34.90161
880.6436, 43.79114
881.1257, 50.75012
881.6078, 53.29089
882.0900, 51.76184
882.5721, 45.14502
883.0542, 32.27026
883.5363, 21.78723
884.0184, 17.39282
884.5005, 15.72314
884.9827, 12.31653
885.4648, 7.670776
885.9469, 8.788086
886.4290, 18.24341
886.9111, 27.60925
887.3932, 37.41382
887.8754, 43.50342
888.3575, 41.03162
888.8396, 34.06799
889.3217, 31.33850
889.8038, 34.72241
890.2859, 36.94226
890.7681, 40.37500
891.2502, 37.87109
891.7323, 16.98230
892.2144, 1.910278
892.6965, 3.451660
893.1786, 25.80615
893.6608, 38.12183
894.1429, 30.98608
894.6250, 21.95642
895.1071, 13.40820
895.5892, 9.683838
896.0714, 18.26038
896.5535, 31.31555
897.0356, 37.95642
897.5177, 36.10144
897.9998, 29.10193
898.4819, 13.70642
898.9641, 1.922241
899.4462, 9.739868
899.9283, 24.39172
900.4104, 27.95776
900.8925, 21.33777
901.3746, 12.09363
901.8568, 3.566650
902.3389, 0.7801510
902.8210, 4.692017
903.3031, 15.38562
903.7852, 24.65771
904.2673, 30.88086
904.7495, 27.12671
905.2316, 15.05737
905.7137, 6.122314
906.1958, 7.833252
906.6779, 16.44043
907.1600, 28.81970
907.6422, 43.89587
908.1243, 56.33301
908.6064, 66.08826
909.0885, 67.23267
909.5706, 57.45288
910.0527, 43.05054
910.5349, 28.11194
911.0170, 14.62341
911.4991, 11.78638
911.9812, 23.60999
912.4633, 28.95862
912.9454, 24.51587
913.4276, 19.40637
913.9097, 17.88501
914.3918, 17.56030
914.8739, 14.25574
915.3560, 7.953979
915.8381, 9.192261
916.3203, 25.49805
916.8024, 35.06689
917.2845, 32.62354
917.7666, 26.21643
918.2487, 16.56250
918.7308, 7.511963
919.2130, 8.653198
919.6951, 24.33618
920.1772, 26.90210
920.6593, 3.833008
921.1414, 23.57581
921.6235, 10.09412
922.1057, 9.706177
922.5878, 12.35730
923.0699, 3.408569
923.5520, 2.245239
924.0341, 14.27185
924.5162, 27.59351
924.9984, 45.98669
925.4805, 56.58801
925.9626, 46.37537
926.4447, 28.09949
926.9268, 15.29407
927.4089, 9.803833
927.8911, 9.328003
928.3732, 14.48462
928.8553, 20.96191
929.3374, 28.92810
929.8195, 34.61182
930.3016, 31.06067
930.7838, 23.61914
931.2659, 23.08569
931.7480, 31.12512
932.2301, 39.31384
932.7122, 43.26477
933.1943, 43.37964
933.6765, 37.29871
934.1586, 29.38428
934.6407, 25.97437
935.1228, 26.97424
935.6049, 31.11169
936.0870, 37.52454
936.5692, 41.64539
937.0513, 37.99402
937.5334, 30.55762
938.0155, 26.07642
938.4976, 23.47412
938.9797, 19.33948
939.4619, 13.68079
939.9440, 9.756470
940.4261, 9.284058
940.9082, 9.794800
941.3903, 7.824829
941.8724, 4.313721
942.3546, 1.868408
942.8367, 0.6757810
943.3188, 2.523560
943.8009, 7.823608
944.2830, 14.01392
944.7651, 19.34790
945.2472, 24.47241
945.7293, 32.88843
946.2114, 43.45569
946.6935, 37.49841
947.1757, 14.22449
947.6578, 10.81458
948.1399, 40.06384
948.6220, 65.92493
949.1041, 57.23853
949.5862, 27.35999
950.0684, 11.65759
950.5505, 9.658569
951.0326, 18.25232
951.5147, 41.45044
951.9968, 52.15088
952.4789, 38.36316
952.9611, 17.24390
953.4432, 4.597412
953.9253, 0.3693850
954.4074, 4.583252
954.8895, 19.83496
955.3716, 33.25488
955.8538, 45.48230
956.3359, 51.82300
956.8180, 48.38354
957.3001, 41.55579
957.7822, 39.02405
958.2643, 40.03381
958.7465, 33.96973
959.2286, 13.30505
959.7107, 4.060547
960.1928, 13.94434
960.6749, 26.00647
961.1570, 33.20618
961.6392, 37.11731
962.1213, 41.01599
962.6034, 43.84058
963.0855, 40.44739
963.5676, 25.34717
964.0497, 13.26392
964.5319, 2.942993
965.0140, 0.8699950
965.4961, 11.84644
965.9782, 29.06567
966.4603, 27.77686
966.9424, 4.359253
967.4246, 3.805786
967.9067, 19.19226
968.3888, 35.49805
968.8709, 34.30322
969.3530, 30.15637
969.8351, 33.27075
970.3173, 39.02771
970.7994, 37.51013
971.2815, 26.51282
971.7636, 19.92456
972.2457, 23.05872
972.7278, 25.62683
973.2100, 24.99817
973.6921, 23.05432
974.1742, 18.58142
974.6563, 14.50476
975.1384, 18.08838
975.6205, 32.00403
976.1027, 42.17725
976.5848, 41.92322
977.0669, 42.83862
977.5490, 54.64734
978.0311, 64.17969
978.5132, 55.45691
978.9954, 35.24805
979.4775, 26.08936
979.9596, 33.26331
980.4417, 40.49939
980.9238, 46.11804
981.4059, 47.52441
981.8881, 39.86389
982.3702, 30.80774
982.8523, 25.93225
983.3344, 25.80188
983.8165, 31.11389
984.2986, 43.56348
984.7808, 53.49194
985.2629, 54.30652
985.7450, 55.98425
986.2271, 71.46912
986.7092, 84.19250
987.1913, 70.41870
987.6735, 39.21204
988.1556, 23.40588
988.6377, 35.34692
989.1198, 45.33777
989.6019, 40.09961
990.0840, 31.92224
990.5662, 24.57715
991.0483, 20.32129
991.5304, 24.31360
992.0125, 33.21167
992.4946, 35.70105
992.9767, 27.07129
993.4589, 18.26038
993.9410, 7.781006
994.4231, 5.434082
994.9052, 27.47974
995.3873, 53.73547
995.8694, 60.51160
996.3516, 49.72729
996.8337, 36.04163
997.3158, 22.29578
997.7979, 13.29504
998.2800, 11.24585
998.7621, 14.70679
999.2443, 30.64966
999.7264, 46.05920
1000.208, 41.39197
1000.691, 21.94263
1001.173, 12.64258
1001.655, 24.46924
1002.137, 32.94495
1002.619, 22.00330
1003.101, 9.416260
1003.583, 1.833374
1004.065, 2.356567
1004.548, 22.52466
1005.030, 53.41382
1005.512, 64.45886
1005.994, 42.74219
1006.476, 17.57458
1006.958, 7.180298
1007.440, 20.34070
1007.922, 3.558472
1008.404, 20.63477
1008.887, 24.67712
1009.369, 12.31738
1009.851, 5.397095
1010.333, 10.94653
1010.815, 19.02600
1011.297, 27.55176
1011.779, 35.03052
1012.261, 45.40222
1012.744, 50.77319
1013.226, 37.05090
1013.708, 11.00793
1014.190, 5.501709
1014.672, 5.827393
1015.154, 0.4648440
1015.636, 12.63000
1016.118, 22.97485
1016.600, 21.31348
1017.083, 16.78906
1017.565, 22.37891
1018.047, 32.96045
1018.529, 29.31055
1019.011, 2.644531
1019.493, 11.33374
1019.975, 13.12817
1020.457, 35.66443
1020.940, 33.99194
1021.422, 25.30151
1021.904, 22.77283
1022.386, 27.77527
1022.868, 42.22314
1023.350, 69.34875
1023.832, 80.01147
1024.314, 53.79529
1024.797, 27.13147
1025.279, 10.65698
1025.761, 2.408569
1026.243, 3.397827
1026.725, 9.684814
1027.207, 13.68433
1027.689, 14.02136
1028.171, 15.28564
1028.653, 21.61865
1029.135, 24.48926
1029.618, 18.32104
1030.100, 10.96350
1030.582, 5.291870
1031.064, 3.291260
1031.546, 9.838745
1032.028, 26.30090
1032.510, 37.74219
1032.992, 38.86914
1033.475, 39.83362
1033.957, 43.44788
1034.439, 46.46948
1034.921, 44.73694
1035.403, 41.97449
1035.885, 49.24719
1036.367, 67.80322
1036.849, 68.99390
1037.332, 30.87256
1037.814, 7.365234
1038.296, 13.61597
1038.778, 22.70837
1039.260, 22.89661
1039.742, 19.36462
1040.224, 18.34180
1040.706, 19.80127
1041.188, 22.69275
1041.671, 27.04639
1042.153, 28.71130
1042.635, 25.20068
1043.117, 25.25024
1043.599, 35.65479
1044.081, 46.90625
1044.563, 46.99646
1045.045, 38.77673
1045.527, 40.83398
1046.010, 60.78894
1046.492, 67.70691
1046.974, 55.21545
1047.456, 43.68335
1047.938, 39.84717
1048.420, 39.33545
1048.902, 38.12183
1049.384, 37.10986
1049.866, 39.57935
1050.349, 46.36877
1050.831, 52.98242
1051.313, 60.93738
1051.795, 60.10339
1052.277, 45.65295
1052.759, 30.59009
1053.241, 24.18457
1053.723, 24.48523
1054.206, 28.35278
1054.688, 35.66870
1055.170, 39.92773
1055.652, 41.08020
1056.134, 37.97571
1056.616, 29.80664
1057.098, 26.77539
1057.580, 35.76526
1058.063, 47.57971
1058.545, 48.69214
1059.027, 40.42395
1059.509, 23.08142
1059.991, 0.3715820
1060.473, 0.1036380
1060.955, 25.94556
1061.437, 48.98523
1061.919, 55.46631
1062.401, 54.27600
1062.884, 54.75464
1063.366, 55.21094
1063.848, 51.49390
1064.330, 44.36096
1064.812, 33.89722
1065.294, 21.61206
1065.776, 16.02380
1066.258, 18.76257
1066.741, 30.78076
1067.223, 58.01233
1067.705, 82.89990
1068.187, 76.69910
1068.669, 54.25146
1069.151, 36.95618
1069.633, 26.64209
1070.115, 23.77954
1070.598, 27.31421
1071.080, 31.87085
1071.562, 33.87793
1072.044, 37.77454
1072.526, 52.05249
1073.008, 66.51428
1073.490, 68.81433
1073.972, 64.85547
1074.454, 67.11841
1074.937, 72.75098
1075.419, 64.41357
1075.901, 33.34705
1076.383, 6.871704
1076.865, 0.7716060
1077.347, 0.1872560
1077.829, 14.15894
1078.311, 26.74329
1078.793, 21.14685
1079.276, 4.281372
1079.758, 8.116455
1080.240, 13.31958
1080.722, 10.13562
1081.204, 13.55151
1081.686, 28.96411
1082.168, 19.39575
1082.650, 8.423706
1083.133, 12.47424
1083.615, 23.19080
1084.097, 27.54517
1084.579, 25.23608
1085.061, 23.84033
1085.543, 19.95715
1086.025, 23.63049
1086.507, 44.57043
1086.990, 58.33496
1087.472, 53.37769
1087.954, 41.08386
1088.436, 31.55164
1088.918, 24.15979
1089.400, 16.00354
1089.882, 5.667725
1090.364, 2.120850
1090.846, 8.221069
1091.328, 9.342896
1091.811, 0.6739500
1092.293, 6.011230
1092.775, 5.785278
1093.257, 25.23682
1093.739, 34.58923
1094.221, 34.88904
1094.703, 39.16833
1095.185, 47.17249
1095.668, 47.11865
1096.150, 37.59705
1096.632, 29.69751
1097.114, 28.72437
1097.596, 25.64673
1098.078, 7.530518
1098.560, 14.71326
1099.042, 13.06250
1099.525, 4.416382
1100.007, 14.14502
1100.489, 16.00330
1100.971, 17.58557
1101.453, 21.28723
1101.935, 27.25391
1102.417, 37.21277
1102.899, 42.90369
1103.381, 27.61914
1103.864, 9.384521
1104.346, 14.06445
1104.828, 31.18152
1105.310, 43.70117
1105.792, 48.86084
1106.274, 49.20496
1106.756, 45.37793
1107.238, 39.45117
1107.720, 29.02075
1108.203, 21.14868
1108.685, 18.94275
1109.167, 22.19128
1109.649, 37.42944
1110.131, 55.04041
1110.613, 54.18005
1111.095, 32.42627
1111.577, 20.00806
1112.060, 34.73010
1112.542, 40.73669
1113.024, 25.09705
1113.506, 9.422729
1113.988, 1.153809
1114.470, 1.844482
1114.952, 3.705200
1115.434, 1.815308
1115.917, 18.10168
1116.399, 70.37866
1116.881, 87.12915
1117.363, 53.58337
1117.845, 28.72961
1118.327, 27.50952
1118.809, 36.98376
1119.291, 51.62256
1119.773, 62.55920
1120.255, 51.12085
1120.738, 21.74365
1121.220, 11.10889
1121.702, 18.35046
1122.184, 35.00623
1122.666, 58.79102
1123.148, 70.27759
1123.630, 61.87000
1124.112, 45.40515
1124.595, 29.75232
1125.077, 18.03992
1125.559, 19.69470
1126.041, 27.15393
1126.523, 19.64441
1127.005, 5.137085
1127.487, 11.69336
1127.969, 38.24268
1128.452, 52.30835
1128.934, 37.04614
1129.416, 19.24792
1129.898, 21.61206
1130.380, 26.70569
1130.862, 18.92529
1131.344, 8.035156
1131.826, 3.381592
1132.308, 5.262573
1132.791, 13.08423
1133.273, 26.37000
1133.755, 38.40613
1134.237, 49.30200
1134.719, 55.47437
1135.201, 54.10681
1135.683, 50.35840
1136.165, 43.11365
1136.647, 37.59204
1137.130, 43.21729
1137.612, 53.99890
1138.094, 46.51904
1138.576, 11.01221
1139.058, 5.351685
1139.540, 42.64307
1140.022, 61.46875
1140.504, 44.96997
1140.987, 25.35645
1141.469, 20.67212
1141.951, 25.01001
1142.433, 31.03870
1142.915, 37.89319
1143.397, 41.10217
1143.879, 40.92627
1144.361, 38.18811
1144.844, 33.97302
1145.326, 37.57080
1145.808, 50.27893
1146.290, 53.63940
1146.772, 31.71497
1147.254, 8.904053
1147.736, 21.97095
1148.218, 47.23767
1148.700, 53.60815
1149.182, 46.69043
1149.665, 32.54175
1150.147, 16.65906
1150.629, 12.48523
1151.111, 23.45032
1151.593, 30.46545
1152.075, 17.74133
1152.557, 8.328735
1153.039, 16.43555
1153.522, 26.46558
1154.004, 26.01050
1154.486, 22.68396
1154.968, 28.69885
1155.450, 42.87659
1155.932, 49.33533
1156.414, 45.38977
1156.896, 39.32190
1157.379, 28.72803
1157.861, 23.48083
1158.343, 28.13904
1158.825, 32.33911
1159.307, 28.82568
1159.789, 23.88721
1160.271, 27.69824
1160.753, 38.31934
1161.235, 47.33301
1161.718, 54.06250
1162.200, 46.34570
1162.682, 25.59448
1163.164, 13.68262
1163.646, 17.52124
1164.128, 29.71533
1164.610, 47.32715
1165.092, 59.70264
1165.574, 48.27515
1166.057, 28.38330
1166.539, 19.60181
1167.021, 18.89355
1167.503, 19.64746
1167.985, 22.50928
1168.467, 39.14966
1168.949, 70.46582
1169.431, 80.45117
1169.914, 31.91431
1170.396, 7.242920
1170.878, 12.14087
1171.360, 3.142578
1171.842, 22.40942
1172.324, 45.34839
1172.806, 39.77466
1173.288, 15.84229
1173.771, 7.168945
1174.253, 16.13330
1174.735, 25.89819
1175.217, 37.32788
1175.699, 45.84790
1176.181, 51.46436
1176.663, 49.22510
1177.145, 35.95654
1177.627, 19.61328
1178.109, 7.501221
1178.592, 2.022705
1179.074, 15.30786
1179.556, 39.88013
1180.038, 42.55103
1180.520, 29.62866
1181.002, 29.30640
1181.484, 44.25317
1181.966, 57.50928
1182.449, 61.13428
1182.931, 58.98169
1183.413, 48.50537
1183.895, 40.29712
1184.377, 46.38721
1184.859, 55.28174
1185.341, 58.05103
1185.823, 53.68506
1186.306, 36.38892
1186.788, 10.34570
1187.270, 4.121826
1187.752, 32.66626
1188.234, 53.48584
1188.716, 65.31836
1189.198, 65.39502
1189.680, 44.19604
1190.162, 27.94653
1190.645, 34.81055
1191.127, 48.15552
1191.609, 41.79517
1192.091, 22.82300
1192.573, 34.96802
1193.055, 74.92407
1193.537, 76.91846
1194.019, 42.99023
1194.501, 36.80469
1194.984, 69.46045
1195.466, 84.56958
1195.948, 44.88989
1196.430, 1.617432
1196.912, 1.730713
1197.394, 19.06812
1197.876, 32.55249
1198.358, 41.58472
1198.841, 45.27588
1199.323, 43.74146
1199.805, 33.77808
1200.287, 18.73413
1200.769, 12.18970
1201.251, 22.11548
1201.733, 28.84497
1202.215, 27.95435
1202.698, 24.49609
1203.180, 16.26416
1203.662, 11.16187
1204.144, 14.70752
1204.626, 22.44214
1205.108, 23.54980
1205.590, 19.71338
1206.072, 22.97192
1206.554, 33.00464
1207.036, 38.13135
1207.519, 37.93774
1208.001, 37.69263
1208.483, 39.28882
1208.965, 46.74097
1209.447, 67.51782
1209.929, 84.71143
1210.411, 79.69800
1210.893, 62.92358
1211.376, 44.88672
1211.858, 27.39697
1212.340, 6.845215
1212.822, 7.812988
1213.304, 2.245361
1213.786, 32.93530
1214.268, 49.75610
1214.750, 38.73877
1215.233, 32.12427
1215.715, 39.63892
1216.197, 44.76733
1216.679, 37.40381
1217.161, 16.58789
1217.643, 25.45972
1218.125, 33.70361
1218.607, 23.97241
1219.089, 3.457031
1219.572, 2.063477
1220.054, 13.66382
1220.536, 0.0000000E+00
##END=



