##NAMES=Tolovkite
##RRUFFID=R070110
##IDEAL CHEMISTRY=IrSbS
##LOCALITY=placer from Ust-Belsky Massif, Korjak Highand, Russia
##OWNER=RRUFF
##SOURCE=Michael Scott
##DESCRIPTION=Dark gray metallic crystal embedded in epoxy
##STATUS=The identification of this mineral is not yet confirmed.
##URL=rruff.info/R070110
160.3063, 0.0000000E+00
160.7885, 7.561340
161.2706, 18.43872
161.7527, 23.73834
162.2348, 15.39026
162.7169, 8.842285
163.1990, 15.20911
163.6811, 29.97150
164.1633, 38.82776
164.6454, 26.43372
165.1275, 8.201843
165.6096, 1.944641
166.0917, 6.651001
166.5738, 19.44550
167.0560, 29.41162
167.5381, 36.49878
168.0202, 40.05341
168.5023, 34.05878
168.9844, 25.67816
169.4665, 24.01086
169.9487, 39.49359
170.4308, 59.46863
170.9129, 74.14056
171.3950, 83.13739
171.8771, 87.02972
172.3592, 83.80029
172.8414, 75.65771
173.3235, 67.30206
173.8056, 60.33264
174.2877, 54.68634
174.7698, 50.80115
175.2519, 49.12219
175.7341, 47.53802
176.2162, 42.01019
176.6983, 36.94366
177.1804, 37.30640
177.6625, 41.70422
178.1446, 50.89282
178.6267, 58.26965
179.1089, 64.07019
179.5910, 65.25568
180.0731, 53.85443
180.5552, 31.61658
181.0373, 11.19336
181.5194, 3.071838
182.0016, 4.180969
182.4837, 6.356201
182.9658, 7.584045
183.4479, 8.976257
183.9300, 13.55896
184.4121, 21.42285
184.8943, 28.64417
185.3764, 29.96899
185.8585, 26.90393
186.3406, 27.16785
186.8227, 35.88586
187.3048, 48.64136
187.7870, 52.26062
188.2691, 45.84167
188.7512, 36.40100
189.2333, 32.24756
189.7154, 32.83850
190.1975, 32.11780
190.6796, 27.19263
191.1618, 18.90100
191.6439, 11.14941
192.1260, 3.779907
192.6081, 2.380249
193.0902, 7.467651
193.5723, 11.52661
194.0545, 10.48071
194.5366, 1.740356
195.0187, 24.30066
195.5008, 35.01123
195.9829, 30.67383
196.4650, 19.56360
196.9472, 16.30676
197.4293, 21.61304
197.9114, 28.79321
198.3935, 35.56409
198.8756, 42.05554
199.3577, 43.83728
199.8399, 38.68604
200.3220, 30.66309
200.8041, 30.59937
201.2862, 40.41003
201.7683, 50.34033
202.2504, 54.77417
202.7325, 53.22949
203.2147, 49.25061
203.6968, 41.48486
204.1789, 32.97107
204.6610, 30.00220
205.1431, 29.73145
205.6252, 32.27795
206.1074, 37.46277
206.5895, 46.16199
207.0716, 53.42139
207.5537, 59.23010
208.0358, 63.13013
208.5179, 61.09033
209.0001, 50.45483
209.4822, 39.07471
209.9643, 33.71570
210.4464, 35.65527
210.9285, 39.67908
211.4106, 46.83923
211.8928, 57.50085
212.3749, 60.10022
212.8570, 48.70288
213.3391, 33.89673
213.8212, 27.54480
214.3033, 34.12756
214.7855, 40.22461
215.2676, 42.71960
215.7497, 41.53992
216.2318, 39.19434
216.7139, 35.03735
217.1960, 30.59570
217.6781, 27.05505
218.1603, 23.25989
218.6424, 24.07349
219.1245, 33.43420
219.6066, 52.89661
220.0887, 60.48401
220.5708, 51.59668
221.0530, 36.18848
221.5351, 28.46448
222.0172, 29.92932
222.4993, 36.51575
222.9814, 49.63489
223.4635, 74.34875
223.9457, 84.32031
224.4278, 73.59668
224.9099, 51.74841
225.3920, 35.50537
225.8741, 25.83557
226.3562, 20.59424
226.8384, 19.88171
227.3205, 24.75854
227.8026, 30.55273
228.2847, 38.19177
228.7668, 46.21814
229.2489, 51.47791
229.7310, 54.19348
230.2132, 54.12073
230.6953, 50.33276
231.1774, 39.34753
231.6595, 32.84717
232.1416, 32.26660
232.6237, 35.92285
233.1059, 39.67700
233.5880, 45.65588
234.0701, 48.80371
234.5522, 45.48706
235.0343, 28.81628
235.5164, 21.45557
235.9986, 29.24060
236.4807, 46.68848
236.9628, 53.65808
237.4449, 43.22424
237.9270, 31.62195
238.4091, 27.51550
238.8913, 34.76355
239.3734, 41.65820
239.8555, 47.81335
240.3376, 53.18188
240.8197, 57.92957
241.3018, 64.10950
241.7840, 67.03369
242.2661, 62.63000
242.7482, 44.02271
243.2303, 33.17468
243.7124, 35.97192
244.1945, 48.90625
244.6767, 51.10364
245.1588, 35.66357
245.6409, 18.13989
246.1230, 9.357788
246.6051, 15.12720
247.0872, 16.77856
247.5694, 9.646973
248.0515, 4.316650
248.5336, 9.695435
249.0157, 3.939209
249.4978, 7.173828
249.9799, 21.17688
250.4621, 42.96704
250.9442, 55.31970
251.4263, 53.21887
251.9084, 38.79724
252.3905, 29.79626
252.8726, 27.35352
253.3548, 27.35986
253.8369, 26.62134
254.3190, 24.18579
254.8011, 23.41455
255.2832, 25.84839
255.7653, 30.88525
256.2474, 32.10840
256.7296, 27.35986
257.2117, 21.71667
257.6938, 19.42175
258.1759, 21.94629
258.6580, 24.26001
259.1401, 26.14319
259.6223, 27.41394
260.1044, 25.80688
260.5865, 19.94263
261.0686, 13.21289
261.5507, 8.667480
262.0328, 7.456421
262.5150, 5.067017
262.9971, 7.0068002E-02
263.4792, 7.495117
263.9613, 11.58167
264.4434, 11.68335
264.9255, 9.575684
265.4077, 7.017700
265.8898, 4.725830
266.3719, 0.7003170
266.8540, 11.64954
267.3361, 26.98071
267.8182, 36.24023
268.3004, 38.59192
268.7825, 36.29468
269.2646, 29.79846
269.7467, 17.26074
270.2288, 8.468994
270.7109, 6.271729
271.1931, 9.802490
271.6752, 13.00916
272.1573, 16.43726
272.6394, 18.35828
273.1215, 16.13391
273.6036, 8.574097
274.0857, 3.913086
274.5678, 5.602295
275.0500, 11.80408
275.5321, 9.251587
276.0142, 5.302368
276.4963, 19.12720
276.9784, 18.42090
277.4605, 1.453857
277.9427, 13.01587
278.4248, 20.88318
278.9069, 23.16382
279.3890, 24.83289
279.8711, 26.04346
280.3532, 26.13440
280.8354, 23.20471
281.3175, 17.07263
281.7996, 14.84717
282.2817, 20.80408
282.7638, 30.92554
283.2459, 28.53064
283.7281, 11.79907
284.2102, 6.195801
284.6923, 13.60608
285.1744, 10.86584
285.6565, 6.393921
286.1386, 1.351318
286.6208, 3.857544
287.1029, 8.756958
287.5850, 13.41040
288.0671, 16.95862
288.5492, 17.82373
289.0313, 16.48755
289.5135, 16.24658
289.9956, 17.66943
290.4777, 20.72424
290.9598, 26.58813
291.4419, 35.28809
291.9240, 42.36511
292.4062, 43.19434
292.8883, 39.11182
293.3704, 35.07861
293.8525, 32.30676
294.3346, 29.87268
294.8167, 24.38464
295.2989, 16.26404
295.7810, 11.63611
296.2631, 18.28064
296.7452, 32.02271
297.2273, 42.12537
297.7094, 46.78076
298.1916, 46.61377
298.6737, 40.32642
299.1558, 28.79272
299.6379, 17.76147
300.1200, 8.979126
300.6021, 3.595703
301.0842, 4.267944
301.5663, 12.81409
302.0485, 25.02820
302.5306, 39.82532
303.0127, 55.42346
303.4948, 65.04541
303.9769, 57.29944
304.4590, 43.36023
304.9412, 38.66272
305.4233, 48.63672
305.9054, 60.34985
306.3875, 64.63354
306.8696, 62.90198
307.3517, 57.62158
307.8339, 41.37061
308.3160, 25.64844
308.7981, 24.00806
309.2802, 42.54565
309.7623, 63.19385
310.2444, 75.82312
310.7266, 81.11292
311.2087, 81.03540
311.6908, 71.27356
312.1729, 59.69055
312.6550, 51.82422
313.1371, 48.58679
313.6193, 48.00525
314.1014, 51.36255
314.5835, 56.41467
315.0656, 59.40771
315.5477, 57.08167
316.0298, 53.74475
316.5120, 52.11389
316.9941, 53.08313
317.4762, 52.67456
317.9583, 46.83203
318.4404, 39.39563
318.9225, 35.59546
319.4047, 39.27905
319.8868, 44.57996
320.3689, 49.95898
320.8510, 55.43042
321.3331, 58.40344
321.8152, 56.61755
322.2974, 53.21851
322.7795, 51.46106
323.2616, 52.33826
323.7437, 54.46826
324.2258, 58.81580
324.7079, 65.72070
325.1901, 69.51941
325.6721, 66.96399
326.1543, 62.53577
326.6364, 59.95557
327.1185, 57.89050
327.6006, 59.41736
328.0827, 69.10962
328.5648, 86.82849
329.0470, 92.20325
329.5291, 73.77258
330.0112, 52.04810
330.4933, 41.43518
330.9754, 49.21472
331.4576, 56.87268
331.9397, 64.89038
332.4218, 72.25098
332.9039, 69.49243
333.3860, 48.74878
333.8681, 27.86304
334.3503, 19.04175
334.8324, 29.53687
335.3145, 36.66870
335.7966, 35.51282
336.2787, 29.61987
336.7608, 33.17908
337.2430, 51.04932
337.7251, 66.77856
338.2072, 69.70081
338.6893, 56.94421
339.1714, 49.31079
339.6535, 49.58167
340.1357, 53.37048
340.6178, 49.29370
341.0999, 35.29504
341.5820, 26.46387
342.0641, 34.39880
342.5462, 58.20361
343.0284, 68.98389
343.5105, 63.36401
343.9926, 52.30090
344.4747, 53.88965
344.9568, 67.30188
345.4389, 76.45178
345.9211, 70.44043
346.4032, 53.87878
346.8853, 45.00598
347.3674, 44.43494
347.8495, 47.48877
348.3316, 51.15356
348.8138, 54.68237
349.2959, 54.83301
349.7780, 45.66956
350.2601, 34.50610
350.7422, 36.73389
351.2243, 52.10229
351.7064, 66.68201
352.1885, 67.07178
352.6707, 58.72937
353.1528, 51.82410
353.6349, 51.63330
354.1170, 52.10962
354.5991, 44.30432
355.0812, 30.06616
355.5634, 20.74951
356.0455, 25.94702
356.5276, 38.91919
357.0097, 53.64368
357.4918, 73.33582
357.9739, 86.44812
358.4561, 79.74573
358.9382, 59.80713
359.4203, 45.73694
359.9024, 51.77893
360.3845, 62.82288
360.8666, 69.21924
361.3488, 68.72229
361.8309, 65.09460
362.3130, 54.07043
362.7951, 41.26221
363.2772, 37.03906
363.7593, 50.39880
364.2415, 67.39270
364.7236, 84.69861
365.2057, 104.2073
365.6878, 114.4417
366.1699, 104.8658
366.6520, 88.04797
367.1342, 79.50549
367.6163, 92.47070
368.0984, 100.8170
368.5805, 96.87292
369.0626, 78.78235
369.5447, 68.78992
370.0269, 72.37720
370.5090, 79.74805
370.9911, 82.39587
371.4732, 76.35156
371.9553, 73.03088
372.4374, 74.60925
372.9196, 80.44238
373.4017, 86.28357
373.8838, 93.59241
374.3659, 98.42029
374.8480, 97.35706
375.3301, 88.98474
375.8123, 81.00415
376.2944, 73.31262
376.7765, 66.91113
377.2586, 65.65869
377.7407, 70.68347
378.2228, 74.45117
378.7049, 71.16711
379.1870, 61.49963
379.6692, 57.01562
380.1513, 59.29089
380.6334, 63.81909
381.1155, 63.31836
381.5976, 58.34839
382.0797, 54.66162
382.5619, 58.16919
383.0440, 64.62573
383.5261, 60.26953
384.0082, 44.34753
384.4903, 28.64880
384.9724, 26.86621
385.4546, 33.96082
385.9367, 37.65454
386.4188, 30.25024
386.9009, 20.24207
387.3830, 17.46985
387.8651, 21.23352
388.3473, 25.88916
388.8294, 27.95581
389.3115, 28.78650
389.7936, 29.90454
390.2757, 32.05872
390.7578, 33.95862
391.2400, 34.73584
391.7221, 34.63098
392.2042, 34.30176
392.6863, 36.68188
393.1684, 37.03833
393.6505, 30.86755
394.1327, 13.40466
394.6148, 1.618774
395.0969, 6.268677
395.5790, 18.34412
396.0611, 24.67322
396.5432, 14.44666
397.0254, 6.129883
397.5075, 7.323975
397.9896, 21.01489
398.4717, 26.81360
398.9538, 14.29138
399.4359, 0.3143310
399.9181, 3.372925
400.4002, 12.81360
400.8823, 29.11694
401.3644, 46.26196
401.8465, 62.73889
402.3286, 65.76978
402.8108, 48.78723
403.2928, 28.85242
403.7750, 15.10437
404.2571, 7.150024
404.7392, 8.220459
405.2213, 21.92542
405.7034, 41.78784
406.1855, 53.60449
406.6677, 56.14746
407.1498, 54.44995
407.6319, 49.14197
408.1140, 40.74072
408.5961, 33.89575
409.0782, 28.53333
409.5604, 25.60767
410.0425, 27.64343
410.5246, 33.19568
411.0067, 34.25867
411.4888, 24.34900
411.9709, 10.04590
412.4531, 3.848389
412.9352, 5.412598
413.4173, 7.590942
413.8994, 1.092041
414.3815, 7.666016
414.8636, 7.138428
415.3458, 11.54431
415.8279, 30.09314
416.3100, 31.37427
416.7921, 19.93530
417.2742, 9.770386
417.7563, 8.455688
418.2385, 10.40491
418.7206, 12.16614
419.2027, 13.53296
419.6848, 13.62109
420.1669, 11.62109
420.6490, 8.277832
421.1312, 4.571655
421.6133, 5.698975
422.0954, 10.06641
422.5775, 4.8462000E-02
423.0596, 26.41101
423.5417, 41.64917
424.0239, 32.40100
424.5060, 18.17285
424.9881, 12.54260
425.4702, 22.13074
425.9523, 30.30139
426.4344, 36.13428
426.9166, 39.57080
427.3987, 40.11255
427.8808, 36.08582
428.3629, 32.23242
428.8450, 31.21265
429.3271, 33.78674
429.8092, 34.92798
430.2914, 33.90173
430.7735, 32.49353
431.2556, 35.39453
431.7377, 43.10974
432.2198, 45.16711
432.7019, 33.80017
433.1841, 13.75000
433.6662, 4.806885
434.1483, 7.462646
434.6304, 14.49146
435.1125, 21.40295
435.5946, 27.52234
436.0768, 30.13965
436.5589, 26.31299
437.0410, 22.33594
437.5231, 28.77222
438.0052, 42.75122
438.4873, 52.93982
438.9695, 48.13977
439.4516, 38.53809
439.9337, 35.18359
440.4158, 41.73401
440.8979, 46.19702
441.3800, 38.38660
441.8622, 24.55164
442.3443, 13.55249
442.8264, 8.362915
443.3085, 7.716309
443.7906, 14.29468
444.2727, 27.94177
444.7549, 35.72876
445.2370, 29.43567
445.7191, 20.01355
446.2012, 14.87183
446.6833, 20.95178
447.1654, 22.66443
447.6476, 14.75513
448.1297, 2.474731
448.6118, 1.887451
449.0939, 22.07764
449.5760, 39.15405
450.0581, 42.43787
450.5403, 29.25317
451.0224, 20.50916
451.5045, 17.44409
451.9866, 16.61072
452.4687, 12.63660
452.9508, 5.005615
453.4330, 2.623291
453.9151, 9.360596
454.3972, 22.52417
454.8793, 35.15051
455.3614, 47.39331
455.8435, 53.99023
456.3256, 47.49426
456.8077, 32.22778
457.2899, 18.54089
457.7720, 6.803955
458.2541, 0.2038570
458.7362, 6.538696
459.2183, 21.25439
459.7004, 32.61072
460.1826, 31.84033
460.6647, 26.36694
461.1468, 23.15051
461.6289, 23.05237
462.1110, 20.56250
462.5931, 6.220825
463.0753, 8.566162
463.5574, 13.16772
464.0395, 7.352051
464.5216, 23.86023
465.0037, 29.53137
465.4858, 26.36206
465.9680, 20.08435
466.4501, 6.7870997E-02
466.9322, 12.17859
467.4143, 6.395752
467.8964, 27.18970
468.3785, 47.89771
468.8607, 50.61584
469.3428, 43.91333
469.8249, 37.92004
470.3070, 33.24939
470.7891, 29.14453
471.2712, 24.07043
471.7534, 19.36328
472.2355, 25.80774
472.7176, 46.58154
473.1997, 61.73792
473.6818, 49.82910
474.1639, 15.56384
474.6461, 3.358154
475.1282, 1.114990
475.6103, 10.86560
476.0924, 19.18469
476.5745, 24.35779
477.0566, 28.30615
477.5388, 30.55774
478.0209, 32.81433
478.5030, 38.58105
478.9851, 47.59998
479.4672, 53.86487
479.9493, 52.83374
480.4315, 47.61511
480.9136, 40.91431
481.3957, 31.24231
481.8778, 22.94092
482.3599, 16.64624
482.8420, 13.51526
483.3241, 16.03870
483.8062, 34.09753
484.2884, 49.59595
484.7705, 55.23962
485.2526, 48.61877
485.7347, 40.87329
486.2168, 28.73108
486.6989, 18.02576
487.1811, 14.53821
487.6632, 23.24011
488.1453, 26.60913
488.6274, 19.09924
489.1095, 5.711426
489.5916, 6.339233
490.0738, 24.68604
490.5559, 40.84558
491.0380, 41.76526
491.5201, 29.24585
492.0022, 22.18884
492.4843, 21.86072
492.9665, 23.81006
493.4486, 22.22021
493.9307, 18.30908
494.4128, 16.87219
494.8949, 21.86377
495.3770, 27.69690
495.8592, 27.49829
496.3413, 22.01233
496.8234, 14.84851
497.3055, 5.268066
497.7876, 3.334595
498.2697, 7.770386
498.7519, 7.365234
499.2340, 3.772339
499.7161, 5.687134
500.1982, 16.97192
500.6803, 24.74121
501.1624, 25.17358
501.6446, 24.74646
502.1267, 24.95142
502.6088, 25.74158
503.0909, 25.96594
503.5730, 25.05786
504.0551, 23.99402
504.5373, 23.48645
505.0194, 23.80029
505.5015, 24.64404
505.9836, 26.20984
506.4657, 27.05884
506.9478, 25.09265
507.4299, 19.91980
507.9120, 15.92822
508.3942, 15.52722
508.8763, 17.13159
509.3584, 14.38733
509.8405, 7.273438
510.3226, 2.167480
510.8047, 5.406372
511.2869, 13.74048
511.7690, 21.21448
512.2511, 26.88110
512.7332, 31.32227
513.2153, 35.16138
513.6974, 38.29028
514.1796, 40.36584
514.6617, 42.94263
515.1438, 42.10217
515.6259, 33.66064
516.1080, 18.20325
516.5901, 6.239502
517.0723, 2.975830
517.5544, 5.388794
518.0365, 2.461304
518.5186, 37.54370
519.0007, 56.21716
519.4828, 50.79797
519.9650, 32.09558
520.4471, 17.10168
520.9292, 3.873901
521.4113, 1.503662
521.8934, 6.964111
522.3755, 26.21802
522.8577, 32.36938
523.3398, 23.62549
523.8219, 11.07996
524.3040, 2.211304
524.7861, 3.624390
525.2682, 8.011108
525.7504, 11.70398
526.2325, 12.64270
526.7146, 5.607300
527.1967, 6.739258
527.6788, 17.03064
528.1609, 19.32019
528.6431, 20.29858
529.1252, 27.65808
529.6073, 40.31360
530.0894, 49.60266
530.5715, 47.33899
531.0536, 42.56458
531.5358, 42.41528
532.0179, 52.12891
532.5000, 57.80566
532.9821, 54.27051
533.4642, 46.12964
533.9464, 40.17883
534.4285, 38.38428
534.9106, 37.04297
535.3927, 33.68420
535.8748, 28.90381
536.3569, 29.13623
536.8391, 37.71265
537.3212, 43.19543
537.8033, 34.49414
538.2854, 11.55066
538.7675, 2.050781
539.2496, 9.378296
539.7318, 23.22766
540.2139, 32.22400
540.6960, 36.72485
541.1781, 38.78479
541.6602, 38.72180
542.1423, 36.91455
542.6245, 32.83337
543.1066, 27.04810
543.5887, 22.09448
544.0708, 17.11243
544.5529, 15.21204
545.0350, 21.01331
545.5172, 36.80725
545.9993, 46.81482
546.4813, 37.85559
546.9634, 23.87427
547.4456, 19.07812
547.9277, 39.35474
548.4098, 52.37012
548.8919, 51.22778
549.3740, 40.31934
549.8561, 32.73169
550.3383, 28.46997
550.8204, 27.41895
551.3025, 30.06555
551.7846, 36.45801
552.2667, 44.50134
552.7488, 55.39954
553.2310, 63.21570
553.7131, 57.99170
554.1952, 43.03467
554.6773, 36.37866
555.1594, 44.57666
555.6415, 55.39099
556.1237, 51.20911
556.6058, 36.98889
557.0879, 26.36230
557.5700, 29.51892
558.0521, 36.42529
558.5342, 40.25513
559.0164, 40.49829
559.4985, 37.86377
559.9806, 28.74951
560.4627, 19.90137
560.9448, 16.32043
561.4269, 24.94360
561.9091, 28.62720
562.3912, 20.04309
562.8733, 8.233765
563.3554, 9.166382
563.8375, 32.32837
564.3196, 47.18555
564.8018, 43.68384
565.2839, 26.21460
565.7660, 16.36047
566.2481, 14.21753
566.7302, 18.45520
567.2123, 34.63733
567.6945, 57.59436
568.1766, 63.00891
568.6587, 48.10327
569.1408, 29.51318
569.6229, 23.74744
570.1050, 25.47998
570.5872, 24.63403
571.0693, 14.06763
571.5514, 5.154419
572.0335, 7.247437
572.5156, 17.15344
572.9977, 26.10510
573.4799, 33.29907
573.9620, 37.11377
574.4441, 35.60352
574.9262, 27.57959
575.4083, 20.98633
575.8904, 16.42310
576.3726, 14.06470
576.8547, 13.55371
577.3368, 14.88818
577.8189, 18.51697
578.3010, 25.56909
578.7831, 32.96802
579.2653, 35.54309
579.7474, 33.91260
580.2295, 32.91174
580.7116, 34.50134
581.1937, 37.20691
581.6758, 38.55823
582.1580, 38.22803
582.6401, 34.81445
583.1222, 24.27905
583.6043, 11.86572
584.0864, 3.950928
584.5685, 2.332886
585.0507, 2.230591
585.5328, 0.9671630
586.0149, 0.7695310
586.4970, 2.075073
586.9791, 3.306396
587.4612, 3.411621
587.9434, 2.665161
588.4255, 0.6462400
588.9076, 4.297241
589.3897, 15.43311
589.8718, 23.44531
590.3539, 25.11829
590.8361, 20.71899
591.3182, 12.65088
591.8003, 0.6467290
592.2824, 9.973267
592.7645, 3.638306
593.2466, 13.90283
593.7288, 22.46814
594.2109, 18.07861
594.6930, 12.38208
595.1751, 22.57898
595.6572, 39.82666
596.1393, 47.05261
596.6215, 27.41858
597.1036, 7.080078
597.5857, 1.522217
598.0677, 6.937012
598.5499, 11.34668
599.0320, 6.352661
599.5141, 4.051147
599.9962, 13.55200
600.4783, 38.72766
600.9604, 45.93530
601.4426, 22.58606
601.9247, 3.296631
602.4068, 7.414795
602.8889, 16.06116
603.3710, 27.88538
603.8531, 22.57104
604.3353, 8.934692
604.8174, 1.890747
605.2995, 9.583374
605.7816, 10.03857
606.2637, 2.268311
606.7458, 18.40686
607.2280, 25.16418
607.7101, 24.18994
608.1922, 22.41272
608.6743, 24.41785
609.1564, 26.66687
609.6385, 26.54199
610.1207, 23.65002
610.6028, 19.76379
611.0849, 12.46179
611.5670, 6.112671
612.0491, 4.371948
612.5313, 11.26709
613.0134, 16.02454
613.4955, 19.14746
613.9776, 19.58679
614.4597, 14.09351
614.9418, 0.9349370
615.4240, 8.809814
615.9061, 11.87805
616.3882, 9.502686
616.8703, 2.268066
617.3524, 9.153687
617.8345, 16.45679
618.3167, 8.833984
618.7988, 3.723877
619.2809, 8.837402
619.7630, 10.89624
620.2451, 2.839478
620.7272, 11.05713
621.2094, 14.35608
621.6915, 1.812744
622.1736, 7.580322
622.6557, 6.730591
623.1378, 5.455933
623.6199, 18.32361
624.1021, 4.872803
624.5842, 17.55994
625.0663, 19.93164
625.5484, 27.06641
626.0305, 17.90027
626.5126, 18.97253
626.9948, 18.30457
627.4769, 17.99487
627.9590, 20.36914
628.4411, 23.97241
628.9232, 23.94385
629.4053, 20.08923
629.8875, 14.87659
630.3696, 6.972900
630.8517, 3.6132999E-02
631.3338, 0.4017330
631.8159, 8.980469
632.2980, 18.10706
632.7802, 20.97778
633.2623, 21.44263
633.7444, 24.39453
634.2265, 40.70105
634.7086, 46.99219
635.1907, 33.61670
635.6729, 9.009888
636.1550, 0.7758790
636.6371, 9.433472
637.1192, 19.88147
637.6013, 23.13818
638.0834, 20.11047
638.5656, 14.90759
639.0477, 7.361328
639.5298, 1.773682
640.0119, 1.157837
640.4940, 4.842651
640.9761, 13.44312
641.4583, 27.97717
641.9404, 39.35645
642.4225, 38.62109
642.9046, 32.31274
643.3867, 27.95593
643.8688, 30.65247
644.3510, 31.47144
644.8331, 25.37268
645.3152, 16.58276
645.7973, 14.39868
646.2794, 25.15894
646.7615, 31.70007
647.2437, 27.75684
647.7258, 16.10034
648.2079, 11.82568
648.6900, 15.59546
649.1721, 21.49011
649.6542, 28.15259
650.1363, 33.61682
650.6184, 31.95435
651.1005, 22.86768
651.5826, 14.37207
652.0648, 11.81458
652.5469, 14.32703
653.0290, 22.58276
653.5111, 40.83191
653.9932, 53.30322
654.4753, 50.31165
654.9575, 39.20093
655.4396, 29.48657
655.9217, 21.16711
656.4038, 16.00989
656.8859, 14.85059
657.3680, 16.76843
657.8502, 19.48376
658.3323, 23.21704
658.8144, 26.73486
659.2965, 28.68787
659.7786, 30.12488
660.2607, 38.38745
660.7429, 53.47339
661.2250, 63.02747
661.7071, 54.47119
662.1892, 37.41687
662.6713, 23.28210
663.1534, 12.67590
663.6356, 6.862061
664.1177, 9.521851
664.5998, 15.71875
665.0819, 21.57593
665.5640, 25.58215
666.0461, 30.94275
666.5283, 41.54285
667.0104, 51.27319
667.4925, 50.01685
667.9746, 32.25903
668.4567, 23.30957
668.9388, 30.95630
669.4210, 46.99878
669.9031, 51.16150
670.3852, 44.48083
670.8673, 39.25854
671.3494, 43.92493
671.8315, 52.17480
672.3137, 55.44641
672.7958, 54.25671
673.2779, 51.65417
673.7600, 48.22510
674.2421, 45.59863
674.7242, 45.12366
675.2064, 47.09436
675.6885, 48.60583
676.1706, 51.98853
676.6527, 52.50964
677.1348, 45.82300
677.6169, 27.59229
678.0991, 16.61597
678.5812, 13.92615
679.0633, 16.68701
679.5454, 22.09509
680.0275, 30.02002
680.5096, 39.06091
680.9918, 50.46899
681.4739, 59.97974
681.9560, 60.01819
682.4381, 53.85437
682.9202, 49.33850
683.4023, 51.56970
683.8845, 54.99609
684.3666, 56.86084
684.8487, 57.37280
685.3308, 58.30090
685.8129, 60.97729
686.2950, 63.04895
686.7772, 64.17126
687.2593, 64.40356
687.7414, 60.61157
688.2235, 50.92236
688.7056, 42.86877
689.1877, 44.31665
689.6699, 53.18921
690.1520, 56.39417
690.6341, 52.59338
691.1162, 47.76807
691.5983, 45.57861
692.0804, 46.60828
692.5626, 53.19653
693.0447, 72.18445
693.5268, 83.42249
694.0089, 70.32739
694.4910, 46.52637
694.9731, 32.10742
695.4553, 35.37292
695.9374, 40.73474
696.4195, 46.51892
696.9016, 53.29761
697.3837, 64.76172
697.8658, 83.00684
698.3480, 93.16663
698.8301, 85.70679
699.3122, 68.40222
699.7943, 63.62061
700.2764, 69.86011
700.7585, 75.16882
701.2407, 68.83008
701.7228, 59.80273
702.2048, 56.68176
702.6870, 59.94226
703.1691, 65.53406
703.6512, 76.85303
704.1333, 86.38013
704.6154, 88.45105
705.0975, 79.62134
705.5797, 73.41309
706.0618, 70.41284
706.5439, 69.13452
707.0260, 68.85144
707.5081, 69.65369
707.9902, 67.24268
708.4724, 59.69580
708.9545, 53.32983
709.4366, 58.34143
709.9187, 70.99097
710.4008, 82.79883
710.8829, 95.24194
711.3651, 99.83630
711.8472, 80.98669
712.3293, 50.95789
712.8114, 35.36938
713.2935, 60.34460
713.7756, 78.18359
714.2578, 73.98535
714.7399, 53.80737
715.2220, 44.25269
715.7041, 47.94873
716.1862, 54.25000
716.6683, 57.88440
717.1505, 60.54907
717.6326, 74.53162
718.1147, 98.94958
718.5968, 114.7876
719.0789, 97.95654
719.5610, 70.15466
720.0432, 58.34937
720.5253, 65.15918
721.0074, 76.10754
721.4895, 92.26807
721.9716, 104.9366
722.4537, 106.4731
722.9359, 88.92383
723.4180, 78.22522
723.9001, 78.00049
724.3822, 80.51025
724.8643, 78.50903
725.3464, 71.89856
725.8286, 59.83972
726.3107, 38.60181
726.7928, 22.86877
727.2749, 42.07434
727.7570, 82.68213
728.2391, 108.3809
728.7213, 101.5552
729.2034, 86.66223
729.6855, 78.80554
730.1676, 74.60364
730.6497, 68.01440
731.1318, 50.37500
731.6140, 38.67737
732.0961, 38.07800
732.5782, 45.60254
733.0603, 51.67688
733.5424, 56.20972
734.0245, 59.58716
734.5067, 61.71509
734.9888, 62.89673
735.4709, 65.32556
735.9530, 68.44360
736.4351, 68.69458
736.9172, 60.49915
737.3994, 51.31897
737.8815, 49.24585
738.3636, 54.47668
738.8457, 60.61279
739.3278, 69.92834
739.8099, 75.58691
740.2921, 70.90210
740.7742, 51.39319
741.2563, 46.55408
741.7384, 63.85571
742.2205, 82.29138
742.7026, 82.57141
743.1848, 66.06055
743.6669, 55.76221
744.1490, 53.91968
744.6311, 54.22485
745.1132, 47.93848
745.5953, 40.17468
746.0775, 40.75378
746.5596, 56.89417
747.0417, 68.07300
747.5238, 57.96326
748.0059, 39.90417
748.4880, 31.02002
748.9702, 39.67261
749.4523, 46.57214
749.9344, 52.27039
750.4165, 54.47095
750.8986, 45.62964
751.3807, 24.79761
751.8629, 12.31665
752.3450, 15.90002
752.8271, 26.44568
753.3092, 31.43628
753.7913, 31.66821
754.2734, 29.97290
754.7555, 24.71948
755.2376, 20.50110
755.7197, 19.53540
756.2018, 21.97119
756.6840, 28.28577
757.1661, 47.47693
757.6482, 59.52686
758.1303, 56.84497
758.6124, 42.18384
759.0945, 33.41125
759.5767, 29.89868
760.0588, 29.16931
760.5409, 30.82812
761.0230, 33.99988
761.5051, 37.08740
761.9872, 39.52625
762.4694, 41.46436
762.9515, 43.52710
763.4336, 44.78027
763.9157, 44.67798
764.3978, 43.10950
764.8799, 39.78906
765.3621, 31.56372
765.8442, 24.67065
766.3263, 22.48071
766.8084, 25.61340
767.2905, 27.95557
767.7726, 29.89746
768.2548, 30.18994
768.7369, 27.20374
769.2190, 21.55310
769.7011, 14.22827
770.1832, 2.576660
770.6653, 4.202759
771.1475, 5.965820
771.6296, 22.17212
772.1117, 32.21448
772.5938, 28.50513
773.0759, 27.00671
773.5580, 34.09033
774.0402, 42.36023
774.5223, 44.54431
775.0044, 39.37573
775.4865, 33.64209
775.9686, 27.96191
776.4507, 21.89417
776.9329, 11.57666
777.4150, 5.8959998E-02
777.8971, 1.780029
778.3792, 13.46008
778.8613, 27.45935
779.3434, 20.86841
779.8256, 5.624023
780.3077, 0.4370120
780.7898, 18.16028
781.2719, 31.75879
781.7540, 32.13757
782.2361, 27.56042
782.7183, 33.35938
783.2004, 41.25378
783.6825, 43.91187
784.1646, 41.64209
784.6467, 19.59424
785.1288, 23.11804
785.6110, 16.39172
786.0931, 9.236328
786.5752, 16.31860
787.0573, 2.891602
787.5394, 4.116455
788.0215, 22.09033
788.5037, 35.00183
788.9858, 38.66394
789.4679, 37.18359
789.9500, 28.74011
790.4321, 16.14282
790.9142, 11.18298
791.3964, 15.30042
791.8785, 16.26685
792.3606, 5.354126
792.8427, 9.587524
793.3248, 11.62622
793.8069, 2.816162
794.2891, 8.099854
794.7712, 19.40808
795.2533, 28.66199
795.7354, 33.84338
796.2175, 35.00146
796.6996, 33.86255
797.1818, 30.39661
797.6639, 24.94580
798.1460, 15.99902
798.6281, 4.600708
799.1102, 0.1944580
799.5923, 1.863770
800.0745, 7.368530
800.5566, 16.88000
801.0387, 27.15271
801.5208, 33.28552
802.0029, 35.23523
802.4850, 33.54175
802.9672, 24.61255
803.4493, 15.37524
803.9314, 10.50537
804.4135, 10.83508
804.8956, 8.385742
805.3777, 0.7010500
805.8599, 5.420288
806.3419, 6.019409
806.8240, 1.457397
807.3062, 3.730103
807.7883, 9.586182
808.2704, 15.97974
808.7525, 27.99194
809.2346, 37.60229
809.7167, 31.13379
810.1989, 7.659790
810.6810, 11.13379
811.1631, 15.29163
811.6452, 12.71741
812.1273, 6.701172
812.6094, 3.730347
813.0916, 8.786011
813.5737, 6.589355
814.0558, 4.116333
814.5379, 9.116089
815.0200, 19.21167
815.5021, 17.22900
815.9843, 2.917358
816.4664, 8.367798
816.9485, 0.9412840
817.4306, 15.36462
817.9127, 18.29883
818.3948, 5.544312
818.8770, 3.028320
819.3591, 1.205811
819.8412, 7.113037
820.3233, 8.427856
820.8054, 4.167236
821.2875, 2.728149
821.7697, 4.656006
822.2518, 6.558960
822.7339, 4.262329
823.2160, 8.8744998E-02
823.6981, 2.923828
824.1802, 4.011475
824.6624, 0.9101560
825.1445, 28.48792
825.6266, 53.72827
826.1087, 53.18347
826.5908, 9.303589
827.0729, 12.20447
827.5551, 1.228271
828.0372, 19.40601
828.5193, 16.93005
829.0014, 5.146484
829.4835, 13.62842
829.9656, 6.166382
830.4478, 4.199707
830.9299, 5.928711
831.4120, 3.496826
831.8941, 2.250732
832.3762, 2.776978
832.8583, 5.472290
833.3405, 15.45032
833.8226, 23.66284
834.3047, 22.98181
834.7868, 9.976807
835.2689, 3.979248
835.7510, 6.737183
836.2332, 11.05127
836.7153, 9.680176
837.1974, 4.718628
837.6795, 1.690308
838.1616, 1.050415
838.6437, 5.020142
839.1259, 22.48584
839.6080, 40.12061
840.0901, 45.57739
840.5722, 34.09802
841.0543, 24.70105
841.5364, 18.55981
842.0186, 14.97229
842.5007, 13.59253
842.9828, 14.46851
843.4649, 17.86047
843.9470, 23.96765
844.4291, 30.17432
844.9113, 37.24902
845.3934, 42.11816
845.8755, 38.11658
846.3576, 23.82703
846.8397, 13.00488
847.3218, 14.24487
847.8040, 18.16638
848.2861, 18.51465
848.7682, 14.34583
849.2503, 13.26318
849.7324, 15.81104
850.2145, 19.76575
850.6967, 25.57385
851.1788, 31.35730
851.6609, 28.74048
852.1430, 17.32825
852.6251, 8.033936
853.1072, 8.884644
853.5894, 14.26746
854.0715, 21.19226
854.5536, 28.59106
855.0357, 36.33997
855.5178, 48.72473
855.9999, 55.02954
856.4821, 46.09143
856.9642, 22.91113
857.4463, 14.75085
857.9283, 21.53271
858.4105, 30.97046
858.8926, 36.57092
859.3747, 38.90344
859.8568, 36.61011
860.3389, 30.22070
860.8210, 27.20630
861.3032, 34.27966
861.7853, 41.25269
862.2674, 42.79260
862.7495, 39.41980
863.2316, 42.01074
863.7137, 52.13098
864.1959, 57.98352
864.6780, 48.68542
865.1601, 31.95251
865.6422, 27.61194
866.1243, 33.25989
866.6064, 36.67737
867.0886, 25.12463
867.5707, 14.65820
868.0528, 16.96130
868.5349, 29.88879
869.0170, 34.95740
869.4991, 28.56665
869.9813, 23.78479
870.4634, 26.61560
870.9455, 32.57935
871.4276, 24.91492
871.9097, 6.646118
872.3918, 4.327759
872.8740, 10.77295
873.3561, 28.72424
873.8382, 27.44043
874.3203, 13.52661
874.8024, 9.226074
875.2845, 28.75903
875.7667, 45.30029
876.2488, 55.37756
876.7309, 58.72913
877.2130, 53.74316
877.6951, 40.48633
878.1772, 28.74792
878.6594, 21.78577
879.1415, 17.70142
879.6236, 13.89111
880.1057, 11.33105
880.5878, 12.00378
881.0699, 21.14966
881.5521, 27.65344
882.0342, 28.69958
882.5163, 26.54822
882.9984, 22.80640
883.4805, 16.55713
883.9626, 13.45630
884.4448, 15.47339
884.9269, 17.20569
885.4090, 11.06677
885.8911, 1.435791
886.3732, 0.4063720
886.8553, 15.21399
887.3375, 27.46704
887.8196, 28.51111
888.3017, 24.81494
888.7838, 23.09070
889.2659, 24.33936
889.7480, 23.88281
890.2302, 20.95142
890.7123, 18.31738
891.1944, 21.13232
891.6765, 26.60095
892.1586, 25.82861
892.6407, 17.07495
893.1229, 8.458740
893.6050, 5.751587
894.0871, 5.841675
894.5692, 6.763672
895.0513, 9.206909
895.5334, 7.874756
896.0156, 0.3549800
896.4977, 5.618286
896.9798, 4.091919
897.4619, 3.666870
897.9440, 11.74512
898.4261, 20.01990
898.9083, 26.38879
899.3904, 30.89941
899.8725, 31.75317
900.3546, 24.15186
900.8367, 8.131836
901.3188, 2.103638
901.8010, 14.67896
902.2831, 26.57739
902.7652, 30.62842
903.2473, 27.99475
903.7294, 23.23584
904.2115, 16.65564
904.6937, 13.29065
905.1758, 19.41260
905.6579, 27.55847
906.1400, 28.19507
906.6221, 24.29663
907.1042, 12.00903
907.5864, 22.27954
908.0685, 27.38062
908.5506, 27.49219
909.0327, 7.761230
909.5148, 13.56482
909.9969, 9.094116
910.4790, 4.053711
910.9611, 13.30847
911.4432, 3.617554
911.9254, 5.525879
912.4075, 4.252686
912.8896, 7.704834
913.3717, 0.8396000
913.8538, 2.853149
914.3359, 3.750488
914.8181, 0.3137210
915.3002, 4.625244
915.7823, 12.90491
916.2644, 16.43701
916.7465, 13.45630
917.2286, 9.876465
917.7108, 12.88660
918.1929, 19.02856
918.6750, 23.42456
919.1571, 25.16089
919.6392, 25.81128
920.1213, 26.10754
920.6035, 25.11133
921.0856, 20.93555
921.5677, 12.64783
922.0498, 14.17651
922.5319, 27.19006
923.0140, 36.25598
923.4962, 21.86682
923.9783, 0.5760500
924.4604, 0.2385250
924.9425, 18.06567
925.4246, 31.69202
925.9067, 28.10559
926.3889, 20.56689
926.8710, 11.59155
927.3531, 2.802612
927.8352, 5.904419
928.3173, 22.75073
928.7994, 35.18921
929.2816, 33.97388
929.7637, 25.80823
930.2458, 20.14294
930.7279, 17.34766
931.2100, 15.07251
931.6921, 8.503540
932.1743, 6.969849
932.6564, 18.74792
933.1385, 34.83411
933.6206, 39.68176
934.1027, 31.63721
934.5848, 24.79810
935.0670, 21.57117
935.5491, 20.15149
936.0312, 17.71423
936.5133, 15.70715
936.9954, 16.75696
937.4775, 22.32764
937.9597, 28.20825
938.4418, 35.51501
938.9239, 40.83020
939.4060, 40.84412
939.8881, 34.39062
940.3702, 30.64575
940.8524, 30.24988
941.3345, 27.95557
941.8166, 14.62036
942.2987, 0.8112790
942.7808, 4.125732
943.2629, 4.711914
943.7451, 14.62683
944.2272, 1.048706
944.7093, 10.85620
945.1914, 17.68896
945.6735, 20.13269
946.1556, 3.328491
946.6378, 12.06055
947.1199, 9.769775
947.6020, 6.697144
948.0841, 17.85754
948.5662, 2.736572
949.0483, 13.68323
949.5305, 14.24292
950.0126, 19.54333
950.4947, 14.47485
950.9768, 12.49475
951.4589, 20.76648
951.9410, 23.32092
952.4232, 16.88708
952.9053, 22.22900
953.3874, 6.473755
953.8695, 9.042847
954.3516, 19.26917
954.8337, 20.18774
955.3159, 23.28918
955.7980, 24.66882
956.2801, 25.84631
956.7622, 25.66809
957.2443, 26.93079
957.7264, 32.56567
958.2086, 42.30872
958.6907, 47.30627
959.1728, 47.54944
959.6549, 45.19153
960.1370, 37.61401
960.6191, 30.85217
961.1013, 33.75195
961.5834, 44.15137
962.0654, 46.48425
962.5475, 27.33813
963.0297, 16.66858
963.5118, 26.29333
963.9939, 45.49500
964.4760, 41.13782
964.9581, 17.70764
965.4402, 4.473022
965.9224, 16.51489
966.4045, 31.79041
966.8866, 32.61682
967.3687, 25.62134
967.8508, 19.54517
968.3329, 13.58545
968.8151, 12.54077
969.2972, 16.49744
969.7793, 24.64062
970.2614, 38.74548
970.7435, 55.56714
971.2256, 60.96362
971.7078, 53.66174
972.1899, 45.32373
972.6720, 42.90686
973.1541, 42.05579
973.6362, 40.20911
974.1183, 37.02722
974.6005, 30.14160
975.0826, 16.97241
975.5647, 8.548218
976.0468, 12.09094
976.5289, 21.48230
977.0110, 21.49194
977.4932, 15.26733
977.9753, 12.93457
978.4574, 25.29883
978.9395, 34.95166
979.4216, 34.32800
979.9037, 27.43396
980.3859, 18.09644
980.8680, 3.844482
981.3501, 4.388794
981.8322, 25.69092
982.3143, 48.14648
982.7964, 45.35059
983.2786, 29.76147
983.7607, 20.44153
984.2428, 21.59937
984.7249, 22.35559
985.2070, 12.81799
985.6891, 9.076904
986.1713, 23.26794
986.6534, 53.31201
987.1355, 65.68445
987.6176, 60.55713
988.0997, 48.18079
988.5818, 28.43530
989.0640, 9.366455
989.5461, 1.389282
990.0282, 4.839966
990.5103, 4.345947
990.9924, 0.5472410
991.4745, 7.872192
991.9567, 24.84924
992.4388, 41.70752
992.9209, 40.50244
993.4030, 24.81946
993.8851, 12.28687
994.3672, 5.907715
994.8494, 5.532715
995.3315, 16.91235
995.8136, 30.50977
996.2957, 37.35913
996.7778, 35.76099
997.2599, 32.39026
997.7421, 26.44983
998.2242, 21.49792
998.7063, 20.28955
999.1884, 21.61865
999.6705, 22.61609
1000.153, 23.48315
1000.635, 25.76917
1001.117, 38.82727
1001.599, 44.48901
1002.081, 30.46155
1002.563, 6.098267
1003.045, 10.57068
1003.527, 19.68176
1004.010, 19.57458
1004.492, 7.221924
1004.974, 6.761353
1005.456, 8.564819
1005.938, 4.242676
1006.420, 1.237061
1006.902, 1.340942
1007.384, 2.910034
1007.867, 6.532349
1008.349, 10.13623
1008.831, 11.74597
1009.313, 11.92444
1009.795, 18.13843
1010.277, 29.50403
1010.759, 35.60474
1011.241, 22.67383
1011.723, 8.791138
1012.206, 7.590332
1012.688, 16.00635
1013.170, 20.39111
1013.652, 18.28088
1014.134, 18.06885
1014.616, 21.78821
1015.098, 27.11951
1015.580, 30.04419
1016.062, 31.88257
1016.545, 36.46033
1017.027, 46.48083
1017.509, 51.79651
1017.991, 43.05957
1018.473, 32.46533
1018.955, 28.73975
1019.437, 32.19409
1019.919, 30.53467
1020.401, 23.44238
1020.884, 19.92676
1021.366, 33.02576
1021.848, 47.18506
1022.330, 41.08008
1022.812, 21.59167
1023.294, 12.58435
1023.776, 28.63098
1024.258, 41.32605
1024.741, 47.36169
1025.223, 47.31299
1025.705, 39.50928
1026.187, 26.15723
1026.669, 15.64453
1027.151, 9.242310
1027.633, 7.686279
1028.115, 15.51257
1028.598, 24.98682
1029.080, 30.54773
1029.562, 32.11267
1030.044, 29.21228
1030.526, 20.47266
1031.008, 16.31824
1031.490, 27.51624
1031.972, 42.87061
1032.454, 43.17322
1032.937, 33.70728
1033.419, 28.53333
1033.901, 42.29272
1034.383, 46.41675
1034.865, 28.65063
1035.347, 8.509155
1035.829, 19.96838
1036.311, 57.28906
1036.793, 69.89587
1037.276, 50.26648
1037.758, 27.25085
1038.240, 22.29382
1038.722, 23.06641
1039.204, 18.60571
1039.686, 8.699097
1040.168, 9.579346
1040.650, 25.99634
1041.132, 37.32996
1041.615, 33.45349
1042.097, 21.78894
1042.579, 12.21533
1043.061, 5.741943
1043.543, 4.944824
1044.025, 18.90356
1044.507, 26.66089
1044.989, 19.35144
1045.472, 9.497803
1045.954, 10.91699
1046.436, 22.69360
1046.918, 26.47034
1047.400, 20.97192
1047.882, 18.01123
1048.364, 31.97925
1048.846, 47.96069
1049.328, 53.19263
1049.811, 48.62830
1050.293, 48.74524
1050.775, 56.58765
1051.257, 59.58899
1051.739, 53.32117
1052.221, 42.83496
1052.703, 34.47205
1053.185, 28.41064
1053.667, 25.53955
1054.150, 28.01013
1054.632, 27.85461
1055.114, 17.09534
1055.596, 9.096558
1056.078, 15.18164
1056.560, 34.05188
1057.042, 39.00012
1057.524, 30.76013
1058.007, 21.01453
1058.489, 12.86682
1058.971, 9.624756
1059.453, 18.31592
1059.935, 33.16492
1060.417, 38.91357
1060.899, 32.93176
1061.381, 21.50391
1061.864, 3.562988
1062.346, 9.741333
1062.828, 1.6357001E-02
1063.310, 19.85889
1063.792, 27.23682
1064.274, 18.10742
1064.756, 12.35657
1065.238, 20.58875
1065.720, 27.65735
1066.203, 27.65051
1066.685, 22.16064
1067.167, 16.32153
1067.649, 10.82227
1068.131, 10.05115
1068.613, 19.07324
1069.095, 27.88611
1069.577, 29.55566
1070.059, 27.70972
1070.542, 27.52490
1071.024, 30.41150
1071.506, 29.34973
1071.988, 23.32825
1072.470, 18.73010
1072.952, 22.94226
1073.434, 30.31653
1073.916, 34.91699
1074.399, 36.29248
1074.881, 33.05847
1075.363, 17.49463
1075.845, 8.994507
1076.327, 13.38025
1076.809, 23.22253
1077.291, 24.26599
1077.773, 19.01807
1078.255, 16.44373
1078.738, 0.1142580
1079.220, 12.67957
1079.702, 20.10767
1080.184, 23.08508
1080.666, 6.437744
1081.148, 14.64111
1081.630, 12.57031
1082.112, 10.04443
1082.594, 21.77625
1083.077, 7.230225
1083.559, 18.72681
1084.041, 19.81543
1084.523, 25.62878
1085.005, 21.12280
1085.487, 19.80762
1085.969, 28.85034
1086.451, 32.37354
1086.934, 34.82617
1087.416, 31.33081
1087.898, 25.24329
1088.380, 22.55298
1088.862, 23.55579
1089.344, 27.35559
1089.826, 41.62610
1090.308, 47.81018
1090.791, 38.21948
1091.273, 20.57043
1091.755, 8.347412
1092.237, 2.142700
1092.719, 8.184082
1093.201, 28.75403
1093.683, 44.59912
1094.165, 40.08032
1094.647, 29.05298
1095.130, 22.31799
1095.612, 20.05200
1096.094, 11.54443
1096.576, 4.299561
1097.058, 12.03809
1097.540, 1.075928
1098.022, 19.16687
1098.504, 25.47253
1098.986, 23.84180
1099.469, 21.05896
1099.951, 14.82166
1100.433, 15.42212
1100.915, 26.25452
1101.397, 35.19763
1101.879, 27.80103
1102.361, 11.71729
1102.843, 2.372925
1103.325, 0.1774900
1103.808, 0.2832030
1104.290, 4.982056
1104.772, 1.085083
1105.254, 30.56006
1105.736, 63.65149
1106.218, 56.74817
1106.700, 18.97400
1107.182, 4.140259
1107.665, 24.19702
1108.147, 44.89722
1108.629, 44.48669
1109.111, 35.20557
1109.593, 23.07593
1110.075, 9.393677
1110.557, 2.166260
1111.039, 1.495728
1111.521, 4.629395
1112.004, 12.89087
1112.486, 20.07251
1112.968, 16.23120
1113.450, 8.742920
1113.932, 8.452759
1114.414, 22.45569
1114.896, 27.31409
1115.378, 20.75708
1115.860, 13.25659
1116.343, 10.70178
1116.825, 13.18506
1117.307, 25.74365
1117.789, 44.00696
1118.271, 53.27173
1118.753, 40.23853
1119.235, 29.98560
1119.717, 23.04956
1120.200, 20.73169
1120.682, 30.10010
1121.164, 45.64648
1121.646, 46.68335
1122.128, 31.29150
1122.610, 17.44775
1123.092, 10.37500
1123.574, 12.79175
1124.057, 31.57690
1124.539, 57.15381
1125.021, 58.73218
1125.503, 38.48877
1125.985, 19.74634
1126.467, 7.077393
1126.949, 2.782471
1127.431, 19.56079
1127.913, 37.53101
1128.396, 35.21362
1128.878, 11.66797
1129.360, 2.949707
1129.842, 10.04932
1130.324, 20.73560
1130.806, 30.72681
1131.288, 39.47363
1131.770, 48.99023
1132.252, 56.17456
1132.735, 55.59473
1133.217, 42.65137
1133.699, 27.90308
1134.181, 8.146973
1134.663, 1.760498
1135.145, 24.17139
1135.627, 60.62183
1136.109, 61.30957
1136.592, 33.08447
1137.074, 8.474365
1137.556, 6.642090
1138.038, 9.792236
1138.520, 3.380615
1139.002, 21.31787
1139.484, 28.66626
1139.966, 28.44507
1140.448, 28.52124
1140.931, 30.29590
1141.413, 30.26416
1141.895, 27.08960
1142.377, 23.01929
1142.859, 18.66016
1143.341, 14.15112
1143.823, 8.132324
1144.305, 1.773193
1144.787, 3.052002
1145.270, 16.03979
1145.752, 27.48462
1146.234, 29.23828
1146.716, 26.51929
1147.198, 21.79150
1147.680, 15.61719
1148.162, 17.79761
1148.644, 27.76514
1149.126, 28.72632
1149.609, 4.906494
1150.091, 16.16553
1150.573, 8.233887
1151.055, 12.84595
1151.537, 27.02563
1152.019, 32.58813
1152.501, 35.72241
1152.983, 36.22314
1153.466, 36.22290
1153.948, 38.08716
1154.430, 39.23340
1154.912, 35.85645
1155.394, 31.76636
1155.876, 31.01782
1156.358, 36.31787
1156.840, 34.72412
1157.323, 24.22070
1157.805, 14.12280
1158.287, 14.81445
1158.769, 20.93896
1159.251, 23.63550
1159.733, 23.70166
1160.215, 31.99438
1160.697, 61.76050
1161.179, 73.99292
1161.661, 56.13672
1162.144, 30.03296
1162.626, 32.47388
1163.108, 48.97339
1163.590, 50.19019
1164.072, 30.74609
1164.554, 16.73389
1165.036, 18.75830
1165.518, 21.16602
1166.001, 18.90259
1166.483, 13.71655
1166.965, 6.780029
1167.447, 0.5537110
1167.929, 3.003662
1168.411, 18.90479
1168.893, 33.94287
1169.375, 47.43555
1169.858, 53.80225
1170.340, 46.64844
1170.822, 30.54150
1171.304, 29.43506
1171.786, 39.65186
1172.268, 45.48096
1172.750, 38.13843
1173.232, 29.47241
1173.714, 21.42383
1174.197, 16.63062
1174.679, 20.35449
1175.161, 32.28979
1175.643, 26.94824
1176.125, 5.882080
1176.607, 8.060059
1177.089, 8.560303
1177.571, 24.07251
1178.053, 17.54224
1178.536, 3.808105
1179.018, 2.498291
1179.500, 13.74316
1179.982, 22.61499
1180.464, 28.16479
1180.946, 30.41528
1181.428, 25.02856
1181.910, 20.62646
1182.393, 23.29395
1182.875, 30.89331
1183.357, 39.83594
1183.839, 50.37231
1184.321, 53.62109
1184.803, 47.71338
1185.285, 40.76562
1185.767, 38.19043
1186.250, 38.50391
1186.732, 41.85156
1187.214, 47.40381
1187.696, 51.31104
1188.178, 53.71191
1188.660, 50.46069
1189.142, 38.82837
1189.624, 28.60742
1190.106, 30.74463
1190.589, 38.36353
1191.071, 48.06274
1191.553, 59.03857
1192.035, 52.74316
1192.517, 25.62964
1192.999, 10.52954
1193.481, 23.90332
1193.963, 41.99438
1194.445, 37.23975
1194.928, 22.70166
1195.410, 13.28638
1195.892, 11.07056
1196.374, 17.32007
1196.856, 34.05444
1197.338, 40.73926
1197.820, 18.19849
1198.302, 7.015869
1198.784, 2.786377
1199.267, 29.23438
1199.749, 41.72412
1200.231, 29.92163
1200.713, 26.02319
1201.195, 31.86108
1201.677, 36.21729
1202.159, 27.13989
1202.641, 15.96265
1203.124, 19.61450
1203.606, 31.59106
1204.088, 37.42725
1204.570, 32.09619
1205.052, 28.56274
1205.534, 27.71802
1206.016, 26.90576
1206.498, 21.40186
1206.980, 15.57837
1207.463, 15.74146
1207.945, 19.11890
1208.427, 20.25000
1208.909, 15.62476
1209.391, 16.81689
1209.873, 25.91724
1210.355, 36.44897
1210.837, 47.09180
1211.319, 52.25659
1211.802, 37.14062
1212.284, 5.979492
1212.766, 12.26611
1213.248, 14.60303
1213.730, 5.329590
1214.212, 18.26587
1214.694, 41.11670
1215.176, 41.47510
1215.659, 32.68726
1216.141, 34.28027
1216.623, 46.25391
1217.105, 46.07959
1217.587, 25.06982
1218.069, 15.31445
1218.551, 26.95825
1219.033, 46.85449
1219.516, 62.30762
1219.998, 71.32446
1220.480, 69.42041
1220.962, 55.27832
1221.444, 45.73267
1221.926, 42.50903
1222.408, 40.46362
1222.890, 36.50122
1223.372, 36.21826
1223.854, 50.52588
1224.337, 66.22974
1224.819, 60.42627
1225.301, 24.08936
1225.783, 6.912109
1226.265, 13.53979
1226.747, 23.78052
1227.229, 31.46851
1227.711, 35.51343
1228.194, 30.15454
1228.676, 22.18750
1229.158, 22.20215
1229.640, 35.00000
1230.122, 40.51074
1230.604, 37.84204
1231.086, 30.73413
1231.568, 19.55542
1232.051, 8.054688
1232.533, 3.145996
1233.015, 8.349609
1233.497, 1.765625
1233.979, 38.12012
1234.461, 56.76196
1234.943, 55.49268
1235.425, 48.98340
1235.907, 43.15967
1236.390, 38.96851
1236.872, 36.29053
1237.354, 39.02368
1237.836, 51.00562
1238.318, 57.74512
1238.800, 59.58325
1239.282, 41.68726
1239.764, 49.63306
1240.246, 47.32983
1240.729, 41.72827
1241.211, 48.81421
1241.693, 33.73364
1242.175, 44.81323
1242.657, 45.48340
1243.139, 50.81226
1243.621, 29.61914
1244.103, 27.19116
1244.586, 15.75244
1245.068, 9.350098
1245.550, 24.91113
1246.032, 50.41406
1246.514, 63.20044
1246.996, 62.09570
1247.478, 56.47290
1247.960, 48.06226
1248.442, 42.10425
1248.925, 45.98804
1249.407, 49.83911
1249.889, 43.88281
1250.371, 33.79175
1250.853, 25.86597
1251.335, 28.48633
1251.817, 38.29565
1252.299, 53.91333
1252.781, 62.87842
1253.264, 48.30908
1253.746, 34.37744
1254.228, 34.14233
1254.710, 41.97095
1255.192, 54.63794
1255.674, 69.65967
1256.156, 62.15088
1256.638, 30.55884
1257.120, 4.290283
1257.603, 6.205811
1258.085, 11.61938
1258.567, 11.30615
1259.049, 8.431152
1259.531, 7.503174
1260.013, 9.056885
1260.495, 15.85254
1260.977, 27.82080
1261.460, 34.25024
1261.942, 25.88843
1262.424, 15.59961
1262.906, 4.266846
1263.388, 3.047119
1263.870, 4.744385
1264.352, 21.77393
1264.834, 35.01587
1265.317, 42.68579
1265.799, 45.82715
1266.281, 37.33008
1266.763, 30.54761
1267.245, 16.36548
1267.727, 3.230957
1268.209, 0.0000000E+00
##END=



