##NAMES=Tomichite
##RRUFFID=R070708
##IDEAL CHEMISTRY=V^3+^_4_Ti^4+^_3_As^3+^O_13_(OH)
##LOCALITY=Hemlo Mines, Hemlo gold deposit, Marathon, Thunder Bay District, Ontario, Canada
##OWNER=RRUFF
##SOURCE=Michael Scott
##DESCRIPTION=Black bleb associated with titanite, sanidine and tetrahedrite; opaque under microscope
##STATUS=The identification of this mineral is not yet confirmed.
##URL=rruff.info/R070708
156.2019, 0.0000000E+00
156.6841, 30.63483
157.1662, 28.29163
157.6483, 11.90460
158.1304, 4.099731
158.6125, 37.64758
159.0946, 60.04297
159.5768, 51.98767
160.0589, 26.70428
160.5410, 7.120850
161.0231, 1.793152
161.5052, 1.261841
161.9873, 5.192078
162.4695, 30.19489
162.9516, 51.57672
163.4337, 56.07745
163.9158, 39.64697
164.3979, 26.61963
164.8800, 35.57428
165.3622, 54.15753
165.8443, 62.62024
166.3264, 19.06531
166.8085, 42.76031
167.2906, 56.27301
167.7727, 59.53644
168.2549, 23.31073
168.7370, 38.39648
169.2191, 32.79504
169.7012, 26.15906
170.1833, 48.13922
170.6654, 17.87842
171.1476, 39.62384
171.6297, 40.41534
172.1118, 50.94446
172.5939, 40.94186
173.0760, 37.32779
173.5581, 54.66071
174.0403, 60.13687
174.5224, 47.39963
175.0045, 58.15262
175.4866, 26.64615
175.9687, 32.36526
176.4508, 54.00513
176.9330, 42.09140
177.4151, 53.35330
177.8972, 55.62952
178.3793, 18.30328
178.8614, 50.78708
179.3435, 52.50052
179.8257, 23.45911
180.3078, 52.72147
180.7899, 28.01480
181.2720, 22.73285
181.7541, 31.64056
182.2362, 25.44681
182.7184, 43.54428
183.2005, 38.53680
183.6826, 31.35730
184.1647, 32.92422
184.6468, 9.032898
185.1289, 34.20502
185.6111, 28.70282
186.0932, 49.08679
186.5753, 62.58017
187.0574, 60.32187
187.5395, 41.59741
188.0216, 27.51785
188.5037, 25.14172
188.9859, 29.57999
189.4680, 28.57877
189.9501, 21.41827
190.4322, 14.15311
190.9143, 14.55551
191.3964, 21.89166
191.8786, 28.64682
192.3607, 32.07913
192.8428, 34.10403
193.3249, 38.04285
193.8070, 45.60812
194.2891, 52.30887
194.7713, 49.32556
195.2534, 35.89334
195.7355, 25.54648
196.2176, 27.11685
196.6997, 40.70901
197.1818, 44.91296
197.6640, 37.90244
198.1461, 27.14764
198.6282, 29.97321
199.1103, 48.64526
199.5924, 62.13873
200.0745, 53.27899
200.5567, 20.03156
201.0388, 3.505402
201.5209, 11.17261
202.0030, 33.47803
202.4851, 44.35410
202.9672, 41.67932
203.4494, 35.35495
203.9315, 32.14261
204.4136, 32.43436
204.8957, 31.22580
205.3778, 26.02505
205.8599, 18.88443
206.3421, 21.35944
206.8242, 38.17474
207.3063, 54.15482
207.7884, 53.40302
208.2705, 30.86090
208.7526, 13.38681
209.2348, 7.179871
209.7169, 11.70554
210.1990, 15.30920
210.6811, 17.30734
211.1632, 19.16177
211.6453, 24.35574
212.1275, 36.15057
212.6096, 40.69330
213.0917, 31.14651
213.5738, 5.603027
214.0559, 9.329254
214.5380, 12.20837
215.0202, 7.684601
215.5023, 1.603394
215.9844, 8.276276
216.4665, 14.34702
216.9486, 11.40695
217.4307, 5.012878
217.9129, 10.25360
218.3950, 0.4340210
218.8771, 19.19397
219.3592, 29.91077
219.8413, 29.22198
220.3234, 27.18152
220.8056, 29.13434
221.2877, 39.17725
221.7698, 40.92114
222.2519, 28.74625
222.7340, 9.056213
223.2161, 5.077576
223.6983, 27.90103
224.1804, 50.09903
224.6625, 54.16373
225.1446, 28.63815
225.6267, 12.41739
226.1088, 11.04321
226.5910, 21.94589
227.0731, 29.68674
227.5552, 35.05225
228.0373, 36.15707
228.5194, 29.46808
229.0015, 6.731598
229.4836, 4.699402
229.9658, 3.910187
230.4479, 30.99594
230.9300, 43.81046
231.4121, 35.81247
231.8942, 20.75009
232.3763, 10.25601
232.8585, 5.182587
233.3406, 3.235229
233.8227, 4.796844
234.3048, 10.05701
234.7869, 15.24561
235.2690, 22.25970
235.7512, 27.62271
236.2333, 26.56454
236.7154, 5.509552
237.1975, 19.00125
237.6796, 33.42615
238.1617, 37.62479
238.6439, 1.993469
239.1260, 17.55536
239.6081, 12.62497
240.0902, 6.823730
240.5723, 29.62918
241.0544, 0.2298580
241.5366, 22.10385
242.0187, 23.60123
242.5008, 34.52176
242.9829, 24.88983
243.4650, 21.58514
243.9471, 38.97134
244.4293, 44.91431
244.9114, 32.86600
245.3935, 44.45081
245.8756, 13.75021
246.3577, 20.09778
246.8398, 42.45227
247.3220, 31.38474
247.8041, 43.27585
248.2862, 46.36063
248.7683, 33.08185
249.2504, 35.68814
249.7325, 29.83017
250.2147, 25.72632
250.6968, 24.47290
251.1789, 5.743561
251.6610, 28.99878
252.1431, 41.77298
252.6252, 44.60120
253.1074, 7.750824
253.5895, 22.07568
254.0716, 15.87921
254.5537, 8.880402
255.0358, 30.45734
255.5179, 0.6297610
256.0001, 20.44180
256.4822, 20.68185
256.9643, 30.49194
257.4464, 19.64670
257.9285, 15.17905
258.4106, 31.29688
258.8928, 28.43927
259.3749, 34.52161
259.8570, 28.15457
260.3391, 18.92563
260.8212, 13.51596
261.3033, 13.11856
261.7855, 12.94363
262.2676, 12.74911
262.7497, 13.04202
263.2318, 12.35773
263.7139, 8.181671
264.1960, 5.045563
264.6782, 6.770569
265.1603, 16.04321
265.6424, 21.46542
266.1245, 20.00491
266.6066, 12.75598
267.0887, 9.306458
267.5709, 10.89871
268.0530, 14.32452
268.5351, 16.26080
269.0172, 15.46036
269.4993, 18.35849
269.9814, 28.73743
270.4636, 45.12225
270.9457, 49.53281
271.4278, 37.44806
271.9099, 21.70749
272.3920, 17.55270
272.8741, 28.70450
273.3563, 36.68329
273.8384, 36.30499
274.3205, 28.30267
274.8026, 22.30942
275.2847, 17.92230
275.7668, 15.03003
276.2490, 14.77322
276.7311, 16.93570
277.2132, 19.59540
277.6953, 23.55472
278.1774, 28.14325
278.6595, 24.56824
279.1417, 9.954803
279.6238, 4.826904
280.1059, 5.310059
280.5880, 9.942657
281.0701, 21.23935
281.5522, 19.76981
282.0344, 8.434906
282.5165, 10.60565
282.9986, 29.68958
283.4807, 50.32880
283.9628, 52.67285
284.4449, 36.53812
284.9271, 22.30334
285.4092, 14.95032
285.8913, 14.21686
286.3734, 16.75952
286.8555, 23.33212
287.3376, 29.01367
287.8198, 27.23032
288.3019, 18.30371
288.7840, 12.63174
289.2661, 14.92346
289.7482, 23.49350
290.2303, 32.95450
290.7124, 43.64120
291.1945, 52.80853
291.6767, 57.68256
292.1588, 58.37497
292.6409, 55.45746
293.1230, 48.22430
293.6051, 37.58737
294.0872, 23.84576
294.5694, 5.302216
295.0515, 7.786377
295.5336, 1.933868
296.0157, 18.80859
296.4978, 36.74133
296.9799, 43.45822
297.4621, 43.15994
297.9442, 45.24509
298.4263, 50.07938
298.9084, 54.34955
299.3905, 55.17969
299.8727, 53.22064
300.3548, 50.93152
300.8369, 48.78235
301.3190, 47.09674
301.8011, 47.26941
302.2832, 49.45282
302.7654, 50.34860
303.2475, 46.64322
303.7296, 39.38153
304.2117, 30.93112
304.6938, 16.04156
305.1759, 3.484039
305.6581, 7.973022
306.1402, 30.28061
306.6223, 50.91269
307.1044, 53.74442
307.5865, 44.57245
308.0686, 33.17206
308.5508, 18.67203
309.0329, 6.516388
309.5150, 2.352753
309.9971, 6.165070
310.4792, 13.42996
310.9613, 27.28195
311.4435, 41.45480
311.9256, 46.92102
312.4077, 29.33710
312.8898, 10.22333
313.3719, 5.494720
313.8540, 16.14105
314.3362, 25.04309
314.8183, 21.05441
315.3004, 11.45572
315.7825, 4.599640
316.2646, 6.731293
316.7467, 9.397552
317.2289, 8.081604
317.7110, 2.685883
318.1931, 1.813324
318.6752, 2.430664
319.1573, 1.691589
319.6394, 2.013123
320.1216, 13.23740
320.6037, 16.85037
321.0858, 0.4309390
321.5679, 35.46396
322.0500, 60.61609
322.5321, 62.91589
323.0143, 54.24106
323.4964, 44.01862
323.9785, 25.83368
324.4606, 14.48468
324.9427, 17.59152
325.4248, 34.59070
325.9070, 43.82806
326.3891, 37.31436
326.8712, 25.73788
327.3533, 16.42804
327.8354, 3.595306
328.3175, 4.0344000E-02
328.7997, 12.74570
329.2818, 40.11353
329.7639, 57.09833
330.2460, 55.34955
330.7281, 50.05573
331.2102, 51.21609
331.6924, 68.26788
332.1745, 76.79111
332.6566, 71.58737
333.1387, 55.09320
333.6208, 43.13046
334.1029, 38.08044
334.5851, 34.85071
335.0672, 30.13382
335.5493, 22.41003
336.0314, 17.10724
336.5135, 14.87411
336.9956, 15.30606
337.4778, 17.18149
337.9599, 22.08289
338.4420, 26.30283
338.9241, 26.27090
339.4062, 20.66058
339.8883, 18.32379
340.3705, 22.25278
340.8526, 28.44165
341.3347, 22.57022
341.8168, 0.6330570
342.2989, 12.11203
342.7810, 8.463165
343.2632, 62.53116
343.7453, 88.46088
344.2274, 76.37289
344.7095, 45.22885
345.1916, 27.91220
345.6737, 24.71722
346.1559, 25.88657
346.6380, 28.33356
347.1201, 31.27213
347.6022, 30.61041
348.0843, 25.51395
348.5664, 18.67252
349.0486, 11.40356
349.5307, 4.518890
350.0128, 2.787903
350.4949, 13.18271
350.9770, 29.52377
351.4591, 39.02997
351.9413, 40.74512
352.4234, 38.43491
352.9055, 33.86288
353.3876, 28.45795
353.8697, 23.76974
354.3518, 18.68121
354.8340, 15.37128
355.3161, 17.45712
355.7982, 25.26474
356.2803, 33.33188
356.7624, 39.27881
357.2445, 42.57391
357.7267, 42.24609
358.2088, 32.16513
358.6909, 22.69543
359.1730, 23.04303
359.6551, 32.98975
360.1372, 40.62717
360.6194, 37.29034
361.1015, 29.48914
361.5836, 23.80939
362.0657, 23.78577
362.5478, 24.90796
363.0299, 25.20505
363.5121, 24.92126
363.9942, 26.15799
364.4763, 31.64465
364.9584, 37.66296
365.4405, 41.64349
365.9226, 46.26752
366.4048, 45.29849
366.8869, 32.04346
367.3690, 10.35352
367.8511, 0.4240720
368.3332, 9.284821
368.8153, 24.49310
369.2975, 38.36975
369.7796, 56.97586
370.2617, 65.50308
370.7438, 59.45517
371.2259, 43.55991
371.7080, 30.26404
372.1902, 16.54697
372.6722, 9.527283
373.1544, 14.09070
373.6365, 38.45880
374.1186, 51.59164
374.6007, 50.15402
375.0828, 40.18301
375.5649, 31.62729
376.0471, 22.81760
376.5292, 19.85550
377.0113, 28.46069
377.4934, 50.09439
377.9755, 57.53986
378.4576, 47.54193
378.9398, 32.94424
379.4219, 30.26709
379.9040, 40.48947
380.3861, 46.04950
380.8682, 38.91507
381.3503, 21.36783
381.8325, 9.398346
382.3146, 3.167328
382.7967, 2.801025
383.2788, 13.89185
383.7609, 32.85458
384.2430, 43.21170
384.7252, 35.38849
385.2073, 19.61078
385.6894, 14.44791
386.1715, 19.22025
386.6536, 26.67130
387.1357, 34.01437
387.6179, 39.75528
388.1000, 40.66354
388.5821, 33.91962
389.0642, 25.42786
389.5463, 19.84564
390.0284, 17.08942
390.5106, 17.02045
390.9927, 23.67041
391.4748, 30.78424
391.9569, 31.11023
392.4390, 18.95282
392.9211, 11.30820
393.4033, 24.26361
393.8854, 47.77722
394.3675, 61.93585
394.8496, 52.04016
395.3317, 37.14233
395.8138, 26.13000
396.2960, 21.09595
396.7781, 15.91537
397.2602, 3.595734
397.7423, 8.208282
398.2244, 10.10477
398.7065, 15.24792
399.1887, 34.40610
399.6708, 36.08652
400.1529, 17.04669
400.6350, 7.328003
401.1171, 11.75818
401.5992, 21.06668
402.0814, 27.67139
402.5635, 31.25497
403.0456, 32.68689
403.5277, 31.10385
404.0098, 27.16043
404.4919, 25.66895
404.9741, 27.08676
405.4562, 29.49789
405.9383, 32.67715
406.4204, 37.29346
406.9025, 38.56610
407.3846, 35.16159
407.8668, 29.05887
408.3489, 24.91251
408.8310, 22.86133
409.3131, 21.21683
409.7952, 18.31277
410.2773, 14.69031
410.7595, 14.76102
411.2416, 19.66461
411.7237, 24.83569
412.2058, 22.63776
412.6879, 14.76086
413.1700, 8.812103
413.6522, 8.402039
414.1343, 12.10263
414.6164, 19.18335
415.0985, 30.18207
415.5806, 40.08383
416.0627, 44.01617
416.5449, 44.00952
417.0270, 43.31885
417.5091, 43.83023
417.9912, 43.34686
418.4733, 39.55521
418.9554, 33.01108
419.4376, 26.87286
419.9197, 21.62628
420.4018, 18.07962
420.8839, 17.33624
421.3660, 24.13846
421.8481, 27.06760
422.3303, 18.32437
422.8124, 2.805054
423.2945, 5.978241
423.7766, 0.2846680
424.2587, 8.833221
424.7408, 15.04855
425.2230, 18.83688
425.7051, 19.52686
426.1872, 14.10681
426.6693, 6.865601
427.1514, 4.088013
427.6335, 9.749451
428.1157, 13.54251
428.5978, 11.54434
429.0799, 3.424896
429.5620, 0.7843630
430.0441, 5.577911
430.5262, 12.63098
431.0084, 16.11041
431.4905, 14.79022
431.9726, 19.28674
432.4547, 35.47635
432.9368, 56.62964
433.4189, 58.68085
433.9011, 40.40671
434.3832, 20.06989
434.8653, 9.254303
435.3474, 6.802124
435.8295, 8.740417
436.3116, 16.42047
436.7938, 23.30704
437.2759, 15.85068
437.7580, 1.410370
438.2401, 11.82108
438.7222, 1.929352
439.2043, 23.71674
439.6865, 31.87827
440.1686, 24.71793
440.6507, 15.75360
441.1328, 12.11356
441.6149, 13.18564
442.0970, 18.05927
442.5792, 34.70044
443.0613, 47.66199
443.5434, 45.96109
444.0255, 31.32050
444.5076, 20.64594
444.9897, 24.60834
445.4719, 30.93445
445.9540, 32.22626
446.4361, 18.74814
446.9182, 11.74847
447.4003, 19.42715
447.8824, 35.20929
448.3646, 40.85040
448.8467, 27.25995
449.3288, 14.21780
449.8109, 7.163300
450.2930, 6.453369
450.7751, 13.13303
451.2573, 33.43591
451.7394, 54.29504
452.2215, 56.46457
452.7036, 35.24707
453.1857, 15.51755
453.6678, 2.975006
454.1500, 2.661987
454.6321, 0.3929750
455.1142, 13.42352
455.5963, 25.99216
456.0784, 28.62289
456.5605, 23.50269
457.0426, 18.80701
457.5247, 15.64062
458.0069, 13.61313
458.4890, 12.01544
458.9711, 10.87082
459.4532, 10.46906
459.9353, 12.97086
460.4174, 15.40485
460.8996, 13.02994
461.3817, 4.585876
461.8638, 2.643250
462.3459, 3.673492
462.8280, 0.2650150
463.3102, 5.022766
463.7923, 16.25214
464.2744, 24.01395
464.7565, 21.51541
465.2386, 9.848694
465.7207, 2.470734
466.2029, 6.054047
466.6850, 12.93976
467.1671, 18.39819
467.6492, 19.86346
468.1313, 22.50272
468.6134, 28.03189
469.0956, 34.73999
469.5777, 38.21896
470.0598, 38.73297
470.5419, 35.59933
471.0240, 27.26688
471.5061, 12.51941
471.9883, 1.630341
472.4704, 5.776703
472.9525, 8.494019
473.4346, 2.211914
473.9167, 13.90091
474.3988, 24.91208
474.8810, 25.51617
475.3631, 18.98428
475.8452, 13.81943
476.3273, 10.08246
476.8094, 7.258911
477.2915, 4.349030
477.7737, 2.204071
478.2558, 3.080048
478.7379, 7.985962
479.2200, 13.93872
479.7021, 19.22986
480.1842, 23.38742
480.6664, 25.29572
481.1485, 22.24161
481.6306, 18.46744
482.1127, 16.12106
482.5948, 15.40268
483.0769, 15.42151
483.5591, 17.86807
484.0412, 19.88214
484.5233, 18.91345
485.0054, 7.738861
485.4875, 1.083130
485.9696, 2.733215
486.4518, 11.34244
486.9339, 20.08655
487.4160, 30.93317
487.8981, 39.58765
488.3802, 44.44266
488.8623, 45.48697
489.3445, 41.92792
489.8266, 31.09030
490.3087, 18.86356
490.7908, 14.76651
491.2729, 19.99667
491.7550, 24.52176
492.2372, 25.60474
492.7193, 23.74524
493.2014, 20.37875
493.6835, 15.37885
494.1656, 10.72910
494.6477, 8.618652
495.1299, 8.064392
495.6120, 5.475983
496.0941, 2.042358
496.5762, 6.778839
497.0583, 0.8021550
497.5404, 16.20306
498.0226, 27.82553
498.5047, 28.74780
498.9868, 24.69492
499.4689, 19.41870
499.9510, 13.18350
500.4331, 8.492188
500.9153, 6.539764
501.3974, 6.804718
501.8795, 8.820862
502.3616, 2.797363
502.8437, 21.23517
503.3258, 34.77377
503.8080, 38.38205
504.2901, 2.323059
504.7722, 17.48184
505.2543, 12.11246
505.7364, 5.994690
506.2185, 28.35748
506.7007, 1.941315
507.1828, 19.96240
507.6649, 21.02460
508.1470, 31.62311
508.6291, 21.56638
509.1112, 17.88730
509.5934, 34.86673
510.0755, 40.40494
510.5576, 28.05878
511.0397, 39.26242
511.5218, 8.213562
512.0039, 14.04889
512.4860, 36.03403
512.9681, 24.62363
513.4503, 36.18939
513.9324, 39.00455
514.4145, 2.049835
514.8966, 34.36340
515.3787, 36.65564
515.8608, 8.235260
516.3430, 38.06430
516.8251, 13.87421
517.3072, 8.963470
517.7893, 14.81937
518.2714, 12.19788
518.7535, 9.563629
519.2357, 6.599426
519.7178, 1.466370
520.1999, 1.945801
520.6820, 4.231415
521.1641, 4.369873
521.6462, 0.6856690
522.1284, 13.87415
522.6105, 26.04147
523.0926, 35.41888
523.5747, 41.78412
524.0568, 39.14990
524.5389, 24.59564
525.0211, 11.17084
525.5032, 15.02075
525.9853, 32.89191
526.4674, 41.95239
526.9495, 35.05905
527.4316, 22.95218
527.9138, 22.76370
528.3959, 31.43585
528.8780, 37.51413
529.3601, 33.05096
529.8422, 24.05115
530.3243, 14.94016
530.8065, 6.181946
531.2886, 7.7510001E-03
531.7707, 2.553406
532.2528, 2.735992
532.7349, 1.615295
533.2170, 0.8996580
533.6992, 4.318939
534.1813, 10.07071
534.6634, 16.89346
535.1455, 20.41595
535.6276, 18.98895
536.1097, 16.14578
536.5919, 12.26486
537.0740, 6.664276
537.5561, 5.210175
538.0382, 9.015167
538.5203, 14.97363
539.0024, 20.32648
539.4846, 25.05884
539.9667, 29.30475
540.4488, 33.92239
540.9309, 37.02719
541.4130, 32.23358
541.8951, 20.62924
542.3773, 12.04327
542.8594, 14.67715
543.3415, 22.96768
543.8236, 11.05429
544.3057, 34.30811
544.7878, 47.07211
545.2700, 49.90637
545.7521, 13.07449
546.2342, 27.47275
546.7163, 21.72498
547.1984, 15.37552
547.6805, 37.22510
548.1627, 6.154602
548.6448, 27.28918
549.1269, 27.58203
549.6090, 37.41132
550.0911, 26.58548
550.5732, 22.83810
551.0554, 39.04834
551.5375, 43.81747
552.0196, 30.59863
552.5017, 41.30997
552.9838, 9.484344
553.4659, 14.70300
553.9481, 35.72763
554.4302, 22.97894
554.9123, 34.14917
555.3944, 36.20221
555.8765, 1.514679
556.3586, 29.92538
556.8408, 31.45377
557.3229, 2.269836
557.8050, 23.42606
558.2871, 34.09183
558.7692, 12.03305
559.2513, 35.02209
559.7335, 47.52563
560.2156, 49.76996
560.6977, 12.69684
561.1798, 26.84250
561.6619, 20.45990
562.1440, 13.13977
562.6262, 34.52841
563.1083, 3.209595
563.5904, 24.06284
564.0725, 24.11478
564.5546, 33.39694
565.0367, 22.33057
565.5189, 17.64157
566.0010, 33.61176
566.4831, 38.14069
566.9652, 24.69101
567.4473, 34.87735
567.9294, 2.829865
568.4116, 7.839508
568.8937, 22.48749
569.3758, 12.86154
569.8579, 9.644836
570.3400, 27.09003
570.8221, 33.09390
571.3043, 21.11951
571.7864, 32.78091
572.2685, 2.095367
572.7506, 8.580353
573.2327, 31.05344
573.7148, 20.08261
574.1970, 32.11423
574.6791, 35.39078
575.1612, 1.122894
575.6433, 31.54440
576.1254, 34.28970
576.6075, 6.311462
577.0897, 36.55951
577.5718, 12.69522
578.0539, 7.933441
578.5360, 17.53757
579.0181, 12.00516
579.5002, 30.62872
579.9824, 26.43668
580.4645, 20.19302
580.9466, 22.90628
581.4287, 0.2343140
581.9108, 24.65289
582.3929, 16.90173
582.8751, 20.27600
583.3572, 11.27032
583.8393, 1.097900
584.3214, 1.582245
584.8035, 10.61655
585.2856, 18.37198
585.7678, 17.94724
586.2499, 15.18887
586.7320, 14.68256
587.2141, 17.78345
587.6962, 19.65256
588.1783, 17.28339
588.6605, 13.87595
589.1426, 12.81094
589.6247, 17.45633
590.1068, 19.44684
590.5889, 16.89117
591.0710, 11.58310
591.5532, 8.005005
592.0353, 5.602203
592.5174, 6.964294
592.9995, 16.13333
593.4816, 31.16965
593.9637, 36.43570
594.4459, 31.20944
594.9280, 24.01697
595.4101, 21.71780
595.8922, 23.34390
596.3743, 27.58649
596.8564, 35.64746
597.3386, 42.53879
597.8207, 43.88776
598.3028, 41.21072
598.7849, 37.28424
599.2670, 30.39099
599.7491, 25.07523
600.2313, 23.91776
600.7134, 26.78491
601.1955, 28.60034
601.6776, 30.39481
602.1597, 29.65591
602.6418, 24.48416
603.1240, 12.81726
603.6061, 3.385406
604.0882, 4.481171
604.5703, 8.349060
605.0524, 2.367401
605.5345, 13.13745
606.0167, 23.88004
606.4988, 25.55133
606.9809, 21.61652
607.4630, 16.01834
607.9451, 9.568359
608.4272, 14.67062
608.9094, 28.41681
609.3915, 32.54532
609.8736, 2.944550
610.3557, 12.77707
610.8378, 7.867218
611.3199, 1.999512
611.8021, 24.59393
612.2842, 5.488556
612.7663, 16.63159
613.2484, 17.91110
613.7305, 28.41156
614.2126, 18.57443
614.6948, 15.11612
615.1769, 32.56235
615.6590, 38.73013
616.1411, 26.63739
616.6232, 38.05774
617.1053, 7.245239
617.5875, 13.49197
618.0696, 35.72919
618.5517, 24.55045
619.0338, 36.34769
619.5159, 39.39383
619.9980, 2.671448
620.4802, 35.10962
620.9623, 37.54242
621.4444, 9.358948
621.9265, 39.42639
622.4086, 15.47736
622.8907, 10.80881
623.3729, 20.65030
623.8550, 15.36484
624.3371, 33.92758
624.8192, 29.51511
625.3013, 23.04965
625.7834, 25.44733
626.2656, 2.546631
626.7477, 27.25830
627.2298, 20.60892
627.7119, 29.03003
628.1940, 40.67560
628.6761, 24.56882
629.1583, 37.84235
629.6404, 5.553131
630.1225, 11.27808
630.6046, 13.00723
631.0867, 39.10391
631.5688, 7.036377
632.0510, 11.81100
632.5331, 44.27124
633.0152, 40.28009
633.4973, 22.63861
633.9794, 13.24576
634.4615, 32.75946
634.9437, 49.21259
635.4258, 46.69196
635.9079, 21.59628
636.3900, 7.285767
636.8721, 7.347900
637.3542, 13.37674
637.8364, 21.39807
638.3185, 32.43771
638.8006, 36.65826
639.2827, 31.19815
639.7648, 24.53027
640.2469, 31.60022
640.7291, 48.70709
641.2112, 56.47473
641.6933, 42.39398
642.1754, 24.04996
642.6575, 24.94946
643.1396, 39.23828
643.6218, 48.31882
644.1039, 37.54056
644.5860, 23.76984
645.0681, 15.95435
645.5502, 15.15863
646.0323, 16.28479
646.5145, 18.57446
646.9966, 22.67960
647.4787, 30.45435
647.9608, 47.19150
648.4429, 50.68710
648.9250, 35.50748
649.4072, 15.04056
649.8893, 8.839996
650.3714, 16.24594
650.8535, 22.50333
651.3356, 22.96906
651.8177, 21.40689
652.2999, 25.31360
652.7820, 32.92993
653.2641, 37.38239
653.7462, 32.81519
654.2283, 25.49365
654.7104, 18.30386
655.1926, 11.58600
655.6747, 9.293518
656.1568, 18.16959
656.6389, 27.82388
657.1210, 31.37271
657.6031, 25.94080
658.0853, 21.72711
658.5674, 19.68817
659.0495, 17.73825
659.5316, 11.33777
660.0137, 0.5754700
660.4958, 3.002747
660.9779, 10.85638
661.4600, 29.55530
661.9421, 29.23343
662.4243, 14.43442
662.9064, 4.533630
663.3885, 14.61823
663.8706, 29.44571
664.3527, 36.52051
664.8348, 35.85883
665.3170, 30.73230
665.7991, 16.24625
666.2812, 2.637695
666.7633, 5.638611
667.2454, 6.564240
667.7275, 6.615906
668.2097, 4.933929
668.6918, 2.319885
669.1739, 0.3041690
669.6560, 2.609131
670.1381, 8.598541
670.6202, 22.45929
671.1024, 35.42569
671.5845, 29.43521
672.0666, 8.328552
672.5487, 7.659882
673.0308, 8.339966
673.5129, 2.626709
673.9951, 1.481293
674.4772, 4.162048
674.9593, 6.281342
675.4414, 8.270782
675.9235, 9.765503
676.4056, 10.56461
676.8878, 10.63046
677.3699, 10.09662
677.8520, 7.889954
678.3341, 6.258453
678.8162, 6.846558
679.2983, 10.27045
679.7805, 12.97934
680.2626, 14.85803
680.7447, 15.91122
681.2268, 15.24887
681.7089, 13.48895
682.1910, 14.43698
682.6732, 22.39832
683.1553, 27.81033
683.6374, 13.47345
684.1195, 11.59360
684.6016, 26.03415
685.0837, 9.482361
685.5659, 9.334259
686.0480, 16.04916
686.5301, 11.26080
687.0122, 11.66299
687.4943, 24.54581
687.9764, 34.98834
688.4586, 35.82291
688.9407, 26.08011
689.4228, 16.71475
689.9049, 6.880554
690.3870, 0.2426150
690.8691, 3.533020
691.3513, 13.53802
691.8334, 15.43213
692.3155, 4.590424
692.7976, 4.539185
693.2797, 8.370239
693.7618, 30.70990
694.2440, 42.50568
694.7261, 23.83817
695.2082, 7.354218
695.6903, 4.572296
696.1724, 12.31183
696.6545, 22.27246
697.1367, 41.15933
697.6188, 50.94574
698.1009, 43.02414
698.5830, 20.73459
699.0651, 11.06216
699.5472, 15.44550
700.0294, 22.66449
700.5115, 26.53497
700.9936, 27.80264
701.4757, 28.52325
701.9578, 28.79953
702.4399, 27.84634
702.9221, 25.16800
703.4042, 20.89536
703.8863, 13.97980
704.3684, 0.1092830
704.8505, 6.450745
705.3326, 5.980682
705.8148, 24.49539
706.2969, 33.04016
706.7790, 25.92334
707.2611, 19.68555
707.7432, 15.32300
708.2253, 13.73346
708.7075, 18.92935
709.1896, 30.88434
709.6717, 40.03259
710.1538, 41.55618
710.6359, 38.83511
711.1180, 37.02765
711.6002, 36.08270
712.0823, 35.86841
712.5644, 36.51312
713.0465, 37.70459
713.5286, 40.02823
714.0107, 43.72833
714.4929, 44.75082
714.9750, 40.02890
715.4571, 34.27234
715.9392, 29.59625
716.4213, 25.83252
716.9034, 23.90503
717.3856, 24.16690
717.8677, 25.26389
718.3498, 26.00320
718.8319, 26.76935
719.3140, 27.05804
719.7961, 26.14661
720.2783, 26.80017
720.7604, 36.29929
721.2425, 48.84430
721.7246, 53.82498
722.2067, 35.45584
722.6888, 21.44812
723.1710, 27.24039
723.6531, 45.88452
724.1352, 54.34259
724.6173, 45.50705
725.0994, 35.55801
725.5815, 27.82123
726.0637, 22.54004
726.5458, 21.53403
727.0279, 24.92175
727.5100, 31.03503
727.9921, 42.36124
728.4742, 54.96103
728.9564, 59.19324
729.4385, 54.90152
729.9206, 48.57941
730.4027, 41.92972
730.8848, 36.81842
731.3669, 35.33069
731.8491, 38.84863
732.3312, 41.81876
732.8133, 41.72559
733.2954, 41.69730
733.7775, 45.07739
734.2596, 54.31821
734.7418, 58.06195
735.2239, 53.75482
735.7060, 46.69415
736.1881, 45.89484
736.6702, 50.18069
737.1523, 52.79657
737.6345, 50.95773
738.1166, 47.65405
738.5987, 47.05194
739.0808, 47.45837
739.5629, 44.86969
740.0450, 31.36755
740.5272, 20.92548
741.0093, 21.14645
741.4914, 30.66031
741.9735, 35.93109
742.4556, 37.22455
742.9377, 34.43005
743.4199, 22.67111
743.9020, 3.597107
744.3841, 1.864594
744.8662, 18.49551
745.3483, 34.93564
745.8304, 33.08691
746.3126, 22.99893
746.7947, 21.99982
747.2768, 32.14026
747.7589, 41.10736
748.2410, 39.84622
748.7231, 35.56262
749.2053, 34.58456
749.6874, 41.63657
750.1695, 43.85095
750.6516, 36.59085
751.1337, 28.45956
751.6158, 29.78970
752.0980, 42.39352
752.5801, 49.38602
753.0622, 47.42950
753.5443, 41.45096
754.0264, 38.23422
754.5085, 37.06683
754.9907, 35.81918
755.4728, 32.99890
755.9549, 30.78320
756.4370, 30.30170
756.9191, 31.60959
757.4012, 34.84528
757.8834, 42.69174
758.3655, 49.52328
758.8476, 54.32654
759.3297, 57.14035
759.8118, 58.19037
760.2939, 57.81204
760.7761, 54.13962
761.2582, 42.87546
761.7403, 28.34094
762.2224, 28.68307
762.7045, 42.09656
763.1866, 51.91025
763.6688, 40.23401
764.1509, 23.42618
764.6330, 16.91150
765.1151, 22.53162
765.5972, 28.84814
766.0793, 31.27399
766.5615, 34.54498
767.0436, 42.80307
767.5257, 59.97040
768.0078, 65.17960
768.4899, 54.47900
768.9720, 41.40323
769.4542, 40.49219
769.9363, 49.08334
770.4184, 53.76718
770.9005, 52.05658
771.3826, 49.79639
771.8647, 56.32907
772.3469, 64.49622
772.8290, 63.55667
773.3111, 38.33261
773.7932, 22.82184
774.2753, 32.37411
774.7574, 54.41672
775.2396, 71.33017
775.7217, 84.25687
776.2038, 88.15714
776.6859, 79.48108
777.1680, 64.61880
777.6501, 56.67511
778.1323, 54.57724
778.6144, 55.47299
779.0965, 60.70090
779.5786, 66.50415
780.0607, 69.16083
780.5428, 69.12939
781.0250, 68.50305
781.5071, 63.39182
781.9892, 59.67026
782.4713, 61.76492
782.9534, 68.27521
783.4355, 71.90186
783.9177, 70.36230
784.3998, 67.45700
784.8819, 64.18228
785.3640, 60.87311
785.8461, 60.13425
786.3282, 61.76736
786.8104, 61.74615
787.2925, 52.72095
787.7746, 43.43094
788.2567, 44.76080
788.7388, 57.52853
789.2209, 67.82916
789.7031, 67.23755
790.1852, 65.66110
790.6673, 70.75284
791.1494, 85.74619
791.6315, 90.44373
792.1136, 82.84457
792.5958, 69.89023
793.0779, 53.41562
793.5600, 35.70511
794.0421, 31.29721
794.5242, 42.72159
795.0063, 56.20721
795.4885, 60.89285
795.9706, 60.00034
796.4527, 56.81241
796.9348, 51.23743
797.4169, 45.85306
797.8990, 35.24429
798.3812, 27.10007
798.8633, 30.15765
799.3454, 47.83823
799.8275, 61.44949
800.3096, 69.53168
800.7917, 72.52084
801.2739, 71.62833
801.7560, 67.20761
802.2381, 63.57770
802.7202, 62.79526
803.2023, 61.76425
803.6844, 57.04825
804.1666, 50.68335
804.6487, 45.90167
805.1308, 45.07642
805.6129, 44.19714
806.0950, 41.87524
806.5771, 39.50400
807.0593, 39.21439
807.5414, 40.67374
808.0235, 46.56720
808.5056, 60.81879
808.9877, 75.82706
809.4698, 74.44873
809.9520, 60.29213
810.4341, 45.79477
810.9162, 32.60141
811.3983, 25.39647
811.8804, 32.47969
812.3625, 48.92195
812.8447, 55.04776
813.3268, 37.30225
813.8089, 23.01305
814.2910, 19.86606
814.7731, 25.67325
815.2552, 30.13411
815.7374, 33.09427
816.2195, 34.22916
816.7016, 31.82242
817.1837, 28.17697
817.6658, 29.10017
818.1479, 33.17986
818.6301, 32.76651
819.1122, 16.53307
819.5943, 1.775330
820.0764, 1.281509
820.5585, 8.504807
821.0406, 13.09424
821.5228, 8.635376
822.0049, 6.870911
822.4870, 15.38815
822.9691, 31.75116
823.4512, 35.69279
823.9333, 27.38353
824.4155, 18.81172
824.8976, 21.22408
825.3796, 26.53497
825.8618, 24.00108
826.3439, 12.89414
826.8260, 4.949371
827.3081, 5.653427
827.7902, 9.727264
828.2723, 14.92702
828.7545, 21.77017
829.2366, 24.80763
829.7187, 22.98540
830.2008, 20.82520
830.6829, 23.61093
831.1650, 28.81096
831.6472, 26.65981
832.1293, 16.47856
832.6114, 8.319336
833.0935, 14.60854
833.5756, 22.86258
834.0577, 20.72432
834.5399, 1.734314
835.0220, 8.801285
835.5041, 6.379395
835.9862, 1.606979
836.4683, 13.26590
836.9504, 29.82256
837.4326, 28.81923
837.9147, 6.813324
838.3968, 14.60367
838.8789, 8.439651
839.3610, 10.26810
839.8431, 15.28615
840.3253, 0.7173770
840.8074, 12.51572
841.2895, 2.985870
841.7716, 12.68768
842.2537, 21.80205
842.7358, 2.722122
843.2180, 26.04659
843.7001, 38.87810
844.1822, 41.77965
844.6643, 5.014328
845.1464, 19.46808
845.6285, 13.39415
846.1107, 6.476944
846.5928, 28.14273
847.0749, 2.166458
847.5570, 19.42406
848.0391, 19.78490
848.5212, 29.68262
849.0034, 18.92506
849.4855, 14.54578
849.9676, 30.82526
850.4497, 35.66367
850.9318, 22.52388
851.4139, 33.02011
851.8961, 1.282013
852.3782, 6.602280
852.8603, 27.91049
853.3424, 15.80203
853.8245, 26.66879
854.3066, 28.78336
854.7888, 8.866013
855.2709, 22.68556
855.7530, 24.30721
856.2351, 4.818466
856.7172, 24.30179
857.1993, 0.5968480
857.6815, 6.218216
858.1636, 2.664734
858.6457, 3.580872
859.1278, 14.01694
859.6099, 8.638153
860.0920, 2.240417
860.5742, 2.098770
861.0563, 0.1260380
861.5384, 3.368271
862.0205, 7.511093
862.5026, 15.68239
862.9847, 18.38008
863.4669, 10.49139
863.9490, 1.334473
864.4311, 1.853241
864.9132, 13.02069
865.3953, 16.65157
865.8774, 9.403503
866.3596, 0.8934480
866.8417, 4.117599
867.3238, 12.72591
867.8059, 15.36647
868.2880, 6.421326
868.7701, 0.5989840
869.2523, 5.581985
869.7344, 14.91733
870.2165, 22.99927
870.6986, 32.12874
871.1807, 31.82642
871.6628, 18.83330
872.1450, 4.433762
872.6271, 2.899109
873.1092, 10.38533
873.5913, 14.87775
874.0734, 13.79375
874.5555, 13.02763
875.0377, 21.06500
875.5198, 29.04277
876.0019, 27.89775
876.4840, 5.725082
876.9661, 3.159576
877.4482, 8.371582
877.9304, 22.81197
878.4125, 21.17665
878.8946, 5.075317
879.3767, 4.567581
879.8588, 5.649704
880.3409, 3.263718
880.8231, 0.6413270
881.3052, 2.108871
881.7873, 5.219391
882.2694, 9.497467
882.7515, 11.38818
883.2336, 6.489548
883.7158, 2.386703
884.1979, 5.670380
884.6800, 18.08687
885.1621, 22.21689
885.6442, 16.49216
886.1263, 11.00160
886.6085, 16.71741
887.0906, 27.64693
887.5727, 36.40541
888.0548, 42.37663
888.5369, 42.58560
889.0190, 28.37164
889.5012, 13.65234
889.9833, 8.477356
890.4654, 15.11729
890.9475, 18.08022
891.4296, 16.68076
891.9117, 14.19722
892.3939, 12.74130
892.8760, 11.83171
893.3581, 12.26851
893.8402, 14.18752
894.3223, 15.71280
894.8044, 13.14659
895.2866, 12.02722
895.7687, 17.59422
896.2508, 30.81651
896.7329, 38.75194
897.2150, 40.32254
897.6971, 38.78114
898.1793, 35.44226
898.6614, 30.01190
899.1435, 25.19621
899.6256, 20.66826
900.1077, 17.31616
900.5898, 15.71890
901.0720, 15.71523
901.5541, 18.06113
902.0362, 22.61929
902.5183, 25.69604
903.0004, 29.02365
903.4825, 27.16582
903.9647, 13.64209
904.4468, 6.767746
904.9289, 1.991486
905.4110, 26.67322
905.8931, 48.85760
906.3752, 39.35321
906.8574, 21.03181
907.3395, 15.60880
907.8216, 20.81741
908.3037, 26.37923
908.7858, 29.34351
909.2679, 32.47490
909.7501, 37.81473
910.2322, 43.48833
910.7143, 41.93814
911.1964, 32.89468
911.6785, 23.23283
912.1606, 13.78760
912.6428, 6.584839
913.1249, 8.207870
913.6070, 15.56636
914.0891, 22.68188
914.5712, 31.58995
915.0533, 36.35211
915.5355, 34.43365
916.0176, 28.96115
916.4997, 22.77631
916.9818, 16.51244
917.4639, 10.35887
917.9460, 2.762756
918.4282, 1.302567
918.9103, 8.742432
919.3924, 26.36771
919.8745, 39.14745
920.3566, 41.23639
920.8387, 40.90808
921.3209, 39.04520
921.8030, 36.85164
922.2851, 36.62898
922.7672, 39.74017
923.2493, 37.79955
923.7314, 29.04733
924.2136, 18.49696
924.6957, 12.54611
925.1778, 9.704437
925.6599, 6.799103
926.1420, 2.180847
926.6241, 1.751022
927.1063, 14.87689
927.5884, 28.89743
928.0705, 32.77180
928.5526, 23.26494
929.0347, 17.53102
929.5168, 15.73151
929.9990, 17.13454
930.4811, 26.08096
930.9632, 36.61023
931.4453, 32.91121
931.9274, 14.00804
932.4095, 0.6877900
932.8917, 2.673523
933.3738, 9.943359
933.8559, 12.38184
934.3380, 9.677429
934.8201, 9.762665
935.3022, 14.73338
935.7844, 18.02512
936.2665, 13.35049
936.7486, 5.330307
937.2307, 6.669189
937.7128, 15.69971
938.1949, 22.34509
938.6771, 19.34851
939.1592, 14.81522
939.6413, 10.00534
940.1234, 6.010452
940.6055, 8.868103
941.0876, 21.90651
941.5698, 28.45505
942.0519, 21.57114
942.5340, 8.313156
943.0161, 0.5026250
943.4982, 2.504608
943.9803, 2.589096
944.4625, 2.848892
944.9446, 7.424454
945.4267, 5.964600
945.9088, 2.924164
946.3909, 6.970398
946.8730, 21.98503
947.3552, 29.57555
947.8373, 25.89992
948.3194, 18.11214
948.8015, 14.76103
949.2836, 14.80232
949.7657, 16.45975
950.2479, 20.21989
950.7300, 22.51143
951.2121, 21.48306
951.6942, 18.38318
952.1763, 14.08203
952.6584, 7.566452
953.1406, 3.629013
953.6227, 2.591141
954.1048, 3.032211
954.5869, 3.861649
955.0690, 5.238297
955.5511, 8.395111
956.0333, 13.32948
956.5154, 15.81619
956.9975, 10.26503
957.4796, 4.974747
957.9617, 5.353302
958.4438, 10.97963
958.9260, 12.66014
959.4081, 9.651566
959.8902, 7.499725
960.3723, 10.42044
960.8544, 15.23997
961.3365, 16.04826
961.8187, 14.18538
962.3008, 13.66954
962.7829, 22.77391
963.2650, 28.56145
963.7471, 25.58409
964.2292, 17.13206
964.7114, 8.951004
965.1935, 0.3154450
965.6756, 5.9448000E-02
966.1577, 13.45470
966.6398, 27.92418
967.1219, 22.13449
967.6041, 6.429581
968.0862, 1.132065
968.5683, 11.25299
969.0504, 21.29015
969.5325, 23.55719
970.0146, 22.30394
970.4968, 21.22433
970.9789, 20.45558
971.4610, 18.16283
971.9431, 13.97090
972.4252, 10.14177
972.9073, 9.267441
973.3895, 9.655304
973.8716, 8.591675
974.3537, 5.206085
974.8358, 6.056625
975.3179, 17.88437
975.8000, 26.84808
976.2822, 23.91502
976.7643, 11.84627
977.2464, 15.00534
977.7285, 32.22075
978.2106, 44.85609
978.6927, 36.17538
979.1749, 22.77754
979.6570, 19.22443
980.1391, 23.28279
980.6212, 24.97374
981.1033, 21.57558
981.5854, 18.03716
982.0676, 15.39447
982.5497, 13.03059
983.0318, 8.951752
983.5139, 3.808060
983.9960, 0.3656160
984.4781, 0.4104920
984.9603, 0.9298250
985.4424, 5.678467
985.9245, 11.37793
986.4066, 14.60375
986.8887, 12.28693
987.3708, 15.02397
987.8530, 25.41431
988.3351, 34.46785
988.8172, 31.05502
989.2993, 19.88002
989.7814, 12.25583
990.2635, 8.986069
990.7456, 9.964844
991.2277, 19.38594
991.7098, 28.81970
992.1920, 34.04826
992.6741, 35.11362
993.1562, 29.07755
993.6383, 13.69243
994.1204, 4.633621
994.6025, 16.04185
995.0847, 33.25955
995.5668, 28.24271
996.0489, 8.048096
996.5310, 7.356064
997.0131, 6.363373
997.4952, 4.352005
997.9774, 5.859344
998.4595, 8.181824
998.9416, 5.579086
999.4237, 1.979248
999.9058, 5.343918
1000.388, 1.319412
1000.870, 1.547440
1001.352, 10.63782
1001.834, 26.88013
1002.316, 33.15680
1002.799, 21.61510
1003.281, 13.65825
1003.763, 9.968796
1004.245, 11.36301
1004.727, 23.03636
1005.209, 41.86470
1005.691, 42.70555
1006.173, 26.36006
1006.655, 10.64577
1007.138, 7.996201
1007.620, 9.385468
1008.102, 9.450027
1008.584, 8.218948
1009.066, 7.839752
1009.548, 8.381470
1010.030, 9.800125
1010.512, 12.57791
1010.995, 15.48563
1011.477, 15.06284
1011.959, 13.00246
1012.441, 13.90898
1012.923, 23.25044
1013.405, 29.13947
1013.887, 23.29878
1014.369, 14.41809
1014.851, 11.89565
1015.334, 17.04312
1015.816, 18.30823
1016.298, 14.87286
1016.780, 9.648285
1017.262, 2.371185
1017.744, 3.400787
1018.226, 1.005249
1018.708, 10.14554
1019.190, 14.43379
1019.673, 0.7770390
1020.155, 9.665039
1020.637, 0.2314150
1021.119, 21.74947
1021.601, 31.32362
1022.083, 30.30342
1022.565, 31.78537
1023.047, 49.27187
1023.530, 62.42764
1024.012, 51.60101
1024.494, 29.00938
1024.976, 17.86844
1025.458, 23.40268
1025.940, 29.32397
1026.422, 35.14915
1026.904, 39.20213
1027.386, 38.15985
1027.869, 34.27383
1028.351, 32.52338
1028.833, 33.82251
1029.315, 34.66656
1029.797, 34.19055
1030.279, 32.06407
1030.761, 26.96504
1031.243, 19.62212
1031.726, 18.40460
1032.208, 23.35373
1032.690, 29.90198
1033.172, 38.28619
1033.654, 44.47417
1034.136, 41.03262
1034.618, 32.36977
1035.100, 29.82886
1035.583, 42.74567
1036.065, 50.40732
1036.547, 49.50658
1037.029, 44.13936
1037.511, 37.97234
1037.993, 32.22282
1038.475, 32.48134
1038.957, 40.65822
1039.439, 48.03044
1039.922, 48.06381
1040.404, 46.36844
1040.886, 47.78256
1041.368, 52.66266
1041.850, 52.84453
1042.332, 47.59749
1042.814, 43.00847
1043.296, 44.67157
1043.778, 47.72371
1044.261, 43.86194
1044.743, 35.61652
1045.225, 30.54790
1045.707, 32.38823
1046.189, 36.45955
1046.671, 44.98814
1047.153, 52.00453
1047.635, 42.46739
1048.118, 20.88773
1048.600, 16.10492
1049.082, 36.20389
1049.564, 53.16968
1050.046, 39.00316
1050.528, 18.08653
1051.010, 13.41048
1051.492, 27.75958
1051.974, 34.21930
1052.457, 31.56842
1052.939, 26.27953
1053.421, 19.29681
1053.903, 13.82185
1054.385, 17.37714
1054.867, 27.43587
1055.349, 34.86121
1055.831, 34.06998
1056.313, 32.65378
1056.796, 32.96303
1057.278, 33.33073
1057.760, 28.48593
1058.242, 19.76521
1058.724, 20.49388
1059.206, 34.46371
1059.688, 46.47713
1060.170, 42.46715
1060.653, 33.05827
1061.135, 26.98338
1061.617, 25.08942
1062.099, 23.84161
1062.581, 23.14589
1063.063, 23.54712
1063.545, 26.40915
1064.027, 29.75629
1064.510, 29.21043
1064.992, 26.16333
1065.474, 24.38646
1065.956, 27.97397
1066.438, 29.09532
1066.920, 24.81013
1067.402, 19.43739
1067.884, 20.29457
1068.366, 26.45889
1068.849, 28.94867
1069.331, 26.74648
1069.813, 26.57228
1070.295, 38.99699
1070.777, 50.65921
1071.259, 49.06778
1071.741, 34.00188
1072.223, 24.68198
1072.705, 22.19482
1073.188, 22.13239
1073.670, 22.91066
1074.152, 24.63831
1074.634, 28.42876
1075.116, 33.16109
1075.598, 36.30017
1076.080, 37.21118
1076.562, 36.55821
1077.044, 34.33301
1077.527, 30.79047
1078.009, 23.53671
1078.491, 15.08241
1078.973, 15.76910
1079.455, 26.30827
1079.937, 36.99858
1080.419, 45.72325
1080.901, 48.67001
1081.384, 38.21277
1081.866, 18.91176
1082.348, 14.69368
1082.830, 27.79526
1083.312, 35.11917
1083.794, 25.93126
1084.276, 14.12999
1084.758, 20.77354
1085.240, 35.05554
1085.723, 40.41275
1086.205, 26.26497
1086.687, 16.56100
1087.169, 13.82961
1087.651, 12.14917
1088.133, 4.123474
1088.615, 6.290115
1089.097, 4.194077
1089.579, 8.890045
1090.062, 19.25693
1090.544, 18.34421
1091.026, 14.77354
1091.508, 10.22881
1091.990, 6.234055
1092.472, 7.128922
1092.954, 12.77014
1093.436, 15.97032
1093.919, 14.81602
1094.401, 12.50941
1094.883, 11.87492
1095.365, 11.64037
1095.847, 9.477570
1096.329, 3.731277
1096.811, 6.486435
1097.293, 20.33751
1097.776, 33.08009
1098.258, 38.75589
1098.740, 37.66026
1099.222, 26.43765
1099.704, 9.651413
1100.186, 0.3187410
1100.668, 7.978455
1101.150, 13.69121
1101.632, 12.34282
1102.115, 9.258392
1102.597, 10.55681
1103.079, 16.03195
1103.561, 28.34723
1104.043, 47.95424
1104.525, 57.17239
1105.007, 31.22197
1105.489, 4.313339
1105.971, 0.6008450
1106.454, 11.89636
1106.936, 16.40707
1107.418, 12.63487
1107.900, 9.806671
1108.382, 10.85396
1108.864, 14.70052
1109.346, 25.23926
1109.828, 35.76920
1110.311, 35.71979
1110.793, 15.53328
1111.275, 6.060379
1111.757, 9.617538
1112.239, 16.65158
1112.721, 20.48909
1113.203, 21.64897
1113.685, 26.11549
1114.167, 32.68987
1114.650, 35.67567
1115.132, 26.78354
1115.614, 22.70285
1116.096, 28.84207
1116.578, 38.57341
1117.060, 39.88940
1117.542, 34.35085
1118.024, 28.74869
1118.506, 23.95230
1118.989, 20.79903
1119.471, 21.73820
1119.953, 22.71471
1120.435, 20.72412
1120.917, 16.09785
1121.399, 12.97412
1121.881, 11.37379
1122.363, 11.94991
1122.846, 16.55861
1123.328, 21.22638
1123.810, 25.01804
1124.292, 25.48471
1124.774, 16.95932
1125.256, 9.971893
1125.738, 19.13838
1126.220, 6.631042
1126.703, 9.605042
1127.185, 15.65047
1127.667, 14.82552
1128.149, 8.038818
1128.631, 2.437363
1129.113, 4.079697
1129.595, 17.89618
1130.077, 31.25352
1130.559, 27.51567
1131.042, 16.21979
1131.524, 14.78119
1132.006, 18.88791
1132.488, 19.49376
1132.970, 14.16405
1133.452, 9.508789
1133.934, 7.469284
1134.416, 8.211044
1134.898, 13.33923
1135.381, 21.43044
1135.863, 21.59113
1136.345, 14.73997
1136.827, 8.555130
1137.309, 6.488800
1137.791, 6.200073
1138.273, 5.645096
1138.755, 6.458313
1139.238, 11.57280
1139.720, 23.17368
1140.202, 25.32924
1140.684, 16.67799
1141.166, 10.95293
1141.648, 25.95822
1142.130, 43.48933
1142.612, 45.09654
1143.094, 32.94254
1143.577, 22.47498
1144.059, 14.05617
1144.541, 9.349197
1145.023, 8.915497
1145.505, 11.61658
1145.987, 18.83113
1146.469, 26.66629
1146.951, 29.25456
1147.433, 24.77322
1147.916, 21.50072
1148.398, 18.50124
1148.880, 21.19453
1149.362, 35.63960
1149.844, 54.00516
1150.326, 53.97815
1150.808, 40.34740
1151.290, 26.13533
1151.773, 11.63155
1152.255, 4.754669
1152.737, 13.70284
1153.219, 24.09386
1153.701, 23.75696
1154.183, 13.97530
1154.665, 5.490158
1155.147, 1.183029
1155.630, 2.605194
1156.112, 10.98709
1156.594, 21.92639
1157.076, 17.46153
1157.558, 6.587891
1158.040, 4.270279
1158.522, 10.50891
1159.004, 14.32614
1159.486, 14.08821
1159.969, 13.11446
1160.451, 13.66653
1160.933, 14.96401
1161.415, 16.94957
1161.897, 19.31517
1162.379, 19.02931
1162.861, 15.38754
1163.343, 16.24529
1163.825, 26.60629
1164.308, 36.66600
1164.790, 32.59026
1165.272, 22.65962
1165.754, 18.01543
1166.236, 22.60886
1166.718, 22.44522
1167.200, 16.03392
1167.682, 11.94176
1168.165, 20.56581
1168.647, 31.18852
1169.129, 21.28845
1169.611, 3.1647000E-02
1170.093, 11.02847
1170.575, 5.169434
1171.057, 13.01605
1171.539, 8.700943
1172.021, 0.8832700
1172.504, 3.838181
1172.986, 4.930786
1173.468, 0.5112000
1173.950, 11.66890
1174.432, 20.59502
1174.914, 25.02975
1175.396, 26.03815
1175.878, 21.38193
1176.360, 15.45311
1176.843, 18.90936
1177.325, 27.63750
1177.807, 29.44339
1178.289, 21.22583
1178.771, 13.96292
1179.253, 11.53166
1179.735, 12.39902
1180.217, 17.40176
1180.700, 24.59796
1181.182, 27.13568
1181.664, 25.63387
1182.146, 22.63623
1182.628, 17.50998
1183.110, 13.62440
1183.592, 16.11150
1184.074, 19.21957
1184.557, 15.45540
1185.039, 4.987885
1185.521, 4.826782
1186.003, 14.20638
1186.485, 25.82144
1186.967, 45.96341
1187.449, 56.00603
1187.931, 34.01086
1188.413, 2.040009
1188.896, 7.969528
1189.378, 5.116150
1189.860, 13.54913
1190.342, 15.39597
1190.824, 15.74835
1191.306, 19.17987
1191.788, 21.86722
1192.270, 18.68333
1192.752, 12.75572
1193.235, 14.82535
1193.717, 25.71651
1194.199, 35.07245
1194.681, 41.35503
1195.163, 43.19643
1195.645, 34.23495
1196.127, 23.96547
1196.609, 23.10431
1197.092, 31.43629
1197.574, 31.96437
1198.056, 23.66870
1198.538, 15.51331
1199.020, 9.209854
1199.502, 7.310074
1199.984, 19.57054
1200.466, 34.27811
1200.948, 34.67891
1201.431, 14.79021
1201.913, 4.247467
1202.395, 4.364227
1202.877, 6.462463
1203.359, 4.095215
1203.841, 2.497498
1204.323, 12.64178
1204.805, 27.16568
1205.287, 29.71541
1205.770, 9.395752
1206.252, 2.015945
1206.734, 10.56194
1207.216, 22.70149
1207.698, 29.26454
1208.180, 32.52367
1208.662, 35.06384
1209.144, 36.50331
1209.627, 37.02180
1210.109, 38.19487
1210.591, 34.58604
1211.073, 23.73827
1211.555, 12.67822
1212.037, 9.637207
1212.519, 11.01462
1213.001, 11.34677
1213.484, 10.45323
1213.966, 14.03888
1214.448, 25.23851
1214.930, 32.40660
1215.412, 31.91965
1215.894, 28.00488
1216.376, 24.99654
1216.858, 23.75363
1217.340, 27.34421
1217.823, 37.96654
1218.305, 38.73320
1218.787, 22.52277
1219.269, 13.40517
1219.751, 25.77345
1220.233, 44.80763
1220.715, 41.20084
1221.197, 25.80614
1221.679, 18.80493
1222.162, 32.39563
1222.644, 33.38361
1223.126, 14.19957
1223.608, 1.051178
1224.090, 8.713043
1224.572, 28.08310
1225.054, 24.81551
1225.536, 8.148407
1226.019, 0.1375890
1226.501, 16.90625
1226.983, 25.54062
1227.465, 22.35913
1227.947, 16.44048
1228.429, 18.49054
1228.911, 23.49948
1229.393, 23.51266
1229.875, 19.89655
1230.358, 19.50597
1230.840, 31.82054
1231.322, 33.63954
1231.804, 19.15134
1232.286, 1.631424
1232.768, 4.982849
1233.250, 3.402374
1233.732, 5.025650
1234.214, 19.21396
1234.697, 28.08189
1235.179, 29.81105
1235.661, 25.57307
1236.143, 12.03070
1236.625, 0.5570530
1237.107, 14.55504
1237.589, 37.79236
1238.071, 40.50800
1238.553, 17.09532
1239.036, 8.866959
1239.518, 26.63470
1240.000, 40.79523
1240.482, 40.86644
1240.964, 33.98305
1241.446, 29.63657
1241.928, 26.87346
1242.410, 24.31747
1242.893, 22.34827
1243.375, 16.91582
1243.857, 4.088531
1244.339, 0.3700410
1244.821, 17.63222
1245.303, 42.79362
1245.785, 54.55127
1246.267, 56.06297
1246.750, 51.04547
1247.232, 34.20242
1247.714, 28.86707
1248.196, 38.79832
1248.678, 45.89400
1249.160, 32.53676
1249.642, 14.36469
1250.124, 15.55026
1250.606, 27.86217
1251.089, 33.87135
1251.571, 28.88115
1252.053, 22.43095
1252.535, 14.21603
1253.017, 7.496094
1253.499, 4.030823
1253.981, 4.036469
1254.463, 10.95457
1254.945, 21.19073
1255.428, 23.42599
1255.910, 12.93436
1256.392, 10.53230
1256.874, 18.72446
1257.356, 29.24625
1257.838, 35.27599
1258.320, 39.56624
1258.802, 48.45938
1259.285, 57.96619
1259.767, 50.50641
1260.249, 21.28986
1260.731, 4.938690
1261.213, 7.676849
1261.695, 15.10292
1262.177, 14.75122
1262.659, 12.32365
1263.141, 11.30930
1263.624, 12.08922
1264.106, 14.15063
1264.588, 17.78403
1265.070, 15.76903
1265.552, 5.230789
1266.034, 3.857101
1266.516, 1.261398
1266.998, 4.163040
1267.480, 3.343826
1267.963, 2.039795
1268.445, 0.9246520
1268.927, 11.90067
1269.409, 22.41138
1269.891, 31.37782
1270.373, 34.70097
1270.855, 22.33102
1271.337, 10.07033
1271.820, 10.49257
1272.302, 20.75317
1272.784, 23.32840
1273.266, 19.40317
1273.748, 18.24788
1274.230, 24.91010
1274.712, 30.65788
1275.194, 28.65541
1275.677, 26.86415
1276.159, 32.09439
1276.641, 41.83961
1277.123, 40.03156
1277.605, 29.82805
1278.087, 23.97246
1278.569, 31.28154
1279.051, 36.91486
1279.533, 34.40292
1280.016, 32.56494
1280.498, 41.13116
1280.980, 55.01865
1281.462, 51.19460
1281.944, 34.89717
1282.426, 23.67520
1282.908, 28.96910
1283.390, 31.87979
1283.872, 35.21555
1284.355, 33.39709
1284.837, 19.53180
1285.319, 1.592987
1285.801, 1.229202
1286.283, 8.318115
1286.765, 20.11049
1287.247, 38.55775
1287.729, 45.39316
1288.212, 37.21480
1288.694, 25.04503
1289.176, 17.04797
1289.658, 12.93524
1290.140, 13.34451
1290.622, 17.47020
1291.104, 23.03328
1291.586, 32.96742
1292.068, 31.63370
1292.551, 15.06499
1293.033, 0.6186370
1293.515, 8.044815
1293.997, 23.25461
1294.479, 31.46063
1294.961, 31.99872
1295.443, 26.98245
1295.925, 15.31985
1296.407, 6.608200
1296.890, 0.3975520
1297.372, 5.6534000E-02
1297.854, 8.614655
1298.336, 16.69225
1298.818, 9.972610
1299.300, 4.3330002E-03
1299.782, 0.0000000E+00
##END=



