##NAMES=Tomichite
##RRUFFID=R070708
##IDEAL CHEMISTRY=V^3+^_4_Ti^4+^_3_As^3+^O_13_(OH)
##LOCALITY=Hemlo Mines, Hemlo gold deposit, Marathon, Thunder Bay District, Ontario, Canada
##OWNER=RRUFF
##SOURCE=Michael Scott
##DESCRIPTION=Black bleb associated with titanite, sanidine and tetrahedrite; opaque under microscope
##STATUS=The identification of this mineral is not yet confirmed.
##URL=rruff.info/R070708
146.9666, 0.0000000E+00
147.4488, 0.2083740
147.9309, 15.67615
148.4130, 40.55811
148.8951, 54.48120
149.3772, 51.94690
149.8593, 45.75415
150.3415, 40.92493
150.8236, 37.04944
151.3057, 33.37170
151.7878, 26.90820
152.2699, 18.26160
152.7520, 16.74573
153.2342, 37.27197
153.7163, 52.34070
154.1984, 46.79126
154.6805, 23.96082
155.1626, 1.806152
155.6447, 1.085815
156.1269, 32.20044
156.6090, 48.97778
157.0911, 44.10840
157.5732, 37.58484
158.0553, 33.32739
158.5374, 34.62207
159.0196, 38.73376
159.5017, 36.07458
159.9838, 18.21753
160.4659, 8.731445
160.9480, 9.776611
161.4301, 15.73889
161.9123, 29.93689
162.3944, 54.78406
162.8765, 81.25574
163.3586, 85.64453
163.8407, 42.82556
164.3228, 12.55286
164.8050, 15.23389
165.2871, 35.91235
165.7692, 49.71753
166.2513, 45.53320
166.7334, 28.20251
167.2155, 15.66602
167.6977, 2.735718
168.1798, 4.805542
168.6619, 1.846558
169.1440, 20.41321
169.6261, 35.26282
170.1082, 32.07117
170.5904, 16.88477
171.0725, 9.914795
171.5546, 18.73352
172.0367, 33.71765
172.5188, 46.58862
173.0009, 48.52795
173.4831, 41.08533
173.9652, 27.71057
174.4473, 12.99475
174.9294, 6.100952
175.4115, 17.37708
175.8936, 38.27295
176.3758, 46.80237
176.8579, 39.49683
177.3400, 30.44092
177.8221, 25.68164
178.3042, 24.72559
178.7864, 27.35205
179.2685, 37.95581
179.7506, 51.16162
180.2327, 58.51953
180.7148, 63.28369
181.1969, 62.65332
181.6791, 49.67688
182.1612, 28.01160
182.6433, 10.83350
183.1254, 12.85815
183.6075, 36.74280
184.0896, 53.14429
184.5718, 57.63721
185.0539, 55.87158
185.5360, 48.45471
186.0181, 34.97009
186.5002, 20.70972
186.9823, 12.44189
187.4645, 10.39417
187.9466, 13.42261
188.4287, 27.06787
188.9108, 40.91602
189.3929, 50.48120
189.8750, 54.29065
190.3572, 52.44495
190.8393, 44.75867
191.3214, 23.58875
191.8035, 11.10535
192.2856, 13.16284
192.7677, 19.73340
193.2499, 22.46765
193.7320, 18.93457
194.2141, 11.75513
194.6962, 7.306030
195.1783, 10.38403
195.6604, 10.69946
196.1426, 6.813599
196.6247, 0.4545900
197.1068, 7.730957
197.5889, 18.01575
198.0710, 27.56042
198.5531, 25.75330
199.0353, 0.3125000
199.5174, 21.68506
199.9995, 31.26184
200.4816, 32.59973
200.9637, 32.38196
201.4458, 34.40796
201.9280, 37.94385
202.4101, 37.22998
202.8922, 30.94910
203.3743, 23.54248
203.8564, 13.52234
204.3385, 3.179077
204.8207, 1.098389
205.3028, 13.21667
205.7849, 35.41125
206.2670, 45.36096
206.7491, 32.94409
207.2312, 18.21899
207.7134, 13.22388
208.1955, 17.16174
208.6776, 22.28979
209.1597, 24.73230
209.6418, 23.94592
210.1239, 19.88330
210.6061, 7.046509
211.0882, 5.511841
211.5703, 10.32385
212.0524, 7.158569
212.5345, 1.595581
213.0166, 20.08289
213.4988, 43.08850
213.9809, 55.85999
214.4630, 48.17749
214.9451, 32.25122
215.4272, 23.16028
215.9094, 21.89587
216.3915, 23.97632
216.8736, 29.25708
217.3557, 35.65027
217.8378, 38.69971
218.3199, 34.50952
218.8021, 26.52576
219.2842, 21.22083
219.7663, 19.34656
220.2484, 18.73438
220.7305, 16.59863
221.2126, 14.45923
221.6948, 15.89136
222.1769, 28.62756
222.6590, 46.73450
223.1411, 48.60522
223.6232, 21.20068
224.1053, 0.8288570
224.5875, 7.936035
225.0696, 36.85645
225.5517, 61.32751
226.0338, 62.50269
226.5159, 45.55701
226.9980, 36.92383
227.4802, 43.85925
227.9623, 49.76184
228.4444, 43.44873
228.9265, 29.09094
229.4086, 17.83508
229.8907, 20.92810
230.3729, 37.08679
230.8550, 43.54419
231.3371, 30.51025
231.8192, 17.47644
232.3013, 11.97302
232.7834, 13.36389
233.2656, 18.94531
233.7477, 28.55933
234.2298, 42.45776
234.7119, 49.05078
235.1940, 40.92920
235.6761, 31.62195
236.1583, 24.31287
236.6404, 19.97839
237.1225, 19.87976
237.6046, 28.25244
238.0867, 27.51904
238.5688, 51.93347
239.0510, 65.54028
239.5331, 68.86792
240.0152, 31.27228
240.4973, 46.15833
240.9794, 39.95648
241.4615, 33.09332
241.9437, 55.68933
242.4258, 24.11432
242.9079, 46.23706
243.3900, 46.87048
243.8721, 57.25073
244.3542, 46.27264
244.8364, 41.74152
245.3185, 58.42047
245.8006, 63.37946
246.2827, 49.97723
246.7648, 60.95776
247.2469, 28.51764
247.7291, 34.21185
248.2112, 56.34082
248.6933, 44.05054
249.1754, 55.27991
249.6575, 57.35303
250.1397, 18.53809
250.6218, 50.95074
251.1039, 52.60803
251.5860, 22.63342
252.0681, 52.49152
252.5502, 26.67682
253.0324, 20.80365
253.5145, 29.90857
253.9966, 23.35718
254.4787, 41.03058
254.9608, 34.51685
255.4429, 25.24255
255.9251, 24.58160
256.4072, 2.084167
256.8893, 15.66437
257.3714, 23.92999
257.8535, 28.82684
258.3356, 27.41589
258.8177, 25.67865
259.2999, 28.39954
259.7820, 34.72375
260.2641, 39.14240
260.7462, 35.26135
261.2283, 19.93756
261.7104, 10.20758
262.1926, 5.756897
262.6747, 6.208618
263.1568, 14.25464
263.6389, 27.17847
264.1210, 38.91565
264.6031, 42.14990
265.0853, 34.42310
265.5674, 30.45972
266.0495, 29.63434
266.5316, 32.62744
267.0138, 43.33398
267.4959, 59.19879
267.9780, 71.53760
268.4601, 71.14587
268.9422, 54.15295
269.4243, 44.41791
269.9065, 46.88458
270.3886, 52.21606
270.8707, 55.54449
271.3528, 56.68787
271.8349, 58.36896
272.3170, 63.38403
272.7992, 72.59882
273.2813, 77.34302
273.7634, 73.56519
274.2455, 70.16962
274.7276, 71.53705
275.2097, 77.20911
275.6919, 84.39832
276.1740, 90.97339
276.6561, 97.02875
277.1382, 101.4265
277.6203, 101.1163
278.1024, 102.4969
278.5846, 110.5780
279.0667, 123.2163
279.5488, 133.6669
280.0309, 136.4583
280.5130, 131.4020
280.9951, 129.1301
281.4773, 133.2433
281.9594, 135.3343
282.4415, 130.4646
282.9236, 121.5463
283.4057, 116.6423
283.8878, 122.0926
284.3700, 137.0563
284.8521, 145.3456
285.3342, 139.0904
285.8163, 135.4866
286.2984, 142.1465
286.7805, 155.4855
287.2627, 167.3644
287.7448, 172.4318
288.2269, 171.7606
288.7090, 172.9512
289.1911, 181.8431
289.6732, 185.8497
290.1554, 178.1276
290.6375, 163.9164
291.1196, 151.7219
291.6017, 146.0706
292.0838, 126.3549
292.5659, 149.0283
293.0481, 160.8685
293.5302, 162.4526
294.0123, 123.1934
294.4944, 136.6007
294.9765, 128.9174
295.4586, 120.4738
295.9408, 141.4465
296.4229, 108.2598
296.9050, 128.8138
297.3871, 127.9133
297.8692, 136.6876
298.3513, 124.2807
298.8335, 118.4219
299.3156, 133.8155
299.7977, 137.5045
300.2798, 122.5363
300.7619, 131.9768
301.2440, 97.96765
301.7262, 102.1268
302.2083, 122.6905
302.6904, 108.8556
303.1725, 118.7281
303.6546, 119.6107
304.1367, 79.52704
304.6189, 110.6431
305.1010, 85.48883
305.5831, 76.49829
306.0652, 69.90759
306.5473, 68.39618
307.0294, 72.50128
307.5116, 80.19489
307.9937, 90.10889
308.4758, 111.0880
308.9579, 112.4153
309.4400, 78.50696
309.9221, 40.16333
310.4043, 13.46429
310.8864, 1.872070
311.3685, 2.367798
311.8506, 14.21796
312.3327, 44.42621
312.8148, 57.79370
313.2970, 41.99548
313.7791, 22.58362
314.2612, 8.166382
314.7433, 1.151428
315.2254, 1.055969
315.7076, 9.106445
316.1897, 26.52057
316.6718, 37.74548
317.1539, 41.97852
317.6360, 40.92560
318.1181, 31.81189
318.6003, 17.52112
319.0824, 3.250549
319.5645, 8.045471
320.0466, 16.02667
320.5287, 14.55841
321.0108, 12.48212
321.4930, 31.75244
321.9751, 32.07532
322.4572, 20.29596
322.9393, 6.909973
323.4214, 2.313049
323.9035, 7.778381
324.3857, 10.89111
324.8678, 10.52759
325.3499, 9.179688
325.8320, 9.940063
326.3141, 9.252502
326.7962, 1.965698
327.2784, 14.68335
327.7605, 35.77136
328.2426, 51.34369
328.7247, 60.93225
329.2068, 65.21759
329.6889, 62.62140
330.1711, 56.49084
330.6532, 48.73883
331.1353, 39.92755
331.6174, 31.34277
332.0995, 24.71820
332.5816, 20.18756
333.0638, 17.08167
333.5459, 15.29944
334.0280, 14.99255
334.5101, 17.11212
334.9922, 21.56830
335.4743, 26.07410
335.9565, 27.08167
336.4386, 24.35382
336.9207, 26.21362
337.4028, 39.31982
337.8849, 51.60828
338.3671, 56.13342
338.8492, 53.18475
339.3313, 46.62695
339.8134, 35.99713
340.2955, 22.96045
340.7776, 17.35144
341.2598, 23.58069
341.7419, 31.19641
342.2240, 35.14569
342.7061, 35.41437
343.1882, 31.60846
343.6703, 18.02246
344.1525, 1.244141
344.6346, 2.913452
345.1167, 9.103882
345.5988, 22.05212
346.0809, 26.38153
346.5630, 25.17371
347.0452, 22.28925
347.5273, 17.17798
348.0094, 12.15460
348.4915, 9.264038
348.9736, 8.470642
349.4557, 11.28815
349.9379, 22.72607
350.4200, 36.23004
350.9021, 39.27258
351.3842, 26.43707
351.8663, 11.41260
352.3484, 2.135376
352.8306, 1.969360
353.3127, 2.625061
353.7948, 0.7261350
354.2769, 5.711670
354.7590, 8.021973
355.2411, 7.248535
355.7233, 5.861267
356.2054, 2.405396
356.6875, 0.6268310
357.1696, 2.256470
357.6517, 13.21899
358.1339, 26.36279
358.6160, 34.04053
359.0981, 35.61322
359.5802, 35.51074
360.0623, 30.26465
360.5444, 25.84705
361.0266, 30.18066
361.5087, 43.52460
361.9908, 56.83960
362.4729, 62.22229
362.9550, 58.90356
363.4371, 51.09363
363.9193, 29.96027
364.4014, 12.72546
364.8835, 11.99573
365.3656, 23.88672
365.8477, 34.86249
366.3298, 35.30804
366.8120, 26.91278
367.2941, 25.13147
367.7762, 39.64270
368.2583, 49.14423
368.7404, 43.54681
369.2225, 31.48047
369.7047, 25.70020
370.1868, 32.04987
370.6689, 46.62061
371.1510, 60.37061
371.6331, 82.67279
372.1152, 88.56598
372.5974, 61.25903
373.0795, 27.75153
373.5616, 10.31726
374.0437, 14.44720
374.5258, 32.02258
375.0079, 51.84290
375.4901, 78.51361
375.9722, 95.45966
376.4543, 99.68848
376.9364, 97.00720
377.4185, 84.86731
377.9006, 66.53644
378.3828, 51.83063
378.8649, 50.78943
379.3470, 61.91998
379.8291, 69.69116
380.3112, 75.11798
380.7933, 75.28430
381.2755, 64.54266
381.7576, 48.75665
382.2397, 38.50861
382.7218, 40.47321
383.2039, 49.93146
383.6860, 57.62421
384.1682, 64.85358
384.6503, 66.93396
385.1324, 53.27747
385.6145, 36.84448
386.0966, 31.98120
386.5787, 44.42859
387.0609, 59.46289
387.5430, 60.54932
388.0251, 48.69580
388.5072, 41.71838
388.9893, 46.33777
389.4714, 55.94647
389.9536, 62.16455
390.4357, 64.70569
390.9178, 68.29816
391.3999, 79.43378
391.8820, 92.41864
392.3641, 94.38837
392.8463, 81.60162
393.3284, 65.53009
393.8105, 57.36365
394.2926, 56.54901
394.7747, 54.81940
395.2568, 48.68646
395.7390, 43.07349
396.2211, 43.99146
396.7032, 50.60217
397.1853, 54.48853
397.6674, 47.12097
398.1495, 31.37268
398.6317, 30.80475
399.1138, 66.46387
399.5959, 91.51892
400.0780, 82.02960
400.5601, 54.04102
401.0422, 35.06061
401.5244, 36.54266
402.0065, 49.82074
402.4886, 56.71674
402.9707, 49.27460
403.4528, 47.96722
403.9349, 60.99866
404.4171, 74.50031
404.8992, 75.91681
405.3813, 64.55817
405.8634, 49.95081
406.3455, 43.28961
406.8276, 46.64789
407.3098, 44.69171
407.7919, 25.77911
408.2740, 13.00067
408.7561, 19.66583
409.2383, 39.31915
409.7204, 55.84137
410.2025, 59.44922
410.6846, 53.24292
411.1667, 48.32672
411.6488, 45.37494
412.1310, 42.75885
412.6131, 39.21033
413.0952, 36.07031
413.5773, 35.00220
414.0594, 36.59503
414.5415, 39.32483
415.0237, 42.70679
415.5058, 46.96912
415.9879, 46.60516
416.4700, 36.53595
416.9521, 25.13031
417.4342, 20.27679
417.9164, 21.76373
418.3985, 23.32037
418.8806, 19.98328
419.3627, 14.63812
419.8448, 13.77814
420.3269, 18.50549
420.8091, 25.47028
421.2912, 32.95734
421.7733, 40.69415
422.2554, 47.53009
422.7375, 56.13745
423.2196, 61.41681
423.7018, 56.24005
424.1839, 43.42181
424.6660, 35.42914
425.1481, 39.60956
425.6302, 51.44165
426.1123, 57.64325
426.5945, 58.00446
427.0766, 53.54791
427.5587, 38.74274
428.0408, 22.17499
428.5229, 15.00470
429.0050, 19.51099
429.4872, 27.92249
429.9693, 30.66022
430.4514, 27.04016
430.9335, 19.63641
431.4156, 4.289246
431.8977, 19.53394
432.3799, 5.184204
432.8620, 28.81256
433.3441, 55.85577
433.8262, 56.64551
434.3083, 36.16730
434.7904, 20.14630
435.2726, 8.375122
435.7547, 2.254272
436.2368, 1.992859
436.7189, 6.668396
437.2010, 17.82141
437.6831, 36.30243
438.1653, 53.41846
438.6474, 55.97296
439.1295, 42.87457
439.6116, 32.15472
440.0937, 26.71271
440.5758, 24.65857
441.0580, 26.56616
441.5401, 31.45740
442.0222, 32.77826
442.5043, 20.33789
442.9864, 3.854065
443.4685, 5.384888
443.9507, 28.65997
444.4328, 51.03137
444.9149, 58.44464
445.3970, 52.97290
445.8791, 43.66705
446.3612, 25.93756
446.8434, 10.05151
447.3255, 1.062744
447.8076, 1.515869
448.2897, 1.429199
448.7718, 9.633606
449.2539, 21.31879
449.7361, 34.49780
450.2182, 52.70789
450.7003, 64.50635
451.1824, 68.54816
451.6645, 66.74396
452.1466, 58.86163
452.6288, 45.89142
453.1109, 30.56134
453.5930, 14.37280
454.0751, 2.579468
454.5572, 11.51630
455.0393, 12.43567
455.5215, 4.690491
456.0036, 23.45532
456.4857, 56.92542
456.9678, 74.90936
457.4499, 68.39728
457.9320, 47.97614
458.4142, 31.85944
458.8963, 20.28241
459.3784, 12.18903
459.8605, 7.635681
460.3426, 6.676697
460.8247, 12.40094
461.3069, 23.57440
461.7890, 31.02472
462.2711, 24.60687
462.7532, 10.27911
463.2353, 5.486206
463.7174, 12.68951
464.1996, 20.38708
464.6817, 22.21198
465.1638, 19.27869
465.6459, 14.04474
466.1280, 1.070496
466.6101, 7.856873
467.0923, 1.963379
467.5744, 14.30426
468.0565, 29.36774
468.5386, 39.66620
469.0207, 45.15717
469.5028, 45.19305
469.9850, 37.42059
470.4671, 29.96216
470.9492, 19.51263
471.4313, 12.17444
471.9134, 15.08099
472.3955, 26.60620
472.8777, 38.18787
473.3598, 43.13287
473.8419, 41.91388
474.3240, 40.02655
474.8061, 36.71924
475.2882, 33.66797
475.7704, 32.04065
476.2525, 31.02051
476.7346, 29.65417
477.2167, 27.17627
477.6988, 24.93341
478.1809, 25.46478
478.6631, 29.19299
479.1452, 29.25067
479.6273, 20.76343
480.1094, 11.82849
480.5916, 8.070862
481.0737, 8.344543
481.5558, 7.975647
482.0379, 3.247864
482.5200, 2.754517
483.0021, 5.796326
483.4843, 5.875916
483.9664, 2.193909
484.4485, 7.380371
484.9306, 19.89532
485.4127, 27.97583
485.8948, 30.72186
486.3770, 31.20074
486.8591, 29.04321
487.3412, 25.66345
487.8233, 24.05829
488.3054, 24.78967
488.7875, 25.03577
489.2697, 20.66034
489.7518, 8.980652
490.2339, 8.151733
490.7160, 26.27704
491.1981, 43.42981
491.6802, 53.13281
492.1624, 56.42352
492.6445, 55.69574
493.1266, 51.94366
493.6087, 45.91992
494.0908, 38.84906
494.5729, 29.75842
495.0551, 22.45404
495.5372, 17.74481
496.0193, 14.77179
496.5014, 13.33105
496.9835, 13.30817
497.4656, 14.32520
497.9478, 17.59723
498.4299, 21.60620
498.9120, 21.39331
499.3941, 15.83276
499.8762, 10.86267
500.3583, 9.129944
500.8405, 10.63068
501.3226, 15.93713
501.8047, 30.71497
502.2868, 39.80151
502.7689, 30.08765
503.2510, 10.64514
503.7332, 1.178101
504.2153, 0.6257930
504.6974, 4.862244
505.1795, 6.039856
505.6616, 0.6759030
506.1437, 2.636108
506.6259, 22.24573
507.1080, 38.30554
507.5901, 38.07111
508.0722, 26.87482
508.5543, 15.20605
509.0364, 8.414612
509.5186, 5.749268
510.0007, 5.922241
510.4828, 10.39758
510.9649, 13.92523
511.4470, 10.64301
511.9291, 9.950195
512.4113, 23.37988
512.8934, 48.53259
513.3755, 65.25525
513.8576, 49.24652
514.3397, 14.89215
514.8218, 3.985107
515.3040, 21.27032
515.7861, 39.17841
516.2682, 42.23108
516.7503, 36.11981
517.2324, 34.59497
517.7145, 41.03687
518.1967, 46.04785
518.6788, 45.96826
519.1609, 41.55878
519.6430, 30.91638
520.1251, 14.22028
520.6072, 1.858032
521.0894, 7.201172
521.5715, 34.15295
522.0536, 46.42810
522.5357, 29.96143
523.0178, 16.75598
523.4999, 21.38452
523.9821, 35.40497
524.4642, 43.55579
524.9463, 40.12476
525.4284, 33.24957
525.9105, 41.11761
526.3926, 69.59296
526.8748, 82.23706
527.3569, 60.13385
527.8390, 35.27026
528.3211, 25.30939
528.8032, 28.43420
529.2853, 35.19434
529.7675, 45.47687
530.2496, 54.45905
530.7317, 52.53033
531.2138, 40.22601
531.6959, 30.97351
532.1780, 10.70105
532.6602, 35.88397
533.1423, 50.01770
533.6244, 53.93103
534.1065, 17.02905
534.5886, 32.85059
535.0707, 27.51587
535.5529, 21.28790
536.0350, 44.45636
536.5171, 13.45593
536.9992, 36.15900
537.4813, 37.37976
537.9634, 48.36871
538.4456, 38.07440
538.9277, 34.33508
539.4098, 51.84180
539.8919, 57.49915
540.3740, 44.37512
540.8561, 55.36951
541.3383, 22.89935
541.8204, 28.78906
542.3025, 51.42816
542.7846, 39.76843
543.2667, 51.77625
543.7488, 54.78705
544.2310, 16.87927
544.7131, 50.11127
545.1952, 52.55127
545.6773, 23.38245
546.1594, 54.14227
546.6415, 57.47968
547.1237, 70.78412
547.6058, 73.80206
548.0879, 35.99634
548.5700, 50.99182
549.0521, 44.88422
549.5342, 37.90601
550.0164, 60.32434
550.4985, 28.55939
550.9806, 50.50220
551.4627, 50.99957
551.9448, 61.30542
552.4269, 50.35004
552.9091, 45.92236
553.3912, 62.72614
553.8733, 67.73804
554.3554, 54.23694
554.8375, 65.04944
555.3196, 32.41467
555.8018, 37.92603
556.2839, 59.90027
556.7660, 47.48975
557.2481, 58.68634
557.7302, 60.82660
558.2123, 22.02362
558.6945, 54.39087
559.1766, 56.03400
559.6587, 26.14349
560.1408, 56.18463
560.6229, 30.63879
561.1050, 24.80396
561.5872, 33.53741
562.0693, 26.73572
562.5514, 44.67743
563.0335, 39.00513
563.5156, 31.05005
563.9977, 32.37946
564.4799, 7.860413
564.9620, 31.82587
565.4441, 22.69104
565.9262, 29.98370
566.4083, 40.93793
566.8904, 23.24133
567.3726, 35.70905
567.8547, 19.66638
568.3368, 16.43402
568.8189, 14.05884
569.3010, 16.60455
569.7831, 34.36963
570.2653, 54.20172
570.7474, 53.29730
571.2295, 33.03491
571.7116, 15.67249
572.1937, 11.62500
572.6758, 14.62775
573.1580, 12.57275
573.6401, 2.338867
574.1222, 5.104248
574.6043, 7.386536
575.0864, 7.617004
575.5685, 8.565308
576.0507, 9.659546
576.5328, 7.540955
577.0149, 0.7055660
577.4970, 11.69537
577.9791, 13.08008
578.4612, 1.603394
578.9434, 10.11432
579.4255, 2.532776
579.9076, 7.975281
580.3897, 13.40125
580.8718, 13.54285
581.3539, 12.99103
581.8361, 16.50916
582.3182, 19.64703
582.8003, 12.04517
583.2824, 5.513855
583.7645, 15.54639
584.2467, 8.227234
584.7288, 9.058228
585.2109, 20.83307
585.6931, 26.84369
586.1752, 28.27899
586.6573, 22.30383
587.1394, 14.24689
587.6215, 6.661316
588.1036, 0.3980710
588.5858, 4.004333
589.0679, 6.473145
589.5500, 6.150513
590.0321, 1.218262
590.5142, 21.87042
590.9963, 33.58722
591.4785, 21.36865
591.9606, 7.240173
592.4427, 8.303955
592.9248, 22.93695
593.4069, 35.87512
593.8890, 41.44904
594.3712, 40.57416
594.8533, 31.89581
595.3354, 16.83148
595.8175, 7.891418
596.2996, 11.38275
596.7817, 21.50787
597.2639, 27.58984
597.7460, 28.84656
598.2281, 27.16534
598.7102, 14.70282
599.1923, 6.362854
599.6744, 16.56866
600.1566, 38.03986
600.6387, 52.09387
601.1208, 47.63513
601.6029, 34.48865
602.0850, 33.97015
602.5671, 49.54144
603.0493, 58.04846
603.5314, 52.75122
604.0135, 42.53534
604.4956, 32.71222
604.9777, 23.69269
605.4598, 17.52551
605.9420, 15.68579
606.4241, 16.16901
606.9062, 18.65802
607.3883, 22.21826
607.8704, 23.87659
608.3525, 22.48096
608.8347, 20.48938
609.3168, 21.90088
609.7989, 28.63922
610.2810, 30.49664
610.7631, 22.59888
611.2452, 15.52509
611.7274, 13.79016
612.2095, 15.01666
612.6916, 14.97119
613.1737, 11.95941
613.6558, 8.871033
614.1379, 9.670288
614.6201, 13.88599
615.1022, 17.59821
615.5843, 20.38269
616.0664, 22.32336
616.5485, 22.34296
617.0306, 21.44104
617.5128, 23.70581
617.9949, 34.65247
618.4770, 42.39758
618.9591, 39.43115
619.4412, 32.07550
619.9233, 28.44543
620.4055, 30.18604
620.8876, 34.41205
621.3697, 39.30249
621.8518, 44.52429
622.3339, 43.45081
622.8160, 30.48267
623.2982, 21.70996
623.7803, 24.39520
624.2624, 30.95258
624.7445, 33.41687
625.2266, 30.70496
625.7087, 30.66736
626.1909, 43.54987
626.6730, 60.07794
627.1551, 62.48730
627.6372, 50.71960
628.1193, 39.61322
628.6014, 37.09253
629.0836, 39.67523
629.5657, 38.38104
630.0478, 25.31836
630.5299, 22.90918
631.0120, 43.44769
631.4941, 63.51215
631.9763, 67.06335
632.4584, 57.46246
632.9405, 45.83826
633.4226, 37.64850
633.9047, 33.04114
634.3868, 34.14551
634.8690, 41.85931
635.3511, 47.02612
635.8332, 46.39142
636.3153, 44.25055
636.7974, 46.63062
637.2795, 53.05939
637.7617, 55.66357
638.2438, 50.23999
638.7259, 43.54572
639.2080, 38.18188
639.6901, 34.42181
640.1722, 33.13519
640.6544, 34.37286
641.1365, 35.28870
641.6186, 33.02161
642.1007, 28.40692
642.5828, 28.08685
643.0649, 35.17242
643.5471, 39.87036
644.0292, 35.41785
644.5113, 29.11835
644.9934, 11.32178
645.4755, 35.59216
645.9576, 48.84369
646.4398, 51.63312
646.9219, 13.47845
647.4040, 28.05078
647.8861, 21.93262
648.3682, 15.20123
648.8503, 37.87567
649.3325, 6.375854
649.8146, 28.56000
650.2967, 29.32953
650.7788, 39.92804
651.2609, 29.28259
651.7430, 25.20465
652.2252, 42.38855
652.7073, 47.80719
653.1894, 34.73486
653.6715, 45.98267
654.1536, 13.78821
654.6357, 19.72681
655.1179, 42.12103
655.6000, 30.14050
656.0821, 41.80420
656.5642, 44.46954
657.0463, 6.214417
657.5284, 39.13025
658.0106, 41.27875
658.4927, 11.83533
658.9748, 42.32837
659.4569, 17.25104
659.9390, 12.01654
660.4211, 21.71582
660.9033, 15.85779
661.3854, 34.54126
661.8675, 29.59247
662.3496, 22.53717
662.8317, 24.70367
663.3138, 0.7590330
663.7960, 25.27130
664.2781, 16.69244
664.7602, 24.57068
665.2423, 36.18329
665.7244, 19.24927
666.2065, 32.54858
666.6887, 1.022644
667.1708, 4.634766
667.6529, 6.074097
668.1350, 32.59003
668.6171, 0.7299800
669.0992, 3.860535
669.5814, 24.59631
670.0635, 22.75531
670.5456, 30.36224
671.0277, 10.02307
671.5098, 15.94885
671.9919, 14.64264
672.4741, 38.35400
672.9562, 42.32629
673.4383, 22.49249
673.9204, 2.765930
674.4025, 28.30273
674.8846, 10.95105
675.3668, 16.74744
675.8489, 1.349976
676.3310, 1.195007
676.8131, 3.419495
677.2952, 16.22913
677.7773, 3.031372
678.2595, 19.32312
678.7416, 17.63544
679.2237, 23.03882
679.7058, 27.66095
680.1879, 1.9714000E-02
680.6700, 1.160034
681.1522, 35.52075
681.6343, 14.47949
682.1164, 5.096741
682.5985, 4.004028
683.0806, 42.00909
683.5627, 28.46106
684.0449, 26.57562
684.5270, 12.25018
685.0091, 4.453857
685.4912, 15.84680
685.9733, 21.87451
686.4554, 21.27600
686.9376, 6.825500
687.4197, 4.938660
687.9018, 12.06311
688.3839, 16.04193
688.8660, 17.07373
689.3481, 15.94470
689.8303, 15.34863
690.3124, 19.24359
690.7945, 22.55170
691.2766, 12.40613
691.7587, 9.366760
692.2408, 19.45874
692.7230, 8.564758
693.2051, 7.129822
693.6872, 7.584534
694.1693, 9.602600
694.6514, 11.79254
695.1335, 19.57141
695.6157, 42.21960
696.0978, 36.62726
696.5799, 20.06744
697.0620, 11.06903
697.5441, 13.37524
698.0262, 20.48505
698.5084, 30.77594
698.9905, 40.71295
699.4726, 16.88312
699.9547, 41.05670
700.4368, 54.44336
700.9189, 57.62292
701.4011, 20.00018
701.8832, 35.08313
702.3653, 29.05493
702.8474, 22.16864
703.3295, 44.69232
703.8116, 13.04675
704.2938, 35.12372
704.7759, 35.77081
705.2580, 46.24158
705.7401, 35.47247
706.2222, 31.27423
706.7043, 48.34015
707.1865, 53.64398
707.6686, 40.46075
708.1507, 51.60443
708.6328, 19.30548
709.1149, 25.14282
709.5970, 47.43896
710.0792, 27.94769
710.5613, 26.11139
711.0434, 27.07123
711.5255, 35.30627
712.0076, 42.05804
712.4897, 40.37573
712.9719, 34.64288
713.4540, 32.69031
713.9361, 37.18152
714.4182, 43.94019
714.9003, 48.74036
715.3824, 51.73511
715.8646, 53.67395
716.3467, 54.43555
716.8288, 55.14301
717.3109, 56.91174
717.7930, 58.48688
718.2751, 56.61719
718.7573, 49.12567
719.2394, 45.29645
719.7215, 50.60565
720.2036, 55.14368
720.6857, 50.67413
721.1678, 41.98749
721.6500, 38.63342
722.1321, 44.23883
722.6142, 52.56494
723.0963, 56.44214
723.5784, 56.63367
724.0605, 57.78613
724.5427, 60.69220
725.0248, 60.25830
725.5070, 51.96765
725.9891, 40.21417
726.4712, 34.89929
726.9533, 37.89099
727.4354, 42.29004
727.9175, 49.92010
728.3997, 56.75800
728.8818, 42.12683
729.3639, 66.49414
729.8460, 80.08453
730.3281, 83.47913
730.8102, 46.08160
731.2924, 61.39355
731.7745, 55.59711
732.2566, 48.94513
732.7387, 71.70685
733.2208, 40.30231
733.7029, 62.60004
734.1851, 63.48846
734.6672, 74.19830
735.1493, 63.66644
735.6314, 59.65216
736.1135, 76.95490
736.5956, 82.49567
737.0778, 69.54779
737.5599, 80.92694
738.0420, 48.85974
738.5241, 54.91522
739.0062, 77.44519
739.4883, 65.60364
739.9705, 77.40808
740.4526, 80.21729
740.9347, 42.11835
741.4168, 75.18286
741.8989, 77.48218
742.3810, 48.19244
742.8632, 78.76379
743.3453, 53.43427
743.8274, 47.73700
744.3095, 57.00146
744.7916, 51.17841
745.2737, 70.03442
745.7559, 65.26031
746.2380, 58.38184
746.7201, 60.72699
747.2022, 36.96320
747.6843, 60.69397
748.1664, 66.25574
748.6486, 72.08575
749.1307, 77.13159
749.6128, 74.12787
750.0949, 58.69031
750.5770, 41.77661
751.0591, 41.19568
751.5413, 61.11359
752.0234, 72.62256
752.5055, 71.58893
752.9876, 67.79443
753.4697, 60.29639
753.9518, 53.50421
754.4340, 53.79419
754.9161, 62.22888
755.3982, 68.86932
755.8803, 68.24365
756.3624, 64.12177
756.8445, 57.76056
757.3267, 51.10266
757.8088, 50.27789
758.2909, 57.20404
758.7730, 64.39935
759.2551, 61.24097
759.7372, 48.04193
760.2194, 43.72150
760.7015, 52.38629
761.1836, 60.12299
761.6657, 60.78699
762.1478, 59.70581
762.6299, 64.93768
763.1121, 76.54919
763.5942, 80.16888
764.0763, 65.48975
764.5584, 49.47198
765.0405, 39.41156
765.5226, 35.27917
766.0048, 38.44037
766.4869, 48.02240
766.9690, 57.66748
767.4511, 61.11731
767.9332, 60.57538
768.4153, 64.51569
768.8975, 73.23798
769.3796, 79.24835
769.8617, 80.05780
770.3438, 78.37665
770.8259, 75.19995
771.3080, 70.77917
771.7902, 73.98120
772.2723, 97.71826
772.7544, 112.0307
773.2365, 101.4761
773.7186, 84.91016
774.2007, 78.04321
774.6829, 81.84869
775.1650, 91.13342
775.6471, 106.3594
776.1292, 119.1705
776.6113, 114.3622
777.0934, 97.13647
777.5756, 87.40515
778.0577, 88.89374
778.5398, 91.20520
779.0219, 85.04120
779.5040, 74.16638
779.9861, 76.55194
780.4683, 102.7874
780.9504, 118.4031
781.4325, 115.1249
781.9146, 107.3173
782.3967, 98.63068
782.8788, 91.41595
783.3610, 90.87122
783.8431, 101.3965
784.3252, 109.5820
784.8073, 102.9836
785.2894, 91.79175
785.7715, 91.77283
786.2537, 101.5513
786.7358, 106.2159
787.2179, 97.35889
787.7000, 84.58209
788.1821, 86.86493
788.6642, 104.8809
789.1464, 113.7293
789.6285, 109.5497
790.1106, 107.6977
790.5927, 120.0291
791.0748, 135.7679
791.5569, 134.8386
792.0391, 113.3801
792.5212, 95.28778
793.0033, 81.54962
793.4854, 74.74188
793.9675, 80.52032
794.4496, 92.42737
794.9318, 103.1791
795.4139, 110.0952
795.8960, 110.0500
796.3781, 94.73242
796.8602, 72.54138
797.3423, 62.95270
797.8245, 65.11279
798.3066, 70.05316
798.7887, 75.50671
799.2708, 80.11914
799.7529, 81.93402
800.2350, 80.99792
800.7172, 82.96155
801.1993, 93.05841
801.6814, 98.17072
802.1635, 93.53918
802.6456, 85.98907
803.1277, 79.19940
803.6099, 73.88733
804.0920, 69.99249
804.5741, 68.86652
805.0562, 67.60046
805.5383, 61.21729
806.0204, 53.86749
806.5026, 50.84387
806.9847, 52.96808
807.4668, 60.74890
807.9489, 75.54498
808.4310, 91.57733
808.9131, 95.12726
809.3953, 85.78296
809.8774, 73.06726
810.3595, 53.40027
810.8416, 45.31689
811.3237, 68.56482
811.8058, 106.1089
812.2880, 113.7108
812.7701, 75.21051
813.2522, 50.22803
813.7343, 49.77783
814.2164, 54.91040
814.6985, 61.20233
815.1807, 65.10986
815.6628, 60.12732
816.1449, 45.17407
816.6270, 33.32196
817.1091, 40.04889
817.5912, 52.44226
818.0734, 48.76929
818.5555, 33.07220
819.0376, 23.14386
819.5197, 24.58521
820.0018, 28.78241
820.4839, 25.46490
820.9661, 16.01428
821.4482, 16.56226
821.9303, 32.48425
822.4124, 43.14056
822.8945, 41.57599
823.3766, 35.98376
823.8588, 34.37042
824.3409, 35.30804
824.8230, 30.97687
825.3051, 11.45135
825.7872, 1.482361
826.2693, 4.597046
826.7515, 15.04419
827.2336, 16.64978
827.7157, 10.83704
828.1978, 5.140564
828.6799, 2.612671
829.1620, 4.565002
829.6442, 16.92938
830.1263, 34.60345
830.6084, 40.75031
831.0905, 34.72186
831.5726, 29.54749
832.0547, 32.10028
832.5369, 36.53662
833.0190, 31.86554
833.5011, 15.76337
833.9832, 5.081055
834.4653, 0.2167360
834.9474, 0.1566770
835.4296, 13.91974
835.9117, 27.85895
836.3938, 23.65308
836.8759, 1.417542
837.3580, 10.48615
837.8401, 3.444214
838.3223, 19.27014
838.8044, 26.54242
839.2865, 28.22040
839.7686, 27.39099
840.2507, 24.94574
840.7328, 21.05029
841.2150, 15.33478
841.6971, 9.394043
842.1792, 7.226746
842.6613, 7.304321
843.1434, 1.326233
843.6255, 12.02399
844.1077, 24.88995
844.5898, 32.99084
845.0719, 35.95844
845.5540, 30.53235
846.0361, 11.06860
846.5182, 0.3174440
847.0004, 3.796082
847.4825, 8.447327
847.9646, 9.772705
848.4467, 7.855042
848.9288, 1.364441
849.4109, 10.55298
849.8931, 18.77112
850.3752, 17.13123
850.8573, 15.13202
851.3394, 18.96979
851.8215, 25.57599
852.3036, 31.11017
852.7858, 34.54187
853.2679, 35.68237
853.7500, 33.88837
854.2321, 30.27893
854.7142, 26.09357
855.1964, 21.68188
855.6785, 18.32080
856.1606, 16.26569
856.6427, 15.50647
857.1248, 16.43677
857.6069, 18.08710
858.0891, 17.11829
858.5712, 11.37943
859.0533, 6.673920
859.5354, 1.388794
860.0175, 0.8490300
860.4996, 14.51602
860.9818, 31.57800
861.4639, 32.69025
861.9460, 12.64163
862.4281, 1.139221
862.9102, 9.168243
863.3923, 20.70078
863.8745, 32.63428
864.3566, 40.59753
864.8387, 36.30774
865.3208, 20.69574
865.8029, 8.309631
866.2850, 10.03925
866.7672, 18.45474
867.2493, 26.20856
867.7314, 32.64368
868.2136, 35.80334
868.6957, 35.47656
869.1778, 32.71179
869.6599, 27.67236
870.1420, 22.73843
870.6241, 25.50748
871.1063, 37.65845
871.5884, 42.78085
872.0705, 36.35989
872.5526, 28.69131
873.0347, 25.07645
873.5168, 23.92151
873.9990, 21.92303
874.4811, 17.95477
874.9632, 17.49475
875.4453, 24.52457
875.9274, 30.19003
876.4095, 30.44128
876.8917, 28.79703
877.3738, 28.49597
877.8559, 30.02713
878.3380, 33.03687
878.8201, 37.97357
879.3022, 43.59756
879.7844, 53.43280
880.2665, 61.10275
880.7486, 52.94458
881.2307, 31.76135
881.7128, 15.36084
882.1949, 14.01611
882.6771, 21.27026
883.1592, 28.57993
883.6413, 35.60077
884.1234, 41.32971
884.6055, 45.45230
885.0876, 51.41211
885.5698, 62.24234
886.0519, 70.26288
886.5340, 62.22662
887.0161, 36.17883
887.4982, 22.94843
887.9803, 29.55865
888.4625, 36.14603
888.9446, 39.28787
889.4267, 39.74576
889.9088, 36.88644
890.3909, 31.60471
890.8730, 28.07153
891.3552, 25.78452
891.8373, 26.81857
892.3194, 34.81378
892.8015, 43.47385
893.2836, 47.68359
893.7657, 48.48303
894.2479, 49.71112
894.7300, 52.57938
895.2121, 53.96921
895.6942, 52.44992
896.1763, 49.56332
896.6584, 49.37991
897.1406, 50.58722
897.6227, 47.49289
898.1048, 38.93976
898.5869, 31.42810
899.0690, 31.41809
899.5511, 37.20093
900.0333, 45.18530
900.5154, 55.82388
900.9975, 53.29749
901.4796, 29.78610
901.9617, 12.09180
902.4438, 23.49872
902.9260, 50.69708
903.4081, 53.62454
903.8902, 16.47391
904.3723, 2.162445
904.8544, 9.142212
905.3365, 22.89859
905.8187, 31.25974
906.3008, 36.39563
906.7829, 42.24008
907.2650, 49.07864
907.7471, 48.51422
908.2292, 30.03488
908.7114, 14.03467
909.1935, 11.52652
909.6756, 14.75528
910.1577, 15.13998
910.6398, 13.07343
911.1219, 14.87048
911.6041, 24.90991
912.0862, 34.74866
912.5683, 35.74081
913.0504, 31.34714
913.5325, 27.28677
914.0146, 23.49988
914.4968, 15.91949
914.9789, 3.114655
915.4610, 6.518402
915.9431, 1.391266
916.4252, 15.42242
916.9073, 29.47180
917.3895, 40.75150
917.8716, 47.73813
918.3537, 50.32205
918.8358, 49.52039
919.3179, 45.82684
919.8000, 39.82889
920.2822, 34.53128
920.7643, 31.00397
921.2464, 27.76544
921.7285, 22.54263
922.2106, 20.08240
922.6927, 24.16772
923.1749, 31.71234
923.6570, 39.31516
924.1391, 48.04971
924.6212, 50.95920
925.1033, 41.95969
925.5854, 33.04593
926.0676, 27.75006
926.5497, 25.50497
927.0318, 29.05081
927.5139, 35.44852
927.9960, 33.05759
928.4781, 11.39551
928.9603, 7.445679
929.4424, 3.649292
929.9245, 9.128479
930.4066, 15.44632
930.8887, 15.50555
931.3708, 14.45554
931.8530, 14.37039
932.3351, 15.51718
932.8172, 18.78302
933.2993, 23.56412
933.7814, 28.88516
934.2635, 34.34412
934.7457, 36.83386
935.2278, 35.78555
935.7099, 32.85889
936.1920, 29.03217
936.6741, 25.10074
937.1563, 23.68924
937.6384, 25.25912
938.1205, 27.17615
938.6026, 29.43204
939.0847, 29.22543
939.5668, 24.77295
940.0490, 18.89072
940.5311, 15.80542
941.0132, 15.66397
941.4953, 16.80908
941.9774, 19.31262
942.4595, 22.94199
942.9417, 29.57709
943.4238, 35.59921
943.9059, 38.03973
944.3880, 37.61261
944.8701, 36.81436
945.3522, 33.91171
945.8344, 34.25421
946.3165, 45.03540
946.7986, 53.49039
947.2807, 49.42206
947.7628, 38.38110
948.2449, 28.04648
948.7271, 20.51929
949.2092, 18.44159
949.6913, 30.33939
950.1734, 41.48550
950.6555, 35.81265
951.1376, 22.38300
951.6198, 14.57938
952.1019, 13.66830
952.5840, 14.61392
953.0661, 14.66049
953.5482, 15.72879
954.0303, 23.69495
954.5125, 33.68124
954.9946, 28.76816
955.4767, 11.83453
955.9588, 5.930573
956.4409, 19.01700
956.9230, 34.80731
957.4052, 34.76065
957.8873, 23.67780
958.3694, 23.08252
958.8515, 33.75125
959.3336, 39.42346
959.8157, 37.57272
960.2979, 29.57916
960.7800, 12.68539
961.2621, 4.633850
961.7442, 2.540649
962.2263, 24.85495
962.7084, 37.47253
963.1906, 26.04202
963.6727, 17.41513
964.1548, 20.48981
964.6369, 28.08542
965.1190, 34.89978
965.6011, 40.56540
966.0833, 42.34744
966.5654, 35.23544
967.0475, 31.61044
967.5296, 36.28528
968.0117, 40.58264
968.4938, 38.89331
968.9760, 34.36960
969.4581, 31.79794
969.9402, 31.83304
970.4223, 33.20422
970.9044, 37.15906
971.3865, 40.38965
971.8687, 41.48224
972.3508, 40.74146
972.8329, 37.96198
973.3150, 33.27695
973.7971, 28.12262
974.2792, 22.12448
974.7614, 18.41922
975.2435, 21.23166
975.7256, 26.24582
976.2077, 29.88232
976.6898, 31.28903
977.1719, 28.45248
977.6541, 21.47845
978.1362, 14.51184
978.6183, 10.37817
979.1004, 8.780396
979.5825, 10.69800
980.0646, 14.52405
980.5468, 15.19843
981.0289, 12.69000
981.5110, 11.21371
981.9931, 12.86481
982.4752, 15.91498
982.9573, 18.40851
983.4395, 20.20813
983.9216, 19.38449
984.4037, 16.06137
984.8858, 17.55704
985.3679, 26.16302
985.8500, 34.31436
986.3322, 35.90607
986.8143, 32.37027
987.2964, 30.61127
987.7785, 31.47241
988.2606, 27.12756
988.7427, 13.53992
989.2249, 8.817596
989.7070, 25.52457
990.1891, 44.28354
990.6712, 38.66571
991.1533, 10.31952
991.6354, 2.291412
992.1176, 9.858154
992.5997, 19.01917
993.0818, 23.07217
993.5639, 22.52350
994.0460, 14.90814
994.5281, 3.909332
995.0103, 3.957336
995.4924, 9.246765
995.9745, 8.856812
996.4566, 3.062134
996.9387, 13.22501
997.4208, 16.41568
997.9030, 17.95676
998.3851, 23.48892
998.8672, 31.25095
999.3493, 34.40094
999.8314, 30.15414
1000.314, 25.26068
1000.796, 22.04498
1001.278, 18.10858
1001.760, 7.090820
1002.242, 2.686798
1002.724, 2.863708
1003.206, 22.97684
1003.688, 38.24597
1004.170, 39.43802
1004.653, 35.24805
1005.135, 27.22391
1005.617, 19.00690
1006.099, 13.56735
1006.581, 11.18311
1007.063, 12.83411
1007.545, 18.51007
1008.027, 21.76324
1008.510, 14.57718
1008.992, 5.898621
1009.474, 4.710663
1009.956, 8.484344
1010.438, 15.70654
1010.920, 23.81671
1011.402, 25.11404
1011.884, 15.37952
1012.367, 3.139404
1012.849, 2.397858
1013.331, 4.009491
1013.813, 8.774139
1014.295, 13.85614
1014.777, 7.648529
1015.259, 10.73624
1015.741, 26.06631
1016.223, 26.14688
1016.706, 20.16180
1017.188, 26.09207
1017.670, 39.32654
1018.152, 40.58029
1018.634, 30.55243
1019.116, 26.30240
1019.598, 35.08447
1020.080, 44.94681
1020.563, 43.43362
1021.045, 34.53848
1021.527, 31.22202
1022.009, 32.83087
1022.491, 27.92929
1022.973, 14.84317
1023.455, 3.935059
1023.937, 0.2018130
1024.419, 2.689056
1024.901, 10.10037
1025.384, 22.12915
1025.866, 32.62766
1026.348, 41.94955
1026.830, 45.71460
1027.312, 42.16278
1027.794, 36.93927
1028.276, 33.11328
1028.758, 31.49451
1029.241, 34.90149
1029.723, 44.63651
1030.205, 48.09689
1030.687, 44.80939
1031.169, 35.51932
1031.651, 16.09314
1032.133, 0.8445130
1032.615, 3.663483
1033.098, 19.84427
1033.580, 31.69583
1034.062, 38.79788
1034.544, 42.78848
1035.026, 43.80765
1035.508, 41.13748
1035.990, 32.11813
1036.472, 22.19489
1036.954, 16.81940
1037.437, 15.87292
1037.919, 17.92874
1038.401, 26.31567
1038.883, 31.18759
1039.365, 27.59683
1039.847, 27.32495
1040.329, 41.25879
1040.811, 57.58871
1041.293, 58.32938
1041.776, 42.78949
1042.258, 33.63794
1042.740, 35.95514
1043.222, 37.83841
1043.704, 36.62680
1044.186, 36.44193
1044.668, 44.08316
1045.150, 52.96307
1045.633, 50.65982
1046.115, 35.01569
1046.597, 21.20435
1047.079, 5.535034
1047.561, 1.458466
1048.043, 10.28937
1048.525, 24.08350
1049.007, 28.02856
1049.490, 24.85175
1049.972, 22.33252
1050.454, 21.12985
1050.936, 20.84821
1051.418, 19.45874
1051.900, 20.46259
1052.382, 29.03860
1052.864, 37.54630
1053.346, 36.36365
1053.828, 29.02997
1054.311, 25.98096
1054.793, 29.42853
1055.275, 33.86176
1055.757, 41.08484
1056.239, 45.07507
1056.721, 41.81860
1057.203, 35.48718
1057.685, 29.06024
1058.168, 23.46280
1058.650, 20.74817
1059.132, 22.55243
1059.614, 24.74451
1060.096, 25.63147
1060.578, 26.03931
1061.060, 27.60507
1061.542, 27.82007
1062.025, 20.03992
1062.507, 6.575195
1062.989, 3.562286
1063.471, 23.81915
1063.953, 40.34576
1064.435, 43.28870
1064.917, 38.67053
1065.399, 24.31323
1065.881, 8.455780
1066.364, 2.483704
1066.846, 7.263977
1067.328, 14.75381
1067.810, 26.58429
1068.292, 33.64069
1068.774, 26.64819
1069.256, 18.61700
1069.738, 21.14417
1070.220, 28.98447
1070.703, 32.22296
1071.185, 29.44427
1071.667, 27.00604
1072.149, 26.67123
1072.631, 29.14764
1073.113, 39.05060
1073.595, 47.21570
1074.077, 42.68762
1074.560, 32.27502
1075.042, 31.71039
1075.524, 43.50510
1076.006, 46.21387
1076.488, 14.00104
1076.970, 8.644897
1077.452, 4.124329
1077.934, 20.57303
1078.417, 34.46887
1078.899, 38.12991
1079.381, 0.9807130
1079.863, 16.52829
1080.345, 10.95685
1080.827, 4.518921
1081.309, 27.45642
1081.791, 3.801758
1082.273, 18.66077
1082.756, 19.71295
1083.238, 30.57812
1083.720, 20.19397
1084.202, 16.37238
1084.684, 33.80658
1085.166, 39.47079
1085.648, 26.63892
1086.130, 38.12567
1086.613, 6.161530
1087.095, 12.32544
1087.577, 34.93958
1088.059, 23.17416
1088.541, 35.04755
1089.023, 37.92917
1089.505, 0.1006770
1089.987, 32.97961
1090.469, 35.29047
1090.952, 6.029327
1091.434, 36.72638
1091.916, 11.94409
1092.398, 6.874695
1092.880, 16.73349
1093.362, 11.02936
1093.844, 29.86090
1094.326, 25.05475
1094.808, 18.13638
1095.291, 20.43396
1095.773, 3.385193
1096.255, 21.24451
1096.737, 12.77734
1097.219, 20.76389
1097.701, 32.47900
1098.183, 15.64130
1098.665, 29.03104
1099.148, 4.455933
1099.630, 1.277130
1100.112, 2.797394
1100.594, 29.71152
1101.076, 3.531586
1101.558, 1.107544
1102.040, 21.88525
1102.522, 20.07990
1103.005, 27.71591
1103.487, 7.399597
1103.969, 13.34164
1104.451, 12.06943
1104.933, 35.79456
1105.415, 39.64548
1105.897, 19.80157
1106.379, 5.7921998E-02
1106.861, 25.57016
1107.344, 8.187714
1107.826, 13.94641
1108.308, 4.195374
1108.790, 1.704285
1109.272, 0.4578250
1109.754, 13.19769
1110.236, 6.139679
1110.718, 16.15967
1111.200, 14.41528
1111.683, 19.72260
1112.165, 24.24164
1112.647, 1.334900
1113.129, 6.259247
1113.611, 1.321808
1114.093, 9.232788
1114.575, 28.32837
1115.057, 38.00552
1115.540, 34.83963
1116.022, 27.31528
1116.504, 9.230194
1116.986, 3.710693
1117.468, 2.333160
1117.950, 17.58313
1118.432, 22.90848
1118.914, 16.85074
1119.396, 12.81372
1119.879, 10.05963
1120.361, 11.17191
1120.843, 18.98117
1121.325, 26.82263
1121.807, 32.01776
1122.289, 34.88950
1122.771, 36.24698
1123.253, 36.18756
1123.735, 30.86005
1124.218, 17.21332
1124.700, 8.149475
1125.182, 5.564575
1125.664, 8.130066
1126.146, 17.12213
1126.628, 26.85709
1127.110, 28.57446
1127.592, 22.84738
1128.075, 17.61383
1128.557, 12.48889
1129.039, 10.12790
1129.521, 10.78607
1130.003, 15.91040
1130.485, 27.72794
1130.967, 37.27521
1131.449, 31.65298
1131.932, 14.58389
1132.414, 8.608215
1132.896, 13.63336
1133.378, 23.25153
1133.860, 36.94980
1134.342, 38.54581
1134.824, 19.90768
1135.306, 1.318970
1135.788, 3.754944
1136.271, 19.56650
1136.753, 34.40872
1137.235, 46.98535
1137.717, 48.35892
1138.199, 39.26120
1138.681, 29.78873
1139.163, 23.52542
1139.645, 21.12631
1140.127, 25.11957
1140.610, 30.02472
1141.092, 23.86475
1141.574, 12.42520
1142.056, 11.00143
1142.538, 18.06723
1143.020, 26.35034
1143.502, 33.17468
1143.984, 35.24841
1144.467, 29.64722
1144.949, 21.21167
1145.431, 14.15515
1145.913, 8.793335
1146.395, 5.720490
1146.877, 4.723511
1147.359, 6.548584
1147.841, 10.26898
1148.323, 10.28732
1148.806, 2.083527
1149.288, 1.205719
1149.770, 18.75616
1150.252, 39.86975
1150.734, 39.18546
1151.216, 28.83661
1151.698, 26.36679
1152.180, 31.39151
1152.662, 33.27606
1153.145, 27.79688
1153.627, 24.92117
1154.109, 34.04355
1154.591, 42.73950
1155.073, 42.21307
1155.555, 38.13773
1156.037, 36.43613
1156.519, 34.98788
1157.002, 25.69873
1157.484, 6.320740
1157.966, 4.492828
1158.448, 4.278381
1158.930, 12.05350
1159.412, 13.89880
1159.894, 13.59116
1160.376, 13.52188
1160.859, 13.04095
1161.341, 9.728516
1161.823, 3.212250
1162.305, 2.294708
1162.787, 10.53403
1163.269, 17.78833
1163.751, 21.99426
1164.233, 27.36932
1164.715, 37.57104
1165.198, 47.96805
1165.680, 54.07803
1166.162, 55.10468
1166.644, 46.76379
1167.126, 25.55923
1167.608, 10.28067
1168.090, 1.117065
1168.572, 0.4112550
1169.054, 9.738800
1169.537, 20.98758
1170.019, 27.43124
1170.501, 28.76334
1170.983, 20.82300
1171.465, 5.531036
1171.947, 7.875153
1172.429, 26.86755
1172.911, 35.36191
1173.394, 27.21649
1173.876, 16.86694
1174.358, 13.29974
1174.840, 14.37177
1175.322, 19.64734
1175.804, 26.88907
1176.286, 33.59470
1176.768, 37.38589
1177.250, 25.49213
1177.733, 2.213043
1178.215, 4.770691
1178.697, 16.10587
1179.179, 37.95438
1179.661, 34.54633
1180.143, 22.34518
1180.625, 18.05298
1181.107, 17.24139
1181.589, 12.24594
1182.072, 6.163696
1182.554, 9.044189
1183.036, 22.09155
1183.518, 32.28122
1184.000, 33.59494
1184.482, 29.48065
1184.964, 15.49698
1185.446, 4.225250
1185.929, 7.304321
1186.411, 16.96603
1186.893, 24.67990
1187.375, 28.62668
1187.857, 24.89926
1188.339, 3.557495
1188.821, 4.657898
1189.303, 18.66907
1189.786, 36.70770
1190.268, 33.03653
1190.750, 23.92194
1191.232, 22.74844
1191.714, 25.00351
1192.196, 17.51154
1192.678, 3.657959
1193.160, 7.612732
1193.642, 14.21808
1194.125, 25.20129
1194.607, 14.92380
1195.089, 6.883240
1195.571, 14.98779
1196.053, 30.11334
1196.535, 40.10138
1197.017, 44.48840
1197.499, 36.44745
1197.981, 16.30136
1198.464, 8.190979
1198.946, 13.75128
1199.428, 20.31171
1199.910, 23.30222
1200.392, 24.33978
1200.874, 24.49149
1201.356, 24.38199
1201.838, 25.59497
1202.321, 27.34680
1202.803, 28.55014
1203.285, 28.68921
1203.767, 25.15903
1204.249, 18.96246
1204.731, 17.05157
1205.213, 23.38196
1205.695, 30.47839
1206.177, 33.55197
1206.660, 33.94278
1207.142, 30.06030
1207.624, 26.34415
1208.106, 30.18524
1208.588, 37.35593
1209.070, 35.26932
1209.552, 20.84781
1210.034, 13.69708
1210.516, 31.33817
1210.999, 39.18478
1211.481, 12.80289
1211.963, 7.841187
1212.445, 8.434326
1212.927, 36.74460
1213.409, 45.09363
1213.891, 36.41803
1214.373, 31.89008
1214.856, 33.80084
1215.338, 32.86841
1215.820, 26.93716
1216.302, 24.06635
1216.784, 26.60815
1217.266, 30.94611
1217.748, 35.10654
1218.230, 37.49081
1218.713, 34.34781
1219.195, 26.28903
1219.677, 17.55499
1220.159, 8.771851
1220.641, 6.675415
1221.123, 11.28946
1221.605, 13.36682
1222.087, 8.938629
1222.569, 4.878723
1223.052, 8.640076
1223.534, 15.14609
1224.016, 16.23694
1224.498, 15.60110
1224.980, 19.74783
1225.462, 26.87546
1225.944, 33.44995
1226.426, 37.83826
1226.909, 36.04697
1227.391, 22.76114
1227.873, 15.23380
1228.355, 29.32724
1228.837, 42.80569
1229.319, 40.54974
1229.801, 33.31955
1230.283, 30.69748
1230.766, 32.20392
1231.248, 35.74936
1231.730, 41.85507
1232.212, 42.97369
1232.694, 32.35657
1233.176, 29.64157
1233.658, 42.93420
1234.140, 51.95114
1234.622, 44.77109
1235.104, 33.34082
1235.587, 31.53616
1236.069, 36.35324
1236.551, 34.85257
1237.033, 26.92828
1237.515, 25.87671
1237.997, 31.86334
1238.479, 37.95831
1238.961, 41.83151
1239.444, 39.05295
1239.926, 25.61646
1240.408, 9.849854
1240.890, 0.8316650
1241.372, 4.170502
1241.854, 4.696686
1242.336, 17.83472
1242.818, 19.26447
1243.301, 11.84177
1243.783, 6.670685
1244.265, 7.005737
1244.747, 11.48431
1245.229, 21.28979
1245.711, 31.53503
1246.193, 45.21109
1246.675, 52.37955
1247.157, 41.36337
1247.640, 24.69449
1248.122, 14.11865
1248.604, 10.17999
1249.086, 13.02917
1249.568, 26.09863
1250.050, 30.15448
1250.532, 18.24469
1251.014, 12.98441
1251.496, 20.12521
1251.979, 24.01468
1252.461, 15.60422
1252.943, 3.503693
1253.425, 1.717804
1253.907, 1.755829
1254.389, 4.462402
1254.871, 8.419800
1255.353, 1.317078
1255.836, 21.99561
1256.318, 31.10562
1256.800, 24.17816
1257.282, 13.23184
1257.764, 4.529327
1258.246, 1.933807
1258.728, 14.41422
1259.210, 30.05551
1259.693, 37.90347
1260.175, 39.45657
1260.657, 34.01172
1261.139, 25.17999
1261.621, 18.41260
1262.103, 15.11581
1262.585, 18.00595
1263.067, 36.82635
1263.549, 46.88327
1264.031, 34.49146
1264.514, 24.04547
1264.996, 25.76868
1265.478, 32.09799
1265.960, 33.96310
1266.442, 33.73706
1266.924, 38.86002
1267.406, 49.71030
1267.888, 49.32574
1268.371, 36.48148
1268.853, 28.09656
1269.335, 26.55191
1269.817, 28.44659
1270.299, 32.41321
1270.781, 32.72089
1271.263, 21.25620
1271.745, 6.650757
1272.228, 12.41977
1272.710, 26.35309
1273.192, 34.42303
1273.674, 35.95230
1274.156, 28.68283
1274.638, 15.24731
1275.120, 5.104736
1275.602, 1.357727
1276.084, 1.108765
1276.567, 6.093292
1277.049, 10.10583
1277.531, 8.889832
1278.013, 7.881989
1278.495, 11.24695
1278.977, 16.29456
1279.459, 20.01190
1279.941, 22.30792
1280.423, 22.39462
1280.906, 19.71494
1281.388, 17.69562
1281.870, 16.10562
1282.352, 13.92245
1282.834, 12.58359
1283.316, 13.34280
1283.798, 17.91074
1284.280, 20.31476
1284.763, 11.08459
1285.245, 0.9890140
1285.727, 2.447723
1286.209, 16.35651
1286.691, 38.34839
1287.173, 47.16919
1287.655, 35.06210
1288.137, 0.0000000E+00
##END=



