##NAMES=Tourmaline
##RRUFFID=R080010
##LOCALITY=east Africa
##OWNER=RRUFF
##SOURCE=www.multicolour.com
##DESCRIPTION=Green gemmy fragments, consistent with dravite
##STATUS=The identification of this mineral has been confirmed only by X-ray diffraction
##URL=rruff.info/R080010
169.0341, 0.0000000E+00
169.5162, 120.5547
169.9984, 171.3242
170.4805, 51.23828
170.9626, 2.980469
171.4447, 66.28906
171.9268, 200.6914
172.4089, 276.0977
172.8911, 230.6758
173.3732, 207.4453
173.8553, 216.7617
174.3374, 236.8555
174.8195, 264.5312
175.3016, 300.4219
175.7838, 329.0859
176.2659, 335.7148
176.7480, 302.6289
177.2301, 289.0938
177.7122, 268.4180
178.1943, 257.3047
178.6765, 256.9883
179.1586, 271.0391
179.6407, 300.6758
180.1228, 298.5039
180.6049, 211.8750
181.0870, 150.5664
181.5692, 135.6055
182.0513, 127.0898
182.5334, 123.9180
183.0155, 138.5234
183.4976, 151.4375
183.9797, 160.5547
184.4619, 87.50000
184.9440, 34.99219
185.4261, 28.57812
185.9082, 46.16797
186.3903, 53.61328
186.8724, 38.81641
187.3545, 19.79688
187.8367, 28.35938
188.3188, 110.7227
188.8009, 153.7969
189.2830, 124.0781
189.7651, 67.96875
190.2472, 33.44141
190.7294, 36.12109
191.2115, 61.35156
191.6936, 83.37891
192.1757, 112.9883
192.6578, 120.9609
193.1399, 72.10156
193.6221, 17.91016
194.1042, 27.65234
194.5863, 119.9375
195.0684, 231.8203
195.5505, 255.3906
196.0326, 116.9414
196.5148, 20.48828
196.9969, 8.390625
197.4790, 4.535156
197.9611, 9.253906
198.4432, 32.42188
198.9253, 41.58984
199.4075, 15.18750
199.8896, 202.4492
200.3717, 321.6328
200.8538, 344.0781
201.3359, 313.2383
201.8180, 244.7539
202.3002, 147.3555
202.7823, 66.29688
203.2644, 64.71484
203.7465, 187.9570
204.2286, 284.6719
204.7107, 351.7148
205.1928, 394.1172
205.6750, 405.7695
206.1571, 388.4844
206.6392, 366.8008
207.1213, 369.9609
207.6034, 406.4102
208.0855, 441.2266
208.5677, 471.2578
209.0498, 501.0352
209.5319, 535.5859
210.0140, 574.4766
210.4961, 610.4023
210.9782, 634.0898
211.4604, 640.2461
211.9425, 659.1094
212.4246, 719.4531
212.9067, 776.5664
213.3888, 790.3008
213.8709, 738.6250
214.3531, 674.0469
214.8352, 641.4648
215.3173, 640.3984
215.7994, 637.4258
216.2815, 640.6680
216.7636, 651.0898
217.2458, 667.4258
217.7279, 683.5000
218.2100, 689.7930
218.6921, 674.8438
219.1742, 638.1953
219.6563, 598.6289
220.1385, 554.5469
220.6206, 511.0312
221.1027, 463.8906
221.5848, 418.4062
222.0669, 390.9336
222.5490, 396.3438
223.0312, 432.0273
223.5133, 436.4609
223.9954, 410.6250
224.4775, 359.9453
224.9596, 253.6484
225.4417, 123.5977
225.9238, 36.93750
226.4060, 37.39062
226.8881, 116.1758
227.3702, 166.5508
227.8523, 157.5195
228.3344, 156.9180
228.8165, 194.8242
229.2987, 248.4336
229.7808, 272.4453
230.2629, 241.4375
230.7450, 176.3945
231.2271, 153.6992
231.7092, 244.5039
232.1914, 293.7852
232.6735, 244.8945
233.1556, 162.7812
233.6377, 123.1172
234.1198, 156.8594
234.6019, 234.7617
235.0841, 290.8750
235.5662, 321.9375
236.0483, 331.4492
236.5304, 286.9609
237.0125, 238.9492
237.4946, 241.5625
237.9768, 308.2773
238.4589, 401.8711
238.9410, 463.7852
239.4231, 493.2266
239.9052, 487.3516
240.3873, 387.1289
240.8695, 296.7656
241.3516, 308.4062
241.8337, 428.4453
242.3158, 578.8984
242.7979, 664.8828
243.2800, 677.0391
243.7622, 652.6367
244.2443, 551.8359
244.7264, 453.5859
245.2085, 405.5273
245.6906, 405.5273
246.1727, 416.9844
246.6548, 400.6719
247.1370, 350.3555
247.6191, 318.4688
248.1012, 332.4141
248.5833, 339.8086
249.0654, 305.7227
249.5475, 247.3477
250.0297, 214.1250
250.5118, 255.0938
250.9939, 362.2734
251.4760, 393.1875
251.9581, 255.8086
252.4402, 142.2070
252.9224, 114.3398
253.4045, 140.3047
253.8866, 166.8086
254.3687, 164.5586
254.8508, 137.0781
255.3329, 99.44531
255.8151, 41.39844
256.2972, 13.62891
256.7793, 79.85156
257.2614, 128.0430
257.7435, 118.7422
258.2256, 28.13281
258.7078, 90.50391
259.1899, 126.0352
259.6720, 44.47266
260.1541, 28.39062
260.6362, 65.83203
261.1183, 79.41016
261.6005, 68.71875
262.0826, 33.41797
262.5647, 3.562500
263.0468, 10.25781
263.5289, 18.14453
264.0110, 39.53516
264.4932, 47.26172
264.9753, 42.48047
265.4574, 17.39453
265.9395, 27.11328
266.4216, 64.42188
266.9037, 55.98438
267.3859, 8.988281
267.8680, 11.01562
268.3501, 117.4219
268.8322, 219.2578
269.3143, 216.9062
269.7964, 130.3555
270.2786, 69.63281
270.7607, 124.0703
271.2428, 248.9961
271.7249, 322.7227
272.2070, 330.8438
272.6891, 301.6016
273.1713, 231.5781
273.6534, 138.3867
274.1355, 64.32422
274.6176, 19.74219
275.0997, 2.730469
275.5818, 24.49219
276.0640, 90.01562
276.5461, 139.7070
277.0282, 119.6250
277.5103, 60.23047
277.9924, 39.20703
278.4745, 81.56250
278.9566, 144.2461
279.4388, 207.7891
279.9209, 269.0898
280.4030, 308.1641
280.8851, 313.8008
281.3672, 293.1602
281.8493, 265.4570
282.3315, 229.5039
282.8136, 190.8633
283.2957, 148.8828
283.7778, 106.4023
284.2599, 68.28906
284.7420, 35.45312
285.2242, 12.37891
285.7063, 10.07031
286.1884, 37.52344
286.6705, 58.31641
287.1526, 80.34375
287.6347, 87.87109
288.1169, 44.56641
288.5990, 50.90625
289.0811, 130.6875
289.5632, 111.7305
290.0453, 40.69922
290.5274, 123.4258
291.0096, 83.74609
291.4917, 24.87109
291.9738, 2.109375
292.4559, 14.68359
292.9380, 36.76953
293.4201, 50.00781
293.9023, 53.80469
294.3844, 48.05859
294.8665, 1.742188
295.3486, 24.80078
295.8307, 27.59766
296.3128, 112.6055
296.7950, 156.5273
297.2771, 118.3203
297.7592, 29.59766
298.2413, 8.921875
298.7234, 37.44141
299.2055, 87.13672
299.6877, 140.6055
300.1698, 189.7734
300.6519, 226.0586
301.1340, 247.5664
301.6161, 261.0195
302.0982, 278.5312
302.5804, 307.1719
303.0625, 317.7344
303.5446, 281.3047
304.0267, 249.0391
304.5088, 249.2344
304.9909, 281.5273
305.4731, 327.1250
305.9552, 383.0273
306.4373, 447.6641
306.9194, 463.1797
307.4015, 380.9102
307.8836, 315.5391
308.3658, 329.0781
308.8479, 398.0781
309.3300, 473.7383
309.8121, 542.4531
310.2942, 596.3750
310.7763, 618.0000
311.2585, 603.4023
311.7406, 570.0312
312.2227, 505.5430
312.7048, 433.8516
313.1869, 386.1211
313.6690, 373.4688
314.1512, 373.3281
314.6333, 356.2500
315.1154, 327.9375
315.5975, 340.3008
316.0796, 439.6211
316.5617, 558.2070
317.0439, 589.0352
317.5260, 515.7617
318.0081, 453.3984
318.4902, 476.5234
318.9723, 532.5781
319.4544, 518.0312
319.9365, 406.3945
320.4186, 287.8164
320.9008, 259.0273
321.3829, 330.6953
321.8650, 404.2188
322.3471, 501.0156
322.8292, 580.6445
323.3113, 611.9883
323.7935, 597.5547
324.2756, 551.1250
324.7577, 472.5117
325.2398, 370.6250
325.7219, 348.9414
326.2040, 507.0742
326.6862, 619.4453
327.1683, 596.9531
327.6504, 501.2500
328.1325, 421.3438
328.6146, 396.0078
329.0967, 409.1719
329.5789, 427.0000
330.0610, 453.8320
330.5431, 478.4258
331.0252, 509.7305
331.5073, 533.1055
331.9894, 533.7891
332.4716, 512.2695
332.9537, 484.9844
333.4358, 469.0234
333.9179, 465.4375
334.4000, 465.7891
334.8821, 470.5156
335.3643, 479.3906
335.8464, 489.3750
336.3285, 503.3086
336.8106, 530.8828
337.2927, 592.1914
337.7748, 661.3477
338.2570, 644.7344
338.7391, 488.8945
339.2212, 390.5391
339.7033, 497.4453
340.1854, 676.9336
340.6675, 796.8555
341.1497, 825.9727
341.6318, 794.6172
342.1139, 684.2812
342.5960, 512.8906
343.0781, 444.6719
343.5602, 573.1641
344.0424, 760.0664
344.5245, 830.0664
345.0066, 782.2773
345.4887, 727.9688
345.9708, 708.4727
346.4529, 703.7695
346.9351, 683.5391
347.4172, 648.4961
347.8993, 620.3555
348.3814, 610.3047
348.8635, 619.7188
349.3456, 638.0000
349.8278, 675.5898
350.3099, 711.9883
350.7920, 736.4062
351.2741, 751.2578
351.7562, 763.6641
352.2383, 777.2930
352.7205, 790.7734
353.2026, 799.6484
353.6847, 782.9844
354.1668, 790.3711
354.6489, 851.7070
355.1310, 921.3906
355.6132, 943.0039
356.0953, 911.7070
356.5774, 888.0625
357.0595, 962.2109
357.5416, 1171.758
358.0237, 1294.242
358.5059, 1213.719
358.9880, 1152.230
359.4701, 1223.348
359.9522, 1380.348
360.4343, 1501.867
360.9164, 1501.570
361.3985, 1421.246
361.8806, 1391.895
362.3628, 1429.215
362.8449, 1477.238
363.3270, 1517.480
363.8091, 1556.703
364.2912, 1603.484
364.7733, 1661.461
365.2555, 1718.031
365.7376, 1756.625
366.2197, 1781.523
366.7018, 1823.773
367.1839, 1902.602
367.6660, 1980.738
368.1482, 2010.203
368.6303, 1995.562
369.1124, 1985.266
369.5945, 2000.707
370.0766, 2022.609
370.5587, 2026.660
371.0409, 2012.859
371.5230, 2006.598
372.0051, 2037.090
372.4872, 2091.520
372.9693, 2064.145
373.4514, 1882.184
373.9336, 1717.285
374.4157, 1631.578
374.8978, 1590.805
375.3799, 1544.719
375.8620, 1470.055
376.3441, 1380.125
376.8263, 1322.352
377.3084, 1325.977
377.7905, 1297.609
378.2726, 1204.090
378.7547, 1112.598
379.2368, 1065.676
379.7190, 1058.629
380.2011, 1060.281
380.6832, 1050.754
381.1653, 1028.309
381.6474, 975.0508
382.1295, 858.7539
382.6117, 765.2188
383.0938, 738.6289
383.5759, 741.7383
384.0580, 725.8867
384.5401, 546.0859
385.0222, 611.6523
385.5044, 646.8047
385.9865, 653.2109
386.4686, 544.6211
386.9507, 584.5859
387.4328, 565.0664
387.9149, 543.1289
388.3971, 604.1016
388.8792, 512.3789
389.3613, 572.0898
389.8434, 571.3867
390.3255, 598.3789
390.8076, 565.5117
391.2898, 613.8125
391.7719, 610.2266
392.2540, 609.6406
392.7361, 590.1016
393.2182, 527.3633
393.7003, 467.0039
394.1825, 420.9336
394.6646, 392.0234
395.1467, 389.6172
395.6288, 416.2969
396.1109, 457.1172
396.5930, 480.7617
397.0752, 477.9258
397.5573, 460.2539
398.0394, 390.7969
398.5215, 350.4336
399.0036, 408.0781
399.4857, 519.9727
399.9679, 590.0586
400.4500, 536.2109
400.9321, 395.2148
401.4142, 306.7461
401.8963, 283.5781
402.3784, 280.4453
402.8605, 301.8594
403.3427, 324.9062
403.8248, 324.5391
404.3069, 295.5195
404.7890, 264.1094
405.2711, 254.1016
405.7532, 255.5273
406.2354, 236.9648
406.7175, 186.4648
407.1996, 131.4102
407.6817, 95.23438
408.1638, 77.45312
408.6459, 77.58984
409.1281, 95.01562
409.6102, 131.0859
410.0923, 214.5234
410.5744, 322.3516
411.0565, 377.5781
411.5386, 334.6406
412.0208, 227.1445
412.5029, 150.2656
412.9850, 116.5156
413.4671, 102.0547
413.9492, 127.5469
414.4313, 156.6602
414.9135, 150.8594
415.3956, 112.2031
415.8777, 81.76172
416.3598, 106.5117
416.8419, 185.8203
417.3240, 224.6094
417.8062, 186.3164
418.2883, 158.2109
418.7704, 184.3125
419.2525, 233.6172
419.7346, 260.4570
420.2167, 244.6523
420.6989, 217.3633
421.1810, 221.6016
421.6631, 253.4805
422.1452, 260.8047
422.6273, 224.9570
423.1094, 175.3750
423.5916, 137.5664
424.0737, 112.0234
424.5558, 99.85547
425.0379, 109.5938
425.5200, 121.4414
426.0021, 106.8750
426.4843, 70.92969
426.9664, 49.02344
427.4485, 65.70703
427.9306, 110.4727
428.4127, 139.9727
428.8948, 162.3164
429.3770, 158.3711
429.8591, 95.07031
430.3412, 22.19141
430.8233, 3.542969
431.3054, 22.26953
431.7875, 48.16797
432.2697, 3.222656
432.7518, 120.1680
433.2339, 147.1719
433.7160, 19.78906
434.1981, 158.7227
434.6802, 165.4688
435.1624, 101.6289
435.6445, 64.42578
436.1266, 94.61328
436.6087, 145.4727
437.0908, 166.1016
437.5729, 157.6797
438.0551, 128.5625
438.5372, 62.36328
439.0193, 5.433594
439.5014, 38.87891
439.9835, 159.0820
440.4656, 220.3750
440.9478, 120.1094
441.4299, 1.539063
441.9120, 9.632813
442.3941, 122.5703
442.8762, 211.9688
443.3583, 198.3867
443.8404, 116.5234
444.3225, 88.89453
444.8047, 177.0898
445.2868, 242.2891
445.7689, 291.0195
446.2510, 307.8867
446.7331, 255.2852
447.2152, 144.9023
447.6974, 53.08203
448.1795, 68.87109
448.6616, 178.3008
449.1437, 195.2617
449.6258, 53.12891
450.1079, 62.86328
450.5901, 58.40234
451.0722, 5.562500
451.5543, 61.38281
452.0364, 98.77344
452.5185, 106.2422
453.0006, 43.86328
453.4828, 59.77344
453.9649, 96.58984
454.4470, 31.27344
454.9291, 48.23047
455.4112, 41.11719
455.8933, 60.30859
456.3755, 93.75391
456.8576, 20.44922
457.3397, 127.1680
457.8218, 130.2344
458.3039, 68.08984
458.7860, 25.75391
459.2682, 40.95703
459.7503, 83.59766
460.2324, 92.95312
460.7145, 53.02734
461.1966, 16.76953
461.6787, 38.12109
462.1609, 68.51562
462.6430, 35.04297
463.1251, 44.35938
463.6072, 114.9492
464.0893, 142.3633
464.5714, 142.1172
465.0536, 142.9609
465.5357, 144.5781
466.0178, 151.2930
466.4999, 171.8359
466.9820, 192.5586
467.4641, 194.1914
467.9463, 175.1641
468.4284, 154.0234
468.9105, 140.4727
469.3926, 126.6797
469.8747, 99.46094
470.3568, 60.57422
470.8390, 28.33984
471.3211, 16.21484
471.8032, 21.33203
472.2853, 26.29297
472.7674, 23.80859
473.2495, 30.18359
473.7317, 60.45312
474.2138, 91.37500
474.6959, 100.6875
475.1780, 85.50000
475.6601, 59.73828
476.1422, 34.60938
476.6244, 10.08203
477.1065, 13.40234
477.5886, 40.28906
478.0707, 56.25000
478.5528, 66.05859
479.0349, 58.48438
479.5171, 0.9453130
479.9992, 152.2539
480.4813, 265.7578
480.9634, 206.7695
481.4455, 59.11719
481.9276, 6.667969
482.4098, 89.30078
482.8918, 205.4844
483.3740, 259.8633
483.8561, 249.5898
484.3382, 244.7812
484.8203, 242.4453
485.3024, 243.9375
485.7845, 261.8281
486.2667, 280.3633
486.7488, 272.6406
487.2309, 231.2305
487.7130, 185.3594
488.1951, 177.6055
488.6772, 212.1758
489.1594, 244.9805
489.6415, 283.0781
490.1236, 307.9883
490.6057, 301.1172
491.0878, 275.1445
491.5699, 257.9961
492.0521, 248.8633
492.5342, 244.7578
493.0163, 237.5586
493.4984, 228.8672
493.9805, 233.9297
494.4626, 260.9102
494.9448, 290.3555
495.4269, 294.1172
495.9090, 264.2773
496.3911, 251.1797
496.8732, 246.0156
497.3553, 264.0000
497.8375, 351.3906
498.3196, 457.3359
498.8017, 487.5742
499.2838, 401.3516
499.7659, 262.7422
500.2480, 171.7305
500.7302, 129.0156
501.2123, 133.8867
501.6944, 237.9609
502.1765, 330.1758
502.6586, 336.4102
503.1407, 279.8789
503.6229, 225.3047
504.1050, 183.2656
504.5871, 167.1133
505.0692, 200.5078
505.5513, 268.7031
506.0334, 328.6758
506.5156, 371.5977
506.9977, 389.2383
507.4798, 359.8008
507.9619, 251.4180
508.4440, 213.5039
508.9261, 315.0977
509.4083, 415.2461
509.8904, 449.9922
510.3725, 437.5469
510.8546, 416.3438
511.3367, 399.0664
511.8188, 385.1875
512.3010, 381.7734
512.7831, 390.5273
513.2652, 377.3203
513.7473, 306.6367
514.2294, 246.3828
514.7115, 275.1406
515.1937, 354.7148
515.6758, 385.1367
516.1579, 292.6602
516.6400, 183.8008
517.1221, 143.8594
517.6042, 156.6172
518.0864, 186.9492
518.5685, 224.6719
519.0506, 263.9141
519.5327, 298.7969
520.0148, 340.0352
520.4969, 338.9414
520.9791, 248.3594
521.4612, 168.5234
521.9433, 137.6016
522.4254, 142.6680
522.9075, 169.1250
523.3896, 212.8633
523.8718, 243.8281
524.3539, 202.6719
524.8360, 92.08594
525.3181, 30.41797
525.8002, 42.44141
526.2823, 84.68750
526.7645, 141.4258
527.2466, 203.5977
527.7287, 240.8750
528.2108, 226.2305
528.6929, 209.9219
529.1750, 227.7461
529.6572, 260.8828
530.1393, 269.9375
530.6214, 245.3359
531.1035, 216.9531
531.5856, 218.8906
532.0677, 252.6602
532.5499, 297.1172
533.0320, 406.4609
533.5141, 458.5742
533.9962, 385.0273
534.4783, 257.7852
534.9604, 151.0273
535.4426, 81.62500
535.9247, 60.41406
536.4068, 136.4961
536.8889, 270.6797
537.3710, 328.3789
537.8531, 288.1172
538.3353, 227.6328
538.8174, 200.7656
539.2995, 197.3633
539.7816, 173.7500
540.2637, 114.9961
540.7458, 67.13672
541.2280, 27.78125
541.7101, 10.13281
542.1922, 36.75781
542.6743, 103.4453
543.1564, 180.3867
543.6385, 249.7930
544.1207, 305.2539
544.6027, 305.5508
545.0848, 222.2148
545.5670, 157.9219
546.0491, 165.7500
546.5312, 191.5938
547.0133, 187.7461
547.4954, 150.8555
547.9775, 104.5547
548.4597, 50.29297
548.9418, 2.496094
549.4239, 49.33984
549.9060, 86.63672
550.3881, 96.58984
550.8702, 68.22656
551.3524, 14.76953
551.8345, 34.85938
552.3166, 89.05469
552.7987, 122.0586
553.2808, 112.9922
553.7629, 105.4219
554.2451, 134.0117
554.7272, 181.5117
555.2093, 203.8867
555.6914, 175.1250
556.1735, 123.2891
556.6556, 81.65234
557.1378, 50.66016
557.6199, 33.59375
558.1020, 29.73828
558.5841, 44.80078
559.0662, 100.5156
559.5483, 196.9961
560.0305, 237.9297
560.5126, 187.9297
560.9947, 121.2969
561.4768, 45.78125
561.9589, 19.78125
562.4410, 48.60938
562.9232, 34.69141
563.4053, 7.8130001E-03
563.8874, 36.17969
564.3695, 73.47656
564.8516, 95.58984
565.3337, 96.28516
565.8159, 94.35938
566.2980, 100.9961
566.7801, 107.5820
567.2622, 98.99609
567.7443, 67.25781
568.2264, 49.96875
568.7086, 84.37891
569.1907, 130.4258
569.6728, 132.1406
570.1549, 92.33203
570.6370, 51.94531
571.1191, 33.94141
571.6013, 40.39062
572.0834, 87.62891
572.5655, 241.2227
573.0476, 301.0234
573.5297, 153.5312
574.0118, 5.093750
574.4940, 14.16406
574.9761, 66.60156
575.4582, 138.9961
575.9403, 156.6328
576.4224, 138.1875
576.9045, 81.62109
577.3867, 2.246094
577.8688, 25.55859
578.3509, 22.49609
578.8330, 101.3789
579.3151, 168.9023
579.7972, 226.3750
580.2794, 251.6211
580.7615, 212.8125
581.2436, 184.6875
581.7257, 202.1172
582.2078, 233.2891
582.6899, 241.7969
583.1721, 217.9492
583.6542, 175.8047
584.1363, 114.1875
584.6184, 42.18359
585.1005, 5.910156
585.5826, 11.06641
586.0648, 17.60547
586.5469, 5.277344
587.0290, 15.61328
587.5111, 23.41406
587.9932, 14.54297
588.4753, 6.183594
588.9575, 4.2969000E-02
589.4396, 4.171875
589.9217, 9.554688
590.4038, 13.23438
590.8859, 5.023438
591.3680, 21.35938
591.8502, 50.36328
592.3323, 52.10547
592.8144, 23.95703
593.2965, 4.382813
593.7786, 30.31641
594.2607, 56.97266
594.7429, 93.76562
595.2250, 131.1406
595.7071, 142.8281
596.1892, 103.8516
596.6713, 70.09766
597.1534, 75.92969
597.6356, 97.41016
598.1177, 95.48438
598.5998, 68.77344
599.0819, 56.55078
599.5640, 98.18750
600.0461, 178.3281
600.5283, 199.1523
601.0104, 125.6680
601.4925, 75.59375
601.9746, 94.89844
602.4567, 130.5508
602.9388, 142.9688
603.4210, 134.3086
603.9031, 133.1523
604.3852, 170.0039
604.8673, 201.8906
605.3494, 164.0469
605.8315, 93.18359
606.3137, 102.0039
606.7958, 223.7070
607.2779, 351.0352
607.7600, 341.4219
608.2421, 182.3984
608.7242, 79.68750
609.2064, 67.21094
609.6885, 68.09766
610.1706, 54.49219
610.6527, 43.09766
611.1348, 58.47656
611.6169, 104.8672
612.0991, 144.9805
612.5812, 155.1914
613.0633, 146.4492
613.5454, 128.5664
614.0275, 104.3086
614.5096, 83.41406
614.9918, 69.49609
615.4739, 64.90625
615.9560, 78.27734
616.4381, 129.1719
616.9202, 140.9180
617.4023, 60.25000
617.8845, 3.503906
618.3666, 2.339844
618.8487, 39.94531
619.3308, 86.07422
619.8129, 124.3672
620.2950, 153.6719
620.7772, 170.4805
621.2593, 182.6094
621.7414, 202.8867
622.2235, 231.7656
622.7056, 263.9688
623.1877, 298.1523
623.6699, 330.3320
624.1520, 348.1484
624.6341, 357.4414
625.1162, 341.3594
625.5983, 260.0703
626.0804, 193.4102
626.5626, 197.3203
627.0446, 251.0781
627.5267, 304.5820
628.0089, 345.4336
628.4910, 357.5938
628.9731, 302.0234
629.4552, 204.4922
629.9373, 144.2891
630.4194, 135.1875
630.9016, 145.2344
631.3837, 149.7188
631.8658, 151.3672
632.3479, 167.5391
632.8300, 239.2539
633.3121, 267.8750
633.7943, 217.3359
634.2764, 148.0273
634.7585, 78.83203
635.2406, 26.66016
635.7227, 34.32031
636.2048, 165.2852
636.6870, 310.6484
637.1691, 322.0586
637.6512, 233.5195
638.1333, 166.8438
638.6154, 149.6602
639.0975, 163.9609
639.5797, 200.5078
640.0618, 256.0859
640.5439, 274.7656
641.0260, 227.1875
641.5081, 180.2383
641.9902, 121.9727
642.4724, 81.82031
642.9545, 92.83594
643.4366, 148.4570
643.9187, 204.0547
644.4008, 241.8516
644.8829, 260.2969
645.3651, 243.5273
645.8472, 204.1133
646.3293, 192.8555
646.8114, 225.0078
647.2935, 267.8594
647.7756, 286.5195
648.2578, 280.9102
648.7399, 284.1602
649.2220, 320.6562
649.7041, 330.0117
650.1862, 277.4805
650.6683, 215.8828
651.1505, 198.1172
651.6326, 221.9648
652.1147, 232.1250
652.5968, 176.7383
653.0789, 109.9141
653.5610, 91.75781
654.0432, 114.7227
654.5253, 162.8477
655.0074, 231.9453
655.4895, 291.7539
655.9716, 304.9766
656.4537, 270.9375
656.9359, 239.6719
657.4180, 188.6875
657.9001, 176.9531
658.3822, 257.5273
658.8643, 352.0391
659.3464, 383.2305
659.8286, 350.3555
660.3107, 328.8242
660.7928, 380.6250
661.2749, 434.8008
661.7570, 396.0742
662.2391, 308.4844
662.7213, 302.2422
663.2034, 412.8242
663.6855, 530.7383
664.1676, 524.2344
664.6497, 399.0977
665.1318, 331.8867
665.6140, 345.3867
666.0961, 370.0156
666.5782, 402.9922
667.0603, 426.2305
667.5424, 410.9883
668.0245, 359.1836
668.5067, 335.9297
668.9888, 391.2070
669.4709, 452.4688
669.9530, 469.5312
670.4351, 456.5312
670.9172, 436.2305
671.3994, 416.8945
671.8815, 405.6055
672.3636, 413.7500
672.8457, 437.5547
673.3278, 439.8945
673.8099, 408.3516
674.2921, 395.6914
674.7742, 429.6953
675.2563, 476.8711
675.7384, 504.8359
676.2205, 514.6797
676.7026, 498.3203
677.1848, 429.5859
677.6669, 367.9609
678.1490, 329.2070
678.6311, 309.4648
679.1132, 331.4180
679.5953, 397.1367
680.0775, 443.6172
680.5596, 401.9688
681.0417, 309.9141
681.5238, 283.4531
682.0059, 324.1836
682.4880, 354.8242
682.9702, 356.5469
683.4523, 331.1953
683.9344, 269.4805
684.4165, 167.8008
684.8986, 114.7734
685.3807, 139.5195
685.8629, 170.6641
686.3450, 206.5391
686.8271, 231.8359
687.3092, 219.0742
687.7913, 176.5820
688.2734, 157.0547
688.7556, 214.4883
689.2377, 288.9062
689.7198, 274.8594
690.2019, 200.8984
690.6840, 189.5977
691.1661, 273.1211
691.6483, 377.9219
692.1304, 438.1445
692.6125, 457.1992
693.0946, 470.0352
693.5767, 484.2773
694.0588, 478.1211
694.5410, 405.5391
695.0231, 349.2617
695.5052, 386.0820
695.9873, 491.5391
696.4694, 560.5195
696.9515, 521.5625
697.4337, 487.4766
697.9158, 569.2031
698.3979, 692.1328
698.8800, 727.9180
699.3621, 666.3164
699.8442, 600.4844
700.3264, 597.4297
700.8085, 634.9805
701.2906, 646.4414
701.7727, 624.9570
702.2548, 623.3633
702.7369, 663.6953
703.2191, 700.7812
703.7012, 698.3242
704.1833, 666.7305
704.6654, 640.5625
705.1475, 630.3320
705.6296, 609.7109
706.1118, 555.3477
706.5939, 501.8828
707.0760, 469.7617
707.5581, 463.3164
708.0402, 499.1445
708.5223, 594.2930
709.0044, 674.4727
709.4865, 589.0078
709.9686, 384.6094
710.4507, 328.6523
710.9329, 455.4492
711.4150, 550.2578
711.8971, 480.0000
712.3792, 314.5430
712.8613, 216.3242
713.3434, 192.7031
713.8256, 221.3672
714.3077, 382.2305
714.7898, 498.8125
715.2719, 469.7031
715.7540, 368.5352
716.2361, 308.1172
716.7183, 314.9180
717.2004, 319.8242
717.6825, 273.5430
718.1646, 210.2461
718.6467, 164.7891
719.1288, 137.3281
719.6110, 122.7266
720.0931, 119.2383
720.5752, 123.5039
721.0573, 125.9375
721.5394, 128.4258
722.0215, 128.2969
722.5037, 119.1328
722.9858, 132.1328
723.4679, 207.3477
723.9500, 281.2500
724.4321, 254.7266
724.9142, 126.6445
725.3964, 49.48438
725.8785, 69.16406
726.3606, 105.0469
726.8427, 135.6445
727.3248, 158.3086
727.8069, 178.3398
728.2891, 193.3242
728.7712, 181.9414
729.2533, 110.8203
729.7354, 21.83984
730.2175, 34.66797
730.6996, 52.63281
731.1818, 2.550781
731.6639, 122.8594
732.1460, 228.6152
732.6281, 225.8242
733.1102, 135.2539
733.5923, 78.11133
734.0745, 87.08789
734.5566, 57.45898
735.0387, 104.6836
735.5208, 224.6758
736.0029, 156.8145
736.4850, 24.40820
736.9672, 122.3086
737.4493, 54.91797
737.9314, 3.132813
738.4135, 45.78906
738.8956, 126.4570
739.3777, 161.9258
739.8599, 158.7871
740.3420, 161.1543
740.8241, 195.3613
741.3062, 234.8047
741.7883, 227.7051
742.2704, 188.6211
742.7526, 181.9648
743.2347, 216.7598
743.7168, 219.1738
744.1989, 138.6406
744.6810, 36.73242
745.1631, 23.76562
745.6453, 132.3027
746.1274, 197.9336
746.6095, 199.8848
747.0916, 185.5156
747.5737, 153.2734
748.0558, 119.5293
748.5380, 98.29297
749.0201, 92.12305
749.5022, 103.4844
749.9843, 148.9570
750.4664, 197.6855
750.9485, 230.8086
751.4307, 247.0664
751.9128, 236.0859
752.3949, 200.6035
752.8770, 171.5293
753.3591, 179.1992
753.8412, 206.6621
754.3234, 203.7715
754.8055, 169.5664
755.2876, 115.4375
755.7697, 20.13867
756.2518, 19.58398
756.7339, 105.4121
757.2161, 346.5078
757.6982, 468.8047
758.1803, 397.9609
758.6624, 312.4570
759.1445, 163.2695
759.6266, 50.52734
760.1088, 56.87891
760.5909, 134.0312
761.0730, 184.6504
761.5551, 178.2715
762.0372, 163.4102
762.5193, 178.6406
763.0015, 196.4688
763.4836, 172.2637
763.9657, 120.5703
764.4478, 99.48633
764.9299, 130.1426
765.4120, 158.2871
765.8942, 94.67969
766.3763, 40.82812
766.8584, 65.29102
767.3405, 39.50000
767.8226, 124.8945
768.3047, 139.7266
768.7869, 122.6152
769.2690, 117.7539
769.7511, 126.2539
770.2332, 112.2070
770.7153, 26.48047
771.1974, 14.30469
771.6796, 59.41992
772.1617, 141.8066
772.6438, 130.7598
773.1259, 52.35742
773.6080, 23.39062
774.0901, 116.6250
774.5723, 210.7637
775.0544, 220.7969
775.5365, 185.4766
776.0186, 149.9785
776.5007, 119.9961
776.9828, 82.68945
777.4650, 29.21680
777.9471, 9.126953
778.4292, 42.67188
778.9113, 167.5273
779.3934, 195.8633
779.8755, 107.3516
780.3577, 29.08789
780.8398, 15.63477
781.3219, 47.54883
781.8040, 104.5449
782.2861, 201.5918
782.7682, 230.4297
783.2504, 117.8223
783.7325, 33.34180
784.2146, 38.72461
784.6967, 69.54492
785.1788, 58.59766
785.6609, 10.11914
786.1431, 6.636719
786.6252, 82.29688
787.1073, 149.5039
787.5894, 79.10547
788.0715, 25.60156
788.5536, 23.95703
789.0358, 77.99219
789.5179, 169.7324
790.0000, 185.3652
790.4821, 171.1973
790.9642, 210.9590
791.4463, 279.4141
791.9284, 251.9688
792.4105, 119.3750
792.8926, 27.41797
793.3748, 57.73438
793.8569, 155.8496
794.3390, 209.3516
794.8211, 206.2969
795.3032, 173.8281
795.7853, 84.66602
796.2675, 28.93750
796.7496, 61.60547
797.2317, 106.6250
797.7138, 69.67773
798.1959, 47.55664
798.6780, 93.32031
799.1602, 20.44727
799.6423, 122.4941
800.1244, 145.9023
800.6065, 135.3398
801.0886, 125.7363
801.5707, 126.0293
802.0529, 144.9668
802.5350, 190.6699
803.0171, 222.1758
803.4992, 191.2168
803.9813, 127.3789
804.4634, 77.27539
804.9456, 47.03320
805.4277, 40.22070
805.9098, 59.32617
806.3919, 85.89258
806.8740, 81.76172
807.3561, 49.35938
807.8383, 67.70703
808.3204, 147.5449
808.8025, 222.3125
809.2846, 270.7539
809.7667, 294.5352
810.2488, 292.3691
810.7310, 263.4961
811.2131, 234.3105
811.6952, 209.6504
812.1773, 180.0820
812.6594, 115.1113
813.1415, 66.67773
813.6237, 95.65820
814.1058, 174.3633
814.5879, 208.1973
815.0700, 139.3672
815.5521, 87.02344
816.0342, 105.7559
816.5164, 158.0078
816.9985, 230.6465
817.4806, 304.5410
817.9627, 346.0508
818.4448, 342.3535
818.9269, 315.2188
819.4091, 270.2188
819.8912, 222.8887
820.3733, 208.0137
820.8554, 220.8965
821.3375, 230.7031
821.8196, 228.1699
822.3018, 237.2461
822.7839, 288.3379
823.2660, 368.2500
823.7481, 405.3281
824.2302, 390.7695
824.7123, 360.1699
825.1945, 312.4922
825.6766, 285.2383
826.1587, 327.3535
826.6408, 410.3613
827.1229, 422.3398
827.6050, 290.3105
828.0872, 219.5859
828.5693, 254.3047
829.0514, 295.7363
829.5335, 311.3164
830.0156, 309.5840
830.4977, 308.4004
830.9799, 310.5996
831.4620, 300.6797
831.9441, 255.3320
832.4262, 216.6504
832.9083, 221.2168
833.3904, 243.1074
833.8726, 250.8516
834.3547, 238.6035
834.8368, 210.5527
835.3189, 161.8457
835.8010, 113.2812
836.2831, 97.30469
836.7653, 105.1895
837.2474, 126.8887
837.7295, 157.5996
838.2116, 174.5195
838.6937, 164.9922
839.1758, 147.5215
839.6580, 155.0801
840.1401, 186.4863
840.6222, 186.0117
841.1043, 147.2402
841.5864, 113.4473
842.0685, 97.02344
842.5507, 101.0762
843.0328, 137.2891
843.5149, 202.1816
843.9970, 218.6758
844.4791, 142.4160
844.9612, 100.3379
845.4434, 138.4355
845.9255, 182.2246
846.4076, 190.3164
846.8897, 180.4531
847.3718, 185.8613
847.8539, 219.9004
848.3361, 245.1484
848.8182, 245.7090
849.3003, 241.9922
849.7824, 245.8301
850.2645, 254.0488
850.7466, 269.4297
851.2288, 290.5684
851.7109, 281.0977
852.1930, 198.7695
852.6751, 94.09766
853.1572, 18.13281
853.6393, 105.1836
854.1215, 82.24805
854.6036, 40.40430
855.0857, 147.8574
855.5678, 166.8301
856.0499, 132.4180
856.5320, 100.4648
857.0142, 81.09961
857.4963, 76.38477
857.9784, 84.35742
858.4605, 68.51562
858.9426, 6.599609
859.4247, 50.34570
859.9069, 21.36328
860.3890, 89.19727
860.8711, 160.6914
861.3532, 190.3066
861.8353, 187.3008
862.3174, 138.9180
862.7996, 84.95898
863.2817, 56.03906
863.7638, 50.76758
864.2459, 59.01758
864.7280, 106.4551
865.2101, 122.8242
865.6923, 65.62695
866.1744, 27.00977
866.6565, 76.34570
867.1386, 155.2500
867.6207, 173.4570
868.1028, 116.9531
868.5850, 60.90820
869.0671, 14.26953
869.5492, 15.28516
870.0313, 17.43359
870.5134, 5.601563
870.9955, 11.84375
871.4777, 30.49805
871.9598, 37.89062
872.4419, 20.47656
872.9240, 8.480469
873.4061, 33.09375
873.8882, 73.20508
874.3703, 108.0234
874.8524, 131.7324
875.3345, 130.7637
875.8167, 101.3164
876.2988, 73.77344
876.7809, 90.14062
877.2630, 125.6855
877.7451, 139.7930
878.2272, 134.2148
878.7094, 110.1465
879.1915, 69.11914
879.6736, 42.00391
880.1557, 53.91797
880.6378, 93.67578
881.1199, 139.3418
881.6021, 192.3340
882.0842, 217.6133
882.5663, 212.7969
883.0484, 174.0176
883.5305, 82.24219
884.0126, 7.572266
884.4948, 5.826172
884.9769, 94.88672
885.4590, 161.5078
885.9411, 185.7832
886.4232, 191.1543
886.9053, 162.2500
887.3875, 139.0195
887.8696, 166.7754
888.3517, 228.0332
888.8338, 248.1191
889.3159, 197.0410
889.7980, 161.4531
890.2802, 146.0215
890.7623, 147.8906
891.2444, 186.3066
891.7265, 229.9473
892.2086, 227.4844
892.6907, 174.5371
893.1729, 149.7461
893.6550, 206.4961
894.1371, 262.8457
894.6192, 290.0332
895.1013, 290.0391
895.5834, 248.2168
896.0656, 182.2852
896.5477, 139.9004
897.0298, 141.3789
897.5119, 159.7246
897.9940, 192.4102
898.4761, 217.3398
898.9583, 201.8379
899.4404, 159.5508
899.9225, 120.3965
900.4046, 93.38086
900.8867, 74.42188
901.3688, 60.08203
901.8510, 52.38086
902.3331, 64.91797
902.8152, 85.85742
903.2973, 70.20312
903.7794, 20.27930
904.2615, 3.314453
904.7437, 32.75391
905.2258, 88.96680
905.7079, 105.4316
906.1900, 87.70312
906.6721, 69.42383
907.1542, 50.55469
907.6364, 38.98047
908.1185, 37.05469
908.6006, 39.65430
909.0827, 40.84961
909.5648, 44.23242
910.0469, 66.96484
910.5291, 112.7598
911.0112, 149.7500
911.4933, 177.5020
911.9754, 186.5000
912.4575, 169.1191
912.9396, 135.1289
913.4218, 107.7363
913.9039, 87.58398
914.3860, 64.50391
914.8681, 32.77539
915.3502, 9.177734
915.8323, 18.34375
916.3145, 18.27930
916.7966, 59.10156
917.2787, 179.2637
917.7608, 234.8594
918.2429, 190.1250
918.7250, 160.5410
919.2072, 165.9199
919.6893, 167.7930
920.1714, 151.0312
920.6535, 122.7500
921.1356, 75.07031
921.6177, 14.47266
922.0999, 9.771484
922.5820, 144.0059
923.0641, 238.9531
923.5462, 211.2988
924.0283, 151.6738
924.5104, 126.3086
924.9926, 124.0996
925.4747, 103.9355
925.9568, 52.43359
926.4389, 29.58398
926.9210, 95.23047
927.4031, 164.4316
927.8853, 185.0137
928.3674, 173.5605
928.8495, 143.6621
929.3316, 103.3184
929.8137, 65.74609
930.2958, 32.48828
930.7780, 18.83789
931.2601, 56.75781
931.7422, 108.9707
932.2243, 141.8164
932.7064, 148.4414
933.1885, 100.7441
933.6707, 2.294922
934.1528, 55.87109
934.6349, 22.66016
935.1170, 146.7031
935.5991, 197.6621
936.0812, 194.1895
936.5634, 166.7461
937.0455, 125.1543
937.5276, 83.97070
938.0097, 50.41406
938.4918, 35.45117
938.9739, 57.91602
939.4561, 102.8027
939.9382, 136.6973
940.4203, 157.0566
940.9024, 148.9883
941.3845, 112.0469
941.8666, 84.68750
942.3488, 100.2695
942.8309, 135.1934
943.3130, 121.2578
943.7951, 69.84375
944.2772, 88.03516
944.7593, 179.8359
945.2415, 240.4648
945.7236, 230.9785
946.2057, 188.5801
946.6878, 148.4785
947.1699, 114.4238
947.6520, 111.5801
948.1342, 143.3594
948.6163, 151.0078
949.0984, 124.8281
949.5805, 85.99414
950.0626, 38.27344
950.5447, 6.091797
951.0269, 38.71289
951.5090, 137.4668
951.9911, 186.1602
952.4732, 177.3867
952.9553, 145.4648
953.4374, 82.33398
953.9196, 41.31445
954.4017, 72.49414
954.8838, 145.2891
955.3659, 172.1836
955.8480, 139.5293
956.3301, 113.5684
956.8122, 96.50586
957.2943, 80.25000
957.7764, 52.68359
958.2585, 39.56641
958.7407, 80.98633
959.2228, 163.3691
959.7049, 181.8867
960.1870, 80.52344
960.6691, 33.33594
961.1512, 90.74414
961.6334, 138.6328
962.1155, 108.8770
962.5976, 54.40625
963.0797, 48.67969
963.5618, 94.58203
964.0439, 136.6016
964.5261, 204.6270
965.0082, 224.1328
965.4903, 120.6074
965.9724, 34.77930
966.4545, 74.36914
966.9366, 178.7793
967.4188, 223.1094
967.9009, 185.8320
968.3830, 169.5742
968.8651, 229.1953
969.3472, 245.9160
969.8293, 128.6328
970.3115, 9.570313
970.7936, 9.015625
971.2757, 95.31250
971.7578, 161.5039
972.2399, 202.0293
972.7220, 205.7090
973.2042, 134.0762
973.6863, 68.50000
974.1684, 40.00195
974.6505, 38.77930
975.1326, 52.93164
975.6147, 81.00000
976.0969, 122.7520
976.5790, 210.1543
977.0611, 257.4609
977.5432, 230.2695
978.0253, 173.0820
978.5074, 76.67578
978.9896, 14.72656
979.4717, 36.02734
979.9538, 17.55469
980.4359, 79.48633
980.9180, 169.6172
981.4001, 211.7637
981.8823, 124.0801
982.3644, 32.27148
982.8465, 54.55664
983.3286, 133.7656
983.8107, 142.0879
984.2928, 50.47266
984.7750, 6.873047
985.2571, 38.23047
985.7392, 98.98633
986.2213, 159.4141
986.7034, 198.2949
987.1855, 180.0840
987.6677, 127.6152
988.1498, 104.3809
988.6319, 132.8242
989.1140, 148.7656
989.5961, 107.4277
990.0782, 68.66211
990.5604, 66.84180
991.0425, 85.25586
991.5246, 117.1211
992.0067, 148.5020
992.4888, 151.7832
992.9709, 100.6680
993.4531, 62.79883
993.9352, 97.18359
994.4173, 123.5664
994.8994, 69.41797
995.3815, 13.27539
995.8636, 57.22070
996.3458, 57.43945
996.8279, 47.77344
997.3100, 44.07227
997.7921, 25.03516
998.2742, 54.03516
998.7563, 117.7852
999.2385, 85.07227
999.7206, 10.68164
1000.203, 24.25781
1000.685, 6.943359
1001.167, 32.91406
1001.649, 115.2871
1002.131, 168.4531
1002.613, 139.6191
1003.095, 84.19727
1003.578, 28.52344
1004.060, 12.14453
1004.542, 11.38867
1005.024, 32.93750
1005.506, 67.85156
1005.988, 59.01758
1006.470, 49.81250
1006.952, 57.21289
1007.434, 77.92969
1007.917, 130.8516
1008.399, 188.1602
1008.881, 185.7070
1009.363, 108.2773
1009.845, 52.01367
1010.327, 74.76562
1010.809, 107.9766
1011.291, 129.5723
1011.773, 134.3945
1012.256, 93.41211
1012.738, 37.43555
1013.220, 45.41797
1013.702, 144.3926
1014.184, 223.3652
1014.666, 228.7148
1015.148, 216.0000
1015.630, 207.9004
1016.113, 199.5488
1016.595, 180.9551
1017.077, 157.6660
1017.559, 144.9746
1018.041, 146.6582
1018.523, 159.6602
1019.005, 210.0645
1019.487, 239.5117
1019.969, 202.8770
1020.452, 144.1992
1020.934, 91.10742
1021.416, 57.08984
1021.898, 74.94141
1022.380, 177.7480
1022.862, 244.9531
1023.344, 203.5508
1023.826, 165.6152
1024.308, 215.4160
1024.791, 270.7852
1025.273, 225.3809
1025.755, 104.6719
1026.237, 35.85352
1026.719, 68.70703
1027.201, 85.61133
1027.683, 24.08984
1028.165, 12.60547
1028.648, 56.61133
1029.130, 145.4824
1029.612, 149.3770
1030.094, 85.08398
1030.576, 64.30664
1031.058, 143.5215
1031.540, 179.1973
1032.022, 84.47070
1032.505, 26.40234
1032.987, 134.0801
1033.469, 266.9395
1033.951, 254.0059
1034.433, 118.1777
1034.915, 47.78125
1035.397, 87.33594
1035.879, 133.1152
1036.361, 231.5430
1036.844, 272.3418
1037.326, 136.8477
1037.808, 13.84570
1038.290, 9.744141
1038.772, 176.8379
1039.254, 268.2324
1039.736, 249.8496
1040.218, 228.7246
1040.700, 193.4199
1041.183, 175.7500
1041.665, 198.2969
1042.147, 233.0664
1042.629, 251.8281
1043.111, 255.7539
1043.593, 249.4844
1044.075, 225.4766
1044.557, 201.5703
1045.040, 171.3340
1045.522, 167.9043
1046.004, 222.7578
1046.486, 279.8887
1046.968, 271.6348
1047.450, 211.1699
1047.932, 182.4629
1048.414, 195.5254
1048.896, 200.2520
1049.379, 195.9824
1049.861, 171.2930
1050.343, 112.2734
1050.825, 57.54883
1051.307, 50.58594
1051.789, 82.72461
1052.271, 114.8672
1052.753, 147.3613
1053.235, 177.7930
1053.718, 205.6699
1054.200, 221.0996
1054.682, 217.7402
1055.164, 214.4238
1055.646, 234.5254
1056.128, 264.9922
1056.610, 252.1777
1057.092, 200.9277
1057.575, 189.2227
1058.057, 220.2363
1058.539, 247.2383
1059.021, 252.9688
1059.503, 245.1758
1059.985, 229.1230
1060.467, 210.0918
1060.949, 205.6621
1061.432, 208.9883
1061.914, 176.2715
1062.396, 117.9883
1062.878, 119.0996
1063.360, 200.1895
1063.842, 269.1797
1064.324, 242.9805
1064.806, 181.6953
1065.288, 178.2363
1065.771, 212.5742
1066.253, 256.5762
1066.735, 297.9512
1067.217, 301.8848
1067.699, 265.8848
1068.181, 242.2422
1068.663, 275.2871
1069.145, 310.4844
1069.627, 284.5332
1070.110, 228.6953
1070.592, 156.3789
1071.074, 97.80273
1071.556, 129.9062
1072.038, 246.5312
1072.520, 327.9297
1073.002, 299.4297
1073.484, 252.2852
1073.967, 256.9648
1074.449, 264.4551
1074.931, 219.6191
1075.413, 155.7422
1075.895, 126.1680
1076.377, 131.7988
1076.859, 130.6348
1077.341, 98.24609
1077.823, 83.25977
1078.306, 133.0547
1078.788, 172.3613
1079.270, 141.2559
1079.752, 88.42188
1080.234, 64.92383
1080.716, 72.04688
1081.198, 96.10742
1081.680, 152.4277
1082.162, 182.0918
1082.645, 156.9473
1083.127, 130.0371
1083.609, 129.3262
1084.091, 126.1348
1084.573, 79.79688
1085.055, 12.00781
1085.537, 6.001953
1086.019, 42.21680
1086.501, 88.59766
1086.984, 142.0469
1087.466, 172.7129
1087.948, 163.3340
1088.430, 149.1914
1088.912, 162.3730
1089.394, 180.9102
1089.876, 146.4492
1090.358, 50.17773
1090.841, 10.70117
1091.323, 36.66406
1091.805, 69.23047
1092.287, 98.40430
1092.769, 124.5938
1093.251, 150.8750
1093.733, 162.2383
1094.215, 128.2695
1094.698, 57.34180
1095.180, 12.48242
1095.662, 76.30078
1096.144, 69.20898
1096.626, 13.63477
1097.108, 122.1641
1097.590, 233.6914
1098.072, 301.1543
1098.554, 247.9648
1099.036, 133.7129
1099.519, 77.32227
1100.001, 58.64258
1100.483, 19.44336
1100.965, 32.13672
1101.447, 40.37109
1101.929, 12.95898
1102.411, 85.90820
1102.893, 163.7480
1103.376, 220.7832
1103.858, 218.4980
1104.340, 189.7305
1104.822, 167.3164
1105.304, 154.0332
1105.786, 148.0078
1106.268, 147.9043
1106.750, 149.4043
1107.233, 150.4863
1107.715, 153.1445
1108.197, 172.8984
1108.679, 178.7637
1109.161, 138.1641
1109.643, 78.47266
1110.125, 29.27930
1110.607, 4.830078
1111.089, 19.70508
1111.572, 15.67773
1112.054, 10.87109
1112.536, 98.09180
1113.018, 158.8535
1113.500, 146.3691
1113.982, 115.6875
1114.464, 109.9121
1114.946, 126.2598
1115.428, 160.2422
1115.911, 222.2168
1116.393, 236.5371
1116.875, 187.4648
1117.357, 155.9375
1117.839, 160.8867
1118.321, 198.7285
1118.803, 272.2383
1119.285, 350.3633
1119.768, 365.4805
1120.250, 325.8750
1120.732, 301.6895
1121.214, 292.1758
1121.696, 310.1074
1122.178, 355.1172
1122.660, 385.7793
1123.142, 381.9453
1123.625, 368.1133
1124.107, 371.3535
1124.589, 384.8516
1125.071, 403.5293
1125.553, 416.8516
1126.035, 398.1777
1126.517, 357.6875
1126.999, 332.0234
1127.481, 330.2949
1127.964, 325.7168
1128.446, 284.4492
1128.928, 264.7207
1129.410, 345.2578
1129.892, 437.8887
1130.374, 449.7344
1130.856, 420.4746
1131.338, 424.4980
1131.820, 463.1113
1132.303, 474.8906
1132.785, 414.4883
1133.267, 392.7266
1133.749, 490.3145
1134.231, 565.3125
1134.713, 531.4121
1135.195, 469.8496
1135.677, 447.2695
1136.160, 462.1406
1136.642, 519.2480
1137.124, 649.7109
1137.606, 672.0391
1138.088, 520.1660
1138.570, 450.2930
1139.052, 545.0664
1139.534, 630.3027
1140.016, 592.8398
1140.499, 505.7812
1140.981, 491.4414
1141.463, 535.4629
1141.945, 532.6836
1142.427, 487.7910
1142.909, 468.6484
1143.391, 481.0352
1143.873, 492.5117
1144.355, 489.6895
1144.838, 488.8984
1145.320, 510.5703
1145.802, 532.1270
1146.284, 500.4551
1146.766, 454.7734
1147.248, 480.0098
1147.730, 545.1953
1148.212, 564.3965
1148.695, 525.9141
1149.177, 521.0078
1149.659, 617.3477
1150.141, 671.6992
1150.623, 522.2695
1151.105, 384.5312
1151.587, 430.1680
1152.069, 539.0195
1152.552, 593.8184
1153.034, 596.5371
1153.516, 585.6719
1153.998, 581.8281
1154.480, 548.2441
1154.962, 433.5762
1155.444, 363.8398
1155.926, 387.5137
1156.408, 413.8418
1156.891, 392.1699
1157.373, 346.1367
1157.855, 301.0293
1158.337, 260.3945
1158.819, 296.4434
1159.301, 422.9746
1159.783, 439.6133
1160.265, 325.4316
1160.747, 243.3379
1161.230, 250.3438
1161.712, 270.5215
1162.194, 237.0625
1162.676, 189.6602
1163.158, 215.4609
1163.640, 272.3574
1164.122, 258.5332
1164.604, 197.4609
1165.086, 156.9355
1165.569, 145.1816
1166.051, 131.5918
1166.533, 100.9961
1167.015, 85.58203
1167.497, 118.8672
1167.979, 160.7715
1168.461, 202.6992
1168.943, 224.1680
1169.426, 194.6465
1169.908, 135.1211
1170.390, 86.35547
1170.872, 53.78320
1171.354, 24.15430
1171.836, 10.87305
1172.318, 31.94531
1172.800, 49.26758
1173.282, 28.41211
1173.765, 77.96680
1174.247, 166.6582
1174.729, 119.8633
1175.211, 8.662109
1175.693, 31.55664
1176.175, 55.03711
1176.657, 77.44727
1177.139, 34.65430
1177.621, 3.5156000E-02
1178.104, 10.14844
1178.586, 0.3417970
1179.068, 29.67969
1179.550, 69.70508
1180.032, 128.6934
1180.514, 176.9824
1180.996, 153.9863
1181.478, 93.84961
1181.961, 35.65820
1182.443, 2.916016
1182.925, 12.62695
1183.407, 82.66016
1183.889, 136.2285
1184.371, 119.0820
1184.853, 117.4805
1185.335, 180.4531
1185.818, 243.3145
1186.300, 270.4629
1186.782, 278.7910
1187.264, 285.6504
1187.746, 283.1289
1188.228, 241.6133
1188.710, 129.3223
1189.192, 96.50977
1189.674, 223.3926
1190.156, 306.5059
1190.639, 253.1562
1191.121, 200.9141
1191.603, 159.9707
1192.085, 141.5781
1192.567, 196.0449
1193.049, 284.5566
1193.531, 281.3926
1194.013, 197.7402
1194.496, 156.6680
1194.978, 159.1133
1195.460, 148.1660
1195.942, 118.2773
1196.424, 80.49023
1196.906, 35.39062
1197.388, 1.904297
1197.870, 20.03125
1198.353, 55.64844
1198.835, 89.09766
1199.317, 121.5410
1199.799, 140.9395
1200.281, 144.2520
1200.763, 125.5762
1201.245, 72.02734
1201.727, 28.71484
1202.209, 18.39453
1202.692, 35.95703
1203.174, 98.82422
1203.656, 131.2188
1204.138, 94.77930
1204.620, 36.22852
1205.102, 0.0000000E+00
##END=



