##NAMES=Tremolite
##RRUFFID=R050167
##IDEAL CHEMISTRY=[box]Ca_2_Mg_5_Si_8_O_22_(OH)_2_
##LOCALITY=Hunza Valley, Afghanistan
##OWNER=RRUFF
##SOURCE=Marcus Origlieri
##DESCRIPTION=Green tabular crystals
##STATUS=The identification of this mineral has been confirmed by X-ray diffraction and chemical analysis
##URL=rruff.info/R050167
##MEASURED CHEMISTRY=  ([box]_0.90_Na_0.10_)(Ca_0.98_Mg_0.01_Fe^2+^_0.01_)_2_(Mg_0.94_Al_0.06_)_5_(Si_0.95_Al_0.05_)_8_O_22_((OH)_0.98_F_0.02_)_2_
140.7142, 0.0000000E+00
141.1963, 41.04688
141.6785, 62.48438
142.1606, 55.42188
142.6427, 46.34375
143.1248, 81.53125
143.6069, 168.8750
144.0890, 215.0781
144.5712, 236.2344
145.0533, 222.8125
145.5354, 206.4688
146.0175, 245.9531
146.4996, 311.9844
146.9817, 286.4375
147.4639, 121.7188
147.9460, 9.531250
148.4281, 26.06250
148.9102, 17.20312
149.3923, 30.84375
149.8744, 127.1875
150.3566, 235.2500
150.8387, 254.4531
151.3208, 139.7656
151.8029, 65.67188
152.2850, 127.7188
152.7671, 289.2656
153.2493, 439.7031
153.7314, 556.6094
154.2135, 640.7344
154.6956, 633.6719
155.1777, 515.1250
155.6598, 400.9531
156.1420, 383.1562
156.6241, 464.4844
157.1062, 561.7812
157.5883, 645.5469
158.0704, 716.5312
158.5525, 783.3594
159.0347, 849.2031
159.5168, 914.0000
159.9989, 986.8750
160.4810, 1094.547
160.9631, 1137.609
161.4452, 1044.266
161.9274, 906.3594
162.4095, 805.5156
162.8916, 781.5312
163.3737, 813.6562
163.8558, 834.2812
164.3379, 800.8195
164.8201, 842.4043
165.3022, 858.4674
165.7843, 850.3772
166.2664, 745.7921
166.7485, 765.8101
167.2306, 735.8929
167.7128, 703.9249
168.1949, 741.4803
168.6770, 650.9301
169.1591, 687.3831
169.6412, 673.1387
170.1233, 682.0973
170.6055, 627.4688
171.0876, 605.8594
171.5697, 595.3125
172.0518, 583.7500
172.5339, 575.0156
173.0160, 568.3750
173.4982, 571.0312
173.9803, 612.7188
174.4624, 719.5312
174.9445, 875.7031
175.4266, 1008.359
175.9087, 1073.297
176.3909, 1124.391
176.8730, 1228.750
177.3551, 1394.641
177.8372, 1563.953
178.3193, 1712.625
178.8014, 1822.984
179.2836, 1844.000
179.7657, 1705.438
180.2478, 1493.422
180.7299, 1336.156
181.2120, 1251.125
181.6941, 1181.516
182.1763, 1082.484
182.6584, 969.7969
183.1405, 874.2812
183.6226, 817.2188
184.1047, 786.8750
184.5868, 747.8750
185.0690, 699.9531
185.5511, 639.0625
186.0332, 539.5312
186.5153, 426.5469
186.9974, 351.1406
187.4795, 366.0156
187.9617, 461.4062
188.4438, 497.5156
188.9259, 429.2031
189.4080, 341.8281
189.8901, 244.7344
190.3722, 149.9688
190.8544, 77.18750
191.3365, 45.81250
191.8186, 60.03125
192.3007, 72.57812
192.7828, 118.0156
193.2649, 134.8281
193.7471, 70.89062
194.2292, 46.59375
194.7113, 139.5781
195.1934, 126.2656
195.6755, 25.31250
196.1576, 77.93750
196.6398, 74.37500
197.1219, 211.0938
197.6040, 198.8750
198.0861, 54.04688
198.5682, 118.6719
199.0503, 169.3750
199.5325, 62.53125
200.0146, 36.25000
200.4967, 168.5312
200.9788, 311.1406
201.4609, 346.2656
201.9430, 267.9688
202.4252, 175.7031
202.9073, 168.1406
203.3894, 256.0938
203.8715, 330.3125
204.3536, 392.3125
204.8357, 437.1250
205.3179, 462.7188
205.8000, 470.0312
206.2821, 449.1094
206.7642, 359.8594
207.2463, 222.7969
207.7284, 166.3125
208.2106, 313.2188
208.6927, 521.0938
209.1748, 564.8281
209.6569, 384.4375
210.1390, 193.2031
210.6211, 189.6875
211.1033, 318.8438
211.5854, 462.3750
212.0675, 593.1406
212.5496, 699.5781
213.0317, 771.5781
213.5138, 806.3750
213.9960, 807.4062
214.4781, 737.4844
214.9602, 635.7969
215.4423, 588.7812
215.9244, 668.0000
216.4065, 839.1719
216.8886, 968.9531
217.3708, 1037.469
217.8529, 1093.188
218.3350, 1144.812
218.8171, 1202.203
219.2992, 1289.547
219.7813, 1439.188
220.2635, 1632.062
220.7456, 1755.766
221.2277, 1752.156
221.7098, 1746.422
222.1919, 1792.844
222.6740, 1870.969
223.1562, 1939.000
223.6383, 1965.938
224.1204, 1946.688
224.6025, 1889.328
225.0846, 1738.797
225.5667, 1621.969
226.0489, 1571.266
226.5310, 1557.547
227.0131, 1556.438
227.4952, 1556.375
227.9773, 1555.469
228.4594, 1524.797
228.9416, 1401.828
229.4237, 1312.500
229.9058, 1293.000
230.3879, 1327.297
230.8700, 1379.922
231.3521, 1425.750
231.8343, 1467.703
232.3164, 1557.922
232.7985, 1817.703
233.2806, 1991.234
233.7627, 1940.984
234.2448, 1752.422
234.7270, 1606.719
235.2091, 1626.547
235.6912, 1787.547
236.1733, 1855.547
236.6554, 1771.438
237.1375, 1679.953
237.6197, 1635.062
238.1018, 1618.297
238.5839, 1578.141
239.0660, 1477.984
239.5481, 1336.734
240.0302, 1259.531
240.5124, 1290.047
240.9945, 1323.172
241.4766, 1336.891
241.9587, 1326.766
242.4408, 1269.219
242.9229, 1130.875
243.4051, 957.2812
243.8872, 902.9219
244.3693, 1033.953
244.8514, 1165.672
245.3335, 1215.312
245.8156, 1202.078
246.2978, 1178.969
246.7799, 1159.922
247.2620, 1153.078
247.7441, 1173.672
248.2262, 1225.891
248.7083, 1290.359
249.1905, 1397.734
249.6726, 1521.969
250.1547, 1547.797
250.6368, 1387.250
251.1189, 1162.391
251.6010, 1075.516
252.0832, 1149.000
252.5653, 1217.609
253.0474, 1189.297
253.5295, 1091.375
254.0116, 1000.781
254.4937, 936.0312
254.9759, 870.8906
255.4580, 780.2969
255.9401, 671.4688
256.4222, 578.1562
256.9043, 514.1562
257.3864, 473.6562
257.8686, 450.4844
258.3507, 465.5312
258.8328, 475.5156
259.3149, 426.0312
259.7970, 324.2969
260.2791, 246.7344
260.7613, 233.7031
261.2434, 284.5312
261.7255, 407.4844
262.2076, 687.5312
262.6897, 920.6719
263.1718, 957.6719
263.6540, 837.1719
264.1361, 698.2188
264.6182, 617.7500
265.1003, 589.9844
265.5824, 595.7969
266.0645, 695.5938
266.5467, 746.3906
267.0288, 656.1094
267.5109, 467.7969
267.9930, 274.7344
268.4751, 118.9219
268.9572, 8.968750
269.4394, 22.60938
269.9215, 58.81250
270.4036, 176.6719
270.8857, 351.3750
271.3678, 530.1250
271.8499, 626.9219
272.3321, 579.7344
272.8142, 430.0781
273.2963, 323.1562
273.7784, 292.1250
274.2605, 249.4375
274.7426, 145.4375
275.2248, 23.12500
275.7069, 67.68750
276.1890, 105.2812
276.6711, 97.78125
277.1532, 57.03125
277.6353, 55.09375
278.1175, 126.8750
278.5996, 137.5625
279.0817, 106.0000
279.5638, 38.00000
280.0459, 63.71875
280.5280, 170.7500
281.0102, 221.9062
281.4923, 173.0938
281.9744, 157.7500
282.4565, 263.3438
282.9386, 356.5312
283.4207, 302.7812
283.9029, 78.25000
284.3850, 192.6250
284.8671, 312.5000
285.3492, 208.6562
285.8313, 129.3438
286.3134, 82.06250
286.7956, 57.25000
287.2777, 51.34375
287.7598, 62.12500
288.2419, 87.43750
288.7240, 124.3438
289.2061, 167.7188
289.6883, 237.0938
290.1704, 367.3125
290.6525, 487.7188
291.1346, 569.8438
291.6167, 610.1875
292.0988, 613.8125
292.5810, 576.4375
293.0631, 489.4062
293.5452, 451.2812
294.0273, 504.7188
294.5094, 563.7500
294.9915, 611.3438
295.4737, 642.3125
295.9558, 652.1562
296.4379, 635.8125
296.9200, 595.1250
297.4021, 558.4062
297.8842, 519.0000
298.3664, 492.2500
298.8485, 473.5312
299.3306, 472.1875
299.8127, 518.0000
300.2948, 633.5000
300.7769, 782.1250
301.2591, 811.0312
301.7412, 564.0312
302.2233, 379.5312
302.7054, 310.5625
303.1875, 310.6250
303.6696, 339.5312
304.1518, 379.1875
304.6339, 415.4062
305.1160, 415.3125
305.5981, 328.0312
306.0802, 279.8125
306.5623, 304.0625
307.0445, 345.5000
307.5266, 356.4375
308.0087, 326.4688
308.4908, 280.4062
308.9729, 250.8438
309.4550, 229.1875
309.9372, 251.1562
310.4193, 360.7812
310.9014, 472.3125
311.3835, 533.8125
311.8656, 542.8750
312.3477, 523.9062
312.8299, 496.4375
313.3120, 454.2188
313.7941, 451.4062
314.2762, 509.9062
314.7583, 579.4062
315.2404, 646.8438
315.7226, 708.6250
316.2047, 760.6250
316.6868, 797.1250
317.1689, 819.2188
317.6510, 863.1875
318.1331, 999.3750
318.6153, 1076.812
319.0974, 1017.125
319.5795, 885.7188
320.0616, 779.2500
320.5437, 748.0312
321.0258, 774.5312
321.5080, 803.4375
321.9901, 823.1250
322.4722, 860.5938
322.9543, 974.4375
323.4364, 1081.000
323.9185, 1081.906
324.4007, 949.1562
324.8828, 756.0312
325.3649, 633.5000
325.8470, 650.8750
326.3291, 609.2812
326.8112, 424.4688
327.2934, 251.2812
327.7755, 212.8750
328.2576, 314.2188
328.7397, 472.4375
329.2218, 598.0000
329.7039, 681.2500
330.1861, 781.5625
330.6682, 912.0312
331.1503, 1045.000
331.6324, 1183.000
332.1145, 1314.594
332.5966, 1417.594
333.0788, 1476.188
333.5609, 1486.188
334.0430, 1439.719
334.5251, 1207.344
335.0072, 1065.062
335.4893, 1119.344
335.9715, 1282.562
336.4536, 1431.812
336.9357, 1503.000
337.4178, 1529.406
337.8999, 1609.281
338.3820, 1811.375
338.8642, 1965.750
339.3463, 2045.594
339.8284, 2091.438
340.3105, 2124.500
340.7926, 2157.156
341.2747, 2203.938
341.7568, 2288.500
342.2390, 2423.281
342.7211, 2528.812
343.2032, 2593.281
343.6853, 2641.812
344.1674, 2677.625
344.6495, 2707.812
345.1317, 2750.625
345.6138, 2832.906
346.0959, 2961.094
346.5780, 3027.125
347.0601, 2956.281
347.5422, 2893.625
348.0244, 2875.938
348.5065, 2895.094
348.9886, 2929.500
349.4707, 2966.000
349.9528, 3008.469
350.4349, 3076.906
350.9171, 3240.594
351.3992, 3318.156
351.8813, 3222.656
352.3634, 3061.688
352.8455, 2940.562
353.3276, 2895.594
353.8098, 2892.906
354.2919, 2883.281
354.7740, 2874.250
355.2561, 2832.875
355.7382, 2729.469
356.2203, 2613.531
356.7025, 2485.500
357.1846, 2360.812
357.6667, 2294.594
358.1488, 2389.188
358.6309, 2655.094
359.1130, 2769.938
359.5952, 2619.625
360.0773, 2434.281
360.5594, 2290.344
361.0415, 2185.844
361.5236, 2112.969
362.0057, 2083.031
362.4879, 2073.000
362.9700, 1989.125
363.4521, 1770.906
363.9342, 1608.656
364.4163, 1606.719
364.8984, 1665.406
365.3806, 1678.156
365.8627, 1603.969
366.3448, 1527.344
366.8269, 1577.688
367.3090, 1772.812
367.7911, 1928.969
368.2733, 2000.500
368.7554, 2019.062
369.2375, 1972.844
369.7196, 1872.875
370.2017, 1824.406
370.6838, 1981.625
371.1660, 2277.844
371.6481, 2371.062
372.1302, 2154.125
372.6123, 1879.938
373.0944, 1708.812
373.5765, 1612.062
374.0587, 1527.062
374.5408, 1446.281
375.0229, 1364.219
375.5050, 1268.312
375.9871, 1156.219
376.4692, 1049.250
376.9514, 939.2500
377.4335, 850.9688
377.9156, 832.5000
378.3977, 921.3125
378.8798, 988.6875
379.3619, 896.0625
379.8441, 688.6250
380.3262, 572.2500
380.8083, 623.1250
381.2904, 749.1562
381.7725, 852.5625
382.2546, 934.9062
382.7368, 979.8750
383.2189, 974.0000
383.7010, 931.7500
384.1831, 860.3438
384.6652, 758.8438
385.1473, 669.2812
385.6295, 617.2188
386.1116, 608.4688
386.5937, 647.2812
387.0758, 790.1562
387.5579, 929.8750
388.0400, 979.6250
388.5222, 966.6875
389.0043, 992.9375
389.4864, 1114.750
389.9685, 1287.375
390.4506, 1392.094
390.9327, 1396.781
391.4149, 1422.219
391.8970, 1475.062
392.3791, 1569.531
392.8612, 1763.875
393.3433, 2062.281
393.8254, 2331.656
394.3076, 2409.031
394.7897, 2248.125
395.2718, 2118.906
395.7539, 2054.906
396.2360, 1987.406
396.7181, 1854.188
397.2003, 1681.500
397.6824, 1564.594
398.1645, 1576.062
398.6466, 1670.812
399.1287, 1615.781
399.6108, 1179.031
400.0930, 873.9688
400.5751, 841.7188
401.0572, 925.1562
401.5393, 956.8438
402.0214, 885.6875
402.5035, 770.5625
402.9857, 698.4688
403.4678, 688.7500
403.9499, 670.5000
404.4320, 661.0312
404.9141, 630.3438
405.3962, 535.2500
405.8784, 402.1562
406.3605, 303.0000
406.8426, 294.7500
407.3247, 365.7188
407.8068, 437.5625
408.2889, 537.4062
408.7711, 592.3125
409.2532, 566.1562
409.7353, 499.5938
410.2174, 424.9688
410.6995, 353.2500
411.1816, 304.8750
411.6638, 328.8125
412.1459, 447.3438
412.6280, 510.8125
413.1101, 430.5000
413.5922, 346.1562
414.0743, 345.0000
414.5565, 414.3750
415.0386, 481.1250
415.5207, 505.0625
416.0028, 488.0625
416.4849, 424.7500
416.9670, 291.1562
417.4492, 174.5312
417.9313, 152.1875
418.4134, 165.4062
418.8955, 135.0625
419.3776, 29.81250
419.8597, 91.06250
420.3419, 188.6875
420.8240, 259.4062
421.3061, 260.6875
421.7882, 146.5625
422.2703, 3.593750
422.7524, 61.81250
423.2346, 53.65625
423.7167, 33.62500
424.1988, 21.06250
424.6809, 10.00000
425.1630, 8.843750
425.6451, 36.59375
426.1273, 65.78125
426.6094, 93.62500
427.0915, 118.5312
427.5736, 132.6562
428.0557, 134.6875
428.5378, 128.4688
429.0200, 110.9375
429.5021, 87.15625
429.9842, 81.53125
430.4663, 108.3125
430.9484, 113.0938
431.4305, 5.593750
431.9127, 344.7188
432.3948, 568.8438
432.8769, 625.9375
433.3590, 603.8750
433.8411, 528.2812
434.3232, 423.1875
434.8054, 341.1875
435.2875, 322.9688
435.7696, 364.0312
436.2517, 423.8438
436.7338, 547.0625
437.2159, 633.7500
437.6981, 653.0312
438.1802, 634.2812
438.6623, 609.9688
439.1444, 590.9062
439.6265, 568.2500
440.1086, 524.1250
440.5908, 444.5625
441.0729, 391.3438
441.5550, 413.2812
442.0371, 419.8125
442.5192, 317.6562
443.0013, 166.4375
443.4835, 128.5000
443.9656, 350.8750
444.4477, 721.7812
444.9298, 860.5938
445.4119, 675.9375
445.8940, 496.1875
446.3762, 438.9062
446.8583, 428.2500
447.3404, 403.5312
447.8225, 352.7500
448.3046, 303.3125
448.7867, 279.1875
449.2689, 276.4688
449.7510, 267.0625
450.2331, 224.9688
450.7152, 218.2812
451.1973, 341.6562
451.6794, 544.1875
452.1616, 695.4375
452.6437, 722.0312
453.1258, 711.1875
453.6079, 748.4062
454.0900, 825.2188
454.5721, 892.4688
455.0543, 934.8438
455.5364, 947.6562
456.0185, 902.1250
456.5006, 768.2812
456.9827, 697.7812
457.4648, 785.9688
457.9470, 920.4062
458.4291, 976.1562
458.9112, 942.4062
459.3933, 894.0625
459.8754, 891.9688
460.3575, 936.1562
460.8397, 983.7812
461.3218, 1076.500
461.8039, 1127.781
462.2860, 1070.219
462.7681, 975.8125
463.2502, 956.5625
463.7324, 1048.188
464.2145, 1169.281
464.6966, 1178.875
465.1787, 1008.750
465.6608, 933.6562
466.1429, 1037.406
466.6251, 1146.031
467.1072, 1159.312
467.5893, 1113.219
468.0714, 1102.125
468.5535, 1190.125
469.0356, 1358.250
469.5178, 1532.844
469.9999, 1731.125
470.4820, 1853.344
470.9641, 1821.469
471.4462, 1733.969
471.9283, 1654.031
472.4105, 1591.219
472.8926, 1532.062
473.3747, 1440.969
473.8568, 1343.031
474.3389, 1355.094
474.8210, 1528.281
475.3032, 1686.406
475.7853, 1690.375
476.2674, 1599.500
476.7495, 1522.125
477.2316, 1489.781
477.7137, 1449.594
478.1959, 1348.969
478.6780, 1212.250
479.1601, 1115.969
479.6422, 1096.844
480.1243, 1103.031
480.6064, 1042.938
481.0886, 889.0938
481.5707, 837.3438
482.0528, 973.5938
482.5349, 1140.156
483.0170, 1250.844
483.4991, 1305.281
483.9813, 1313.562
484.4634, 1286.281
484.9455, 1232.531
485.4276, 1168.219
485.9097, 1085.438
486.3918, 1006.031
486.8740, 921.0938
487.3561, 849.0000
487.8382, 809.3750
488.3203, 797.5625
488.8024, 792.4688
489.2845, 780.5625
489.7667, 758.4062
490.2488, 739.1875
490.7309, 738.3750
491.2130, 725.1250
491.6951, 666.3750
492.1772, 611.4688
492.6594, 619.1562
493.1415, 702.7500
493.6236, 788.9375
494.1057, 784.8750
494.5878, 705.9375
495.0699, 678.1562
495.5521, 715.2812
496.0342, 801.6875
496.5163, 981.7500
496.9984, 1194.344
497.4805, 1305.406
497.9626, 1237.125
498.4448, 1110.281
498.9269, 994.0625
499.4090, 895.8750
499.8911, 860.5312
500.3732, 919.1875
500.8553, 993.2188
501.3375, 957.5625
501.8196, 781.5312
502.3017, 656.8438
502.7838, 602.0938
503.2659, 596.8125
503.7480, 650.2500
504.2302, 743.6875
504.7123, 839.7500
505.1944, 921.3750
505.6765, 975.6562
506.1586, 960.2188
506.6407, 814.6875
507.1228, 698.1562
507.6049, 645.6250
508.0871, 597.1562
508.5692, 484.1562
509.0513, 327.0938
509.5334, 221.6250
510.0155, 255.9062
510.4977, 397.4375
510.9798, 484.4688
511.4619, 492.3438
511.9440, 501.5312
512.4261, 541.3750
512.9083, 592.1562
513.3904, 654.7500
513.8725, 729.4375
514.3546, 751.5000
514.8367, 597.8750
515.3188, 357.9375
515.8010, 326.6875
516.2831, 577.8438
516.7652, 798.4062
517.2473, 736.0312
517.7294, 479.3438
518.2115, 339.6562
518.6937, 406.5312
519.1758, 472.4062
519.6579, 414.5938
520.1400, 303.5000
520.6221, 269.2812
521.1042, 340.5625
521.5864, 420.0625
522.0685, 395.9062
522.5506, 253.0938
523.0327, 164.7188
523.5148, 146.6875
523.9969, 154.4375
524.4791, 224.0312
524.9612, 293.6562
525.4433, 244.5000
525.9254, 43.68750
526.4075, 165.1562
526.8896, 139.2812
527.3718, 180.0000
527.8539, 426.3750
528.3360, 608.3125
528.8181, 690.6562
529.3002, 595.4688
529.7823, 404.8125
530.2645, 272.1562
530.7466, 272.3438
531.2287, 317.7500
531.7108, 283.6562
532.1929, 177.7812
532.6750, 130.4062
533.1572, 198.3125
533.6393, 289.2812
534.1214, 301.5625
534.6035, 247.5938
535.0856, 192.1250
535.5677, 161.8438
536.0499, 125.0938
536.5320, 46.34375
537.0141, 59.28125
537.4962, 155.9375
537.9783, 232.1875
538.4604, 265.8750
538.9426, 208.4062
539.4247, 15.65625
539.9068, 133.9375
540.3889, 21.59375
540.8710, 71.40625
541.3531, 21.03125
541.8353, 237.0938
542.3174, 425.8125
542.7995, 506.1250
543.2816, 498.1562
543.7637, 433.4062
544.2458, 282.8438
544.7280, 167.3125
545.2101, 128.2500
545.6922, 106.1562
546.1743, 57.68750
546.6564, 3.781250
547.1385, 23.90625
547.6207, 63.15625
548.1028, 174.0000
548.5849, 172.1875
549.0670, 63.34375
549.5491, 52.50000
550.0313, 152.7188
550.5134, 222.8750
550.9955, 223.9062
551.4776, 152.1250
551.9597, 100.6250
552.4418, 112.7500
552.9240, 129.4062
553.4061, 127.2500
553.8882, 91.62500
554.3703, 25.78125
554.8524, 257.1250
555.3345, 537.3750
555.8167, 717.6875
556.2988, 743.6250
556.7809, 765.2812
557.2630, 791.0625
557.7451, 801.4062
558.2272, 749.2812
558.7094, 671.8125
559.1915, 668.7812
559.6736, 811.8125
560.1557, 1015.000
560.6378, 1102.344
561.1199, 1062.781
561.6021, 965.5625
562.0842, 748.1250
562.5663, 560.9062
563.0484, 572.1562
563.5305, 740.4375
564.0126, 832.9062
564.4948, 675.0938
564.9769, 458.5938
565.4590, 388.9375
565.9411, 438.8750
566.4232, 461.5000
566.9053, 390.0000
567.3875, 311.0625
567.8696, 375.6875
568.3517, 665.6875
568.8338, 817.2812
569.3159, 673.6562
569.7980, 545.4062
570.2802, 650.0312
570.7623, 884.5938
571.2444, 1023.188
571.7265, 960.4688
572.2086, 791.8438
572.6907, 683.1562
573.1729, 639.7812
573.6550, 628.5312
574.1371, 688.8750
574.6192, 734.7188
575.1013, 699.5938
575.5834, 625.0625
576.0656, 603.7500
576.5477, 688.7500
577.0298, 794.0312
577.5119, 816.8438
577.9940, 773.3438
578.4761, 755.6875
578.9583, 794.8750
579.4404, 830.2188
579.9225, 803.1562
580.4046, 714.4688
580.8867, 611.2188
581.3688, 419.8438
581.8510, 299.4062
582.3331, 388.8125
582.8152, 568.2500
583.2973, 654.2500
583.7794, 594.0000
584.2615, 466.1875
584.7437, 374.7188
585.2258, 329.3125
585.7079, 358.1875
586.1900, 497.7500
586.6721, 669.8750
587.1542, 956.7188
587.6363, 1212.875
588.1184, 1237.031
588.6005, 990.6562
589.0826, 713.3438
589.5648, 614.5312
590.0469, 660.3750
590.5290, 738.3750
591.0111, 851.1562
591.4932, 963.6250
591.9753, 1065.781
592.4575, 1148.969
592.9396, 1204.406
593.4217, 1249.562
593.9038, 1223.188
594.3859, 1028.375
594.8680, 795.8438
595.3502, 686.0625
595.8323, 692.8438
596.3144, 691.3438
596.7965, 596.1562
597.2786, 452.0625
597.7607, 372.8438
598.2429, 334.5000
598.7250, 392.3125
599.2071, 726.6875
599.6892, 1012.625
600.1713, 993.7812
600.6534, 734.7188
601.1356, 486.0625
601.6177, 395.0938
602.0998, 390.4062
602.5819, 347.9688
603.0640, 267.0312
603.5461, 196.8438
604.0283, 126.5625
604.5104, 104.7812
604.9925, 233.0938
605.4746, 494.9062
605.9567, 688.1562
606.4388, 773.1562
606.9210, 791.5938
607.4031, 739.2500
607.8852, 640.2812
608.3673, 526.5000
608.8494, 414.7188
609.3315, 338.0625
609.8137, 343.4375
610.2958, 440.1875
610.7779, 475.6875
611.2600, 360.4375
611.7421, 296.4062
612.2242, 376.1562
612.7064, 508.7812
613.1885, 594.9062
613.6706, 612.8438
614.1527, 604.9375
614.6348, 602.2500
615.1169, 602.0000
615.5991, 593.4688
616.0812, 573.9688
616.5633, 568.2188
617.0454, 613.0000
617.5275, 663.8750
618.0096, 606.3438
618.4918, 393.2812
618.9739, 243.5312
619.4560, 299.7500
619.9381, 360.1562
620.4202, 181.0000
620.9023, 149.8750
621.3845, 308.6250
621.8666, 109.0938
622.3487, 267.5000
622.8308, 403.0625
623.3129, 198.5625
623.7950, 65.96875
624.2772, 37.06250
624.7593, 75.56250
625.2414, 232.1250
625.7235, 432.3438
626.2056, 517.8438
626.6877, 391.6875
627.1699, 255.0000
627.6520, 331.1875
628.1341, 554.8438
628.6162, 715.6250
629.0983, 774.1250
629.5804, 802.8125
630.0626, 869.6562
630.5447, 959.3125
631.0268, 957.3438
631.5089, 786.7500
631.9910, 641.5000
632.4731, 555.5625
632.9553, 504.5312
633.4374, 453.5312
633.9195, 410.0000
634.4016, 426.8438
634.8837, 556.4062
635.3658, 748.7812
635.8480, 849.5625
636.3301, 846.3125
636.8122, 806.5312
637.2943, 716.7812
637.7764, 624.7812
638.2585, 559.0312
638.7407, 521.9688
639.2228, 522.3438
639.7049, 618.8438
640.1870, 699.8438
640.6691, 652.7500
641.1512, 528.3438
641.6334, 436.5625
642.1155, 407.3750
642.5976, 422.4375
643.0797, 474.1875
643.5618, 562.7812
644.0439, 571.0938
644.5261, 378.5938
645.0082, 254.5625
645.4903, 284.5312
645.9724, 366.9062
646.4545, 401.1875
646.9366, 383.5312
647.4188, 391.5625
647.9009, 498.9688
648.3830, 661.9375
648.8651, 786.1875
649.3472, 871.1875
649.8293, 939.4688
650.3115, 1004.031
650.7936, 1045.531
651.2757, 1023.562
651.7578, 934.7188
652.2399, 876.8750
652.7220, 816.3125
653.2042, 830.6250
653.6863, 1036.438
654.1684, 1313.594
654.6505, 1475.750
655.1326, 1473.906
655.6147, 1389.125
656.0969, 1287.000
656.5790, 1174.156
657.0611, 1179.844
657.5432, 1337.312
658.0253, 1542.281
658.5074, 1840.500
658.9896, 2119.844
659.4717, 2257.719
659.9538, 2251.094
660.4359, 2258.719
660.9180, 2376.281
661.4001, 2522.000
661.8823, 2612.312
662.3644, 2655.094
662.8465, 2686.594
663.3286, 2719.250
663.8107, 2747.938
664.2928, 2753.094
664.7750, 2712.344
665.2571, 2797.406
665.7392, 3113.875
666.2213, 3434.531
666.7034, 3719.125
667.1855, 3975.531
667.6677, 4184.031
668.1498, 4355.156
668.6319, 4592.656
669.1140, 5078.594
669.5961, 5665.469
670.0782, 5984.438
670.5604, 6033.219
671.0425, 6072.906
671.5246, 6195.781
672.0067, 6382.531
672.4888, 6638.656
672.9709, 7013.406
673.4531, 7175.812
673.9352, 6982.031
674.4173, 6720.406
674.8994, 6521.094
675.3815, 6331.625
675.8636, 6040.906
676.3458, 5631.594
676.8279, 5225.562
677.3100, 4992.000
677.7921, 4883.094
678.2742, 4552.750
678.7563, 3922.938
679.2385, 3345.531
679.7206, 2961.750
680.2027, 2699.125
680.6848, 2479.531
681.1669, 2302.281
681.6490, 2130.281
682.1312, 1960.719
682.6133, 1789.969
683.0954, 1594.625
683.5775, 1402.156
684.0596, 1271.938
684.5417, 1220.094
685.0239, 1198.219
685.5060, 1149.156
685.9881, 1074.562
686.4702, 1024.969
686.9523, 1004.594
687.4344, 1000.500
687.9166, 1030.938
688.3987, 1059.812
688.8808, 1059.938
689.3629, 1029.156
689.8450, 972.8438
690.3271, 886.5000
690.8093, 780.5312
691.2914, 608.0625
691.7735, 425.4375
692.2556, 426.7812
692.7377, 670.0000
693.2198, 942.6250
693.7020, 999.9375
694.1841, 844.3125
694.6662, 788.1250
695.1483, 963.2188
695.6304, 1046.500
696.1125, 906.0938
696.5947, 720.5625
697.0768, 641.7812
697.5589, 666.2812
698.0410, 683.6250
698.5231, 646.5938
699.0052, 571.4688
699.4874, 429.7812
699.9695, 248.0938
700.4516, 161.9375
700.9337, 216.8125
701.4158, 300.3125
701.8979, 298.3125
702.3801, 220.3750
702.8622, 207.1562
703.3443, 374.7188
703.8264, 455.6562
704.3085, 328.1250
704.7906, 185.0000
705.2728, 197.7812
705.7549, 333.7188
706.2370, 421.1250
706.7191, 350.5625
707.2012, 242.0625
707.6833, 298.9688
708.1655, 483.5938
708.6476, 586.2812
709.1297, 555.9688
709.6118, 532.3438
710.0939, 648.2188
710.5760, 850.4688
711.0582, 888.0625
711.5403, 653.8125
712.0224, 438.9688
712.5045, 226.2188
712.9866, 77.59375
713.4688, 85.18750
713.9509, 191.3125
714.4330, 237.4688
714.9151, 131.4375
715.3972, 10.87500
715.8793, 98.43750
716.3615, 344.3750
716.8436, 491.3750
717.3257, 512.8750
717.8078, 454.0312
718.2899, 308.3438
718.7720, 127.7188
719.2542, 96.00000
719.7363, 288.4062
720.2184, 459.8438
720.7005, 628.6562
721.1826, 731.0938
721.6647, 692.3438
722.1469, 569.1875
722.6290, 452.0000
723.1111, 371.7812
723.5932, 342.0312
724.0753, 409.2812
724.5574, 544.5625
725.0396, 619.7500
725.5217, 630.2500
726.0038, 592.2812
726.4859, 492.9062
726.9680, 372.8125
727.4501, 302.0000
727.9323, 288.8750
728.4144, 274.9688
728.8965, 286.0625
729.3786, 267.4062
729.8607, 140.5000
730.3428, 2.187500
730.8250, 23.53125
731.3071, 94.96875
731.7892, 246.7812
732.2713, 354.5625
732.7534, 416.7500
733.2355, 411.3750
733.7177, 334.3125
734.1998, 280.9375
734.6819, 283.2812
735.1640, 304.8125
735.6461, 314.9375
736.1282, 311.4688
736.6104, 284.2500
737.0925, 149.6875
737.5746, 100.5000
738.0567, 248.5312
738.5388, 442.6562
739.0209, 548.9688
739.5031, 565.2188
739.9852, 569.1562
740.4673, 612.2500
740.9494, 647.5000
741.4315, 578.4062
741.9136, 414.9062
742.3958, 262.8750
742.8779, 120.8750
743.3600, 68.15625
743.8421, 200.6875
744.3242, 447.7188
744.8063, 561.0938
745.2885, 435.0938
745.7706, 399.0938
746.2527, 648.7188
746.7348, 833.1250
747.2169, 637.1250
747.6990, 248.5312
748.1812, 26.87500
748.6633, 100.0938
749.1454, 299.3438
749.6275, 496.0312
750.1096, 672.5312
750.5917, 756.5312
751.0739, 744.0625
751.5560, 704.8125
752.0381, 661.4688
752.5202, 617.8438
753.0023, 580.6562
753.4844, 553.6562
753.9666, 509.2812
754.4487, 469.6875
754.9308, 386.2812
755.4129, 176.7500
755.8950, 39.34375
756.3771, 137.0938
756.8593, 110.9062
757.3414, 38.53125
757.8235, 58.28125
758.3056, 140.2812
758.7877, 127.8125
759.2698, 44.03125
759.7520, 5.031250
760.2341, 40.00000
760.7162, 68.34375
761.1983, 18.12500
761.6804, 87.59375
762.1625, 138.6562
762.6447, 110.0000
763.1268, 60.56250
763.6089, 81.50000
764.0910, 171.9062
764.5731, 77.53125
765.0552, 109.9688
765.5374, 204.5000
766.0195, 138.8750
766.5016, 57.81250
766.9837, 110.1250
767.4658, 203.0000
767.9479, 150.2188
768.4301, 26.62500
768.9122, 135.3125
769.3943, 87.06250
769.8764, 24.53125
770.3585, 51.46875
770.8406, 18.78125
771.3228, 26.53125
771.8049, 84.31250
772.2870, 167.5000
772.7691, 198.7188
773.2512, 172.9062
773.7333, 20.28125
774.2155, 227.7188
774.6976, 342.3125
775.1797, 94.37500
775.6618, 159.3750
776.1439, 120.9375
776.6260, 61.21875
777.1082, 145.1875
777.5903, 99.62500
778.0724, 39.03125
778.5545, 47.28125
779.0366, 90.68750
779.5187, 71.00000
780.0009, 31.71875
780.4830, 88.81250
780.9651, 90.31250
781.4472, 45.84375
781.9293, 70.87500
782.4114, 217.0938
782.8936, 309.6250
783.3757, 334.9688
783.8578, 343.8438
784.3399, 347.1562
784.8220, 338.2500
785.3041, 284.4375
785.7863, 224.3125
786.2684, 244.1875
786.7505, 358.5000
787.2326, 461.0000
787.7147, 425.7812
788.1968, 308.2812
788.6790, 306.2188
789.1611, 424.0938
789.6432, 484.0312
790.1253, 424.3438
790.6074, 336.5625
791.0895, 314.7812
791.5717, 351.0938
792.0538, 347.5312
792.5359, 256.0625
793.0180, 196.7188
793.5001, 224.3750
793.9822, 247.5000
794.4644, 140.6562
794.9465, 10.68750
795.4286, 13.81250
795.9107, 318.1562
796.3928, 648.1562
796.8749, 769.1875
797.3571, 764.0938
797.8392, 803.8125
798.3213, 882.7188
798.8034, 875.1562
799.2855, 719.8125
799.7676, 523.1562
800.2498, 450.0938
800.7319, 510.6875
801.2140, 462.6562
801.6961, 200.0938
802.1782, 17.90625
802.6603, 73.43750
803.1425, 177.2500
803.6246, 185.9375
804.1067, 114.1250
804.5888, 56.84375
805.0709, 36.90625
805.5530, 46.09375
806.0352, 74.03125
806.5173, 136.9062
806.9994, 274.8438
807.4815, 470.3438
807.9636, 668.8438
808.4457, 843.7812
808.9279, 962.8125
809.4100, 923.3750
809.8921, 744.6875
810.3742, 746.9062
810.8563, 985.7812
811.3384, 1166.594
811.8206, 1125.438
812.3027, 1005.781
812.7848, 1043.469
813.2669, 1281.781
813.7490, 1347.562
814.2311, 1127.781
814.7133, 885.9375
815.1954, 612.7812
815.6775, 410.7812
816.1596, 392.8750
816.6417, 537.7812
817.1238, 730.9688
817.6060, 945.1562
818.0881, 1121.906
818.5702, 1206.875
819.0523, 1199.688
819.5344, 1047.625
820.0165, 774.1875
820.4987, 585.3750
820.9808, 599.5938
821.4629, 719.0938
821.9450, 742.5000
822.4271, 640.8125
822.9092, 633.9062
823.3914, 783.8125
823.8735, 923.4062
824.3556, 968.1562
824.8377, 982.3750
825.3198, 1049.750
825.8019, 1173.125
826.2841, 1267.375
826.7662, 1327.812
827.2483, 1323.125
827.7304, 1168.031
828.2125, 991.0000
828.6946, 932.2500
829.1768, 987.3750
829.6589, 1088.406
830.1410, 1211.906
830.6231, 1322.406
831.1052, 1361.812
831.5873, 1353.125
832.0695, 1352.938
832.5516, 1359.688
833.0337, 1356.156
833.5158, 1317.906
833.9979, 1277.438
834.4800, 1266.594
834.9622, 1274.906
835.4443, 1299.875
835.9264, 1347.594
836.4085, 1395.375
836.8906, 1451.875
837.3727, 1492.375
837.8549, 1488.312
838.3370, 1449.156
838.8191, 1408.750
839.3012, 1368.406
839.7833, 1356.500
840.2654, 1407.125
840.7476, 1475.000
841.2297, 1491.594
841.7118, 1481.375
842.1939, 1562.031
842.6760, 1778.906
843.1581, 1956.375
843.6403, 1830.938
844.1224, 1468.312
844.6045, 1188.594
845.0866, 992.6562
845.5687, 893.6250
846.0508, 898.6250
846.5330, 999.1875
847.0151, 1223.250
847.4972, 1547.875
847.9793, 1724.406
848.4614, 1721.938
848.9435, 1610.594
849.4257, 1241.906
849.9078, 920.0000
850.3899, 834.3125
850.8720, 910.2812
851.3541, 1014.750
851.8362, 1125.500
852.3184, 1198.938
852.8005, 1198.562
853.2826, 1160.656
853.7647, 1097.781
854.2468, 1024.031
854.7289, 980.1562
855.2111, 970.5312
855.6932, 936.4688
856.1753, 805.8750
856.6574, 650.7188
857.1395, 707.1250
857.6216, 972.6250
858.1038, 1097.531
858.5859, 1004.250
859.0680, 886.3438
859.5501, 871.0625
860.0322, 906.6875
860.5143, 878.7500
860.9965, 765.9062
861.4786, 649.4375
861.9607, 470.0625
862.4428, 360.7188
862.9249, 374.6250
863.4070, 469.6250
863.8892, 648.2812
864.3713, 883.9062
864.8534, 1033.031
865.3355, 1015.469
865.8176, 933.5625
866.2997, 842.4375
866.7819, 732.3750
867.2640, 536.5625
867.7461, 304.7188
868.2282, 238.4375
868.7103, 437.1875
869.1924, 692.2500
869.6746, 689.4688
870.1567, 489.3750
870.6388, 414.6875
871.1209, 472.2188
871.6030, 526.0938
872.0851, 534.4688
872.5673, 512.3438
873.0494, 471.9062
873.5315, 415.8125
874.0136, 365.3750
874.4957, 294.3438
874.9778, 278.2188
875.4600, 393.7500
875.9421, 493.6562
876.4242, 488.8750
876.9063, 427.7812
877.3884, 396.7188
877.8705, 411.6250
878.3527, 424.1562
878.8348, 431.7500
879.3169, 416.7188
879.7990, 352.9375
880.2811, 266.4375
880.7632, 186.3750
881.2454, 122.8125
881.7275, 84.75000
882.2096, 83.53125
882.6917, 99.37500
883.1738, 75.59375
883.6559, 46.21875
884.1381, 167.3125
884.6202, 439.7812
885.1023, 628.3125
885.5844, 609.7500
886.0665, 500.5000
886.5486, 478.7500
887.0308, 545.8438
887.5129, 587.7500
887.9950, 603.5938
888.4771, 587.3125
888.9592, 517.9062
889.4413, 434.0625
889.9235, 347.5000
890.4056, 270.1875
890.8877, 256.1875
891.3698, 340.4375
891.8519, 420.3750
892.3340, 491.6250
892.8162, 545.4062
893.2983, 571.8125
893.7804, 581.9375
894.2625, 600.0938
894.7446, 628.0625
895.2267, 624.8438
895.7089, 581.6562
896.1910, 484.6875
896.6731, 265.7812
897.1552, 7.531250
897.6373, 143.5312
898.1194, 172.8750
898.6016, 131.1250
899.0837, 43.87500
899.5658, 52.68750
900.0479, 86.12500
900.5300, 67.71875
901.0121, 115.1875
901.4943, 236.8125
901.9764, 317.2500
902.4585, 309.0000
902.9406, 270.3125
903.4227, 259.5000
903.9048, 273.5625
904.3870, 292.1875
904.8691, 321.7812
905.3512, 344.0000
905.8333, 348.2188
906.3154, 358.3125
906.7975, 425.0938
907.2797, 490.5312
907.7618, 434.9062
908.2439, 230.6250
908.7260, 122.4375
909.2081, 220.0625
909.6902, 369.5938
910.1724, 546.2500
910.6545, 701.0938
911.1366, 790.2500
911.6187, 809.3125
912.1008, 747.4375
912.5829, 568.1875
913.0651, 455.0312
913.5472, 674.0000
914.0293, 1019.219
914.5114, 1130.906
914.9935, 1046.625
915.4756, 998.2188
915.9578, 1056.938
916.4398, 1093.188
916.9219, 953.8125
917.4041, 727.2188
917.8862, 734.4375
918.3683, 979.5625
918.8504, 1118.375
919.3325, 1093.812
919.8146, 1007.625
920.2968, 899.9375
920.7789, 815.4688
921.2610, 843.9062
921.7431, 995.2188
922.2252, 1161.281
922.7073, 1440.562
923.1895, 1596.562
923.6716, 1418.094
924.1537, 1213.094
924.6358, 1250.250
925.1179, 1457.594
925.6000, 1570.438
926.0822, 1532.219
926.5643, 1434.438
927.0464, 1233.375
927.5285, 1058.469
928.0106, 994.0938
928.4927, 1002.406
928.9749, 1044.594
929.4570, 1105.438
929.9391, 1154.531
930.4212, 1180.562
930.9033, 1195.219
931.3854, 1159.500
931.8676, 1105.562
932.3497, 1071.469
932.8318, 1051.562
933.3139, 997.5000
933.7960, 892.9062
934.2781, 767.5625
934.7603, 643.8438
935.2424, 531.4688
935.7245, 445.6250
936.2066, 391.5312
936.6887, 471.5625
937.1708, 718.8750
937.6530, 890.0625
938.1351, 792.2500
938.6172, 540.6250
939.0993, 417.7500
939.5814, 433.1250
940.0635, 532.2188
940.5457, 764.1562
941.0278, 961.2500
941.5099, 1086.875
941.9920, 1128.844
942.4741, 1021.906
942.9562, 793.9375
943.4384, 729.5000
943.9205, 979.4688
944.4026, 1155.125
944.8847, 1215.656
945.3668, 1223.719
945.8489, 1218.469
946.3311, 1174.938
946.8132, 1019.000
947.2953, 752.5625
947.7774, 577.0938
948.2595, 633.7188
948.7416, 711.0938
949.2238, 691.3125
949.7059, 649.6250
950.1880, 677.7188
950.6701, 751.9062
951.1522, 793.9062
951.6343, 775.8125
952.1165, 718.8125
952.5986, 612.6562
953.0807, 498.1562
953.5628, 421.3438
954.0449, 382.5625
954.5270, 385.4375
955.0092, 426.0938
955.4913, 489.9375
955.9734, 575.5938
956.4555, 641.9062
956.9376, 572.7812
957.4197, 412.8125
957.9019, 444.8438
958.3840, 669.8750
958.8661, 783.8750
959.3482, 680.1875
959.8303, 547.4688
960.3124, 567.2500
960.7946, 699.3438
961.2767, 794.1250
961.7588, 858.4062
962.2409, 844.5625
962.7230, 715.5312
963.2051, 597.1250
963.6873, 534.6250
964.1694, 523.9688
964.6515, 577.5000
965.1336, 694.5625
965.6157, 742.0625
966.0978, 636.9375
966.5800, 588.4688
967.0621, 664.0312
967.5442, 738.2812
968.0263, 738.4688
968.5084, 698.4688
968.9905, 687.1250
969.4727, 715.5625
969.9548, 677.7188
970.4369, 502.7188
970.9190, 322.0938
971.4011, 134.6875
971.8832, 10.00000
972.3654, 68.12500
972.8475, 230.2812
973.3296, 294.2188
973.8117, 193.1562
974.2938, 91.43750
974.7759, 82.71875
975.2581, 115.5312
975.7402, 192.8438
976.2223, 257.2812
976.7044, 200.5938
977.1865, 38.28125
977.6686, 114.3750
978.1508, 202.5625
978.6329, 233.4688
979.1150, 171.1562
979.5971, 81.87500
980.0792, 116.8750
980.5613, 234.0625
981.0435, 258.3750
981.5256, 158.0000
982.0077, 69.43750
982.4898, 101.7188
982.9719, 183.5312
983.4540, 167.4375
983.9362, 72.37500
984.4183, 20.34375
984.9004, 15.81250
985.3825, 11.00000
985.8646, 11.37500
986.3467, 39.15625
986.8289, 60.71875
987.3110, 75.21875
987.7931, 62.37500
988.2752, 176.4375
988.7573, 124.3438
989.2394, 308.0625
989.7216, 380.9062
990.2037, 11.15625
990.6858, 213.0000
991.1679, 185.6562
991.6500, 149.0312
992.1321, 431.4062
992.6143, 126.0312
993.0964, 403.4688
993.5785, 448.3750
994.0606, 599.7812
994.5427, 520.6250
995.0248, 512.6562
995.5070, 735.4375
995.9891, 830.4688
996.4712, 725.0625
996.9533, 883.5000
997.4354, 570.5625
997.9175, 551.7812
998.3997, 441.2500
998.8818, 368.3438
999.3639, 353.4375
999.8460, 455.7812
1000.328, 692.5000
1000.810, 839.7812
1001.292, 771.8125
1001.774, 694.0000
1002.257, 687.5938
1002.739, 702.4062
1003.221, 688.4688
1003.703, 659.8438
1004.185, 662.0000
1004.667, 708.1562
1005.149, 743.0312
1005.631, 738.6875
1006.114, 713.8438
1006.596, 639.8438
1007.078, 582.0000
1007.560, 654.4688
1008.042, 814.9375
1008.524, 908.4375
1009.006, 872.6875
1009.488, 835.8438
1009.970, 951.0000
1010.453, 1074.156
1010.935, 993.9062
1011.417, 824.1250
1011.899, 800.5000
1012.381, 917.6250
1012.863, 977.9062
1013.345, 877.3438
1013.827, 755.5312
1014.310, 770.5938
1014.792, 867.2500
1015.274, 961.0625
1015.756, 1043.438
1016.238, 1107.188
1016.720, 1145.062
1017.202, 1109.094
1017.684, 961.2500
1018.166, 823.1875
1018.649, 943.8125
1019.131, 732.7812
1019.613, 1009.406
1020.095, 1168.812
1020.577, 1217.406
1021.059, 823.3125
1021.541, 1000.906
1022.023, 949.4062
1022.505, 888.5000
1022.988, 1146.469
1023.470, 816.7188
1023.952, 1069.719
1024.434, 1090.062
1024.916, 1216.812
1025.398, 1113.156
1025.880, 1080.594
1026.362, 1278.719
1026.845, 1348.969
1027.327, 1219.594
1027.809, 1353.344
1028.291, 1015.438
1028.773, 1091.219
1029.255, 1345.500
1029.737, 1226.031
1030.219, 1363.688
1030.702, 1403.688
1031.184, 999.8125
1031.666, 1367.969
1032.148, 1402.219
1032.630, 1093.688
1033.112, 1201.969
1033.594, 1035.312
1034.076, 1091.750
1034.558, 1180.719
1035.041, 1133.812
1035.523, 998.0938
1036.005, 944.8750
1036.487, 991.7812
1036.969, 1091.125
1037.451, 1313.875
1037.933, 1453.344
1038.415, 1428.812
1038.897, 1333.375
1039.380, 1224.375
1039.862, 1112.250
1040.344, 1029.281
1040.826, 985.9688
1041.308, 913.9688
1041.790, 758.6875
1042.272, 664.6562
1042.754, 729.1562
1043.237, 805.3125
1043.719, 735.8438
1044.201, 592.0000
1044.683, 604.5938
1045.165, 886.6562
1045.647, 1000.531
1046.129, 711.0312
1046.611, 516.8438
1047.094, 594.6562
1047.576, 747.6562
1048.058, 810.3750
1048.540, 825.4375
1049.022, 926.6875
1049.504, 1178.125
1049.986, 1306.969
1050.468, 1121.875
1050.950, 1013.469
1051.432, 1156.312
1051.915, 1356.500
1052.397, 1472.969
1052.879, 1504.969
1053.361, 1452.656
1053.843, 1274.969
1054.325, 1186.375
1054.807, 1307.812
1055.289, 1444.750
1055.772, 1555.500
1056.254, 1621.469
1056.736, 1595.781
1057.218, 1532.812
1057.700, 1572.594
1058.182, 1766.969
1058.664, 1851.281
1059.146, 1639.938
1059.629, 1450.188
1060.111, 1388.031
1060.593, 1428.375
1061.075, 1585.500
1061.557, 1791.312
1062.039, 1904.625
1062.521, 1900.938
1063.003, 1833.281
1063.485, 1651.375
1063.968, 1504.500
1064.450, 1512.750
1064.932, 1529.875
1065.414, 1401.781
1065.896, 1216.125
1066.378, 1106.625
1066.860, 1103.406
1067.342, 1141.781
1067.824, 1250.156
1068.307, 1323.000
1068.789, 1315.031
1069.271, 1258.500
1069.753, 1130.906
1070.235, 982.5625
1070.717, 891.9688
1071.199, 866.0625
1071.681, 828.0000
1072.164, 711.6250
1072.646, 629.3125
1073.128, 692.6562
1073.610, 748.5625
1074.092, 617.0625
1074.574, 425.9688
1075.056, 393.4375
1075.538, 530.6250
1076.021, 670.0938
1076.503, 771.3125
1076.985, 815.5938
1077.467, 799.3125
1077.949, 718.7500
1078.431, 476.8125
1078.913, 225.8438
1079.395, 227.5000
1079.877, 444.7812
1080.359, 544.8125
1080.842, 344.9688
1081.324, 205.1250
1081.806, 376.4375
1082.288, 574.5000
1082.770, 640.2812
1083.252, 597.2812
1083.734, 422.5938
1084.216, 178.8125
1084.698, 54.56250
1085.181, 120.7500
1085.663, 237.3125
1086.145, 399.4375
1086.627, 522.3438
1087.109, 527.9688
1087.591, 488.1875
1088.073, 456.9375
1088.555, 453.6562
1089.038, 518.5625
1089.520, 673.3438
1090.002, 777.7500
1090.484, 739.4688
1090.966, 679.1562
1091.448, 659.3438
1091.930, 645.8438
1092.412, 575.4062
1092.895, 495.1562
1093.377, 535.7812
1093.859, 722.5312
1094.341, 822.4375
1094.823, 701.0625
1095.305, 544.8125
1095.787, 415.9688
1096.269, 295.9688
1096.751, 150.2812
1097.234, 12.90625
1097.716, 68.34375
1098.198, 84.50000
1098.680, 27.40625
1099.162, 192.2188
1099.644, 349.0000
1100.126, 308.9688
1100.608, 256.2188
1101.090, 362.4062
1101.573, 480.8125
1102.055, 375.5312
1102.537, 82.15625
1103.019, 99.09375
1103.501, 74.12500
1103.983, 10.00000
1104.465, 113.7188
1104.947, 192.1562
1105.430, 147.8750
1105.912, 57.21875
1106.394, 8.843750
1106.876, 55.84375
1107.358, 131.0625
1107.840, 279.9688
1108.322, 300.2500
1108.804, 24.03125
1109.286, 236.8125
1109.769, 136.7500
1110.251, 55.71875
1110.733, 291.1250
1111.215, 456.2812
1111.697, 252.5312
1112.179, 422.8125
1112.661, 744.0312
1113.143, 373.1562
1113.625, 56.78125
1114.108, 148.1562
1114.590, 223.9375
1115.072, 84.09375
1115.554, 139.9688
1116.036, 291.5312
1116.518, 366.2188
1117.000, 322.6250
1117.482, 10.93750
1117.965, 157.6562
1118.447, 51.84375
1118.929, 208.8125
1119.411, 98.43750
1119.893, 52.96875
1120.375, 0.7812500
1120.857, 206.2500
1121.339, 331.7188
1121.822, 395.9062
1122.304, 318.0625
1122.786, 18.31250
1123.268, 210.3125
1123.750, 105.6250
1124.232, 97.18750
1124.714, 301.8438
1125.196, 447.3125
1125.678, 367.8438
1126.161, 36.81250
1126.643, 103.8125
1127.125, 15.50000
1127.607, 107.5312
1128.089, 253.9062
1128.571, 336.3438
1129.053, 273.4688
1129.535, 227.4375
1130.017, 457.8438
1130.500, 888.8438
1130.982, 988.5312
1131.464, 719.7500
1131.946, 666.0625
1132.428, 896.7812
1132.910, 1071.312
1133.392, 1055.062
1133.874, 1011.469
1134.357, 1083.719
1134.839, 1258.625
1135.321, 1561.000
1135.803, 1960.562
1136.285, 2117.000
1136.767, 2040.719
1137.249, 2011.875
1137.731, 2090.062
1138.214, 2073.156
1138.696, 1822.656
1139.178, 1575.750
1139.660, 1724.500
1140.142, 2121.469
1140.624, 2313.406
1141.106, 2364.625
1141.588, 2538.531
1142.070, 2827.406
1142.552, 2982.688
1143.035, 2914.250
1143.517, 2783.625
1143.999, 2710.062
1144.481, 2709.250
1144.963, 2873.969
1145.445, 3090.500
1145.927, 3127.875
1146.409, 3037.062
1146.892, 2968.719
1147.374, 2966.094
1147.856, 3030.062
1148.338, 3171.469
1148.820, 3321.844
1149.302, 3421.812
1149.784, 3499.375
1150.266, 3584.250
1150.749, 3667.281
1151.231, 3748.594
1151.713, 3811.969
1152.195, 3798.750
1152.677, 3690.438
1153.159, 3632.469
1153.641, 3826.312
1154.123, 3935.594
1154.605, 3586.844
1155.088, 3248.375
1155.570, 3391.344
1156.052, 3787.281
1156.534, 4037.312
1157.016, 4108.125
1157.498, 4222.562
1157.980, 4442.531
1158.462, 4698.969
1158.944, 5045.375
1159.427, 5337.188
1159.909, 5525.500
1160.391, 5615.469
1160.873, 5574.938
1161.355, 5445.938
1161.837, 5294.406
1162.319, 5063.875
1162.801, 5060.906
1163.284, 5521.938
1163.766, 5812.281
1164.248, 5688.312
1164.730, 5607.750
1165.212, 5898.688
1165.694, 6252.250
1166.176, 6233.656
1166.658, 5911.312
1167.141, 5704.812
1167.623, 5641.562
1168.105, 5596.406
1168.587, 5577.844
1169.069, 5465.906
1169.551, 5215.281
1170.033, 5016.281
1170.515, 5005.906
1170.997, 5114.781
1171.479, 5214.469
1171.962, 5290.469
1172.444, 5229.375
1172.926, 5055.000
1173.408, 4988.719
1173.890, 5057.469
1174.372, 5161.594
1174.854, 5254.844
1175.336, 5329.375
1175.819, 5378.562
1176.301, 5392.875
1176.783, 5204.781
1177.265, 4960.094
1177.747, 5137.016
1178.229, 5612.656
1178.711, 5857.094
1179.193, 5779.578
1179.676, 5659.984
1180.158, 5654.547
1180.640, 5665.047
1181.122, 5550.484
1181.604, 5447.672
1182.086, 5551.328
1182.568, 5699.203
1183.050, 5637.703
1183.532, 5433.078
1184.015, 5295.359
1184.497, 5272.000
1184.979, 5292.609
1185.461, 5336.438
1185.943, 5380.359
1186.425, 5468.750
1186.907, 5494.438
1187.389, 5280.938
1187.871, 5042.609
1188.354, 5089.219
1188.836, 5341.844
1189.318, 5435.750
1189.800, 5257.891
1190.282, 5176.609
1190.764, 5365.609
1191.246, 5447.000
1191.728, 5243.812
1192.211, 5055.469
1192.693, 5055.375
1193.175, 5147.906
1193.657, 5205.703
1194.139, 5233.812
1194.621, 5299.859
1195.103, 5445.906
1195.585, 5411.000
1196.068, 5117.844
1196.550, 4997.188
1197.032, 5220.172
1197.514, 5412.844
1197.996, 5267.969
1198.478, 4976.359
1198.960, 4944.234
1199.442, 5094.391
1199.924, 4917.594
1200.406, 4495.359
1200.889, 4236.844
1201.371, 4173.734
1201.853, 4263.406
1202.335, 4487.547
1202.817, 4753.828
1203.299, 5033.969
1203.781, 5171.969
1204.263, 4805.172
1204.746, 4278.781
1205.228, 4128.797
1205.710, 4213.391
1206.192, 4230.812
1206.674, 4164.469
1207.156, 4158.281
1207.638, 4259.703
1208.120, 4328.359
1208.603, 4298.688
1209.085, 4195.078
1209.567, 3957.812
1210.049, 3726.031
1210.531, 3621.547
1211.013, 3581.906
1211.495, 3511.219
1211.977, 3415.312
1212.459, 3364.344
1212.942, 3378.953
1213.424, 3405.656
1213.906, 3469.625
1214.388, 3501.875
1214.870, 3497.250
1215.352, 3448.125
1215.834, 3348.656
1216.316, 3198.953
1216.798, 2971.359
1217.281, 2694.547
1217.763, 2634.531
1218.245, 2842.156
1218.727, 2789.672
1219.209, 2428.438
1219.691, 2128.156
1220.173, 1991.062
1220.655, 1952.078
1221.138, 1974.766
1221.620, 2024.828
1222.102, 2057.422
1222.584, 2076.891
1223.066, 2126.875
1223.548, 2163.031
1224.030, 2025.141
1224.512, 1757.047
1224.995, 1534.469
1225.477, 1408.766
1225.959, 1353.109
1226.441, 1361.656
1226.923, 1388.828
1227.405, 1419.266
1227.887, 1426.562
1228.369, 1354.422
1228.851, 1269.953
1229.333, 1278.000
1229.816, 1323.484
1230.298, 1269.297
1230.780, 1093.531
1231.262, 961.8438
1231.744, 930.5781
1232.226, 920.4688
1232.708, 952.1562
1233.190, 967.0312
1233.673, 950.7812
1234.155, 908.4375
1234.637, 844.5312
1235.119, 754.9375
1235.601, 607.7500
1236.083, 402.9531
1236.565, 414.0156
1237.047, 683.1250
1237.530, 822.4531
1238.012, 784.9844
1238.494, 710.6719
1238.976, 646.0156
1239.458, 608.8125
1239.940, 614.7031
1240.422, 641.4844
1240.904, 657.4688
1241.386, 663.7656
1241.869, 691.3125
1242.351, 701.5781
1242.833, 531.1250
1243.315, 257.3281
1243.797, 212.5312
1244.279, 458.5156
1244.761, 624.3906
1245.243, 449.9062
1245.725, 139.8442
1246.208, 308.6365
1246.690, 400.8681
1247.172, 420.6383
1247.654, 150.9235
1248.136, 255.0202
1248.618, 209.3092
1249.100, 157.4570
1249.582, 314.1643
1250.065, 86.54375
1250.547, 239.9436
1251.029, 241.2514
1251.511, 312.1694
1251.993, 232.3548
1252.475, 199.0978
1252.957, 316.6188
1253.439, 347.5625
1253.922, 487.6094
1254.404, 281.9844
1254.886, 186.5781
1255.368, 312.0469
1255.850, 134.4219
1256.332, 19.46875
1256.814, 106.2656
1257.296, 45.28125
1257.778, 158.9688
1258.260, 262.5938
1258.743, 94.82812
1259.225, 126.4375
1259.707, 187.2500
1260.189, 161.7031
1260.671, 88.06250
1261.153, 12.18750
1261.635, 54.28125
1262.117, 59.62500
1262.600, 149.5469
1263.082, 541.3594
1263.564, 739.2812
1264.046, 523.8125
1264.528, 417.8594
1265.010, 627.9375
1265.492, 808.5469
1265.974, 839.7031
1266.457, 839.9062
1266.939, 876.4062
1267.421, 918.9531
1267.903, 926.6406
1268.385, 902.7188
1268.867, 855.0469
1269.349, 778.7812
1269.831, 608.2104
1270.313, 777.0080
1270.796, 869.2171
1271.278, 888.9802
1271.760, 619.2568
1272.242, 723.3447
1272.724, 677.6250
1273.206, 625.7625
1273.688, 782.4625
1274.170, 554.8439
1274.652, 708.2364
1275.135, 709.5229
1275.617, 780.4320
1276.099, 700.6084
1276.581, 667.3408
1277.063, 512.4844
1277.545, 490.7656
1278.027, 507.4375
1278.509, 585.2500
1278.992, 612.3906
1279.474, 548.4062
1279.956, 457.8125
1280.438, 344.8906
1280.920, 239.0312
1281.402, 160.3438
1281.884, 105.5469
1282.366, 78.60938
1282.849, 76.56250
1283.331, 127.3906
1283.813, 235.1719
1284.295, 231.5000
1284.777, 97.06250
1285.259, 4.625000
1285.741, 0.9375000
1286.223, 58.87500
1286.705, 46.39062
1287.188, 0.0000000E+00
##END=



