##NAMES=Tremolite
##RRUFFID=R050210
##IDEAL CHEMISTRY=[box]Ca_2_Mg_5_Si_8_O_22_(OH)_2_
##LOCALITY=Sugar Lake, Cherryville, British Columbia, Canada
##OWNER=RRUFF
##SOURCE=Lloyd Twaites
##DESCRIPTION=Green bladed crystal fragment
##STATUS=The identification of this mineral has been confirmed by X-ray diffraction and chemical analysis
##URL=rruff.info/R050210
##MEASURED CHEMISTRY=(Na_0.34_K_0.06_)(Ca_1.96_Mg_0.01_)Mg_4.94_(Si_7.50_Al_0.46_)O_22_(OH)_2_
119.0842, 0.0000000E+00
119.5663, 36.28125
120.0484, 75.16406
120.5305, 87.28906
121.0126, 96.43750
121.4948, 133.0078
121.9769, 198.3672
122.4590, 260.7891
122.9411, 276.6172
123.4232, 265.5469
123.9053, 284.4375
124.3875, 384.7891
124.8696, 532.3594
125.3517, 583.2656
125.8338, 472.7812
126.3159, 342.0391
126.7980, 313.6172
127.2802, 252.0234
127.7623, 225.2656
128.2444, 349.5312
128.7265, 399.3438
129.2086, 401.8359
129.6907, 357.8906
130.1729, 334.9766
130.6550, 287.4531
131.1371, 261.5000
131.6192, 244.7656
132.1013, 221.5391
132.5834, 195.7969
133.0656, 155.0547
133.5477, 59.30469
134.0298, 25.46875
134.5119, 24.95312
134.9940, 80.04688
135.4761, 225.0312
135.9583, 259.7031
136.4404, 19.34375
136.9225, 129.6797
137.4046, 112.6562
137.8867, 3.921875
138.3688, 98.61719
138.8510, 154.2578
139.3331, 166.6172
139.8152, 140.3594
140.2973, 18.41406
140.7794, 56.22656
141.2615, 17.73438
141.7437, 206.8047
142.2258, 361.0391
142.7079, 382.0859
143.1900, 323.6172
143.6721, 311.4531
144.1542, 371.0859
144.6364, 452.8125
145.1185, 510.4375
145.6006, 541.3359
146.0827, 562.7422
146.5648, 558.2266
147.0469, 557.6094
147.5291, 605.8750
148.0112, 747.7578
148.4933, 918.7344
148.9754, 959.4062
149.4575, 780.0391
149.9396, 621.7266
150.4218, 572.0234
150.9039, 584.8125
151.3860, 593.1875
151.8681, 548.6328
152.3502, 466.3125
152.8323, 477.2188
153.3145, 729.4219
153.7966, 935.5312
154.2787, 1039.844
154.7608, 1052.930
155.2429, 999.8984
155.7250, 887.5391
156.2072, 704.0547
156.6893, 639.9609
157.1714, 787.5859
157.6535, 942.0625
158.1356, 1004.062
158.6177, 983.6875
159.0999, 965.0469
159.5820, 1031.336
160.0641, 1201.609
160.5462, 1324.820
161.0283, 1394.188
161.5104, 1424.297
161.9926, 1411.148
162.4747, 1355.656
162.9568, 1298.383
163.4389, 1297.156
163.9210, 1347.984
164.4031, 1352.844
164.8853, 1238.250
165.3674, 1085.406
165.8495, 1038.234
166.3316, 1156.719
166.8137, 1270.391
167.2958, 1178.766
167.7780, 932.9688
168.2601, 719.4375
168.7422, 635.7656
169.2243, 658.8594
169.7064, 702.5781
170.1885, 786.9375
170.6707, 852.5781
171.1528, 848.2500
171.6349, 788.6719
172.1170, 736.6719
172.5991, 756.7969
173.0812, 854.5625
173.5634, 909.1094
174.0455, 849.1875
174.5276, 795.2031
175.0097, 795.8750
175.4918, 851.7188
175.9739, 937.2969
176.4561, 1035.406
176.9382, 1169.766
177.4203, 1247.891
177.9024, 1248.344
178.3845, 1215.844
178.8666, 1163.344
179.3488, 1097.234
179.8309, 1024.078
180.3130, 951.5000
180.7951, 872.7812
181.2772, 812.2969
181.7593, 762.6094
182.2415, 733.0156
182.7236, 746.5781
183.2057, 803.8281
183.6878, 864.4062
184.1699, 864.7188
184.6520, 760.9531
185.1342, 681.4844
185.6163, 646.3438
186.0984, 630.1562
186.5805, 602.8594
187.0626, 554.5312
187.5447, 507.6875
188.0269, 506.4531
188.5090, 560.4375
188.9911, 611.7344
189.4732, 654.4375
189.9553, 684.6562
190.4374, 688.4062
190.9196, 651.9375
191.4017, 606.2500
191.8838, 591.6719
192.3659, 607.8906
192.8480, 653.7500
193.3301, 762.2656
193.8123, 902.9844
194.2944, 960.5781
194.7765, 864.3281
195.2586, 718.1562
195.7407, 632.0000
196.2228, 601.9062
196.7050, 589.0312
197.1871, 585.1250
197.6692, 591.4375
198.1513, 574.6719
198.6334, 489.7188
199.1155, 418.7031
199.5977, 427.2500
200.0798, 515.8125
200.5619, 606.0312
201.0440, 621.9688
201.5261, 551.1406
202.0082, 508.4688
202.4904, 543.8438
202.9725, 587.4531
203.4546, 619.1250
203.9367, 630.3906
204.4188, 606.7344
204.9009, 500.5156
205.3831, 238.1094
205.8652, 126.0781
206.3473, 309.7656
206.8294, 530.2969
207.3115, 617.6406
207.7936, 555.8281
208.2758, 465.9375
208.7579, 536.0938
209.2400, 921.0938
209.7221, 1117.516
210.2042, 1035.484
210.6863, 863.9688
211.1685, 690.2969
211.6506, 549.0156
212.1327, 471.8281
212.6148, 516.8750
213.0969, 803.7344
213.5790, 954.5156
214.0612, 854.4219
214.5433, 699.6250
215.0254, 656.9844
215.5075, 764.6406
215.9896, 932.4219
216.4717, 1033.859
216.9539, 1042.703
217.4360, 1035.453
217.9181, 989.0312
218.4002, 937.9062
218.8823, 920.4219
219.3644, 946.0469
219.8466, 987.8281
220.3287, 1011.141
220.8108, 1014.266
221.2929, 1011.844
221.7750, 978.2500
222.2571, 950.8750
222.7393, 994.3594
223.2214, 1132.156
223.7035, 1280.609
224.1856, 1315.562
224.6677, 1247.062
225.1498, 1201.688
225.6320, 1265.250
226.1141, 1359.344
226.5962, 1331.891
227.0783, 1123.516
227.5604, 896.6094
228.0425, 830.2188
228.5247, 889.4844
229.0068, 947.7500
229.4889, 945.7500
229.9710, 909.5938
230.4531, 899.6719
230.9352, 930.0781
231.4174, 969.4062
231.8995, 998.2500
232.3816, 1017.234
232.8637, 1025.953
233.3458, 1019.797
233.8279, 1002.781
234.3101, 992.7969
234.7922, 1005.297
235.2743, 996.6406
235.7564, 939.1875
236.2385, 846.4375
236.7206, 743.1250
237.2028, 631.8281
237.6849, 520.5469
238.1670, 442.9844
238.6491, 404.2188
239.1312, 396.7188
239.6133, 436.9219
240.0955, 498.9531
240.5776, 539.5938
241.0597, 528.1719
241.5418, 476.3750
242.0239, 439.6094
242.5060, 430.3750
242.9882, 419.8750
243.4703, 387.1250
243.9524, 350.1875
244.4345, 332.7031
244.9166, 346.8438
245.3987, 392.6094
245.8809, 476.2344
246.3630, 683.5000
246.8451, 811.8906
247.3272, 772.2344
247.8093, 648.3125
248.2914, 554.6250
248.7736, 557.1875
249.2557, 619.7969
249.7378, 591.9844
250.2199, 341.5312
250.7020, 164.1094
251.1841, 161.9531
251.6663, 230.5156
252.1484, 233.2812
252.6305, 104.9844
253.1126, 98.34375
253.5947, 202.6719
254.0768, 122.1562
254.5590, 33.15625
255.0411, 101.7500
255.5232, 221.7812
256.0053, 243.1875
256.4874, 131.2344
256.9695, 50.75000
257.4517, 149.7500
257.9338, 81.89062
258.4159, 24.04688
258.8980, 10.53125
259.3801, 39.23438
259.8622, 84.25000
260.3444, 152.7188
260.8265, 228.6250
261.3086, 281.7656
261.7907, 286.0469
262.2728, 309.0156
262.7549, 393.3281
263.2371, 471.7188
263.7192, 453.6094
264.2013, 318.4531
264.6834, 159.7500
265.1655, 125.0625
265.6476, 301.8281
266.1298, 390.6094
266.6119, 306.8281
267.0940, 177.5000
267.5761, 129.4375
268.0582, 192.0938
268.5403, 300.2969
269.0225, 390.7656
269.5046, 468.0625
269.9867, 456.8125
270.4688, 274.7031
270.9509, 69.10938
271.4330, 28.15625
271.9152, 3.218750
272.3973, 64.93750
272.8794, 110.6875
273.3615, 131.0781
273.8436, 139.7812
274.3257, 110.2188
274.8079, 86.25000
275.2900, 106.5156
275.7721, 170.0781
276.2542, 241.0469
276.7363, 299.6719
277.2184, 337.9688
277.7006, 344.5312
278.1827, 263.9062
278.6648, 194.8438
279.1469, 227.5000
279.6290, 349.2656
280.1111, 453.8750
280.5933, 459.4062
281.0754, 406.8906
281.5575, 441.8906
282.0396, 666.2344
282.5217, 855.3125
283.0038, 840.7188
283.4860, 656.4375
283.9681, 477.6875
284.4502, 377.2656
284.9323, 338.1875
285.4144, 315.2344
285.8965, 311.2188
286.3787, 315.7344
286.8608, 326.4844
287.3429, 341.9531
287.8250, 351.2656
288.3071, 338.2188
288.7892, 336.4844
289.2714, 406.7031
289.7535, 559.2500
290.2356, 687.0312
290.7177, 726.5312
291.1998, 702.8906
291.6819, 684.1562
292.1641, 686.4688
292.6462, 693.4219
293.1283, 696.4062
293.6104, 694.6250
294.0925, 662.4688
294.5746, 539.1719
295.0568, 386.9844
295.5389, 352.5312
296.0210, 488.8125
296.5031, 635.2500
296.9852, 632.4062
297.4673, 526.8125
297.9495, 436.2188
298.4316, 418.1719
298.9137, 429.7656
299.3958, 400.6094
299.8779, 320.0625
300.3600, 243.7656
300.8422, 208.8125
301.3243, 203.5000
301.8064, 212.9219
302.2885, 244.3750
302.7706, 279.4531
303.2527, 301.5781
303.7349, 311.6406
304.2170, 301.4375
304.6991, 248.4688
305.1812, 182.0156
305.6633, 144.8438
306.1454, 151.5781
306.6276, 164.9688
307.1097, 147.4844
307.5918, 101.7344
308.0739, 65.43750
308.5560, 40.23438
309.0381, 42.46875
309.5203, 96.75000
310.0024, 209.6406
310.4845, 312.9688
310.9666, 353.6562
311.4487, 338.5938
311.9308, 304.4375
312.4130, 230.5000
312.8951, 174.6250
313.3772, 203.0000
313.8593, 302.3125
314.3414, 387.6562
314.8235, 414.5938
315.3057, 390.7344
315.7878, 340.6250
316.2699, 243.6719
316.7520, 170.0625
317.2341, 213.9531
317.7162, 320.7812
318.1984, 367.1719
318.6805, 257.0938
319.1626, 85.76562
319.6447, 5.875000
320.1268, 29.89062
320.6089, 85.17188
321.0911, 167.2656
321.5732, 246.4219
322.0553, 272.9375
322.5374, 218.1562
323.0195, 140.3281
323.5016, 115.7656
323.9838, 145.3438
324.4659, 116.9688
324.9480, 82.35938
325.4301, 310.4062
325.9122, 393.8594
326.3943, 309.1875
326.8765, 159.2812
327.3586, 27.43750
327.8407, 234.0312
328.3228, 352.3438
328.8049, 330.3750
329.2870, 241.4219
329.7692, 168.1562
330.2513, 110.4375
330.7334, 51.50000
331.2155, 40.71875
331.6976, 137.4688
332.1797, 160.8125
332.6619, 82.64062
333.1440, 11.59375
333.6261, 30.20312
334.1082, 7.359375
334.5903, 30.56250
335.0724, 194.7188
335.5546, 384.0156
336.0367, 431.7656
336.5188, 325.5469
337.0009, 201.4062
337.4830, 122.0156
337.9651, 81.67188
338.4473, 66.68750
338.9294, 73.45312
339.4115, 109.5625
339.8936, 205.0156
340.3757, 349.1406
340.8578, 455.7188
341.3400, 487.4219
341.8221, 469.5156
342.3042, 438.4375
342.7863, 388.4219
343.2684, 355.0625
343.7505, 366.0625
344.2327, 405.9219
344.7148, 433.2344
345.1969, 432.9062
345.6790, 435.3125
346.1611, 486.7031
346.6432, 578.3281
347.1254, 658.2188
347.6075, 742.7812
348.0896, 793.7656
348.5717, 739.2188
349.0538, 570.0156
349.5359, 396.2656
350.0181, 288.5000
350.5002, 245.1875
350.9823, 234.9375
351.4644, 266.6562
351.9465, 322.3750
352.4286, 405.8906
352.9108, 508.3125
353.3929, 594.3750
353.8750, 649.1719
354.3571, 673.0312
354.8392, 664.0625
355.3214, 599.6562
355.8035, 556.5000
356.2856, 595.2031
356.7677, 667.3906
357.2498, 671.7500
357.7319, 568.5469
358.2141, 446.0000
358.6962, 438.3281
359.1783, 570.9062
359.6604, 656.4375
360.1425, 655.3750
360.6246, 610.9375
361.1068, 544.4688
361.5889, 464.1875
362.0710, 410.8438
362.5531, 427.4844
363.0352, 513.1875
363.5173, 556.2500
363.9995, 556.6875
364.4816, 520.1719
364.9637, 397.7344
365.4458, 236.4375
365.9279, 168.5469
366.4100, 278.0781
366.8922, 492.2812
367.3743, 565.4375
367.8564, 295.3906
368.3385, 174.6406
368.8206, 405.4531
369.3027, 758.2031
369.7849, 974.4531
370.2670, 980.3750
370.7491, 856.5781
371.2312, 700.5469
371.7133, 478.7969
372.1954, 337.5938
372.6776, 317.2812
373.1597, 337.0781
373.6418, 366.0781
374.1239, 392.9688
374.6060, 398.4219
375.0881, 359.5312
375.5703, 280.2344
376.0524, 287.3906
376.5345, 493.8438
377.0166, 657.5625
377.4987, 728.8906
377.9808, 723.9844
378.4630, 652.1250
378.9451, 516.4531
379.4272, 351.1562
379.9093, 236.8281
380.3914, 190.5781
380.8735, 172.0938
381.3557, 198.2031
381.8378, 234.4844
382.3199, 259.0312
382.8020, 260.8125
383.2841, 235.8906
383.7662, 182.8594
384.2484, 96.56250
384.7305, 92.31250
385.2126, 273.8906
385.6947, 432.0000
386.1768, 510.1250
386.6589, 513.7969
387.1411, 451.4844
387.6232, 308.8906
388.1053, 133.4531
388.5874, 113.2188
389.0695, 362.5000
389.5516, 540.0312
390.0338, 550.7188
390.5159, 486.4531
390.9980, 416.7344
391.4801, 357.5156
391.9622, 305.2500
392.4443, 249.3438
392.9265, 184.8594
393.4086, 166.6094
393.8907, 239.5312
394.3728, 328.1250
394.8549, 398.3125
395.3370, 448.0938
395.8192, 477.9375
396.3013, 488.3906
396.7834, 479.6406
397.2655, 449.8750
397.7476, 393.7812
398.2297, 330.1719
398.7119, 260.9688
399.1940, 191.8438
399.6761, 127.4375
400.1582, 61.09375
400.6403, 15.12500
401.1224, 25.37500
401.6046, 87.70312
402.0867, 135.3281
402.5688, 148.5312
403.0509, 135.9219
403.5330, 102.2188
404.0151, 46.18750
404.4973, 5.171875
404.9794, 12.53125
405.4615, 40.67188
405.9436, 30.90625
406.4257, 29.45312
406.9078, 75.54688
407.3900, 33.06250
407.8721, 75.12500
408.3542, 126.1250
408.8363, 59.68750
409.3184, 18.65625
409.8005, 41.01562
410.2827, 17.67188
410.7648, 11.82812
411.2469, 28.95312
411.7290, 44.75000
412.2111, 93.67188
412.6932, 214.0625
413.1754, 268.3281
413.6575, 161.1094
414.1396, 13.76562
414.6217, 44.67188
415.1038, 5.875000
415.5859, 105.4219
416.0681, 204.6406
416.5502, 308.0625
417.0323, 342.3750
417.5144, 257.9062
417.9965, 167.4062
418.4786, 93.48438
418.9608, 49.48438
419.4429, 57.45312
419.9250, 130.3125
420.4071, 249.8750
420.8892, 370.0312
421.3713, 547.3750
421.8535, 632.6094
422.3356, 559.8281
422.8177, 445.2656
423.2998, 370.4688
423.7819, 349.7812
424.2640, 357.5000
424.7462, 373.3125
425.2283, 399.2969
425.7104, 400.0000
426.1925, 358.7812
426.6746, 306.9688
427.1567, 227.6719
427.6389, 149.2344
428.1210, 116.7812
428.6031, 155.2656
429.0852, 237.5781
429.5673, 310.7500
430.0494, 372.0312
430.5316, 435.9219
431.0137, 557.2969
431.4958, 645.5000
431.9779, 610.4844
432.4600, 458.6406
432.9421, 314.4219
433.4243, 265.1562
433.9064, 300.9062
434.3885, 395.6406
434.8706, 592.1094
435.3527, 745.5156
435.8348, 723.7500
436.3170, 603.0938
436.7991, 503.5625
437.2812, 452.6875
437.7633, 433.0156
438.2454, 442.4531
438.7275, 474.9531
439.2097, 486.5156
439.6918, 453.2188
440.1739, 404.5781
440.6560, 372.2656
441.1381, 348.4062
441.6202, 385.0469
442.1024, 554.5625
442.5845, 760.4062
443.0666, 899.3594
443.5487, 961.2969
444.0308, 966.0312
444.5129, 909.6562
444.9951, 805.9688
445.4772, 781.7656
445.9593, 938.4062
446.4414, 1045.453
446.9235, 975.2188
447.4056, 828.7969
447.8878, 778.1719
448.3699, 879.8594
448.8520, 1021.750
449.3341, 1026.406
449.8162, 823.8438
450.2983, 679.2812
450.7805, 573.7188
451.2626, 533.2969
451.7447, 627.7656
452.2268, 802.5469
452.7089, 928.4844
453.1910, 917.8906
453.6732, 793.7812
454.1553, 637.9531
454.6374, 348.5000
455.1195, 210.1406
455.6016, 384.2656
456.0837, 631.0000
456.5659, 731.2031
457.0480, 653.5156
457.5301, 548.5781
458.0122, 580.8438
458.4943, 747.4688
458.9764, 895.1719
459.4586, 1033.859
459.9407, 1128.219
460.4228, 1141.125
460.9049, 1105.812
461.3870, 1082.531
461.8691, 1097.922
462.3513, 1123.766
462.8334, 1134.000
463.3155, 1128.188
463.7976, 1092.969
464.2797, 1030.359
464.7618, 926.5312
465.2440, 725.2500
465.7261, 419.5469
466.2082, 233.4219
466.6903, 304.6719
467.1724, 501.4531
467.6545, 697.8438
468.1367, 877.6719
468.6188, 992.0312
469.1009, 992.5938
469.5830, 903.0938
470.0651, 845.1094
470.5472, 799.1875
471.0294, 803.1250
471.5115, 914.6250
471.9936, 1060.578
472.4757, 1144.172
472.9578, 1148.406
473.4399, 1123.234
473.9221, 1128.547
474.4042, 1173.141
474.8863, 1171.281
475.3684, 1093.594
475.8505, 1008.656
476.3326, 941.4531
476.8148, 884.1406
477.2969, 814.0781
477.7790, 719.7812
478.2611, 625.6250
478.7432, 588.6719
479.2253, 626.1250
479.7075, 673.4531
480.1896, 767.5156
480.6717, 833.9688
481.1538, 819.9375
481.6359, 735.8125
482.1180, 633.4844
482.6002, 525.2656
483.0823, 431.6250
483.5644, 421.3906
484.0465, 515.4844
484.5286, 626.5312
485.0107, 754.6094
485.4929, 855.3438
485.9750, 860.2500
486.4571, 743.2812
486.9392, 622.5312
487.4213, 557.3594
487.9034, 542.7812
488.3856, 588.3750
488.8677, 707.1250
489.3498, 801.5469
489.8319, 757.3594
490.3140, 590.6094
490.7961, 545.2812
491.2783, 778.4688
491.7604, 961.6094
492.2425, 910.5469
492.7246, 717.1875
493.2067, 538.2812
493.6888, 430.0469
494.1710, 387.0156
494.6531, 406.3594
495.1352, 511.3281
495.6173, 610.0000
496.0994, 715.7969
496.5815, 804.0938
497.0637, 888.7031
497.5458, 943.7656
498.0279, 906.8438
498.5100, 735.3750
498.9921, 493.2344
499.4742, 331.6719
499.9564, 257.8125
500.4385, 244.8750
500.9206, 362.9062
501.4027, 478.5938
501.8848, 471.4219
502.3669, 367.4375
502.8491, 327.7969
503.3312, 523.3906
503.8133, 849.7031
504.2954, 1019.734
504.7775, 1015.406
505.2596, 934.9844
505.7418, 747.9531
506.2239, 553.3750
506.7060, 507.7188
507.1881, 657.0625
507.6702, 795.2812
508.1523, 807.6875
508.6345, 745.8438
509.1166, 683.2812
509.5987, 631.4219
510.0808, 612.6094
510.5629, 656.5000
511.0450, 754.3125
511.5272, 806.8438
512.0093, 791.6875
512.4914, 763.9062
512.9735, 714.1250
513.4556, 674.0000
513.9377, 704.0469
514.4199, 819.2656
514.9020, 937.4531
515.3841, 949.7500
515.8662, 839.0156
516.3483, 735.6562
516.8304, 623.6250
517.3126, 539.5938
517.7947, 534.8906
518.2768, 553.8281
518.7589, 503.2031
519.2410, 341.4688
519.7231, 151.6094
520.2053, 70.04688
520.6874, 106.0625
521.1695, 132.2500
521.6516, 120.5469
522.1337, 111.2500
522.6158, 141.5156
523.0980, 193.8125
523.5801, 226.5000
524.0622, 224.7969
524.5443, 202.8281
525.0264, 160.2031
525.5085, 105.1406
525.9907, 93.29688
526.4728, 155.4688
526.9549, 229.9062
527.4370, 231.8594
527.9191, 151.9531
528.4012, 91.95312
528.8834, 89.95312
529.3655, 87.73438
529.8476, 20.73438
530.3297, 83.28125
530.8118, 140.2344
531.2939, 104.9688
531.7761, 2.078125
532.2582, 111.3906
532.7403, 259.0000
533.2224, 364.2812
533.7045, 405.4375
534.1866, 424.6875
534.6688, 455.7344
535.1509, 487.5625
535.6330, 477.7344
536.1151, 384.2500
536.5972, 248.7812
537.0793, 194.5000
537.5615, 249.2344
538.0436, 274.2344
538.5257, 200.8438
539.0078, 106.0156
539.4899, 62.21875
539.9720, 69.87500
540.4542, 73.26562
540.9363, 41.03125
541.4184, 7.437500
541.9005, 52.84375
542.3826, 92.48438
542.8647, 105.0312
543.3469, 71.15625
543.8290, 11.34375
544.3111, 21.34375
544.7932, 17.25000
545.2753, 10.96875
545.7574, 21.75000
546.2396, 20.31250
546.7217, 46.67188
547.2038, 159.3125
547.6859, 222.0625
548.1680, 159.2812
548.6501, 10.29688
549.1323, 44.92188
549.6144, 80.57812
550.0965, 149.1562
550.5786, 98.06250
551.0607, 16.26562
551.5428, 33.81250
552.0250, 49.32812
552.5071, 62.75000
552.9892, 98.34375
553.4713, 149.2188
553.9534, 206.8750
554.4355, 281.2969
554.9177, 306.4219
555.3998, 222.3281
555.8819, 98.03125
556.3640, 26.20312
556.8461, 12.04688
557.3282, 16.85938
557.8104, 21.71875
558.2925, 39.84375
558.7746, 104.5469
559.2567, 208.4375
559.7388, 284.3125
560.2209, 288.4531
560.7031, 241.8906
561.1852, 211.6094
561.6673, 213.1250
562.1494, 209.9219
562.6315, 190.3906
563.1136, 175.2500
563.5958, 193.2031
564.0779, 232.8438
564.5600, 244.2500
565.0421, 182.0625
565.5242, 83.95312
566.0063, 95.01562
566.4885, 273.7500
566.9706, 388.3750
567.4527, 314.3125
567.9348, 208.2031
568.4169, 195.5000
568.8990, 265.1562
569.3812, 293.1250
569.8633, 148.6406
570.3454, 40.32812
570.8275, 62.87500
571.3096, 70.18750
571.7917, 174.2344
572.2739, 161.5781
572.7560, 97.79688
573.2381, 108.3906
573.7202, 224.9688
574.2023, 290.6406
574.6844, 270.9844
575.1666, 214.4062
575.6487, 117.1250
576.1308, 11.12500
576.6129, 25.51562
577.0950, 50.59375
577.5771, 181.7500
578.0593, 239.3125
578.5414, 199.5312
579.0235, 148.7500
579.5056, 48.65625
579.9877, 23.65625
580.4698, 17.14062
580.9520, 43.43750
581.4341, 103.7969
581.9162, 147.9531
582.3983, 162.6094
582.8804, 97.84375
583.3625, 33.54688
583.8447, 83.89062
584.3268, 3.296875
584.8089, 132.2656
585.2910, 276.2188
585.7731, 421.1875
586.2552, 478.9062
586.7374, 350.0469
587.2195, 229.5469
587.7016, 254.3750
588.1837, 341.8125
588.6658, 332.7188
589.1479, 190.7969
589.6301, 55.76562
590.1122, 102.7969
590.5943, 356.8125
591.0764, 539.4375
591.5585, 645.8281
592.0406, 678.9375
592.5228, 580.4062
593.0049, 436.2812
593.4870, 346.0469
593.9691, 334.5156
594.4512, 353.3594
594.9333, 360.8906
595.4155, 360.5312
595.8976, 362.5469
596.3797, 361.2656
596.8618, 394.7656
597.3439, 530.4688
597.8260, 698.0156
598.3082, 719.2656
598.7903, 516.7500
599.2724, 362.4375
599.7545, 394.4219
600.2366, 487.3281
600.7188, 496.7344
601.2009, 426.7812
601.6830, 384.7656
602.1651, 445.3594
602.6472, 571.8438
603.1293, 633.8594
603.6115, 599.6562
604.0936, 557.9219
604.5757, 516.0469
605.0578, 458.1719
605.5399, 360.4688
606.0220, 247.7031
606.5042, 178.5469
606.9863, 188.0938
607.4684, 225.0938
607.9505, 214.7969
608.4326, 166.3125
608.9147, 160.3906
609.3969, 226.0000
609.8790, 317.5938
610.3611, 394.9844
610.8432, 459.5312
611.3253, 507.8906
611.8074, 541.6250
612.2896, 556.7500
612.7717, 563.8281
613.2538, 547.1719
613.7359, 453.1875
614.2180, 273.0469
614.7001, 107.7812
615.1823, 81.43750
615.6644, 200.6875
616.1465, 316.3281
616.6286, 481.7969
617.1107, 563.9531
617.5928, 460.8750
618.0750, 301.8125
618.5571, 226.4844
619.0392, 259.2344
619.5213, 304.6094
620.0034, 293.1875
620.4855, 243.0938
620.9677, 170.5312
621.4498, 74.15625
621.9319, 63.28125
622.4140, 230.0312
622.8961, 475.1406
623.3782, 580.6250
623.8604, 515.7500
624.3425, 436.9375
624.8246, 314.5469
625.3067, 223.5781
625.7888, 232.2188
626.2709, 312.6250
626.7531, 389.0156
627.2352, 422.6875
627.7173, 447.3281
628.1994, 535.8594
628.6815, 720.2031
629.1636, 821.3750
629.6458, 763.1250
630.1279, 689.0312
630.6100, 687.1562
631.0921, 716.2500
631.5742, 693.0625
632.0563, 573.2188
632.5385, 468.6562
633.0206, 477.3281
633.5027, 554.2031
633.9848, 611.0312
634.4669, 636.0156
634.9490, 668.0312
635.4312, 741.7969
635.9133, 832.7031
636.3954, 827.8906
636.8775, 584.2500
637.3596, 436.7812
637.8417, 442.6250
638.3239, 510.2344
638.8060, 615.9062
639.2881, 721.2344
639.7702, 771.6406
640.2523, 724.9531
640.7344, 639.1875
641.2166, 633.2188
641.6987, 715.3125
642.1808, 781.7969
642.6629, 799.4688
643.1450, 792.7656
643.6271, 782.1250
644.1093, 771.4688
644.5914, 776.9688
645.0735, 822.1719
645.5556, 859.7031
646.0377, 873.2812
646.5198, 864.0312
647.0020, 823.8438
647.4841, 755.7656
647.9662, 687.0000
648.4483, 633.9688
648.9304, 603.5156
649.4125, 657.7031
649.8947, 886.2812
650.3768, 1027.875
650.8589, 995.5312
651.3410, 898.4219
651.8231, 793.2500
652.3052, 688.8594
652.7874, 590.2344
653.2695, 492.2344
653.7516, 407.0781
654.2337, 354.7969
654.7158, 330.3438
655.1979, 307.0938
655.6801, 274.0938
656.1622, 259.1250
656.6443, 295.5938
657.1264, 386.1094
657.6085, 480.7188
658.0906, 589.7969
658.5728, 690.3281
659.0549, 789.5312
659.5370, 871.6562
660.0191, 929.1562
660.5012, 956.7812
660.9833, 936.2500
661.4655, 828.7344
661.9476, 675.7656
662.4297, 626.6719
662.9118, 698.9531
663.3939, 730.2188
663.8760, 627.3906
664.3582, 514.8750
664.8403, 566.5156
665.3224, 766.9219
665.8045, 925.9062
666.2866, 978.5781
666.7687, 1018.984
667.2509, 1100.422
667.7330, 1203.922
668.2151, 1310.891
668.6972, 1411.719
669.1793, 1465.547
669.6614, 1414.750
670.1436, 1275.188
670.6257, 1246.969
671.1078, 1382.062
671.5899, 1520.703
672.0720, 1639.188
672.5541, 1730.000
673.0363, 1789.250
673.5184, 1815.375
674.0005, 1801.406
674.4826, 1684.484
674.9647, 1573.188
675.4468, 1623.422
675.9290, 1771.172
676.4111, 1813.594
676.8932, 1686.609
677.3753, 1486.078
677.8574, 1315.578
678.3395, 1174.391
678.8217, 1083.641
679.3038, 1093.641
679.7859, 1092.766
680.2680, 1090.797
680.7501, 1052.484
681.2322, 902.5156
681.7144, 663.0469
682.1965, 494.2344
682.6786, 553.5312
683.1607, 711.5938
683.6428, 756.1875
684.1249, 698.0000
684.6071, 620.3281
685.0892, 540.0000
685.5713, 475.2969
686.0534, 450.3594
686.5355, 467.2812
687.0176, 471.0469
687.4998, 484.8438
687.9819, 455.7656
688.4640, 317.4375
688.9461, 162.7344
689.4282, 86.65625
689.9103, 97.92188
690.3925, 144.0000
690.8746, 199.5469
691.3567, 249.0000
691.8388, 236.5938
692.3209, 158.9375
692.8030, 135.1406
693.2852, 222.7656
693.7673, 328.5312
694.2494, 370.0156
694.7315, 346.7344
695.2136, 262.7031
695.6957, 1.093750
696.1779, 180.3281
696.6600, 109.2969
697.1421, 48.96875
697.6242, 116.9531
698.1063, 72.57812
698.5884, 13.45312
699.0706, 101.0469
699.5527, 169.5000
700.0348, 149.2812
700.5169, 27.14062
700.9990, 106.8125
701.4811, 277.2188
701.9633, 395.7500
702.4454, 323.7031
702.9275, 128.9844
703.4096, 45.79688
703.8917, 211.4375
704.3738, 345.6094
704.8560, 268.4062
705.3381, 132.0781
705.8202, 133.3281
706.3023, 280.1562
706.7844, 441.7031
707.2665, 529.7344
707.7487, 556.0625
708.2308, 542.2812
708.7129, 471.7969
709.1950, 437.0625
709.6771, 491.1719
710.1592, 529.5156
710.6414, 449.2656
711.1235, 314.4219
711.6056, 274.5938
712.0877, 396.9062
712.5698, 483.9531
713.0519, 384.4062
713.5341, 235.6250
714.0162, 206.8281
714.4983, 294.2344
714.9804, 417.7656
715.4625, 538.0312
715.9446, 614.1250
716.4268, 528.5781
716.9089, 203.4688
717.3910, 76.96875
717.8731, 303.8125
718.3552, 535.1562
718.8373, 629.5469
719.3195, 620.1250
719.8016, 533.3281
720.2837, 355.4688
720.7658, 201.5469
721.2479, 122.4219
721.7300, 97.03125
722.2122, 114.0625
722.6943, 164.5938
723.1764, 243.0625
723.6585, 348.2656
724.1406, 421.9531
724.6227, 357.2812
725.1049, 130.5156
725.5870, 12.21875
726.0691, 55.06250
726.5512, 36.70312
727.0333, 91.54688
727.5154, 234.6406
727.9976, 274.4531
728.4797, 204.5781
728.9618, 174.9062
729.4439, 294.6562
729.9260, 441.0625
730.4081, 497.3594
730.8903, 492.0781
731.3724, 497.9062
731.8545, 536.1875
732.3366, 588.0469
732.8187, 640.7656
733.3008, 689.7656
733.7830, 672.3281
734.2651, 545.8906
734.7472, 446.8906
735.2293, 439.4062
735.7114, 442.6406
736.1935, 393.6875
736.6757, 303.5312
737.1578, 226.1406
737.6399, 136.7344
738.1220, 118.9531
738.6041, 328.0938
739.0862, 604.9688
739.5684, 651.7344
740.0505, 456.4375
740.5326, 275.6719
741.0147, 302.3906
741.4968, 454.8438
741.9789, 470.9219
742.4611, 295.5469
742.9432, 185.7500
743.4253, 191.8906
743.9074, 235.1719
744.3895, 283.3281
744.8716, 332.1250
745.3538, 383.2500
745.8359, 458.0781
746.3180, 465.8281
746.8001, 253.7812
747.2822, 36.26562
747.7643, 75.85938
748.2465, 316.7812
748.7286, 541.2031
749.2107, 650.1406
749.6928, 676.1094
750.1749, 662.5938
750.6570, 608.7969
751.1392, 512.7031
751.6213, 315.8281
752.1034, 214.7969
752.5855, 386.6406
753.0676, 625.5469
753.5497, 654.9219
754.0319, 458.0781
754.5140, 324.2031
754.9961, 351.5625
755.4782, 422.0312
755.9603, 492.4219
756.4424, 548.9688
756.9246, 568.1562
757.4067, 548.4531
757.8888, 525.1875
758.3709, 537.5625
758.8530, 555.0312
759.3351, 458.9375
759.8173, 224.6719
760.2994, 99.10938
760.7815, 179.7500
761.2636, 303.3125
761.7457, 352.0000
762.2278, 328.9062
762.7100, 255.0156
763.1921, 72.06250
763.6742, 67.40625
764.1563, 113.4844
764.6384, 112.6250
765.1205, 92.70312
765.6027, 59.32812
766.0848, 6.171875
766.5669, 72.39062
767.0490, 137.8438
767.5311, 142.1250
768.0132, 88.71875
768.4954, 30.46875
768.9775, 233.3594
769.4596, 346.2812
769.9417, 257.7500
770.4238, 74.95312
770.9059, 15.40625
771.3881, 15.29688
771.8702, 32.12500
772.3523, 42.57812
772.8344, 32.43750
773.3165, 20.39062
773.7986, 85.43750
774.2808, 128.7812
774.7629, 146.2812
775.2450, 158.0781
775.7271, 170.7969
776.2092, 192.0312
776.6913, 242.3750
777.1735, 312.9531
777.6556, 368.9062
778.1377, 403.2031
778.6198, 406.5156
779.1019, 364.0469
779.5840, 288.1875
780.0662, 242.4531
780.5483, 235.5469
781.0304, 241.9531
781.5125, 261.3750
781.9946, 291.9062
782.4767, 362.1719
782.9589, 435.8594
783.4410, 431.3438
783.9231, 309.5312
784.4052, 206.2188
784.8873, 210.0938
785.3694, 269.9375
785.8516, 348.4688
786.3337, 429.7344
786.8158, 471.5781
787.2979, 458.1562
787.7800, 429.8125
788.2621, 443.6875
788.7443, 497.7969
789.2264, 522.5469
789.7085, 514.7031
790.1906, 483.0625
790.6727, 385.5625
791.1548, 308.2500
791.6370, 358.3750
792.1191, 515.6250
792.6012, 638.3750
793.0833, 658.4219
793.5654, 699.0938
794.0475, 856.1875
794.5297, 1020.781
795.0118, 1074.406
795.4939, 1024.453
795.9760, 950.0000
796.4581, 894.3594
796.9402, 834.4531
797.4224, 711.3438
797.9045, 542.7500
798.3866, 477.1719
798.8687, 540.5000
799.3508, 569.2500
799.8329, 456.9219
800.3151, 297.7031
800.7972, 280.8125
801.2793, 471.8125
801.7614, 544.7344
802.2435, 382.9688
802.7256, 259.4219
803.2078, 286.7031
803.6899, 370.8750
804.1720, 400.1719
804.6541, 375.1719
805.1362, 396.9062
805.6183, 557.9219
806.1005, 746.1875
806.5826, 877.8594
807.0647, 940.9375
807.5468, 866.5312
808.0289, 662.0312
808.5110, 489.8438
808.9932, 466.5781
809.4753, 548.9062
809.9574, 631.7500
810.4395, 723.6406
810.9216, 777.4219
811.4037, 785.0312
811.8859, 762.5781
812.3680, 691.6562
812.8501, 606.8438
813.3322, 552.2500
813.8143, 527.9688
814.2964, 546.7031
814.7786, 653.0625
815.2607, 758.4688
815.7428, 800.5000
816.2249, 813.9688
816.7070, 849.0469
817.1891, 914.3281
817.6713, 990.9219
818.1534, 1076.844
818.6355, 1145.047
819.1176, 1122.188
819.5997, 1022.141
820.0818, 961.4844
820.5640, 961.9688
821.0461, 988.5469
821.5282, 1022.359
822.0103, 1048.766
822.4924, 1014.609
822.9745, 848.8281
823.4567, 785.2031
823.9388, 950.2031
824.4209, 1073.297
824.9030, 1023.016
825.3851, 895.5469
825.8672, 817.8906
826.3494, 805.7969
826.8315, 778.7031
827.3136, 695.2188
827.7957, 615.6562
828.2778, 572.0000
828.7599, 568.9219
829.2421, 631.7031
829.7242, 756.7344
830.2063, 885.2031
830.6884, 977.3594
831.1705, 1035.234
831.6526, 1060.094
832.1348, 1051.969
832.6169, 963.5625
833.0990, 746.0000
833.5811, 582.0000
834.0632, 583.1406
834.5453, 702.7031
835.0275, 855.7656
835.5096, 1082.062
835.9917, 1210.484
836.4738, 1182.812
836.9559, 1123.656
837.4380, 1043.422
837.9202, 979.0312
838.4023, 998.7188
838.8844, 1089.844
839.3665, 1122.312
839.8486, 1002.547
840.3307, 830.0625
840.8129, 661.3750
841.2950, 525.3594
841.7771, 525.4844
842.2592, 651.0156
842.7413, 715.5000
843.2234, 586.6719
843.7056, 386.6719
844.1877, 390.4844
844.6698, 620.5781
845.1519, 800.6250
845.6340, 924.8281
846.1161, 978.5000
846.5983, 911.1719
847.0804, 811.0781
847.5625, 824.1094
848.0446, 961.6094
848.5267, 1001.141
849.0089, 813.8750
849.4910, 680.7344
849.9731, 718.7031
850.4552, 813.8750
850.9373, 888.9844
851.4194, 926.1719
851.9016, 907.4688
852.3837, 810.0938
852.8658, 713.2188
853.3479, 705.9531
853.8300, 741.0000
854.3121, 712.1406
854.7943, 636.9062
855.2764, 650.8906
855.7585, 813.7031
856.2406, 990.7656
856.7227, 989.8906
857.2048, 829.5938
857.6870, 768.7969
858.1691, 837.4375
858.6512, 888.2031
859.1333, 893.6719
859.6154, 853.2656
860.0975, 728.2656
860.5797, 548.4844
861.0618, 480.5938
861.5439, 611.7969
862.0260, 706.9531
862.5081, 717.5938
862.9902, 710.8906
863.4724, 754.0312
863.9545, 797.5469
864.4366, 731.3594
864.9187, 533.3906
865.4008, 379.4375
865.8829, 434.0000
866.3651, 554.5625
866.8472, 577.5469
867.3293, 534.6406
867.8114, 506.8438
868.2935, 511.1562
868.7756, 523.5625
869.2578, 526.5000
869.7399, 520.7188
870.2220, 494.4531
870.7041, 443.2188
871.1862, 473.9531
871.6683, 624.5156
872.1505, 743.5938
872.6326, 733.1719
873.1147, 669.1562
873.5968, 683.9531
874.0789, 796.9375
874.5610, 881.7500
875.0432, 938.2500
875.5253, 966.9688
876.0074, 976.3125
876.4895, 951.4531
876.9716, 863.0000
877.4537, 728.2344
877.9359, 606.1875
878.4180, 516.2656
878.9001, 443.8125
879.3822, 381.3125
879.8643, 330.9531
880.3464, 275.8281
880.8286, 236.8438
881.3107, 282.0938
881.7928, 430.3281
882.2749, 592.7812
882.7570, 682.3438
883.2391, 707.4062
883.7213, 671.3125
884.2034, 580.2969
884.6855, 550.4531
885.1676, 621.1094
885.6497, 660.5469
886.1318, 548.5156
886.6140, 346.0000
887.0961, 271.6094
887.5782, 406.9062
888.0603, 456.9375
888.5424, 369.8750
889.0245, 265.1250
889.5067, 144.8906
889.9888, 57.67188
890.4709, 74.14062
890.9530, 195.3281
891.4351, 315.8125
891.9172, 468.5938
892.3994, 548.3906
892.8815, 473.1875
893.3636, 334.7812
893.8457, 196.5000
894.3278, 79.92188
894.8099, 9.531250
895.2921, 0.8750000
895.7742, 13.42188
896.2563, 37.90625
896.7384, 56.68750
897.2205, 32.37500
897.7026, 24.04688
898.1848, 64.09375
898.6669, 73.40625
899.1490, 83.46875
899.6311, 130.3594
900.1132, 196.0469
900.5953, 205.4531
901.0775, 152.9688
901.5596, 115.3906
902.0417, 109.5781
902.5238, 101.9375
903.0059, 75.56250
903.4880, 33.85938
903.9702, 15.12500
904.4523, 62.29688
904.9344, 147.7656
905.4165, 347.3594
905.8986, 484.3438
906.3807, 477.0312
906.8629, 425.4219
907.3450, 417.1094
907.8271, 445.3906
908.3092, 451.8125
908.7913, 429.5156
909.2734, 373.4375
909.7556, 214.0781
910.2377, 78.89062
910.7198, 111.9062
911.2019, 249.6562
911.6840, 368.0781
912.1661, 425.2344
912.6483, 422.0000
913.1304, 311.8438
913.6125, 184.0000
914.0946, 214.4531
914.5767, 350.1250
915.0588, 415.1094
915.5410, 384.7969
916.0231, 337.7812
916.5052, 319.7656
916.9873, 323.0625
917.4694, 350.6719
917.9515, 404.9844
918.4337, 398.9062
918.9158, 306.4531
919.3979, 278.9531
919.8800, 396.4688
920.3621, 547.9062
920.8442, 620.0938
921.3264, 617.2500
921.8085, 578.2969
922.2906, 396.8594
922.7727, 326.3125
923.2548, 545.3594
923.7369, 709.0156
924.2191, 593.2812
924.7012, 348.9375
925.1833, 203.2031
925.6654, 184.1562
926.1475, 197.9375
926.6296, 235.0000
927.1118, 277.5625
927.5939, 327.3438
928.0760, 370.8281
928.5581, 381.4062
929.0402, 371.3906
929.5223, 384.3750
930.0045, 440.5625
930.4866, 512.4531
930.9687, 567.8594
931.4508, 625.9688
931.9329, 749.4531
932.4150, 901.1406
932.8972, 964.5625
933.3793, 909.0781
933.8614, 778.5000
934.3435, 598.0156
934.8256, 398.4375
935.3077, 246.6562
935.7899, 143.9219
936.2720, 117.1406
936.7541, 175.3750
937.2362, 241.4219
937.7183, 277.4844
938.2004, 303.7188
938.6826, 356.5938
939.1647, 438.0469
939.6468, 453.1875
940.1289, 363.0781
940.6110, 302.5625
941.0931, 308.0469
941.5753, 335.8125
942.0574, 382.5156
942.5395, 423.7969
943.0216, 383.5156
943.5037, 209.2188
943.9858, 116.1094
944.4680, 182.9219
944.9501, 260.0469
945.4322, 294.0781
945.9143, 310.6094
946.3964, 339.4219
946.8785, 379.1719
947.3607, 405.7188
947.8428, 400.3594
948.3249, 402.6250
948.8070, 427.3906
949.2891, 472.8594
949.7712, 566.1406
950.2534, 668.4219
950.7355, 700.9219
951.2176, 646.7969
951.6997, 563.7188
952.1818, 473.0156
952.6639, 402.2656
953.1461, 387.0625
953.6282, 427.1406
954.1103, 562.1875
954.5924, 765.2188
955.0745, 869.9062
955.5566, 791.5156
956.0388, 649.3750
956.5209, 617.3750
957.0030, 664.6250
957.4851, 606.0000
957.9672, 441.8125
958.4493, 339.0000
958.9315, 339.0625
959.4136, 412.9531
959.8957, 562.1875
960.3778, 720.5938
960.8599, 695.1562
961.3420, 426.2188
961.8242, 291.4531
962.3063, 344.5000
962.7884, 396.2969
963.2705, 401.7188
963.7526, 358.5469
964.2347, 230.0625
964.7169, 39.81250
965.1990, 37.59375
965.6811, 79.76562
966.1632, 186.0781
966.6453, 286.7031
967.1274, 369.7344
967.6096, 462.7812
968.0917, 517.1562
968.5738, 444.5469
969.0559, 249.0625
969.5380, 99.20312
970.0201, 45.25000
970.5023, 28.51562
970.9844, 61.92188
971.4665, 93.42188
971.9486, 74.14062
972.4307, 22.70312
972.9128, 25.62500
973.3950, 60.54688
973.8771, 65.17188
974.3592, 6.906250
974.8413, 76.90625
975.3234, 63.92188
975.8055, 10.95312
976.2877, 12.37500
976.7698, 10.29688
977.2519, 39.31250
977.7340, 126.7969
978.2161, 221.9219
978.6982, 309.0000
979.1804, 345.9219
979.6625, 191.3438
980.1446, 85.84375
980.6267, 246.3750
981.1088, 245.0469
981.5909, 195.9219
982.0731, 173.9375
982.5552, 164.0469
983.0373, 125.6875
983.5194, 69.75000
984.0015, 96.07812
984.4836, 206.8750
984.9658, 263.1094
985.4479, 217.0781
985.9300, 141.3594
986.4121, 99.46875
986.8942, 86.50000
987.3763, 73.84375
987.8585, 46.73438
988.3406, 137.1250
988.8227, 400.4531
989.3048, 617.1094
989.7869, 707.2812
990.2690, 685.2969
990.7512, 538.1250
991.2333, 282.0781
991.7154, 128.2344
992.1975, 91.43750
992.6796, 128.5625
993.1617, 289.9062
993.6439, 451.4844
994.1260, 590.3906
994.6081, 676.1250
995.0902, 635.4844
995.5723, 462.0469
996.0544, 372.7656
996.5366, 441.1094
997.0187, 501.0625
997.5008, 511.4531
997.9829, 521.8750
998.4650, 577.5156
998.9471, 648.2969
999.4293, 687.0312
999.9114, 687.9062
1000.393, 645.4062
1000.876, 509.4062
1001.358, 390.6719
1001.840, 361.8438
1002.322, 348.4688
1002.804, 233.5781
1003.286, 90.59375
1003.768, 123.2969
1004.250, 398.9844
1004.733, 630.2812
1005.215, 632.7969
1005.697, 567.3750
1006.179, 549.0625
1006.661, 537.7500
1007.143, 425.9062
1007.625, 266.8750
1008.107, 272.8750
1008.589, 546.1250
1009.072, 808.9688
1009.554, 790.9688
1010.036, 663.8750
1010.518, 615.6562
1011.000, 622.1250
1011.482, 615.8906
1011.964, 594.3281
1012.446, 622.4375
1012.929, 743.5938
1013.411, 848.5000
1013.893, 770.9688
1014.375, 600.8906
1014.857, 492.2969
1015.339, 457.2656
1015.821, 540.9062
1016.303, 736.8594
1016.785, 928.2031
1017.268, 1039.641
1017.750, 1078.344
1018.232, 1036.734
1018.714, 933.4531
1019.196, 826.1250
1019.678, 724.5312
1020.160, 698.7969
1020.642, 767.4531
1021.125, 856.8594
1021.607, 913.4844
1022.089, 933.0469
1022.571, 899.1406
1023.053, 812.1562
1023.535, 706.4062
1024.017, 577.8750
1024.499, 531.5781
1024.981, 610.2969
1025.464, 708.3594
1025.946, 726.7500
1026.428, 698.3594
1026.910, 732.8125
1027.392, 840.7031
1027.874, 909.3906
1028.356, 926.8281
1028.838, 943.0000
1029.321, 971.3750
1029.803, 1017.703
1030.285, 1101.234
1030.767, 1197.797
1031.249, 1186.984
1031.731, 1008.141
1032.213, 976.0938
1032.695, 1175.875
1033.177, 1310.703
1033.660, 1252.141
1034.142, 1110.781
1034.624, 959.9062
1035.106, 827.2344
1035.588, 917.7969
1036.070, 1438.844
1036.552, 1671.078
1037.034, 1446.203
1037.516, 1221.062
1037.999, 1185.391
1038.481, 1188.625
1038.963, 1051.094
1039.445, 804.5156
1039.927, 697.6406
1040.409, 866.5000
1040.891, 935.2031
1041.373, 815.8281
1041.855, 707.3750
1042.338, 686.7656
1042.820, 710.1875
1043.302, 759.1406
1043.784, 822.2188
1044.266, 810.9219
1044.748, 677.7812
1045.230, 547.3594
1045.712, 373.4375
1046.195, 267.9688
1046.677, 323.2344
1047.159, 434.8281
1047.641, 489.6562
1048.123, 493.0938
1048.605, 516.8906
1049.087, 574.0000
1049.569, 641.1406
1050.052, 756.4062
1050.534, 830.2969
1051.016, 787.6250
1051.498, 704.6875
1051.980, 655.6875
1052.462, 645.0938
1052.944, 661.8438
1053.426, 701.5156
1053.908, 772.0000
1054.391, 975.3594
1054.873, 1093.516
1055.355, 921.3125
1055.837, 682.1875
1056.319, 629.0000
1056.801, 743.3594
1057.283, 833.6719
1057.765, 845.6719
1058.248, 875.6406
1058.730, 995.2969
1059.212, 1092.297
1059.694, 1088.969
1060.176, 1052.984
1060.658, 1053.844
1061.140, 1082.875
1061.622, 1077.391
1062.104, 998.1250
1062.587, 957.2812
1063.069, 1039.562
1063.551, 1116.641
1064.033, 1098.953
1064.515, 1045.312
1064.997, 1032.750
1065.479, 1052.234
1065.961, 1032.031
1066.443, 928.2344
1066.926, 866.4688
1067.408, 945.0312
1067.890, 1031.922
1068.372, 1009.250
1068.854, 966.8594
1069.336, 1049.078
1069.818, 1208.203
1070.300, 1241.562
1070.782, 1054.125
1071.265, 910.1094
1071.747, 1012.516
1072.229, 1104.953
1072.711, 996.2969
1073.193, 824.1406
1073.675, 737.1875
1074.157, 733.6875
1074.639, 731.5781
1075.122, 705.7812
1075.604, 698.6406
1076.086, 778.3750
1076.568, 823.6406
1077.050, 693.7812
1077.532, 549.1406
1078.014, 607.4375
1078.496, 785.1250
1078.979, 824.5469
1079.461, 652.1406
1079.943, 501.4375
1080.425, 472.5938
1080.907, 503.1406
1081.389, 619.3125
1081.871, 726.9688
1082.353, 702.3750
1082.835, 608.7656
1083.318, 613.0781
1083.800, 750.6875
1084.282, 825.8125
1084.764, 657.5469
1085.246, 530.2812
1085.728, 691.3438
1086.210, 857.7031
1086.692, 703.6562
1087.175, 405.5625
1087.657, 315.7656
1088.139, 487.7500
1088.621, 675.5625
1089.103, 824.7031
1089.585, 908.2344
1090.067, 871.9062
1090.549, 806.7656
1091.031, 754.4375
1091.514, 733.9375
1091.996, 787.9062
1092.478, 905.3281
1092.960, 973.4375
1093.442, 935.5781
1093.924, 878.3906
1094.406, 861.3750
1094.888, 805.9062
1095.370, 606.8906
1095.853, 375.5000
1096.335, 263.6250
1096.817, 264.7500
1097.299, 259.1875
1097.781, 207.1875
1098.263, 173.1250
1098.745, 203.1562
1099.227, 228.7969
1099.709, 213.7344
1100.192, 178.0000
1100.674, 130.1562
1101.156, 82.32812
1101.638, 66.07812
1102.120, 91.23438
1102.602, 128.1094
1103.084, 179.4844
1103.566, 224.4688
1104.049, 260.6406
1104.531, 277.9062
1105.013, 260.2812
1105.495, 216.9688
1105.977, 150.1406
1106.459, 37.23438
1106.941, 49.51562
1107.423, 326.9062
1107.906, 577.2031
1108.388, 789.1875
1108.870, 884.3906
1109.352, 694.9844
1109.834, 407.0938
1110.316, 392.5781
1110.798, 692.9844
1111.280, 780.9688
1111.762, 445.9688
1112.245, 156.4531
1112.727, 62.06250
1113.209, 186.1250
1113.691, 177.7031
1114.173, 84.46875
1114.655, 76.39062
1115.137, 290.9531
1115.619, 380.0156
1116.102, 284.9688
1116.584, 161.5312
1117.066, 47.01562
1117.548, 200.7969
1118.030, 257.3281
1118.512, 233.8750
1118.994, 117.8906
1119.476, 60.06250
1119.958, 175.8594
1120.441, 207.1719
1120.923, 248.7812
1121.405, 314.6562
1121.887, 357.9531
1122.369, 347.3594
1122.851, 354.9219
1123.333, 474.5156
1123.815, 606.3906
1124.297, 505.9688
1124.780, 146.6562
1125.262, 84.32812
1125.744, 167.1875
1126.226, 179.9219
1126.708, 115.7500
1127.190, 54.87500
1127.672, 54.57812
1128.154, 45.79688
1128.636, 89.70312
1129.119, 324.8438
1129.601, 431.7031
1130.083, 404.1094
1130.565, 288.5000
1131.047, 71.29688
1131.529, 64.00000
1132.011, 37.76562
1132.493, 50.34375
1132.976, 100.8125
1133.458, 133.9062
1133.940, 218.0938
1134.422, 347.5625
1134.904, 456.8438
1135.386, 540.9062
1135.868, 538.1250
1136.350, 434.8750
1136.833, 362.0156
1137.315, 416.6562
1137.797, 526.5938
1138.279, 580.1094
1138.761, 586.3438
1139.243, 566.9531
1139.725, 527.2344
1140.207, 487.5156
1140.689, 449.8750
1141.172, 389.9375
1141.654, 297.1875
1142.136, 237.1094
1142.618, 308.1562
1143.100, 424.3906
1143.582, 418.2344
1144.064, 356.3438
1144.546, 370.7812
1145.029, 463.0000
1145.511, 606.2969
1145.993, 781.5938
1146.475, 931.2812
1146.957, 1031.250
1147.439, 1050.531
1147.921, 889.4688
1148.403, 688.1250
1148.885, 617.2812
1149.368, 633.1875
1149.850, 666.1250
1150.332, 688.8125
1150.814, 656.5156
1151.296, 536.3906
1151.778, 453.8594
1152.260, 523.3125
1152.742, 611.8438
1153.224, 625.3594
1153.707, 614.9844
1154.189, 646.0469
1154.671, 699.7344
1155.153, 710.3750
1155.635, 664.3281
1156.117, 656.4375
1156.599, 789.9219
1157.081, 862.2031
1157.563, 773.8594
1158.046, 645.5312
1158.528, 519.1562
1159.010, 418.4531
1159.492, 356.1406
1159.974, 338.2188
1160.456, 401.2656
1160.938, 622.7031
1161.420, 779.5312
1161.903, 805.1250
1162.385, 847.0000
1162.867, 988.4688
1163.349, 1106.812
1163.831, 1090.203
1164.313, 989.6094
1164.795, 928.3438
1165.277, 910.6719
1165.760, 890.8594
1166.242, 856.4375
1166.724, 865.1875
1167.206, 940.1875
1167.688, 1015.656
1168.170, 1059.219
1168.652, 1086.125
1169.134, 1119.094
1169.616, 1149.531
1170.099, 1126.828
1170.581, 1046.391
1171.063, 965.0000
1171.545, 894.4531
1172.027, 852.2969
1172.509, 841.5000
1172.991, 885.8906
1173.473, 1016.172
1173.956, 1167.469
1174.438, 1210.031
1174.920, 1183.953
1175.402, 1243.531
1175.884, 1362.125
1176.366, 1429.922
1176.848, 1436.156
1177.330, 1392.906
1177.813, 1299.938
1178.295, 1222.000
1178.777, 1217.734
1179.259, 1257.438
1179.741, 1363.672
1180.223, 1447.875
1180.705, 1319.078
1181.187, 1087.125
1181.669, 1017.438
1182.151, 1129.375
1182.634, 1211.484
1183.116, 1149.750
1183.598, 1075.172
1184.080, 1052.188
1184.562, 1073.547
1185.044, 1187.641
1185.526, 1280.453
1186.008, 1181.672
1186.490, 1000.266
1186.973, 1016.125
1187.455, 1287.125
1187.937, 1433.219
1188.419, 1266.250
1188.901, 1145.328
1189.383, 1125.062
1189.865, 1180.422
1190.347, 1358.500
1190.830, 1554.812
1191.312, 1671.750
1191.794, 1713.422
1192.276, 1695.938
1192.758, 1599.328
1193.240, 1525.625
1193.722, 1463.047
1194.204, 1408.656
1194.687, 1367.188
1195.169, 1347.906
1195.651, 1366.812
1196.133, 1386.469
1196.615, 1330.453
1197.097, 1206.656
1197.579, 1205.500
1198.061, 1317.594
1198.543, 1320.531
1199.026, 1200.844
1199.508, 1078.531
1199.990, 997.0781
1200.472, 963.9375
1200.954, 989.6250
1201.436, 1047.875
1201.918, 1133.688
1202.400, 1202.766
1202.883, 1125.516
1203.365, 973.7188
1203.847, 915.3438
1204.329, 955.8125
1204.811, 1021.688
1205.293, 1083.516
1205.775, 1119.641
1206.257, 1105.578
1206.740, 1074.422
1207.222, 1054.141
1207.704, 1024.984
1208.186, 962.0625
1208.668, 883.5156
1209.150, 807.2031
1209.632, 741.4844
1210.114, 703.5938
1210.596, 694.3281
1211.078, 724.2500
1211.561, 810.7812
1212.043, 915.5938
1212.525, 1070.703
1213.007, 1190.594
1213.489, 1210.234
1213.971, 1167.125
1214.453, 1104.062
1214.935, 1024.750
1215.417, 1022.078
1215.900, 1133.391
1216.382, 1166.266
1216.864, 1094.609
1217.346, 1014.594
1217.828, 957.3281
1218.310, 890.3281
1218.792, 778.8438
1219.274, 679.3750
1219.757, 728.5000
1220.239, 879.6719
1220.721, 879.9688
1221.203, 767.8750
1221.685, 745.7500
1222.167, 814.0312
1222.649, 791.6875
1223.131, 630.9844
1223.614, 556.6406
1224.096, 784.4531
1224.578, 1031.000
1225.060, 919.9531
1225.542, 707.9844
1226.024, 712.3125
1226.506, 822.2812
1226.988, 839.2188
1227.470, 777.5469
1227.953, 782.3125
1228.435, 904.3906
1228.917, 947.5312
1229.399, 783.4844
1229.881, 606.5156
1230.363, 405.2656
1230.845, 292.4844
1231.327, 397.6094
1231.810, 578.6250
1232.292, 678.1875
1232.774, 707.3281
1233.256, 715.8438
1233.738, 701.3750
1234.220, 666.0469
1234.702, 574.6406
1235.184, 597.6562
1235.667, 811.9844
1236.149, 960.9844
1236.631, 905.8594
1237.113, 756.1094
1237.595, 638.8750
1238.077, 534.5312
1238.559, 355.0625
1239.041, 129.7500
1239.523, 11.06250
1240.005, 10.90625
1240.488, 3.687500
1240.970, 10.28125
1241.452, 0.4843750
1241.934, 48.45312
1242.416, 83.64062
1242.898, 30.81250
1243.380, 29.06250
1243.862, 10.07812
1244.344, 66.15625
1244.827, 52.96875
1245.309, 14.62500
1245.791, 123.4062
1246.273, 251.2344
1246.755, 320.7812
1247.237, 292.7969
1247.719, 273.6406
1248.201, 314.6875
1248.684, 328.6406
1249.166, 293.0156
1249.648, 216.0156
1250.130, 41.84375
1250.612, 107.5156
1251.094, 46.73438
1251.576, 185.9688
1252.058, 359.6250
1252.541, 490.2812
1253.023, 388.0938
1253.505, 10.95312
1253.987, 107.3594
1254.469, 161.8281
1254.951, 429.7500
1255.433, 472.0000
1255.915, 415.5469
1256.397, 403.0625
1256.880, 412.1406
1257.362, 398.1719
1257.844, 373.2344
1258.326, 346.5469
1258.808, 335.7188
1259.290, 393.0156
1259.772, 504.1094
1260.254, 566.1406
1260.737, 529.9531
1261.219, 503.8750
1261.701, 568.1094
1262.183, 625.7031
1262.665, 587.9531
1263.147, 550.1562
1263.629, 624.3594
1264.111, 706.1875
1264.594, 708.9531
1265.076, 622.7188
1265.558, 611.9062
1266.040, 735.2344
1266.522, 784.5781
1267.004, 729.6562
1267.486, 689.0938
1267.968, 680.8906
1268.450, 599.0781
1268.932, 515.4688
1269.415, 439.1094
1269.897, 379.0000
1270.379, 408.1406
1270.861, 384.9531
1271.343, 314.4844
1271.825, 205.7969
1272.307, 88.79688
1272.789, 71.50000
1273.271, 143.3906
1273.754, 194.9688
1274.236, 187.1250
1274.718, 146.0312
1275.200, 64.12500
1275.682, 1.359375
1276.164, 12.21875
1276.646, 5.718750
1277.128, 45.85938
1277.611, 114.3281
1278.093, 269.6562
1278.575, 455.0469
1279.057, 462.6562
1279.539, 275.2969
1280.021, 194.2969
1280.503, 220.2500
1280.985, 144.2656
1281.468, 20.29688
1281.950, 7.234375
1282.432, 97.53125
1282.914, 250.1406
1283.396, 400.6562
1283.878, 492.9062
1284.360, 497.4688
1284.842, 359.1250
1285.324, 0.0000000E+00
##END=



