##NAMES=Tritomite-(Ce)
##RRUFFID=R060046
##IDEAL CHEMISTRY=Ce_5_(SiO_4_,BO_4_)_3_(OH,O)
##LOCALITY=Langesundfjord, Norway
##OWNER=RRUFF
##SOURCE=University of Arizona Mineral Museum
##DESCRIPTION=Aggregate of orange coarse amorphous fragments
##STATUS=The identification of this mineral has been confirmed only by chemical analysis
##URL=rruff.info/R060046
##MEASURED CHEMISTRY=(Ca_1.90_Sr_0.10_)_Σ=2_(Ce_0.91_La_0.91_Th_0.75_Zr_0.20_[box]_0.13_Fe^2+^_0.10_)_Σ=3_((SiO_4_)_2.45_(BO_4_)_0.55_)_Σ=3_(OH)
177.1425, 0.0000000E+00
177.6246, 9.008789
178.1067, 29.07422
178.5888, 45.16602
179.0710, 45.17969
179.5531, 28.42773
180.0352, 15.88184
180.5173, 10.79980
180.9994, 18.35547
181.4815, 42.78418
181.9637, 66.79102
182.4458, 91.27539
182.9279, 97.02539
183.4100, 88.73633
183.8921, 72.98633
184.3742, 45.67285
184.8564, 16.95703
185.3385, 10.84863
185.8206, 24.50488
186.3027, 42.70996
186.7848, 42.33594
187.2669, 26.79688
187.7491, 23.04785
188.2312, 70.66016
188.7133, 142.0166
189.1954, 155.4160
189.6775, 130.4814
190.1596, 93.40625
190.6418, 77.91895
191.1239, 84.67676
191.6060, 86.65625
192.0881, 70.80371
192.5702, 41.15234
193.0524, 32.13672
193.5345, 46.83496
194.0166, 75.37109
194.4987, 106.4346
194.9808, 139.9912
195.4629, 160.6123
195.9451, 146.2764
196.4272, 99.57031
196.9093, 80.34766
197.3914, 100.7861
197.8735, 132.5010
198.3556, 110.7393
198.8378, 25.17090
199.3199, 48.03809
199.8020, 58.13184
200.2841, 0.1767580
200.7662, 42.19141
201.2483, 61.19629
201.7305, 63.00977
202.2126, 60.44336
202.6947, 52.91211
203.1768, 43.25684
203.6589, 31.29785
204.1410, 15.78711
204.6232, 7.625977
205.1053, 9.848633
205.5874, 19.24316
206.0695, 25.05176
206.5516, 26.26562
207.0337, 24.94043
207.5159, 24.29297
207.9980, 23.90430
208.4801, 26.07520
208.9622, 33.34961
209.4443, 43.35254
209.9264, 42.27441
210.4086, 24.50195
210.8907, 6.917969
211.3728, 5.178711
211.8549, 26.36523
212.3370, 38.05859
212.8191, 29.94531
213.3013, 6.256836
213.7834, 6.649414
214.2655, 44.40137
214.7476, 84.97949
215.2297, 95.09082
215.7118, 61.46094
216.1940, 34.36523
216.6761, 21.94043
217.1582, 23.83691
217.6403, 36.83008
218.1224, 68.51172
218.6045, 100.9971
219.0867, 115.6270
219.5688, 104.4609
220.0509, 94.01172
220.5330, 91.69727
221.0151, 97.97070
221.4972, 92.42090
221.9794, 67.39648
222.4615, 39.11133
222.9436, 25.69336
223.4257, 34.44629
223.9078, 43.06152
224.3899, 45.16016
224.8721, 39.86621
225.3542, 41.62793
225.8363, 53.99707
226.3184, 70.11133
226.8005, 81.66113
227.2827, 84.80664
227.7648, 91.34277
228.2469, 108.3760
228.7290, 138.5322
229.2111, 145.4619
229.6932, 116.1719
230.1754, 74.13965
230.6575, 51.02832
231.1396, 58.96973
231.6217, 64.51074
232.1038, 56.84180
232.5859, 32.07520
233.0681, 15.42578
233.5502, 10.52734
234.0323, 10.45898
234.5144, 9.260742
234.9965, 0.2656250
235.4786, 3.465820
235.9608, 1.648438
236.4429, 14.93848
236.9250, 41.26758
237.4071, 93.65918
237.8892, 150.7539
238.3713, 176.8643
238.8535, 156.2949
239.3356, 131.1680
239.8177, 113.6582
240.2998, 104.4658
240.7819, 100.4746
241.2640, 103.4990
241.7462, 110.6973
242.2283, 118.6523
242.7104, 133.2900
243.1925, 137.7803
243.6746, 122.4922
244.1567, 74.62207
244.6389, 52.94238
245.1210, 66.57715
245.6031, 97.71875
246.0852, 118.3164
246.5673, 128.3027
247.0494, 128.7646
247.5316, 117.5703
248.0137, 88.98633
248.4958, 69.95215
248.9779, 60.54688
249.4600, 58.27734
249.9421, 61.25977
250.4243, 70.92969
250.9064, 83.00488
251.3885, 97.50098
251.8706, 116.7129
252.3527, 129.8838
252.8348, 137.2607
253.3170, 138.4932
253.7991, 130.9512
254.2812, 107.5029
254.7633, 89.17090
255.2454, 86.45605
255.7275, 106.6006
256.2097, 114.4590
256.6918, 104.1416
257.1739, 82.09180
257.6560, 68.82031
258.1381, 71.37500
258.6202, 76.86426
259.1024, 80.73047
259.5845, 82.73535
260.0666, 83.91211
260.5487, 84.76270
261.0308, 84.38672
261.5129, 78.21387
261.9951, 58.29395
262.4772, 51.25488
262.9593, 76.86426
263.4414, 151.0117
263.9235, 180.2168
264.4056, 149.4238
264.8878, 87.80273
265.3699, 43.97070
265.8520, 19.08496
266.3341, 7.809570
266.8162, 9.884766
267.2983, 26.92090
267.7805, 47.41895
268.2626, 72.87891
268.7447, 99.63965
269.2268, 125.7861
269.7089, 156.2607
270.1910, 169.4688
270.6732, 149.3896
271.1553, 90.25488
271.6374, 53.73633
272.1195, 44.28516
272.6016, 51.22461
273.0837, 61.21191
273.5659, 76.18164
274.0480, 84.55957
274.5301, 77.30078
275.0122, 53.40332
275.4943, 47.73145
275.9764, 67.79590
276.4586, 92.96191
276.9407, 87.42871
277.4228, 47.02832
277.9049, 9.725586
278.3870, 10.61328
278.8691, 14.39648
279.3513, 10.28223
279.8334, 2.406250
280.3155, 21.25879
280.7976, 50.70703
281.2798, 91.76855
281.7619, 113.0674
282.2440, 89.92676
282.7261, 31.12793
283.2082, 8.583008
283.6903, 28.77832
284.1725, 61.37793
284.6546, 67.52539
285.1367, 48.17480
285.6188, 29.86719
286.1009, 21.06445
286.5830, 20.80762
287.0652, 29.41016
287.5473, 49.11914
288.0294, 63.74805
288.5115, 44.02441
288.9936, 4.259766
289.4757, 31.59375
289.9579, 5.642578
290.4400, 49.10352
290.9221, 57.36035
291.4042, 15.62207
291.8863, 29.16406
292.3684, 21.20898
292.8506, 27.07520
293.3327, 62.36133
293.8148, 62.74902
294.2969, 43.45996
294.7790, 32.82129
295.2611, 30.82422
295.7433, 31.77246
296.2254, 29.50000
296.7075, 26.07715
297.1896, 28.00098
297.6717, 42.06738
298.1538, 58.20117
298.6360, 58.09473
299.1181, 43.06641
299.6002, 28.73633
300.0823, 36.07910
300.5644, 51.52734
301.0465, 46.49316
301.5287, 1.982422
302.0108, 54.48633
302.4929, 60.61328
302.9750, 26.92969
303.4571, 9.275391
303.9392, 29.79395
304.4214, 35.83105
304.9035, 25.47559
305.3856, 14.60352
305.8677, 49.76172
306.3498, 42.67871
306.8319, 2.737305
307.3141, 37.27344
307.7962, 66.46387
308.2783, 82.00195
308.7604, 77.77930
309.2425, 43.21094
309.7246, 9.482422
310.2068, 4.339844
310.6889, 1.900391
311.1710, 6.975586
311.6531, 25.15625
312.1352, 43.32812
312.6173, 52.42188
313.0995, 46.17285
313.5816, 44.78809
314.0637, 68.20215
314.5458, 102.4600
315.0279, 121.5176
315.5100, 97.59082
315.9922, 69.23633
316.4743, 59.79297
316.9564, 77.95215
317.4385, 90.07324
317.9206, 73.10059
318.4027, 46.15527
318.8849, 35.95020
319.3670, 75.45996
319.8491, 110.2334
320.3312, 117.0850
320.8133, 89.52637
321.2954, 63.19629
321.7776, 38.50098
322.2597, 20.68457
322.7418, 15.34473
323.2239, 34.82812
323.7060, 55.33398
324.1881, 70.51270
324.6703, 79.47266
325.1524, 92.08301
325.6345, 119.8496
326.1166, 145.6738
326.5987, 155.9961
327.0808, 142.2490
327.5630, 122.7871
328.0451, 91.72363
328.5272, 50.56348
329.0093, 33.43652
329.4914, 63.66895
329.9735, 97.21973
330.4557, 104.4453
330.9378, 66.57324
331.4199, 34.98438
331.9020, 15.12012
332.3841, 4.718750
332.8662, 9.119141
333.3484, 35.34082
333.8305, 51.15039
334.3126, 40.00781
334.7947, 11.37109
335.2768, 48.31250
335.7589, 65.85059
336.2411, 68.30371
336.7232, 65.49219
337.2053, 54.31934
337.6874, 48.11914
338.1695, 58.79980
338.6516, 90.83789
339.1338, 95.19141
339.6159, 61.07617
340.0980, 14.92676
340.5801, 8.691406
341.0622, 47.51465
341.5443, 77.05762
342.0265, 65.08008
342.5086, 18.44043
342.9907, 4.279297
343.4728, 27.98438
343.9549, 63.76562
344.4370, 80.06055
344.9192, 78.63672
345.4013, 76.20020
345.8834, 76.44141
346.3655, 80.50977
346.8476, 98.02441
347.3297, 129.1865
347.8119, 152.2070
348.2940, 135.0811
348.7761, 90.05762
349.2582, 54.64844
349.7403, 38.14355
350.2225, 35.84766
350.7046, 43.35254
351.1867, 59.20312
351.6688, 76.35645
352.1509, 88.89062
352.6331, 99.70996
353.1152, 113.7607
353.5973, 134.1172
354.0794, 154.2334
354.5615, 172.5127
355.0436, 186.6592
355.5258, 189.6846
356.0079, 168.0479
356.4900, 138.9883
356.9721, 116.2529
357.4542, 101.2510
357.9363, 94.97266
358.4185, 110.4639
358.9006, 133.7549
359.3827, 140.6230
359.8648, 105.2363
360.3469, 62.87500
360.8290, 28.56641
361.3112, 1.994141
361.7933, 8.832031
362.2754, 12.49902
362.7575, 45.58203
363.2396, 68.00488
363.7217, 60.98438
364.2039, 56.32520
364.6860, 65.81641
365.1681, 88.92676
365.6502, 104.6914
366.1323, 107.0303
366.6144, 103.6055
367.0966, 99.56152
367.5787, 90.75391
368.0608, 86.71875
368.5429, 87.25488
369.0250, 92.85352
369.5071, 107.6572
369.9893, 148.2695
370.4714, 178.8633
370.9535, 179.5674
371.4356, 132.9648
371.9177, 96.03711
372.3998, 69.69434
372.8820, 53.17871
373.3641, 47.01074
373.8462, 55.35352
374.3283, 63.27051
374.8104, 63.40918
375.2925, 54.42578
375.7747, 52.45996
376.2568, 57.68359
376.7389, 69.29590
377.2210, 90.57129
377.7031, 122.8320
378.1852, 145.9893
378.6674, 155.3174
379.1495, 150.6514
379.6316, 123.4189
380.1137, 71.01660
380.5958, 22.57227
381.0779, 11.83984
381.5601, 31.29492
382.0422, 43.90039
382.5243, 36.05957
383.0064, 24.10742
383.4885, 41.48242
383.9706, 84.04297
384.4528, 120.9414
384.9349, 127.4209
385.4170, 115.5557
385.8991, 103.0498
386.3812, 89.99609
386.8633, 84.11035
387.3455, 101.5283
387.8276, 131.9922
388.3097, 152.0215
388.7918, 137.2979
389.2739, 115.2803
389.7560, 109.6895
390.2382, 123.6914
390.7203, 137.8701
391.2024, 138.6240
391.6845, 134.4951
392.1666, 135.7393
392.6487, 156.4033
393.1309, 172.9893
393.6130, 174.9150
394.0951, 163.0869
394.5772, 150.0498
395.0593, 128.4688
395.5414, 113.2881
396.0236, 114.3008
396.5057, 159.0205
396.9878, 188.8779
397.4699, 185.4590
397.9520, 161.5020
398.4341, 157.2744
398.9163, 186.3965
399.3984, 221.3809
399.8805, 256.6504
400.3626, 302.7988
400.8447, 315.7090
401.3268, 279.6846
401.8090, 222.0029
402.2911, 177.1719
402.7732, 143.0010
403.2553, 129.7944
403.7374, 146.7397
404.2195, 191.5996
404.7017, 225.1108
405.1838, 248.0596
405.6659, 257.3604
406.1480, 243.7075
406.6301, 206.4932
407.1122, 178.8101
407.5944, 165.4189
408.0765, 166.1377
408.5586, 191.3140
409.0407, 240.3018
409.5228, 275.5225
410.0049, 254.1514
410.4871, 199.3833
410.9692, 179.4565
411.4513, 206.1021
411.9334, 247.9565
412.4155, 279.9678
412.8976, 299.6548
413.3798, 300.1255
413.8619, 262.7524
414.3440, 213.5786
414.8261, 177.6777
415.3082, 155.5283
415.7903, 141.1382
416.2725, 135.6133
416.7546, 133.4282
417.2367, 127.2939
417.7188, 100.7705
418.2009, 86.17041
418.6830, 110.4976
419.1652, 162.4585
419.6473, 200.3091
420.1294, 199.2417
420.6115, 188.7300
421.0937, 184.9385
421.5758, 195.6382
422.0579, 201.7036
422.5400, 202.6958
423.0221, 197.1812
423.5042, 181.9263
423.9864, 132.3936
424.4685, 101.1978
424.9506, 106.5835
425.4327, 152.7700
425.9148, 183.7178
426.3969, 197.7354
426.8791, 198.4902
427.3612, 184.0894
427.8433, 143.0317
428.3254, 125.5464
428.8075, 147.9087
429.2896, 195.1157
429.7718, 213.9404
430.2539, 200.2729
430.7360, 180.6157
431.2181, 170.8882
431.7002, 170.2905
432.1823, 166.6382
432.6645, 161.2935
433.1466, 155.6812
433.6287, 146.1055
434.1108, 134.3345
434.5929, 128.2241
435.0750, 131.3921
435.5572, 143.1924
436.0393, 170.3862
436.5214, 212.3442
437.0035, 241.0337
437.4856, 221.8955
437.9677, 179.3062
438.4499, 146.0342
438.9320, 127.1685
439.4141, 127.1558
439.8962, 163.2837
440.3783, 222.4800
440.8604, 271.7915
441.3426, 283.7534
441.8247, 288.5190
442.3068, 300.7520
442.7889, 326.6050
443.2710, 351.6685
443.7531, 381.7720
444.2353, 407.2476
444.7174, 415.6533
445.1995, 383.3682
445.6816, 358.4941
446.1637, 350.5132
446.6458, 359.4370
447.1280, 373.7744
447.6101, 400.1509
448.0922, 426.8267
448.5743, 443.0259
449.0564, 439.8213
449.5385, 457.3291
450.0207, 507.1401
450.5028, 565.8965
450.9849, 595.1812
451.4670, 596.2710
451.9491, 584.5825
452.4312, 556.8916
452.9134, 518.2456
453.3955, 513.3599
453.8776, 546.4009
454.3597, 583.0200
454.8418, 584.8091
455.3239, 560.3398
455.8061, 546.3901
456.2882, 553.8394
456.7703, 570.5952
457.2524, 583.4858
457.7345, 592.0010
458.2166, 593.7012
458.6988, 572.4897
459.1809, 551.1636
459.6630, 561.7505
460.1451, 611.9829
460.6272, 656.2036
461.1093, 664.6431
461.5915, 650.9731
462.0736, 632.1113
462.5557, 602.8032
463.0378, 580.4102
463.5199, 577.0942
464.0020, 589.9355
464.4842, 596.1650
464.9663, 576.6807
465.4484, 559.6309
465.9305, 562.1733
466.4126, 614.3662
466.8947, 633.1396
467.3769, 592.5078
467.8590, 530.1118
468.3411, 509.8311
468.8232, 555.7183
469.3053, 596.4287
469.7874, 612.6104
470.2696, 605.4819
470.7517, 597.2979
471.2338, 588.5186
471.7159, 577.4761
472.1980, 555.4736
472.6801, 523.3125
473.1623, 524.6670
473.6444, 579.6929
474.1265, 642.6221
474.6086, 618.5669
475.0907, 521.4224
475.5728, 440.3130
476.0550, 449.8774
476.5371, 495.4463
477.0192, 474.6880
477.5013, 383.0723
477.9834, 306.0654
478.4655, 331.8818
478.9477, 404.6421
479.4298, 450.1929
479.9119, 426.1128
480.3940, 396.8379
480.8761, 408.6855
481.3582, 443.8062
481.8404, 450.5283
482.3225, 379.0796
482.8046, 302.5103
483.2867, 255.5483
483.7688, 250.8325
484.2509, 241.8765
484.7331, 207.0713
485.2152, 175.8462
485.6973, 177.5776
486.1794, 241.9863
486.6615, 289.0571
487.1436, 306.2168
487.6258, 297.1680
488.1079, 281.8740
488.5900, 263.9331
489.0721, 230.6519
489.5542, 155.7158
490.0363, 37.50000
490.5185, 2.137695
491.0006, 55.78857
491.4827, 141.1445
491.9648, 164.7285
492.4470, 134.7632
492.9291, 92.76709
493.4112, 41.44531
493.8933, 3.244141
494.3754, 4.976074
494.8575, 29.50488
495.3397, 58.92773
495.8218, 56.96289
496.3039, 35.42334
496.7860, 3.628418
497.2681, 42.20850
497.7502, 79.81494
498.2324, 104.0591
498.7145, 111.6118
499.1966, 98.53467
499.6787, 25.18311
500.1608, 30.41748
500.6429, 30.38965
501.1251, 20.78125
501.6072, 45.04688
502.0893, 17.15576
502.5714, 20.75391
503.0535, 52.41309
503.5356, 88.56250
504.0178, 89.05762
504.4999, 33.57617
504.9820, 39.08350
505.4641, 65.52637
505.9462, 35.20020
506.4283, 15.74902
506.9105, 41.20117
507.3926, 89.68359
507.8747, 55.35156
508.3568, 66.65137
508.8389, 184.8354
509.3210, 224.8511
509.8032, 209.6953
510.2853, 202.0933
510.7674, 210.1021
511.2495, 224.8101
511.7316, 248.1821
512.2137, 270.9482
512.6959, 274.3325
513.1780, 223.7412
513.6601, 173.2026
514.1422, 163.0830
514.6243, 188.1865
515.1064, 210.5981
515.5886, 214.8452
516.0707, 212.0947
516.5528, 206.8403
517.0349, 189.0273
517.5170, 191.0352
517.9991, 229.5732
518.4813, 284.1694
518.9634, 331.9536
519.4455, 389.2612
519.9276, 408.5522
520.4097, 362.6392
520.8918, 267.5625
521.3740, 220.9990
521.8561, 227.9976
522.3382, 264.1592
522.8203, 327.7676
523.3024, 415.4639
523.7845, 476.4077
524.2667, 506.2490
524.7488, 515.7588
525.2309, 511.5669
525.7130, 497.3281
526.1951, 485.9902
526.6772, 482.7705
527.1594, 483.7231
527.6415, 485.0332
528.1236, 486.7710
528.6057, 489.1594
529.0878, 497.5112
529.5699, 503.3313
530.0521, 496.0615
530.5342, 468.5320
531.0163, 454.2778
531.4984, 488.0903
531.9805, 530.0815
532.4626, 537.9800
532.9448, 460.1455
533.4269, 403.2617
533.9090, 386.6897
534.3911, 400.4346
534.8732, 404.1289
535.3553, 383.9338
535.8375, 380.6697
536.3196, 422.9863
536.8017, 515.5149
537.2838, 561.6611
537.7659, 554.7104
538.2480, 531.1665
538.7302, 513.5210
539.2123, 500.2007
539.6944, 493.1497
540.1765, 492.5422
540.6586, 497.9761
541.1407, 516.5068
541.6229, 542.5244
542.1050, 556.2222
542.5871, 545.1587
543.0692, 518.1895
543.5513, 470.3230
544.0334, 402.4468
544.5156, 362.6357
544.9977, 401.1462
545.4798, 461.1055
545.9619, 496.0117
546.4440, 464.1565
546.9261, 456.1846
547.4083, 509.7539
547.8904, 586.9839
548.3725, 623.9885
548.8546, 608.5708
549.3367, 584.5913
549.8188, 557.7041
550.3010, 528.0974
550.7831, 506.6592
551.2652, 492.1619
551.7473, 482.9624
552.2294, 485.2837
552.7115, 499.2717
553.1937, 503.1829
553.6758, 493.9480
554.1579, 476.7458
554.6400, 452.1121
555.1221, 422.6470
555.6042, 400.5615
556.0864, 393.4412
556.5685, 394.5740
557.0506, 400.8398
557.5327, 414.8916
558.0148, 430.7493
558.4969, 447.0337
558.9791, 456.1746
559.4612, 455.3643
559.9433, 448.3110
560.4254, 435.4050
560.9075, 392.5190
561.3896, 356.1387
561.8718, 360.3013
562.3539, 463.3721
562.8360, 494.6016
563.3181, 405.4224
563.8002, 261.2402
564.2823, 224.0645
564.7645, 318.8267
565.2466, 391.2012
565.7287, 369.0698
566.2108, 284.2285
566.6929, 275.9268
567.1750, 346.0186
567.6572, 416.5566
568.1393, 417.2642
568.6214, 371.9746
569.1035, 322.4614
569.5856, 270.6255
570.0677, 233.1978
570.5499, 236.6650
571.0320, 261.2817
571.5141, 273.6353
571.9962, 247.1401
572.4783, 229.8926
572.9604, 261.5874
573.4426, 326.4307
573.9247, 344.5869
574.4068, 252.7334
574.8889, 156.9639
575.3710, 94.09326
575.8531, 65.66895
576.3353, 74.46875
576.8174, 146.3066
577.2995, 216.3198
577.7816, 202.8345
578.2637, 91.88623
578.7458, 53.86816
579.2280, 134.6890
579.7101, 260.9668
580.1922, 298.4526
580.6743, 259.9741
581.1564, 217.3579
581.6385, 197.8696
582.1207, 195.8960
582.6028, 209.3662
583.0849, 236.5396
583.5670, 265.0112
584.0491, 306.7837
584.5313, 334.6187
585.0134, 321.7793
585.4955, 250.3408
585.9776, 184.4209
586.4597, 142.8442
586.9418, 114.2983
587.4240, 86.27295
587.9061, 52.39307
588.3882, 27.33984
588.8703, 13.47705
589.3524, 9.508789
589.8345, 10.84131
590.3167, 16.72510
590.7988, 30.21289
591.2809, 55.94971
591.7630, 91.00000
592.2451, 120.1357
592.7272, 143.4336
593.2094, 157.7524
593.6915, 169.8413
594.1736, 169.5449
594.6557, 121.8721
595.1378, 4.220703
595.6199, 85.89502
596.1021, 55.44043
596.5842, 43.77783
597.0663, 138.4102
597.5485, 226.4478
598.0306, 280.9419
598.5127, 282.4556
598.9948, 240.1104
599.4769, 192.7246
599.9590, 120.7769
600.4412, 70.13623
600.9233, 60.01123
601.4054, 92.88574
601.8875, 128.9253
602.3696, 177.4238
602.8517, 206.0898
603.3339, 170.5371
603.8160, 77.28320
604.2981, 19.78711
604.7802, 14.18506
605.2623, 28.23486
605.7444, 25.04688
606.2266, 8.113281
606.7087, 13.62598
607.1908, 50.55713
607.6729, 77.14307
608.1550, 62.33887
608.6371, 18.64209
609.1193, 14.09961
609.6014, 4.022461
610.0835, 16.29932
610.5656, 14.91992
611.0477, 101.9175
611.5298, 150.2627
612.0120, 138.4565
612.4941, 105.6162
612.9762, 73.41357
613.4583, 36.88330
613.9404, 23.31738
614.4225, 43.37891
614.9047, 70.02002
615.3868, 51.78271
615.8689, 6.155762
616.3510, 28.99854
616.8331, 20.15625
617.3152, 95.65820
617.7974, 130.1626
618.2795, 130.1484
618.7616, 123.1616
619.2437, 122.8047
619.7258, 122.3535
620.2079, 115.9873
620.6901, 103.4756
621.1722, 90.91797
621.6543, 90.42822
622.1364, 83.18994
622.6185, 52.31445
623.1006, 36.74805
623.5828, 73.38379
624.0649, 31.81348
624.5470, 38.47070
625.0291, 80.63330
625.5112, 92.09082
625.9933, 88.48438
626.4755, 71.02686
626.9576, 42.22998
627.4397, 11.82617
627.9218, 83.22998
628.4039, 110.7446
628.8860, 20.94580
629.3682, 107.6636
629.8503, 167.6387
630.3324, 164.9976
630.8145, 146.4199
631.2966, 122.5977
631.7787, 103.9648
632.2609, 102.5796
632.7430, 128.0083
633.2251, 137.0913
633.7072, 107.9541
634.1893, 67.59131
634.6714, 34.82422
635.1536, 4.773926
635.6357, 0.5878910
636.1178, 75.96143
636.5999, 174.8311
637.0820, 202.3604
637.5641, 154.8584
638.0463, 118.8579
638.5284, 125.4595
639.0105, 158.0088
639.4926, 186.4272
639.9747, 211.5615
640.4568, 237.3662
640.9390, 280.3979
641.4211, 316.3843
641.9032, 315.1958
642.3853, 274.8711
642.8674, 241.7061
643.3495, 258.3501
643.8317, 272.4351
644.3138, 241.8726
644.7959, 102.2993
645.2780, 36.08936
645.7601, 68.80664
646.2422, 152.2104
646.7244, 245.4668
647.2065, 361.2720
647.6886, 408.9443
648.1707, 349.8569
648.6528, 246.1611
649.1349, 232.7461
649.6171, 296.7637
650.0992, 346.2783
650.5813, 315.2720
651.0634, 260.5322
651.5455, 259.1846
652.0276, 301.0259
652.5098, 331.2471
652.9919, 311.4390
653.4740, 272.7847
653.9561, 241.5327
654.4382, 220.3228
654.9203, 208.2280
655.4025, 215.1597
655.8846, 222.9385
656.3667, 215.4478
656.8488, 176.8325
657.3309, 175.1982
657.8130, 224.2856
658.2952, 289.9424
658.7773, 321.2617
659.2594, 321.6748
659.7415, 330.4917
660.2236, 365.6992
660.7057, 401.2056
661.1879, 394.4995
661.6700, 356.7432
662.1521, 318.8623
662.6342, 285.3579
663.1163, 265.9243
663.5984, 274.4971
664.0806, 307.0259
664.5627, 330.8760
665.0448, 331.9531
665.5269, 326.3003
666.0090, 325.0977
666.4911, 332.2891
666.9733, 317.5581
667.4554, 265.1616
667.9375, 219.4585
668.4196, 227.4072
668.9017, 286.3042
669.3839, 324.1948
669.8660, 333.2769
670.3481, 327.1963
670.8302, 312.7163
671.3123, 295.6577
671.7944, 289.3218
672.2766, 302.8911
672.7587, 320.0864
673.2408, 338.2173
673.7229, 351.3521
674.2050, 348.1030
674.6871, 303.1465
675.1693, 267.4722
675.6514, 262.4893
676.1335, 280.3999
676.6156, 280.9829
677.0977, 261.0322
677.5798, 229.9971
678.0620, 178.1401
678.5441, 112.6084
679.0262, 124.3418
679.5083, 218.5439
679.9904, 306.2954
680.4725, 293.5254
680.9547, 231.9443
681.4368, 224.9604
681.9189, 294.5044
682.4010, 349.1313
682.8831, 300.5205
683.3652, 218.1274
683.8474, 173.4482
684.3295, 212.8745
684.8116, 242.1172
685.2937, 240.5747
685.7758, 222.5420
686.2579, 210.2095
686.7401, 213.4414
687.2222, 206.6992
687.7043, 179.5122
688.1864, 145.5684
688.6685, 143.4810
689.1506, 171.0405
689.6328, 192.8145
690.1149, 189.6562
690.5970, 173.7583
691.0791, 156.9092
691.5612, 141.4077
692.0433, 139.1152
692.5255, 174.7456
693.0076, 210.7227
693.4897, 221.9414
693.9718, 204.5908
694.4539, 185.3354
694.9360, 161.1108
695.4182, 142.2144
695.9003, 135.3022
696.3824, 144.0400
696.8645, 148.9048
697.3466, 147.9399
697.8287, 148.1699
698.3109, 162.2637
698.7930, 185.9697
699.2751, 193.1582
699.7572, 174.4731
700.2393, 156.1343
700.7214, 175.2808
701.2036, 211.5332
701.6857, 230.8618
702.1678, 213.7544
702.6499, 186.3066
703.1320, 139.1494
703.6141, 89.18066
704.0963, 81.00342
704.5784, 151.6089
705.0605, 209.1699
705.5426, 233.2939
706.0247, 229.5405
706.5068, 216.5669
706.9890, 191.5811
707.4711, 180.1304
707.9532, 208.8740
708.4353, 257.9614
708.9174, 272.7695
709.3995, 256.0229
709.8817, 233.1714
710.3638, 208.2915
710.8459, 193.9028
711.3280, 209.1543
711.8101, 260.9194
712.2922, 296.2734
712.7744, 302.2354
713.2565, 284.8423
713.7386, 243.7715
714.2207, 149.9912
714.7028, 114.6729
715.1849, 161.6909
715.6671, 225.0928
716.1492, 217.8101
716.6313, 148.3008
717.1134, 125.3008
717.5955, 179.4897
718.0776, 246.1587
718.5598, 238.3628
719.0419, 186.0703
719.5240, 147.2666
720.0061, 144.8521
720.4882, 157.3682
720.9703, 186.8159
721.4525, 223.2422
721.9346, 244.0806
722.4167, 226.1821
722.8988, 220.1475
723.3809, 243.5029
723.8630, 284.8892
724.3452, 293.6831
724.8273, 264.8970
725.3094, 240.8950
725.7915, 250.2305
726.2736, 275.4082
726.7557, 264.9463
727.2379, 223.6074
727.7200, 188.4917
728.2021, 181.8955
728.6842, 193.5029
729.1663, 218.1523
729.6484, 255.1021
730.1306, 292.8433
730.6127, 351.9492
731.0948, 390.4766
731.5769, 380.5923
732.0590, 303.6646
732.5411, 258.7876
733.0233, 252.2876
733.5054, 262.3457
733.9875, 276.6392
734.4696, 292.9448
734.9517, 287.2974
735.4338, 252.7153
735.9160, 222.6895
736.3981, 243.5879
736.8802, 286.3838
737.3623, 307.4297
737.8444, 282.9199
738.3266, 261.5127
738.8087, 259.4746
739.2908, 270.9263
739.7729, 290.3384
740.2551, 333.7261
740.7372, 353.9717
741.2193, 341.9014
741.7014, 308.3394
742.1835, 268.7676
742.6656, 224.9717
743.1478, 201.5396
743.6299, 206.7241
744.1120, 227.9038
744.5941, 253.7349
745.0762, 285.5273
745.5583, 320.7002
746.0405, 371.2339
746.5226, 406.3423
747.0047, 403.1265
747.4868, 370.1821
747.9689, 350.5547
748.4510, 366.6377
748.9332, 372.4619
749.4153, 346.0317
749.8974, 293.2949
750.3795, 284.2617
750.8616, 324.3408
751.3438, 356.1079
751.8259, 330.2812
752.3080, 273.9531
752.7901, 248.7749
753.2722, 256.3794
753.7543, 277.2041
754.2365, 317.1143
754.7186, 345.4229
755.2007, 334.0396
755.6828, 270.0308
756.1649, 232.8018
756.6470, 258.3828
757.1292, 293.5557
757.6113, 307.2051
758.0934, 294.9487
758.5755, 279.4653
759.0576, 257.9756
759.5397, 240.7959
760.0219, 241.3613
760.5040, 254.7729
760.9861, 265.5073
761.4682, 270.6650
761.9503, 275.2109
762.4324, 293.3018
762.9146, 308.6226
763.3967, 300.0132
763.8788, 232.8232
764.3609, 189.8906
764.8430, 205.5029
765.3251, 240.5444
765.8073, 250.6250
766.2894, 229.0454
766.7715, 207.5454
767.2536, 188.0903
767.7357, 175.1572
768.2178, 182.9277
768.7000, 205.5225
769.1821, 216.9995
769.6642, 201.0801
770.1463, 184.0942
770.6284, 193.1489
771.1105, 216.9067
771.5927, 233.4448
772.0748, 235.7607
772.5569, 230.1479
773.0390, 214.4546
773.5211, 192.7778
774.0032, 173.3369
774.4854, 153.3408
774.9675, 147.2407
775.4496, 164.3525
775.9317, 193.7510
776.4138, 208.5469
776.8959, 210.4155
777.3781, 209.1885
777.8602, 219.9224
778.3423, 221.6865
778.8244, 184.0088
779.3065, 118.4678
779.7886, 74.19775
780.2708, 79.57959
780.7529, 95.43408
781.2350, 113.3438
781.7171, 131.7529
782.1992, 133.1533
782.6813, 112.8257
783.1635, 94.22217
783.6456, 91.54590
784.1277, 99.48145
784.6098, 103.3379
785.0919, 102.6128
785.5740, 92.99023
786.0562, 57.59619
786.5383, 22.25391
787.0204, 11.21729
787.5025, 25.69922
787.9846, 40.89258
788.4667, 57.03125
788.9489, 66.30908
789.4310, 62.39404
789.9131, 43.98193
790.3952, 39.26465
790.8773, 50.97607
791.3594, 63.74512
791.8416, 65.98828
792.3237, 60.40576
792.8058, 51.88184
793.2879, 40.75830
793.7700, 33.99658
794.2521, 46.80908
794.7343, 59.02002
795.2164, 50.11426
795.6985, 10.16992
796.1806, 15.93555
796.6627, 18.97021
797.1448, 12.75146
797.6270, 3.470215
798.1091, 10.29883
798.5912, 16.43213
799.0733, 15.27832
799.5554, 4.405273
800.0375, 32.47754
800.5197, 77.01611
801.0018, 88.12109
801.4839, 56.05713
801.9660, 26.08301
802.4481, 36.10547
802.9302, 53.73584
803.4124, 49.50635
803.8945, 1.8555000E-02
804.3766, 26.76514
804.8587, 21.47754
805.3408, 5.598633
805.8229, 1.030762
806.3051, 1.497070
806.7872, 2.586914
807.2693, 16.00098
807.7514, 27.58691
808.2335, 21.13086
808.7156, 7.018066
809.1978, 1.313965
809.6799, 9.043457
810.1620, 19.58008
810.6441, 44.14941
811.1262, 60.32324
811.6083, 43.31055
812.0905, 33.86230
812.5726, 80.93213
813.0547, 88.83154
813.5368, 79.78809
814.0189, 77.64014
814.5010, 81.17383
814.9832, 80.56689
815.4653, 71.55908
815.9474, 71.49121
816.4295, 114.8115
816.9116, 168.8193
817.3937, 190.3774
817.8759, 147.1489
818.3580, 113.6299
818.8401, 103.5747
819.3222, 110.9990
819.8043, 134.6499
820.2864, 179.9033
820.7686, 215.7388
821.2507, 237.2202
821.7328, 254.4785
822.2149, 288.6587
822.6970, 327.9829
823.1791, 338.8462
823.6613, 305.3550
824.1434, 271.2129
824.6255, 261.1816
825.1076, 269.2505
825.5897, 288.6699
826.0718, 351.4736
826.5540, 374.0996
827.0361, 334.6230
827.5182, 281.7437
828.0003, 283.2012
828.4824, 339.1963
828.9645, 365.0542
829.4467, 342.1548
829.9288, 317.4565
830.4109, 356.3350
830.8930, 422.0537
831.3751, 455.4985
831.8572, 427.1543
832.3394, 406.0376
832.8215, 420.9971
833.3036, 452.5054
833.7857, 478.3457
834.2678, 495.0815
834.7499, 517.4653
835.2321, 552.1953
835.7142, 579.5073
836.1963, 560.5312
836.6784, 511.2280
837.1605, 493.1548
837.6426, 520.8838
838.1248, 558.6489
838.6069, 594.3716
839.0890, 619.5464
839.5711, 621.4531
840.0532, 575.3564
840.5353, 546.3018
841.0175, 544.7451
841.4996, 554.5010
841.9817, 557.7930
842.4638, 553.9150
842.9459, 562.4111
843.4280, 586.7290
843.9102, 613.9966
844.3923, 629.2109
844.8744, 638.8032
845.3565, 653.8887
845.8386, 679.0669
846.3207, 700.4634
846.8029, 717.6553
847.2850, 724.4111
847.7671, 714.0537
848.2492, 677.0728
848.7313, 649.4243
849.2134, 630.2207
849.6956, 622.7622
850.1777, 640.8813
850.6598, 674.1338
851.1419, 683.6733
851.6240, 663.4404
852.1061, 636.4590
852.5883, 614.7314
853.0704, 596.7568
853.5525, 580.3076
854.0346, 564.7549
854.5167, 552.7339
854.9988, 542.4844
855.4810, 539.3071
855.9631, 552.2310
856.4452, 581.3057
856.9273, 591.0664
857.4094, 579.6621
857.8915, 554.3652
858.3737, 503.0645
858.8558, 454.0986
859.3379, 455.2676
859.8200, 515.9131
860.3021, 554.8745
860.7842, 524.1187
861.2664, 478.2583
861.7485, 449.8745
862.2306, 438.5601
862.7127, 425.3564
863.1948, 408.9536
863.6769, 393.7510
864.1591, 383.7925
864.6412, 377.1611
865.1233, 369.6030
865.6054, 361.2515
866.0875, 354.6055
866.5696, 359.5137
867.0518, 359.2734
867.5339, 335.3638
868.0160, 285.1436
868.4981, 262.2949
868.9802, 283.0820
869.4623, 300.9741
869.9445, 296.0542
870.4266, 269.6558
870.9087, 232.8892
871.3908, 187.4067
871.8729, 157.1426
872.3550, 177.6182
872.8372, 202.0889
873.3193, 180.2764
873.8014, 122.2910
874.2835, 89.99121
874.7656, 127.0469
875.2477, 154.7231
875.7299, 149.7314
876.2120, 121.3276
876.6941, 105.7095
877.1762, 102.8555
877.6583, 101.7607
878.1404, 100.0249
878.6226, 95.01904
879.1047, 81.97168
879.5869, 62.83594
880.0690, 42.51904
880.5511, 11.14746
881.0332, 7.382324
881.5153, 1.627930
881.9974, 25.39453
882.4796, 41.46484
882.9617, 51.10986
883.4438, 42.24023
883.9259, 3.869141
884.4080, 37.64893
884.8901, 30.72900
885.3723, 5.272949
885.8544, 24.91650
886.3365, 6.304688
886.8186, 21.78076
887.3007, 66.40723
887.7828, 104.4844
888.2650, 100.6201
888.7471, 30.10938
889.2292, 14.60449
889.7113, 21.85986
890.1934, 11.06592
890.6755, 3.509766
891.1577, 1.087402
891.6398, 1.679199
892.1219, 3.775391
892.6040, 3.199707
893.0861, 16.66602
893.5682, 43.75537
894.0504, 69.05176
894.5325, 100.6299
895.0146, 102.6787
895.4967, 64.78076
895.9788, 16.71143
896.4609, 19.55908
896.9431, 44.49219
897.4252, 58.35205
897.9073, 60.99902
898.3894, 57.37988
898.8715, 43.82275
899.3536, 31.16309
899.8358, 28.74219
900.3179, 37.89551
900.8000, 51.88135
901.2821, 71.64600
901.7642, 93.01025
902.2463, 115.7373
902.7285, 138.6655
903.2106, 156.2764
903.6927, 168.5698
904.1748, 178.4697
904.6569, 189.7256
905.1390, 198.2104
905.6212, 199.1929
906.1033, 193.5391
906.5854, 185.7217
907.0675, 163.4502
907.5496, 156.6362
908.0317, 178.9165
908.5139, 218.6138
908.9960, 240.9854
909.4781, 245.8247
909.9602, 244.0635
910.4423, 237.2959
910.9244, 229.2124
911.4066, 222.6079
911.8887, 218.2300
912.3708, 217.4810
912.8529, 221.6343
913.3350, 228.6440
913.8171, 238.8457
914.2993, 250.9536
914.7814, 262.4893
915.2635, 273.0356
915.7456, 291.0908
916.2277, 320.5063
916.7098, 346.2095
917.1920, 349.6392
917.6741, 338.2124
918.1562, 318.3384
918.6383, 283.8921
919.1204, 269.0273
919.6025, 298.9272
920.0847, 340.3521
920.5668, 374.0693
921.0489, 401.1104
921.5310, 411.6016
922.0131, 404.3604
922.4952, 390.3955
922.9774, 367.2476
923.4595, 348.5576
923.9416, 362.8428
924.4237, 408.7383
924.9058, 443.9492
925.3879, 429.6919
925.8701, 424.9238
926.3522, 465.8325
926.8343, 542.2490
927.3164, 564.7725
927.7985, 528.0913
928.2806, 486.7842
928.7628, 457.1416
929.2449, 445.9346
929.7270, 478.7925
930.2091, 539.2285
930.6912, 583.6104
931.1733, 586.4058
931.6555, 578.7026
932.1376, 562.2100
932.6197, 544.0151
933.1018, 537.0845
933.5839, 543.1875
934.0660, 544.8320
934.5482, 535.3726
935.0303, 531.5000
935.5124, 562.7119
935.9945, 612.6860
936.4766, 653.1187
936.9587, 677.9917
937.4409, 693.1548
937.9230, 697.9321
938.4051, 695.5063
938.8872, 684.5244
939.3693, 661.0620
939.8514, 661.4775
940.3336, 688.8003
940.8157, 716.2964
941.2978, 717.4648
941.7799, 707.0156
942.2620, 705.8564
942.7441, 716.4556
943.2263, 726.7720
943.7084, 726.8613
944.1905, 728.2681
944.6726, 734.9043
945.1547, 745.1113
945.6368, 757.1055
946.1190, 773.6182
946.6011, 781.3330
947.0832, 765.2598
947.5653, 740.4214
948.0474, 729.3477
948.5295, 726.2808
949.0117, 717.7515
949.4938, 692.9365
949.9759, 669.7417
950.4580, 643.2515
950.9401, 625.2700
951.4222, 645.7178
951.9044, 705.9199
952.3865, 724.1299
952.8686, 682.7466
953.3507, 628.0132
953.8328, 599.4873
954.3149, 588.7285
954.7971, 588.9111
955.2792, 603.5439
955.7613, 611.4355
956.2434, 614.4575
956.7255, 603.9028
957.2076, 565.7383
957.6898, 501.4644
958.1719, 473.0923
958.6540, 480.0166
959.1361, 496.1416
959.6182, 514.2222
960.1003, 524.8706
960.5825, 516.7573
961.0646, 492.2515
961.5467, 466.2729
962.0288, 435.1562
962.5109, 413.5557
962.9930, 409.1826
963.4752, 413.3413
963.9573, 403.2051
964.4394, 381.1709
964.9215, 363.0190
965.4036, 360.6333
965.8857, 349.9023
966.3679, 289.3208
966.8500, 218.0615
967.3321, 189.1367
967.8142, 253.0610
968.2963, 277.7310
968.7784, 249.0864
969.2606, 208.1084
969.7427, 200.0923
970.2248, 214.7129
970.7069, 208.3081
971.1890, 178.0215
971.6711, 162.5977
972.1533, 215.4907
972.6354, 268.6558
973.1175, 264.8047
973.5996, 204.4824
974.0817, 183.4180
974.5638, 213.7939
975.0460, 240.2588
975.5281, 238.4482
976.0102, 219.6094
976.4923, 199.3125
976.9744, 181.7866
977.4565, 179.4531
977.9387, 226.1113
978.4208, 255.6548
978.9029, 223.9185
979.3850, 171.9014
979.8671, 158.5610
980.3492, 193.6714
980.8314, 207.2876
981.3135, 187.4517
981.7956, 165.1108
982.2777, 184.1113
982.7598, 217.7202
983.2419, 222.6890
983.7241, 187.9761
984.2062, 165.2905
984.6883, 188.7896
985.1704, 208.2139
985.6525, 197.1133
986.1346, 159.7236
986.6168, 139.0986
987.0989, 135.1675
987.5810, 145.7275
988.0631, 183.5415
988.5452, 223.5801
989.0273, 239.4351
989.5095, 238.6753
989.9916, 240.7041
990.4737, 256.9634
990.9558, 263.2437
991.4379, 253.2720
991.9200, 237.1577
992.4022, 227.9819
992.8843, 226.0986
993.3664, 236.1558
993.8485, 261.9570
994.3306, 280.6162
994.8127, 275.6445
995.2949, 256.9365
995.7770, 226.6470
996.2591, 179.9380
996.7412, 166.8809
997.2233, 195.7314
997.7054, 228.7119
998.1876, 246.0405
998.6697, 250.1514
999.1518, 243.3667
999.6339, 227.6611
1000.116, 210.8965
1000.598, 195.5229
1001.080, 180.5591
1001.562, 160.1279
1002.044, 142.1924
1002.527, 142.2026
1003.009, 161.1133
1003.491, 188.0947
1003.973, 224.3354
1004.455, 253.5308
1004.937, 254.7729
1005.419, 239.1787
1005.901, 217.2773
1006.384, 186.0127
1006.866, 171.3604
1007.348, 185.6582
1007.830, 201.7588
1008.312, 202.7739
1008.794, 192.2251
1009.276, 189.4902
1009.758, 194.5073
1010.240, 206.0669
1010.723, 235.1587
1011.205, 259.0137
1011.687, 256.0957
1012.169, 237.3936
1012.651, 234.2158
1013.133, 254.7622
1013.615, 268.9487
1014.097, 272.8350
1014.580, 267.8164
1015.062, 247.9658
1015.544, 222.2012
1016.026, 209.0596
1016.508, 214.6284
1016.990, 217.5078
1017.472, 200.3843
1017.954, 186.9321
1018.436, 197.5791
1018.919, 229.7178
1019.401, 211.9766
1019.883, 144.1631
1020.365, 99.04492
1020.847, 140.5107
1021.329, 206.4561
1021.811, 240.8530
1022.293, 251.6855
1022.776, 257.1069
1023.258, 257.1445
1023.740, 257.5459
1024.222, 258.8721
1024.704, 260.4546
1025.186, 269.3486
1025.668, 277.9922
1026.150, 249.4194
1026.632, 174.1104
1027.115, 121.7515
1027.597, 159.9541
1028.079, 214.9189
1028.561, 234.8765
1029.043, 221.4897
1029.525, 214.4453
1030.007, 215.5054
1030.489, 220.1978
1030.972, 228.5483
1031.454, 235.7583
1031.936, 228.8071
1032.418, 216.0181
1032.900, 214.9272
1033.382, 245.1045
1033.864, 268.4082
1034.346, 283.6421
1034.828, 286.6221
1035.311, 266.4839
1035.793, 228.3047
1036.275, 213.3906
1036.757, 225.8813
1037.239, 230.0112
1037.721, 177.6357
1038.203, 124.8438
1038.685, 117.1206
1039.167, 150.7539
1039.650, 173.3999
1040.132, 185.7354
1040.614, 184.4746
1041.096, 164.0747
1041.578, 137.8604
1042.060, 123.4189
1042.542, 120.8154
1043.024, 129.4131
1043.507, 160.2422
1043.989, 179.4419
1044.471, 180.0732
1044.953, 168.7920
1045.435, 144.5000
1045.917, 109.4438
1046.399, 94.54492
1046.881, 99.67285
1047.364, 107.6582
1047.846, 111.9355
1048.328, 110.9502
1048.810, 100.2949
1049.292, 82.33545
1049.774, 69.63574
1050.256, 61.94531
1050.738, 66.53564
1051.220, 88.64209
1051.703, 113.1069
1052.185, 120.0278
1052.667, 113.9736
1053.149, 97.59326
1053.631, 65.21777
1054.113, 54.06152
1054.595, 91.86719
1055.077, 131.0254
1055.559, 151.5908
1056.042, 154.5708
1056.524, 133.9946
1057.006, 93.96826
1057.488, 66.16797
1057.970, 79.53857
1058.452, 98.58154
1058.934, 98.24658
1059.416, 86.70947
1059.899, 83.00146
1060.381, 92.79883
1060.863, 96.65918
1061.345, 91.98877
1061.827, 84.99561
1062.309, 82.13818
1062.791, 80.18848
1063.273, 72.24512
1063.755, 58.80859
1064.238, 57.71387
1064.720, 81.68994
1065.202, 105.0205
1065.684, 125.4082
1066.166, 139.1992
1066.648, 127.7002
1067.130, 97.19092
1067.612, 73.81836
1068.094, 66.01611
1068.577, 60.82227
1069.059, 50.08057
1069.541, 41.23975
1070.023, 43.97949
1070.505, 64.69141
1070.987, 57.66455
1071.469, 16.70557
1071.951, 17.28516
1072.434, 3.914551
1072.916, 27.30957
1073.398, 44.33838
1073.880, 48.19922
1074.362, 46.07812
1074.844, 32.74072
1075.326, 27.70996
1075.808, 34.89502
1076.291, 43.85303
1076.773, 43.04932
1077.255, 34.90186
1077.737, 25.94141
1078.219, 17.84326
1078.701, 5.805176
1079.183, 29.35791
1079.665, 51.93994
1080.147, 38.72754
1080.630, 1.829102
1081.112, 19.26465
1081.594, 14.43311
1082.076, 6.820313
1082.558, 2.808105
1083.040, 1.195801
1083.522, 4.067383
1084.004, 6.679688
1084.486, 1.889160
1084.969, 18.60938
1085.451, 22.04590
1085.933, 3.034668
1086.415, 12.65625
1086.897, 5.8590001E-03
1087.379, 26.05591
1087.861, 43.74805
1088.343, 52.10010
1088.826, 49.49585
1089.308, 20.28467
1089.790, 0.4328610
1090.272, 1.091309
1090.754, 5.997559
1091.236, 10.07935
1091.718, 10.16772
1092.200, 4.411133
1092.682, 37.28223
1093.165, 55.96680
1093.647, 25.02905
1094.129, 13.07812
1094.611, 33.84204
1095.093, 38.43481
1095.575, 32.11255
1096.057, 14.26416
1096.539, 1.860840
1097.022, 13.74023
1097.504, 16.73486
1097.986, 7.493652
1098.468, 37.93921
1098.950, 43.02856
1099.432, 3.329590
1099.914, 20.83813
1100.396, 25.22144
1100.879, 27.07593
1101.361, 43.63672
1101.843, 63.74463
1102.325, 62.94922
1102.807, 45.94751
1103.289, 31.05347
1103.771, 25.02026
1104.253, 22.37817
1104.735, 24.15723
1105.218, 24.80762
1105.700, 11.86938
1106.182, 9.722168
1106.664, 11.52393
1107.146, 9.681152
1107.628, 26.91772
1108.110, 17.82690
1108.592, 6.080811
1109.074, 6.458740
1109.557, 15.21167
1110.039, 17.16382
1110.521, 12.19214
1111.003, 4.500977
1111.485, 6.747314
1111.967, 12.92236
1112.449, 3.338135
1112.931, 23.88599
1113.414, 27.50732
1113.896, 8.253174
1114.378, 7.754639
1114.860, 20.29565
1115.342, 30.86279
1115.824, 44.90161
1116.306, 53.59253
1116.788, 35.17114
1117.271, 1.305908
1117.753, 22.11230
1118.235, 18.84619
1118.717, 15.79639
1119.199, 13.50220
1119.681, 14.10376
1120.163, 26.25024
1120.645, 42.04248
1121.127, 30.24780
1121.609, 6.337402
1122.092, 28.84497
1122.574, 2.679932
1123.056, 23.20166
1123.538, 34.50269
1124.020, 34.33398
1124.502, 21.59985
1124.984, 0.2651370
1125.466, 3.465820
1125.949, 42.61743
1126.431, 76.26221
1126.913, 76.93359
1127.395, 60.09766
1127.877, 26.53491
1128.359, 18.00464
1128.841, 24.81592
1129.323, 8.370850
1129.806, 38.22559
1130.288, 47.68970
1130.770, 51.96704
1131.252, 75.18188
1131.734, 98.43774
1132.216, 90.86011
1132.698, 29.65332
1133.180, 15.71167
1133.662, 59.28271
1134.145, 107.5801
1134.627, 134.3396
1135.109, 140.4771
1135.591, 113.0779
1136.073, 66.76367
1136.555, 39.42163
1137.037, 48.45996
1137.519, 67.96655
1138.001, 103.1206
1138.484, 139.5134
1138.966, 163.2014
1139.448, 173.6653
1139.930, 161.6047
1140.412, 130.0459
1140.894, 109.6829
1141.376, 122.3223
1141.858, 135.8738
1142.341, 140.6260
1142.823, 142.0552
1143.305, 155.8579
1143.787, 178.3547
1144.269, 186.4888
1144.751, 175.0659
1145.233, 163.1667
1145.715, 160.0303
1146.198, 163.1028
1146.680, 174.1868
1147.162, 191.1707
1147.644, 192.4646
1148.126, 179.1843
1148.608, 177.4893
1149.090, 198.5374
1149.572, 226.3730
1150.054, 267.9683
1150.536, 297.0017
1151.019, 281.6631
1151.501, 217.0239
1151.983, 184.8037
1152.465, 185.7305
1152.947, 189.8076
1153.429, 178.4907
1153.911, 166.9507
1154.393, 168.1118
1154.876, 178.3723
1155.358, 194.1597
1155.840, 221.5615
1156.322, 227.6248
1156.804, 210.6152
1157.286, 190.7290
1157.768, 173.1663
1158.250, 163.8240
1158.733, 179.0962
1159.215, 211.0127
1159.697, 229.2192
1160.179, 227.4849
1160.661, 212.3052
1161.143, 176.3298
1161.625, 149.9119
1162.107, 186.5015
1162.589, 248.0305
1163.072, 264.5481
1163.554, 233.4614
1164.036, 210.8137
1164.518, 209.7141
1165.000, 226.4841
1165.482, 267.7856
1165.964, 311.7437
1166.446, 317.8784
1166.928, 297.6162
1167.411, 274.3464
1167.893, 251.6487
1168.375, 227.4023
1168.857, 182.8884
1169.339, 160.3037
1169.821, 184.4832
1170.303, 238.1821
1170.785, 275.4841
1171.268, 295.0249
1171.750, 290.5447
1172.232, 243.5188
1172.714, 215.7520
1173.196, 256.4631
1173.678, 300.8120
1174.160, 308.0674
1174.642, 286.6306
1175.125, 279.1509
1175.607, 283.0449
1176.089, 288.8291
1176.571, 299.9712
1177.053, 302.4041
1177.535, 282.0813
1178.017, 256.4963
1178.499, 238.9646
1178.981, 228.6543
1179.464, 234.2036
1179.946, 254.5781
1180.428, 271.1799
1180.910, 259.0320
1181.392, 250.1792
1181.874, 266.3413
1182.356, 294.2302
1182.838, 317.2852
1183.320, 337.4861
1183.803, 337.0486
1184.285, 313.2793
1184.767, 280.3660
1185.249, 223.1316
1185.731, 184.3164
1186.213, 213.2952
1186.695, 282.8394
1187.177, 312.1045
1187.660, 297.3088
1188.142, 285.1838
1188.624, 284.2402
1189.106, 279.8865
1189.588, 251.8936
1190.070, 220.2588
1190.552, 201.8398
1191.034, 195.8757
1191.516, 182.2896
1191.999, 157.2632
1192.481, 162.7207
1192.963, 219.0483
1193.445, 270.3906
1193.927, 242.5371
1194.409, 193.7759
1194.891, 186.3645
1195.373, 225.5044
1195.855, 266.8638
1196.338, 314.4658
1196.820, 325.6279
1197.302, 266.4614
1197.784, 199.7053
1198.266, 201.2747
1198.748, 232.2927
1199.230, 244.1348
1199.712, 228.5574
1200.195, 213.2065
1200.677, 197.3250
1201.159, 186.7830
1201.641, 183.4280
1202.123, 188.6074
1202.605, 215.0535
1203.087, 247.0579
1203.569, 257.5029
1204.052, 233.5371
1204.534, 219.8962
1205.016, 216.9575
1205.498, 221.2009
1205.980, 237.7363
1206.462, 254.0518
1206.944, 253.4956
1207.426, 242.0217
1207.908, 233.0044
1208.391, 227.7068
1208.873, 223.6497
1209.355, 219.5615
1209.837, 222.2234
1210.319, 248.6638
1210.801, 276.5654
1211.283, 275.7546
1211.765, 253.5518
1212.247, 238.5828
1212.730, 236.3418
1213.212, 233.5811
1213.694, 225.0671
1214.176, 220.8525
1214.658, 240.0090
1215.140, 260.2329
1215.622, 249.6589
1216.104, 213.7878
1216.587, 196.1057
1217.069, 208.9619
1217.551, 202.6711
1218.033, 164.1448
1218.515, 126.1907
1218.997, 123.4644
1219.479, 142.6602
1219.961, 178.5359
1220.443, 226.9854
1220.926, 249.6038
1221.408, 237.5930
1221.890, 230.7275
1222.372, 240.6521
1222.854, 250.6733
1223.336, 236.0061
1223.818, 213.0869
1224.300, 202.0608
1224.782, 205.7324
1225.265, 201.0764
1225.747, 184.4597
1226.229, 176.7839
1226.711, 185.4534
1227.193, 202.2878
1227.675, 232.0620
1228.157, 255.9236
1228.639, 245.8164
1229.122, 194.9780
1229.604, 156.4666
1230.086, 131.0422
1230.568, 111.7759
1231.050, 96.65479
1231.532, 85.18311
1232.014, 73.65942
1232.496, 67.25439
1232.979, 75.09058
1233.461, 99.83276
1233.943, 114.2263
1234.425, 116.9397
1234.907, 122.3176
1235.389, 142.6230
1235.871, 159.4500
1236.353, 149.5454
1236.835, 128.1787
1237.318, 115.5166
1237.800, 113.3083
1238.282, 114.3525
1238.764, 119.1931
1239.246, 115.6724
1239.728, 92.54932
1240.210, 64.20166
1240.692, 34.65381
1241.175, 12.15845
1241.657, 8.009766
1242.139, 23.87842
1242.621, 46.93359
1243.103, 77.50391
1243.585, 109.2495
1244.067, 152.2505
1244.549, 180.8953
1245.031, 172.2776
1245.514, 140.8706
1245.996, 105.4219
1246.478, 64.13916
1246.960, 48.68433
1247.442, 60.85400
1247.924, 76.30103
1248.406, 78.98828
1248.888, 80.90771
1249.370, 91.00098
1249.853, 102.8921
1250.335, 108.1414
1250.817, 106.9011
1251.299, 102.8325
1251.781, 96.61890
1252.263, 95.06567
1252.745, 107.1516
1253.227, 119.6794
1253.710, 128.0527
1254.192, 132.6418
1254.674, 134.5645
1255.156, 133.2205
1255.638, 123.0122
1256.120, 104.1721
1256.602, 83.29932
1257.084, 52.56372
1257.567, 35.93701
1258.049, 42.73120
1258.531, 62.87158
1259.013, 88.27100
1259.495, 114.9321
1259.977, 128.8938
1260.459, 129.1597
1260.941, 118.1504
1261.423, 83.17236
1261.906, 55.19629
1262.388, 39.06812
1262.870, 35.82031
1263.352, 56.68970
1263.834, 88.69897
1264.316, 100.4863
1264.798, 90.41333
1265.280, 77.13477
1265.762, 58.31226
1266.245, 52.23584
1266.727, 68.50146
1267.209, 83.82422
1267.691, 54.24536
1268.173, 7.753174
1268.655, 2.187256
1269.137, 25.71436
1269.619, 26.71899
1270.102, 27.41846
1270.584, 47.14771
1271.066, 7.090820
1271.548, 50.01758
1272.030, 80.24561
1272.512, 89.46704
1272.994, 76.57642
1273.476, 44.17090
1273.958, 24.82959
1274.441, 20.01709
1274.923, 27.21411
1275.405, 48.16553
1275.887, 70.52490
1276.369, 87.82080
1276.851, 95.35889
1277.333, 81.00049
1277.815, 50.39697
1278.297, 39.24927
1278.780, 48.63818
1279.262, 56.50806
1279.744, 57.48242
1280.226, 57.94116
1280.708, 66.09497
1281.190, 72.51123
1281.672, 63.82520
1282.154, 49.02710
1282.637, 72.46484
1283.119, 127.3103
1283.601, 143.7634
1284.083, 102.5859
1284.565, 57.10522
1285.047, 33.76270
1285.529, 21.48413
1286.011, 14.08374
1286.494, 12.64966
1286.976, 27.12598
1287.458, 50.36011
1287.940, 55.01465
1288.422, 32.73657
1288.904, 15.47900
1289.386, 14.14648
1289.868, 22.91064
1290.350, 44.75513
1290.833, 69.06689
1291.315, 67.87939
1291.797, 55.25977
1292.279, 63.51465
1292.761, 101.4543
1293.243, 113.7454
1293.725, 93.58521
1294.207, 76.41064
1294.689, 77.47363
1295.172, 82.36646
1295.654, 63.37939
1296.136, 38.99829
1296.618, 36.53442
1297.100, 62.40039
1297.582, 75.29907
1298.064, 71.24805
1298.546, 82.89209
1299.029, 127.3005
1299.511, 168.5605
1299.993, 168.4502
1300.475, 146.8674
1300.957, 116.2068
1301.439, 80.71387
1301.921, 60.98853
1302.403, 56.16504
1302.885, 38.25854
1303.368, 8.623779
1303.850, 34.69751
1304.332, 22.92798
1304.814, 84.77832
1305.296, 98.65527
1305.778, 79.64868
1306.260, 77.94336
1306.742, 91.36157
1307.224, 114.0891
1307.707, 147.9604
1308.189, 171.9773
1308.671, 180.9626
1309.153, 170.3010
1309.635, 94.74390
1310.117, 41.04028
1310.599, 29.62061
1311.081, 42.10962
1311.564, 37.82104
1312.046, 3.768311
1312.528, 2.596436
1313.010, 59.05811
1313.492, 89.44214
1313.974, 59.91699
1314.456, 12.55957
1314.938, 0.0000000E+00
##END=



