##NAMES=Troilite
##RRUFFID=R070213
##IDEAL CHEMISTRY=Fe^2+^S^2-^
##LOCALITY=Bjurbole Borga, Nyland, Finland
##OWNER=RRUFF
##SOURCE=Michael Scott
##DESCRIPTION=Dark gray to tarnished brown metallic grains found in a chondrite meteorite class L4, that fell on March 12, 1899
##STATUS=The identification of this mineral is not yet confirmed.
##URL=rruff.info/R070213
198.1581, 0.0000000E+00
198.6402, 14.58862
199.1223, 31.07642
199.6044, 39.92334
200.0865, 29.86816
200.5686, 30.19287
201.0508, 37.86157
201.5329, 38.19141
202.0150, 31.14136
202.4971, 15.00879
202.9792, 1.303467
203.4613, 2.415527
203.9435, 20.56787
204.4256, 39.04126
204.9077, 50.94434
205.3898, 59.24829
205.8719, 66.22729
206.3540, 72.20215
206.8362, 76.51660
207.3183, 74.96411
207.8004, 64.14819
208.2825, 55.50757
208.7646, 49.91113
209.2467, 45.56909
209.7289, 41.47119
210.2110, 37.52393
210.6931, 34.31836
211.1752, 32.74756
211.6573, 33.39600
212.1395, 33.51245
212.6216, 34.36621
213.1037, 33.67407
213.5858, 29.42676
214.0679, 22.17505
214.5500, 14.10986
215.0322, 6.742188
215.5143, 2.494629
215.9964, 1.873535
216.4785, 22.94604
216.9606, 44.24463
217.4427, 48.14282
217.9249, 38.57349
218.4070, 29.47534
218.8891, 33.71899
219.3712, 51.93555
219.8533, 60.39282
220.3354, 46.54102
220.8176, 34.67578
221.2997, 31.73682
221.7818, 35.87036
222.2639, 42.59009
222.7460, 49.17822
223.2281, 55.51001
223.7103, 59.53076
224.1924, 61.80933
224.6745, 60.62988
225.1566, 52.25342
225.6387, 40.86401
226.1208, 32.66675
226.6030, 31.46997
227.0851, 35.63232
227.5672, 38.22729
228.0493, 37.65820
228.5314, 37.63403
229.0135, 42.49561
229.4957, 46.87451
229.9778, 41.93652
230.4599, 23.21802
230.9420, 0.2263180
231.4241, 4.401855
231.9062, 27.30371
232.3884, 50.91675
232.8705, 57.30640
233.3526, 54.73071
233.8347, 47.59790
234.3168, 37.71118
234.7989, 28.35303
235.2811, 26.32690
235.7632, 35.90430
236.2453, 41.66016
236.7274, 41.50659
237.2095, 39.03540
237.6916, 35.40381
238.1738, 31.34497
238.6559, 28.74292
239.1380, 30.79346
239.6201, 39.45557
240.1022, 45.51196
240.5843, 44.60693
241.0665, 44.33105
241.5486, 51.21436
242.0307, 63.68262
242.5128, 72.94629
242.9949, 68.05029
243.4770, 47.13306
243.9592, 34.51270
244.4413, 36.55591
244.9234, 41.53052
245.4055, 46.88159
245.8876, 51.77515
246.3697, 55.36133
246.8519, 57.74194
247.3340, 58.53711
247.8161, 53.19189
248.2982, 32.05029
248.7803, 20.03271
249.2624, 26.48755
249.7446, 43.64502
250.2267, 56.29492
250.7088, 53.45142
251.1909, 41.19873
251.6730, 35.76831
252.1551, 41.52637
252.6373, 45.23413
253.1194, 39.84424
253.6015, 31.56812
254.0836, 27.57104
254.5657, 31.00928
255.0478, 37.39185
255.5300, 38.45532
256.0121, 31.61719
256.4942, 29.02954
256.9763, 39.62036
257.4584, 52.66309
257.9406, 61.32837
258.4227, 64.17456
258.9048, 61.97729
259.3869, 53.70874
259.8690, 39.00146
260.3511, 26.27441
260.8333, 13.96973
261.3154, 7.032959
261.7975, 12.86475
262.2796, 30.02051
262.7617, 43.53784
263.2438, 39.32227
263.7260, 20.81348
264.2081, 8.553467
264.6902, 7.291992
265.1723, 8.583252
265.6544, 4.168945
266.1365, 3.565674
266.6187, 6.297852
267.1008, 3.782227
267.5829, 20.81616
268.0650, 32.88989
268.5471, 39.41504
269.0292, 41.70410
269.5114, 38.07422
269.9935, 30.92188
270.4756, 23.98950
270.9577, 18.40259
271.4398, 13.19165
271.9219, 5.966309
272.4041, 3.499512
272.8862, 6.327148
273.3683, 6.744873
273.8504, 27.11401
274.3325, 37.23462
274.8146, 31.14624
275.2968, 23.89551
275.7789, 27.11621
276.2610, 38.14575
276.7431, 46.43213
277.2252, 48.91382
277.7073, 45.90332
278.1895, 36.18457
278.6716, 17.53735
279.1537, 3.545410
279.6358, 2.019775
280.1179, 7.711670
280.6000, 12.06323
281.0822, 13.28394
281.5643, 12.46021
282.0464, 9.017090
282.5285, 2.173340
283.0106, 2.842041
283.4927, 22.97021
283.9749, 44.38696
284.4570, 48.53491
284.9391, 34.28125
285.4212, 18.42188
285.9033, 15.56445
286.3854, 25.69019
286.8676, 30.46021
287.3497, 22.53882
287.8318, 17.07764
288.3139, 25.18652
288.7960, 42.11694
289.2781, 53.73511
289.7603, 51.77417
290.2424, 40.32642
290.7245, 37.46973
291.2066, 53.51904
291.6887, 64.81372
292.1708, 67.15137
292.6530, 63.05127
293.1351, 54.05054
293.6172, 40.85645
294.0993, 26.82617
294.5814, 17.79370
295.0635, 14.33130
295.5457, 15.70239
296.0278, 28.53125
296.5099, 41.05127
296.9920, 45.19409
297.4741, 40.04150
297.9562, 28.54785
298.4384, 11.77026
298.9205, 13.11890
299.4026, 23.08472
299.8847, 5.9570000E-02
300.3668, 19.51221
300.8489, 17.84229
301.3311, 2.573975
301.8131, 8.461182
302.2953, 2.937500
302.7774, 15.62476
303.2595, 29.41333
303.7416, 37.42017
304.2237, 41.49194
304.7058, 40.38745
305.1880, 36.75366
305.6701, 33.48120
306.1522, 31.66431
306.6343, 29.94580
307.1164, 24.85571
307.5985, 14.01343
308.0807, 8.780273
308.5628, 17.90967
309.0449, 28.66772
309.5270, 33.59937
310.0091, 32.06396
310.4912, 28.01929
310.9734, 22.74414
311.4555, 16.78467
311.9376, 17.26465
312.4197, 29.52612
312.9018, 41.29224
313.3839, 45.16187
313.8661, 42.74219
314.3482, 37.84497
314.8303, 29.37720
315.3124, 20.71143
315.7945, 19.62720
316.2766, 27.84717
316.7588, 33.21094
317.2409, 22.91919
317.7230, 7.812256
318.2051, 7.173340
318.6872, 30.87061
319.1693, 55.89819
319.6515, 65.59644
320.1336, 61.98828
320.6157, 53.11255
321.0978, 39.20288
321.5799, 25.07104
322.0620, 19.45239
322.5442, 23.46509
323.0263, 26.46655
323.5084, 25.14331
323.9905, 21.10010
324.4726, 13.59253
324.9547, 2.984131
325.4369, 1.2695000E-02
325.9190, 20.38159
326.4011, 67.45264
326.8832, 85.08887
327.3653, 42.73315
327.8474, 0.2163090
328.3296, 4.909912
328.8117, 18.86865
329.2938, 41.39990
329.7759, 44.87427
330.2580, 33.76025
330.7401, 28.61646
331.2223, 36.89648
331.7044, 42.72632
332.1865, 42.13452
332.6686, 39.41089
333.1507, 40.31274
333.6328, 46.22900
334.1150, 52.34546
334.5971, 50.46826
335.0792, 34.76196
335.5613, 27.10254
336.0434, 35.17773
336.5255, 43.52173
337.0077, 43.38208
337.4898, 36.05688
337.9719, 28.07495
338.4540, 24.10767
338.9361, 24.04785
339.4182, 28.18872
339.9004, 46.63086
340.3825, 53.48779
340.8646, 31.89600
341.3467, 0.8022460
341.8288, 22.51489
342.3109, 24.41919
342.7931, 15.70581
343.2752, 9.193359
343.7573, 5.235107
344.2394, 1.081543
344.7215, 0.3759770
345.2036, 5.474121
345.6858, 23.14502
346.1679, 53.17334
346.6500, 77.53296
347.1321, 82.57373
347.6142, 73.33350
348.0963, 63.12964
348.5785, 52.90991
349.0606, 42.61914
349.5427, 29.07300
350.0248, 15.01465
350.5069, 9.710449
350.9890, 22.12476
351.4712, 38.06714
351.9533, 48.21436
352.4354, 52.43555
352.9175, 48.42480
353.3996, 31.28735
353.8817, 9.626709
354.3639, 9.122314
354.8460, 43.14380
355.3281, 65.64844
355.8102, 56.29834
356.2923, 34.63135
356.7744, 22.82422
357.2566, 25.85889
357.7387, 37.19312
358.2208, 48.37280
358.7029, 61.28369
359.1850, 61.60132
359.6671, 32.58472
360.1493, 9.271484
360.6314, 12.34790
361.1135, 32.80005
361.5956, 50.25391
362.0777, 52.78711
362.5598, 43.41772
363.0420, 32.36377
363.5241, 12.91724
364.0062, 3.269043
364.4883, 12.06519
364.9704, 26.25195
365.4525, 35.43286
365.9347, 37.22168
366.4168, 35.45361
366.8989, 32.75293
367.3810, 28.76025
367.8631, 29.85693
368.3452, 38.24414
368.8274, 49.84082
369.3095, 68.02905
369.7916, 87.71313
370.2737, 96.24072
370.7558, 81.72656
371.2379, 57.60327
371.7201, 48.39551
372.2022, 55.91919
372.6843, 60.86450
373.1664, 53.61353
373.6485, 39.92505
374.1306, 27.85425
374.6128, 16.59204
375.0949, 10.72534
375.5770, 15.93750
376.0591, 27.73047
376.5412, 38.63354
377.0233, 47.68384
377.5055, 51.14893
377.9876, 41.96997
378.4697, 18.32690
378.9518, 8.062988
379.4339, 19.25708
379.9160, 36.97339
380.3982, 59.28345
380.8803, 81.33740
381.3624, 90.68579
381.8445, 79.68530
382.3266, 54.74927
382.8087, 34.86572
383.2909, 15.94116
383.7730, 9.030273
384.2551, 22.90723
384.7372, 42.87524
385.2193, 60.96753
385.7014, 73.63745
386.1836, 75.53711
386.6657, 57.10352
387.1478, 16.10864
387.6299, 4.660889
388.1120, 11.71484
388.5941, 29.77222
389.0763, 41.77734
389.5584, 46.92822
390.0405, 42.97852
390.5226, 26.75854
391.0047, 7.630371
391.4868, 0.3356930
391.9690, 5.696533
392.4511, 15.92334
392.9332, 34.69019
393.4153, 52.35522
393.8974, 58.80640
394.3795, 54.09424
394.8617, 48.71167
395.3438, 46.11548
395.8259, 46.68408
396.3080, 54.17114
396.7901, 69.57886
397.2722, 79.09912
397.7544, 70.39136
398.2365, 47.31763
398.7186, 32.26147
399.2007, 27.80176
399.6828, 27.41650
400.1649, 35.46362
400.6471, 46.09302
401.1292, 45.60278
401.6113, 29.27441
402.0934, 10.77515
402.5755, 10.77490
403.0576, 36.89624
403.5398, 58.96240
404.0219, 83.71948
404.5040, 99.09985
404.9861, 95.28491
405.4682, 76.82104
405.9503, 54.27222
406.4325, 33.46680
406.9146, 15.46997
407.3967, 4.363037
407.8788, 0.6916500
408.3609, 3.233643
408.8430, 20.68896
409.3252, 37.90088
409.8073, 39.49219
410.2894, 24.26465
410.7715, 9.921875
411.2536, 16.52173
411.7357, 38.61865
412.2179, 46.11499
412.7000, 31.66577
413.1821, 15.58130
413.6642, 10.92578
414.1463, 14.73291
414.6284, 22.91748
415.1106, 39.85083
415.5927, 54.73486
416.0748, 58.02783
416.5569, 52.64893
417.0390, 46.92896
417.5211, 43.23022
418.0033, 42.03955
418.4854, 44.83447
418.9675, 53.82373
419.4496, 59.05518
419.9317, 58.97021
420.4138, 55.98364
420.8960, 46.18872
421.3781, 34.14233
421.8602, 35.53027
422.3423, 63.26538
422.8244, 106.2317
423.3065, 114.8545
423.7887, 53.11523
424.2708, 12.00391
424.7529, 11.53320
425.2350, 26.52319
425.7171, 38.86011
426.1992, 44.85669
426.6814, 48.47266
427.1635, 54.97681
427.6456, 63.60229
428.1277, 63.48438
428.6098, 49.90088
429.0919, 36.61597
429.5741, 26.85742
430.0562, 22.80713
430.5383, 31.46606
431.0204, 63.17993
431.5025, 89.04077
431.9846, 73.78589
432.4668, 30.83740
432.9489, 11.92065
433.4310, 34.93945
433.9131, 69.16479
434.3952, 77.23071
434.8773, 55.78223
435.3595, 42.10327
435.8416, 46.06470
436.3237, 51.17822
436.8058, 44.57520
437.2879, 30.70654
437.7701, 23.31616
438.2522, 30.01367
438.7343, 43.63989
439.2164, 45.53613
439.6985, 26.34399
440.1806, 11.86646
440.6628, 0.3933110
441.1449, 5.653076
441.6270, 2.338623
442.1091, 20.60767
442.5912, 36.87061
443.0733, 40.22168
443.5555, 34.91064
444.0376, 39.20361
444.5197, 58.53491
445.0018, 72.21753
445.4839, 67.83911
445.9660, 56.13916
446.4482, 46.37524
446.9303, 39.71606
447.4124, 34.96289
447.8945, 28.63135
448.3766, 24.37769
448.8587, 33.96118
449.3409, 60.59009
449.8230, 80.87622
450.3051, 72.30737
450.7872, 39.02344
451.2693, 24.55615
451.7514, 47.74097
452.2336, 66.31519
452.7157, 61.82910
453.1978, 46.07080
453.6799, 35.37891
454.1620, 34.52588
454.6441, 37.96069
455.1263, 38.21069
455.6084, 33.90723
456.0905, 34.17896
456.5726, 52.07056
457.0547, 60.99658
457.5368, 41.85425
458.0190, 11.30078
458.5011, 1.721924
458.9832, 17.34961
459.4653, 46.92334
459.9474, 54.89209
460.4295, 40.92261
460.9117, 28.85571
461.3938, 22.24683
461.8759, 20.18628
462.3580, 23.59277
462.8401, 31.30933
463.3222, 37.32886
463.8044, 34.94116
464.2865, 34.02954
464.7686, 50.34717
465.2507, 77.96948
465.7328, 91.55029
466.2149, 78.63330
466.6971, 51.82446
467.1792, 34.41309
467.6613, 26.83081
468.1434, 24.63843
468.6255, 32.46558
469.1076, 41.74951
469.5898, 50.24146
470.0719, 55.93945
470.5540, 54.79175
471.0361, 43.08911
471.5182, 24.93970
472.0003, 13.99536
472.4825, 12.74438
472.9646, 12.14502
473.4467, 10.38501
473.9288, 8.671143
474.4109, 6.630371
474.8930, 4.780273
475.3752, 6.437744
475.8573, 17.51709
476.3394, 31.72974
476.8215, 36.75757
477.3036, 32.16016
477.7857, 29.89209
478.2679, 38.81836
478.7500, 51.53540
479.2321, 48.11768
479.7142, 20.69116
480.1963, 0.3901370
480.6784, 8.123779
481.1606, 7.895020
481.6427, 3.102539
482.1248, 5.130127
482.6069, 15.88257
483.0890, 29.60449
483.5711, 44.76050
484.0533, 54.28418
484.5354, 54.00854
485.0175, 54.41064
485.4996, 60.95508
485.9817, 66.15527
486.4638, 61.28027
486.9460, 46.90356
487.4281, 34.81567
487.9102, 39.50610
488.3923, 53.28540
488.8744, 48.49878
489.3565, 20.39551
489.8387, 0.8000490
490.3208, 10.84058
490.8029, 37.23047
491.2850, 51.39209
491.7671, 49.50000
492.2492, 45.95605
492.7314, 45.25854
493.2135, 45.74707
493.6956, 45.02612
494.1777, 43.15991
494.6598, 43.14526
495.1419, 48.00269
495.6241, 56.28369
496.1062, 58.64600
496.5883, 53.85718
497.0704, 44.24731
497.5525, 21.60181
498.0346, 0.2080080
498.5168, 7.030518
498.9989, 0.6406250
499.4810, 14.35303
499.9631, 29.08936
500.4452, 42.17139
500.9273, 40.91040
501.4095, 20.08960
501.8916, 7.757080
502.3737, 23.35352
502.8558, 50.38672
503.3379, 63.12964
503.8200, 59.28467
504.3022, 48.67969
504.7843, 25.79004
505.2664, 3.390381
505.7485, 7.1044996E-02
506.2306, 14.61182
506.7127, 28.73511
507.1949, 30.02026
507.6770, 21.36694
508.1591, 15.35034
508.6412, 11.38623
509.1233, 11.25464
509.6054, 18.44214
510.0876, 26.67261
510.5697, 31.48242
511.0518, 32.77612
511.5339, 33.09253
512.0161, 35.16211
512.4982, 36.96411
512.9803, 30.18701
513.4624, 12.28687
513.9445, 2.304443
514.4266, 12.93188
514.9088, 29.53223
515.3909, 31.53809
515.8730, 17.93701
516.3551, 7.712646
516.8372, 5.456055
517.3193, 9.824219
517.8015, 24.72681
518.2836, 45.99048
518.7657, 58.62256
519.2478, 54.16260
519.7299, 38.36890
520.2120, 24.33447
520.6942, 9.224609
521.1763, 1.598389
521.6584, 6.782715
522.1405, 13.81055
522.6226, 19.03540
523.1047, 20.77588
523.5869, 14.53979
524.0690, 5.194336
524.5511, 26.91602
525.0332, 30.79614
525.5153, 16.79297
525.9974, 1.374512
526.4796, 14.35767
526.9617, 25.81982
527.4438, 22.88574
527.9259, 7.928955
528.4080, 4.055420
528.8901, 27.06250
529.3723, 49.58813
529.8544, 54.00610
530.3365, 46.55688
530.8186, 39.46362
531.3007, 36.91528
531.7828, 36.37500
532.2650, 34.47021
532.7471, 31.06958
533.2292, 27.00879
533.7113, 20.33765
534.1934, 16.09351
534.6755, 16.67749
535.1577, 20.12354
535.6398, 22.74829
536.1219, 23.39575
536.6040, 24.13159
537.0861, 25.64404
537.5682, 28.70947
538.0504, 39.31226
538.5325, 59.89380
539.0146, 71.46704
539.4967, 56.65234
539.9788, 22.17456
540.4609, 1.365234
540.9431, 1.958740
541.4252, 1.118164
541.9073, 14.59204
542.3894, 29.48608
542.8715, 37.08887
543.3536, 36.87646
543.8358, 33.32886
544.3179, 29.30884
544.8000, 25.44580
545.2821, 24.48657
545.7642, 26.54175
546.2463, 31.35449
546.7285, 46.36938
547.2106, 58.32935
547.6927, 53.30005
548.1748, 32.99316
548.6569, 18.13501
549.1390, 27.03540
549.6211, 41.18872
550.1032, 37.41479
550.5853, 19.42700
551.0674, 4.224121
551.5496, 1.427002
552.0317, 0.8063960
552.5138, 10.41699
552.9959, 32.56860
553.4780, 45.82617
553.9601, 45.87817
554.4423, 43.07837
554.9244, 42.56445
555.4065, 41.64697
555.8886, 33.05981
556.3707, 13.44604
556.8528, 3.397461
557.3350, 3.412842
557.8171, 29.34326
558.2992, 42.36523
558.7813, 37.88647
559.2634, 29.26807
559.7455, 24.51050
560.2277, 22.59692
560.7098, 20.67725
561.1919, 19.74536
561.6740, 18.85913
562.1561, 15.29126
562.6382, 13.08545
563.1204, 18.73730
563.6025, 31.02612
564.0846, 41.49292
564.5667, 43.22388
565.0488, 38.69165
565.5309, 38.05835
566.0131, 43.74438
566.4952, 47.21606
566.9773, 46.07495
567.4594, 42.93921
567.9415, 36.57129
568.4236, 28.82861
568.9058, 27.36230
569.3879, 42.39966
569.8700, 58.81836
570.3521, 59.66016
570.8342, 48.71094
571.3163, 39.26660
571.7985, 35.26855
572.2806, 32.57739
572.7627, 23.73242
573.2448, 6.155029
573.7269, 7.120850
574.2090, 51.27759
574.6912, 83.38086
575.1733, 83.25269
575.6554, 68.33057
576.1375, 56.90259
576.6196, 53.54468
577.1017, 54.53564
577.5839, 60.78101
578.0660, 68.02979
578.5481, 58.14868
579.0302, 27.52881
579.5123, 10.24463
579.9944, 29.46558
580.4766, 63.90210
580.9587, 68.71533
581.4408, 34.60132
581.9229, 14.67749
582.4050, 30.19092
582.8871, 49.59277
583.3693, 52.18018
583.8514, 42.51587
584.3335, 32.81152
584.8156, 28.43018
585.2977, 27.65137
585.7798, 30.33179
586.2620, 37.31567
586.7441, 38.18188
587.2262, 27.87769
587.7083, 18.06494
588.1904, 15.86499
588.6725, 18.37622
589.1547, 22.10132
589.6368, 29.05762
590.1189, 30.61108
590.6010, 14.08472
591.0831, 5.578125
591.5652, 5.576904
592.0474, 12.73462
592.5295, 28.73340
593.0116, 28.26465
593.4937, 17.11987
593.9758, 13.70728
594.4579, 22.72339
594.9401, 28.33789
595.4222, 29.55835
595.9043, 26.66260
596.3864, 15.28442
596.8685, 7.8856997E-02
597.3506, 8.232910
597.8328, 2.999023
598.3149, 6.160156
598.7970, 14.06201
599.2791, 20.08252
599.7612, 20.77368
600.2433, 15.11914
600.7255, 8.628662
601.2076, 5.804688
601.6897, 6.427490
602.1718, 8.737793
602.6539, 15.20508
603.1360, 19.94702
603.6182, 25.78955
604.1003, 27.26660
604.5824, 14.36548
605.0645, 8.049072
605.5466, 20.34570
606.0287, 6.759766
606.5109, 16.66284
606.9930, 27.21362
607.4751, 25.82471
607.9572, 18.52637
608.4393, 4.503662
608.9214, 6.782227
609.4036, 3.696045
609.8857, 14.28076
610.3678, 25.13647
610.8499, 21.24438
611.3320, 20.14111
611.8141, 31.31274
612.2963, 43.87646
612.7784, 46.96094
613.2605, 39.46680
613.7426, 26.08936
614.2247, 6.132324
614.7068, 14.58789
615.1890, 15.02026
615.6711, 6.315430
616.1532, 17.49976
616.6353, 5.092773
617.1174, 12.84277
617.5995, 15.20288
618.0817, 1.573975
618.5638, 8.303467
619.0459, 13.31567
619.5280, 14.91943
620.0101, 8.726807
620.4922, 1.818115
620.9744, 6.312500
621.4565, 22.38696
621.9386, 34.98389
622.4207, 27.82690
622.9028, 7.642090
623.3849, 1.777100
623.8671, 12.37305
624.3492, 25.28833
624.8313, 38.50952
625.3134, 49.74731
625.7955, 57.98779
626.2776, 63.33813
626.7598, 57.93799
627.2419, 23.69580
627.7240, 3.098145
628.2061, 0.8850100
628.6882, 22.03931
629.1703, 45.50391
629.6525, 64.96729
630.1346, 70.30981
630.6167, 44.52344
631.0988, 3.225586
631.5809, 14.34497
632.0630, 23.46436
632.5452, 50.95337
633.0273, 46.53125
633.5094, 27.89478
633.9915, 9.444092
634.4736, 8.354004
634.9557, 10.67041
635.4379, 24.71313
635.9200, 56.11987
636.4021, 54.28271
636.8842, 35.27734
637.3663, 24.21558
637.8484, 27.76001
638.3306, 36.20557
638.8127, 40.68115
639.2948, 41.79858
639.7769, 44.44995
640.2590, 51.97729
640.7411, 49.58618
641.2233, 23.58105
641.7054, 4.878418
642.1875, 12.05542
642.6696, 0.2404790
643.1517, 10.29150
643.6339, 11.03833
644.1160, 11.21484
644.5981, 17.11499
645.0802, 24.95728
645.5623, 27.62988
646.0444, 24.35059
646.5266, 22.00781
647.0087, 27.88501
647.4908, 39.43579
647.9729, 42.90625
648.4550, 34.50293
648.9371, 33.33765
649.4193, 54.47510
649.9014, 75.86060
650.3835, 70.86670
650.8656, 43.63452
651.3477, 23.40161
651.8298, 13.42529
652.3120, 13.20996
652.7941, 30.79102
653.2762, 53.89453
653.7583, 65.86865
654.2404, 64.62256
654.7225, 58.50562
655.2047, 53.82642
655.6868, 51.10376
656.1689, 49.19067
656.6510, 47.21191
657.1331, 49.04932
657.6152, 57.21118
658.0974, 66.96875
658.5795, 75.38867
659.0616, 82.09570
659.5437, 84.83032
660.0258, 85.42065
660.5079, 79.52148
660.9901, 55.76514
661.4722, 31.09229
661.9543, 26.77954
662.4364, 40.93677
662.9185, 53.80420
663.4006, 52.57666
663.8828, 43.96436
664.3649, 38.83008
664.8470, 36.75342
665.3291, 31.24683
665.8112, 16.99829
666.2933, 9.891846
666.7755, 27.15039
667.2576, 61.77563
667.7397, 79.85229
668.2218, 70.61450
668.7039, 61.71387
669.1860, 56.99414
669.6682, 55.74341
670.1503, 60.82007
670.6324, 68.74023
671.1145, 69.96216
671.5966, 58.98047
672.0787, 45.30469
672.5609, 42.60352
673.0430, 49.90381
673.5251, 55.32593
674.0072, 56.56616
674.4893, 57.09058
674.9714, 58.63110
675.4536, 60.46631
675.9357, 59.78540
676.4178, 51.80591
676.8999, 49.76758
677.3820, 57.18213
677.8641, 67.38477
678.3463, 80.92188
678.8284, 93.47583
679.3105, 98.11426
679.7926, 92.63696
680.2747, 82.92700
680.7568, 73.80127
681.2390, 64.75879
681.7211, 52.76855
682.2032, 38.23560
682.6853, 29.60522
683.1674, 30.91895
683.6495, 38.65332
684.1317, 47.64893
684.6138, 57.93164
685.0959, 69.23145
685.5780, 86.93237
686.0601, 99.24121
686.5422, 103.0698
687.0244, 100.1350
687.5065, 89.04419
687.9886, 71.02808
688.4707, 57.43359
688.9528, 53.33740
689.4349, 57.53442
689.9171, 77.44580
690.3992, 105.1731
690.8813, 116.6501
691.3634, 105.6550
691.8455, 89.49731
692.3276, 85.61890
692.8098, 92.36963
693.2919, 94.04663
693.7740, 86.12598
694.2561, 82.35791
694.7382, 89.42017
695.2203, 97.70264
695.7025, 98.41724
696.1846, 94.40161
696.6667, 97.13354
697.1488, 117.3662
697.6309, 133.0098
698.1130, 130.5547
698.5952, 117.8135
699.0773, 98.08813
699.5594, 76.48828
700.0415, 69.93237
700.5236, 91.33838
701.0057, 123.3589
701.4879, 127.6289
701.9700, 102.4082
702.4521, 86.51465
702.9342, 84.68994
703.4163, 89.12720
703.8984, 98.29517
704.3806, 109.4270
704.8627, 115.6814
705.3448, 115.2341
705.8269, 115.5557
706.3090, 120.1892
706.7911, 123.3506
707.2733, 119.1875
707.7554, 111.9546
708.2375, 109.4243
708.7196, 113.7778
709.2017, 119.6204
709.6838, 123.2124
710.1660, 124.0757
710.6481, 117.4519
711.1302, 104.2356
711.6123, 103.2607
712.0944, 124.3774
712.5765, 146.3445
713.0587, 140.6423
713.5408, 105.3730
714.0229, 82.85571
714.5050, 77.04761
714.9871, 79.33276
715.4692, 95.89380
715.9514, 113.9661
716.4335, 122.4988
716.9156, 122.5601
717.3977, 123.3027
717.8798, 131.3657
718.3619, 137.0371
718.8441, 129.3467
719.3262, 115.2769
719.8083, 105.8569
720.2904, 102.8105
720.7725, 104.4658
721.2546, 110.4880
721.7368, 118.4409
722.2189, 122.6067
722.7010, 122.5854
723.1831, 124.3447
723.6652, 130.8672
724.1473, 134.0278
724.6295, 125.6030
725.1116, 112.1926
725.5937, 108.3486
726.0758, 118.3586
726.5579, 123.1006
727.0400, 113.1135
727.5222, 103.0210
728.0043, 103.1138
728.4864, 108.4087
728.9685, 109.7593
729.4506, 104.9775
729.9327, 99.80078
730.4149, 97.93164
730.8970, 99.98340
731.3791, 110.3181
731.8612, 127.5933
732.3433, 139.6562
732.8254, 143.3572
733.3076, 137.6785
733.7897, 118.4976
734.2718, 87.99585
734.7539, 75.03857
735.2360, 95.79980
735.7181, 106.9568
736.2003, 93.97705
736.6824, 79.30078
737.1645, 75.87207
737.6466, 82.00220
738.1287, 92.28394
738.6108, 109.0000
739.0930, 120.5422
739.5751, 116.7261
740.0572, 106.7107
740.5393, 98.76099
741.0214, 94.56689
741.5035, 96.89331
741.9857, 107.1082
742.4678, 117.9663
742.9499, 117.7510
743.4320, 107.4404
743.9141, 102.0354
744.3962, 102.3254
744.8784, 102.8574
745.3605, 103.1953
745.8426, 101.8325
746.3247, 93.25586
746.8068, 74.68018
747.2889, 70.70679
747.7711, 98.65942
748.2532, 117.9629
748.7353, 113.6021
749.2174, 100.7615
749.6995, 93.31006
750.1816, 91.20532
750.6638, 86.54565
751.1459, 72.80859
751.6280, 61.95410
752.1101, 68.39990
752.5922, 83.58228
753.0743, 92.55469
753.5565, 93.78809
754.0386, 90.66016
754.5207, 84.71411
755.0028, 76.92651
755.4849, 67.59644
755.9670, 55.66260
756.4492, 52.97339
756.9313, 63.62622
757.4134, 74.00342
757.8955, 80.75781
758.3776, 82.12817
758.8597, 74.23486
759.3419, 56.06885
759.8240, 41.75757
760.3061, 31.41333
760.7882, 26.48706
761.2703, 30.85205
761.7524, 38.27710
762.2346, 41.57812
762.7167, 41.02832
763.1988, 43.29590
763.6809, 54.23608
764.1630, 65.93530
764.6451, 70.95801
765.1273, 69.49756
765.6094, 58.07129
766.0915, 37.42554
766.5736, 21.49072
767.0557, 19.31030
767.5378, 24.63525
768.0200, 23.18164
768.5021, 12.87451
768.9842, 8.079102
769.4663, 10.48413
769.9484, 15.27686
770.4305, 20.77295
770.9127, 27.32227
771.3948, 36.25220
771.8769, 47.93530
772.3590, 56.75586
772.8411, 63.29321
773.3232, 65.32080
773.8054, 58.26123
774.2875, 48.71729
774.7696, 44.30371
775.2517, 44.75049
775.7338, 44.19312
776.2159, 39.48804
776.6981, 32.05566
777.1802, 21.94751
777.6623, 10.66357
778.1444, 0.5798340
778.6265, 10.49854
779.1086, 9.880127
779.5908, 7.652588
780.0729, 30.03052
780.5550, 32.02832
781.0371, 10.32495
781.5192, 3.610596
782.0013, 18.96289
782.4835, 30.08521
782.9656, 24.26514
783.4477, 12.03784
783.9298, 6.580078
784.4119, 8.008057
784.8940, 9.778564
785.3762, 10.76758
785.8583, 13.19336
786.3404, 20.98071
786.8225, 27.81885
787.3046, 26.85107
787.7867, 19.89307
788.2689, 14.55029
788.7510, 14.59155
789.2331, 15.22607
789.7152, 10.21826
790.1973, 4.130615
790.6794, 4.961670
791.1616, 12.06714
791.6437, 20.73047
792.1258, 28.87573
792.6079, 34.68018
793.0900, 34.84961
793.5721, 30.12036
794.0543, 27.29199
794.5364, 26.01978
795.0185, 30.04492
795.5006, 44.22290
795.9827, 55.80737
796.4648, 50.51343
796.9470, 30.25537
797.4291, 15.92993
797.9112, 8.738281
798.3933, 6.063477
798.8754, 12.23828
799.3575, 18.57275
799.8397, 22.89355
800.3218, 22.83350
800.8039, 11.48804
801.2860, 15.51831
801.7681, 33.41772
802.2502, 19.88940
802.7324, 0.5473630
803.2145, 0.7221680
803.6966, 11.95190
804.1787, 16.01001
804.6608, 8.824463
805.1429, 1.429688
805.6251, 9.487549
806.1072, 13.73999
806.5893, 7.656494
807.0714, 6.834717
807.5535, 13.69849
808.0356, 9.773926
808.5178, 6.205566
808.9999, 11.18384
809.4820, 19.86523
809.9641, 19.37915
810.4462, 6.466797
810.9283, 3.878418
811.4105, 12.36377
811.8926, 17.10474
812.3747, 12.29150
812.8568, 6.711914
813.3389, 14.18848
813.8210, 34.61572
814.3032, 42.54297
814.7853, 19.04980
815.2674, 1.858887
815.7495, 11.71655
816.2316, 27.33228
816.7137, 28.08545
817.1959, 16.52466
817.6780, 6.404053
818.1601, 2.881348
818.6422, 4.819092
819.1243, 15.55200
819.6064, 28.67261
820.0886, 34.80859
820.5707, 34.09277
821.0528, 28.15527
821.5349, 17.85107
822.0170, 7.772949
822.4991, 1.928711
822.9813, 0.8771970
823.4634, 10.30469
823.9455, 31.26782
824.4276, 40.16064
824.9097, 28.42505
825.3918, 19.40137
825.8740, 33.73486
826.3561, 61.95752
826.8382, 70.80322
827.3203, 45.32227
827.8024, 34.88745
828.2845, 49.25195
828.7667, 67.05200
829.2488, 89.01685
829.7309, 105.4893
830.2130, 100.0034
830.6951, 72.00732
831.1772, 52.84644
831.6594, 60.25928
832.1415, 65.33521
832.6236, 45.80615
833.1057, 25.13232
833.5878, 35.07739
834.0699, 66.65796
834.5521, 81.56665
835.0342, 59.86182
835.5163, 33.68384
835.9984, 36.29248
836.4805, 51.89624
836.9626, 56.30835
837.4448, 50.49927
837.9269, 41.41626
838.4090, 31.91357
838.8911, 25.35107
839.3732, 25.86035
839.8553, 31.57715
840.3375, 38.16626
840.8196, 46.08203
841.3017, 55.32275
841.7838, 66.51367
842.2659, 73.68579
842.7480, 74.10596
843.2302, 69.69531
843.7123, 64.53760
844.1944, 57.80029
844.6765, 53.06909
845.1586, 52.85352
845.6407, 50.94824
846.1229, 39.94238
846.6050, 30.01074
847.0871, 34.97852
847.5692, 53.12866
848.0513, 61.58105
848.5334, 45.75854
849.0156, 35.44702
849.4977, 43.95654
849.9798, 56.19019
850.4619, 60.37500
850.9440, 58.93286
851.4261, 59.71973
851.9083, 65.38647
852.3904, 69.34473
852.8725, 64.92725
853.3546, 58.75854
853.8367, 57.83594
854.3188, 60.64136
854.8010, 65.70776
855.2831, 70.97852
855.7652, 69.70215
856.2473, 55.44580
856.7294, 40.16821
857.2115, 49.52637
857.6937, 76.95801
858.1758, 92.52881
858.6579, 93.51758
859.1400, 89.85522
859.6221, 86.86377
860.1042, 82.06348
860.5864, 66.83472
861.0685, 41.06934
861.5506, 33.85425
862.0327, 51.45947
862.5148, 65.17725
862.9969, 66.49878
863.4791, 67.02002
863.9612, 77.12573
864.4433, 93.76294
864.9254, 105.0864
865.4075, 110.5715
865.8896, 112.8867
866.3718, 107.9846
866.8539, 104.3669
867.3360, 111.4365
867.8181, 117.6587
868.3002, 106.1179
868.7823, 77.45410
869.2645, 57.20679
869.7466, 57.77466
870.2287, 61.48950
870.7108, 60.74805
871.1929, 57.94678
871.6750, 58.59692
872.1572, 60.71558
872.6393, 56.88940
873.1214, 43.93896
873.6035, 35.18921
874.0856, 41.85645
874.5677, 55.76367
875.0499, 73.76904
875.5320, 89.76660
876.0141, 88.19287
876.4962, 69.72144
876.9783, 54.50928
877.4604, 56.91138
877.9426, 65.53418
878.4247, 62.27368
878.9068, 49.69385
879.3889, 33.24316
879.8710, 14.73291
880.3531, 11.22681
880.8353, 30.67651
881.3174, 55.41235
881.7995, 63.75317
882.2816, 58.16211
882.7637, 53.17773
883.2458, 48.81665
883.7280, 43.27368
884.2101, 34.11987
884.6922, 32.02515
885.1743, 48.83813
885.6564, 71.44312
886.1385, 68.86694
886.6207, 32.05151
887.1028, 11.13477
887.5849, 13.32056
888.0670, 19.89429
888.5491, 26.58521
889.0313, 35.28564
889.5134, 54.00659
889.9955, 77.53101
890.4776, 81.04517
890.9597, 47.71240
891.4418, 21.64331
891.9240, 8.746826
892.4061, 4.557129
892.8882, 10.96191
893.3703, 21.86816
893.8524, 31.54492
894.3345, 38.64087
894.8167, 39.74365
895.2988, 30.12280
895.7809, 18.24683
896.2630, 4.396484
896.7451, 6.212891
897.2272, 4.693848
897.7094, 4.142334
898.1915, 5.892578
898.6736, 4.637695
899.1557, 11.79077
899.6378, 3.976318
900.1199, 24.39746
900.6021, 23.97070
901.0842, 11.50220
901.5663, 6.077393
902.0484, 10.67651
902.5305, 18.34277
903.0126, 25.06055
903.4948, 30.17969
903.9769, 33.30151
904.4590, 33.89404
904.9411, 28.39941
905.4232, 17.91577
905.9053, 10.55859
906.3875, 9.009766
906.8696, 11.33252
907.3517, 16.20215
907.8338, 22.75684
908.3159, 27.40698
908.7980, 30.16089
909.2802, 35.63159
909.7623, 45.45068
910.2444, 48.12036
910.7265, 36.91235
911.2086, 19.19238
911.6907, 4.212891
912.1729, 7.903564
912.6550, 9.888428
913.1371, 0.7824710
913.6192, 14.69727
914.1013, 35.93872
914.5834, 48.83008
915.0656, 37.99194
915.5477, 15.16846
916.0298, 8.350098
916.5119, 23.81982
916.9940, 31.85547
917.4761, 29.27930
917.9583, 23.77051
918.4404, 12.77783
918.9225, 3.593018
919.4046, 1.686523
919.8867, 5.935303
920.3688, 11.81738
920.8510, 22.39233
921.3331, 27.08301
921.8152, 18.19385
922.2973, 10.30566
922.7794, 11.14551
923.2615, 16.01660
923.7437, 19.84033
924.2258, 22.55981
924.7079, 23.87622
925.1900, 24.51367
925.6721, 24.50928
926.1542, 27.29980
926.6364, 26.24365
927.1185, 8.639160
927.6006, 13.62183
928.0827, 18.07495
928.5648, 1.105713
929.0469, 16.51123
929.5291, 21.14404
930.0112, 24.58252
930.4933, 41.43384
930.9754, 58.34082
931.4575, 53.18213
931.9396, 33.42798
932.4218, 25.72705
932.9039, 39.40063
933.3860, 53.19775
933.8681, 46.08887
934.3502, 30.51367
934.8323, 26.16162
935.3145, 28.07251
935.7966, 25.16968
936.2787, 16.89941
936.7608, 9.587158
937.2429, 6.492432
937.7250, 6.248047
938.2072, 9.517822
938.6893, 13.74072
939.1714, 9.378418
939.6535, 0.1037600
940.1356, 1.383301
940.6177, 16.39185
941.0999, 32.39136
941.5820, 41.04224
942.0641, 43.19238
942.5462, 38.13354
943.0283, 27.75977
943.5104, 21.06396
943.9926, 18.27368
944.4747, 19.09839
944.9568, 23.49951
945.4389, 29.88159
945.9210, 37.64819
946.4031, 44.04419
946.8853, 36.84546
947.3674, 16.20288
947.8495, 18.71924
948.3316, 49.83105
948.8137, 64.48779
949.2958, 41.66626
949.7780, 14.45020
950.2601, 21.87744
950.7422, 55.82471
951.2243, 69.78369
951.7064, 59.26904
952.1885, 60.56445
952.6707, 83.26807
953.1528, 91.95703
953.6349, 64.44312
954.1170, 27.06006
954.5991, 16.20190
955.0812, 30.90820
955.5634, 35.51245
956.0455, 22.96924
956.5276, 20.49268
957.0097, 36.68896
957.4918, 54.52441
957.9739, 66.27271
958.4561, 69.65430
958.9382, 58.53198
959.4203, 30.96680
959.9024, 15.67407
960.3845, 16.49121
960.8666, 22.56470
961.3488, 38.40234
961.8309, 50.56396
962.3130, 49.94043
962.7951, 40.51367
963.2772, 27.30664
963.7593, 6.081055
964.2415, 3.989990
964.7236, 45.02637
965.2057, 70.41626
965.6878, 56.76392
966.1699, 37.75684
966.6520, 36.03101
967.1342, 44.50171
967.6163, 46.22949
968.0984, 37.89819
968.5805, 34.41577
969.0626, 40.94043
969.5447, 46.30371
970.0269, 47.01855
970.5090, 45.78809
970.9911, 43.61816
971.4732, 41.39526
971.9553, 43.18384
972.4374, 52.01587
972.9196, 55.07349
973.4017, 47.04858
973.8838, 37.40796
974.3659, 29.56909
974.8480, 21.71509
975.3301, 9.588379
975.8123, 3.899902
976.2944, 9.500000
976.7765, 4.599121
977.2586, 4.152588
977.7407, 20.48169
978.2228, 34.14087
978.7050, 40.83960
979.1871, 42.53247
979.6692, 41.45605
980.1513, 37.24463
980.6334, 26.26465
981.1155, 1.940674
981.5977, 10.84839
982.0798, 4.109619
982.5619, 22.08105
983.0440, 31.16406
983.5261, 36.25122
984.0082, 43.36353
984.4904, 51.98413
984.9725, 57.67139
985.4546, 57.58667
985.9367, 56.62598
986.4188, 63.07104
986.9009, 63.55151
987.3831, 39.73462
987.8652, 12.86279
988.3473, 11.95996
988.8294, 33.00171
989.3115, 48.06396
989.7936, 49.81128
990.2758, 41.66553
990.7579, 7.781982
991.2400, 16.61694
991.7221, 0.3879390
992.2042, 33.67383
992.6863, 55.12988
993.1685, 61.83789
993.6506, 60.41992
994.1327, 49.75928
994.6148, 40.75854
995.0969, 42.02563
995.5790, 42.60815
996.0612, 33.13013
996.5433, 19.94434
997.0254, 9.357910
997.5075, 2.697754
997.9896, 3.200684
998.4717, 14.15894
998.9539, 26.06787
999.4360, 38.98218
999.9181, 46.59790
1000.400, 35.04443
1000.882, 21.43164
1001.364, 34.67261
1001.847, 68.56543
1002.329, 84.46973
1002.811, 64.42603
1003.293, 39.98120
1003.775, 20.11353
1004.257, 7.127930
1004.739, 6.458496
1005.221, 11.14282
1005.703, 12.90381
1006.186, 11.70215
1006.668, 11.88794
1007.150, 15.50879
1007.632, 18.36572
1008.114, 19.73975
1008.596, 18.91748
1009.078, 12.02222
1009.560, 4.757324
1010.043, 5.990967
1010.525, 13.50464
1011.007, 15.19312
1011.489, 4.638916
1011.971, 1.835938
1012.453, 6.133301
1012.935, 18.09399
1013.417, 31.00000
1013.899, 41.75024
1014.382, 45.97998
1014.864, 44.14136
1015.346, 38.12598
1015.828, 26.56177
1016.310, 19.26221
1016.792, 25.38867
1017.274, 30.31567
1017.756, 18.52881
1018.239, 7.607178
1018.721, 22.35498
1019.203, 53.83765
1019.685, 69.97339
1020.167, 58.74194
1020.649, 49.93750
1021.131, 62.03882
1021.613, 70.31592
1022.095, 53.78662
1022.578, 36.41333
1023.060, 47.44873
1023.542, 75.14844
1024.024, 84.14648
1024.506, 64.17114
1024.988, 51.12012
1025.470, 62.79028
1025.952, 71.51294
1026.435, 60.76025
1026.917, 48.99268
1027.399, 56.87817
1027.881, 73.53296
1028.363, 72.49048
1028.845, 47.77026
1029.327, 28.09839
1029.809, 17.57520
1030.292, 14.22656
1030.774, 21.51147
1031.256, 31.83691
1031.738, 42.55981
1032.220, 51.67700
1032.702, 56.56006
1033.184, 57.06812
1033.666, 52.29419
1034.148, 34.91577
1034.630, 23.07959
1035.113, 23.85254
1035.595, 25.90894
1036.077, 22.72803
1036.559, 17.17920
1037.041, 12.73145
1037.523, 9.354004
1038.005, 10.49463
1038.487, 19.02734
1038.970, 27.40552
1039.452, 40.65259
1039.934, 46.74097
1040.416, 32.64038
1040.898, 12.82544
1041.380, 7.100342
1041.862, 14.22925
1042.344, 20.10913
1042.826, 24.97607
1043.309, 27.73462
1043.791, 26.54175
1044.273, 26.70532
1044.755, 31.02051
1045.237, 36.36279
1045.719, 40.18896
1046.201, 42.28882
1046.683, 40.67017
1047.166, 32.99121
1047.648, 29.70850
1048.130, 32.85474
1048.612, 34.06470
1049.094, 28.78027
1049.576, 25.46167
1050.058, 29.49634
1050.540, 38.07544
1051.022, 44.42773
1051.505, 49.25000
1051.987, 51.32446
1052.469, 49.85498
1052.951, 40.68237
1053.433, 20.72607
1053.915, 3.017822
1054.397, 4.685547
1054.879, 1.727051
1055.361, 17.58276
1055.844, 50.21094
1056.326, 56.60181
1056.808, 36.98584
1057.290, 27.22363
1057.772, 33.44556
1058.254, 38.46143
1058.736, 32.88330
1059.218, 25.70117
1059.701, 29.04492
1060.183, 39.84570
1060.665, 50.67603
1061.147, 60.29102
1061.629, 55.01367
1062.111, 34.88623
1062.593, 29.30225
1063.075, 48.54468
1063.557, 66.27612
1064.040, 54.06250
1064.522, 30.64111
1065.004, 35.26758
1065.486, 53.88037
1065.968, 46.71338
1066.450, 20.75439
1066.932, 11.53491
1067.414, 26.70337
1067.896, 46.52393
1068.379, 60.76099
1068.861, 61.81885
1069.343, 25.15747
1069.825, 17.96216
1070.307, 18.19531
1070.789, 7.227539
1071.271, 20.49438
1071.753, 18.11255
1072.236, 19.96875
1072.718, 35.73340
1073.200, 52.05640
1073.682, 62.09521
1074.164, 65.62964
1074.646, 61.64453
1075.128, 51.82520
1075.610, 34.60400
1076.093, 13.96802
1076.575, 2.737061
1077.057, 13.84741
1077.539, 14.01489
1078.021, 13.50952
1078.503, 33.48389
1078.985, 15.11914
1079.467, 0.9245610
1079.949, 26.62598
1080.432, 71.15259
1080.914, 82.04419
1081.396, 55.26611
1081.878, 32.99170
1082.360, 20.50977
1082.842, 16.30371
1083.324, 27.63672
1083.806, 38.28955
1084.288, 40.58521
1084.771, 38.81958
1085.253, 37.01172
1085.735, 35.23413
1086.217, 33.34985
1086.699, 30.61279
1087.181, 29.82007
1087.663, 32.95142
1088.145, 33.77686
1088.628, 29.21606
1089.110, 24.83447
1089.592, 24.91284
1090.074, 27.49902
1090.556, 27.47388
1091.038, 24.40771
1091.520, 33.40869
1092.002, 58.21631
1092.484, 69.19653
1092.967, 59.93823
1093.449, 47.80835
1093.931, 41.16992
1094.413, 37.83643
1094.895, 35.37305
1095.377, 33.47998
1095.859, 32.47534
1096.341, 31.53027
1096.823, 19.99072
1097.306, 0.7490230
1097.788, 8.812012
1098.270, 2.176270
1098.752, 16.64746
1099.234, 22.28540
1099.716, 25.30127
1100.198, 39.81714
1100.680, 56.05737
1101.163, 48.47095
1101.645, 26.91895
1102.127, 18.02734
1102.609, 24.61328
1103.091, 35.45947
1103.573, 45.77612
1104.055, 51.05249
1104.537, 43.60303
1105.020, 33.63477
1105.502, 31.75732
1105.984, 31.76416
1106.466, 24.52295
1106.948, 13.11084
1107.430, 6.567139
1107.912, 6.531494
1108.394, 4.961914
1108.876, 7.836426
1109.359, 13.01538
1109.841, 4.457031
1110.323, 22.65503
1110.805, 29.11914
1111.287, 27.93774
1111.769, 22.37500
1112.251, 13.99902
1112.733, 9.974121
1113.215, 13.77051
1113.698, 14.04028
1114.180, 5.822021
1114.662, 1.408691
1115.144, 3.972900
1115.626, 10.65479
1116.108, 20.99316
1116.590, 32.89844
1117.072, 44.47925
1117.555, 55.84814
1118.037, 43.38892
1118.519, 2.410156
1119.001, 13.29224
1119.483, 25.27246
1119.965, 53.50049
1120.447, 44.41235
1120.929, 29.04688
1121.411, 40.26367
1121.894, 66.26025
1122.376, 77.64502
1122.858, 76.00684
1123.340, 65.65869
1123.822, 49.63770
1124.304, 42.82080
1124.786, 47.72314
1125.268, 54.81519
1125.750, 58.61938
1126.233, 61.74902
1126.715, 71.96289
1127.197, 78.97559
1127.679, 60.00195
1128.161, 32.54590
1128.643, 23.39355
1129.125, 29.62158
1129.607, 39.23096
1130.090, 48.72437
1130.572, 59.21069
1131.054, 75.30737
1131.536, 85.14478
1132.018, 81.80249
1132.500, 71.08862
1132.982, 47.12842
1133.464, 25.11182
1133.947, 28.24268
1134.429, 49.50000
1134.911, 56.57861
1135.393, 43.66357
1135.875, 27.56201
1136.357, 6.841309
1136.839, 21.44409
1137.321, 4.613281
1137.803, 30.84863
1138.286, 32.29102
1138.768, 22.18774
1139.250, 19.03345
1139.732, 22.59937
1140.214, 32.69458
1140.696, 51.49146
1141.178, 60.64893
1141.660, 58.69971
1142.142, 48.27515
1142.625, 29.49902
1143.107, 15.09985
1143.589, 15.39087
1144.071, 23.75098
1144.553, 29.85156
1145.035, 34.27759
1145.517, 37.80200
1145.999, 41.18311
1146.482, 50.23730
1146.964, 62.19849
1147.446, 61.10083
1147.928, 42.14795
1148.410, 26.61377
1148.892, 31.98999
1149.374, 44.15405
1149.856, 56.28076
1150.339, 63.51392
1150.821, 57.66528
1151.303, 45.62744
1151.785, 35.57617
1152.267, 29.62427
1152.749, 30.89478
1153.231, 43.75928
1153.713, 49.25610
1154.195, 36.43921
1154.677, 24.92798
1155.160, 17.62598
1155.642, 16.24463
1156.124, 26.81934
1156.606, 41.33960
1157.088, 49.15771
1157.570, 50.63086
1158.052, 50.41455
1158.534, 49.34106
1159.017, 39.86646
1159.499, 17.89185
1159.981, 13.21436
1160.463, 37.63696
1160.945, 56.22119
1161.427, 42.19873
1161.909, 15.11133
1162.391, 6.559326
1162.874, 12.55420
1163.356, 24.64795
1163.838, 39.24634
1164.320, 37.82812
1164.802, 23.92749
1165.284, 19.99194
1165.766, 32.31641
1166.248, 47.53784
1166.730, 59.34424
1167.213, 62.66187
1167.695, 48.07373
1168.177, 29.94189
1168.659, 21.60815
1169.141, 17.99609
1169.623, 8.707520
1170.105, 2.024658
1170.587, 1.831543
1171.069, 25.51855
1171.552, 44.31738
1172.034, 50.61011
1172.516, 58.48486
1172.998, 79.46069
1173.480, 88.19263
1173.962, 63.72681
1174.444, 36.94971
1174.926, 42.47192
1175.409, 69.76294
1175.891, 81.84375
1176.373, 76.76318
1176.855, 76.97900
1177.337, 81.67993
1177.819, 78.66284
1178.301, 65.77393
1178.783, 48.46143
1179.266, 29.30420
1179.748, 19.30469
1180.230, 34.80615
1180.712, 57.75171
1181.194, 56.30151
1181.676, 43.40015
1182.158, 37.55273
1182.640, 39.61060
1183.122, 53.85449
1183.604, 74.55835
1184.087, 76.76318
1184.569, 47.34204
1185.051, 28.27417
1185.533, 61.63013
1186.015, 87.83105
1186.497, 74.87549
1186.979, 54.51929
1187.461, 48.68774
1187.944, 49.14893
1188.426, 42.66113
1188.908, 30.64429
1189.390, 20.38818
1189.872, 8.254150
1190.354, 13.15332
1190.836, 40.99072
1191.318, 59.13037
1191.801, 59.44800
1192.283, 55.24268
1192.765, 53.43188
1193.247, 55.64111
1193.729, 65.72705
1194.211, 78.52612
1194.693, 79.91113
1195.175, 74.56934
1195.657, 74.78174
1196.140, 79.59619
1196.622, 86.01099
1197.104, 91.50269
1197.586, 87.18750
1198.068, 67.85010
1198.550, 52.08618
1199.032, 48.59302
1199.514, 55.19727
1199.996, 85.41797
1200.479, 110.0933
1200.961, 103.6370
1201.443, 78.56860
1201.925, 46.26074
1202.407, 12.75513
1202.889, 7.026367
1203.371, 40.90210
1203.853, 65.45923
1204.336, 80.36768
1204.818, 87.23901
1205.300, 86.77222
1205.782, 73.85083
1206.264, 43.21167
1206.746, 15.30811
1207.228, 15.92651
1207.710, 34.29639
1208.193, 43.12036
1208.675, 47.53052
1209.157, 69.82666
1209.639, 99.34668
1210.121, 97.41016
1210.603, 66.01392
1211.085, 43.06982
1211.567, 43.55786
1212.049, 48.61499
1212.531, 47.05713
1213.014, 46.15381
1213.496, 51.53223
1213.978, 56.97656
1214.460, 56.45972
1214.942, 54.72876
1215.424, 62.12744
1215.906, 73.17139
1216.388, 64.61597
1216.871, 29.23608
1217.353, 22.64282
1217.835, 56.17017
1218.317, 66.99243
1218.799, 42.73438
1219.281, 25.71143
1219.763, 34.42554
1220.245, 41.96313
1220.728, 21.97339
1221.210, 5.401123
1221.692, 1.401123
1222.174, 19.32837
1222.656, 26.20898
1223.138, 26.12646
1223.620, 37.16406
1224.102, 55.68335
1224.584, 65.84863
1225.067, 63.56958
1225.549, 54.50122
1226.031, 34.86304
1226.513, 21.03809
1226.995, 23.87646
1227.477, 18.28076
1227.959, 5.221924
1228.441, 2.252441
1228.923, 16.62207
1229.406, 44.88403
1229.888, 52.00513
1230.370, 40.60815
1230.852, 17.71069
1231.334, 7.461182
1231.816, 2.776855
1232.298, 5.853027
1232.780, 0.0000000E+00
##END=



