##NAMES=Troilite
##RRUFFID=R070213
##IDEAL CHEMISTRY=Fe^2+^S^2-^
##LOCALITY=Bjurbole Borga, Nyland, Finland
##OWNER=RRUFF
##SOURCE=Michael Scott
##DESCRIPTION=Dark gray to tarnished brown metallic grains found in a chondrite meteorite class L4, that fell on March 12, 1899
##STATUS=The identification of this mineral is not yet confirmed.
##URL=rruff.info/R070213
184.3742, 0.0000000E+00
184.8564, 6.3965000E-02
185.3385, 1.005615
185.8206, 6.031616
186.3027, 11.14661
186.7848, 10.71472
187.2669, 5.805420
187.7491, 4.592896
188.2312, 13.54285
188.7133, 28.49219
189.1954, 33.52710
189.6775, 27.52222
190.1596, 16.95898
190.6418, 8.190308
191.1239, 1.351685
191.6060, 0.2133790
192.0881, 9.936279
192.5702, 29.38611
193.0524, 34.23767
193.5345, 20.83765
194.0166, 1.988159
194.4987, 0.1933590
194.9808, 15.51050
195.4629, 29.72510
195.9451, 30.16736
196.4272, 17.27563
196.9093, 14.64441
197.3914, 25.93530
197.8735, 42.89819
198.3556, 49.29761
198.8378, 43.37891
199.3199, 36.07788
199.8020, 34.49280
200.2841, 38.50964
200.7662, 38.76868
201.2483, 35.18127
201.7305, 31.72083
202.2126, 24.14673
202.6947, 14.81946
203.1768, 8.886108
203.6589, 10.42615
204.1410, 20.59766
204.6232, 30.16333
205.1053, 38.85547
205.5874, 46.07397
206.0695, 49.50671
206.5516, 48.31738
207.0337, 45.54163
207.5159, 42.73987
207.9980, 39.55420
208.4801, 38.36877
208.9622, 40.74402
209.4443, 45.35510
209.9264, 45.17749
210.4086, 38.91956
210.8907, 30.43677
211.3728, 21.42627
211.8549, 9.816528
212.3370, 5.268921
212.8191, 12.62878
213.3013, 29.47742
213.7834, 34.75745
214.2655, 23.65076
214.7476, 8.841675
215.2297, 1.112427
215.7118, 3.058594
216.1940, 5.443237
216.6761, 7.157349
217.1582, 8.163574
217.6403, 6.484253
218.1224, 0.2658690
218.6045, 6.513306
219.0867, 6.501709
219.5688, 1.974609
220.0509, 11.88159
220.5330, 23.12097
221.0151, 36.10242
221.4972, 40.88062
221.9794, 32.78076
222.4615, 21.76685
222.9436, 19.35022
223.4257, 31.22229
223.9078, 39.96692
224.3899, 42.04968
224.8721, 35.20203
225.3542, 30.39856
225.8363, 32.74084
226.3184, 37.12708
226.8005, 37.20166
227.2827, 30.32886
227.7648, 24.16260
228.2469, 20.87598
228.7290, 20.95032
229.2111, 19.84448
229.6932, 15.65552
230.1754, 12.54260
230.6575, 14.83105
231.1396, 27.27588
231.6217, 37.85815
232.1038, 42.82483
232.5859, 41.01868
233.0681, 39.81006
233.5502, 40.06335
234.0323, 41.62244
234.5144, 41.15796
234.9965, 39.91443
235.4786, 38.32117
235.9608, 35.41919
236.4429, 29.49072
236.9250, 31.19641
237.4071, 47.16833
237.8892, 66.62390
238.3713, 71.07751
238.8535, 50.10962
239.3356, 31.62781
239.8177, 25.79138
240.2998, 37.34924
240.7819, 42.99255
241.2640, 39.80750
241.7462, 32.51990
242.2283, 30.01758
242.7104, 36.78101
243.1925, 40.50427
243.6746, 35.13220
244.1567, 14.74390
244.6389, 5.907837
245.1210, 13.60535
245.6031, 29.83960
246.0852, 40.51038
246.5673, 43.32861
247.0494, 44.50403
247.5316, 46.70752
248.0137, 51.68213
248.4958, 51.23987
248.9779, 42.22961
249.4600, 29.56226
249.9421, 23.04004
250.4243, 26.28394
250.9064, 29.05505
251.3885, 26.42712
251.8706, 14.52832
252.3527, 11.20703
252.8348, 21.78796
253.3170, 37.60425
253.7991, 40.77759
254.2812, 23.26379
254.7633, 8.695923
255.2454, 7.644043
255.7275, 25.68884
256.2097, 35.97412
256.6918, 34.91162
257.1739, 28.43140
257.6560, 28.35315
258.1381, 38.81738
258.6202, 47.11572
259.1024, 47.32410
259.5845, 36.35840
260.0666, 30.43201
260.5487, 31.70776
261.0308, 36.28577
261.5129, 37.17700
261.9951, 33.85828
262.4772, 28.00757
262.9593, 19.32043
263.4414, 6.351807
263.9235, 3.166016
264.4056, 10.00488
264.8878, 12.72876
265.3699, 7.485107
265.8520, 8.994263
266.3341, 24.27258
266.8162, 33.12585
267.2983, 34.27698
267.7805, 37.19189
268.2626, 43.61658
268.7447, 49.80334
269.2268, 48.02783
269.7089, 35.82056
270.1910, 24.48193
270.6732, 18.53467
271.1553, 18.45154
271.6374, 19.51941
272.1195, 22.42676
272.6016, 25.54785
273.0837, 25.78369
273.5659, 23.14282
274.0480, 18.98279
274.5301, 12.56628
275.0122, 3.695068
275.4943, 0.9383540
275.9764, 0.9594730
276.4586, 1.839233
276.9407, 5.558594
277.4228, 10.50769
277.9049, 17.49792
278.3870, 29.86450
278.8691, 46.92029
279.3513, 50.85352
279.8334, 38.62512
280.3155, 21.08301
280.7976, 14.00928
281.2798, 17.98596
281.7619, 19.77380
282.2440, 11.63281
282.7261, 4.260132
283.2082, 10.40161
283.6903, 5.482422
284.1725, 4.364258
284.6546, 12.47937
285.1367, 18.82129
285.6188, 24.61096
286.1009, 31.96545
286.5830, 39.26904
287.0652, 37.66553
287.5473, 25.91418
288.0294, 12.67456
288.5115, 6.820923
288.9936, 7.963257
289.4757, 13.00061
289.9579, 23.23096
290.4400, 36.04822
290.9221, 45.33179
291.4042, 51.15088
291.8863, 52.54883
292.3684, 45.31689
292.8506, 31.74878
293.3327, 21.74805
293.8148, 19.33545
294.2969, 21.82202
294.7790, 25.28674
295.2611, 29.74866
295.7433, 32.37573
296.2254, 27.69238
296.7075, 18.90601
297.1896, 15.60010
297.6717, 24.44934
298.1538, 36.73950
298.6360, 38.60144
299.1181, 30.69958
299.6002, 20.52112
300.0823, 10.31433
300.5644, 2.439819
301.0465, 1.427979
301.5287, 13.15894
302.0108, 26.75757
302.4929, 27.38110
302.9750, 17.39453
303.4571, 9.234009
303.9392, 15.45911
304.4214, 27.34229
304.9035, 32.14136
305.3856, 21.76843
305.8677, 11.51648
306.3498, 19.75720
306.8319, 40.92419
307.3141, 55.53809
307.7962, 46.26111
308.2783, 27.41077
308.7604, 12.47375
309.2425, 4.593018
309.7246, 0.6623540
310.2068, 0.9105220
310.6889, 2.1361999E-02
311.1710, 3.554199
311.6531, 11.93311
312.1352, 21.82397
312.6173, 31.61145
313.0995, 42.38477
313.5816, 48.79761
314.0637, 46.22473
314.5458, 37.62732
315.0279, 28.61218
315.5100, 19.84644
315.9922, 12.34314
316.4743, 6.493286
316.9564, 2.209717
317.4385, 0.1298830
317.9206, 2.463135
318.4027, 6.671997
318.8849, 9.208374
319.3670, 6.363403
319.8491, 4.111084
320.3312, 4.604492
320.8133, 8.572510
321.2954, 13.75000
321.7776, 23.83777
322.2597, 33.39307
322.7418, 36.76416
323.2239, 26.48401
323.7060, 17.89246
324.1881, 14.00586
324.6703, 15.27917
325.1524, 16.89343
325.6345, 18.25269
326.1166, 19.94983
326.5987, 22.54504
327.0808, 30.87744
327.5630, 34.36865
328.0451, 29.61084
328.5272, 17.10938
329.0093, 7.720947
329.4914, 1.316040
329.9735, 1.721313
330.4557, 0.6701660
330.9378, 7.417480
331.4199, 14.48572
331.9020, 19.75732
332.3841, 23.78101
332.8662, 27.88293
333.3484, 33.62646
333.8305, 37.66907
334.3126, 37.36084
334.7947, 29.92017
335.2768, 26.84302
335.7589, 30.69006
336.2411, 38.08252
336.7232, 40.06226
337.2053, 34.85620
337.6874, 29.34375
338.1695, 27.42566
338.6516, 29.83789
339.1338, 28.75269
339.6159, 22.55176
340.0980, 15.18127
340.5801, 13.93201
341.0622, 19.67737
341.5443, 24.91064
342.0265, 24.88660
342.5086, 20.22156
342.9907, 22.77124
343.4728, 34.41113
343.9549, 46.40076
344.4370, 46.38745
344.9192, 35.71326
345.4013, 25.76062
345.8834, 20.68481
346.3655, 19.21899
346.8476, 19.16687
347.3297, 20.61047
347.8119, 21.07300
348.2940, 16.71570
348.7761, 9.276978
349.2582, 4.042358
349.7403, 2.820557
350.2225, 4.062866
350.7046, 6.476074
351.1867, 9.856201
351.6688, 12.35645
352.1509, 10.60376
352.6331, 7.652100
353.1152, 9.017578
353.5973, 18.92407
354.0794, 27.76367
354.5615, 22.43433
355.0436, 8.010132
355.5258, 7.0923001E-02
356.0079, 18.07922
356.4900, 39.96436
356.9721, 42.72974
357.4542, 16.22021
357.9363, 6.849121
358.4185, 2.266235
358.9006, 17.52136
359.3827, 31.06360
359.8648, 21.95508
360.3469, 10.70215
360.8290, 9.600586
361.3112, 21.56726
361.7933, 29.89038
362.2754, 24.59595
362.7575, 14.73376
363.2396, 10.12402
363.7217, 22.33972
364.2039, 30.70691
364.6860, 26.57251
365.1681, 9.660522
365.6502, 0.7009280
366.1323, 0.6718750
366.6144, 7.364380
367.0966, 15.06934
367.5787, 28.10205
368.0608, 36.35229
368.5429, 37.20337
369.0250, 32.24561
369.5071, 29.62549
369.9893, 32.74207
370.4714, 34.25513
370.9535, 29.62402
371.4356, 12.96082
371.9177, 4.086060
372.3998, 6.358154
372.8820, 14.98071
373.3641, 19.00012
373.8462, 16.60229
374.3283, 14.29321
374.8104, 14.83301
375.2925, 18.49060
375.7747, 22.35193
376.2568, 27.71375
376.7389, 30.67163
377.2210, 22.03430
377.7031, 0.3857420
378.1852, 11.83398
378.6674, 3.285034
379.1495, 19.92078
379.6316, 30.51550
380.1137, 27.27673
380.5958, 21.64014
381.0779, 25.15381
381.5601, 35.91626
382.0422, 44.07654
382.5243, 47.03589
383.0064, 47.10095
383.4885, 48.66907
383.9706, 51.32825
384.4528, 51.86670
384.9349, 47.93933
385.4170, 40.51501
385.8991, 29.14258
386.3812, 11.00720
386.8633, 2.357910
387.3455, 7.748413
387.8276, 31.14075
388.3097, 44.89172
388.7918, 23.93762
389.2739, 2.923462
389.7560, 10.94275
390.2382, 3.123413
390.7203, 19.65417
391.2024, 32.54553
391.6845, 40.54236
392.1666, 42.31812
392.6487, 29.22583
393.1309, 17.54089
393.6130, 14.86902
394.0951, 20.56348
394.5772, 24.48608
395.0593, 20.96069
395.5414, 16.81372
396.0236, 16.34985
396.5057, 26.83716
396.9878, 33.11169
397.4699, 30.61157
397.9520, 22.43555
398.4341, 18.50769
398.9163, 25.63135
399.3984, 29.90234
399.8805, 24.76660
400.3626, 3.909180
400.8447, 7.384888
401.3268, 6.338379
401.8090, 2.242310
402.2911, 12.60498
402.7732, 26.23718
403.2553, 37.49866
403.7374, 44.84949
404.2195, 48.38525
404.7017, 50.25452
405.1838, 51.16577
405.6659, 48.42749
406.1480, 35.90833
406.6301, 13.26355
407.1122, 1.025024
407.5944, 6.067749
408.0765, 20.34558
408.5586, 22.84875
409.0407, 13.85315
409.5228, 7.072876
410.0049, 15.64478
410.4871, 33.53723
410.9692, 43.66089
411.4513, 43.61157
411.9334, 38.45850
412.4155, 29.87073
412.8976, 20.23047
413.3798, 16.53430
413.8619, 29.20837
414.3440, 45.13367
414.8261, 49.81433
415.3082, 42.96326
415.7903, 33.89294
416.2725, 26.32080
416.7546, 21.27722
417.2367, 20.07043
417.7188, 27.72180
418.2009, 34.26636
418.6830, 31.15320
419.1652, 22.06116
419.6473, 20.58936
420.1294, 42.36975
420.6115, 64.77649
421.0937, 75.34729
421.5758, 67.54553
422.0579, 57.91797
422.5400, 45.68433
423.0221, 33.48413
423.5042, 25.45435
423.9864, 25.12439
424.4685, 25.27148
424.9506, 24.84741
425.4327, 23.97156
425.9148, 20.17163
426.3969, 9.097046
426.8791, 4.2603001E-02
427.3612, 3.371216
427.8433, 25.78589
428.3254, 38.60193
428.8075, 33.98328
429.2896, 18.51245
429.7718, 16.32385
430.2539, 29.93567
430.7360, 43.32336
431.2181, 45.88037
431.7002, 38.42139
432.1823, 32.78735
432.6645, 29.67017
433.1466, 28.22546
433.6287, 25.94763
434.1108, 23.57385
434.5929, 23.91809
435.0750, 29.99231
435.5572, 38.71460
436.0393, 45.82092
436.5214, 51.84949
437.0035, 53.48254
437.4856, 40.93469
437.9677, 24.64771
438.4499, 21.24646
438.9320, 44.76331
439.4141, 65.40100
439.8962, 54.55261
440.3783, 23.58105
440.8604, 1.476318
441.3426, 10.13440
441.8247, 24.75769
442.3068, 30.62256
442.7889, 24.19568
443.2710, 18.94971
443.7531, 20.92737
444.2353, 24.95178
444.7174, 25.30371
445.1995, 15.58459
445.6816, 8.375000
446.1637, 5.365967
446.6458, 6.497925
447.1280, 11.99036
447.6101, 28.27698
448.0922, 41.96814
448.5743, 44.16626
449.0564, 29.67480
449.5385, 16.59302
450.0207, 2.708740
450.5028, 7.127930
450.9849, 0.4881590
451.4670, 30.22607
451.9491, 53.11536
452.4312, 54.21216
452.9134, 37.19507
453.3955, 33.08374
453.8776, 43.58972
454.3597, 54.81128
454.8418, 49.65991
455.3239, 32.58301
455.8061, 22.97839
456.2882, 27.87000
456.7703, 37.86206
457.2524, 39.18030
457.7345, 33.65161
458.2166, 28.73718
458.6988, 29.53357
459.1809, 32.91382
459.6630, 36.48364
460.1451, 40.42468
460.6272, 40.60291
461.1093, 29.85620
461.5915, 15.32776
462.0736, 6.116577
462.5557, 7.545654
463.0378, 12.50867
463.5199, 20.86560
464.0020, 31.66455
464.4842, 38.69727
464.9663, 36.69983
465.4484, 33.45825
465.9305, 33.60461
466.4126, 44.33459
466.8947, 45.64661
467.3769, 29.40686
467.8590, 7.326782
468.3411, 0.9672850
468.8232, 10.70325
469.3053, 24.48645
469.7874, 38.25452
470.2696, 51.58716
470.7517, 51.22351
471.2338, 32.70374
471.7159, 14.08691
472.1980, 12.94873
472.6801, 28.87610
473.1623, 43.72375
473.6444, 56.71790
474.1265, 64.36450
474.6086, 55.94043
475.0907, 33.89795
475.5728, 16.06763
476.0550, 17.07373
476.5371, 28.39172
477.0192, 37.60791
477.5013, 44.38818
477.9834, 46.95972
478.4655, 38.65002
478.9477, 26.97546
479.4298, 21.98975
479.9119, 31.05127
480.3940, 41.97778
480.8761, 50.41626
481.3582, 55.97668
481.8404, 57.35693
482.3225, 51.12988
482.8046, 43.07288
483.2867, 35.31482
483.7688, 27.15930
484.2509, 22.35901
484.7331, 23.76099
485.2152, 27.38232
485.6973, 29.74316
486.1794, 31.04895
486.6615, 30.96350
487.1436, 28.36523
487.6258, 23.75024
488.1079, 22.12207
488.5900, 25.53479
489.0721, 26.59741
489.5542, 18.19250
490.0363, 0.1180420
490.5185, 6.102051
491.0006, 2.461792
491.4827, 15.10376
491.9648, 17.44360
492.4470, 11.15784
492.9291, 4.944336
493.4112, 9.2896000E-02
493.8933, 1.523560
494.3754, 4.634644
494.8575, 17.68298
495.3397, 31.66138
495.8218, 47.19104
496.3039, 59.59473
496.7860, 63.18652
497.2681, 56.07825
497.7502, 44.71863
498.2324, 25.91406
498.7145, 6.775757
499.1966, 2.532837
499.6787, 10.01172
500.1608, 22.13733
500.6429, 26.16309
501.1251, 22.25684
501.6072, 20.34790
502.0893, 24.05066
502.5714, 28.04578
503.0535, 29.54761
503.5356, 25.86890
504.0178, 23.62012
504.4999, 24.45898
504.9820, 25.92798
505.4641, 23.01807
505.9462, 14.17981
506.4283, 8.003662
506.9105, 7.087769
507.3926, 10.82507
507.8747, 17.72815
508.3568, 27.83960
508.8389, 38.28003
509.3210, 50.51050
509.8032, 61.28638
510.2853, 59.02258
510.7674, 39.32678
511.2495, 18.59644
511.7316, 16.44556
512.2137, 25.65845
512.6959, 31.54248
513.1780, 21.76379
513.6601, 11.79834
514.1422, 13.36487
514.6243, 24.83167
515.1064, 34.88428
515.5886, 42.24866
516.0707, 44.61218
516.5528, 38.91919
517.0349, 15.96948
517.5170, 3.367310
517.9991, 12.71106
518.4813, 30.35278
518.9634, 39.29980
519.4455, 35.08887
519.9276, 30.20825
520.4097, 24.82544
520.8918, 19.84558
521.3740, 21.12598
521.8561, 31.00195
522.3382, 39.40125
522.8203, 38.50085
523.3024, 28.93176
523.7845, 20.93701
524.2667, 14.70679
524.7488, 11.52771
525.2309, 15.83093
525.7130, 24.61023
526.1951, 28.01196
526.6772, 18.73706
527.1594, 6.227417
527.6415, 1.174316
528.1236, 2.599487
528.6057, 6.175171
529.0878, 11.98755
529.5699, 17.32788
530.0521, 20.52832
530.5342, 21.75256
531.0163, 19.25684
531.4984, 5.300171
531.9805, 9.609375
532.4626, 14.38953
532.9448, 2.567383
533.4269, 17.81628
533.9090, 30.82239
534.3911, 40.45520
534.8732, 40.57178
535.3553, 24.91443
535.8375, 11.45276
536.3196, 8.907349
536.8017, 17.94104
537.2838, 27.22815
537.7659, 37.99951
538.2480, 44.74866
538.7302, 36.13354
539.2123, 15.34485
539.6944, 6.445801
540.1765, 18.85242
540.6586, 37.64380
541.1407, 42.79297
541.6229, 36.62244
542.1050, 27.92603
542.5871, 18.07727
543.0692, 9.304688
543.5513, 2.878052
544.0334, 1.049072
544.5156, 0.7746580
544.9977, 7.870605
545.4798, 19.12244
545.9619, 28.38867
546.4440, 33.18018
546.9261, 38.40234
547.4083, 48.56824
547.8904, 58.86365
548.3725, 59.31226
548.8546, 40.30469
549.3367, 27.95435
549.8188, 32.05200
550.3010, 50.60291
550.7831, 57.99622
551.2652, 52.07043
551.7473, 42.55139
552.2294, 34.80444
552.7115, 29.00562
553.1937, 23.94617
553.6758, 19.20984
554.1579, 16.71216
554.6400, 22.83093
555.1221, 33.29224
555.6042, 34.87585
556.0864, 15.21741
556.5685, 7.560059
557.0506, 16.46460
557.5327, 13.58899
558.0148, 7.238403
558.4969, 4.761719
558.9791, 14.50854
559.4612, 14.74329
559.9433, 1.902832
560.4254, 5.535889
560.9075, 1.355469
561.3896, 11.95740
561.8718, 16.73193
562.3539, 10.19385
562.8360, 7.407471
563.3181, 11.25269
563.8002, 18.79736
564.2823, 23.03821
564.7645, 23.46057
565.2466, 22.74268
565.7287, 21.93213
566.2108, 20.85535
566.6929, 17.74866
567.1750, 12.47742
567.6572, 8.694702
568.1393, 10.38403
568.6214, 15.66077
569.1035, 21.53064
569.5856, 28.37866
570.0677, 32.47888
570.5499, 27.00452
571.0320, 17.55933
571.5141, 12.97632
571.9962, 20.00830
572.4783, 29.00061
572.9604, 39.58801
573.4426, 50.17163
573.9247, 52.32861
574.4068, 33.88489
574.8889, 16.90051
575.3710, 11.14551
575.8531, 20.13123
576.3353, 21.40918
576.8174, 9.153687
577.2995, 2.188477
577.7816, 5.272705
578.2637, 34.35425
578.7458, 50.17871
579.2280, 44.81567
579.7101, 29.38293
580.1922, 23.76465
580.6743, 26.22888
581.1564, 26.99341
581.6385, 17.82629
582.1207, 6.569946
582.6028, 4.191406
583.0849, 10.17957
583.5670, 17.76477
584.0491, 26.00452
584.5313, 32.30176
585.0134, 33.05237
585.4955, 24.17017
585.9776, 21.13977
586.4597, 34.42749
586.9418, 52.83960
587.4240, 63.54602
587.9061, 63.16919
588.3882, 59.90295
588.8703, 53.74438
589.3524, 45.39868
589.8345, 35.86365
590.3167, 24.82312
590.7988, 17.53870
591.2809, 16.51184
591.7630, 19.97595
592.2451, 19.56494
592.7272, 15.15979
593.2094, 9.777832
593.6915, 3.843872
594.1736, 0.8956300
594.6557, 0.1997070
595.1378, 9.166870
595.6199, 18.24207
596.1021, 20.36206
596.5842, 19.30200
597.0663, 20.26440
597.5485, 32.10498
598.0306, 38.78552
598.5127, 29.95520
598.9948, 10.16602
599.4769, 0.6888430
599.9590, 3.829224
600.4412, 10.91431
600.9233, 17.69348
601.4054, 24.42383
601.8875, 24.50647
602.3696, 16.19678
602.8517, 6.562744
603.3339, 1.394775
603.8160, 0.2026370
604.2981, 1.851929
604.7802, 5.715454
605.2623, 9.034302
605.7444, 8.721069
606.2266, 5.378662
606.7087, 0.5173340
607.1908, 8.754395
607.6729, 15.84192
608.1550, 11.88208
608.6371, 0.7808840
609.1193, 4.875122
609.6014, 8.458984
610.0835, 21.16174
610.5656, 20.78052
611.0477, 3.577881
611.5298, 2.087769
612.0120, 15.42761
612.4941, 33.97412
612.9762, 36.55859
613.4583, 15.20837
613.9404, 8.943848
614.4225, 24.40515
614.9047, 44.28198
615.3868, 40.01685
615.8689, 13.99951
616.3510, 3.769165
616.8331, 2.475586
617.3152, 7.492798
617.7974, 12.01001
618.2795, 11.57031
618.7616, 9.538330
619.2437, 2.126465
619.7258, 2.879150
620.2079, 4.438599
620.6901, 24.29382
621.1722, 36.00049
621.6543, 18.13293
622.1364, 0.3947750
622.6185, 1.758301
623.1006, 44.25830
623.5828, 65.33923
624.0649, 55.81018
624.5470, 33.29028
625.0291, 17.02600
625.5112, 6.818481
625.9933, 4.805054
626.4755, 13.56128
626.9576, 27.74121
627.4397, 38.18433
627.9218, 44.73486
628.4039, 46.19849
628.8860, 39.70862
629.3682, 28.91870
629.8503, 16.31555
630.3324, 2.716797
630.8145, 5.372437
631.2966, 1.249634
631.7787, 11.05127
632.2609, 15.70837
632.7430, 12.90698
633.2251, 9.829834
633.7072, 7.787109
634.1893, 6.186035
634.6714, 4.140381
635.1536, 0.8596190
635.6357, 0.6171880
636.1178, 7.257568
636.5999, 18.06824
637.0820, 24.51599
637.5641, 26.58130
638.0463, 22.46484
638.5284, 6.977417
639.0105, 11.05115
639.4926, 12.34705
639.9747, 0.7487790
640.4568, 15.34363
640.9390, 26.67908
641.4211, 34.29871
641.9032, 37.22595
642.3853, 35.40625
642.8674, 32.02515
643.3495, 25.43750
643.8317, 19.68384
644.3138, 17.75085
644.7959, 22.94238
645.2780, 26.24133
645.7601, 26.45374
646.2422, 25.81384
646.7244, 27.24744
647.2065, 31.33435
647.6886, 34.64148
648.1707, 37.01843
648.6528, 37.64209
649.1349, 34.43237
649.6171, 27.69543
650.0992, 19.57056
650.5813, 7.230347
651.0634, 3.577759
651.5455, 2.879883
652.0276, 6.874512
652.5098, 13.55420
652.9919, 6.660400
653.4740, 2.305420
653.9561, 6.221436
654.4382, 3.846924
654.9203, 0.3000490
655.4025, 3.798706
655.8846, 10.40576
656.3667, 24.20752
656.8488, 51.03650
657.3309, 66.77039
657.8130, 69.25073
658.2952, 64.22473
658.7773, 59.88721
659.2594, 55.87549
659.7415, 47.09802
660.2236, 28.75378
660.7057, 10.80847
661.1879, 10.07458
661.6700, 21.76257
662.1521, 32.48694
662.6342, 35.58691
663.1163, 35.65637
663.5984, 34.44153
664.0806, 32.54810
664.5627, 32.66248
665.0448, 35.79749
665.5269, 40.37036
666.0090, 46.08496
666.4911, 53.14465
666.9733, 59.17615
667.4554, 65.45752
667.9375, 69.73499
668.4196, 69.66724
668.9017, 65.39941
669.3839, 61.75256
669.8660, 59.67310
670.3481, 57.50256
670.8302, 52.49512
671.3123, 46.16394
671.7944, 41.94885
672.2766, 42.18982
672.7587, 42.81946
673.2408, 40.61755
673.7229, 36.95679
674.2050, 34.35559
674.6871, 31.48340
675.1693, 32.47791
675.6514, 40.94934
676.1335, 54.87573
676.6156, 63.89709
677.0977, 67.80530
677.5798, 66.99426
678.0620, 59.22754
678.5441, 45.80005
679.0262, 41.28333
679.5083, 45.95703
679.9904, 54.39685
680.4725, 66.05310
680.9547, 77.39124
681.4368, 80.60559
681.9189, 73.83691
682.4010, 67.86768
682.8831, 72.72534
683.3652, 80.72498
683.8474, 83.92944
684.3295, 76.77759
684.8116, 70.80298
685.2937, 69.13013
685.7758, 68.86572
686.2579, 66.24097
686.7401, 60.43164
687.2222, 54.04614
687.7043, 45.98499
688.1864, 39.15259
688.6685, 43.07080
689.1506, 57.16455
689.6328, 68.12305
690.1149, 67.71460
690.5970, 62.33398
691.0791, 60.56653
691.5612, 62.20398
692.0433, 66.14270
692.5255, 76.60144
693.0076, 85.36780
693.4897, 85.50146
693.9718, 75.52856
694.4539, 69.57434
694.9360, 73.09155
695.4182, 77.81860
695.9003, 79.49023
696.3824, 77.46558
696.8645, 74.15393
697.3466, 68.89209
697.8287, 65.28833
698.3109, 66.88245
698.7930, 73.03259
699.2751, 82.64233
699.7572, 98.19275
700.2393, 106.9908
700.7214, 84.48560
701.2036, 48.42236
701.6857, 28.58862
702.1678, 49.24365
702.6499, 71.97437
703.1320, 83.68555
703.6141, 86.95410
704.0963, 88.11169
704.5784, 86.29431
705.0605, 84.50354
705.5426, 82.49121
706.0247, 81.06177
706.5068, 86.34900
706.9890, 99.97156
707.4711, 106.9860
707.9532, 93.81812
708.4353, 69.62500
708.9174, 58.57251
709.3995, 59.79163
709.8817, 64.99719
710.3638, 69.02063
710.8459, 74.10645
711.3280, 84.32703
711.8101, 101.4275
712.2922, 111.4265
712.7744, 101.7927
713.2565, 90.05859
713.7386, 89.13818
714.2207, 107.5691
714.7028, 114.0947
715.1849, 105.8915
715.6671, 92.58789
716.1492, 83.74878
716.6313, 79.30029
717.1134, 78.35999
717.5955, 81.95825
718.0776, 85.28076
718.5598, 80.31262
719.0419, 71.03918
719.5240, 65.18066
720.0061, 66.01941
720.4882, 70.15759
720.9703, 79.03687
721.4525, 89.89905
721.9346, 96.55481
722.4167, 95.73193
722.8988, 93.64612
723.3809, 90.95972
723.8630, 87.93457
724.3452, 85.30176
724.8273, 82.87390
725.3094, 82.42725
725.7915, 88.47070
726.2736, 95.79822
726.7557, 84.65503
727.2379, 58.27258
727.7200, 42.09717
728.2021, 64.58691
728.6842, 95.72278
729.1663, 111.0265
729.6484, 107.9924
730.1306, 101.7474
730.6127, 93.11414
731.0948, 85.30481
731.5769, 80.06726
732.0590, 77.86133
732.5411, 76.20654
733.0233, 75.21570
733.5054, 74.51953
733.9875, 74.39343
734.4696, 74.52002
734.9517, 71.73230
735.4338, 65.02087
735.9160, 59.29919
736.3981, 62.31812
736.8802, 68.68604
737.3623, 70.09863
737.8444, 60.66663
738.3266, 53.60974
738.8087, 53.21887
739.2908, 56.76196
739.7729, 63.08203
740.2551, 78.29163
740.7372, 84.53943
741.2193, 76.12769
741.7014, 60.75806
742.1835, 55.13477
742.6656, 59.39587
743.1478, 64.51599
743.6299, 68.96741
744.1120, 71.01599
744.5941, 65.41577
745.0762, 54.73779
745.5583, 46.77368
746.0405, 48.52979
746.5226, 51.21667
747.0047, 49.86694
747.4868, 45.15283
747.9689, 41.01807
748.4510, 35.79309
748.9332, 33.93042
749.4153, 38.10645
749.8974, 47.54138
750.3795, 51.47961
750.8616, 48.82947
751.3438, 49.01929
751.8259, 63.49060
752.3080, 84.03369
752.7901, 89.77246
753.2722, 80.80762
753.7543, 70.39978
754.2365, 66.51782
754.7186, 62.19617
755.2007, 52.36792
755.6828, 33.95618
756.1649, 24.24561
756.6470, 31.18530
757.1292, 43.07214
757.6113, 54.68518
758.0934, 68.06030
758.5755, 70.18762
759.0576, 58.37109
759.5397, 44.33545
760.0219, 41.52380
760.5040, 48.38892
760.9861, 54.39905
761.4682, 54.87561
761.9503, 50.73938
762.4324, 38.84961
762.9146, 25.74036
763.3967, 19.42151
763.8788, 27.96802
764.3609, 33.35596
764.8430, 29.38635
765.3251, 22.68774
765.8073, 21.38269
766.2894, 27.95654
766.7715, 30.31531
767.2536, 25.17322
767.7357, 17.25610
768.2178, 13.48840
768.7000, 13.55042
769.1821, 16.81274
769.6642, 27.36365
770.1463, 34.07422
770.6284, 19.17749
771.1105, 5.474731
771.5927, 16.92126
772.0748, 5.310303
772.5569, 26.13074
773.0390, 37.35083
773.5211, 41.42847
774.0032, 44.38171
774.4854, 46.92261
774.9675, 45.12231
775.4496, 35.57788
775.9317, 22.88904
776.4138, 20.36511
776.8959, 26.12927
777.3781, 29.84741
777.8602, 24.12109
778.3423, 15.65454
778.8244, 6.217407
779.3065, 2.118530
779.7886, 1.135254
780.2708, 28.08789
780.7529, 49.38660
781.2350, 46.80090
781.7171, 23.94666
782.1992, 17.14844
782.6813, 31.20996
783.1635, 42.07800
783.6456, 34.00256
784.1277, 13.81531
784.6098, 3.348755
785.0919, 2.097900
785.5740, 4.343872
786.0562, 9.571655
786.5383, 14.39160
787.0204, 15.65540
787.5025, 13.19653
787.9846, 10.13318
788.4667, 3.931885
788.9489, 0.6295170
789.4310, 4.409912
789.9131, 15.99561
790.3952, 19.31921
790.8773, 12.65833
791.3594, 5.680420
791.8416, 7.348267
792.3237, 14.05603
792.8058, 16.20813
793.2879, 13.37964
793.7700, 8.634766
794.2521, 2.573364
794.7343, 3.470703
795.2164, 9.504028
795.6985, 17.16455
796.1806, 16.70422
796.6627, 0.7315670
797.1448, 16.15881
797.6270, 24.02075
798.1091, 21.49451
798.5912, 20.48022
799.0733, 20.94434
799.5554, 23.52039
800.0375, 33.10754
800.5197, 44.11182
801.0018, 43.70520
801.4839, 28.73816
801.9660, 14.54431
802.4481, 11.52502
802.9302, 12.65430
803.4124, 12.02173
803.8945, 7.636597
804.3766, 4.080200
804.8587, 1.242188
805.3408, 0.6158450
805.8229, 1.464600
806.3051, 1.297852
806.7872, 1.304688
807.2693, 6.784424
807.7514, 12.81494
808.2335, 17.32056
808.7156, 20.74414
809.1978, 24.76611
809.6799, 31.77795
810.1620, 32.45630
810.6441, 12.00757
811.1262, 10.40308
811.6083, 14.82678
812.0905, 11.00708
812.5726, 26.56055
813.0547, 28.42676
813.5368, 24.77222
814.0189, 25.37207
814.5010, 29.13904
814.9832, 28.90186
815.4653, 22.66016
815.9474, 16.53674
816.4295, 21.62769
816.9116, 27.84558
817.3937, 20.08679
817.8759, 23.11951
818.3580, 44.90820
818.8401, 14.47742
819.3222, 30.01538
819.8043, 53.64209
820.2864, 52.67395
820.7686, 46.89502
821.2507, 36.85193
821.7328, 26.01941
822.2149, 19.06384
822.6970, 15.00452
823.1791, 10.75989
823.6613, 4.735718
824.1434, 1.727295
824.6255, 8.441162
825.1076, 18.35168
825.5897, 24.01306
826.0718, 21.08398
826.5540, 18.07849
827.0361, 13.61414
827.5182, 10.66443
828.0003, 14.01733
828.4824, 23.58728
828.9645, 30.29712
829.4467, 31.84253
829.9288, 33.27295
830.4109, 40.02234
830.8930, 48.47668
831.3751, 52.69849
831.8572, 49.14062
832.3394, 45.83972
832.8215, 45.18616
833.3036, 46.41333
833.7857, 49.17151
834.2678, 55.90784
834.7499, 55.74292
835.2321, 45.17834
835.7142, 33.99524
836.1963, 36.38220
836.6784, 49.10132
837.1605, 61.73926
837.6426, 74.03723
838.1248, 78.84875
838.6069, 59.04431
839.0890, 33.85474
839.5711, 25.93787
840.0532, 57.10876
840.5353, 73.70142
841.0175, 64.76990
841.4996, 48.24536
841.9817, 42.41357
842.4638, 47.69604
842.9459, 54.51489
843.4280, 62.44678
843.9102, 69.54187
844.3923, 75.79358
844.8744, 79.15405
845.3565, 74.34802
845.8386, 56.10437
846.3207, 43.79285
846.8029, 52.69055
847.2850, 66.79773
847.7671, 72.59155
848.2492, 61.79382
848.7313, 59.65613
849.2134, 68.63074
849.6956, 80.00513
850.1777, 86.53259
850.6598, 88.35535
851.1419, 83.39368
851.6240, 70.33459
852.1061, 61.53394
852.5883, 70.95032
853.0704, 85.70105
853.5525, 94.22266
854.0346, 93.84827
854.5167, 91.12683
854.9988, 83.78760
855.4810, 76.02283
855.9631, 69.70667
856.4452, 64.71741
856.9273, 67.40198
857.4094, 78.55664
857.8915, 88.48120
858.3737, 84.12695
858.8558, 76.15417
859.3379, 80.28687
859.8200, 97.94250
860.3021, 109.4514
860.7842, 101.9664
861.2664, 90.65027
861.7485, 84.50330
862.2306, 84.32349
862.7127, 79.36719
863.1948, 68.13562
863.6769, 58.34241
864.1591, 55.74658
864.6412, 58.76111
865.1233, 64.40051
865.6054, 72.14355
866.0875, 78.23486
866.5696, 79.41797
867.0518, 79.27783
867.5339, 80.83044
868.0160, 84.31018
868.4981, 82.76099
868.9802, 72.03564
869.4623, 62.98291
869.9445, 63.26587
870.4266, 69.26489
870.9087, 68.31726
871.3908, 61.37268
871.8729, 58.22131
872.3550, 66.18848
872.8372, 79.17798
873.3193, 99.45154
873.8014, 122.9376
874.2835, 127.5884
874.7656, 81.18677
875.2477, 48.61438
875.7299, 50.21631
876.2120, 75.27246
876.6941, 82.35242
877.1762, 70.90552
877.6583, 58.68530
878.1404, 53.16785
878.6226, 52.13293
879.1047, 54.94360
879.5869, 59.89661
880.0690, 62.64124
880.5511, 64.50476
881.0332, 60.22693
881.5153, 39.69043
881.9974, 14.62012
882.4796, 10.63452
882.9617, 31.07263
883.4438, 54.26953
883.9259, 78.42065
884.4080, 95.81628
884.8901, 88.22131
885.3723, 64.51880
885.8544, 45.08789
886.3365, 35.86389
886.8186, 34.34424
887.3007, 46.95459
887.7828, 63.46094
888.2650, 69.39575
888.7471, 60.54028
889.2292, 51.84546
889.7113, 44.16931
890.1934, 37.54968
890.6755, 32.48730
891.1577, 28.52612
891.6398, 22.74048
892.1219, 13.44629
892.6040, 9.779541
893.0861, 26.41748
893.5682, 45.25574
894.0504, 47.21960
894.5325, 18.57898
895.0146, 1.712158
895.4967, 0.5672610
895.9788, 3.957764
896.4609, 11.15820
896.9431, 20.02026
897.4252, 21.72412
897.9073, 15.80542
898.3894, 14.83508
898.8715, 38.61487
899.3536, 64.14661
899.8358, 69.82874
900.3179, 51.87122
900.8000, 37.59924
901.2821, 32.29639
901.7642, 27.25574
902.2463, 16.31091
902.7285, 1.667603
903.2106, 3.823853
903.6927, 21.86829
904.1748, 31.99792
904.6569, 7.469482
905.1390, 22.96704
905.6212, 30.06299
906.1033, 17.12244
906.5854, 1.439697
907.0675, 19.74976
907.5496, 33.88098
908.0317, 36.48499
908.5139, 30.67737
908.9960, 25.10193
909.4781, 19.77087
909.9602, 14.49573
910.4423, 6.327271
910.9244, 2.889893
911.4066, 22.22180
911.8887, 51.32800
912.3708, 66.31921
912.8529, 44.17969
913.3350, 26.05212
913.8171, 21.23010
914.2993, 22.62427
914.7814, 21.63818
915.2635, 18.23572
915.7456, 10.77466
916.2277, 3.100952
916.7098, 11.78186
917.1920, 6.943237
917.6741, 36.20813
918.1562, 50.09680
918.6383, 39.28931
919.1204, 27.29529
919.6025, 18.92175
920.0847, 13.59229
920.5668, 11.40491
921.0489, 12.75879
921.5310, 13.75891
922.0131, 14.13464
922.4952, 16.21826
922.9774, 25.63000
923.4595, 37.52051
923.9416, 39.04065
924.4237, 29.65820
924.9058, 23.06055
925.3879, 29.71313
925.8701, 36.12268
926.3522, 34.43970
926.8343, 26.74475
927.3164, 32.47766
927.7985, 53.84497
928.2806, 68.61121
928.7628, 62.45447
929.2449, 47.61658
929.7270, 41.99304
930.2091, 43.50244
930.6912, 46.35828
931.1733, 50.36023
931.6555, 52.91907
932.1376, 52.41406
932.6197, 50.34192
933.1018, 49.30017
933.5839, 49.70532
934.0660, 48.47961
934.5482, 44.70496
935.0303, 40.11694
935.5124, 36.73621
935.9945, 34.15344
936.4766, 31.48572
936.9587, 27.84717
937.4409, 25.99902
937.9230, 28.18677
938.4051, 31.49988
938.8872, 33.85510
939.3693, 35.18384
939.8514, 35.11230
940.3336, 33.37646
940.8157, 32.88416
941.2978, 34.86572
941.7799, 39.99561
942.2620, 53.82031
942.7441, 75.33057
943.2263, 85.75415
943.7084, 64.03931
944.1905, 43.81104
944.6726, 40.39026
945.1547, 50.40100
945.6368, 51.24231
946.1190, 42.22717
946.6011, 35.63965
947.0832, 39.28479
947.5653, 45.71582
948.0474, 46.72107
948.5295, 42.62268
949.0117, 34.15649
949.4938, 5.337280
949.9759, 6.008789
950.4580, 16.79382
950.9401, 52.75183
951.4222, 70.83813
951.9044, 70.94653
952.3865, 60.20789
952.8686, 36.84631
953.3507, 16.19763
953.8328, 18.64050
954.3149, 31.85278
954.7971, 40.22473
955.2792, 38.95630
955.7613, 39.32300
956.2434, 48.20544
956.7255, 53.06299
957.2076, 42.63330
957.6898, 17.63782
958.1719, 8.481323
958.6540, 14.80933
959.1361, 23.45349
959.6182, 27.42261
960.1003, 28.10718
960.5825, 24.65967
961.0646, 18.60107
961.5467, 16.76978
962.0288, 21.74341
962.5109, 28.72058
962.9930, 36.48962
963.4752, 43.89014
963.9573, 45.56238
964.4394, 42.52393
964.9215, 39.04688
965.4036, 35.59863
965.8857, 33.01758
966.3679, 30.09814
966.8500, 29.35144
967.3321, 34.62207
967.8142, 56.33130
968.2963, 64.00574
968.7784, 51.71863
969.2606, 37.25598
969.7427, 42.28760
970.2248, 59.90454
970.7069, 63.91138
971.1890, 52.42285
971.6711, 39.29138
972.1533, 33.26343
972.6354, 29.05603
973.1175, 21.43103
973.5996, 10.55212
974.0817, 9.524292
974.5638, 21.85132
975.0460, 32.49866
975.5281, 32.61475
976.0102, 27.14160
976.4923, 27.91321
976.9744, 32.18140
977.4565, 31.92981
977.9387, 12.38843
978.4208, 0.9008790
978.9029, 20.90332
979.3850, 47.64807
979.8671, 43.57812
980.3492, 0.4945070
980.8314, 24.54724
981.3135, 23.96155
981.7956, 11.00659
982.2777, 8.871826
982.7598, 27.41870
983.2419, 29.66479
983.7241, 10.85913
984.2062, 1.721924
984.6883, 4.868774
985.1704, 14.99670
985.6525, 23.18909
986.1346, 29.15588
986.6168, 28.69495
987.0989, 22.12976
987.5810, 19.98474
988.0631, 33.55249
988.5452, 47.61523
989.0273, 44.82239
989.5095, 31.95312
989.9916, 26.59631
990.4737, 38.25684
990.9558, 49.34802
991.4379, 56.71753
991.9200, 60.92102
992.4022, 63.43542
992.8843, 63.48303
993.3664, 55.92944
993.8485, 38.37305
994.3306, 22.97351
994.8127, 19.23572
995.2949, 20.59558
995.7770, 21.71204
996.2591, 21.99365
996.7412, 23.20898
997.2233, 24.95117
997.7054, 28.90088
998.1876, 38.47998
998.6697, 49.97363
999.1518, 56.69824
999.6339, 58.40771
1000.116, 54.40869
1000.598, 34.36646
1001.080, 20.14771
1001.562, 20.71997
1002.044, 30.85889
1002.527, 44.60669
1003.009, 62.65796
1003.491, 71.83765
1003.973, 68.45923
1004.455, 60.45752
1004.937, 52.70142
1005.419, 47.38940
1005.901, 49.00708
1006.384, 61.55176
1006.866, 66.04810
1007.348, 52.66724
1007.830, 42.14062
1008.312, 51.38770
1008.794, 74.92651
1009.276, 82.39673
1009.758, 75.03540
1010.240, 63.97119
1010.723, 50.69971
1011.205, 40.53955
1011.687, 40.84888
1012.169, 46.71826
1012.651, 43.92407
1013.133, 27.13306
1013.615, 16.70215
1014.097, 17.00244
1014.580, 21.66187
1015.062, 17.46436
1015.544, 11.31641
1016.026, 21.09839
1016.508, 55.15161
1016.990, 74.85352
1017.472, 49.53931
1017.954, 19.19409
1018.436, 7.229248
1018.919, 12.67700
1019.401, 11.39355
1019.883, 3.392578
1020.365, 1.298340
1020.847, 21.39502
1021.329, 43.34546
1021.811, 43.05273
1022.293, 28.91235
1022.776, 21.97510
1023.258, 34.41016
1023.740, 40.62354
1024.222, 36.99268
1024.704, 28.78540
1025.186, 20.51953
1025.668, 13.31616
1026.150, 9.501465
1026.632, 9.487061
1027.115, 11.70483
1027.597, 14.88696
1028.079, 20.50195
1028.561, 31.64990
1029.043, 47.80078
1029.525, 55.19458
1030.007, 52.65112
1030.489, 50.25464
1030.972, 54.10278
1031.454, 58.86816
1031.936, 57.57544
1032.418, 51.59619
1032.900, 43.74731
1033.382, 31.55591
1033.864, 22.12964
1034.346, 15.79614
1034.828, 12.90894
1035.311, 12.79517
1035.793, 16.02124
1036.275, 31.00610
1036.757, 58.82690
1037.239, 79.21069
1037.721, 74.52515
1038.203, 59.81616
1038.685, 39.08838
1039.167, 16.20483
1039.650, 9.185791
1040.132, 21.72827
1040.614, 32.99072
1041.096, 36.66406
1041.578, 34.55688
1042.060, 26.29883
1042.542, 15.80957
1043.024, 9.716797
1043.507, 14.54150
1043.989, 14.33521
1044.471, 0.1396480
1044.953, 13.16724
1045.435, 10.86694
1045.917, 5.438965
1046.399, 21.32446
1046.881, 35.92285
1047.364, 40.23340
1047.846, 11.25708
1048.328, 14.37671
1048.810, 4.483887
1049.292, 31.79468
1049.774, 50.05249
1050.256, 45.45142
1050.738, 38.37207
1051.220, 32.07300
1051.703, 26.94629
1052.185, 24.77368
1052.667, 23.85547
1053.149, 20.79224
1053.631, 14.03955
1054.113, 9.226563
1054.595, 7.727783
1055.077, 8.820557
1055.559, 13.05249
1056.042, 20.66821
1056.524, 31.70093
1057.006, 45.87744
1057.488, 52.04248
1057.970, 36.31958
1058.452, 18.69922
1058.934, 9.283691
1059.416, 7.436035
1059.899, 12.59863
1060.381, 29.07910
1060.863, 35.89258
1061.345, 30.05444
1061.827, 20.09473
1062.309, 12.49463
1062.791, 8.141113
1063.273, 6.256836
1063.755, 7.019775
1064.238, 13.16528
1064.720, 30.44141
1065.202, 47.17236
1065.684, 60.77441
1066.166, 70.77393
1066.648, 75.58716
1067.130, 75.25977
1067.612, 70.39209
1068.094, 59.98389
1068.577, 47.95020
1069.059, 29.90576
1069.541, 15.85962
1070.023, 18.31860
1070.505, 43.64746
1070.987, 44.65332
1071.469, 18.59009
1071.951, 4.633301
1072.434, 0.2155760
1072.916, 15.31641
1073.398, 25.75562
1073.880, 30.82568
1074.362, 30.66431
1074.844, 18.79346
1075.326, 13.11572
1075.808, 18.02808
1076.291, 26.08618
1076.773, 24.45581
1077.255, 16.36572
1077.737, 17.25391
1078.219, 29.63330
1078.701, 43.35718
1079.183, 61.54761
1079.665, 70.89502
1080.147, 61.76733
1080.630, 37.20264
1081.112, 15.59619
1081.594, 2.697510
1082.076, 7.872314
1082.558, 9.586182
1083.040, 30.22266
1083.522, 37.19067
1084.004, 36.48657
1084.486, 35.73828
1084.969, 34.91479
1085.451, 37.91162
1085.933, 46.17139
1086.415, 52.38574
1086.897, 48.93359
1087.379, 40.69995
1087.861, 36.08911
1088.343, 34.45117
1088.826, 32.26733
1089.308, 22.84155
1089.790, 21.01099
1090.272, 33.94263
1090.754, 49.89160
1091.236, 46.91016
1091.718, 29.97729
1092.200, 22.28442
1092.682, 27.61304
1093.165, 37.37549
1093.647, 55.25366
1094.129, 67.32275
1094.611, 60.86987
1095.093, 39.75146
1095.575, 32.60010
1096.057, 40.10229
1096.539, 45.38770
1097.022, 42.13330
1097.504, 33.51880
1097.986, 13.54321
1098.468, 5.677979
1098.950, 5.464355
1099.432, 28.92773
1099.914, 50.19263
1100.396, 55.92041
1100.879, 54.82959
1101.361, 52.04077
1101.843, 47.11060
1102.325, 36.19312
1102.807, 21.30249
1103.289, 12.98682
1103.771, 23.87012
1104.253, 29.42432
1104.735, 22.32861
1105.218, 12.53979
1105.700, 15.54834
1106.182, 27.58325
1106.664, 35.94214
1107.146, 38.87891
1107.628, 38.06787
1108.110, 31.61719
1108.592, 24.81201
1109.074, 19.57690
1109.557, 16.44922
1110.039, 17.87842
1110.521, 23.93848
1111.003, 35.61914
1111.485, 58.25708
1111.967, 70.98315
1112.449, 37.46484
1112.931, 7.632568
1113.414, 24.27637
1113.896, 2.163574
1114.378, 17.39697
1114.860, 35.57129
1115.342, 45.27539
1115.824, 36.51782
1116.306, 21.87402
1116.788, 21.55591
1117.271, 31.15308
1117.753, 40.84790
1118.235, 57.60645
1118.717, 56.74316
1119.199, 29.19922
1119.681, 1.164551
1120.163, 10.53296
1120.645, 4.062744
1121.127, 7.542969
1121.609, 22.87573
1122.092, 34.45337
1122.574, 35.77954
1123.056, 35.82544
1123.538, 36.79102
1124.020, 38.69775
1124.502, 44.06372
1124.984, 51.58887
1125.466, 45.53247
1125.949, 20.68530
1126.431, 2.864990
1126.913, 21.95288
1127.395, 44.51709
1127.877, 43.13037
1128.359, 21.49463
1128.841, 11.01440
1129.323, 12.32080
1129.806, 12.64819
1130.288, 6.698242
1130.770, 0.9960940
1131.252, 3.191162
1131.734, 9.281250
1132.216, 14.65771
1132.698, 20.70508
1133.180, 16.52905
1133.662, 1.752930
1134.145, 12.59106
1134.627, 6.545410
1135.109, 34.65698
1135.591, 36.62988
1136.073, 20.42358
1136.555, 5.882080
1137.037, 9.342529
1137.519, 7.742920
1138.001, 18.96094
1138.484, 47.00903
1138.966, 47.96582
1139.448, 31.72119
1139.930, 20.68701
1140.412, 16.88989
1140.894, 17.37549
1141.376, 28.51465
1141.858, 33.51294
1142.341, 24.40894
1142.823, 11.00366
1143.305, 10.79370
1143.787, 22.26147
1144.269, 43.21216
1144.751, 75.48926
1145.233, 92.56982
1145.715, 62.17725
1146.198, 29.62573
1146.680, 19.97485
1147.162, 28.80786
1147.644, 37.31860
1148.126, 45.45410
1148.608, 51.27734
1149.090, 54.64404
1149.572, 54.62671
1150.054, 47.19897
1150.536, 38.48169
1151.019, 34.08374
1151.501, 34.27759
1151.983, 39.55566
1152.465, 50.45972
1152.947, 54.49072
1153.429, 37.10156
1153.911, 18.81665
1154.393, 22.41797
1154.876, 37.85986
1155.358, 49.34912
1155.840, 59.31812
1156.322, 56.84912
1156.804, 40.09668
1157.286, 23.72412
1157.768, 16.51050
1158.250, 17.19214
1158.733, 25.23511
1159.215, 39.93213
1159.697, 60.58521
1160.179, 97.88867
1160.661, 116.3645
1161.143, 109.6482
1161.625, 89.95581
1162.107, 61.17041
1162.589, 33.57422
1163.072, 29.02368
1163.554, 47.44336
1164.036, 60.65820
1164.518, 59.25366
1165.000, 55.65356
1165.482, 51.31982
1165.964, 48.40356
1166.446, 54.43140
1166.928, 64.08105
1167.411, 65.09839
1167.893, 54.28442
1168.375, 40.82227
1168.857, 18.87891
1169.339, 7.095215
1169.821, 17.98657
1170.303, 40.19189
1170.785, 36.95679
1171.268, 15.35522
1171.750, 2.254883
1172.232, 4.972900
1172.714, 13.82251
1173.196, 34.01050
1173.678, 50.08789
1174.160, 49.82471
1174.642, 36.65576
1175.125, 35.91748
1175.607, 44.60889
1176.089, 45.69458
1176.571, 20.66748
1177.053, 0.2175290
1177.535, 2.872314
1178.017, 5.126465
1178.499, 26.21631
1178.981, 60.13037
1179.464, 61.54565
1179.946, 32.51758
1180.428, 11.61597
1180.910, 38.93408
1181.392, 63.59790
1181.874, 47.07056
1182.356, 16.65723
1182.838, 18.72144
1183.320, 54.49414
1183.803, 67.76660
1184.285, 53.68213
1184.767, 38.53491
1185.249, 47.40601
1185.731, 56.37988
1186.213, 43.11963
1186.695, 17.98706
1187.177, 13.98877
1187.660, 29.52417
1188.142, 36.41626
1188.624, 29.73877
1189.106, 25.12891
1189.588, 47.79004
1190.070, 68.24805
1190.552, 53.09863
1191.034, 9.588379
1191.516, 3.166992
1191.999, 17.80688
1192.481, 38.76587
1192.963, 50.45801
1193.445, 57.98486
1193.927, 65.07690
1194.409, 71.22168
1194.891, 77.50708
1195.373, 84.92871
1195.855, 76.79785
1196.338, 49.81348
1196.820, 30.23047
1197.302, 27.57227
1197.784, 38.03345
1198.266, 72.90869
1198.748, 110.4141
1199.230, 119.6760
1199.712, 92.27271
1200.195, 73.29419
1200.677, 63.80200
1201.159, 54.59766
1201.641, 38.11328
1202.123, 22.91113
1202.605, 19.72412
1203.087, 24.29419
1203.569, 31.13647
1204.052, 41.16748
1204.534, 38.82886
1205.016, 21.71094
1205.498, 7.854492
1205.980, 14.90747
1206.462, 27.60474
1206.944, 23.70605
1207.426, 12.54956
1207.908, 18.06396
1208.391, 54.90527
1208.873, 69.07202
1209.355, 55.04346
1209.837, 37.05420
1210.319, 41.17847
1210.801, 48.37207
1211.283, 24.95459
1211.765, 15.02197
1212.247, 15.06421
1212.730, 49.34790
1213.212, 82.23047
1213.694, 69.12646
1214.176, 45.06006
1214.658, 41.66016
1215.140, 47.62280
1215.622, 52.79199
1216.104, 55.86865
1216.587, 52.53491
1217.069, 38.23071
1217.551, 34.51270
1218.033, 47.00024
1218.515, 61.55762
1218.997, 63.09399
1219.479, 57.60107
1219.961, 48.81152
1220.443, 38.13745
1220.926, 35.89404
1221.408, 43.61646
1221.890, 58.20776
1222.372, 80.43286
1222.854, 97.08228
1223.336, 88.28955
1223.818, 66.65356
1224.300, 41.80786
1224.782, 15.21289
1225.265, 8.387451
1225.747, 24.45386
1226.229, 46.73584
1226.711, 73.58813
1227.193, 94.80371
1227.675, 95.32642
1228.157, 84.85400
1228.639, 72.81567
1229.122, 59.80396
1229.604, 54.04370
1230.086, 57.28809
1230.568, 55.71655
1231.050, 40.22388
1231.532, 25.85718
1232.014, 35.46851
1232.496, 53.24780
1232.979, 59.16748
1233.461, 50.57397
1233.943, 40.37646
1234.425, 27.66479
1234.907, 21.77930
1235.389, 30.58447
1235.871, 42.79370
1236.353, 48.07666
1236.835, 49.19482
1237.318, 49.83447
1237.800, 51.25171
1238.282, 47.84424
1238.764, 39.96436
1239.246, 29.55298
1239.728, 11.30225
1240.210, 0.9970700
1240.692, 14.37891
1241.175, 37.83154
1241.657, 39.79077
1242.139, 13.78320
1242.621, 12.14551
1243.103, 35.21069
1243.585, 47.41406
1244.067, 6.441406
1244.549, 30.45190
1245.031, 11.87280
1245.514, 27.66797
1245.996, 36.14062
1246.478, 9.401123
1246.960, 6.735596
1247.442, 28.19141
1247.924, 53.10107
1248.406, 78.90234
1248.888, 92.04492
1249.370, 76.60547
1249.853, 49.19580
1250.335, 26.53467
1250.817, 9.113770
1251.299, 11.42383
1251.781, 32.86865
1252.263, 55.84033
1252.745, 75.99609
1253.227, 85.28711
1253.710, 71.74658
1254.192, 52.37207
1254.674, 51.49414
1255.156, 65.14746
1255.638, 61.84668
1256.120, 41.19971
1256.602, 23.83447
1257.084, 16.21973
1257.567, 21.35205
1258.049, 47.82031
1258.531, 76.93945
1259.013, 82.89697
1259.495, 69.57910
1259.977, 43.81348
1260.459, 8.735840
1260.941, 13.24951
1261.423, 10.78320
1261.906, 30.98486
1262.388, 35.64355
1262.870, 33.92090
1263.352, 36.19434
1263.834, 42.96289
1264.316, 60.56787
1264.798, 87.39014
1265.280, 100.1206
1265.762, 78.79932
1266.245, 64.37598
1266.727, 65.74463
1267.209, 72.52100
1267.691, 71.30566
1268.173, 66.07324
1268.655, 61.66064
1269.137, 58.64941
1269.619, 58.20264
1270.102, 63.31787
1270.584, 60.94043
1271.066, 45.16602
1271.548, 32.66846
1272.030, 56.46729
1272.512, 87.32812
1272.994, 83.36670
1273.476, 44.92188
1273.958, 35.92578
1274.441, 66.60742
1274.923, 81.76270
1275.405, 68.56104
1275.887, 47.55664
1276.369, 35.19434
1276.851, 29.93311
1277.333, 30.97266
1277.815, 45.15576
1278.297, 35.51025
1278.780, 0.9238280
1279.262, 11.21973
1279.744, 12.65576
1280.226, 42.76953
1280.708, 64.89111
1281.190, 76.32764
1281.672, 68.40430
1282.154, 49.51074
1282.637, 53.14160
1283.119, 75.74268
1283.601, 81.28906
1284.083, 59.91553
1284.565, 43.92969
1285.047, 63.74512
1285.529, 78.91895
1286.011, 74.84717
1286.494, 56.70117
1286.976, 45.87207
1287.458, 40.34717
1287.940, 31.19824
1288.422, 14.70605
1288.904, 11.14648
1289.386, 47.49023
1289.868, 70.64844
1290.350, 58.58496
1290.833, 29.95654
1291.315, 19.95703
1291.797, 22.18896
1292.279, 24.65186
1292.761, 24.92969
1293.243, 28.38672
1293.725, 40.82422
1294.207, 41.67578
1294.689, 16.98486
1295.172, 5.661133
1295.654, 3.935059
1296.136, 27.34229
1296.618, 39.31641
1297.100, 35.07959
1297.582, 40.01318
1298.064, 57.13330
1298.546, 62.97070
1299.029, 45.60498
1299.511, 28.20410
1299.993, 44.89307
1300.475, 66.16699
1300.957, 58.26416
1301.439, 26.81299
1301.921, 9.257324
1302.403, 1.354980
1302.885, 10.56885
1303.368, 39.70654
1303.850, 61.37744
1304.332, 48.63086
1304.814, 30.15869
1305.296, 23.30225
1305.778, 24.48047
1306.260, 27.92920
1306.742, 34.87256
1307.224, 30.96289
1307.707, 9.515625
1308.189, 0.2080080
1308.671, 28.12744
1309.153, 0.0000000E+00
##END=



