##NAMES=Tundrite-(Ce)
##RRUFFID=R130564
##IDEAL CHEMISTRY=Na_2_Ce^3+^_2_Ti^4+^O_2_SiO_4_(CO_3_)_2_
##LOCALITY=Ilimaussaq complex, Narsaq, Kitaa, Greenland
##OWNER=RRUFF
##SOURCE=Rock Currier
##DESCRIPTION=Aggregates of acicular or bladed yellow crystals associated with albite and aegirine
##STATUS=The identification of this mineral has been confirmed only by single crystal X-ray diffraction.
##URL=rruff.info/R130564
88.06445, 0.0000000E+00
88.54657, 17.09106
89.02869, 1.179199
89.51080, 7.074707
89.99292, 29.73584
90.47504, 55.88794
90.95715, 83.36743
91.43927, 110.7141
91.92139, 135.7500
92.40350, 158.3801
92.88562, 181.2545
93.36774, 195.6685
93.84985, 192.4928
94.33197, 172.9784
94.81409, 158.4326
95.29620, 141.4108
95.77832, 124.0752
96.26044, 106.8892
96.74255, 91.87085
97.22467, 81.34705
97.70679, 75.70386
98.18890, 71.86597
98.67102, 69.24854
99.15314, 67.53052
99.63525, 66.52673
100.1174, 66.12036
100.5995, 66.09607
101.0816, 65.88843
101.5637, 62.79211
102.0458, 62.29651
102.5280, 63.99670
103.0101, 68.38330
103.4922, 76.82202
103.9743, 90.68713
104.4564, 109.9812
104.9385, 125.1870
105.4207, 136.5775
105.9028, 144.7446
106.3849, 149.1647
106.8670, 150.1069
107.3491, 149.4258
107.8312, 148.1132
108.3134, 146.2494
108.7955, 145.8323
109.2776, 149.2312
109.7597, 153.5468
110.2418, 154.2388
110.7239, 149.8982
111.2061, 144.0951
111.6882, 139.7495
112.1703, 136.6017
112.6524, 134.0981
113.1345, 132.6678
113.6166, 132.0916
114.0988, 129.4972
114.5809, 122.7766
115.0630, 115.4314
115.5451, 109.6415
116.0272, 105.3010
116.5093, 101.2640
116.9915, 95.46326
117.4736, 86.07629
117.9557, 79.80188
118.4378, 77.15222
118.9199, 76.68579
119.4020, 77.97070
119.8842, 81.59875
120.3663, 86.96069
120.8484, 91.32581
121.3305, 93.69287
121.8126, 95.48755
122.2947, 97.39331
122.7769, 99.36719
123.2590, 100.1980
123.7411, 99.63391
124.2232, 98.20593
124.7053, 97.83313
125.1874, 99.17847
125.6696, 101.0566
126.1517, 103.1467
126.6338, 105.4298
127.1159, 107.6212
127.5980, 109.6056
128.0801, 110.9062
128.5623, 110.8440
129.0444, 109.4655
129.5265, 107.1492
130.0086, 104.3516
130.4907, 101.5579
130.9728, 98.55640
131.4550, 95.63098
131.9371, 92.71924
132.4192, 89.71484
132.9013, 85.93372
133.3834, 81.58716
133.8655, 78.14368
134.3477, 76.43311
134.8298, 75.01294
135.3119, 73.62378
135.7940, 72.01697
136.2761, 69.67090
136.7582, 66.17957
137.2404, 61.59558
137.7225, 57.47852
138.2046, 54.03894
138.6867, 50.94763
139.1688, 48.41467
139.6509, 46.24268
140.1331, 43.98608
140.6152, 41.31335
141.0973, 38.52185
141.5794, 33.92810
142.0615, 26.02649
142.5436, 17.80933
143.0258, 10.77332
143.5079, 5.299927
143.9900, 1.230469
144.4721, 1.494385
144.9542, 2.160034
145.4363, 3.145020
145.9185, 2.819702
146.4006, 3.011353
146.8827, 3.585693
147.3648, 4.219116
147.8469, 4.863281
148.3290, 5.248901
148.8112, 5.570801
149.2933, 5.101807
149.7754, 2.348267
150.2575, 1.614258
150.7396, 3.352173
151.2217, 0.8432620
151.7039, 3.254028
152.1860, 5.662720
152.6681, 6.252563
153.1502, 5.474487
153.6323, 3.412354
154.1144, 1.4771000E-02
154.5966, 3.332031
155.0787, 7.579468
155.5608, 10.93420
156.0429, 11.26843
156.5250, 8.009277
157.0071, 4.076416
157.4893, 3.956299
157.9714, 9.396484
158.4535, 13.44470
158.9356, 14.43640
159.4177, 14.23242
159.8998, 14.59802
160.3820, 16.35059
160.8641, 18.53479
161.3462, 18.89856
161.8283, 14.85266
162.3104, 12.96008
162.7925, 14.80920
163.2747, 18.82495
163.7568, 23.43298
164.2389, 27.82458
164.7210, 31.90283
165.2031, 35.70386
165.6852, 38.59985
166.1674, 41.90613
166.6495, 45.81555
167.1316, 50.36926
167.6137, 55.93640
168.0958, 63.13306
168.5779, 71.25342
169.0601, 75.99329
169.5422, 73.36523
170.0243, 71.78796
170.5064, 76.37036
170.9885, 85.46082
171.4706, 92.39453
171.9528, 92.20117
172.4349, 86.96521
172.9170, 86.12207
173.3991, 92.55884
173.8812, 100.8428
174.3633, 107.9203
174.8455, 113.8564
175.3276, 117.5665
175.8097, 116.3125
176.2918, 112.7611
176.7739, 111.6342
177.2560, 114.1544
177.7382, 119.3582
178.2203, 126.7505
178.7024, 137.3801
179.1845, 146.5848
179.6666, 151.1112
180.1487, 152.9279
180.6309, 154.2434
181.1130, 155.9155
181.5951, 157.7582
182.0772, 159.0938
182.5593, 158.5658
183.0414, 159.9479
183.5236, 165.7794
184.0057, 173.7428
184.4878, 180.6252
184.9699, 184.5310
185.4520, 185.7848
185.9341, 186.3402
186.4163, 183.3588
186.8984, 183.0459
187.3805, 189.9879
187.8626, 200.3536
188.3447, 207.3918
188.8268, 205.9318
189.3090, 196.3075
189.7911, 190.7068
190.2732, 192.8809
190.7553, 195.2449
191.2374, 196.2848
191.7195, 195.9435
192.2017, 194.6099
192.6838, 192.4850
193.1659, 189.5682
193.6480, 186.7708
194.1301, 183.4116
194.6122, 180.7445
195.0944, 180.1677
195.5765, 181.0266
196.0586, 180.8615
196.5407, 177.0818
197.0228, 169.5879
197.5049, 166.4425
197.9871, 173.2695
198.4692, 179.4000
198.9513, 176.6876
199.4334, 165.5312
199.9155, 154.0083
200.3976, 149.1562
200.8798, 150.5179
201.3619, 148.7659
201.8440, 141.4800
202.3261, 132.2684
202.8082, 124.1293
203.2903, 117.2443
203.7725, 110.8553
204.2546, 104.0741
204.7367, 97.31152
205.2188, 91.81262
205.7009, 89.28198
206.1830, 87.55237
206.6652, 83.30164
207.1473, 75.87036
207.6294, 68.62109
208.1115, 65.41907
208.5936, 63.68237
209.0757, 59.04712
209.5579, 47.18567
210.0400, 32.44080
210.5221, 24.50879
211.0042, 26.68469
211.4863, 28.46558
211.9685, 23.95874
212.4506, 15.85657
212.9327, 7.810303
213.4148, 1.143066
213.8969, 4.130981
214.3790, 7.857544
214.8612, 9.715332
215.3433, 10.28113
215.8254, 7.282104
216.3075, 3.854004
216.7896, 4.878418
217.2717, 14.21777
217.7539, 29.26782
218.2360, 38.09021
218.7181, 35.34143
219.2002, 32.98511
219.6823, 33.92627
220.1644, 37.11926
220.6466, 41.42114
221.1287, 46.48120
221.6108, 51.68054
222.0929, 53.46313
222.5750, 48.75586
223.0571, 43.63672
223.5393, 38.61938
224.0214, 33.98657
224.5035, 30.05688
224.9856, 27.10840
225.4677, 24.96167
225.9498, 22.76929
226.4320, 21.60107
226.9141, 19.16040
227.3962, 14.72876
227.8783, 8.880371
228.3604, 1.942627
228.8425, 6.117920
229.3247, 14.67310
229.8068, 20.25195
230.2889, 17.58716
230.7710, 18.03052
231.2531, 25.18237
231.7352, 37.00146
232.2174, 49.93286
232.6995, 62.10767
233.1816, 73.87573
233.6637, 86.91724
234.1458, 102.7695
234.6279, 117.8677
235.1101, 130.3953
235.5922, 141.6182
236.0743, 154.1462
236.5564, 169.2131
237.0385, 186.2146
237.5206, 202.5188
238.0028, 216.5222
238.4849, 232.4509
238.9670, 253.9253
239.4491, 278.2693
239.9312, 299.8823
240.4133, 316.0125
240.8955, 327.9993
241.3776, 338.2627
241.8597, 344.2576
242.3418, 354.4707
242.8239, 375.5854
243.3060, 403.8921
243.7882, 429.4031
244.2703, 448.0974
244.7524, 462.7944
245.2345, 477.6213
245.7166, 492.1313
246.1987, 508.0444
246.6809, 526.6306
247.1630, 547.2969
247.6451, 568.6633
248.1272, 590.7153
248.6093, 612.3176
249.0914, 631.9983
249.5736, 649.5498
250.0557, 667.0654
250.5378, 685.3689
251.0199, 704.3918
251.5020, 724.3672
251.9841, 746.7263
252.4663, 768.1040
252.9484, 786.1870
253.4305, 801.0557
253.9126, 814.2029
254.3947, 823.6453
254.8768, 831.2461
255.3590, 846.0486
255.8411, 872.9404
256.3232, 902.2957
256.8053, 928.4961
257.2874, 951.6299
257.7695, 971.9998
258.2516, 988.4285
258.7338, 1001.890
259.2159, 1016.291
259.6980, 1030.357
260.1801, 1047.891
260.6622, 1072.865
261.1443, 1102.323
261.6265, 1129.674
262.1086, 1149.536
262.5907, 1163.911
263.0728, 1181.498
263.5549, 1204.172
264.0370, 1227.567
264.5192, 1249.646
265.0013, 1271.060
265.4834, 1293.026
265.9655, 1316.608
266.4476, 1341.197
266.9297, 1365.185
267.4119, 1388.373
267.8940, 1410.549
268.3761, 1428.566
268.8582, 1446.912
269.3403, 1471.815
269.8224, 1506.835
270.3046, 1547.770
270.7867, 1583.327
271.2688, 1611.118
271.7509, 1637.241
272.2330, 1660.977
272.7151, 1685.199
273.1973, 1713.279
273.6794, 1746.863
274.1615, 1784.030
274.6436, 1821.064
275.1257, 1857.578
275.6078, 1892.774
276.0900, 1928.163
276.5721, 1962.609
277.0542, 1992.422
277.5363, 2016.939
278.0184, 2041.254
278.5005, 2074.836
278.9827, 2124.005
279.4648, 2168.217
279.9469, 2206.779
280.4290, 2241.588
280.9111, 2272.832
281.3932, 2300.835
281.8754, 2326.431
282.3575, 2350.173
282.8396, 2370.483
283.3217, 2393.182
283.8038, 2421.518
284.2859, 2449.264
284.7681, 2473.713
285.2502, 2494.541
285.7323, 2512.039
286.2144, 2526.055
286.6965, 2535.809
287.1786, 2546.490
287.6608, 2559.702
288.1429, 2572.023
288.6250, 2582.819
289.1071, 2591.775
289.5892, 2598.521
290.0714, 2603.056
290.5535, 2605.368
291.0356, 2603.272
291.5177, 2590.843
291.9998, 2580.270
292.4819, 2574.803
292.9641, 2573.681
293.4462, 2575.695
293.9283, 2580.658
294.4104, 2587.389
294.8925, 2588.270
295.3746, 2579.107
295.8568, 2568.282
296.3389, 2553.788
296.8210, 2539.077
297.3031, 2529.205
297.7852, 2526.670
298.2673, 2528.876
298.7495, 2528.077
299.2316, 2522.170
299.7137, 2515.638
300.1958, 2508.791
300.6779, 2501.503
301.1600, 2494.021
301.6422, 2486.318
302.1243, 2477.417
302.6064, 2465.164
303.0885, 2443.662
303.5706, 2429.219
304.0527, 2428.809
304.5349, 2430.684
305.0170, 2424.172
305.4991, 2407.917
305.9812, 2389.923
306.4633, 2381.266
306.9454, 2387.535
307.4276, 2385.020
307.9097, 2368.668
308.3918, 2349.600
308.8739, 2331.244
309.3560, 2315.260
309.8381, 2304.688
310.3203, 2303.390
310.8024, 2312.371
311.2845, 2310.134
311.7666, 2289.839
312.2487, 2268.205
312.7308, 2248.606
313.2130, 2231.519
313.6951, 2218.661
314.1772, 2212.361
314.6593, 2210.698
315.1414, 2199.008
315.6235, 2167.325
316.1057, 2136.926
316.5878, 2112.593
317.0699, 2091.097
317.5520, 2068.111
318.0341, 2041.722
318.5162, 2012.466
318.9984, 1981.793
319.4805, 1943.140
319.9626, 1912.200
320.4447, 1898.088
320.9268, 1886.816
321.4089, 1864.964
321.8911, 1829.199
322.3732, 1786.611
322.8553, 1747.050
323.3374, 1711.729
323.8195, 1677.309
324.3016, 1643.263
324.7838, 1610.571
325.2659, 1581.568
325.7480, 1555.279
326.2301, 1527.656
326.7122, 1494.144
327.1943, 1453.816
327.6765, 1416.025
328.1586, 1383.201
328.6407, 1350.197
329.1228, 1312.829
329.6049, 1273.578
330.0870, 1238.846
330.5692, 1213.724
331.0513, 1196.061
331.5334, 1169.762
332.0155, 1123.099
332.4976, 1080.368
332.9797, 1047.726
333.4619, 1020.162
333.9440, 990.6851
334.4261, 956.1221
334.9082, 919.4287
335.3904, 887.3525
335.8725, 863.1445
336.3546, 839.1797
336.8367, 817.5039
337.3188, 794.5537
337.8009, 766.2539
338.2831, 732.3936
338.7652, 697.2974
339.2473, 667.2720
339.7294, 644.5244
340.2115, 619.6240
340.6936, 590.5137
341.1758, 561.3135
341.6579, 534.6904
342.1400, 509.9370
342.6221, 484.1709
343.1042, 454.1758
343.5863, 419.9478
344.0685, 391.5146
344.5506, 373.4932
345.0327, 357.1943
345.5148, 343.9795
345.9969, 330.7178
346.4790, 312.2417
346.9612, 285.1948
347.4433, 253.0571
347.9254, 226.5098
348.4075, 209.0210
348.8896, 192.1436
349.3717, 173.3823
349.8539, 155.3770
350.3360, 140.9883
350.8181, 130.9751
351.3002, 122.6128
351.7823, 111.6157
352.2644, 96.75146
352.7466, 83.35742
353.2287, 72.71533
353.7108, 62.74561
354.1929, 52.67627
354.6750, 42.33887
355.1571, 31.61963
355.6393, 19.64111
356.1214, 6.413086
356.6035, 2.637207
357.0856, 3.162598
357.5677, 4.493652
358.0498, 10.63184
358.5320, 19.71191
359.0141, 28.59619
359.4962, 35.84814
359.9783, 41.44336
360.4604, 44.68066
360.9425, 43.75928
361.4247, 44.77881
361.9068, 54.36426
362.3889, 64.06934
362.8710, 64.81689
363.3531, 53.92627
363.8352, 39.78613
364.3174, 32.37061
364.7995, 32.28223
365.2816, 32.75928
365.7637, 33.50781
366.2458, 33.75586
366.7279, 33.70361
367.2101, 33.02930
367.6922, 30.15967
368.1743, 21.03418
368.6564, 8.021973
369.1385, 3.516602
369.6206, 13.18311
370.1028, 21.06982
370.5849, 15.77295
371.0670, 2.507324
371.5491, 9.674316
372.0312, 17.04150
372.5133, 22.50488
372.9955, 30.68066
373.4776, 41.90283
373.9597, 52.03760
374.4418, 56.14404
374.9239, 60.36182
375.4060, 74.55811
375.8882, 102.8237
376.3703, 126.9844
376.8524, 128.2466
377.3345, 113.2554
377.8166, 111.0527
378.2987, 132.5605
378.7809, 160.5518
379.2630, 175.7998
379.7451, 179.9878
380.2272, 183.5747
380.7093, 188.1016
381.1914, 194.7324
381.6736, 205.7925
382.1557, 221.5039
382.6378, 238.3877
383.1199, 254.4014
383.6020, 269.4614
384.0841, 283.7432
384.5663, 297.2754
385.0484, 310.0625
385.5305, 322.9546
386.0126, 335.2305
386.4947, 344.1655
386.9768, 347.8789
387.4590, 349.1323
387.9411, 353.2217
388.4232, 358.8169
388.9053, 369.7793
389.3874, 393.0859
389.8695, 419.1958
390.3517, 437.4609
390.8338, 445.9678
391.3159, 447.9009
391.7980, 444.9722
392.2801, 435.9429
392.7622, 435.4507
393.2444, 450.8281
393.7265, 466.9731
394.2086, 475.1187
394.6907, 477.5566
395.1728, 481.7246
395.6549, 492.0747
396.1371, 506.9341
396.6192, 519.2261
397.1013, 527.9824
397.5834, 535.2310
398.0655, 540.1929
398.5476, 544.1235
399.0298, 547.5142
399.5119, 550.7729
399.9940, 555.3838
400.4761, 563.4561
400.9582, 575.7222
401.4403, 588.9780
401.9225, 604.8066
402.4046, 619.9795
402.8867, 633.5918
403.3688, 645.2866
403.8509, 654.7529
404.3330, 661.6738
404.8152, 666.3159
405.2973, 670.1367
405.7794, 672.0674
406.2615, 674.7837
406.7436, 678.3984
407.2257, 683.1255
407.7079, 688.9258
408.1900, 695.8442
408.6721, 704.4438
409.1542, 716.4785
409.6363, 733.1938
410.1184, 746.8027
410.6006, 754.1938
411.0827, 760.2739
411.5648, 767.6934
412.0469, 776.0732
412.5290, 783.5171
413.0111, 789.0649
413.4933, 792.8447
413.9754, 793.9062
414.4575, 789.6382
414.9396, 790.1763
415.4217, 804.4312
415.9038, 823.6362
416.3860, 838.0752
416.8681, 845.1421
417.3502, 850.1538
417.8323, 857.1655
418.3144, 866.4385
418.7965, 878.8125
419.2787, 896.9014
419.7608, 913.3027
420.2429, 918.9663
420.7250, 914.8477
421.2071, 911.2651
421.6892, 914.4106
422.1714, 920.3008
422.6535, 920.4771
423.1356, 913.9248
423.6177, 911.7847
424.0998, 924.5190
424.5819, 947.6548
425.0641, 960.4644
425.5462, 954.8345
426.0283, 949.0283
426.5104, 953.4561
426.9925, 963.1689
427.4746, 967.8276
427.9568, 963.7681
428.4389, 956.0449
428.9210, 951.9282
429.4031, 953.0586
429.8852, 953.8320
430.3673, 955.3911
430.8495, 954.1626
431.3316, 947.7114
431.8137, 937.0356
432.2958, 925.6592
432.7779, 915.9771
433.2600, 907.5708
433.7422, 898.0425
434.2243, 882.0303
434.7064, 871.5474
435.1885, 873.6035
435.6706, 879.3418
436.1527, 879.2603
436.6349, 870.5493
437.1170, 857.0298
437.5991, 843.3076
438.0812, 828.3696
438.5633, 816.9946
439.0454, 816.0400
439.5276, 812.2847
440.0097, 799.8354
440.4918, 780.3936
440.9739, 757.9824
441.4560, 734.2920
441.9381, 710.4902
442.4203, 689.5830
442.9024, 671.9658
443.3845, 656.5957
443.8666, 647.0864
444.3487, 637.3833
444.8308, 621.0854
445.3130, 597.1890
445.7951, 573.2954
446.2772, 556.0693
446.7593, 544.4419
447.2414, 533.7471
447.7235, 525.0156
448.2057, 514.0244
448.6878, 494.3291
449.1699, 469.7124
449.6520, 449.8291
450.1341, 441.5669
450.6162, 434.7173
451.0984, 417.1211
451.5805, 390.9932
452.0626, 371.4194
452.5447, 367.0713
453.0268, 368.7324
453.5089, 356.6323
453.9911, 326.7827
454.4732, 304.6694
454.9553, 304.1641
455.4374, 309.3687
455.9195, 302.8496
456.4016, 283.3311
456.8838, 260.8774
457.3659, 243.1343
457.8480, 229.8711
458.3301, 216.2700
458.8122, 200.9980
459.2943, 186.9209
459.7765, 174.1509
460.2586, 163.1401
460.7407, 155.5005
461.2228, 151.5146
461.7049, 147.7124
462.1870, 138.2261
462.6692, 119.8857
463.1513, 106.2363
463.6334, 101.4761
464.1155, 97.14062
464.5976, 88.54346
465.0797, 77.57764
465.5619, 69.26904
466.0440, 67.33936
466.5261, 68.68408
467.0082, 63.69824
467.4903, 48.47461
467.9724, 37.52979
468.4546, 39.08887
468.9367, 43.13428
469.4188, 42.66504
469.9009, 36.92334
470.3830, 29.39014
470.8651, 22.47852
471.3473, 15.85254
471.8294, 7.379395
472.3115, 4.699219
472.7936, 13.61719
473.2757, 11.60840
473.7578, 3.883301
474.2400, 4.8830002E-03
474.7221, 2.018555
475.2042, 7.032227
475.6863, 15.33496
476.1684, 25.23535
476.6505, 31.92676
477.1327, 34.13428
477.6148, 32.31152
478.0969, 24.98633
478.5790, 10.45996
479.0611, 4.463379
479.5432, 15.22119
480.0254, 28.15820
480.5075, 34.39404
480.9896, 34.85205
481.4717, 34.19043
481.9538, 35.02197
482.4359, 36.16260
482.9181, 34.15430
483.4002, 25.23975
483.8823, 18.59131
484.3644, 16.10791
484.8465, 14.46289
485.3286, 10.49561
485.8108, 4.629395
486.2929, 0.5473630
486.7750, 2.611816
487.2571, 9.385742
487.7392, 7.228516
488.2213, 11.88965
488.7035, 26.70752
489.1856, 27.78564
489.6677, 24.25098
490.1498, 25.61328
490.6319, 34.17725
491.1140, 44.95068
491.5962, 53.91357
492.0783, 61.02539
492.5604, 65.03564
493.0425, 63.69385
493.5246, 63.47900
494.0067, 72.34326
494.4889, 85.89258
494.9710, 93.79590
495.4531, 89.72363
495.9352, 83.95996
496.4173, 84.28271
496.8994, 89.77051
497.3816, 97.71191
497.8637, 107.9019
498.3458, 117.7905
498.8279, 122.3667
499.3100, 119.1973
499.7921, 123.6240
500.2743, 146.7139
500.7564, 168.9316
501.2385, 174.2710
501.7206, 167.1245
502.2027, 161.9727
502.6848, 166.9111
503.1670, 179.7754
503.6491, 194.5381
504.1312, 215.3784
504.6133, 231.1772
505.0954, 240.2456
505.5775, 245.8096
506.0597, 248.1777
506.5418, 248.7236
507.0239, 250.6831
507.5060, 256.3350
507.9881, 265.5664
508.4702, 279.0498
508.9524, 300.7900
509.4345, 317.6118
509.9166, 319.3340
510.3987, 317.5889
510.8808, 323.6743
511.3629, 339.4072
511.8451, 355.4512
512.3271, 363.9766
512.8093, 367.4805
513.2914, 372.6396
513.7735, 379.9902
514.2556, 389.5532
514.7377, 403.8169
515.2198, 420.0430
515.7020, 429.1040
516.1841, 425.0166
516.6662, 422.0376
517.1483, 427.3511
517.6304, 437.5869
518.1125, 447.2021
518.5947, 454.8467
519.0768, 462.6577
519.5589, 473.2480
520.0410, 487.1572
520.5231, 498.8389
521.0052, 509.3203
521.4874, 516.8452
521.9695, 518.1514
522.4516, 517.1074
522.9337, 519.0088
523.4158, 525.8105
523.8979, 535.6362
524.3801, 546.2334
524.8622, 557.9521
525.3443, 568.4971
525.8264, 576.9419
526.3085, 585.1499
526.7906, 594.0869
527.2728, 603.3374
527.7549, 612.1050
528.2370, 620.0547
528.7191, 627.2065
529.2012, 633.2549
529.6833, 638.1929
530.1655, 643.3994
530.6476, 650.0591
531.1297, 656.6934
531.6118, 660.7078
532.0939, 662.3638
532.5760, 664.6562
533.0582, 669.2783
533.5403, 673.4019
534.0224, 673.1262
534.5045, 670.5415
534.9866, 672.8882
535.4688, 684.0156
535.9509, 698.6338
536.4330, 706.2502
536.9151, 701.0059
537.3972, 700.2139
537.8793, 708.9031
538.3615, 717.0273
538.8436, 718.1064
539.3257, 714.3574
539.8078, 712.1660
540.2899, 715.4390
540.7720, 720.7856
541.2542, 719.0430
541.7363, 706.2603
542.2184, 698.8889
542.7005, 706.4355
543.1826, 714.1116
543.6647, 711.1709
544.1469, 700.0740
544.6290, 692.0366
545.1111, 695.2148
545.5932, 703.0383
546.0753, 704.3225
546.5574, 698.8787
547.0396, 696.9780
547.5217, 704.4875
548.0038, 714.7371
548.4859, 715.8989
548.9680, 707.1160
549.4501, 701.1318
549.9323, 703.4844
550.4144, 706.8828
550.8965, 704.4094
551.3786, 697.6348
551.8607, 693.9346
552.3428, 697.7869
552.8250, 704.3638
553.3071, 700.8540
553.7892, 675.4121
554.2713, 661.5469
554.7534, 665.7627
555.2355, 674.0391
555.7177, 681.9160
556.1998, 687.0881
556.6819, 686.0608
557.1640, 675.8794
557.6461, 660.2034
558.1282, 646.4438
558.6104, 634.4753
559.0925, 625.0649
559.5746, 619.7170
560.0567, 615.7617
560.5388, 611.3818
561.0209, 606.4541
561.5031, 599.8813
561.9852, 587.8555
562.4673, 576.5142
562.9494, 575.9124
563.4315, 582.9995
563.9136, 581.9614
564.3958, 565.0735
564.8779, 540.6196
565.3600, 522.3210
565.8421, 511.9897
566.3242, 503.8564
566.8063, 500.6455
567.2885, 496.9216
567.7706, 489.4734
568.2527, 479.1384
568.7348, 467.7590
569.2169, 456.1096
569.6990, 445.3130
570.1812, 438.9683
570.6633, 439.9526
571.1454, 433.6570
571.6275, 410.1033
572.1096, 388.3000
572.5917, 378.8962
573.0739, 378.3066
573.5560, 377.7761
574.0381, 374.3181
574.5202, 368.8867
575.0023, 362.7798
575.4844, 355.6843
575.9666, 345.1230
576.4487, 329.0234
576.9308, 314.2432
577.4129, 308.7434
577.8950, 312.8665
578.3771, 315.0728
578.8593, 315.5232
579.3414, 314.0059
579.8235, 307.8679
580.3056, 299.3503
580.7877, 292.7197
581.2698, 289.3945
581.7520, 286.4612
582.2341, 279.6340
582.7162, 268.2859
583.1984, 256.4890
583.6805, 239.0481
584.1626, 228.6318
584.6447, 235.0032
585.1268, 246.8325
585.6089, 249.6326
586.0911, 239.4905
586.5732, 226.8660
587.0553, 222.0205
587.5374, 222.5703
588.0195, 219.5784
588.5016, 211.7107
588.9838, 203.2375
589.4659, 195.9836
589.9480, 190.2178
590.4301, 186.9255
590.9122, 188.9761
591.3943, 189.1904
591.8765, 185.3721
592.3586, 178.7048
592.8407, 166.7764
593.3228, 151.7593
593.8049, 144.8154
594.2870, 155.6919
594.7692, 178.8586
595.2513, 187.9941
595.7334, 173.2351
596.2155, 161.6870
596.6976, 158.4114
597.1797, 157.0410
597.6619, 153.2288
598.1440, 147.1621
598.6261, 141.4504
599.1082, 137.2358
599.5903, 134.7102
600.0724, 134.5557
600.5546, 136.7600
601.0367, 140.1917
601.5188, 146.2063
602.0009, 150.6897
602.4830, 146.1072
602.9651, 132.7190
603.4473, 123.9067
603.9294, 127.1899
604.4115, 130.1265
604.8936, 122.5054
605.3757, 109.2971
605.8578, 101.8604
606.3400, 104.2649
606.8221, 109.5396
607.3042, 107.1912
607.7863, 95.37158
608.2684, 88.36426
608.7505, 91.29199
609.2327, 93.26636
609.7148, 88.53247
610.1969, 82.28174
610.6790, 82.57910
611.1611, 91.84570
611.6432, 100.0762
612.1254, 96.90796
612.6075, 85.62793
613.0896, 76.15991
613.5717, 69.10742
614.0538, 64.54785
614.5359, 63.73779
615.0181, 64.87939
615.5002, 62.30493
615.9823, 52.60156
616.4644, 47.08301
616.9465, 53.98560
617.4286, 61.54858
617.9108, 57.45337
618.3929, 43.98779
618.8750, 32.71069
619.3571, 31.09912
619.8392, 35.34937
620.3214, 35.11621
620.8035, 28.39893
621.2856, 23.41943
621.7677, 23.08325
622.2498, 22.76562
622.7319, 19.73535
623.2141, 14.83350
623.6962, 10.26416
624.1783, 6.393799
624.6604, 3.955811
625.1425, 4.796387
625.6246, 7.712158
626.1068, 8.493896
626.5889, 6.082275
627.0710, 2.619873
627.5531, 9.0330001E-03
628.0352, 1.804932
628.5173, 3.853516
628.9995, 8.618896
629.4816, 10.38477
629.9637, 4.722168
630.4458, 2.431396
630.9279, 4.890137
631.4100, 2.248535
631.8922, 1.445801
632.3743, 2.939697
632.8564, 2.921387
633.3385, 4.029541
633.8206, 6.747559
634.3027, 8.395020
634.7849, 6.230957
635.2670, 4.590088
635.7491, 10.34253
636.2312, 22.40210
636.7133, 27.35181
637.1954, 12.27100
637.6776, 3.708252
638.1597, 2.121094
638.6418, 10.51904
639.1239, 16.92798
639.6060, 11.41797
640.0881, 2.177734
640.5703, 0.4755860
641.0524, 4.077393
641.5345, 6.546875
642.0166, 3.375488
642.4987, 1.648193
642.9808, 5.224365
643.4630, 10.75806
643.9451, 14.16479
644.4272, 14.42285
644.9093, 13.34546
645.3914, 12.21484
645.8735, 11.05176
646.3557, 10.28906
646.8378, 9.627197
647.3199, 4.646973
647.8020, 8.038086
648.2841, 21.90942
648.7662, 26.08569
649.2484, 18.42871
649.7305, 13.87402
650.2126, 16.55420
650.6947, 20.48267
651.1768, 20.89160
651.6589, 19.87549
652.1411, 22.42456
652.6232, 30.20410
653.1053, 39.71094
653.5874, 46.74683
654.0695, 51.47583
654.5516, 54.22998
655.0338, 53.92529
655.5159, 53.94849
655.9980, 56.58154
656.4801, 60.02637
656.9622, 62.04932
657.4443, 62.16187
657.9265, 62.45898
658.4086, 66.05176
658.8907, 68.82227
659.3728, 63.72510
659.8549, 52.97437
660.3370, 46.80664
660.8192, 50.09619
661.3013, 58.61597
661.7834, 65.41772
662.2655, 70.77344
662.7476, 73.37622
663.2297, 69.30469
663.7119, 66.77637
664.1940, 70.61694
664.6761, 76.48682
665.1582, 77.79785
665.6403, 72.79810
666.1224, 67.92065
666.6046, 68.46851
667.0867, 73.07104
667.5688, 79.60376
668.0509, 87.96411
668.5330, 93.99902
669.0151, 95.37817
669.4973, 93.62671
669.9794, 91.70825
670.4615, 89.97339
670.9436, 87.05371
671.4257, 81.74731
671.9078, 76.48022
672.3900, 72.18481
672.8721, 68.87695
673.3542, 66.11865
673.8363, 63.79614
674.3184, 62.85181
674.8005, 65.51172
675.2827, 71.17188
675.7648, 73.48145
676.2469, 71.40210
676.7290, 69.19434
677.2111, 68.88647
677.6932, 69.63965
678.1754, 70.22900
678.6575, 70.92676
679.1396, 70.09399
679.6217, 66.30151
680.1038, 61.73218
680.5859, 57.68970
681.0681, 54.26660
681.5502, 51.46777
682.0323, 49.31421
682.5144, 47.64844
682.9965, 46.40601
683.4786, 45.62354
683.9608, 44.52881
684.4429, 41.21045
684.9250, 41.07690
685.4071, 50.99780
685.8892, 62.64941
686.3713, 66.64282
686.8535, 61.69458
687.3356, 54.97046
687.8177, 48.46851
688.2998, 42.89526
688.7819, 38.27026
689.2640, 35.12207
689.7462, 36.01709
690.2283, 42.02100
690.7104, 48.70312
691.1925, 49.60962
691.6746, 44.14795
692.1567, 37.25635
692.6389, 23.69824
693.1210, 16.37036
693.6031, 23.17334
694.0852, 33.53809
694.5673, 38.06372
695.0494, 36.65479
695.5316, 32.88208
696.0137, 26.57422
696.4958, 19.19141
696.9779, 13.78223
697.4600, 10.62866
697.9421, 7.908203
698.4243, 4.654785
698.9064, 8.1298999E-02
699.3885, 7.132324
699.8706, 17.32373
700.3527, 21.75513
700.8348, 15.17261
701.3170, 9.944824
701.7991, 8.616699
702.2812, 8.859619
702.7633, 7.877930
703.2454, 5.895996
703.7275, 6.375732
704.2097, 14.21436
704.6918, 23.56006
705.1739, 24.37988
705.6560, 17.50830
706.1381, 9.677002
706.6202, 2.163574
707.1024, 2.613037
707.5845, 1.461670
708.0666, 5.464844
708.5487, 9.247314
709.0308, 8.195068
709.5129, 6.543213
709.9951, 5.733154
710.4772, 3.908936
710.9593, 1.214844
711.4414, 8.982178
711.9235, 16.90015
712.4056, 24.67163
712.8878, 29.65234
713.3699, 23.71021
713.8520, 9.403809
714.3341, 7.200195
714.8162, 22.98853
715.2983, 40.62939
715.7805, 46.99536
716.2626, 44.13135
716.7447, 43.74438
717.2268, 47.54053
717.7089, 51.22290
718.1910, 56.21948
718.6732, 59.49390
719.1553, 57.47974
719.6374, 52.02417
720.1195, 47.72656
720.6016, 46.80713
721.0837, 47.85620
721.5659, 49.23682
722.0480, 50.98853
722.5301, 53.68555
723.0122, 57.61523
723.4943, 60.75244
723.9764, 61.31372
724.4586, 60.67383
724.9407, 62.31274
725.4228, 66.68188
725.9049, 72.13086
726.3870, 80.58716
726.8691, 88.08008
727.3513, 91.50879
727.8334, 92.74634
728.3155, 95.85913
728.7976, 102.0203
729.2797, 106.7744
729.7618, 102.8718
730.2440, 93.70337
730.7261, 92.88037
731.2082, 101.3555
731.6903, 108.2498
732.1724, 108.0789
732.6545, 106.1223
733.1367, 110.9463
733.6188, 124.7563
734.1009, 132.5022
734.5830, 128.8606
735.0651, 125.6067
735.5472, 126.9094
736.0294, 130.6489
736.5115, 134.6243
736.9936, 138.2653
737.4757, 141.6320
737.9578, 144.7053
738.4399, 147.5815
738.9221, 150.2224
739.4042, 152.6874
739.8863, 156.0310
740.3684, 160.7148
740.8505, 165.5825
741.3326, 169.7375
741.8148, 173.1498
742.2969, 175.4711
742.7790, 174.6809
743.2611, 175.7573
743.7432, 179.0413
744.2253, 184.5250
744.7075, 194.2468
745.1896, 206.0869
745.6717, 214.6377
746.1538, 216.9491
746.6359, 216.8103
747.1180, 218.6696
747.6002, 221.9131
748.0823, 223.3809
748.5644, 222.5454
749.0465, 224.6649
749.5286, 233.7476
750.0107, 246.4127
750.4929, 254.6606
750.9750, 257.1829
751.4571, 258.5464
751.9392, 257.3452
752.4213, 256.6307
752.9034, 257.1891
753.3856, 259.0961
753.8677, 262.8037
754.3498, 268.2687
754.8319, 273.5699
755.3140, 276.7260
755.7961, 279.0706
756.2783, 282.9576
756.7604, 288.0177
757.2425, 292.2513
757.7246, 294.7941
758.2067, 297.3635
758.6888, 302.7966
759.1710, 310.9705
759.6531, 314.3523
760.1352, 308.7136
760.6173, 304.4871
761.0994, 303.3932
761.5815, 303.8947
762.0637, 303.7510
762.5458, 303.6294
763.0279, 307.4050
763.5100, 319.8142
763.9921, 331.5049
764.4742, 334.7146
764.9564, 331.5493
765.4385, 323.3955
765.9206, 311.4602
766.4027, 303.9663
766.8848, 306.6086
767.3669, 316.1045
767.8491, 325.4282
768.3312, 335.9003
768.8133, 341.5890
769.2954, 340.2216
769.7775, 336.5769
770.2596, 330.3031
770.7418, 324.1472
771.2239, 322.1044
771.7060, 324.8091
772.1881, 328.2278
772.6702, 330.8638
773.1523, 333.7222
773.6345, 338.4966
774.1166, 343.9607
774.5987, 347.5592
775.0808, 348.6323
775.5629, 348.5814
776.0450, 349.0167
776.5272, 349.3936
777.0093, 345.9404
777.4914, 337.0959
777.9735, 333.2955
778.4556, 339.2825
778.9377, 347.2996
779.4199, 350.8076
779.9020, 350.4839
780.3841, 349.8208
780.8662, 349.3650
781.3483, 347.9271
781.8304, 343.6884
782.3126, 339.5980
782.7947, 338.6401
783.2768, 339.8512
783.7589, 340.5986
784.2410, 339.7296
784.7231, 337.4255
785.2053, 333.1849
785.6874, 327.6626
786.1695, 322.9141
786.6516, 318.9972
787.1337, 318.0708
787.6158, 322.1095
788.0980, 327.3009
788.5801, 327.5549
789.0622, 321.9014
789.5443, 317.8682
790.0264, 315.8650
790.5085, 314.9657
790.9907, 316.7924
791.4728, 318.3378
791.9549, 315.9805
792.4370, 310.4287
792.9191, 306.2301
793.4012, 306.6825
793.8834, 307.7944
794.3655, 305.0599
794.8476, 300.2073
795.3297, 297.3535
795.8118, 296.7908
796.2939, 295.3481
796.7761, 290.7834
797.2582, 284.7151
797.7403, 281.4039
798.2224, 281.7906
798.7045, 280.6282
799.1866, 277.1799
799.6688, 273.2158
800.1509, 268.9161
800.6330, 264.8575
801.1151, 262.0127
801.5972, 260.6394
802.0793, 258.6282
802.5615, 256.1364
803.0436, 252.2030
803.5257, 243.7023
804.0078, 234.3242
804.4899, 230.5901
804.9720, 232.9229
805.4542, 235.3710
805.9363, 233.1592
806.4184, 228.3466
806.9005, 225.4458
807.3826, 224.4127
807.8647, 223.8068
808.3469, 223.6897
808.8290, 221.3523
809.3111, 214.3743
809.7932, 204.6749
810.2753, 197.8531
810.7574, 193.9725
811.2396, 192.9343
811.7217, 199.5729
812.2038, 203.7244
812.6859, 198.9683
813.1680, 189.8907
813.6501, 182.9735
814.1323, 179.5936
814.6144, 176.1267
815.0965, 168.8400
815.5786, 161.4506
816.0607, 159.7509
816.5428, 161.2120
817.0250, 158.4491
817.5071, 150.2419
817.9892, 142.9287
818.4713, 141.7863
818.9534, 144.3882
819.4355, 142.9463
819.9177, 136.4722
820.3998, 132.4185
820.8819, 133.2700
821.3640, 133.3131
821.8461, 128.4225
822.3282, 120.5181
822.8104, 113.1130
823.2925, 105.8896
823.7746, 101.9871
824.2567, 103.4645
824.7388, 106.3082
825.2209, 110.2096
825.7031, 113.2487
826.1852, 112.1837
826.6673, 106.7833
827.1494, 100.6421
827.6315, 95.92114
828.1136, 92.94666
828.5958, 94.48291
829.0779, 98.87952
829.5600, 95.82080
830.0421, 83.06470
830.5242, 72.61121
831.0063, 74.06091
831.4885, 82.58386
831.9706, 82.98303
832.4527, 69.93091
832.9348, 63.07080
833.4169, 66.73267
833.8990, 71.19885
834.3812, 74.02454
834.8633, 74.74207
835.3454, 71.88818
835.8275, 65.32642
836.3096, 60.17151
836.7917, 58.60181
837.2739, 58.29272
837.7560, 59.08020
838.2381, 59.65247
838.7202, 57.88892
839.2023, 53.75000
839.6844, 49.04614
840.1666, 44.85071
840.6487, 41.69092
841.1308, 41.55847
841.6129, 43.76050
842.0950, 42.93750
842.5771, 38.22314
843.0593, 34.16968
843.5414, 33.50281
844.0235, 34.43744
844.5056, 33.39075
844.9877, 29.58514
845.4698, 27.74921
845.9520, 30.01044
846.4341, 31.49231
846.9162, 30.50464
847.3983, 28.70386
847.8804, 27.66541
848.3625, 27.27991
848.8447, 26.19250
849.3268, 23.09857
849.8089, 20.59796
850.2910, 20.38416
850.7731, 21.34723
851.2552, 22.41504
851.7374, 23.40906
852.2195, 24.62238
852.7016, 26.20709
853.1837, 26.94995
853.6658, 24.87634
854.1479, 20.52106
854.6301, 15.73932
855.1122, 10.54565
855.5943, 8.087402
856.0764, 10.07361
856.5585, 12.94690
857.0406, 12.77032
857.5228, 9.885254
858.0049, 8.246643
858.4870, 9.961243
858.9691, 9.356140
859.4512, 3.369202
859.9333, 2.302856
860.4155, 4.818970
860.8976, 4.852905
861.3797, 3.661560
861.8618, 1.178467
862.3439, 0.7511600
862.8260, 1.465942
863.3082, 1.216553
863.7903, 0.3408810
864.2724, 2.475830
864.7545, 4.711304
865.2366, 6.583862
865.7188, 6.147827
866.2009, 0.9699100
866.6830, 5.801025
867.1651, 7.817932
867.6472, 5.703491
868.1293, 3.146362
868.6115, 0.6604610
869.0936, 1.669250
869.5757, 4.004578
870.0578, 5.584290
870.5399, 4.517334
871.0220, 0.1887210
871.5042, 2.493958
871.9863, 1.106445
872.4684, 0.5563960
872.9505, 2.010864
873.4326, 2.778198
873.9147, 1.852478
874.3969, 0.2776490
874.8790, 0.7003780
875.3611, 3.547363
875.8432, 6.065857
876.3253, 2.197571
876.8074, 2.225708
877.2896, 1.249207
877.7717, 3.166260
878.2538, 6.017761
878.7359, 5.587646
879.2180, 3.637817
879.7001, 0.3127440
880.1823, 2.657837
880.6644, 0.8709110
881.1465, 4.410645
881.6286, 7.434021
882.1107, 6.732727
882.5928, 5.185486
883.0750, 5.300903
883.5571, 6.411804
884.0392, 6.018188
884.5213, 3.783325
885.0034, 1.451599
885.4855, 1.327148
885.9677, 3.097473
886.4498, 2.841003
886.9319, 1.296814
887.4140, 0.4138790
887.8961, 2.388062
888.3782, 3.374878
888.8604, 2.572571
889.3425, 1.727722
889.8246, 1.666626
890.3067, 1.477600
890.7888, 0.3137820
891.2709, 1.711670
891.7531, 4.113708
892.2352, 6.994446
892.7173, 9.310181
893.1994, 9.270325
893.6815, 9.079590
894.1636, 12.69037
894.6458, 18.24622
895.1279, 19.77039
895.6100, 15.74737
896.0921, 11.63654
896.5742, 13.09375
897.0563, 17.91626
897.5385, 20.30206
898.0206, 20.38763
898.5027, 19.59052
898.9848, 17.93781
899.4669, 18.17133
899.9490, 22.68958
900.4312, 28.93506
900.9133, 30.73511
901.3954, 26.56055
901.8775, 25.14960
902.3596, 28.60547
902.8417, 31.20941
903.3239, 29.07141
903.8060, 27.29962
904.2881, 31.85297
904.7702, 41.46661
905.2523, 48.15131
905.7344, 49.79346
906.2166, 50.37543
906.6987, 50.00012
907.1808, 49.61786
907.6629, 49.86560
908.1450, 50.69019
908.6271, 52.32782
909.1093, 54.73859
909.5914, 55.87531
910.0735, 52.40979
910.5556, 48.47406
911.0377, 49.27185
911.5198, 52.87152
912.0020, 55.80151
912.4841, 57.27960
912.9662, 57.10919
913.4483, 54.95197
913.9304, 51.89374
914.4125, 49.73395
914.8947, 48.56476
915.3768, 49.43732
915.8589, 52.51941
916.3410, 54.84247
916.8231, 55.53192
917.3052, 54.10333
917.7874, 49.51477
918.2695, 42.12921
918.7516, 36.75562
919.2337, 34.02869
919.7158, 32.86676
920.1979, 34.93903
920.6801, 35.61896
921.1622, 29.78760
921.6443, 22.16986
922.1264, 21.34290
922.6085, 28.80688
923.0906, 32.04083
923.5728, 25.30164
924.0549, 20.24823
924.5370, 22.07654
925.0191, 25.81976
925.5012, 27.51324
925.9833, 27.13043
926.4655, 25.90192
926.9476, 23.77844
927.4297, 22.20776
927.9118, 23.18896
928.3939, 25.02069
928.8760, 26.27765
929.3582, 26.20850
929.8403, 23.02893
930.3224, 16.98712
930.8045, 12.65839
931.2866, 14.54041
931.7687, 19.13782
932.2509, 18.69812
932.7330, 14.60895
933.2151, 14.36481
933.6972, 18.51196
934.1793, 19.90985
934.6614, 14.52045
935.1436, 7.748657
935.6257, 7.917236
936.1078, 14.57288
936.5899, 18.83563
937.0720, 20.58820
937.5541, 20.80475
938.0363, 18.80438
938.5184, 16.78101
939.0005, 16.40356
939.4826, 17.02631
939.9647, 16.57123
940.4468, 13.59528
940.9290, 13.42566
941.4111, 20.13867
941.8932, 24.49756
942.3753, 22.36731
942.8574, 17.95935
943.3395, 13.66327
943.8217, 10.40027
944.3038, 11.61200
944.7859, 21.44269
945.2680, 28.96844
945.7501, 28.76837
946.2322, 26.32892
946.7144, 25.52686
947.1965, 25.67261
947.6786, 24.70276
948.1607, 22.38562
948.6428, 20.86639
949.1249, 21.73041
949.6071, 23.68750
950.0892, 26.15735
950.5713, 28.44299
951.0534, 29.10205
951.5355, 28.27783
952.0176, 27.07538
952.4998, 25.96564
952.9819, 25.44507
953.4640, 27.14380
953.9461, 29.48657
954.4282, 27.02020
954.9103, 20.57977
955.3925, 16.05719
955.8746, 14.60394
956.3567, 14.53888
956.8388, 14.96484
957.3209, 15.39435
957.8030, 14.34576
958.2852, 11.53894
958.7673, 11.00708
959.2494, 13.85034
959.7315, 14.11542
960.2136, 8.958801
960.6957, 2.693909
961.1779, 0.8342900
961.6600, 1.883057
962.1421, 1.744446
962.6242, 0.7813720
963.1063, 2.116150
963.5884, 1.202026
964.0706, 0.3568730
964.5527, 0.7463990
965.0348, 1.439148
965.5169, 1.460083
965.9990, 0.7951660
966.4811, 0.2256470
966.9633, 2.234802
967.4454, 3.658020
967.9275, 4.066101
968.4096, 3.911133
968.8917, 3.057861
969.3738, 1.972290
969.8560, 1.799500
970.3381, 2.676697
970.8202, 2.166687
971.3023, 3.431335
971.7844, 7.885498
972.2665, 5.628967
972.7487, 0.9359740
973.2308, 1.186035
973.7129, 0.9730830
974.1950, 1.166260
974.6771, 2.821655
975.1592, 3.992432
975.6414, 1.417419
976.1235, 1.535583
976.6056, 1.261169
977.0877, 7.177307
977.5698, 9.451050
978.0519, 7.474487
978.5341, 5.733643
979.0162, 6.997803
979.4983, 8.782043
979.9804, 6.177673
980.4625, 0.9898680
980.9446, 1.916382
981.4268, 8.227783
981.9089, 9.658569
982.3910, 3.431030
982.8731, 2.489563
983.3552, 1.501831
983.8373, 3.657837
984.3195, 5.946350
984.8016, 5.167053
985.2837, 6.559082
985.7658, 11.03369
986.2479, 13.29376
986.7300, 11.11725
987.2122, 7.061035
987.6943, 3.026672
988.1764, 0.4083250
988.6585, 2.5330000E-02
989.1406, 5.831543
989.6227, 10.27338
990.1049, 13.62537
990.5870, 14.64600
991.0691, 11.24542
991.5512, 6.554504
992.0333, 4.774353
992.5154, 5.884705
992.9976, 5.660583
993.4797, 1.643372
993.9618, 0.5938720
994.4439, 0.1489260
994.9260, 1.962280
995.4081, 4.927368
995.8903, 7.912109
996.3724, 9.496887
996.8545, 9.546509
997.3366, 8.549988
997.8187, 5.103699
998.3008, 2.771973
998.7830, 4.214539
999.2651, 5.333069
999.7472, 1.823059
1000.229, 3.432129
1000.711, 4.839233
1001.194, 1.392456
1001.676, 1.758911
1002.158, 2.002319
1002.640, 1.490540
1003.122, 1.116638
1003.604, 1.116089
1004.086, 1.971375
1004.568, 3.235962
1005.050, 4.133484
1005.533, 4.415710
1006.015, 3.608093
1006.497, 0.2346190
1006.979, 3.785950
1007.461, 2.935181
1007.943, 0.1351930
1008.425, 1.052612
1008.907, 0.4241940
1009.390, 0.2388920
1009.872, 0.2147830
1010.354, 2.426331
1010.836, 14.49982
1011.318, 27.50513
1011.800, 20.67212
1012.282, 4.226257
1012.764, 7.956970
1013.246, 32.04755
1013.729, 49.98163
1014.211, 47.75372
1014.693, 35.61200
1015.175, 24.23712
1015.657, 14.35846
1016.139, 7.934387
1016.621, 4.901001
1017.103, 6.332397
1017.586, 11.96466
1018.068, 15.65125
1018.550, 13.24957
1019.032, 8.605835
1019.514, 8.523926
1019.996, 12.31842
1020.478, 14.66803
1020.960, 15.54346
1021.442, 14.91382
1021.925, 12.68011
1022.407, 10.53363
1022.889, 9.587463
1023.371, 9.680847
1023.853, 10.31128
1024.335, 11.41827
1024.817, 15.23376
1025.299, 22.53247
1025.781, 26.54736
1026.264, 24.97766
1026.746, 22.50140
1027.228, 22.31891
1027.710, 24.16388
1028.192, 28.07068
1028.674, 34.84351
1029.156, 36.46497
1029.638, 30.30902
1030.120, 27.35870
1030.603, 31.33936
1031.085, 37.08661
1031.567, 41.14246
1032.049, 43.60065
1032.531, 44.48120
1033.013, 43.04498
1033.495, 43.65302
1033.977, 47.20508
1034.460, 50.94135
1034.942, 55.06372
1035.424, 57.70435
1035.906, 56.62793
1036.388, 53.34076
1036.870, 52.24591
1037.352, 54.46228
1037.834, 54.92346
1038.317, 51.05194
1038.799, 49.36151
1039.281, 51.35016
1039.763, 55.83575
1040.245, 64.56470
1040.727, 74.97919
1041.209, 79.71417
1041.691, 76.61951
1042.173, 74.00232
1042.656, 70.01886
1043.138, 69.41870
1043.620, 75.96887
1044.102, 83.81958
1044.584, 89.00677
1045.066, 92.16632
1045.548, 94.77991
1046.030, 96.60254
1046.512, 98.95300
1046.995, 103.1040
1047.477, 106.0162
1047.959, 105.3394
1048.441, 104.5553
1048.923, 107.0468
1049.405, 111.5623
1049.887, 114.3578
1050.369, 114.2213
1050.852, 116.1954
1051.334, 123.4380
1051.816, 130.1929
1052.298, 132.5039
1052.780, 135.3621
1053.262, 144.6998
1053.744, 157.3124
1054.226, 165.4760
1054.708, 167.5453
1055.191, 169.3947
1055.673, 172.0452
1056.155, 175.5903
1056.637, 180.0901
1057.119, 185.3136
1057.601, 192.0679
1058.083, 199.1967
1058.565, 204.4182
1059.047, 207.1880
1059.530, 209.0974
1060.012, 207.3969
1060.494, 209.2340
1060.976, 221.2408
1061.458, 234.6957
1061.940, 241.9150
1062.422, 245.2762
1062.904, 250.6648
1063.387, 259.2024
1063.869, 267.3252
1064.351, 274.9727
1064.833, 280.3235
1065.315, 280.4028
1065.797, 279.8274
1066.279, 282.6036
1066.761, 287.5238
1067.244, 292.5580
1067.726, 297.0981
1068.208, 299.2336
1068.690, 294.7050
1069.172, 292.3931
1069.654, 299.5402
1070.136, 307.2374
1070.618, 307.0857
1071.100, 303.1842
1071.583, 302.9709
1072.065, 307.1594
1072.547, 310.4590
1073.029, 309.1083
1073.511, 309.3245
1073.993, 315.7915
1074.475, 323.2280
1074.957, 325.9229
1075.439, 327.8063
1075.922, 336.7720
1076.404, 352.0336
1076.886, 362.8540
1077.368, 363.8813
1077.850, 363.0535
1078.332, 363.1279
1078.814, 363.7762
1079.297, 366.8157
1079.779, 368.9641
1080.261, 364.3704
1080.743, 354.4208
1081.225, 347.4550
1081.707, 347.1917
1082.189, 346.8923
1082.671, 342.1399
1083.153, 337.8912
1083.635, 339.4030
1084.118, 341.6610
1084.600, 336.9041
1085.082, 327.5181
1085.564, 323.2299
1086.046, 327.5499
1086.528, 332.8314
1087.010, 337.7924
1087.492, 340.4998
1087.975, 337.8790
1088.457, 334.0598
1088.939, 332.6100
1089.421, 333.7715
1089.903, 337.6902
1090.385, 344.7316
1090.867, 349.6669
1091.349, 347.8899
1091.832, 347.0708
1092.314, 352.0680
1092.796, 358.1577
1093.278, 361.4052
1093.760, 362.3822
1094.242, 362.7789
1094.724, 363.0167
1095.206, 363.5499
1095.688, 363.3269
1096.171, 364.7909
1096.653, 372.6407
1097.135, 378.5923
1097.617, 372.4742
1098.099, 363.1770
1098.581, 365.7638
1099.063, 380.5728
1099.545, 392.1409
1100.027, 396.6572
1100.510, 398.0649
1100.992, 394.7009
1101.474, 391.2103
1101.956, 389.8477
1102.438, 390.0547
1102.920, 391.4590
1103.402, 394.1405
1103.884, 397.6051
1104.367, 401.9164
1104.849, 405.3232
1105.331, 406.6716
1105.813, 408.9592
1106.295, 413.2716
1106.777, 418.2095
1107.259, 422.9009
1107.741, 427.6221
1108.224, 433.1613
1108.706, 440.4141
1109.188, 443.9819
1109.670, 440.7745
1110.152, 437.7971
1110.634, 434.8680
1111.116, 434.6925
1111.598, 441.7266
1112.080, 451.8625
1112.563, 456.2648
1113.045, 453.7849
1113.527, 456.5553
1114.009, 469.4088
1114.491, 478.0648
1114.973, 477.1300
1115.455, 477.8730
1115.937, 486.6163
1116.419, 499.7385
1116.902, 514.0239
1117.384, 528.8015
1117.866, 535.5656
1118.348, 524.9808
1118.830, 527.1919
1119.312, 551.9993
1119.794, 573.3577
1120.276, 580.4426
1120.759, 581.6675
1121.241, 584.7375
1121.723, 589.7079
1122.205, 595.3472
1122.687, 600.8417
1123.169, 608.1466
1123.651, 620.0420
1124.133, 628.6255
1124.615, 628.9556
1125.098, 630.6045
1125.580, 641.7908
1126.062, 656.4878
1126.544, 662.3000
1127.026, 659.3281
1127.508, 657.0131
1127.990, 655.1672
1128.472, 655.6077
1128.954, 659.8394
1129.437, 665.9285
1129.919, 672.0452
1130.401, 675.1213
1130.883, 671.9043
1131.365, 664.2217
1131.847, 657.0188
1132.329, 650.6577
1132.811, 645.9299
1133.294, 642.6970
1133.776, 637.9170
1134.258, 630.5046
1134.740, 623.6738
1135.222, 620.3499
1135.704, 617.9556
1136.186, 610.9553
1136.668, 600.4509
1137.151, 590.7385
1137.633, 581.5842
1138.115, 570.3608
1138.597, 556.9839
1139.079, 545.8032
1139.561, 539.1414
1140.043, 534.4890
1140.525, 529.4778
1141.007, 524.2644
1141.490, 519.2351
1141.972, 513.6831
1142.454, 505.6646
1142.936, 495.6399
1143.418, 486.8313
1143.900, 479.8127
1144.382, 468.4331
1144.864, 443.6074
1145.346, 420.9756
1145.829, 423.0725
1146.311, 432.4170
1146.793, 426.2642
1147.275, 410.0681
1147.757, 397.7100
1148.239, 390.5388
1148.721, 379.8528
1149.203, 360.8362
1149.686, 342.1997
1150.168, 326.6497
1150.650, 316.7048
1151.132, 320.3201
1151.614, 326.0100
1152.096, 318.9146
1152.578, 303.0415
1153.060, 291.7566
1153.542, 288.0652
1154.025, 283.4280
1154.507, 274.1287
1154.989, 264.3223
1155.471, 257.0142
1155.953, 247.7617
1156.435, 232.7761
1156.917, 215.0188
1157.399, 196.8125
1157.881, 179.0420
1158.364, 168.0547
1158.846, 168.9717
1159.328, 168.0195
1159.810, 167.2676
1160.292, 160.3003
1160.774, 138.9346
1161.256, 117.6494
1161.738, 109.8467
1162.221, 109.3735
1162.703, 100.6899
1163.185, 81.91602
1163.667, 70.62549
1164.149, 70.07715
1164.631, 67.15088
1165.113, 58.90674
1165.595, 51.19189
1166.078, 47.55957
1166.560, 44.90576
1167.042, 39.75146
1167.524, 32.48828
1168.006, 24.45312
1168.488, 15.88916
1168.970, 6.746094
1169.452, 2.822266
1169.934, 14.22461
1170.417, 27.93408
1170.899, 38.07031
1171.381, 40.05078
1171.863, 38.41504
1172.345, 39.76465
1172.827, 44.22510
1173.309, 53.27490
1173.791, 65.94531
1174.273, 79.95557
1174.756, 93.83643
1175.238, 101.2021
1175.720, 99.84570
1176.202, 98.00049
1176.684, 103.1250
1177.166, 110.0029
1177.648, 109.9307
1178.130, 108.3677
1178.613, 115.6367
1179.095, 126.3452
1179.577, 125.4160
1180.059, 114.1538
1180.541, 110.9604
1181.023, 125.6294
1181.505, 138.0576
1181.987, 133.5464
1182.469, 125.3291
1182.952, 121.0337
1183.434, 118.1616
1183.916, 114.4209
1184.398, 109.8091
1184.880, 104.3071
1185.362, 98.11035
1185.844, 96.10938
1186.326, 111.5000
1186.808, 112.9697
1187.291, 84.04150
1187.773, 54.07373
1188.255, 31.51904
1188.737, 17.43115
1189.219, 17.62354
1189.701, 24.79346
1190.183, 14.53076
1190.665, 18.31689
1191.148, 42.69189
1191.630, 54.80762
1192.112, 69.85010
1192.594, 90.19238
1193.076, 114.8218
1193.558, 144.2114
1194.040, 174.5522
1194.522, 200.5776
1195.005, 222.8491
1195.487, 240.5693
1195.969, 254.0186
1196.451, 286.0537
1196.933, 337.0391
1197.415, 388.4639
1197.897, 435.9062
1198.379, 481.9092
1198.861, 529.2119
1199.344, 576.2783
1199.826, 621.1846
1200.308, 665.5859
1200.790, 712.1055
1201.272, 762.4814
1201.754, 821.8438
1202.236, 889.0391
1202.718, 960.3984
1203.200, 1034.534
1203.683, 1106.622
1204.165, 1173.150
1204.647, 1238.894
1205.129, 1302.582
1205.611, 1372.302
1206.093, 1458.214
1206.575, 1550.183
1207.057, 1630.044
1207.540, 1705.056
1208.022, 1804.630
1208.504, 1936.419
1208.986, 2058.424
1209.468, 2152.048
1209.950, 2248.744
1210.432, 2357.905
1210.914, 2469.551
1211.396, 2572.033
1211.879, 2681.444
1212.361, 2820.017
1212.843, 2979.369
1213.325, 3121.894
1213.807, 3240.926
1214.289, 3371.769
1214.771, 3516.405
1215.253, 3663.396
1215.735, 3807.926
1216.218, 3960.688
1216.700, 4128.609
1217.182, 4302.684
1217.664, 4474.615
1218.146, 4645.625
1218.628, 4822.925
1219.110, 5006.096
1219.592, 5201.609
1220.075, 5406.459
1220.557, 5606.418
1221.039, 5798.803
1221.521, 5999.950
1222.003, 6218.379
1222.485, 6445.084
1222.967, 6674.686
1223.449, 6904.420
1223.932, 7131.457
1224.414, 7355.865
1224.896, 7573.975
1225.378, 7780.098
1225.860, 7991.539
1226.342, 8211.153
1226.824, 8434.022
1227.306, 8664.796
1227.788, 8895.241
1228.271, 9121.045
1228.753, 9344.144
1229.235, 9571.846
1229.717, 9795.637
1230.199, 9998.515
1230.681, 10192.79
1231.163, 10401.37
1231.645, 10627.02
1232.127, 10843.73
1232.610, 11056.63
1233.092, 11257.67
1233.574, 11446.83
1234.056, 11625.52
1234.538, 11790.18
1235.020, 11959.95
1235.502, 12157.03
1235.984, 12358.15
1236.467, 12519.78
1236.949, 12655.40
1237.431, 12806.52
1237.913, 12969.58
1238.395, 13130.89
1238.877, 13285.51
1239.359, 13425.56
1239.841, 13547.77
1240.323, 13652.26
1240.806, 13735.45
1241.288, 13807.36
1241.770, 13878.86
1242.252, 13942.17
1242.734, 13987.93
1243.216, 14023.13
1243.698, 14060.33
1244.180, 14092.58
1244.662, 14106.24
1245.145, 14098.25
1245.627, 14064.41
1246.109, 13992.34
1246.591, 13915.16
1247.073, 13837.60
1247.555, 13757.62
1248.037, 13692.06
1248.519, 13602.90
1249.002, 13456.61
1249.484, 13275.34
1249.966, 13096.17
1250.448, 12919.39
1250.930, 12747.95
1251.412, 12582.55
1251.894, 12417.06
1252.376, 12251.22
1252.859, 12064.71
1253.341, 11851.71
1253.823, 11623.70
1254.305, 11388.78
1254.787, 11145.71
1255.269, 10887.85
1255.751, 10624.68
1256.233, 10373.80
1256.715, 10127.73
1257.198, 9868.773
1257.680, 9601.037
1258.162, 9340.271
1258.644, 9086.773
1259.126, 8821.902
1259.608, 8532.898
1260.090, 8251.518
1260.572, 8004.139
1261.054, 7752.826
1261.537, 7479.607
1262.019, 7196.754
1262.501, 6910.061
1262.983, 6621.691
1263.465, 6327.035
1263.947, 6030.916
1264.429, 5764.822
1264.911, 5545.508
1265.394, 5298.967
1265.876, 5017.250
1266.358, 4741.398
1266.840, 4480.436
1267.322, 4231.605
1267.804, 3993.660
1268.286, 3759.232
1268.768, 3517.471
1269.250, 3278.830
1269.733, 3078.877
1270.215, 2896.031
1270.697, 2665.180
1271.179, 2405.863
1271.661, 2174.480
1272.143, 1977.482
1272.625, 1793.865
1273.107, 1615.945
1273.589, 1444.941
1274.072, 1287.824
1274.554, 1131.234
1275.036, 964.8867
1275.518, 802.0156
1276.000, 648.6270
1276.482, 506.8574
1276.964, 378.2793
1277.446, 267.8438
1277.929, 184.1973
1278.411, 131.8496
1278.893, 79.05664
1279.375, 25.45312
1279.857, 12.20898
1280.339, 30.14062
1280.821, 8.392578
1281.303, 62.64062
1281.786, 75.22070
1282.268, 0.0000000E+00
##END=



