##NAMES=Tundrite-(Nd)
##RRUFFID=R130565
##IDEAL CHEMISTRY=Na_2_Nd^3+^_2_Ti^4+^O_2_(SiO_4_)(CO_3_)_2_
##LOCALITY=Ilimaussaq complex, Narsaq, Kitaa, Greenland
##OWNER=RRUFF
##SOURCE=Rock Currier
##DESCRIPTION=Pale tan prismatic crystals associated with green to dark-green prismatic aegirine, white microcline, and pinkish fluorite.
##STATUS=The identification of this mineral has been confirmed only by single crystal X-ray diffraction.
##URL=rruff.info/R130565
88.06445, 0.0000000E+00
88.54657, 15.59137
89.02869, 1.003052
89.51080, 5.179443
89.99292, 22.90973
90.47504, 40.87512
90.95715, 56.06421
91.43927, 71.10535
91.92139, 90.82855
92.40350, 115.0710
92.88562, 138.4469
93.36774, 151.9219
93.84985, 150.0096
94.33197, 135.9630
94.81409, 122.6052
95.29620, 107.8100
95.77832, 94.97186
96.26044, 84.59204
96.74255, 76.51752
97.22467, 70.88214
97.70679, 68.47937
98.18890, 65.38599
98.67102, 59.48895
99.15314, 53.34314
99.63525, 48.82019
100.1174, 46.69574
100.5995, 46.60162
101.0816, 47.49487
101.5637, 50.00781
102.0458, 52.80383
102.5280, 55.54089
103.0101, 58.20276
103.4922, 60.82538
103.9743, 63.33325
104.4564, 65.72241
104.9385, 69.34692
105.4207, 75.12280
105.9028, 81.01245
106.3849, 86.11285
106.8670, 90.37659
107.3491, 94.18439
107.8312, 98.10559
108.3134, 101.9908
108.7955, 104.3254
109.2776, 105.1069
109.7597, 104.1296
110.2418, 100.4309
110.7239, 92.72272
111.2061, 84.92554
111.6882, 81.25391
112.1703, 80.88672
112.6524, 80.08765
113.1345, 77.00592
113.6166, 71.82507
114.0988, 65.40088
114.5809, 55.42242
115.0630, 46.02094
115.5451, 39.31128
116.0272, 35.45636
116.5093, 33.98633
116.9915, 35.05194
117.4736, 40.68445
117.9557, 42.72925
118.4378, 37.97662
118.9199, 31.87140
119.4020, 28.09387
119.8842, 27.69562
120.3663, 29.64392
120.8484, 31.71021
121.3305, 33.82867
121.8126, 36.36774
122.2947, 39.84747
122.7769, 43.19879
123.2590, 45.54761
123.7411, 46.90942
124.2232, 48.43524
124.7053, 50.57990
125.1874, 53.20044
125.6696, 54.13525
126.1517, 52.14258
126.6338, 48.66235
127.1159, 46.40155
127.5980, 47.19763
128.0801, 50.69214
128.5623, 54.57556
129.0444, 59.44189
129.5265, 63.08783
130.0086, 62.34729
130.4907, 56.00293
130.9728, 49.60284
131.4550, 46.38995
131.9371, 45.02832
132.4192, 44.34900
132.9013, 44.45325
133.3834, 44.73523
133.8655, 43.30023
134.3477, 39.00208
134.8298, 34.70685
135.3119, 30.65167
135.7940, 27.56012
136.2761, 26.84509
136.7582, 30.42670
137.2404, 38.47369
137.7225, 43.35608
138.2046, 42.37567
138.6867, 40.40314
139.1688, 38.12726
139.6509, 36.04468
140.1331, 34.88635
140.6152, 35.74927
141.0973, 39.99988
141.5794, 40.99677
142.0615, 37.12366
142.5436, 31.93604
143.0258, 27.13849
143.5079, 23.19946
143.9900, 20.04370
144.4721, 17.43140
144.9542, 14.77789
145.4363, 14.82733
145.9185, 20.72089
146.4006, 28.28851
146.8827, 33.67651
147.3648, 36.01770
147.8469, 36.43701
148.3290, 37.06805
148.8112, 38.20923
149.2933, 38.04272
149.7754, 34.38654
150.2575, 28.70886
150.7396, 25.45471
151.2217, 26.99664
151.7039, 30.33887
152.1860, 31.51959
152.6681, 30.35413
153.1502, 28.68817
153.6323, 28.83527
154.1144, 30.97571
154.5966, 30.26343
155.0787, 21.21094
155.5608, 11.24011
156.0429, 5.587219
156.5250, 5.351196
157.0071, 7.801270
157.4893, 9.749084
157.9714, 11.97968
158.4535, 11.34686
158.9356, 5.186707
159.4177, 2.473694
159.8998, 8.800964
160.3820, 12.69208
160.8641, 14.60730
161.3462, 15.61304
161.8283, 15.57507
162.3104, 14.34711
162.7925, 10.98413
163.2747, 6.809753
163.7568, 3.370850
164.2389, 1.509644
164.7210, 0.8638920
165.2031, 0.3906860
165.6852, 2.574402
166.1674, 5.594910
166.6495, 10.78088
167.1316, 16.98053
167.6137, 21.60211
168.0958, 22.64471
168.5779, 20.99048
169.0601, 23.58521
169.5422, 34.81104
170.0243, 45.16357
170.5064, 49.59412
170.9885, 49.62457
171.4706, 51.41028
171.9528, 59.68610
172.4349, 72.58221
172.9170, 81.55798
173.3991, 82.96680
173.8812, 82.99719
174.3633, 87.03705
174.8455, 95.41547
175.3276, 103.5496
175.8097, 108.1627
176.2918, 110.6276
176.7739, 113.4259
177.2560, 117.4402
177.7382, 121.9100
178.2203, 126.0917
178.7024, 130.4442
179.1845, 132.8676
179.6666, 129.4034
180.1487, 124.0316
180.6309, 122.2889
181.1130, 128.0840
181.5951, 138.0869
182.0772, 142.7898
182.5593, 137.8840
183.0414, 134.6753
183.5236, 138.5980
184.0057, 146.1473
184.4878, 152.4019
184.9699, 154.3711
185.4520, 152.6604
185.9341, 151.0880
186.4163, 148.9864
186.8984, 147.8752
187.3805, 148.0261
187.8626, 149.4002
188.3447, 152.0975
188.8268, 156.4822
189.3090, 162.4237
189.7911, 166.2136
190.2732, 166.8839
190.7553, 166.4263
191.2374, 164.3064
191.7195, 161.3982
192.2017, 159.3158
192.6838, 159.2839
193.1659, 161.3772
193.6480, 164.2856
194.1301, 169.6180
194.6122, 174.1091
195.0944, 175.8590
195.5765, 175.3096
196.0586, 174.5643
196.5407, 175.5093
197.0228, 178.1809
197.5049, 178.5194
197.9871, 175.0895
198.4692, 170.7924
198.9513, 167.2189
199.4334, 164.4340
199.9155, 161.9595
200.3976, 159.6453
200.8798, 157.3768
201.3619, 154.2975
201.8440, 149.4974
202.3261, 144.4321
202.8082, 140.0785
203.2903, 136.4883
203.7725, 134.2421
204.2546, 135.3884
204.7367, 138.3314
205.2188, 138.3738
205.7009, 133.9160
206.1830, 126.4053
206.6652, 116.4545
207.1473, 102.8807
207.6294, 91.59485
208.1115, 88.41956
208.5936, 89.99744
209.0757, 91.73718
209.5579, 92.91663
210.0400, 92.85266
210.5221, 89.89185
211.0042, 83.05078
211.4863, 75.41968
211.9685, 67.86389
212.4506, 60.68323
212.9327, 54.45154
213.4148, 49.73389
213.8969, 46.00659
214.3790, 41.50061
214.8612, 35.56653
215.3433, 29.98816
215.8254, 25.27734
216.3075, 21.24097
216.7896, 17.68018
217.2717, 14.54895
217.7539, 11.55347
218.2360, 7.894409
218.7181, 3.741455
219.2002, 1.115479
219.6823, 7.175049
220.1644, 13.70764
220.6466, 19.99866
221.1287, 25.86340
221.6108, 30.97656
222.0929, 32.92603
222.5750, 26.82800
223.0571, 22.89746
223.5393, 23.63953
224.0214, 27.45203
224.5035, 32.60876
224.9856, 38.39307
225.4677, 44.06897
225.9498, 44.67444
226.4320, 33.69604
226.9141, 24.58850
227.3962, 19.51135
227.8783, 17.59192
228.3604, 17.57935
228.8425, 18.96924
229.3247, 21.25439
229.8068, 21.44470
230.2889, 19.48682
230.7710, 15.70618
231.2531, 8.629395
231.7352, 4.9561001E-02
232.2174, 7.205566
232.6995, 10.92871
233.1816, 12.37805
233.6637, 16.95837
234.1458, 26.21948
234.6279, 36.12573
235.1101, 45.76404
235.5922, 55.34888
236.0743, 65.36914
236.5564, 75.98376
237.0385, 87.15259
237.5206, 98.27197
238.0028, 109.1393
238.4849, 120.3456
238.9670, 132.8815
239.4491, 145.8518
239.9312, 157.1742
240.4133, 165.3268
240.8955, 172.0078
241.3776, 181.1068
241.8597, 192.7701
242.3418, 205.6370
242.8239, 219.7759
243.3060, 234.6746
243.7882, 249.3038
244.2703, 263.6106
244.7524, 276.7778
245.2345, 286.3740
245.7166, 290.9635
246.1987, 298.7288
246.6809, 316.9148
247.1630, 342.0521
247.6451, 362.2350
248.1272, 371.7964
248.6093, 378.1879
249.0914, 390.3673
249.5736, 408.1980
250.0557, 427.5293
250.5378, 447.8485
251.0199, 468.1753
251.5020, 484.0009
251.9841, 491.8308
252.4663, 498.6489
252.9484, 510.8505
253.4305, 527.9509
253.9126, 546.7314
254.3947, 566.8931
254.8768, 587.7100
255.3590, 604.7351
255.8411, 615.3137
256.3232, 625.1136
256.8053, 638.4042
257.2874, 654.4264
257.7695, 670.4817
258.2516, 684.7766
258.7338, 697.7426
259.2159, 710.9159
259.6980, 724.4316
260.1801, 738.1442
260.6622, 751.0741
261.1443, 764.0325
261.6265, 779.0439
262.1086, 798.9729
262.5907, 822.0847
263.0728, 839.3215
263.5549, 846.7043
264.0370, 854.1670
264.5192, 864.8536
265.0013, 878.4277
265.4834, 894.5175
265.9655, 913.7003
266.4476, 934.9146
266.9297, 954.6523
267.4119, 971.7153
267.8940, 989.0593
268.3761, 1007.403
268.8582, 1026.470
269.3403, 1046.163
269.8224, 1066.450
270.3046, 1087.069
270.7867, 1106.781
271.2688, 1122.807
271.7509, 1143.307
272.2330, 1171.931
272.7151, 1204.105
273.1973, 1235.890
273.6794, 1265.795
274.1615, 1294.105
274.6436, 1321.213
275.1257, 1344.358
275.6078, 1372.108
276.0900, 1407.838
276.5721, 1446.081
277.0542, 1482.052
277.5363, 1514.414
278.0184, 1545.008
278.5005, 1577.059
278.9827, 1612.513
279.4648, 1645.025
279.9469, 1675.264
280.4290, 1703.219
280.9111, 1726.938
281.3932, 1746.461
281.8754, 1764.786
282.3575, 1786.414
282.8396, 1813.581
283.3217, 1837.280
283.8038, 1858.934
284.2859, 1877.826
284.7681, 1891.569
285.2502, 1900.732
285.7323, 1908.312
286.2144, 1917.242
286.6965, 1927.470
287.1786, 1938.987
287.6608, 1958.976
288.1429, 1973.997
288.6250, 1977.162
289.1071, 1970.464
289.5892, 1960.036
290.0714, 1950.056
290.5535, 1940.281
291.0356, 1932.624
291.5177, 1927.990
291.9998, 1924.666
292.4819, 1923.281
292.9641, 1922.700
293.4462, 1921.182
293.9283, 1917.646
294.4104, 1912.216
294.8925, 1905.816
295.3746, 1897.406
295.8568, 1889.107
296.3389, 1881.434
296.8210, 1873.948
297.3031, 1865.798
297.7852, 1856.528
298.2673, 1846.931
298.7495, 1839.285
299.2316, 1832.699
299.7137, 1828.797
300.1958, 1827.987
300.6779, 1830.150
301.1600, 1836.147
301.6422, 1845.807
302.1243, 1856.186
302.6064, 1862.203
303.0885, 1860.872
303.5706, 1860.625
304.0527, 1859.737
304.5349, 1861.128
305.0170, 1868.535
305.4991, 1881.680
305.9812, 1895.415
306.4633, 1903.268
306.9454, 1902.904
307.4276, 1904.097
307.9097, 1909.282
308.3918, 1913.786
308.8739, 1913.228
309.3560, 1909.072
309.8381, 1907.370
310.3203, 1913.926
310.8024, 1929.358
311.2845, 1940.962
311.7666, 1950.493
312.2487, 1955.058
312.7308, 1949.455
313.2130, 1938.218
313.6951, 1931.121
314.1772, 1935.102
314.6593, 1947.648
315.1414, 1950.991
315.6235, 1938.953
316.1057, 1924.731
316.5878, 1908.312
317.0699, 1891.471
317.5520, 1877.559
318.0341, 1868.167
318.5162, 1859.738
318.9984, 1843.141
319.4805, 1809.220
319.9626, 1778.597
320.4447, 1755.693
320.9268, 1733.943
321.4089, 1706.009
321.8911, 1670.385
322.3732, 1633.225
322.8553, 1604.133
323.3374, 1590.745
323.8195, 1566.417
324.3016, 1523.454
324.7838, 1477.334
325.2659, 1437.164
325.7480, 1403.673
326.2301, 1373.613
326.7122, 1344.225
327.1943, 1316.265
327.6765, 1283.057
328.1586, 1237.573
328.6407, 1194.633
329.1228, 1161.796
329.6049, 1135.913
330.0870, 1108.915
330.5692, 1075.170
331.0513, 1035.708
331.5334, 999.1602
332.0155, 968.4250
332.4976, 937.1514
332.9797, 904.4219
333.4619, 870.6772
333.9440, 836.2795
334.4261, 801.3408
334.9082, 766.5522
335.3904, 733.3315
335.8725, 704.7200
336.3546, 673.0903
336.8367, 632.7419
337.3188, 592.8872
337.8009, 562.4092
338.2831, 542.5742
338.7652, 526.6738
339.2473, 505.8606
339.7294, 477.9893
340.2115, 451.5740
340.6936, 425.6724
341.1758, 401.7639
341.6579, 381.6318
342.1400, 364.3677
342.6221, 347.3843
343.1042, 328.4001
343.5863, 307.4087
344.0685, 286.9419
344.5506, 266.0811
345.0327, 246.8792
345.5148, 231.5710
345.9969, 217.9441
346.4790, 202.3643
346.9612, 182.5664
347.4433, 160.3767
347.9254, 141.2327
348.4075, 126.6643
348.8896, 113.1392
349.3717, 101.1602
349.8539, 89.37207
350.3360, 75.60400
350.8181, 59.51196
351.3002, 44.01855
351.7823, 33.95508
352.2644, 31.18530
352.7466, 27.83154
353.2287, 22.99146
353.7108, 17.85645
354.1929, 13.35083
354.6750, 9.267090
355.1571, 4.377441
355.6393, 3.440674
356.1214, 14.15674
356.6035, 19.74951
357.0856, 13.86597
357.5677, 10.36133
358.0498, 16.94165
358.5320, 28.75854
359.0141, 37.14209
359.4962, 36.80737
359.9783, 30.97827
360.4604, 28.10571
360.9425, 28.90747
361.4247, 31.09570
361.9068, 35.99609
362.3889, 40.84424
362.8710, 43.19238
363.3531, 42.38159
363.8352, 39.22192
364.3174, 33.88062
364.7995, 26.01685
365.2816, 19.30737
365.7637, 13.95654
366.2458, 10.51001
366.7279, 10.25757
367.2101, 12.66968
367.6922, 14.65210
368.1743, 14.22583
368.6564, 11.60620
369.1385, 7.942627
369.6206, 3.571533
370.1028, 2.652100
370.5849, 12.78589
371.0670, 24.95166
371.5491, 35.44189
372.0312, 41.48804
372.5133, 46.87036
372.9955, 59.09302
373.4776, 79.30249
373.9597, 94.47583
374.4418, 94.27710
374.9239, 88.91528
375.4060, 91.46167
375.8882, 104.1584
376.3703, 119.6096
376.8524, 133.8555
377.3345, 146.8713
377.8166, 158.3633
378.2987, 167.5000
378.7809, 176.5005
379.2630, 188.2812
379.7451, 202.5029
380.2272, 216.1792
380.7093, 228.7695
381.1914, 240.0349
381.6736, 248.6980
382.1557, 254.4751
382.6378, 261.3972
383.1199, 273.3782
383.6020, 288.9456
384.0841, 301.1873
384.5663, 305.9041
385.0484, 311.3879
385.5305, 322.6680
386.0126, 338.6694
386.4947, 356.9067
386.9768, 377.3367
387.4590, 397.4009
387.9411, 410.6941
388.4232, 415.4109
388.9053, 420.3853
389.3874, 428.1338
389.8695, 436.6714
390.3517, 442.2317
390.8338, 444.4663
391.3159, 449.3481
391.7980, 464.4304
392.2801, 491.7542
392.7622, 509.9043
393.2444, 511.4563
393.7265, 511.7603
394.2086, 518.7571
394.6907, 530.9919
395.1728, 543.3748
395.6549, 552.8103
396.1371, 560.3330
396.6192, 569.7375
397.1013, 587.3782
397.5834, 598.8906
398.0655, 596.2944
398.5476, 590.5498
399.0298, 593.7952
399.5119, 608.7234
399.9940, 627.6809
400.4761, 640.1482
400.9582, 643.4897
401.4403, 649.4836
401.9225, 658.4050
402.4046, 669.2935
402.8867, 684.4929
403.3688, 701.4207
403.8509, 714.1125
404.3330, 717.7937
404.8152, 714.5002
405.2973, 716.0352
405.7794, 725.8394
406.2615, 735.5542
406.7436, 743.5093
407.2257, 750.6687
407.7079, 758.1338
408.1900, 766.2568
408.6721, 774.1567
409.1542, 780.5464
409.6363, 785.2622
410.1184, 789.6130
410.6006, 791.9597
411.0827, 795.6475
411.5648, 802.8159
412.0469, 812.9429
412.5290, 823.8564
413.0111, 833.9285
413.4933, 843.6768
413.9754, 855.8596
414.4575, 872.9316
414.9396, 886.7820
415.4217, 887.1482
415.9038, 883.7981
416.3860, 889.5229
416.8681, 909.7683
417.3502, 932.0850
417.8323, 945.1614
418.3144, 949.5278
418.7965, 948.3777
419.2787, 937.4236
419.7608, 928.3091
420.2429, 936.7188
420.7250, 961.1567
421.2071, 983.1074
421.6892, 994.8901
422.1714, 1001.300
422.6535, 1008.760
423.1356, 1017.870
423.6177, 1026.055
424.0998, 1030.526
424.5819, 1032.062
425.0641, 1035.913
425.5462, 1044.564
426.0283, 1053.211
426.5104, 1060.109
426.9925, 1065.235
427.4746, 1068.402
427.9568, 1069.730
428.4389, 1071.264
428.9210, 1076.229
429.4031, 1086.744
429.8852, 1092.245
430.3673, 1089.353
430.8495, 1083.676
431.3316, 1079.246
431.8137, 1076.598
432.2958, 1073.968
432.7779, 1069.599
433.2600, 1063.397
433.7422, 1057.709
434.2243, 1055.086
434.7064, 1050.580
435.1885, 1042.267
435.6706, 1031.940
436.1527, 1021.890
436.6349, 1013.037
437.1170, 1004.534
437.5991, 995.1025
438.0812, 984.8345
438.5633, 972.5239
439.0454, 956.7751
439.5276, 940.5933
440.0097, 924.1272
440.4918, 908.1626
440.9739, 894.1855
441.4560, 883.8096
441.9381, 875.4272
442.4203, 864.0334
442.9024, 848.9580
443.3845, 832.7998
443.8666, 815.8601
444.3487, 798.4939
444.8308, 780.7485
445.3130, 762.6877
445.7951, 744.5352
446.2772, 725.8479
446.7593, 707.0134
447.2414, 690.7151
447.7235, 678.5757
448.2057, 666.3398
448.6878, 650.3396
449.1699, 631.6841
449.6520, 613.0249
450.1341, 594.6165
450.6162, 576.7239
451.0984, 559.2468
451.5805, 542.3333
452.0626, 527.4961
452.5447, 516.4622
453.0268, 506.1982
453.5089, 490.1274
453.9911, 466.9851
454.4732, 445.4534
454.9553, 427.6448
455.4374, 412.2439
455.9195, 398.6384
456.4016, 386.3777
456.8838, 373.7864
457.3659, 359.3171
457.8480, 343.1226
458.3301, 327.6348
458.8122, 312.5859
459.2943, 298.3376
459.7765, 284.5051
460.2586, 271.6406
460.7407, 261.2930
461.2228, 253.7903
461.7049, 246.2803
462.1870, 233.9558
462.6692, 214.3225
463.1513, 198.0376
463.6334, 187.8489
464.1155, 178.2349
464.5976, 164.6951
465.0797, 149.9656
465.5619, 140.6494
466.0440, 141.7078
466.5261, 148.7817
467.0082, 149.7339
467.4903, 142.9392
467.9724, 134.3943
468.4546, 123.0444
468.9367, 112.1821
469.4188, 104.5679
469.9009, 100.2891
470.3830, 97.01514
470.8651, 92.49683
471.3473, 87.45386
471.8294, 85.49878
472.3115, 88.47363
472.7936, 89.37891
473.2757, 81.73755
473.7578, 69.16162
474.2400, 58.33398
474.7221, 50.99878
475.2042, 44.28442
475.6863, 35.04443
476.1684, 24.77710
476.6505, 18.60181
477.1327, 18.59717
477.6148, 20.32568
478.0969, 17.92017
478.5790, 10.63037
479.0611, 4.794434
479.5432, 2.331787
480.0254, 4.4922002E-02
480.5075, 5.292236
480.9896, 12.33838
481.4717, 16.57031
481.9538, 15.25903
482.4359, 10.59155
482.9181, 8.868652
483.4002, 12.89111
483.8823, 15.89600
484.3644, 15.22070
484.8465, 15.49048
485.3286, 21.95142
485.8108, 33.47290
486.2929, 43.54736
486.7750, 46.59595
487.2571, 43.19800
487.7392, 38.00342
488.2213, 27.93335
488.7035, 21.32715
489.1856, 23.56396
489.6677, 28.24170
490.1498, 28.31909
490.6319, 22.09253
491.1140, 14.52710
491.5962, 11.00977
492.0783, 10.90967
492.5604, 8.774902
493.0425, 2.839111
493.5246, 2.791748
494.0067, 3.848633
494.4889, 2.364990
494.9710, 3.020996
495.4531, 8.425537
495.9352, 14.49561
496.4173, 17.42065
496.8994, 18.15747
497.3816, 20.63330
497.8637, 26.60034
498.3458, 33.28662
498.8279, 36.26172
499.3100, 34.37695
499.7921, 34.67212
500.2743, 37.82300
500.7564, 43.04468
501.2385, 51.47925
501.7206, 61.70435
502.2027, 69.42773
502.6848, 71.96533
503.1670, 71.65552
503.6491, 75.57520
504.1312, 88.64844
504.6133, 97.96509
505.0954, 99.57910
505.5775, 100.5085
506.0597, 105.0159
506.5418, 113.4519
507.0239, 124.4414
507.5060, 137.6206
507.9881, 152.2063
508.4702, 164.7039
508.9524, 175.6165
509.4345, 183.2124
509.9166, 182.1143
510.3987, 180.2305
510.8808, 185.8110
511.3629, 200.1848
511.8451, 215.0518
512.3271, 225.7515
512.8093, 232.1243
513.2914, 231.7839
513.7735, 222.9951
514.2556, 215.6462
514.7377, 217.7915
515.2198, 226.8191
515.7020, 232.9192
516.1841, 234.9834
516.6662, 235.3362
517.1483, 233.8242
517.6304, 231.5801
518.1125, 230.4670
518.5947, 230.9368
519.0768, 232.3262
519.5589, 234.0693
520.0410, 236.2849
520.5231, 237.6487
521.0052, 235.3169
521.4874, 235.4473
521.9695, 241.0588
522.4516, 249.9878
522.9337, 260.1614
523.4158, 270.6365
523.8979, 279.0264
524.3801, 280.8579
524.8622, 274.4822
525.3443, 270.2542
525.8264, 269.2195
526.3085, 269.6721
526.7906, 270.5947
527.2728, 272.4390
527.7549, 276.2800
528.2370, 282.9744
528.7191, 290.8960
529.2012, 297.9316
529.6833, 304.1636
530.1655, 311.2783
530.6476, 320.7908
531.1297, 329.4739
531.6118, 332.1960
532.0939, 329.9399
532.5760, 330.0999
533.0582, 336.6526
533.5403, 343.9597
534.0224, 347.4065
534.5045, 347.8931
534.9866, 348.0298
535.4688, 348.6841
535.9509, 351.1702
536.4330, 358.6543
536.9151, 376.5085
537.3972, 386.1431
537.8793, 382.1748
538.3615, 375.5913
538.8436, 371.4219
539.3257, 369.8047
539.8078, 369.3340
540.2899, 369.1885
540.7720, 369.8694
541.2542, 373.6423
541.7363, 382.9124
542.2184, 387.4272
542.7005, 379.5916
543.1826, 371.1384
543.6647, 370.3005
544.1469, 375.2703
544.6290, 377.8350
545.1111, 373.4768
545.5932, 365.1550
546.0753, 355.6602
546.5574, 345.0034
547.0396, 338.4634
547.5217, 339.1440
548.0038, 343.6758
548.4859, 347.6345
548.9680, 351.4165
549.4501, 352.8557
549.9323, 349.9429
550.4144, 345.6853
550.8965, 341.9106
551.3786, 338.9546
551.8607, 336.8599
552.3428, 335.6423
552.8250, 335.5522
553.3071, 337.5913
553.7892, 346.9187
554.2713, 348.4053
554.7534, 336.5010
555.2355, 322.8538
555.7177, 312.4297
556.1998, 305.9329
556.6819, 303.3953
557.1640, 305.5283
557.6461, 310.2273
558.1282, 313.3345
558.6104, 314.9360
559.0925, 314.2380
559.5746, 309.6057
560.0567, 303.9485
560.5388, 300.4553
561.0209, 298.6838
561.5031, 295.2175
561.9852, 287.3296
562.4673, 278.2419
562.9494, 271.4587
563.4315, 266.5637
563.9136, 260.7588
564.3958, 252.3083
564.8779, 244.2917
565.3600, 242.9934
565.8421, 254.0779
566.3242, 254.8328
566.8063, 235.1333
567.2885, 214.8418
567.7706, 206.3943
568.2527, 205.9380
568.7348, 203.5164
569.2169, 194.1614
569.6990, 181.8896
570.1812, 174.7981
570.6633, 174.3599
571.1454, 173.2698
571.6275, 170.5371
572.1096, 167.4905
572.5917, 164.4333
573.0739, 161.6216
573.5560, 159.6624
574.0381, 159.1453
574.5202, 158.9021
575.0023, 158.6523
575.4844, 157.8787
575.9666, 153.3701
576.4487, 143.8127
576.9308, 131.9043
577.4129, 118.9597
577.8950, 105.0884
578.3771, 96.88599
578.8593, 99.13867
579.3414, 102.0166
579.8235, 101.0017
580.3056, 97.70728
580.7877, 94.53711
581.2698, 92.33594
581.7520, 91.50684
582.2341, 93.18750
582.7162, 98.06787
583.1984, 98.70801
583.6805, 92.87109
584.1626, 85.31738
584.6447, 74.87500
585.1268, 64.62988
585.6089, 58.61987
586.0911, 57.94434
586.5732, 59.39453
587.0553, 61.22485
587.5374, 62.87524
588.0195, 61.28101
588.5016, 55.24512
588.9838, 51.13403
589.4659, 55.31396
589.9480, 63.68677
590.4301, 63.75732
590.9122, 50.59351
591.3943, 39.17432
591.8765, 35.41626
592.3586, 34.81934
592.8407, 31.71069
593.3228, 26.20557
593.8049, 23.41943
594.2870, 27.58521
594.7692, 36.81372
595.2513, 42.25439
595.7334, 42.24536
596.2155, 41.21118
596.6976, 39.30835
597.1797, 36.93384
597.6619, 33.91919
598.1440, 30.56665
598.6261, 27.69727
599.1082, 25.17188
599.5903, 24.00513
600.0724, 27.71655
600.5546, 36.33032
601.0367, 40.75830
601.5188, 36.62622
602.0009, 29.39893
602.4830, 25.49097
602.9651, 24.70703
603.4473, 25.51318
603.9294, 30.36890
604.4115, 34.17383
604.8936, 32.54199
605.3757, 27.73853
605.8578, 25.04956
606.3400, 26.34888
606.8221, 27.84473
607.3042, 23.18677
607.7863, 10.35645
608.2684, 4.810059
608.7505, 12.97510
609.2327, 21.22583
609.7148, 26.83521
610.1969, 29.80518
610.6790, 30.23438
611.1611, 28.12695
611.6432, 23.88940
612.1254, 15.35229
612.6075, 4.947998
613.0896, 1.388184
613.5717, 6.035156
614.0538, 11.43188
614.5359, 12.94653
615.0181, 12.08740
615.5002, 13.46973
615.9823, 18.38354
616.4644, 22.28760
616.9465, 24.09888
617.4286, 24.64258
617.9108, 24.35034
618.3929, 23.42749
618.8750, 21.95093
619.3571, 19.85010
619.8392, 17.87427
620.3214, 18.42969
620.8035, 22.95825
621.2856, 25.60547
621.7677, 24.35889
622.2498, 22.39868
622.7319, 20.93164
623.2141, 20.09351
623.6962, 20.05786
624.1783, 21.15234
624.6604, 22.62305
625.1425, 24.15234
625.6246, 25.47241
626.1068, 25.73999
626.5889, 24.77173
627.0710, 22.42407
627.5531, 17.71069
628.0352, 10.82397
628.5173, 9.274414
628.9995, 17.95703
629.4816, 24.93677
629.9637, 27.98584
630.4458, 28.06274
630.9279, 24.78369
631.4100, 19.06763
631.8922, 14.25684
632.3743, 13.15552
632.8564, 15.03125
633.3385, 17.37769
633.8206, 20.31494
634.3027, 23.64771
634.7849, 27.64307
635.2670, 31.19287
635.7491, 33.61304
636.2312, 34.78027
636.7133, 34.59570
637.1954, 30.62964
637.6776, 27.67456
638.1597, 31.59766
638.6418, 39.38281
639.1239, 42.47876
639.6060, 38.09814
640.0881, 32.84863
640.5703, 35.62866
641.0524, 47.49341
641.5345, 55.00684
642.0166, 53.70605
642.4987, 53.36353
642.9808, 57.05713
643.4630, 61.22998
643.9451, 61.84155
644.4272, 58.80078
644.9093, 57.09180
645.3914, 63.04712
645.8735, 73.05591
646.3557, 76.27100
646.8378, 71.65771
647.3199, 69.01538
647.8020, 73.94238
648.2841, 82.49561
648.7662, 87.37793
649.2484, 87.48560
649.7305, 87.41919
650.2126, 88.02979
650.6947, 88.65552
651.1768, 87.50391
651.6589, 86.10254
652.1411, 88.71094
652.6232, 96.50879
653.1053, 104.5232
653.5874, 104.6526
654.0695, 96.62524
654.5516, 95.57300
655.0338, 105.6282
655.5159, 114.6265
655.9980, 117.4734
656.4801, 116.3049
656.9622, 111.6025
657.4443, 102.7542
657.9265, 97.58618
658.4086, 103.2141
658.8907, 111.8076
659.3728, 114.3940
659.8549, 111.7979
660.3370, 109.8721
660.8192, 111.4080
661.3013, 113.9026
661.7834, 112.6538
662.2655, 105.7729
662.7476, 102.1755
663.2297, 104.4358
663.7119, 107.1841
664.1940, 109.6887
664.6761, 111.3625
665.1582, 111.0771
665.6403, 108.5315
666.1224, 106.2632
666.6046, 107.1987
667.0867, 109.7854
667.5688, 110.8689
668.0509, 110.2969
668.5330, 105.9340
669.0151, 94.94641
669.4973, 82.22156
669.9794, 78.12988
670.4615, 87.66089
670.9436, 92.38428
671.4257, 87.72168
671.9078, 82.58521
672.3900, 81.54407
672.8721, 83.22217
673.3542, 85.50281
673.8363, 87.48560
674.3184, 87.47632
674.8005, 81.74988
675.2827, 71.19714
675.7648, 65.46082
676.2469, 65.96436
676.7290, 67.26440
677.2111, 68.13501
677.6932, 67.33594
678.1754, 62.10046
678.6575, 51.19202
679.1396, 42.71387
679.6217, 38.88501
680.1038, 37.74792
680.5859, 40.03320
681.0681, 43.55847
681.5502, 43.59070
682.0323, 38.35779
682.5144, 30.70251
682.9965, 24.81323
683.4786, 20.87854
683.9608, 15.31140
684.4429, 5.173950
684.9250, 1.218018
685.4071, 3.180542
685.8892, 11.06946
686.3713, 14.62402
686.8535, 12.92664
687.3356, 10.67651
687.8177, 9.934814
688.2998, 9.591919
688.7819, 8.350220
689.2640, 6.482544
689.7462, 5.494873
690.2283, 5.973022
690.7104, 5.965088
691.1925, 2.316772
691.6746, 5.671021
692.1567, 11.16516
692.6389, 13.21460
693.1210, 14.03662
693.6031, 13.17639
694.0852, 12.10327
694.5673, 12.42639
695.0494, 14.29053
695.5316, 16.34741
696.0137, 17.99646
696.4958, 19.26050
696.9779, 20.11829
697.4600, 20.59863
697.9421, 20.82471
698.4243, 20.81006
698.9064, 20.79260
699.3885, 21.40845
699.8706, 22.95105
700.3527, 21.27649
700.8348, 11.96692
701.3170, 4.839966
701.7991, 1.456177
702.2812, 1.104004
702.7633, 5.201294
703.2454, 12.52661
703.7275, 16.51038
704.2097, 10.20239
704.6918, 0.5991210
705.1739, 4.8340000E-02
705.6560, 6.631714
706.1381, 9.631714
706.6202, 5.500366
707.1024, 0.5874020
707.5845, 3.252319
708.0666, 2.570679
708.5487, 3.838135
709.0308, 10.61194
709.5129, 14.48535
709.9951, 10.99976
710.4772, 6.547607
710.9593, 6.157593
711.4414, 10.00574
711.9235, 16.16479
712.4056, 24.49670
712.8878, 32.67065
713.3699, 36.38269
713.8520, 36.29150
714.3341, 36.82056
714.8162, 38.62646
715.2983, 42.21350
715.7805, 48.82690
716.2626, 57.58032
716.7447, 63.33081
717.2268, 64.03174
717.7089, 64.91577
718.1910, 66.69385
718.6732, 68.53601
719.1553, 69.29224
719.6374, 69.65222
720.1195, 71.45947
720.6016, 75.71362
721.0837, 80.97681
721.5659, 85.19678
722.0480, 88.67371
722.5301, 93.85657
723.0122, 101.6555
723.4943, 106.4574
723.9764, 103.1075
724.4586, 95.89392
724.9407, 96.14990
725.4228, 107.7469
725.9049, 117.0565
726.3870, 122.3411
726.8691, 126.1924
727.3513, 129.5668
727.8334, 132.6307
728.3155, 135.0966
728.7976, 136.9463
729.2797, 139.4838
729.7618, 145.4951
730.2440, 153.3484
730.7261, 155.8461
731.2082, 152.3168
731.6903, 151.5447
732.1724, 158.2637
732.6545, 167.4590
733.1367, 171.5878
733.6188, 169.3525
734.1009, 169.1871
734.5830, 170.9667
735.0651, 174.8922
735.5472, 184.0385
736.0294, 193.6484
736.5115, 197.0391
736.9936, 194.2327
737.4757, 192.3232
737.9578, 197.4108
738.4399, 206.0332
738.9221, 211.0236
739.4042, 212.6173
739.8863, 214.5470
740.3684, 217.7014
740.8505, 221.6130
741.3326, 226.5308
741.8148, 232.0988
742.2969, 234.1049
742.7790, 226.4924
743.2611, 223.9790
743.7432, 233.0386
744.2253, 243.6478
744.7075, 247.4402
745.1896, 246.2587
745.6717, 247.2449
746.1538, 254.1572
746.6359, 262.7092
747.1180, 269.0396
747.6002, 272.7695
748.0823, 270.7058
748.5644, 262.1168
749.0465, 256.8986
749.5286, 261.2260
750.0107, 271.2549
750.4929, 278.0826
750.9750, 281.0442
751.4571, 282.6665
751.9392, 281.3098
752.4213, 280.5006
752.9034, 281.5255
753.3856, 283.8745
753.8677, 287.4032
754.3498, 291.9364
754.8319, 295.3146
755.3140, 295.1547
755.7961, 293.2588
756.2783, 292.1835
756.7604, 292.0277
757.2425, 293.3856
757.7246, 296.6064
758.2067, 299.6060
758.6888, 300.1016
759.1710, 297.9709
759.6531, 295.7467
760.1352, 290.4785
760.6173, 289.0472
761.0994, 296.2736
761.5815, 304.0847
762.0637, 306.2083
762.5458, 304.1594
763.0279, 303.7998
763.5100, 308.4479
763.9921, 312.9652
764.4742, 312.7572
764.9564, 310.1025
765.4385, 308.7885
765.9206, 309.0135
766.4027, 309.0336
766.8848, 307.7383
767.3669, 306.0200
767.8491, 306.5789
768.3312, 310.2153
768.8133, 312.8469
769.2954, 314.0647
769.7775, 315.0198
770.2596, 317.1510
770.7418, 318.8037
771.2239, 316.8459
771.7060, 310.3901
772.1881, 306.5461
772.6702, 310.3457
773.1523, 315.6521
773.6345, 318.1909
774.1166, 318.2603
774.5987, 316.4736
775.0808, 313.1964
775.5629, 309.6935
776.0450, 307.1323
776.5272, 305.4663
777.0093, 305.1417
777.4914, 306.9786
777.9735, 305.2495
778.4556, 296.3170
778.9377, 286.9302
779.4199, 283.0535
779.9020, 283.8845
780.3841, 285.1482
780.8662, 286.6987
781.3483, 288.6625
781.8304, 292.9102
782.3126, 296.0635
782.7947, 294.4305
783.2768, 289.2832
783.7589, 284.0432
784.2410, 280.1937
784.7231, 277.6522
785.2053, 277.0609
785.6874, 277.7285
786.1695, 276.5239
786.6516, 273.2411
787.1337, 270.3364
787.6158, 269.3767
788.0980, 268.0664
788.5801, 262.0903
789.0622, 249.9990
789.5443, 243.2522
790.0264, 246.3079
790.5085, 248.9427
790.9907, 249.0074
791.4728, 247.5459
791.9549, 245.2518
792.4370, 242.4395
792.9191, 239.4740
793.4012, 236.2271
793.8834, 233.4711
794.3655, 232.5198
794.8476, 232.4675
795.3297, 231.7483
795.8118, 229.9613
796.2939, 226.2471
796.7761, 219.8140
797.2582, 212.0464
797.7403, 206.4338
798.2224, 203.5215
798.7045, 200.1720
799.1866, 195.6422
799.6688, 191.7928
800.1509, 190.2732
800.6330, 189.3550
801.1151, 186.6340
801.5972, 182.0315
802.0793, 178.4026
802.5615, 177.5798
803.0436, 176.9020
803.5257, 174.8896
804.0078, 171.8649
804.4899, 168.2473
804.9720, 164.2858
805.4542, 160.4297
805.9363, 157.0547
806.4184, 153.6906
806.9005, 149.3776
807.3826, 144.1995
807.8647, 138.9742
808.3469, 133.5836
808.8290, 128.6830
809.3111, 125.0444
809.7932, 122.3456
810.2753, 119.2865
810.7574, 114.9039
811.2396, 112.0757
811.7217, 112.9232
812.2038, 113.0022
812.6859, 110.0165
813.1680, 105.2285
813.6501, 100.0962
814.1323, 95.08325
814.6144, 91.02100
815.0965, 89.43311
815.5786, 88.02734
816.0607, 84.10657
816.5428, 78.48535
817.0250, 72.67249
817.5071, 67.31622
817.9892, 64.24463
818.4713, 65.26984
818.9534, 68.66699
819.4355, 68.31726
819.9177, 63.02783
820.3998, 58.97882
820.8819, 58.02209
821.3640, 56.88696
821.8461, 53.33173
822.3282, 48.21509
822.8104, 42.87146
823.2925, 36.52679
823.7746, 33.12207
824.2567, 36.90710
824.7388, 40.31238
825.2209, 37.60632
825.7031, 32.31848
826.1852, 29.94568
826.6673, 31.46808
827.1494, 33.82324
827.6315, 35.41785
828.1136, 35.71423
828.5958, 32.97595
829.0779, 27.89734
829.5600, 23.91968
830.0421, 21.75836
830.5242, 19.66553
831.0063, 15.99365
831.4885, 11.88287
831.9706, 11.35364
832.4527, 16.50995
832.9348, 19.31012
833.4169, 17.74878
833.8990, 16.34204
834.3812, 17.15179
834.8633, 18.96722
835.3454, 20.65881
835.8275, 22.17914
836.3096, 22.15533
836.7917, 18.54688
837.2739, 14.76788
837.7560, 13.59070
838.2381, 13.34973
838.7202, 10.27155
839.2023, 4.956238
839.6844, 3.449646
840.1666, 10.81610
840.6487, 20.84369
841.1308, 21.07489
841.6129, 13.24945
842.0950, 10.77844
842.5771, 15.53784
843.0593, 19.17480
843.5414, 16.66132
844.0235, 11.54211
844.5056, 10.45441
844.9877, 14.54425
845.4698, 16.77197
845.9520, 17.20502
846.4341, 15.60986
846.9162, 9.892334
847.3983, 3.752747
847.8804, 0.1018070
848.3625, 1.437378
848.8447, 0.4721070
849.3268, 4.426453
849.8089, 8.877686
850.2910, 10.42303
850.7731, 10.24365
851.2552, 9.161194
851.7374, 7.647400
852.2195, 6.379639
852.7016, 5.683289
853.1837, 5.651001
853.6658, 7.070251
854.1479, 9.327087
854.6301, 9.181030
855.1122, 6.555664
855.5943, 3.844604
856.0764, 1.827576
856.5585, 0.1668700
857.0406, 1.809143
857.5228, 3.888794
858.0049, 3.277771
858.4870, 3.497314
858.9691, 7.103760
859.4512, 4.199036
859.9333, 0.6298220
860.4155, 0.6159670
860.8976, 0.3443600
861.3797, 0.1685180
861.8618, 0.2741090
862.3439, 0.9982300
862.8260, 3.400085
863.3082, 5.579712
863.7903, 5.723572
864.2724, 4.716370
864.7545, 4.525330
865.2366, 5.272278
865.7188, 4.830811
866.2009, 1.206604
866.6830, 3.720398
867.1651, 6.307129
867.6472, 6.871033
868.1293, 7.438965
868.6115, 8.343628
869.0936, 8.254761
869.5757, 5.963074
870.0578, 3.172363
870.5399, 3.749634
871.0220, 8.950195
871.5042, 11.14264
871.9863, 7.667297
872.4684, 5.429626
872.9505, 9.226929
873.4326, 13.11926
873.9147, 11.23303
874.3969, 4.381348
874.8790, 1.560181
875.3611, 6.065735
875.8432, 8.507263
876.3253, 8.268188
876.8074, 6.483459
877.2896, 2.959106
877.7717, 1.200317
878.2538, 3.408997
878.7359, 2.688110
879.2180, 1.598511
879.7001, 2.548279
880.1823, 4.730042
880.6644, 7.381287
881.1465, 9.984558
881.6286, 9.848938
882.1107, 6.371887
882.5928, 2.914124
883.0750, 2.429993
883.5571, 4.280029
884.0392, 6.554443
884.5213, 9.456909
885.0034, 11.62036
885.4855, 12.95947
885.9677, 13.43542
886.4498, 12.99939
886.9319, 11.67371
887.4140, 9.178528
887.8961, 5.175659
888.3782, 2.520569
888.8604, 1.515259
889.3425, 1.592407
889.8246, 3.344482
890.3067, 5.600159
890.7888, 7.610657
891.2709, 9.164368
891.7531, 9.957947
892.2352, 9.833923
892.7173, 9.291809
893.1994, 7.586243
893.6815, 6.435791
894.1636, 8.859131
894.6458, 13.46057
895.1279, 16.19873
895.6100, 15.91315
896.0921, 15.05219
896.5742, 16.28082
897.0563, 18.25171
897.5385, 16.76648
898.0206, 12.31989
898.5027, 9.789734
898.9848, 9.959595
899.4669, 12.40302
899.9490, 17.66431
900.4312, 23.52173
900.9133, 24.23132
901.3954, 17.86346
901.8775, 15.50018
902.3596, 19.52997
902.8417, 23.57745
903.3239, 25.87512
903.8060, 27.17126
904.2881, 28.09772
904.7702, 28.50214
905.2523, 28.03735
905.7344, 24.57446
906.2166, 23.75421
906.6987, 29.76672
907.1808, 36.35742
907.6629, 38.80670
908.1450, 38.45557
908.6271, 38.60297
909.1093, 40.09070
909.5914, 40.82880
910.0735, 38.21069
910.5556, 34.88367
911.0377, 33.54688
911.5198, 33.71320
912.0020, 35.36877
912.4841, 38.01917
912.9662, 38.94086
913.4483, 36.17004
913.9304, 32.32587
914.4125, 32.57458
914.8947, 35.85455
915.3768, 34.64642
915.8589, 28.66754
916.3410, 24.47040
916.8231, 24.20776
917.3052, 26.13092
917.7874, 28.84485
918.2695, 32.29437
918.7516, 34.20978
919.2337, 34.20483
919.7158, 32.27521
920.1979, 26.76166
920.6801, 21.98358
921.1622, 21.73523
921.6443, 23.34357
922.1264, 22.10333
922.6085, 17.14301
923.0906, 13.98083
923.5728, 14.99103
924.0549, 16.49622
924.5370, 17.31500
925.0191, 17.51416
925.5012, 16.75714
925.9833, 15.53497
926.4655, 15.37177
926.9476, 17.15826
927.4297, 18.57715
927.9118, 17.65924
928.3939, 16.09814
928.8760, 15.49298
929.3582, 15.60645
929.8403, 15.64142
930.3224, 15.62274
930.8045, 17.17749
931.2866, 22.40131
931.7687, 27.74341
932.2509, 24.88782
932.7330, 16.01917
933.2151, 11.95502
933.6972, 13.69971
934.1793, 14.71729
934.6614, 11.73883
935.1436, 7.737854
935.6257, 6.819458
936.1078, 8.630493
936.5899, 10.83459
937.0720, 13.83142
937.5541, 16.00275
938.0363, 16.58582
938.5184, 16.77979
939.0005, 17.57928
939.4826, 18.58136
939.9647, 18.67651
940.4468, 17.47540
940.9290, 16.33453
941.4111, 15.57025
941.8932, 14.81122
942.3753, 13.28918
942.8574, 11.99725
943.3395, 11.97705
943.8217, 13.14093
944.3038, 14.74768
944.7859, 16.98151
945.2680, 19.16858
945.7501, 21.44623
946.2322, 22.76837
946.7144, 22.33636
947.1965, 20.64911
947.6786, 17.91211
948.1607, 14.50067
948.6428, 12.63361
949.1249, 14.67670
949.6071, 17.67413
950.0892, 18.58856
950.5713, 18.39301
951.0534, 18.55597
951.5355, 19.16101
952.0176, 20.17914
952.4998, 21.55396
952.9819, 21.96423
953.4640, 19.28961
953.9461, 14.63287
954.4282, 11.18738
954.9103, 8.907288
955.3925, 7.517639
955.8746, 6.917480
956.3567, 6.614075
956.8388, 6.320068
957.3209, 6.152527
957.8030, 6.534790
958.2852, 7.608276
958.7673, 7.052246
959.2494, 4.312561
959.7315, 2.046265
960.2136, 1.311218
960.6957, 0.8182980
961.1779, 1.016357
961.6600, 3.627747
962.1421, 3.893005
962.6242, 0.1926880
963.1063, 2.609497
963.5884, 2.181580
964.0706, 1.470276
964.5527, 1.579407
965.0348, 1.839539
965.5169, 1.650696
965.9990, 0.9574580
966.4811, 0.5278930
966.9633, 4.208496
967.4454, 6.757813
967.9275, 7.602417
968.4096, 6.975952
968.8917, 3.385559
969.3738, 0.9133300
969.8560, 2.103333
970.3381, 0.4838870
970.8202, 3.607117
971.3023, 7.263977
971.7844, 9.240784
972.2665, 6.461426
972.7487, 2.222534
973.2308, 0.4240720
973.7129, 0.9018550
974.1950, 1.602478
974.6771, 1.722290
975.1592, 2.403381
975.6414, 6.734985
976.1235, 10.73456
976.6056, 6.355896
977.0877, 2.329773
977.5698, 4.862854
978.0519, 0.3432010
978.5341, 4.668274
979.0162, 6.332703
979.4983, 5.882263
979.9804, 4.273438
980.4625, 2.186340
980.9446, 2.469666
981.4268, 4.822693
981.9089, 6.633911
982.3910, 7.229309
982.8731, 6.954346
983.3552, 6.013367
983.8373, 4.693481
984.3195, 3.337646
984.8016, 1.817993
985.2837, 2.555969
985.7658, 6.237122
986.2479, 8.848511
986.7300, 8.775940
987.2122, 7.791260
987.6943, 7.660400
988.1764, 8.141235
988.6585, 7.868347
989.1406, 6.289185
989.6227, 5.698364
990.1049, 7.349731
990.5870, 7.956543
991.0691, 5.060913
991.5512, 1.342712
992.0333, 0.5795290
992.5154, 2.760986
992.9976, 3.583435
993.4797, 7.5072996E-02
993.9618, 0.5584110
994.4439, 5.327087
994.9260, 10.46521
995.4081, 10.93433
995.8903, 8.972656
996.3724, 7.427185
996.8545, 6.496643
997.3366, 5.659729
997.8187, 4.020264
998.3008, 3.577271
998.7830, 6.896667
999.2651, 9.691956
999.7472, 8.035645
1000.229, 3.990967
1000.711, 0.8087160
1001.194, 0.8261110
1001.676, 0.1240230
1002.158, 6.719543
1002.640, 11.88397
1003.122, 9.439453
1003.604, 4.163208
1004.086, 0.6699220
1004.568, 1.211609
1005.050, 3.994385
1005.533, 8.410889
1006.015, 10.56671
1006.497, 6.098816
1006.979, 0.2629390
1007.461, 5.353088
1007.943, 8.545715
1008.425, 8.005737
1008.907, 4.662354
1009.390, 1.984863
1009.872, 1.400024
1010.354, 1.032349
1010.836, 1.433044
1011.318, 4.441772
1011.800, 5.481506
1012.282, 5.054504
1012.764, 3.879089
1013.246, 2.438232
1013.729, 2.449402
1014.211, 4.891968
1014.693, 7.837219
1015.175, 8.696716
1015.657, 8.058105
1016.139, 7.042175
1016.621, 5.959167
1017.103, 7.259888
1017.586, 11.18842
1018.068, 13.94885
1018.550, 13.04382
1019.032, 10.44910
1019.514, 9.323303
1019.996, 9.625061
1020.478, 10.56824
1020.960, 12.06763
1021.442, 13.87720
1021.925, 16.02496
1022.407, 17.31805
1022.889, 16.83405
1023.371, 15.10687
1023.853, 12.74072
1024.335, 9.685974
1024.817, 10.04260
1025.299, 14.58984
1025.781, 16.73059
1026.264, 14.46594
1026.746, 11.65082
1027.228, 10.75818
1027.710, 11.52301
1028.192, 13.90063
1028.674, 18.25049
1029.156, 20.72778
1029.638, 20.85693
1030.120, 21.19489
1030.603, 22.58002
1031.085, 23.66144
1031.567, 22.86133
1032.049, 21.43005
1032.531, 23.08704
1033.013, 29.19781
1033.495, 31.71918
1033.977, 28.43768
1034.460, 26.79889
1034.942, 29.86426
1035.424, 33.24866
1035.906, 33.72510
1036.388, 31.79431
1036.870, 28.93036
1037.352, 23.78809
1037.834, 22.88562
1038.317, 29.16565
1038.799, 35.24261
1039.281, 40.27075
1039.763, 43.50610
1040.245, 43.10028
1040.727, 40.76099
1041.209, 41.49872
1041.691, 46.59979
1042.173, 50.60571
1042.656, 53.36725
1043.138, 55.11298
1043.620, 53.76819
1044.102, 53.25623
1044.584, 58.37201
1045.066, 66.41931
1045.548, 69.76569
1046.030, 66.14685
1046.512, 64.92847
1046.995, 68.40784
1047.477, 72.73572
1047.959, 78.85657
1048.441, 83.46484
1048.923, 82.39502
1049.405, 78.20947
1049.887, 77.12585
1050.369, 80.34766
1050.852, 83.96118
1051.334, 87.62878
1051.816, 91.22095
1052.298, 94.20630
1052.780, 97.38733
1053.262, 102.1964
1053.744, 107.7280
1054.226, 111.7272
1054.708, 113.6930
1055.191, 115.5641
1055.673, 116.8939
1056.155, 119.4685
1056.637, 124.6420
1057.119, 130.6183
1057.601, 136.8895
1058.083, 142.6829
1058.565, 146.2729
1059.047, 147.1355
1059.530, 148.4384
1060.012, 151.4709
1060.494, 154.6073
1060.976, 155.6597
1061.458, 158.2806
1061.940, 167.4894
1062.422, 179.7449
1062.904, 187.6406
1063.387, 189.8003
1063.869, 192.7302
1064.351, 200.0588
1064.833, 207.0201
1065.315, 210.7394
1065.797, 213.8544
1066.279, 220.3069
1066.761, 227.1798
1067.244, 227.6619
1067.726, 221.0854
1068.208, 216.9473
1068.690, 221.0168
1069.172, 225.7524
1069.654, 227.1079
1070.136, 228.3043
1070.618, 233.1522
1071.100, 239.0875
1071.583, 240.8336
1072.065, 238.1951
1072.547, 237.1934
1073.029, 240.2120
1073.511, 245.2463
1073.993, 253.3970
1074.475, 261.1071
1074.957, 263.7778
1075.439, 265.2209
1075.922, 271.5764
1076.404, 282.9843
1076.886, 294.5815
1077.368, 304.9714
1077.850, 314.2872
1078.332, 323.4331
1078.814, 330.8397
1079.297, 334.1714
1079.779, 335.7881
1080.261, 339.0366
1080.743, 343.7268
1081.225, 347.0071
1081.707, 347.9270
1082.189, 347.3859
1082.671, 347.1124
1083.153, 344.0063
1083.635, 332.2594
1084.118, 319.2728
1084.600, 313.8224
1085.082, 315.0547
1085.564, 317.3304
1086.046, 319.2992
1086.528, 320.9589
1087.010, 321.3732
1087.492, 322.5660
1087.975, 326.9335
1088.457, 331.6313
1088.939, 333.1801
1089.421, 332.7598
1089.903, 334.3444
1090.385, 339.1372
1090.867, 342.5742
1091.349, 342.0753
1091.832, 340.8217
1092.314, 338.0017
1092.796, 337.2455
1093.278, 343.1002
1093.760, 352.4163
1094.242, 360.0917
1094.724, 365.2432
1095.206, 366.8666
1095.688, 359.6945
1096.171, 355.8666
1096.653, 363.6732
1097.135, 371.8151
1097.617, 371.5111
1098.099, 367.2059
1098.581, 365.6991
1099.063, 367.5309
1099.545, 369.9167
1100.027, 372.5139
1100.510, 375.6110
1100.992, 379.0011
1101.474, 383.0748
1101.956, 389.8956
1102.438, 396.2255
1102.920, 397.6829
1103.402, 394.9536
1103.884, 393.1160
1104.367, 393.7377
1104.849, 394.1849
1105.331, 392.9073
1105.813, 391.7966
1106.295, 391.1091
1106.777, 392.1195
1107.259, 397.0797
1107.741, 404.4441
1108.224, 409.3829
1108.706, 410.8077
1109.188, 411.3296
1109.670, 407.3408
1110.152, 408.1875
1110.634, 420.8569
1111.116, 433.1401
1111.598, 437.0862
1112.080, 437.1089
1112.563, 439.7771
1113.045, 444.6489
1113.527, 449.2762
1114.009, 455.5898
1114.491, 458.8894
1114.973, 453.8936
1115.455, 452.2386
1115.937, 461.8661
1116.419, 475.9016
1116.902, 486.1934
1117.384, 492.8901
1117.866, 497.0010
1118.348, 496.2288
1118.830, 499.3180
1119.312, 506.4429
1119.794, 515.3851
1120.276, 527.4070
1120.759, 537.8633
1121.241, 540.9362
1121.723, 539.7554
1122.205, 545.9720
1122.687, 561.6669
1123.169, 576.3806
1123.651, 590.2760
1124.133, 601.2551
1124.615, 607.8503
1125.098, 612.9651
1125.580, 618.9626
1126.062, 626.7280
1126.544, 637.0967
1127.026, 649.3105
1127.508, 660.7279
1127.990, 671.6514
1128.472, 679.2576
1128.954, 683.3882
1129.437, 687.0049
1129.919, 691.0215
1130.401, 694.3931
1130.883, 696.1658
1131.365, 697.0582
1131.847, 699.8899
1132.329, 704.3889
1132.811, 708.0479
1133.294, 710.3667
1133.776, 707.3679
1134.258, 697.7786
1134.740, 689.1699
1135.222, 688.4299
1135.704, 690.6753
1136.186, 684.3562
1136.668, 671.8341
1137.151, 662.2797
1137.633, 655.2910
1138.115, 648.2625
1138.597, 640.4360
1139.079, 630.9231
1139.561, 619.0457
1140.043, 608.0720
1140.525, 604.2327
1141.007, 602.2766
1141.490, 590.6875
1141.972, 573.7500
1142.454, 561.2473
1142.936, 553.2354
1143.418, 545.0615
1143.900, 535.0803
1144.382, 524.6726
1144.864, 514.2158
1145.346, 504.8855
1145.829, 497.8501
1146.311, 492.5735
1146.793, 490.9390
1147.275, 489.5520
1147.757, 480.7891
1148.239, 465.1694
1148.721, 451.4595
1149.203, 444.2620
1149.686, 436.3279
1150.168, 418.0796
1150.650, 402.8130
1151.132, 405.6104
1151.614, 412.9146
1152.096, 409.8423
1152.578, 397.4146
1153.060, 380.9561
1153.542, 361.2920
1154.025, 346.2151
1154.507, 343.3801
1154.989, 338.5847
1155.471, 321.9060
1155.953, 306.8201
1156.435, 307.4131
1156.917, 312.0627
1157.399, 302.6133
1157.881, 279.7886
1158.364, 262.0591
1158.846, 252.8145
1159.328, 245.6611
1159.810, 241.8030
1160.292, 237.8645
1160.774, 235.8784
1161.256, 229.7659
1161.738, 210.2629
1162.221, 185.4299
1162.703, 176.4194
1163.185, 186.4236
1163.667, 185.2129
1164.149, 169.4189
1164.631, 151.3604
1165.113, 130.9055
1165.595, 114.2390
1166.078, 105.5137
1166.560, 99.59229
1167.042, 89.83545
1167.524, 78.07666
1168.006, 75.22266
1168.488, 82.36133
1168.970, 72.54688
1169.452, 43.78467
1169.934, 22.20264
1170.417, 15.52051
1170.899, 13.76758
1171.381, 9.833496
1171.863, 4.782227
1172.345, 0.4467770
1172.827, 3.598633
1173.309, 8.538574
1173.791, 14.60303
1174.273, 21.92773
1174.756, 31.13818
1175.238, 45.83252
1175.720, 66.72852
1176.202, 84.59570
1176.684, 90.43945
1177.166, 91.05615
1177.648, 92.89062
1178.130, 95.83887
1178.613, 98.69238
1179.095, 102.5156
1179.577, 110.1763
1180.059, 120.8325
1180.541, 129.2803
1181.023, 133.3701
1181.505, 135.4263
1181.987, 131.9756
1182.469, 132.4370
1182.952, 149.4658
1183.434, 167.7422
1183.916, 171.7075
1184.398, 165.3286
1184.880, 157.6152
1185.362, 150.1904
1185.844, 146.1206
1186.326, 151.9629
1186.808, 152.7031
1187.291, 141.5127
1187.773, 130.2231
1188.255, 124.7461
1188.737, 120.7031
1189.219, 114.0332
1189.701, 104.6763
1190.183, 91.70898
1190.665, 74.22607
1191.148, 56.58740
1191.630, 39.08252
1192.112, 19.37939
1192.594, 4.287598
1193.076, 25.41846
1193.558, 38.38574
1194.040, 53.89258
1194.522, 86.69531
1195.005, 131.4463
1195.487, 165.1567
1195.969, 187.8599
1196.451, 212.6748
1196.933, 240.3657
1197.415, 271.9429
1197.897, 307.9922
1198.379, 346.3652
1198.861, 386.5942
1199.344, 429.6074
1199.826, 479.1797
1200.308, 531.9990
1200.790, 583.1006
1201.272, 632.5557
1201.754, 677.6890
1202.236, 722.1128
1202.718, 777.2285
1203.200, 845.5762
1203.683, 914.9561
1204.165, 974.2852
1204.647, 1043.604
1205.129, 1147.530
1205.611, 1258.008
1206.093, 1349.204
1206.575, 1432.274
1207.057, 1520.351
1207.540, 1613.330
1208.022, 1707.684
1208.504, 1801.341
1208.986, 1904.981
1209.468, 2026.230
1209.950, 2150.918
1210.432, 2272.758
1210.914, 2401.834
1211.396, 2551.173
1211.879, 2704.452
1212.361, 2838.721
1212.843, 2964.343
1213.325, 3122.563
1213.807, 3321.938
1214.289, 3508.437
1214.771, 3677.976
1215.253, 3848.723
1215.735, 4020.288
1216.218, 4204.938
1216.700, 4410.529
1217.182, 4627.246
1217.664, 4847.150
1218.146, 5069.200
1218.628, 5295.237
1219.110, 5524.449
1219.592, 5755.249
1220.075, 5989.240
1220.557, 6242.729
1221.039, 6517.057
1221.521, 6802.191
1222.003, 7091.609
1222.485, 7383.289
1222.967, 7668.670
1223.449, 7962.797
1223.932, 8289.961
1224.414, 8629.908
1224.896, 8955.442
1225.378, 9261.622
1225.860, 9576.245
1226.342, 9898.679
1226.824, 10210.10
1227.306, 10498.17
1227.788, 10799.38
1228.271, 11123.97
1228.753, 11468.72
1229.235, 11850.06
1229.717, 12228.00
1230.199, 12568.68
1230.681, 12887.66
1231.163, 13217.15
1231.645, 13554.79
1232.127, 13891.97
1232.610, 14235.63
1233.092, 14558.25
1233.574, 14859.95
1234.056, 15158.84
1234.538, 15460.29
1235.020, 15755.22
1235.502, 16037.98
1235.984, 16310.99
1236.467, 16573.77
1236.949, 16833.01
1237.431, 17105.55
1237.913, 17383.46
1238.395, 17635.17
1238.877, 17861.48
1239.359, 18091.06
1239.841, 18327.06
1240.323, 18535.21
1240.806, 18688.50
1241.288, 18823.82
1241.770, 18988.22
1242.252, 19140.11
1242.734, 19232.79
1243.216, 19294.45
1243.698, 19371.58
1244.180, 19443.39
1244.662, 19456.26
1245.145, 19403.60
1245.627, 19330.25
1246.109, 19248.35
1246.591, 19145.67
1247.073, 19002.29
1247.555, 18863.34
1248.037, 18781.04
1248.519, 18663.64
1249.002, 18433.71
1249.484, 18138.00
1249.966, 17855.22
1250.448, 17585.92
1250.930, 17339.75
1251.412, 17121.75
1251.894, 16870.77
1252.376, 16581.03
1252.859, 16262.71
1253.341, 15919.82
1253.823, 15577.79
1254.305, 15256.46
1254.787, 14926.61
1255.269, 14540.78
1255.751, 14124.71
1256.233, 13713.50
1256.715, 13309.83
1257.198, 12915.46
1257.680, 12529.43
1258.162, 12154.47
1258.644, 11785.44
1259.126, 11395.08
1259.608, 10963.65
1260.090, 10545.34
1260.572, 10177.47
1261.054, 9812.363
1261.537, 9430.707
1262.019, 9041.713
1262.501, 8642.635
1262.983, 8246.014
1263.465, 7868.961
1263.947, 7511.488
1264.429, 7161.711
1264.911, 6825.393
1265.394, 6478.977
1265.876, 6117.699
1266.358, 5765.309
1266.840, 5426.561
1267.322, 5108.209
1267.804, 4814.662
1268.286, 4530.426
1268.768, 4238.795
1269.250, 3941.812
1269.733, 3638.725
1270.215, 3336.703
1270.697, 3048.535
1271.179, 2776.779
1271.661, 2526.639
1272.143, 2295.916
1272.625, 2074.250
1273.107, 1858.006
1273.589, 1650.143
1274.072, 1454.059
1274.554, 1267.275
1275.036, 1097.977
1275.518, 928.1914
1276.000, 730.5977
1276.482, 540.0020
1276.964, 402.6660
1277.446, 309.2402
1277.929, 216.8359
1278.411, 125.6270
1278.893, 56.97461
1279.375, 19.18359
1279.857, 10.80664
1280.339, 35.24414
1280.821, 10.87305
1281.303, 82.05859
1281.786, 89.27148
1282.268, 0.0000000E+00
##END=



