##NAMES=Tundrite-(Ce)
##RRUFFID=R060837
##IDEAL CHEMISTRY=Na_2_Ce^3+^_2_Ti^4+^O_2_SiO_4_(CO_3_)_2_
##LOCALITY=Barkeviksjaer, Norway
##OWNER=RRUFF
##SOURCE=Michael Scott
##DESCRIPTION=Brown elongated bladed crystals associated with white orthoclase and black amphibole
##STATUS=The identification of this mineral is confirmed by single-crystal X-ray diffraction and chemical analysis.
##URL=rruff.info/R060837
##MEASURED CHEMISTRY=(Na_1.95_Ca_0.05_)_Σ=2_(Ce_1.15_La_0.60_Nd_0.25_)_Σ=2_(Ti_0.95_Nb_0.05_)_Σ=1_O_2_Si_1.00_O_4_(CO_3_)_2_; CO_2_ estimated by difference
125.8665, 0.0000000E+00
126.3486, 2.599945
126.8307, 16.29800
127.3128, 35.43411
127.7949, 61.76794
128.2770, 91.28131
128.7592, 121.3863
129.2413, 147.6070
129.7234, 157.1794
130.2055, 161.8090
130.6876, 183.6082
131.1698, 189.4647
131.6519, 204.3934
132.1340, 225.9141
132.6161, 184.0983
133.0982, 151.7836
133.5803, 135.3607
134.0625, 111.8541
134.5446, 69.91779
135.0267, 30.01608
135.5088, 9.013214
135.9909, 8.854980
136.4730, 15.31543
136.9552, 6.168213
137.4373, 41.47595
137.9194, 60.71942
138.4015, 30.08490
138.8836, 15.05646
139.3657, 43.54706
139.8479, 46.74384
140.3300, 37.83868
140.8121, 40.47595
141.2942, 64.16193
141.7763, 86.08075
142.2584, 106.1397
142.7406, 124.2395
143.2227, 140.2814
143.7048, 154.3794
144.1869, 166.4312
144.6690, 176.3928
145.1511, 183.1693
145.6333, 189.5399
146.1154, 195.1699
146.5975, 200.8311
147.0796, 209.2341
147.5617, 222.1978
148.0438, 235.5413
148.5260, 237.1309
149.0081, 222.9062
149.4902, 206.8636
149.9723, 191.1454
150.4544, 176.1420
150.9365, 163.1390
151.4187, 153.2921
151.9008, 144.8256
152.3829, 132.3979
152.8650, 114.5072
153.3471, 96.03748
153.8292, 75.16516
154.3114, 54.54700
154.7935, 43.34985
155.2756, 49.43066
155.7577, 64.26843
156.2398, 64.25806
156.7219, 37.82849
157.2041, 14.37915
157.6862, 8.996460
158.1683, 19.50525
158.6504, 38.37720
159.1325, 68.37732
159.6146, 100.1039
160.0968, 110.4558
160.5789, 82.31018
161.0610, 55.56714
161.5431, 58.99817
162.0252, 89.47095
162.5073, 121.8385
162.9895, 145.1708
163.4716, 161.3800
163.9537, 176.2319
164.4358, 189.5065
164.9179, 202.0240
165.4000, 214.0814
165.8822, 225.6469
166.3643, 237.9392
166.8464, 253.9215
167.3285, 269.9833
167.8106, 279.4520
168.2927, 276.1836
168.7749, 272.7113
169.2570, 283.9186
169.7391, 310.4271
170.2212, 331.9924
170.7033, 335.3242
171.1854, 328.4508
171.6676, 323.5880
172.1497, 321.9860
172.6318, 323.5699
173.1139, 328.4650
173.5960, 336.8599
174.0781, 347.9148
174.5603, 365.5316
175.0424, 384.0530
175.5245, 394.8264
176.0066, 391.8682
176.4887, 385.9709
176.9708, 389.5627
177.4530, 403.5063
177.9351, 421.8701
178.4172, 449.6638
178.8993, 477.7874
179.3814, 492.4290
179.8635, 482.8733
180.3457, 468.5173
180.8278, 476.7993
181.3099, 512.1152
181.7920, 546.2720
182.2741, 567.7529
182.7562, 579.6562
183.2384, 581.7249
183.7205, 567.0757
184.2026, 550.7761
184.6847, 555.6892
185.1668, 587.5554
185.6489, 613.3555
186.1311, 607.2954
186.6132, 590.9858
187.0953, 585.8228
187.5774, 599.3342
188.0595, 623.5933
188.5416, 652.5376
189.0238, 690.8850
189.5059, 713.9670
189.9880, 695.3616
190.4701, 662.3560
190.9522, 639.1479
191.4343, 631.8643
191.9165, 637.9065
192.3986, 658.5652
192.8807, 699.0310
193.3628, 730.3860
193.8449, 725.2837
194.3270, 713.3979
194.8092, 723.4761
195.2913, 765.7625
195.7734, 819.8130
196.2555, 858.2427
196.7376, 878.1943
197.2197, 895.0242
197.7019, 911.1677
198.1840, 929.0864
198.6661, 949.7559
199.1482, 972.4229
199.6303, 1001.591
200.1124, 1047.601
200.5946, 1115.415
201.0767, 1174.255
201.5588, 1205.810
202.0409, 1226.804
202.5230, 1250.292
203.0051, 1279.935
203.4873, 1308.758
203.9694, 1324.032
204.4515, 1321.779
204.9336, 1331.155
205.4157, 1368.576
205.8978, 1418.091
206.3800, 1471.672
206.8621, 1529.753
207.3442, 1580.780
207.8263, 1604.739
208.3084, 1597.661
208.7905, 1604.211
209.2727, 1654.699
209.7548, 1712.503
210.2369, 1748.885
210.7190, 1758.289
211.2011, 1756.822
211.6832, 1757.745
212.1654, 1760.993
212.6475, 1766.861
213.1296, 1776.590
213.6117, 1788.238
214.0938, 1801.510
214.5760, 1816.560
215.0581, 1829.303
215.5402, 1837.323
216.0223, 1840.577
216.5044, 1837.075
216.9865, 1821.264
217.4687, 1802.990
217.9508, 1789.829
218.4329, 1782.196
218.9150, 1776.651
219.3971, 1770.210
219.8792, 1763.231
220.3614, 1759.157
220.8435, 1759.062
221.3256, 1761.627
221.8077, 1766.892
222.2898, 1774.599
222.7719, 1780.565
223.2541, 1781.410
223.7362, 1777.532
224.2183, 1770.473
224.7004, 1757.302
225.1825, 1745.309
225.6646, 1737.470
226.1468, 1734.268
226.6289, 1739.748
227.1110, 1761.543
227.5931, 1795.108
228.0752, 1824.621
228.5573, 1844.829
229.0395, 1866.580
229.5216, 1900.821
230.0037, 1944.045
230.4858, 1985.319
230.9679, 2020.054
231.4500, 2048.360
231.9322, 2067.953
232.4143, 2074.117
232.8964, 2084.188
233.3785, 2116.757
233.8606, 2163.899
234.3427, 2207.354
234.8249, 2240.411
235.3070, 2268.451
235.7891, 2299.481
236.2712, 2335.846
236.7533, 2368.393
237.2354, 2389.957
237.7176, 2403.422
238.1997, 2412.320
238.6818, 2413.324
239.1639, 2412.867
239.6460, 2420.278
240.1281, 2436.051
240.6103, 2446.904
241.0924, 2442.314
241.5745, 2427.838
242.0566, 2418.248
242.5387, 2423.154
243.0208, 2424.298
243.5030, 2403.783
243.9851, 2364.293
244.4672, 2326.896
244.9493, 2303.316
245.4314, 2287.843
245.9135, 2266.134
246.3957, 2238.324
246.8778, 2204.583
247.3599, 2161.074
247.8420, 2110.866
248.3241, 2065.852
248.8062, 2032.773
249.2884, 2004.188
249.7705, 1962.030
250.2526, 1896.842
250.7347, 1842.782
251.2168, 1822.278
251.6989, 1819.748
252.1811, 1804.367
252.6632, 1764.658
253.1453, 1715.091
253.6274, 1682.764
254.1095, 1677.093
254.5916, 1653.579
255.0738, 1587.617
255.5559, 1505.932
256.0380, 1442.247
256.5201, 1404.416
257.0022, 1376.828
257.4843, 1340.668
257.9665, 1293.443
258.4486, 1246.411
258.9307, 1198.147
259.4128, 1151.385
259.8949, 1110.055
260.3770, 1073.866
260.8592, 1036.529
261.3413, 989.8064
261.8234, 930.5176
262.3055, 890.3945
262.7876, 888.1477
263.2697, 886.2009
263.7519, 862.4941
264.2340, 819.9443
264.7161, 774.4668
265.1982, 738.5239
265.6803, 711.6040
266.1624, 676.2363
266.6446, 624.3359
267.1267, 573.9294
267.6088, 529.8455
268.0909, 491.1650
268.5730, 455.5688
269.0551, 421.5605
269.5373, 389.9456
270.0194, 364.3582
270.5015, 360.8479
270.9836, 344.9033
271.4657, 299.4832
271.9478, 244.9023
272.4300, 206.5435
272.9121, 194.5054
273.3942, 197.3242
273.8763, 189.1333
274.3584, 155.7566
274.8405, 136.2410
275.3227, 153.0073
275.8048, 169.8691
276.2869, 151.1582
276.7690, 91.86816
277.2511, 24.95996
277.7332, 0.9589840
278.2154, 31.81836
278.6975, 47.05273
279.1796, 24.51318
279.6617, 0.5898440
280.1438, 10.38916
280.6259, 4.954102
281.1081, 4.502441
281.5902, 8.048340
282.0723, 5.545410
282.5544, 5.241699
283.0365, 16.22852
283.5186, 18.54932
284.0008, 2.380371
284.4829, 37.92529
284.9650, 68.52539
285.4471, 80.51611
285.9292, 79.18604
286.4113, 82.79541
286.8935, 93.28711
287.3756, 104.6943
287.8577, 122.4138
288.3398, 137.3147
288.8219, 134.3977
289.3040, 101.9590
289.7862, 59.87256
290.2683, 37.57861
290.7504, 38.19629
291.2325, 35.53223
291.7146, 10.85107
292.1967, 17.31885
292.6789, 25.05566
293.1610, 3.774414
293.6431, 17.85059
294.1252, 16.28467
294.6073, 5.030762
295.0894, 25.42725
295.5716, 35.33447
296.0537, 47.91553
296.5358, 84.37695
297.0179, 146.8433
297.5000, 200.7549
297.9821, 226.7310
298.4643, 236.1528
298.9464, 249.3481
299.4285, 270.5493
299.9106, 289.9609
300.3927, 293.4990
300.8748, 280.9458
301.3570, 282.3726
301.8391, 314.3296
302.3212, 351.9424
302.8033, 373.3970
303.2854, 378.9360
303.7675, 383.7246
304.2497, 399.5977
304.7318, 425.3188
305.2139, 442.5889
305.6960, 441.0493
306.1781, 443.4253
306.6602, 464.0767
307.1424, 494.8179
307.6245, 519.2178
308.1066, 529.1108
308.5887, 527.4785
309.0708, 523.2456
309.5529, 506.9639
310.0351, 499.9731
310.5172, 512.1206
310.9993, 529.6172
311.4814, 538.3252
311.9635, 534.4326
312.4456, 524.6743
312.9278, 517.3628
313.4099, 507.5552
313.8920, 513.9961
314.3741, 549.4492
314.8562, 587.8872
315.3383, 616.1519
315.8205, 633.7354
316.3026, 646.8247
316.7847, 661.3223
317.2668, 677.2266
317.7489, 686.1104
318.2310, 674.2871
318.7132, 671.9736
319.1953, 698.5825
319.6774, 739.2949
320.1595, 767.6377
320.6416, 765.8828
321.1237, 749.3022
321.6059, 755.5488
322.0880, 793.2344
322.5701, 829.2676
323.0522, 849.2798
323.5343, 863.7769
324.0164, 880.7612
324.4986, 901.3613
324.9807, 928.0122
325.4628, 971.5522
325.9449, 1029.508
326.4270, 1063.988
326.9091, 1053.249
327.3913, 1031.126
327.8734, 1033.011
328.3555, 1058.380
328.8376, 1088.923
329.3197, 1125.986
329.8018, 1160.445
330.2840, 1172.958
330.7661, 1158.591
331.2482, 1140.422
331.7303, 1137.327
332.2124, 1148.442
332.6945, 1160.300
333.1767, 1172.355
333.6588, 1184.744
334.1409, 1198.052
334.6230, 1211.999
335.1051, 1225.565
335.5872, 1238.416
336.0694, 1250.516
336.5515, 1261.127
337.0336, 1264.081
337.5157, 1273.340
337.9979, 1296.264
338.4800, 1325.212
338.9621, 1352.889
339.4442, 1376.346
339.9263, 1391.358
340.4084, 1388.937
340.8906, 1352.167
341.3727, 1339.178
341.8548, 1367.161
342.3369, 1399.342
342.8190, 1414.332
343.3011, 1414.832
343.7833, 1414.964
344.2654, 1427.320
344.7475, 1451.457
345.2296, 1465.801
345.7117, 1461.200
346.1938, 1457.177
346.6760, 1454.323
347.1581, 1456.983
347.6402, 1472.033
348.1223, 1503.513
348.6044, 1538.122
349.0865, 1550.762
349.5687, 1536.029
350.0508, 1529.493
350.5329, 1547.368
351.0150, 1572.353
351.4971, 1591.538
351.9792, 1604.923
352.4614, 1614.369
352.9435, 1619.019
353.4256, 1618.320
353.9077, 1609.672
354.3898, 1588.125
354.8719, 1569.103
355.3541, 1575.282
355.8362, 1599.116
356.3183, 1608.677
356.8004, 1583.997
357.2825, 1548.962
357.7646, 1525.679
358.2468, 1515.171
358.7289, 1513.937
359.2110, 1524.330
359.6931, 1540.594
360.1752, 1537.142
360.6573, 1495.559
361.1395, 1459.541
361.6216, 1447.473
362.1037, 1445.269
362.5858, 1430.617
363.0679, 1396.682
363.5500, 1357.678
364.0322, 1335.487
364.5143, 1338.495
364.9964, 1336.986
365.4785, 1334.537
365.9606, 1325.406
366.4427, 1298.519
366.9249, 1260.394
367.4070, 1232.233
367.8891, 1234.380
368.3712, 1261.066
368.8533, 1260.596
369.3354, 1208.870
369.8176, 1163.843
370.2997, 1146.465
370.7818, 1140.507
371.2639, 1127.104
371.7460, 1099.368
372.2281, 1065.086
372.7103, 1032.272
373.1924, 1000.773
373.6745, 975.1533
374.1566, 960.6826
374.6387, 948.3716
375.1208, 930.4209
375.6030, 907.0269
376.0851, 883.3369
376.5672, 861.7808
377.0493, 841.5479
377.5314, 822.2905
378.0135, 804.4131
378.4957, 783.0386
378.9778, 751.5142
379.4599, 713.2285
379.9420, 684.6880
380.4241, 672.0796
380.9063, 663.1685
381.3884, 656.7871
381.8705, 649.4590
382.3526, 632.4766
382.8347, 602.0298
383.3168, 563.8882
383.7990, 528.9683
384.2811, 498.9580
384.7632, 469.1670
385.2453, 439.9863
385.7274, 410.8042
386.2095, 375.3594
386.6917, 337.5303
387.1738, 313.9097
387.6559, 323.1587
388.1380, 363.0234
388.6201, 375.9473
389.1022, 339.2949
389.5844, 302.2466
390.0665, 271.7046
390.5486, 248.8643
391.0307, 237.2393
391.5128, 238.9556
391.9949, 244.3462
392.4771, 238.3457
392.9592, 219.6753
393.4413, 203.3096
393.9234, 194.7168
394.4055, 186.6758
394.8876, 170.4277
395.3698, 147.3862
395.8519, 131.0449
396.3340, 132.8940
396.8161, 144.0220
397.2982, 150.8140
397.7803, 152.4795
398.2625, 149.9258
398.7446, 145.7407
399.2267, 136.9023
399.7088, 113.8853
400.1909, 54.44580
400.6730, 7.523438
401.1552, 4.224609
401.6373, 22.80078
402.1194, 23.11279
402.6015, 7.835449
403.0836, 46.58740
403.5657, 57.13135
404.0479, 25.07275
404.5300, 5.733887
405.0121, 7.251465
405.4942, 12.05762
405.9763, 9.537109
406.4584, 2.094238
406.9406, 0.9140630
407.4227, 7.855469
407.9048, 24.29248
408.3869, 30.55371
408.8690, 17.30273
409.3511, 12.57324
409.8333, 32.67432
410.3154, 57.73291
410.7975, 69.83130
411.2796, 65.31152
411.7617, 55.70239
412.2438, 51.66895
412.7260, 51.76147
413.2081, 48.46338
413.6902, 42.27295
414.1723, 29.76904
414.6544, 0.7705080
415.1365, 38.41064
415.6187, 66.47070
416.1008, 78.97070
416.5829, 79.29004
417.0650, 60.28906
417.5471, 29.10400
418.0292, 13.09961
418.5114, 26.25879
418.9935, 55.45361
419.4756, 73.09619
419.9577, 72.93945
420.4398, 72.30566
420.9219, 68.45752
421.4041, 66.74805
421.8862, 72.60400
422.3683, 85.35205
422.8504, 99.77734
423.3325, 111.9678
423.8146, 121.8301
424.2968, 128.3208
424.7789, 128.5347
425.2610, 129.3750
425.7431, 130.3804
426.2252, 133.7114
426.7073, 144.1680
427.1895, 163.4585
427.6716, 180.8247
428.1537, 179.5464
428.6358, 161.2358
429.1179, 154.2510
429.6000, 166.4336
430.0822, 184.5352
430.5643, 200.9590
431.0464, 215.0146
431.5285, 222.4536
432.0106, 218.4468
432.4927, 210.1995
432.9749, 200.1350
433.4570, 190.3271
433.9391, 191.1133
434.4212, 209.5027
434.9033, 236.5059
435.3854, 251.2727
435.8676, 245.1990
436.3497, 242.3298
436.8318, 245.8469
437.3139, 251.6528
437.7960, 257.8743
438.2781, 263.5103
438.7603, 266.2583
439.2424, 262.7002
439.7245, 254.4136
440.2066, 258.5330
440.6887, 288.4668
441.1708, 310.7273
441.6530, 314.3159
442.1351, 308.7747
442.6172, 300.5747
443.0993, 291.1128
443.5814, 289.5154
444.0635, 314.3430
444.5457, 359.5991
445.0278, 379.2424
445.5099, 357.3564
445.9920, 331.2939
446.4741, 334.9397
446.9562, 360.4182
447.4384, 382.5339
447.9205, 399.0356
448.4026, 409.2610
448.8847, 409.7058
449.3668, 403.2908
449.8489, 397.8735
450.3311, 396.6162
450.8132, 397.1572
451.2953, 394.9839
451.7774, 386.4490
452.2595, 384.2166
452.7416, 389.2139
453.2238, 399.2419
453.7059, 419.9448
454.1880, 445.1379
454.6701, 458.6531
455.1522, 447.8262
455.6343, 421.7632
456.1165, 409.8811
456.5986, 416.0474
457.0807, 426.2195
457.5628, 444.0674
458.0449, 459.4988
458.5270, 459.2808
459.0092, 444.1340
459.4913, 437.6614
459.9734, 461.1980
460.4555, 499.2288
460.9376, 522.4084
461.4197, 529.7673
461.9019, 532.9487
462.3840, 536.8716
462.8661, 539.0015
463.3482, 534.2712
463.8303, 516.6729
464.3124, 502.0671
464.7946, 492.0144
465.2767, 487.6213
465.7588, 494.8970
466.2409, 514.0566
466.7230, 532.4011
467.2051, 532.8259
467.6873, 511.9199
468.1694, 498.5334
468.6515, 502.6665
469.1336, 506.2646
469.6157, 501.7107
470.0978, 494.5864
470.5800, 495.0884
471.0621, 508.0000
471.5442, 520.1240
472.0263, 511.9717
472.5084, 486.3462
472.9905, 472.0225
473.4727, 479.0244
473.9548, 485.3721
474.4369, 461.6230
474.9190, 417.3755
475.4011, 393.5576
475.8832, 415.8296
476.3654, 445.2412
476.8475, 455.7822
477.3296, 452.7959
477.8117, 452.4077
478.2938, 460.3716
478.7759, 465.9644
479.2581, 454.0720
479.7402, 412.0508
480.2223, 387.4082
480.7044, 391.4832
481.1865, 399.5498
481.6686, 401.5134
482.1508, 397.7549
482.6329, 391.3250
483.1150, 383.3521
483.5971, 375.2771
484.0792, 369.7651
484.5613, 366.8894
485.0435, 366.3381
485.5256, 368.7419
486.0077, 372.9011
486.4898, 378.9714
486.9719, 386.5181
487.4540, 390.6199
487.9362, 386.8630
488.4183, 380.4062
488.9004, 376.8035
489.3825, 375.7075
489.8646, 374.7781
490.3467, 373.4961
490.8289, 370.0769
491.3110, 360.1199
491.7931, 334.0454
492.2752, 317.4602
492.7573, 323.8027
493.2394, 328.3481
493.7216, 308.1436
494.2037, 269.5923
494.6858, 238.4849
495.1679, 233.5530
495.6500, 246.3882
496.1321, 251.6235
496.6143, 248.2439
497.0964, 240.4790
497.5785, 221.7795
498.0606, 205.0164
498.5427, 204.8623
499.0248, 221.4849
499.5070, 233.4922
499.9891, 230.2642
500.4712, 217.2815
500.9533, 199.0522
501.4355, 176.6570
501.9176, 155.0085
502.3997, 135.7666
502.8818, 120.8911
503.3639, 116.3655
503.8460, 136.6648
504.3282, 145.9558
504.8103, 134.0168
505.2924, 118.0972
505.7745, 112.4846
506.2566, 115.6101
506.7387, 114.5574
507.2209, 96.94312
507.7030, 71.55615
508.1851, 72.68579
508.6672, 112.4583
509.1493, 138.7922
509.6314, 127.5435
510.1136, 102.8025
510.5957, 84.69946
511.0778, 74.19507
511.5599, 68.00684
512.0420, 65.86426
512.5241, 66.50293
513.0062, 68.51685
513.4883, 71.82544
513.9705, 77.49805
514.4526, 87.09326
514.9347, 97.50879
515.4168, 100.3818
515.8989, 94.67529
516.3810, 82.11035
516.8632, 48.01733
517.3453, 19.26367
517.8274, 18.27075
518.3095, 39.87671
518.7916, 62.99805
519.2737, 74.67603
519.7559, 76.78760
520.2380, 72.42920
520.7201, 60.19653
521.2022, 49.00854
521.6843, 38.93921
522.1664, 33.41943
522.6486, 38.03516
523.1307, 52.50317
523.6128, 62.61890
524.0949, 65.84131
524.5770, 61.25366
525.0591, 41.69263
525.5413, 12.36475
526.0234, 9.629395
526.5055, 16.59229
526.9876, 9.830566
527.4697, 10.32935
527.9518, 61.89673
528.4340, 86.20264
528.9161, 61.06689
529.3982, 33.58740
529.8803, 27.98706
530.3624, 38.76514
530.8445, 51.36816
531.3267, 61.56592
531.8088, 62.96265
532.2909, 37.29761
532.7730, 13.93921
533.2551, 44.61304
533.7372, 37.28198
534.2194, 20.30078
534.7015, 29.50610
535.1836, 61.62134
535.6657, 67.32837
536.1478, 12.14160
536.6299, 40.70752
537.1121, 51.21045
537.5942, 36.46753
538.0763, 27.87866
538.5584, 36.24341
539.0405, 54.16821
539.5226, 73.34644
540.0048, 95.19678
540.4869, 108.2332
540.9690, 107.2471
541.4511, 103.6157
541.9332, 104.5874
542.4153, 104.6165
542.8975, 93.45825
543.3796, 65.75122
543.8617, 39.32690
544.3438, 30.47656
544.8259, 33.63916
545.3080, 35.20654
545.7902, 33.31592
546.2723, 27.83960
546.7544, 16.70825
547.2365, 1.551270
547.7186, 3.048096
548.2007, 11.37061
548.6829, 24.12183
549.1650, 29.27490
549.6471, 33.25073
550.1292, 44.17334
550.6113, 61.42017
551.0934, 75.53955
551.5756, 77.34399
552.0577, 70.31055
552.5398, 68.21924
553.0219, 72.27515
553.5040, 76.56201
553.9861, 79.10303
554.4683, 81.13965
554.9504, 81.98950
555.4325, 81.44214
555.9146, 86.29224
556.3967, 104.0212
556.8788, 123.8342
557.3610, 137.3074
557.8431, 144.4644
558.3252, 146.3435
558.8073, 143.0076
559.2894, 138.7178
559.7715, 144.0146
560.2537, 167.8494
560.7358, 177.4407
561.2179, 159.6208
561.7000, 139.4722
562.1821, 124.2839
562.6642, 115.1550
563.1464, 111.9375
563.6285, 118.4087
564.1106, 125.2925
564.5927, 123.9341
565.0748, 115.2031
565.5569, 99.75562
566.0391, 76.37671
566.5212, 56.87500
567.0033, 54.01025
567.4854, 67.05200
567.9675, 70.15283
568.4496, 48.27197
568.9318, 33.61353
569.4139, 33.99316
569.8960, 45.19043
570.3781, 69.04150
570.8602, 100.9265
571.3423, 122.1602
571.8245, 113.3757
572.3066, 84.51562
572.7887, 68.61377
573.2708, 68.00513
573.7529, 76.32007
574.2350, 93.46289
574.7172, 113.1826
575.1993, 127.3372
575.6814, 135.9976
576.1635, 145.9990
576.6456, 163.5901
577.1277, 180.7944
577.6099, 191.4097
578.0920, 194.5933
578.5741, 190.5972
579.0562, 180.2190
579.5383, 167.7034
580.0204, 159.4070
580.5026, 156.3462
580.9847, 150.5364
581.4668, 134.8191
581.9489, 125.9761
582.4310, 135.1807
582.9132, 155.0466
583.3953, 174.4587
583.8774, 194.2476
584.3596, 203.5281
584.8417, 181.1765
585.3238, 148.6650
585.8059, 150.2466
586.2880, 189.1443
586.7701, 224.8137
587.2523, 226.2690
587.7344, 199.5969
588.2165, 174.9795
588.6986, 149.9397
589.1807, 131.2913
589.6628, 112.7786
590.1450, 105.7666
590.6271, 128.8586
591.1092, 172.1287
591.5913, 200.2126
592.0734, 184.5679
592.5555, 153.6641
593.0377, 149.2861
593.5198, 167.1743
594.0019, 177.3806
594.4840, 168.1772
594.9661, 154.1443
595.4482, 152.6289
595.9304, 165.3320
596.4125, 169.3945
596.8946, 155.5986
597.3767, 145.3081
597.8588, 149.5286
598.3409, 157.6116
598.8231, 156.4514
599.3052, 143.9802
599.7873, 129.5283
600.2694, 119.6023
600.7515, 114.4709
601.2336, 117.0093
601.7158, 128.5425
602.1979, 136.0293
602.6800, 132.5088
603.1621, 123.9419
603.6442, 120.5613
604.1263, 123.8860
604.6085, 124.4460
605.0906, 119.9270
605.5727, 113.7507
606.0548, 107.3875
606.5369, 100.9712
607.0190, 94.54028
607.5012, 88.13281
607.9833, 80.98242
608.4654, 69.71753
608.9475, 54.70508
609.4296, 51.69653
609.9117, 68.94995
610.3939, 77.93140
610.8760, 53.65552
611.3581, 14.11206
611.8402, 2.601074
612.3223, 12.57080
612.8044, 27.19507
613.2866, 33.09839
613.7687, 33.73706
614.2508, 28.29077
614.7329, 20.15186
615.2150, 18.34302
615.6971, 28.11206
616.1793, 44.63086
616.6614, 60.26245
617.1435, 76.39697
617.6256, 81.81201
618.1077, 72.71802
618.5898, 56.85449
619.0720, 30.55371
619.5541, 2.250244
620.0362, 7.487305
620.5183, 15.34180
621.0004, 35.86011
621.4825, 34.38403
621.9647, 23.53491
622.4468, 18.75220
622.9289, 21.06909
623.4110, 23.86499
623.8931, 23.06396
624.3752, 17.99072
624.8574, 3.951660
625.3395, 25.46484
625.8216, 41.21240
626.3037, 28.02515
626.7858, 12.28735
627.2679, 15.73169
627.7501, 31.08569
628.2322, 34.91870
628.7143, 11.24536
629.1964, 10.52222
629.6785, 13.81494
630.1606, 3.456299
630.6428, 20.17383
631.1249, 53.30420
631.6070, 74.83179
632.0891, 65.37573
632.5712, 32.57129
633.0533, 11.13989
633.5355, 2.347656
634.0176, 1.854492
634.4997, 20.91772
634.9818, 37.36792
635.4639, 32.35205
635.9460, 10.68433
636.4282, 6.026611
636.9103, 7.554443
637.3924, 6.082520
637.8745, 9.310303
638.3566, 15.45630
638.8387, 21.10278
639.3209, 25.68164
639.8030, 31.91455
640.2851, 43.36621
640.7672, 57.93774
641.2493, 60.81543
641.7314, 44.32495
642.2136, 34.01807
642.6957, 41.60034
643.1778, 51.63623
643.6599, 52.29175
644.1420, 45.02710
644.6241, 39.64307
645.1063, 38.17944
645.5884, 40.82251
646.0705, 45.55640
646.5526, 55.13037
647.0347, 78.95312
647.5168, 117.0720
647.9990, 152.8655
648.4811, 171.1968
648.9632, 173.6340
649.4453, 169.0837
649.9274, 152.9871
650.4095, 141.4187
650.8917, 140.9849
651.3738, 143.7556
651.8559, 139.8113
652.3380, 131.8337
652.8201, 136.5781
653.3022, 178.7888
653.7844, 214.5220
654.2665, 204.0796
654.7486, 172.4380
655.2307, 163.3123
655.7128, 184.0334
656.1949, 209.1636
656.6771, 215.3540
657.1592, 207.1526
657.6413, 209.6477
658.1234, 227.5083
658.6055, 240.4929
659.0876, 238.7166
659.5698, 236.1736
660.0519, 248.0386
660.5340, 271.0933
661.0161, 286.8796
661.4982, 283.9451
661.9803, 281.5400
662.4625, 292.8333
662.9446, 308.8984
663.4267, 315.1294
663.9088, 311.0166
664.3909, 310.4675
664.8730, 326.8438
665.3552, 352.7695
665.8373, 359.9011
666.3194, 343.1792
666.8015, 340.1514
667.2836, 365.2202
667.7657, 396.9043
668.2479, 419.8364
668.7300, 433.7307
669.2121, 435.5256
669.6942, 404.7820
670.1763, 386.6770
670.6584, 407.8911
671.1406, 441.1279
671.6227, 458.9792
672.1048, 459.2271
672.5869, 453.3071
673.0690, 448.1316
673.5511, 443.5828
674.0333, 438.1416
674.5154, 431.8330
674.9975, 431.8130
675.4796, 439.2593
675.9617, 454.2898
676.4438, 481.8618
676.9260, 518.1685
677.4081, 537.5029
677.8902, 525.3638
678.3723, 518.4109
678.8544, 524.1936
679.3365, 533.0227
679.8187, 538.7756
680.3008, 540.9062
680.7829, 539.8618
681.2650, 534.8271
681.7471, 530.5750
682.2292, 537.8503
682.7114, 551.7830
683.1935, 547.1653
683.6756, 520.1838
684.1577, 499.6331
684.6398, 504.5771
685.1219, 527.8494
685.6041, 549.0151
686.0862, 575.9263
686.5683, 590.2478
687.0504, 588.2996
687.5325, 577.0488
688.0146, 543.1702
688.4968, 505.7573
688.9789, 507.5962
689.4610, 571.8501
689.9431, 629.2271
690.4252, 609.7437
690.9073, 554.9014
691.3895, 537.4404
691.8716, 557.3787
692.3537, 576.1370
692.8358, 574.6904
693.3179, 562.9316
693.8000, 558.5254
694.2822, 564.1135
694.7643, 561.7695
695.2464, 542.0913
695.7285, 527.8872
696.2106, 530.7842
696.6927, 542.6418
697.1749, 555.7601
697.6570, 570.1848
698.1391, 577.5579
698.6212, 567.9465
699.1033, 555.9545
699.5854, 555.2034
700.0676, 561.4746
700.5497, 565.6234
701.0318, 564.3159
701.5139, 557.2300
701.9960, 540.9119
702.4781, 517.7488
702.9603, 508.1599
703.4424, 516.5266
703.9245, 515.0784
704.4066, 485.1895
704.8887, 453.5353
705.3708, 457.3408
705.8530, 498.2632
706.3351, 524.3169
706.8172, 527.0154
707.2993, 522.6565
707.7814, 510.8357
708.2635, 498.2716
708.7457, 491.9998
709.2278, 492.3677
709.7099, 495.1320
710.1920, 497.8024
710.6741, 501.0750
711.1563, 505.5194
711.6384, 510.9047
712.1205, 518.4407
712.6026, 528.7200
713.0847, 538.7678
713.5668, 547.7913
714.0490, 553.7014
714.5311, 542.5298
715.0132, 490.8170
715.4953, 465.1821
715.9774, 497.6326
716.4595, 529.2687
716.9417, 522.2686
717.4238, 490.9526
717.9059, 471.4670
718.3880, 477.2842
718.8701, 485.5447
719.3522, 481.5259
719.8344, 473.3942
720.3165, 471.9025
720.7986, 475.5510
721.2807, 474.8293
721.7628, 464.8997
722.2449, 453.9929
722.7271, 460.2640
723.2092, 485.1083
723.6913, 484.8989
724.1734, 450.1241
724.6555, 416.6482
725.1376, 399.1968
725.6198, 393.1595
726.1019, 391.2749
726.5840, 393.1694
727.0661, 401.9032
727.5482, 433.0703
728.0303, 453.1246
728.5125, 439.5155
728.9946, 410.5613
729.4767, 387.9641
729.9588, 376.5695
730.4409, 368.0703
730.9230, 353.9980
731.4052, 340.7153
731.8873, 343.0646
732.3694, 357.7446
732.8515, 363.3560
733.3336, 353.5955
733.8157, 339.6486
734.2979, 333.4342
734.7800, 331.7686
735.2621, 309.0884
735.7442, 242.2626
736.2263, 203.6802
736.7084, 219.7048
737.1906, 249.3840
737.6727, 278.4716
738.1548, 302.0291
738.6369, 307.7842
739.1190, 286.0166
739.6011, 264.7325
740.0833, 255.1285
740.5654, 250.5511
741.0475, 243.8723
741.5296, 236.3813
742.0117, 235.5035
742.4938, 244.9384
742.9760, 253.9280
743.4581, 246.2963
743.9402, 224.2284
744.4223, 200.0602
744.9044, 173.8433
745.3865, 156.1644
745.8687, 150.8923
746.3508, 155.8517
746.8329, 172.9285
747.3150, 209.1968
747.7971, 222.6533
748.2792, 188.6327
748.7614, 163.2355
749.2435, 166.5022
749.7256, 177.6014
750.2077, 177.3905
750.6898, 165.2825
751.1719, 151.7913
751.6541, 140.5170
752.1362, 130.4814
752.6183, 117.7960
753.1004, 107.1510
753.5825, 109.1794
754.0646, 123.1146
754.5468, 136.5065
755.0289, 140.9987
755.5110, 139.0159
755.9931, 135.6488
756.4752, 130.9410
756.9573, 123.2571
757.4395, 112.1975
757.9216, 98.84399
758.4037, 82.13965
758.8858, 64.65576
759.3679, 51.90906
759.8500, 41.61267
760.3322, 43.17578
760.8143, 73.11194
761.2964, 96.41516
761.7785, 93.43542
762.2606, 78.69360
762.7427, 72.29077
763.2249, 77.20471
763.7070, 79.21619
764.1891, 66.58167
764.6712, 49.84009
765.1533, 39.73608
765.6354, 34.31360
766.1176, 29.38708
766.5997, 23.88306
767.0818, 17.24512
767.5639, 8.353394
768.0460, 0.7731930
768.5281, 3.047729
769.0103, 2.335571
769.4924, 6.686035
769.9745, 6.917358
770.4566, 10.89783
770.9387, 28.60706
771.4208, 52.93225
771.9030, 59.83228
772.3851, 36.86890
772.8672, 22.28271
773.3493, 20.36951
773.8314, 23.92371
774.3135, 34.83008
774.7957, 46.81409
775.2778, 51.51880
775.7599, 47.05713
776.2420, 36.86011
776.7241, 17.21362
777.2062, 2.337891
777.6884, 13.14685
778.1705, 15.24066
778.6526, 6.207336
779.1347, 13.01611
779.6168, 30.57538
780.0989, 35.57404
780.5811, 31.10333
781.0632, 26.18121
781.5453, 20.61066
782.0274, 18.29504
782.5095, 21.29779
782.9916, 22.55591
783.4738, 15.81451
783.9559, 4.189209
784.4380, 1.809937
784.9201, 1.481567
785.4022, 3.358704
785.8843, 1.448181
786.3665, 1.783447
786.8486, 12.61688
787.3307, 32.16217
787.8128, 44.38611
788.2949, 46.93231
788.7770, 40.74805
789.2592, 15.09485
789.7413, 8.669189
790.2234, 10.72534
790.7055, 2.149475
791.1876, 20.85333
791.6697, 41.16583
792.1519, 54.52039
792.6340, 52.26196
793.1161, 42.06134
793.5982, 42.12640
794.0803, 51.39423
794.5624, 58.54669
795.0446, 62.55334
795.5267, 57.30023
796.0088, 36.05072
796.4909, 6.701721
796.9730, 8.925049
797.4551, 4.644226
797.9373, 4.301941
798.4194, 12.74896
798.9015, 18.64117
799.3836, 13.24335
799.8657, 5.864258
800.3478, 11.10492
800.8300, 30.39392
801.3121, 38.79266
801.7942, 14.88141
802.2763, 5.232300
802.7584, 8.693298
803.2405, 30.61243
803.7227, 22.92609
804.2048, 12.28571
804.6869, 41.13013
805.1690, 42.99408
805.6511, 34.58429
806.1332, 30.73236
806.6154, 29.46759
807.0975, 32.35156
807.5796, 38.98071
808.0617, 45.00671
808.5438, 47.75049
809.0259, 47.89935
809.5081, 45.24982
809.9902, 39.41095
810.4723, 40.54065
810.9544, 51.72766
811.4365, 60.08936
811.9186, 60.28125
812.4008, 56.84058
812.8829, 54.16846
813.3650, 52.35901
813.8471, 52.07953
814.3292, 59.13580
814.8113, 59.50244
815.2935, 40.87323
815.7756, 24.07690
816.2577, 26.31891
816.7398, 41.62646
817.2219, 54.59222
817.7040, 61.57886
818.1862, 62.63550
818.6683, 53.45605
819.1504, 41.73346
819.6325, 33.94788
820.1146, 30.62213
820.5967, 33.20947
821.0789, 41.44934
821.5610, 48.53925
822.0431, 46.03143
822.5252, 39.11487
823.0073, 42.11462
823.4894, 53.50220
823.9716, 60.68805
824.4537, 60.91486
824.9358, 59.62378
825.4179, 60.96185
825.9000, 63.25543
826.3821, 61.05768
826.8643, 51.67767
827.3464, 51.99133
827.8285, 71.96606
828.3106, 84.83307
828.7927, 70.69757
829.2748, 46.39362
829.7570, 37.39337
830.2391, 44.62036
830.7212, 55.66364
831.2033, 78.96185
831.6854, 94.49347
832.1675, 90.27563
832.6497, 80.26111
833.1318, 77.67401
833.6139, 81.46033
834.0960, 81.26373
834.5781, 70.58624
835.0602, 59.58319
835.5424, 53.35712
836.0245, 52.45209
836.5066, 61.07062
836.9887, 75.95160
837.4708, 88.69629
837.9529, 96.95099
838.4351, 98.37305
838.9172, 83.17163
839.3993, 61.21021
839.8814, 67.66272
840.3635, 98.36005
840.8456, 110.7633
841.3278, 92.90546
841.8099, 72.35474
842.2920, 73.72528
842.7741, 90.67810
843.2562, 98.19501
843.7383, 94.32336
844.2205, 88.43958
844.7026, 79.57788
845.1847, 72.84204
845.6668, 72.70258
846.1489, 75.49078
846.6310, 74.06696
847.1132, 66.17365
847.5953, 62.26678
848.0774, 65.77722
848.5595, 72.04205
849.0416, 85.78894
849.5237, 96.11774
850.0059, 89.40247
850.4880, 69.77496
850.9701, 56.83441
851.4522, 58.11328
851.9343, 63.92981
852.4164, 75.79602
852.8986, 84.74152
853.3807, 76.48511
853.8628, 59.48682
854.3449, 54.49426
854.8270, 67.26483
855.3091, 81.18463
855.7913, 79.05048
856.2734, 68.08649
856.7555, 58.13708
857.2376, 51.07379
857.7197, 55.05011
858.2018, 68.19080
858.6840, 69.58795
859.1661, 44.92993
859.6482, 11.37518
860.1303, 2.777710
860.6124, 16.39941
861.0945, 27.82892
861.5767, 38.96344
862.0588, 36.56030
862.5409, 6.655762
863.0230, 26.50653
863.5051, 25.35895
863.9872, 11.37512
864.4694, 28.55469
864.9515, 14.00281
865.4336, 5.553589
865.9157, 13.29395
866.3978, 25.34631
866.8799, 36.88647
867.3621, 45.80945
867.8442, 44.23523
868.3263, 21.42218
868.8084, 13.34253
869.2905, 42.00500
869.7726, 66.27991
870.2548, 63.01245
870.7369, 46.21075
871.2190, 30.78381
871.7011, 19.63177
872.1832, 15.58472
872.6653, 23.05304
873.1475, 34.29004
873.6296, 51.30731
874.1117, 65.01550
874.5938, 59.60626
875.0759, 40.70288
875.5580, 29.20898
876.0402, 34.29285
876.5223, 42.77338
877.0044, 42.37939
877.4865, 36.63312
877.9686, 30.72150
878.4507, 24.98834
878.9329, 19.32947
879.4150, 13.84949
879.8971, 10.38269
880.3792, 11.02051
880.8613, 13.49139
881.3434, 11.90204
881.8256, 6.682678
882.3077, 1.615417
882.7898, 3.277832
883.2719, 1.960999
883.7540, 10.37622
884.2361, 23.09979
884.7183, 18.17786
885.2004, 4.472229
885.6825, 8.859497
886.1646, 12.57654
886.6467, 28.59943
887.1288, 32.53522
887.6110, 30.08191
888.0931, 24.05164
888.5752, 15.11847
889.0573, 5.604431
889.5394, 8.554077
890.0215, 14.86102
890.5037, 1.944153
890.9858, 5.031921
891.4679, 11.65155
891.9500, 32.71936
892.4321, 34.23859
892.9142, 17.02087
893.3964, 6.908081
893.8785, 21.49890
894.3606, 27.01160
894.8427, 2.390625
895.3248, 25.49976
895.8069, 39.87195
896.2891, 39.92090
896.7712, 23.38770
897.2533, 11.42145
897.7354, 36.52924
898.2175, 30.22711
898.6996, 13.18457
899.1818, 4.191162
899.6639, 17.17755
900.1460, 16.99249
900.6281, 5.456787
901.1102, 6.466431
901.5923, 13.79089
902.0745, 14.06293
902.5566, 1.431091
903.0387, 22.91809
903.5208, 30.57544
904.0029, 26.86755
904.4850, 27.26263
904.9672, 36.12970
905.4493, 41.32904
905.9314, 29.32513
906.4135, 8.369873
906.8956, 2.543213
907.3777, 3.629883
907.8599, 6.564758
908.3420, 27.79950
908.8241, 40.89136
909.3062, 34.71655
909.7883, 21.02997
910.2704, 18.75574
910.7526, 27.32971
911.2347, 32.69043
911.7168, 35.10065
912.1990, 32.17761
912.6811, 21.25500
913.1632, 11.87036
913.6453, 13.43170
914.1274, 20.27051
914.6096, 11.23596
915.0917, 29.49036
915.5738, 32.94788
916.0559, 28.94568
916.5380, 75.35803
917.0201, 70.78284
917.5023, 45.15479
917.9844, 29.53467
918.4665, 23.95251
918.9486, 16.32214
919.4307, 0.5316160
919.9128, 8.868286
920.3950, 2.653442
920.8771, 4.803101
921.3592, 12.47180
921.8413, 19.15942
922.3234, 18.31287
922.8055, 8.801880
923.2877, 1.591064
923.7698, 0.4899900
924.2519, 0.6033940
924.7340, 2.357056
925.2161, 2.822021
925.6982, 2.050659
926.1804, 10.06921
926.6625, 15.03821
927.1446, 14.55249
927.6267, 14.50049
928.1088, 20.90039
928.5909, 25.31689
929.0731, 20.95911
929.5552, 11.56165
930.0373, 0.8341060
930.5194, 13.50476
931.0015, 17.50378
931.4836, 4.542114
931.9658, 4.714233
932.4479, 12.61743
932.9300, 36.93860
933.4121, 46.64685
933.8942, 44.47070
934.3763, 38.10730
934.8585, 30.34473
935.3406, 23.00342
935.8227, 15.67944
936.3048, 12.47791
936.7869, 22.02991
937.2690, 38.05603
937.7512, 50.55652
938.2333, 57.64697
938.7154, 55.08826
939.1975, 41.80835
939.6796, 30.13733
940.1617, 34.46875
940.6439, 48.18579
941.1260, 59.47217
941.6081, 67.60632
942.0902, 64.88220
942.5723, 51.76685
943.0544, 46.39734
943.5366, 60.31531
944.0187, 76.50769
944.5008, 60.84998
944.9829, 21.74304
945.4650, 9.575317
945.9471, 23.30017
946.4293, 44.96143
946.9114, 70.96899
947.3935, 86.23694
947.8756, 78.31396
948.3577, 59.18787
948.8398, 54.32007
949.3220, 63.22058
949.8041, 75.54468
950.2862, 93.03931
950.7683, 103.5410
951.2504, 101.7633
951.7325, 94.38025
952.2147, 88.38123
952.6968, 84.76831
953.1789, 80.88306
953.6610, 74.92053
954.1431, 78.37598
954.6252, 95.32495
955.1074, 108.7150
955.5895, 110.6360
956.0716, 108.5117
956.5537, 109.9425
957.0358, 114.2855
957.5179, 116.4124
958.0001, 117.2511
958.4822, 111.9292
958.9643, 94.19080
959.4464, 81.67273
959.9285, 86.10938
960.4106, 98.67700
960.8928, 105.5981
961.3749, 106.4558
961.8570, 104.7235
962.3391, 94.43335
962.8212, 94.03687
963.3033, 118.7429
963.7855, 136.4482
964.2676, 121.5210
964.7497, 90.54895
965.2318, 75.18994
965.7139, 78.70337
966.1960, 81.71765
966.6782, 73.34143
967.1603, 79.67175
967.6424, 128.6344
968.1245, 170.3447
968.6066, 160.8218
969.0887, 121.9839
969.5709, 107.5129
970.0530, 128.0333
970.5351, 140.4153
971.0172, 133.0602
971.4993, 128.7941
971.9814, 134.5414
972.4636, 145.2483
972.9457, 161.4977
973.4278, 178.7233
973.9099, 182.3826
974.3920, 163.7104
974.8741, 148.8765
975.3563, 143.4113
975.8384, 140.7119
976.3205, 133.6221
976.8026, 131.2542
977.2847, 148.5100
977.7668, 179.4419
978.2490, 197.8999
978.7311, 193.4963
979.2132, 190.5891
979.6953, 199.8618
980.1774, 206.1508
980.6595, 197.3682
981.1417, 185.0553
981.6238, 181.0039
982.1059, 185.8094
982.5880, 196.1759
983.0701, 215.0164
983.5522, 231.8296
984.0344, 247.8663
984.5165, 255.8341
984.9986, 245.8315
985.4807, 228.7625
985.9628, 218.4084
986.4449, 215.4900
986.9271, 211.4296
987.4092, 197.5061
987.8913, 192.8623
988.3734, 216.1196
988.8555, 239.2200
989.3376, 240.7561
989.8198, 230.6396
990.3019, 224.3676
990.7840, 224.0243
991.2661, 223.5050
991.7482, 220.3718
992.2303, 216.6970
992.7125, 209.9106
993.1946, 206.3237
993.6767, 209.3390
994.1588, 219.5564
994.6409, 239.7017
995.1230, 269.1505
995.6052, 297.1566
996.0873, 322.8387
996.5694, 340.5593
997.0515, 343.8474
997.5336, 342.0018
998.0157, 343.0518
998.4979, 344.3362
998.9800, 336.1443
999.4621, 318.6382
999.9442, 313.5757
1000.426, 342.3983
1000.908, 369.1600
1001.391, 372.1051
1001.873, 370.3584
1002.355, 383.7209
1002.837, 402.3790
1003.319, 404.6853
1003.801, 387.9652
1004.283, 376.3369
1004.765, 383.2833
1005.247, 393.7419
1005.730, 407.8645
1006.212, 415.4636
1006.694, 399.1270
1007.176, 373.6926
1007.658, 368.1001
1008.140, 386.8427
1008.622, 403.0405
1009.104, 409.9247
1009.587, 405.8354
1010.069, 378.0094
1010.551, 350.1036
1011.033, 340.7292
1011.515, 346.6422
1011.997, 364.2736
1012.479, 391.5256
1012.961, 408.3763
1013.443, 397.8041
1013.926, 387.2545
1014.408, 387.5797
1014.890, 394.1876
1015.372, 408.3271
1015.854, 423.6570
1016.336, 431.2090
1016.818, 429.3296
1017.300, 420.0364
1017.783, 388.7383
1018.265, 371.8972
1018.747, 401.1035
1019.229, 432.1541
1019.711, 425.7793
1020.193, 400.6699
1020.675, 391.5679
1021.157, 403.2354
1021.639, 412.6482
1022.122, 416.4026
1022.604, 411.1990
1023.086, 390.3340
1023.568, 364.1228
1024.050, 330.2734
1024.532, 302.5244
1025.014, 304.8950
1025.496, 338.7666
1025.979, 370.1602
1026.461, 392.1128
1026.943, 410.4092
1027.425, 425.1951
1027.907, 436.7161
1028.389, 444.1196
1028.871, 451.1511
1029.353, 461.1611
1029.835, 472.9651
1030.318, 487.8230
1030.800, 514.6216
1031.282, 534.6406
1031.764, 548.1929
1032.246, 551.8452
1032.728, 528.5659
1033.210, 502.7278
1033.692, 511.9304
1034.174, 554.4697
1034.657, 580.9897
1035.139, 567.3079
1035.621, 565.0427
1036.103, 580.7158
1036.585, 603.4465
1037.067, 645.9250
1037.549, 685.2910
1038.031, 687.9121
1038.514, 656.4685
1038.996, 638.4216
1039.478, 647.2915
1039.960, 646.5166
1040.442, 626.3857
1040.924, 615.7549
1041.406, 629.7666
1041.888, 647.4607
1042.370, 651.0559
1042.853, 644.5374
1043.335, 636.1042
1043.817, 615.8389
1044.299, 614.4978
1044.781, 645.5911
1045.263, 665.6057
1045.745, 654.2476
1046.227, 639.8701
1046.709, 652.1021
1047.192, 680.4128
1047.674, 683.0894
1048.156, 648.3740
1048.638, 632.4954
1049.120, 639.8962
1049.602, 647.2146
1050.084, 650.8403
1050.566, 654.2302
1051.049, 662.9673
1051.531, 668.1614
1052.013, 643.9143
1052.495, 586.4741
1052.977, 562.8657
1053.459, 578.4458
1053.941, 591.6792
1054.423, 594.6843
1054.906, 586.3989
1055.388, 564.0037
1055.870, 538.2400
1056.352, 526.9832
1056.834, 529.0339
1057.316, 542.3789
1057.798, 567.2188
1058.280, 573.9087
1058.762, 557.4807
1059.245, 532.9844
1059.727, 507.6831
1060.209, 485.7007
1060.691, 473.4971
1061.173, 468.1323
1061.655, 460.1824
1062.137, 450.0962
1062.619, 439.5095
1063.101, 428.6252
1063.584, 414.6255
1064.066, 396.8848
1064.548, 384.5532
1065.030, 388.0356
1065.512, 401.2554
1065.994, 419.1045
1066.476, 435.0254
1066.958, 429.7227
1067.441, 406.1782
1067.923, 381.7100
1068.405, 361.0391
1068.887, 331.7803
1069.369, 277.3003
1069.851, 231.0796
1070.333, 245.6494
1070.815, 283.8511
1071.297, 292.9609
1071.780, 280.3877
1072.262, 267.0410
1072.744, 258.0205
1073.226, 251.8687
1073.708, 249.1650
1074.190, 243.3643
1074.672, 231.9521
1075.154, 213.1084
1075.636, 169.2739
1076.119, 127.6470
1076.601, 133.2744
1077.083, 176.4067
1077.565, 210.7896
1078.047, 223.6343
1078.529, 218.7036
1079.011, 184.3721
1079.494, 148.9458
1079.976, 116.8032
1080.458, 98.91895
1080.940, 125.1064
1081.422, 166.6899
1081.904, 153.7080
1082.386, 69.67871
1082.868, 11.73340
1083.350, 18.85791
1083.833, 23.42041
1084.315, 4.836914
1084.797, 13.95605
1085.279, 11.66992
1085.761, 5.498535
1086.243, 27.20996
1086.725, 75.49316
1087.207, 96.12939
1087.689, 70.59229
1088.172, 54.03467
1088.654, 49.24463
1089.136, 53.89697
1089.618, 72.24609
1090.100, 91.57617
1090.582, 98.02979
1091.064, 95.82764
1091.546, 103.0254
1092.029, 123.2515
1092.511, 131.3911
1092.993, 126.4214
1093.475, 111.2266
1093.957, 83.10938
1094.439, 69.24316
1094.921, 92.92334
1095.403, 130.7793
1095.885, 136.8652
1096.368, 115.2632
1096.850, 93.70557
1097.332, 73.41650
1097.814, 77.66309
1098.296, 107.2295
1098.778, 122.6372
1099.260, 104.1631
1099.742, 83.32812
1100.224, 100.6743
1100.707, 135.6377
1101.189, 151.2910
1101.671, 151.0996
1102.153, 138.9102
1102.635, 118.9580
1103.117, 100.0908
1103.599, 85.81738
1104.081, 84.37988
1104.564, 107.6709
1105.046, 130.5645
1105.528, 133.9082
1106.010, 121.5244
1106.492, 88.71387
1106.974, 47.37891
1107.456, 16.30762
1107.938, 4.066406
1108.421, 27.94824
1108.903, 63.59668
1109.385, 89.34082
1109.867, 76.09570
1110.349, 73.89746
1110.831, 113.5195
1111.313, 172.8359
1111.795, 247.0918
1112.277, 319.8164
1112.760, 349.0518
1113.242, 322.4551
1113.724, 329.3115
1114.206, 418.9541
1114.688, 479.7520
1115.170, 472.7373
1115.652, 469.3184
1116.134, 498.9307
1116.616, 554.2891
1117.099, 634.7520
1117.581, 733.4590
1118.063, 799.8330
1118.545, 822.5381
1119.027, 862.1553
1119.509, 921.9854
1119.991, 997.1973
1120.473, 1090.729
1120.956, 1182.824
1121.438, 1258.306
1121.920, 1321.423
1122.402, 1375.071
1122.884, 1422.949
1123.366, 1485.440
1123.848, 1562.325
1124.330, 1657.833
1124.813, 1770.749
1125.295, 1894.464
1125.777, 2026.022
1126.259, 2162.794
1126.741, 2310.219
1127.223, 2449.941
1127.705, 2541.790
1128.187, 2614.098
1128.669, 2711.617
1129.151, 2832.410
1129.634, 2963.287
1130.116, 3099.990
1130.598, 3246.613
1131.080, 3402.331
1131.562, 3576.865
1132.044, 3792.604
1132.526, 4011.168
1133.008, 4205.381
1133.491, 4386.363
1133.973, 4564.650
1134.455, 4746.395
1134.937, 4936.454
1135.419, 5133.665
1135.901, 5354.049
1136.383, 5614.253
1136.865, 5875.658
1137.348, 6110.148
1137.830, 6365.502
1138.312, 6683.906
1138.794, 7019.411
1139.276, 7307.868
1139.758, 7555.713
1140.240, 7826.342
1140.722, 8121.479
1141.204, 8433.744
1141.687, 8763.923
1142.169, 9100.169
1142.651, 9440.669
1143.133, 9790.779
1143.615, 10158.63
1144.097, 10537.89
1144.579, 10925.32
1145.061, 11321.30
1145.543, 11721.21
1146.026, 12130.85
1146.508, 12561.33
1146.990, 13012.37
1147.472, 13478.40
1147.954, 13957.95
1148.436, 14424.98
1148.918, 14841.20
1149.400, 15266.56
1149.883, 15776.15
1150.365, 16321.52
1150.847, 16857.41
1151.329, 17382.53
1151.811, 17892.65
1152.293, 18392.72
1152.775, 18908.50
1153.257, 19455.34
1153.740, 19977.25
1154.222, 20430.38
1154.704, 20895.19
1155.186, 21423.37
1155.668, 21957.41
1156.150, 22415.68
1156.632, 22865.80
1157.114, 23447.79
1157.596, 24164.16
1158.078, 24803.62
1158.561, 25340.91
1159.043, 25863.11
1159.525, 26377.50
1160.007, 26875.14
1160.489, 27354.24
1160.971, 27813.42
1161.453, 28249.58
1161.935, 28661.91
1162.418, 29046.90
1162.900, 29387.65
1163.382, 29777.55
1163.864, 30204.14
1164.346, 30565.65
1164.828, 30856.20
1165.310, 31135.54
1165.792, 31427.69
1166.275, 31664.48
1166.757, 31757.94
1167.239, 31821.87
1167.721, 32002.00
1168.203, 32201.42
1168.685, 32313.48
1169.167, 32360.96
1169.649, 32392.18
1170.131, 32409.02
1170.614, 32386.38
1171.096, 32316.45
1171.578, 32210.38
1172.060, 32089.71
1172.542, 31908.48
1173.024, 31601.22
1173.506, 31284.37
1173.988, 31043.48
1174.470, 30829.37
1174.953, 30580.24
1175.435, 30294.52
1175.917, 29946.30
1176.399, 29520.26
1176.881, 29107.77
1177.363, 28719.09
1177.845, 28292.52
1178.327, 27808.96
1178.810, 27310.59
1179.292, 26831.83
1179.774, 26344.01
1180.256, 25792.54
1180.738, 25205.74
1181.220, 24654.61
1181.702, 24131.52
1182.184, 23631.19
1182.667, 23134.19
1183.149, 22577.79
1183.631, 21954.41
1184.113, 21342.87
1184.595, 20792.06
1185.077, 20245.82
1185.559, 19655.90
1186.041, 19074.43
1186.523, 18534.15
1187.005, 18024.06
1187.488, 17538.56
1187.970, 17067.33
1188.452, 16601.09
1188.934, 16145.53
1189.416, 15611.24
1189.898, 14891.90
1190.380, 14329.93
1190.862, 14034.04
1191.345, 13694.47
1191.827, 13188.88
1192.309, 12614.75
1192.791, 12051.21
1193.273, 11509.93
1193.755, 11029.70
1194.237, 10602.86
1194.719, 10168.57
1195.202, 9733.064
1195.684, 9332.957
1196.166, 8965.375
1196.648, 8584.605
1197.130, 8174.729
1197.612, 7753.139
1198.094, 7311.916
1198.576, 6909.463
1199.058, 6632.436
1199.541, 6383.871
1200.023, 6084.648
1200.505, 5749.406
1200.987, 5385.219
1201.469, 5011.018
1201.951, 4672.729
1202.433, 4377.174
1202.915, 4112.646
1203.397, 3907.586
1203.880, 3687.000
1204.362, 3444.043
1204.844, 3183.982
1205.326, 2902.279
1205.808, 2619.068
1206.290, 2349.295
1206.772, 2098.082
1207.254, 1872.971
1207.737, 1675.021
1208.219, 1529.080
1208.701, 1422.832
1209.183, 1256.805
1209.665, 1032.041
1210.147, 855.6152
1210.629, 765.0410
1211.111, 691.6895
1211.594, 585.0039
1212.076, 468.7461
1212.558, 362.1211
1213.040, 260.4004
1213.522, 152.3457
1214.004, 53.00781
1214.486, 28.89258
1214.968, 82.78125
1215.450, 80.33203
1215.932, 8.201172
1216.415, 53.05859
1216.897, 98.56055
1217.379, 124.7090
1217.861, 15.40430
1218.343, 29.72656
1218.825, 157.0312
1219.307, 114.1582
1219.789, 0.0000000E+00
##END=



