##NAMES=Turkestanite
##RRUFFID=R060525
##IDEAL CHEMISTRY=(K,[box])(Ca,Na)_2_ThSi_8_O_20_&#183;nH_2_O
##LOCALITY=DeMix Quarry, Mont St. Hilaire, Rouville County, Quebec, Canada
##OWNER=RRUFF
##SOURCE=Michael Scott
##DESCRIPTION=Divergent group of brown rectangular prisms
##STATUS=The identification of this mineral is confirmed by single-crystal X-ray diffraction and chemical analysis.
##URL=rruff.info/R060525
##MEASURED CHEMISTRY=K_0.50_(Ca_0.78_Na_0.77_K_0.12_Mn_0.14_Al_0.07_Fe_0.05_U_0.02_Pb_0.02_Ce_0.02_Nd_0.01_)_Î£=2.00_Th_1.04_Si_8_O_20_
99.79950, 429.4232
100.2816, 429.0737
100.7637, 427.3027
101.2458, 425.3287
101.7280, 424.3167
102.2101, 424.5650
102.6922, 425.4357
103.1743, 425.9126
103.6564, 425.9247
104.1385, 426.0958
104.6207, 426.5758
105.1028, 427.3406
105.5849, 428.4015
106.0670, 429.9274
106.5491, 431.4142
107.0313, 432.3793
107.5134, 432.7664
107.9955, 432.7843
108.4776, 432.4170
108.9597, 431.4263
109.4418, 431.0489
109.9240, 432.0576
110.4061, 433.5379
110.8882, 434.9016
111.3703, 435.9337
111.8524, 436.6603
112.3345, 437.0974
112.8167, 436.5962
113.2988, 436.7097
113.7809, 438.0020
114.2630, 439.9206
114.7451, 441.7750
115.2272, 443.1115
115.7094, 443.9728
116.1915, 444.9734
116.6736, 446.5901
117.1557, 447.8651
117.6378, 447.9824
118.1199, 447.3018
118.6021, 447.1152
119.0842, 448.6941
119.5663, 452.1905
120.0484, 454.6012
120.5305, 454.8927
121.0126, 454.7486
121.4948, 455.7696
121.9769, 458.2417
122.4590, 460.9918
122.9411, 462.7171
123.4232, 463.6856
123.9053, 464.6830
124.3875, 466.3019
124.8696, 468.1671
125.3517, 469.0630
125.8338, 468.0740
126.3159, 467.1953
126.7980, 467.9256
127.2802, 470.0361
127.7623, 472.4146
128.2444, 474.2129
128.7265, 475.3710
129.2086, 476.5154
129.6907, 477.6125
130.1729, 478.7712
130.6550, 480.2700
131.1371, 482.0378
131.6192, 483.5729
132.1013, 483.9252
132.5834, 481.5323
133.0656, 481.1953
133.5477, 484.4407
134.0298, 488.5308
134.5119, 491.3236
134.9940, 492.1152
135.4761, 491.7706
135.9583, 492.2305
136.4404, 494.2389
136.9225, 496.1839
137.4046, 497.7668
137.8867, 499.2906
138.3688, 501.2141
138.8510, 503.8082
139.3331, 506.8418
139.8152, 509.5515
140.2973, 511.9506
140.7794, 514.1218
141.2615, 515.8181
141.7437, 517.1917
142.2258, 519.0427
142.7079, 522.1263
143.1900, 525.7740
143.6721, 528.5732
144.1542, 530.1492
144.6364, 531.2462
145.1185, 532.5002
145.6006, 533.9063
146.0827, 535.4960
146.5648, 536.8813
147.0469, 538.5962
147.5291, 541.5048
148.0112, 546.4291
148.4933, 552.1829
148.9754, 555.9337
149.4575, 556.4799
149.9396, 557.0211
150.4218, 558.1254
150.9039, 559.9593
151.3860, 562.9337
151.8681, 567.5729
152.3502, 573.5504
152.8323, 577.7641
153.3145, 577.2002
153.7966, 577.7254
154.2787, 581.1495
154.7608, 586.6077
155.2429, 592.2654
155.7250, 596.7087
156.2072, 599.8256
156.6893, 603.1628
157.1714, 607.1966
157.6535, 610.9836
158.1356, 613.7246
158.6177, 615.6768
159.0999, 618.0381
159.5820, 622.0538
160.0641, 628.1144
160.5462, 633.1575
161.0283, 636.0876
161.5104, 638.7725
161.9926, 642.7067
162.4747, 648.0719
162.9568, 653.9312
163.4389, 659.2726
163.9210, 664.1420
164.4031, 669.1334
164.8853, 674.6233
165.3674, 680.2140
165.8495, 685.1283
166.3316, 689.1093
166.8137, 692.8948
167.2958, 696.7513
167.7780, 700.8100
168.2601, 705.9753
168.7422, 713.8621
169.2243, 723.5220
169.7064, 730.7181
170.1885, 733.1982
170.6707, 735.3771
171.1528, 740.3593
171.6349, 747.6793
172.1170, 755.2503
172.5991, 761.5141
173.0812, 766.4250
173.5634, 770.9997
174.0455, 774.1800
174.5276, 777.9748
175.0097, 783.6116
175.4918, 790.8801
175.9739, 798.5001
176.4561, 804.9534
176.9382, 809.8101
177.4203, 815.1043
177.9024, 820.7665
178.3845, 826.8384
178.8666, 833.7170
179.3488, 841.2177
179.8309, 848.5800
180.3130, 854.5876
180.7951, 858.3282
181.2772, 862.6963
181.7593, 867.6016
182.2415, 873.0739
182.7236, 879.3436
183.2057, 886.3950
183.6878, 893.7032
184.1699, 900.4886
184.6520, 906.5936
185.1342, 912.3738
185.6163, 917.6607
186.0984, 922.6882
186.5805, 927.6952
187.0626, 932.7543
187.5447, 937.8063
188.0269, 942.7419
188.5090, 947.5662
188.9911, 952.3337
189.4732, 956.7711
189.9553, 961.1945
190.4374, 966.2573
190.9196, 972.4358
191.4017, 978.7665
191.8838, 983.7010
192.3659, 987.1143
192.8480, 990.8347
193.3301, 995.8106
193.8123, 1001.788
194.2944, 1007.973
194.7765, 1014.491
195.2586, 1020.689
195.7407, 1025.721
196.2228, 1029.551
196.7050, 1033.600
197.1871, 1039.242
197.6692, 1046.383
198.1513, 1052.841
198.6334, 1057.735
199.1155, 1062.169
199.5977, 1066.660
200.0798, 1071.309
200.5619, 1076.384
201.0440, 1082.262
201.5261, 1089.092
202.0082, 1096.014
202.4904, 1103.383
202.9725, 1110.528
203.4546, 1116.910
203.9367, 1122.563
204.4188, 1128.173
204.9009, 1134.844
205.3831, 1143.404
205.8652, 1150.380
206.3473, 1154.030
206.8294, 1157.409
207.3115, 1162.415
207.7936, 1169.248
208.2758, 1176.696
208.7579, 1183.019
209.2400, 1187.662
209.7221, 1192.281
210.2042, 1197.359
210.6863, 1202.077
211.1685, 1205.844
211.6506, 1208.568
212.1327, 1210.633
212.6148, 1212.602
213.0969, 1214.508
213.5790, 1216.155
214.0612, 1217.779
214.5433, 1219.027
215.0254, 1219.558
215.5075, 1219.309
215.9896, 1218.593
216.4717, 1217.899
216.9539, 1217.554
217.4360, 1216.234
217.9181, 1213.383
218.4002, 1209.810
218.8823, 1206.292
219.3644, 1203.024
219.8466, 1199.671
220.3287, 1195.720
220.8108, 1191.049
221.2929, 1186.396
221.7750, 1182.017
222.2571, 1177.649
222.7393, 1172.817
223.2214, 1167.352
223.7035, 1161.903
224.1856, 1157.436
224.6677, 1153.874
225.1498, 1150.379
225.6320, 1146.879
226.1141, 1143.285
226.5962, 1139.341
227.0783, 1134.867
227.5604, 1130.449
228.0425, 1126.661
228.5247, 1123.410
229.0068, 1120.355
229.4889, 1117.365
229.9710, 1114.507
230.4531, 1111.950
230.9352, 1109.809
231.4174, 1107.792
231.8995, 1105.371
232.3816, 1102.818
232.8637, 1100.986
233.3458, 1100.778
233.8279, 1101.654
234.3101, 1101.727
234.7922, 1100.356
235.2743, 1099.205
235.7564, 1099.119
236.2385, 1099.892
236.7206, 1101.187
237.2028, 1103.205
237.6849, 1105.617
238.1670, 1106.809
238.6491, 1105.271
239.1312, 1104.846
239.6133, 1107.941
240.0955, 1112.947
240.5776, 1117.075
241.0597, 1118.262
241.5418, 1117.364
242.0239, 1118.548
242.5060, 1123.084
242.9882, 1128.167
243.4703, 1133.486
243.9524, 1138.666
244.4345, 1143.065
244.9166, 1146.116
245.3987, 1148.332
245.8809, 1152.126
246.3630, 1158.928
246.8451, 1165.572
247.3272, 1171.270
247.8093, 1176.475
248.2914, 1181.892
248.7736, 1187.966
249.2557, 1194.318
249.7378, 1199.296
250.2199, 1201.160
250.7020, 1203.782
251.1841, 1208.071
251.6663, 1213.222
252.1484, 1218.197
252.6305, 1222.518
253.1126, 1226.452
253.5947, 1230.971
254.0768, 1237.218
254.5590, 1242.616
255.0411, 1246.099
255.5232, 1249.025
256.0053, 1252.942
256.4874, 1258.490
256.9695, 1265.176
257.4517, 1271.798
257.9338, 1278.419
258.4159, 1284.914
258.8980, 1291.152
259.3801, 1297.327
259.8622, 1303.976
260.3444, 1311.246
260.8265, 1318.315
261.3086, 1323.547
261.7907, 1324.664
262.2728, 1327.583
262.7549, 1333.993
263.2371, 1341.458
263.7192, 1347.430
264.2013, 1351.263
264.6834, 1354.222
265.1655, 1358.296
265.6476, 1364.570
266.1298, 1369.131
266.6119, 1370.574
267.0940, 1371.036
267.5761, 1372.741
268.0582, 1376.088
268.5403, 1379.430
269.0225, 1380.643
269.5046, 1378.990
269.9867, 1378.629
270.4688, 1381.122
270.9509, 1384.038
271.4330, 1385.246
271.9152, 1384.519
272.3973, 1382.988
272.8794, 1381.514
273.3615, 1380.119
273.8436, 1379.278
274.3257, 1379.678
274.8079, 1380.145
275.2900, 1380.114
275.7721, 1379.464
276.2542, 1377.498
276.7363, 1373.236
277.2184, 1366.948
277.7006, 1361.615
278.1827, 1357.513
278.6648, 1354.185
279.1469, 1351.883
279.6290, 1350.408
280.1111, 1348.235
280.5933, 1344.195
281.0754, 1338.798
281.5575, 1334.068
282.0396, 1330.681
282.5217, 1327.157
283.0038, 1322.520
283.4860, 1316.918
283.9681, 1310.985
284.4502, 1304.752
284.9323, 1298.597
285.4144, 1293.185
285.8965, 1288.570
286.3787, 1284.495
286.8608, 1280.924
287.3429, 1277.811
287.8250, 1275.051
288.3071, 1272.933
288.7892, 1270.696
289.2714, 1267.008
289.7535, 1261.667
290.2356, 1256.750
290.7177, 1253.485
291.1998, 1251.381
291.6819, 1249.168
292.1641, 1246.682
292.6462, 1243.786
293.1283, 1240.058
293.6104, 1235.623
294.0925, 1231.536
294.5746, 1228.279
295.0568, 1225.653
295.5389, 1223.444
296.0210, 1221.850
296.5031, 1220.010
296.9852, 1216.451
297.4673, 1211.902
297.9495, 1208.502
298.4316, 1207.753
298.9137, 1208.243
299.3958, 1208.028
299.8779, 1207.063
300.3600, 1205.373
300.8422, 1202.425
301.3243, 1198.824
301.8064, 1195.584
302.2885, 1192.595
302.7706, 1190.337
303.2527, 1189.564
303.7349, 1190.357
304.2170, 1191.489
304.6991, 1192.832
305.1812, 1193.954
305.6633, 1194.169
306.1454, 1193.093
306.6276, 1191.849
307.1097, 1191.649
307.5918, 1192.408
308.0739, 1192.572
308.5560, 1191.298
309.0381, 1189.479
309.5203, 1187.976
310.0024, 1186.771
310.4845, 1186.220
310.9666, 1186.839
311.4487, 1188.409
311.9308, 1189.855
312.4130, 1190.863
312.8951, 1191.832
313.3772, 1193.316
313.8593, 1195.196
314.3414, 1196.623
314.8235, 1196.922
315.3057, 1196.466
315.7878, 1196.316
316.2699, 1196.787
316.7520, 1196.999
317.2341, 1195.951
317.7162, 1194.161
318.1984, 1192.733
318.6805, 1192.004
319.1626, 1191.901
319.6447, 1192.549
320.1268, 1194.158
320.6089, 1195.492
321.0911, 1195.334
321.5732, 1194.618
322.0553, 1194.836
322.5374, 1197.074
323.0195, 1199.040
323.5016, 1197.443
323.9838, 1192.230
324.4659, 1188.791
324.9480, 1190.382
325.4301, 1194.019
325.9122, 1195.943
326.3943, 1195.737
326.8765, 1195.071
327.3586, 1195.081
327.8407, 1195.658
328.3228, 1196.294
328.8049, 1197.207
329.2870, 1197.634
329.7692, 1196.407
330.2513, 1193.707
330.7334, 1191.665
331.2155, 1191.848
331.6976, 1193.383
332.1797, 1194.091
332.6619, 1193.432
333.1440, 1192.833
333.6261, 1193.665
334.1082, 1195.463
334.5903, 1197.243
335.0724, 1198.313
335.5546, 1199.393
336.0367, 1201.860
336.5188, 1205.907
337.0009, 1209.168
337.4830, 1209.742
337.9651, 1208.756
338.4473, 1208.298
338.9294, 1208.530
339.4115, 1209.424
339.8936, 1211.134
340.3757, 1213.588
340.8578, 1216.311
341.3400, 1219.554
341.8221, 1222.522
342.3042, 1223.847
342.7863, 1223.177
343.2684, 1222.922
343.7505, 1224.355
344.2327, 1227.068
344.7148, 1230.257
345.1969, 1233.955
345.6790, 1237.548
346.1611, 1239.900
346.6432, 1241.243
347.1254, 1243.386
347.6075, 1247.280
348.0896, 1251.987
348.5717, 1256.472
349.0538, 1260.678
349.5359, 1264.378
350.0181, 1266.840
350.5002, 1268.644
350.9823, 1272.188
351.4644, 1279.108
351.9465, 1286.496
352.4286, 1292.653
352.9108, 1297.652
353.3929, 1301.830
353.8750, 1304.969
354.3571, 1307.729
354.8392, 1311.756
355.3214, 1317.276
355.8035, 1323.265
356.2856, 1329.491
356.7677, 1335.903
357.2498, 1342.494
357.7319, 1349.320
358.2141, 1356.027
358.6962, 1361.859
359.1783, 1366.405
359.6604, 1372.734
360.1425, 1383.045
360.6246, 1394.195
361.1068, 1402.805
361.5889, 1408.781
362.0710, 1414.787
362.5531, 1423.302
363.0352, 1434.282
363.5173, 1443.382
363.9995, 1448.691
364.4816, 1454.244
364.9637, 1461.925
365.4458, 1471.368
365.9279, 1481.508
366.4100, 1491.822
366.8922, 1502.368
367.3743, 1513.202
367.8564, 1523.977
368.3385, 1535.496
368.8206, 1548.012
369.3027, 1561.271
369.7849, 1575.583
370.2670, 1590.839
370.7491, 1605.285
371.2312, 1616.148
371.7133, 1621.268
372.1954, 1629.215
372.6776, 1641.418
373.1597, 1654.954
373.6418, 1668.267
374.1239, 1681.271
374.6060, 1694.658
375.0881, 1709.227
375.5703, 1724.871
376.0524, 1739.658
376.5345, 1752.196
377.0166, 1765.579
377.4987, 1781.062
377.9808, 1797.743
378.4630, 1814.374
378.9451, 1830.385
379.4272, 1845.985
379.9093, 1861.569
380.3914, 1876.676
380.8735, 1892.755
381.3557, 1910.553
381.8378, 1928.710
382.3199, 1946.266
382.8020, 1963.162
383.2841, 1979.898
383.7662, 1996.973
384.2484, 2014.514
384.7305, 2031.901
385.2126, 2048.568
385.6947, 2065.700
386.1768, 2083.565
386.6589, 2102.196
387.1411, 2121.879
387.6232, 2143.177
388.1053, 2165.213
388.5874, 2184.719
389.0695, 2201.365
389.5516, 2215.813
390.0338, 2226.106
390.5159, 2235.847
390.9980, 2248.754
391.4801, 2265.854
391.9622, 2284.132
392.4443, 2299.709
392.9265, 2312.182
393.4086, 2325.714
393.8907, 2341.361
394.3728, 2357.723
394.8549, 2374.927
395.3370, 2392.355
395.8192, 2407.867
396.3013, 2419.815
396.7834, 2428.837
397.2655, 2436.724
397.7476, 2443.161
398.2297, 2449.239
398.7119, 2454.025
399.1940, 2459.244
399.6761, 2467.881
400.1582, 2482.143
400.6403, 2496.722
401.1224, 2506.073
401.6046, 2510.478
402.0867, 2513.452
402.5688, 2515.318
403.0509, 2516.941
403.5330, 2519.309
404.0151, 2522.414
404.4973, 2525.867
404.9794, 2530.532
405.4615, 2535.146
405.9436, 2537.660
406.4257, 2537.847
406.9078, 2535.778
407.3900, 2530.627
407.8721, 2522.984
408.3542, 2516.111
408.8363, 2511.465
409.3184, 2506.575
409.8005, 2499.360
410.2827, 2490.483
410.7648, 2482.556
411.2469, 2477.017
411.7290, 2472.518
412.2111, 2465.970
412.6932, 2457.091
413.1754, 2447.336
413.6575, 2435.237
414.1396, 2423.295
414.6217, 2415.465
415.1038, 2411.929
415.5859, 2407.361
416.0681, 2396.214
416.5502, 2377.767
417.0323, 2360.093
417.5144, 2342.938
417.9965, 2326.665
418.4786, 2311.386
418.9608, 2297.125
419.4429, 2284.089
419.9250, 2272.486
420.4071, 2261.478
420.8892, 2248.664
421.3713, 2232.466
421.8535, 2216.880
422.3356, 2202.347
422.8177, 2188.146
423.2998, 2173.863
423.7819, 2159.351
424.2640, 2144.757
424.7462, 2130.183
425.2283, 2115.548
425.7104, 2101.236
426.1925, 2087.010
426.6746, 2073.423
427.1567, 2061.073
427.6389, 2049.343
428.1210, 2037.278
428.6031, 2024.307
429.0852, 2011.156
429.5673, 1999.734
430.0494, 1990.852
430.5316, 1980.738
431.0137, 1966.581
431.4958, 1952.299
431.9779, 1940.920
432.4600, 1932.426
432.9421, 1923.974
433.4243, 1912.586
433.9064, 1899.280
434.3885, 1888.618
434.8706, 1881.530
435.3527, 1875.333
435.8348, 1868.331
436.3170, 1861.010
436.7991, 1854.246
437.2812, 1849.004
437.7633, 1843.353
438.2454, 1834.764
438.7275, 1823.718
439.2097, 1813.896
439.6918, 1806.888
440.1739, 1801.231
440.6560, 1794.199
441.1381, 1785.361
441.6202, 1779.099
442.1024, 1779.495
442.5845, 1781.542
443.0666, 1779.031
443.5487, 1771.606
444.0308, 1763.513
444.5129, 1757.673
444.9951, 1754.021
445.4772, 1751.360
445.9593, 1751.032
446.4414, 1750.010
446.9235, 1746.946
447.4056, 1742.741
447.8878, 1738.392
448.3699, 1734.281
448.8520, 1731.065
449.3341, 1729.893
449.8162, 1731.796
450.2983, 1732.881
450.7805, 1733.297
451.2626, 1732.904
451.7447, 1731.142
452.2268, 1728.483
452.7089, 1725.992
453.1910, 1724.378
453.6732, 1723.512
454.1553, 1722.962
454.6374, 1723.263
455.1195, 1722.924
455.6016, 1721.183
456.0837, 1719.133
456.5659, 1717.466
457.0480, 1716.386
457.5301, 1716.137
458.0122, 1717.200
458.4943, 1719.551
458.9764, 1721.933
459.4586, 1724.878
459.9407, 1726.930
460.4228, 1726.762
460.9049, 1725.390
461.3870, 1724.621
461.8691, 1725.185
462.3513, 1726.441
462.8334, 1727.938
463.3155, 1729.643
463.7976, 1730.625
464.2797, 1730.559
464.7618, 1729.660
465.2440, 1727.785
465.7261, 1724.872
466.2082, 1723.083
466.6903, 1723.688
467.1724, 1725.504
467.6545, 1727.571
468.1367, 1729.709
468.6188, 1730.834
469.1009, 1729.932
469.5830, 1727.491
470.0651, 1725.974
470.5472, 1724.623
471.0294, 1724.977
471.5115, 1729.010
471.9936, 1734.296
472.4757, 1737.747
472.9578, 1738.585
473.4399, 1738.175
473.9221, 1738.162
474.4042, 1738.774
474.8863, 1738.401
475.3684, 1736.242
475.8505, 1734.060
476.3326, 1732.677
476.8148, 1731.683
477.2969, 1730.254
477.7790, 1727.982
478.2611, 1725.334
478.7432, 1723.465
479.2253, 1722.936
479.7075, 1721.613
480.1896, 1718.490
480.6717, 1715.170
481.1538, 1712.320
481.6359, 1710.048
482.1180, 1708.369
482.6002, 1707.715
483.0823, 1707.537
483.5644, 1706.216
484.0465, 1703.598
484.5286, 1700.406
485.0107, 1696.859
485.4929, 1692.924
485.9750, 1688.219
486.4571, 1682.432
486.9392, 1677.459
487.4213, 1674.985
487.9034, 1674.077
488.3856, 1672.975
488.8677, 1671.493
489.3498, 1668.945
489.8319, 1664.407
490.3140, 1657.996
490.7961, 1652.287
491.2783, 1647.352
491.7604, 1642.983
492.2425, 1639.207
492.7246, 1635.888
493.2067, 1633.009
493.6888, 1630.584
494.1710, 1627.834
494.6531, 1623.382
495.1352, 1615.974
495.6173, 1610.946
496.0994, 1610.349
496.5815, 1609.782
497.0637, 1607.150
497.5458, 1602.871
498.0279, 1598.188
498.5100, 1593.762
498.9921, 1589.507
499.4742, 1585.176
499.9564, 1580.906
500.4385, 1576.191
500.9206, 1569.408
501.4027, 1563.340
501.8848, 1559.990
502.3669, 1559.186
502.8491, 1559.324
503.3312, 1560.317
503.8133, 1561.230
504.2954, 1559.029
504.7775, 1553.069
505.2596, 1547.071
505.7418, 1542.490
506.2239, 1539.069
506.7060, 1536.465
507.1881, 1534.837
507.6702, 1533.339
508.1523, 1531.419
508.6345, 1529.397
509.1166, 1527.739
509.5987, 1526.506
510.0808, 1525.842
510.5629, 1526.160
511.0450, 1527.258
511.5272, 1526.887
512.0093, 1523.995
512.4914, 1521.084
512.9735, 1518.647
513.4556, 1516.694
513.9377, 1514.910
514.4199, 1513.324
514.9020, 1512.872
515.3841, 1515.150
515.8662, 1520.926
516.3483, 1524.152
516.8304, 1523.262
517.3126, 1521.379
517.7947, 1518.328
518.2768, 1515.123
518.7589, 1513.069
519.2410, 1512.690
519.7231, 1513.492
520.2053, 1515.073
520.6874, 1517.510
521.1695, 1519.476
521.6516, 1520.481
522.1337, 1521.365
522.6158, 1523.018
523.0980, 1525.043
523.5801, 1526.238
524.0622, 1525.279
524.5443, 1524.197
525.0264, 1525.274
525.5085, 1528.240
525.9907, 1531.491
526.4728, 1534.570
526.9549, 1537.544
527.4370, 1540.597
527.9191, 1543.881
528.4012, 1546.526
528.8834, 1547.674
529.3655, 1548.828
529.8476, 1551.083
530.3297, 1554.249
530.8118, 1557.580
531.2939, 1560.678
531.7761, 1563.654
532.2582, 1566.848
532.7403, 1570.737
533.2224, 1573.883
533.7045, 1575.122
534.1866, 1576.659
534.6688, 1580.014
535.1509, 1584.869
535.6330, 1589.929
536.1151, 1594.361
536.5972, 1598.411
537.0793, 1602.858
537.5615, 1607.819
538.0436, 1612.666
538.5257, 1617.815
539.0078, 1622.241
539.4899, 1624.716
539.9720, 1625.336
540.4542, 1626.043
540.9363, 1627.996
541.4184, 1630.492
541.9005, 1632.180
542.3826, 1633.113
542.8647, 1635.111
543.3469, 1639.393
543.8290, 1645.086
544.3111, 1650.032
544.7932, 1654.239
545.2753, 1657.779
545.7574, 1660.042
546.2396, 1662.086
546.7217, 1664.765
547.2038, 1668.113
547.6859, 1671.793
548.1680, 1675.635
548.6501, 1679.524
549.1323, 1682.946
549.6144, 1685.589
550.0965, 1688.264
550.5786, 1690.870
551.0607, 1693.693
551.5428, 1697.148
552.0250, 1701.109
552.5071, 1704.843
552.9892, 1707.484
553.4713, 1709.621
553.9534, 1713.350
554.4355, 1719.127
554.9177, 1724.137
555.3998, 1726.940
555.8819, 1728.603
556.3640, 1730.599
556.8461, 1732.969
557.3282, 1735.439
557.8104, 1737.753
558.2925, 1740.211
558.7746, 1743.531
559.2567, 1747.568
559.7388, 1750.823
560.2209, 1752.281
560.7031, 1752.537
561.1852, 1753.492
561.6673, 1755.375
562.1494, 1757.720
562.6315, 1760.832
563.1136, 1764.166
563.5958, 1767.492
564.0779, 1770.701
564.5600, 1773.617
565.0421, 1776.160
565.5242, 1778.254
566.0063, 1779.444
566.4885, 1779.159
566.9706, 1779.602
567.4527, 1781.769
567.9348, 1784.501
568.4169, 1787.392
568.8990, 1790.254
569.3812, 1792.383
569.8633, 1792.949
570.3454, 1792.791
570.8275, 1793.213
571.3096, 1794.166
571.7917, 1794.605
572.2739, 1793.766
572.7560, 1792.715
573.2381, 1793.474
573.7202, 1796.460
574.2023, 1799.506
574.6844, 1802.979
575.1666, 1805.986
575.6487, 1807.808
576.1308, 1808.651
576.6129, 1809.271
577.0950, 1810.091
577.5771, 1810.538
578.0593, 1809.083
578.5414, 1804.589
579.0235, 1801.284
579.5056, 1799.627
579.9877, 1798.972
580.4698, 1799.729
580.9520, 1801.241
581.4341, 1802.286
581.9162, 1802.592
582.3983, 1801.600
582.8804, 1797.646
583.3625, 1791.104
583.8447, 1786.353
584.3268, 1784.854
584.8089, 1784.400
585.2910, 1782.922
585.7731, 1780.502
586.2552, 1777.948
586.7374, 1775.520
587.2195, 1772.787
587.7016, 1769.362
588.1837, 1765.541
588.6658, 1761.886
589.1479, 1758.552
589.6301, 1755.189
590.1122, 1751.342
590.5943, 1746.980
591.0764, 1742.402
591.5585, 1737.088
592.0406, 1732.146
592.5228, 1728.800
593.0049, 1725.494
593.4870, 1719.813
593.9691, 1711.211
594.4512, 1702.975
594.9333, 1698.702
595.4155, 1697.481
595.8976, 1695.800
596.3797, 1693.822
596.8618, 1689.726
597.3439, 1681.498
597.8260, 1670.718
598.3082, 1661.528
598.7903, 1654.552
599.2724, 1647.608
599.7545, 1639.561
600.2366, 1631.468
600.7188, 1624.572
601.2009, 1618.867
601.6830, 1613.666
602.1651, 1608.536
602.6472, 1603.392
603.1293, 1597.947
603.6115, 1592.375
604.0936, 1586.123
604.5757, 1578.779
605.0578, 1571.174
605.5399, 1563.699
606.0220, 1556.425
606.5042, 1549.253
606.9863, 1542.098
607.4684, 1535.137
607.9505, 1528.443
608.4326, 1522.023
608.9147, 1516.660
609.3969, 1512.804
609.8790, 1509.625
610.3611, 1506.543
610.8432, 1503.499
611.3253, 1499.700
611.8074, 1495.147
612.2896, 1489.735
612.7717, 1482.553
613.2538, 1474.712
613.7359, 1468.074
614.2180, 1463.165
614.7001, 1459.258
615.1823, 1455.598
615.6644, 1452.220
616.1465, 1448.284
616.6286, 1443.568
617.1107, 1438.578
617.5928, 1432.822
618.0750, 1427.251
618.5571, 1422.908
619.0392, 1419.983
619.5213, 1417.709
620.0034, 1416.027
620.4855, 1414.468
620.9677, 1411.802
621.4498, 1407.957
621.9319, 1404.040
622.4140, 1400.627
622.8961, 1397.459
623.3782, 1394.059
623.8604, 1390.714
624.3425, 1386.330
624.8246, 1378.881
625.3067, 1372.063
625.7888, 1369.323
626.2709, 1369.227
626.7531, 1367.904
627.2352, 1363.449
627.7173, 1357.285
628.1994, 1351.601
628.6815, 1346.061
629.1636, 1342.941
629.6458, 1344.802
630.1279, 1345.943
630.6100, 1343.149
631.0921, 1337.879
631.5742, 1332.588
632.0563, 1327.725
632.5385, 1323.406
633.0206, 1320.199
633.5027, 1317.485
633.9848, 1313.889
634.4669, 1309.235
634.9490, 1304.512
635.4312, 1300.530
635.9133, 1296.999
636.3954, 1292.458
636.8775, 1285.453
637.3596, 1279.433
637.8417, 1275.129
638.3239, 1271.358
638.8060, 1267.469
639.2881, 1263.346
639.7702, 1259.025
640.2523, 1254.493
640.7344, 1249.855
641.2166, 1245.416
641.6987, 1241.172
642.1808, 1236.668
642.6629, 1231.520
643.1450, 1226.522
643.6271, 1222.663
644.1093, 1219.590
644.5914, 1216.085
645.0735, 1211.943
645.5556, 1207.409
646.0377, 1202.182
646.5198, 1196.804
647.0020, 1192.184
647.4841, 1188.445
647.9662, 1184.907
648.4483, 1180.963
648.9304, 1176.706
649.4125, 1172.725
649.8947, 1169.824
650.3768, 1165.696
650.8589, 1158.367
651.3410, 1151.010
651.8231, 1146.164
652.3052, 1143.529
652.7874, 1140.709
653.2695, 1136.194
653.7516, 1131.193
654.2337, 1127.297
654.7158, 1124.279
655.1979, 1121.213
655.6801, 1117.910
656.1622, 1113.986
656.6443, 1108.672
657.1264, 1101.813
657.6085, 1096.868
658.0906, 1095.252
658.5728, 1093.506
659.0549, 1091.204
659.5370, 1088.118
660.0191, 1083.630
660.5012, 1077.922
660.9833, 1072.338
661.4655, 1067.943
661.9476, 1064.514
662.4297, 1061.817
662.9118, 1060.079
663.3939, 1057.264
663.8760, 1052.317
664.3582, 1046.570
664.8403, 1041.189
665.3224, 1036.187
665.8045, 1032.636
666.2866, 1032.131
666.7687, 1031.630
667.2509, 1029.123
667.7330, 1025.599
668.2151, 1023.074
668.6972, 1021.911
669.1793, 1020.272
669.6614, 1015.962
670.1436, 1009.241
670.6257, 1003.935
671.1078, 1000.644
671.5899, 997.4953
672.0720, 993.5712
672.5541, 989.8381
673.0363, 987.1749
673.5184, 985.5446
674.0005, 984.0159
674.4826, 982.4612
674.9647, 980.5852
675.4468, 977.6089
675.9290, 974.0402
676.4111, 971.6641
676.8932, 971.0637
677.3753, 970.6545
677.8574, 968.4456
678.3395, 964.3235
678.8217, 961.3964
679.3038, 961.3336
679.7859, 960.3425
680.2680, 956.7967
680.7501, 952.7564
681.2322, 950.0150
681.7144, 948.7625
682.1965, 948.1742
682.6786, 948.0923
683.1607, 948.1099
683.6428, 947.7087
684.1249, 946.8532
684.6071, 945.0197
685.0892, 941.7614
685.5713, 938.5341
686.0534, 937.1865
686.5355, 937.8908
687.0176, 937.3934
687.4998, 935.2189
687.9819, 932.5604
688.4640, 928.8839
688.9461, 925.3890
689.4282, 923.3648
689.9103, 922.8662
690.3925, 922.9305
690.8746, 922.9387
691.3567, 922.9074
691.8388, 923.1350
692.3209, 923.6789
692.8030, 922.9738
693.2852, 920.1419
693.7673, 916.8167
694.2494, 914.7067
694.7315, 913.7295
695.2136, 912.4620
695.6957, 909.9872
696.1779, 908.2603
696.6600, 908.8504
697.1421, 910.0068
697.6242, 909.2411
698.1063, 906.6868
698.5884, 905.0312
699.0706, 906.6005
699.5527, 910.0352
700.0348, 911.4136
700.5169, 910.4771
700.9990, 909.0549
701.4811, 907.3480
701.9633, 905.4541
702.4454, 903.2339
702.9275, 900.8593
703.4096, 898.9044
703.8917, 897.6254
704.3738, 896.5262
704.8560, 894.7591
705.3381, 893.4078
705.8202, 894.5107
706.3023, 897.6612
706.7844, 899.9080
707.2665, 899.1257
707.7487, 896.4168
708.2308, 894.8213
708.7129, 894.6179
709.1950, 894.2402
709.6771, 893.6019
710.1592, 892.6240
710.6414, 891.0154
711.1235, 889.0902
711.6056, 887.5543
712.0877, 886.7188
712.5698, 885.8297
713.0519, 884.1834
713.5341, 882.5089
714.0162, 881.6649
714.4983, 881.6685
714.9804, 882.2885
715.4625, 883.4721
715.9446, 884.6351
716.4268, 884.3940
716.9089, 882.3447
717.3910, 880.7112
717.8731, 879.7692
718.3552, 878.9398
718.8373, 877.7549
719.3195, 876.5788
719.8016, 876.1581
720.2837, 876.8292
720.7658, 876.8559
721.2479, 874.5882
721.7300, 871.8425
722.2122, 870.6232
722.6943, 870.7359
723.1764, 871.1824
723.6585, 871.5400
724.1406, 871.5231
724.6227, 870.5378
725.1049, 868.3888
725.5870, 867.1198
726.0691, 867.3407
726.5512, 867.4613
727.0333, 866.9200
727.5154, 866.0353
727.9976, 865.0530
728.4797, 864.0040
728.9618, 863.0037
729.4439, 861.7569
729.9260, 860.8763
730.4081, 861.3680
730.8903, 862.6170
731.3724, 863.1771
731.8545, 862.6296
732.3366, 861.4416
732.8187, 860.0482
733.3008, 858.4662
733.7830, 856.8527
734.2651, 855.2222
734.7472, 853.5322
735.2293, 851.1398
735.7114, 849.2302
736.1935, 849.0961
736.6757, 850.3203
737.1578, 850.9332
737.6399, 849.9366
738.1220, 848.6819
738.6041, 848.0352
739.0862, 847.7326
739.5684, 847.5569
740.0505, 847.3625
740.5326, 846.6396
741.0147, 844.9642
741.4968, 842.6359
741.9789, 840.4886
742.4611, 838.4338
742.9432, 836.9151
743.4253, 836.3866
743.9074, 835.8901
744.3895, 834.6550
744.8716, 833.1301
745.3538, 832.2615
745.8359, 832.5013
746.3180, 832.3893
746.8001, 831.0842
747.2822, 829.2498
747.7643, 827.4586
748.2465, 825.7639
748.7286, 824.0095
749.2107, 822.1317
749.6928, 820.3969
750.1749, 819.4202
750.6570, 819.2865
751.1392, 817.9398
751.6213, 814.7698
752.1034, 811.7800
752.5855, 810.0295
753.0676, 808.6669
753.5497, 806.4520
754.0319, 803.3266
754.5140, 801.0022
754.9961, 800.7164
755.4782, 800.4709
755.9603, 798.8649
756.4424, 796.5927
756.9246, 794.8858
757.4067, 793.9097
757.8888, 792.7390
758.3709, 790.4778
758.8530, 787.4885
759.3351, 785.0016
759.8173, 783.0693
760.2994, 781.2917
760.7815, 779.7219
761.2636, 778.0677
761.7457, 775.7651
762.2278, 773.1349
762.7100, 771.6847
763.1921, 772.9139
763.6742, 773.0632
764.1563, 770.0958
764.6384, 766.6884
765.1205, 765.0591
765.6027, 764.9182
766.0848, 765.0283
766.5669, 764.8491
767.0490, 764.1772
767.5311, 762.7147
768.0132, 760.5110
768.4954, 757.4636
768.9775, 753.3367
769.4596, 750.5009
769.9417, 750.6191
770.4238, 751.8802
770.9059, 751.0383
771.3881, 747.3923
771.8702, 744.3869
772.3523, 742.5784
772.8344, 740.7039
773.3165, 737.8165
773.7986, 734.9472
774.2808, 733.5802
774.7629, 733.6923
775.2450, 733.5174
775.7271, 731.7550
776.2092, 729.1622
776.6913, 726.6448
777.1735, 724.2557
777.6556, 722.3689
778.1377, 721.0858
778.6198, 719.6613
779.1019, 717.3578
779.5840, 714.4545
780.0662, 712.4709
780.5483, 712.2834
781.0304, 711.3418
781.5125, 708.5881
781.9946, 705.9813
782.4767, 704.9205
782.9589, 704.5678
783.4410, 703.2228
783.9231, 700.3069
784.4052, 697.2018
784.8873, 694.5198
785.3694, 692.2454
785.8516, 690.4050
786.3337, 688.9755
786.8158, 688.0404
787.2979, 687.6230
787.7800, 687.1200
788.2621, 685.5968
788.7443, 683.1153
789.2264, 681.3235
789.7085, 680.2496
790.1906, 679.8502
790.6727, 680.8260
791.1548, 681.7794
791.6370, 681.2949
792.1191, 679.5151
792.6012, 677.3779
793.0833, 674.2705
793.5654, 671.7438
794.0475, 670.7670
794.5297, 670.3948
795.0118, 669.9930
795.4939, 669.2648
795.9760, 667.7877
796.4581, 665.3076
796.9402, 662.1000
797.4224, 658.0789
797.9045, 653.5165
798.3866, 650.5707
798.8687, 649.5809
799.3508, 648.8196
799.8329, 647.4861
800.3151, 645.7460
800.7972, 643.9013
801.2793, 641.9065
801.7614, 639.9661
802.2435, 637.8224
802.7256, 636.0402
803.2078, 635.0557
803.6899, 634.3438
804.1720, 633.4148
804.6541, 632.2032
805.1362, 630.8146
805.6183, 629.3228
806.1005, 627.6766
806.5826, 625.3340
807.0647, 622.9111
807.5468, 622.4282
808.0289, 623.9215
808.5110, 624.3409
808.9932, 621.3467
809.4753, 616.3965
809.9574, 613.4137
810.4395, 612.8681
810.9216, 612.2158
811.4037, 611.8604
811.8859, 610.5077
812.3680, 606.2355
812.8501, 601.1634
813.3322, 598.6117
813.8143, 599.1181
814.2964, 599.1996
814.7786, 597.6904
815.2607, 595.9273
815.7428, 594.5219
816.2249, 593.4316
816.7070, 592.5159
817.1891, 591.7719
817.6713, 591.4421
818.1534, 592.0433
818.6355, 592.6652
819.1176, 591.0762
819.5997, 587.6317
820.0818, 585.1779
820.5640, 584.2507
821.0461, 584.0523
821.5282, 584.2213
822.0103, 584.4842
822.4924, 584.0338
822.9745, 582.8341
823.4567, 580.9748
823.9388, 577.8419
824.4209, 574.7521
824.9030, 571.9756
825.3851, 569.5984
825.8672, 567.6195
826.3494, 566.0484
826.8315, 565.3055
827.3136, 566.5477
827.7957, 567.7952
828.2778, 567.2379
828.7599, 565.5272
829.2421, 563.7534
829.7242, 562.2018
830.2063, 560.8285
830.6884, 559.5797
831.1705, 558.5173
831.6526, 557.9133
832.1348, 557.7938
832.6169, 557.3068
833.0990, 556.3113
833.5811, 555.0021
834.0632, 553.1796
834.5453, 551.3375
835.0275, 550.6317
835.5096, 551.5740
835.9917, 552.1398
836.4738, 552.3528
836.9559, 552.1427
837.4380, 551.3349
837.9202, 550.1832
838.4023, 548.7802
838.8844, 547.2531
839.3665, 546.1064
839.8486, 545.9219
840.3307, 545.8489
840.8129, 544.8014
841.2950, 543.3080
841.7771, 542.6165
842.2592, 542.7608
842.7413, 542.5478
843.2234, 541.1760
843.7056, 539.3658
844.1877, 538.7554
844.6698, 539.5012
845.1519, 539.4084
845.6340, 538.0227
846.1161, 536.9340
846.5983, 536.9809
847.0804, 537.4954
847.5625, 537.5833
848.0446, 537.2281
848.5267, 536.7040
849.0089, 535.5744
849.4910, 534.8488
849.9731, 535.2614
850.4552, 535.8440
850.9373, 535.5969
851.4194, 534.7095
851.9016, 534.1196
852.3837, 534.3314
852.8658, 534.5898
853.3479, 534.1858
853.8300, 533.3693
854.3121, 532.4108
854.7943, 531.4363
855.2764, 530.9230
855.7585, 531.0860
856.2406, 531.3489
856.7227, 530.8922
857.2048, 529.7951
857.6870, 529.1547
858.1691, 529.1486
858.6512, 528.8532
859.1333, 527.8047
859.6154, 526.7708
860.0975, 526.4473
860.5797, 526.7336
861.0618, 527.0149
861.5439, 527.2303
862.0260, 527.5444
862.5081, 528.4788
862.9902, 529.0140
863.4724, 528.1384
863.9545, 526.6121
864.4366, 525.6382
864.9187, 525.5126
865.4008, 525.8339
865.8829, 526.7444
866.3651, 527.6353
866.8472, 527.8482
867.3293, 527.4743
867.8114, 526.4976
868.2935, 525.0546
868.7756, 524.0743
869.2578, 524.3246
869.7399, 525.3207
870.2220, 525.8229
870.7041, 525.7909
871.1862, 526.1835
871.6683, 527.3401
872.1505, 527.8669
872.6326, 526.6219
873.1147, 524.8226
873.5968, 524.6253
874.0789, 526.4371
874.5610, 527.6479
875.0432, 528.0306
875.5253, 528.1314
876.0074, 527.6699
876.4895, 527.2957
876.9716, 527.9201
877.4537, 529.1595
877.9359, 529.4664
878.4180, 527.9386
878.9001, 526.3525
879.3822, 525.6564
879.8643, 525.5814
880.3464, 526.0387
880.8286, 526.8221
881.3107, 527.4351
881.7928, 527.7202
882.2749, 528.1227
882.7570, 529.1706
883.2391, 530.6896
883.7213, 532.3045
884.2034, 533.9767
884.6855, 534.7629
885.1676, 534.2747
885.6497, 534.2094
886.1318, 536.1666
886.6140, 539.2589
887.0961, 540.3437
887.5782, 538.3289
888.0603, 537.0816
888.5424, 536.4963
889.0245, 536.8549
889.5067, 539.0863
889.9888, 541.8167
890.4709, 543.3609
890.9530, 543.6671
891.4351, 544.1750
891.9172, 545.5451
892.3994, 546.7188
892.8815, 547.1118
893.3636, 547.2248
893.8457, 547.3610
894.3278, 547.6862
894.8099, 548.5096
895.2921, 550.0117
895.7742, 551.6339
896.2563, 552.6486
896.7384, 553.5357
897.2205, 555.4271
897.7026, 557.9921
898.1848, 559.4114
898.6669, 559.2142
899.1490, 559.5944
899.6311, 563.0150
900.1132, 568.3063
900.5953, 570.6839
901.0775, 569.8275
901.5596, 569.7040
902.0417, 570.9482
902.5238, 572.6194
903.0059, 574.1193
903.4880, 575.7311
903.9702, 578.1557
904.4523, 581.7504
904.9344, 584.6735
905.4165, 586.2661
905.8986, 588.0320
906.3807, 590.5887
906.8629, 593.2444
907.3450, 595.3624
907.8271, 597.0253
908.3092, 598.7205
908.7913, 600.8102
909.2734, 602.4913
909.7556, 602.6076
910.2377, 602.8693
910.7198, 605.0251
911.2019, 608.4623
911.6840, 612.0688
912.1661, 615.3864
912.6483, 617.7868
913.1304, 617.9365
913.6125, 617.5724
914.0946, 619.6760
914.5767, 623.6669
915.0588, 628.0037
915.5410, 632.3034
916.0231, 635.7148
916.5052, 637.6337
916.9873, 638.8477
917.4694, 641.0805
917.9515, 644.4053
918.4337, 646.5129
918.9158, 646.9472
919.3979, 648.3370
919.8800, 651.9280
920.3621, 656.1103
920.8442, 659.3100
921.3264, 661.5643
921.8085, 663.1155
922.2906, 662.8258
922.7727, 663.7204
923.2548, 667.2433
923.7369, 670.5025
924.2191, 671.5770
924.7012, 671.7858
925.1833, 673.0829
925.6654, 675.7089
926.1475, 678.9266
926.6296, 683.5231
927.1118, 687.4639
927.5939, 689.2883
928.0760, 690.2430
928.5581, 691.7233
929.0402, 693.6694
929.5223, 695.0908
930.0045, 695.4299
930.4866, 696.0260
930.9687, 698.3297
931.4508, 701.5346
931.9329, 704.8464
932.4150, 707.9052
932.8972, 709.9006
933.3793, 710.6000
933.8614, 709.9805
934.3435, 707.5877
934.8256, 704.8376
935.3077, 705.8953
935.7899, 710.4121
936.2720, 713.2223
936.7541, 713.6705
937.2362, 713.4666
937.7183, 713.3520
938.2004, 713.3370
938.6826, 713.5261
939.1647, 713.9399
939.6468, 713.5134
940.1289, 711.7947
940.6110, 710.3829
941.0931, 710.1028
941.5753, 709.5211
942.0574, 707.1546
942.5395, 703.8102
943.0216, 701.7883
943.5037, 701.8396
943.9858, 700.9457
944.4680, 697.7295
944.9501, 694.9268
945.4322, 693.8641
945.9143, 693.4871
946.3964, 692.7558
946.8785, 691.6311
947.3607, 690.5823
947.8428, 689.9791
948.3249, 688.9859
948.8070, 687.0975
949.2891, 684.6573
949.7712, 681.9217
950.2534, 678.9086
950.7355, 675.4476
951.2176, 671.5994
951.6997, 668.0771
952.1818, 665.4587
952.6639, 663.4327
953.1461, 662.1469
953.6282, 660.9902
954.1103, 658.2501
954.5924, 654.0070
955.0745, 649.9102
955.5566, 646.7549
956.0388, 644.0944
956.5209, 641.4598
957.0030, 638.7568
957.4851, 635.2697
957.9672, 630.9921
958.4493, 627.4781
958.9315, 625.1696
959.4136, 622.8134
959.8957, 619.4641
960.3778, 615.4293
960.8599, 611.4476
961.3420, 607.4996
961.8242, 603.7715
962.3063, 600.3059
962.7884, 597.0015
963.2705, 593.9793
963.7526, 590.9188
964.2347, 587.4177
964.7169, 583.5668
965.1990, 579.9868
965.6811, 576.9012
966.1632, 573.7571
966.6453, 570.3884
967.1274, 567.1583
967.6096, 564.4894
968.0917, 561.8683
968.5738, 558.5619
969.0559, 554.5520
969.5380, 550.7103
970.0201, 547.0292
970.5023, 543.7916
970.9844, 541.5091
971.4665, 539.3217
971.9486, 536.2628
972.4307, 532.8110
972.9128, 530.1892
973.3950, 528.6869
973.8771, 526.7614
974.3592, 523.2963
974.8413, 519.1868
975.3234, 514.5784
975.8055, 510.1770
976.2877, 507.2529
976.7698, 505.5910
977.2519, 503.8581
977.7340, 501.4208
978.2161, 499.0660
978.6982, 498.1634
979.1804, 495.4686
979.6625, 495.1672
980.1446, 491.3077
980.6267, 488.2723
981.1088, 486.5146
981.5909, 485.3695
982.0731, 484.4933
982.5552, 483.3036
983.0373, 480.2824
983.5194, 475.8147
984.0015, 472.8833
984.4836, 471.5607
984.9658, 469.9194
985.4479, 467.3114
985.9300, 464.6265
986.4121, 462.7200
986.8942, 461.3345
987.3763, 459.4513
987.8585, 456.8705
988.3406, 455.1941
988.8227, 454.7779
989.3048, 454.3243
989.7869, 453.3642
990.2690, 452.0411
990.7512, 450.5380
991.2333, 448.8398
991.7154, 446.7499
992.1975, 443.7815
992.6796, 441.4551
993.1617, 440.1656
993.6439, 439.1312
994.1260, 438.1226
994.6081, 437.0674
995.0902, 435.9104
995.5723, 434.6634
996.0544, 433.0594
996.5366, 430.3987
997.0187, 428.3631
997.5008, 427.7025
997.9829, 427.2532
998.4650, 426.2419
998.9471, 424.9736
999.4293, 424.0777
999.9114, 423.6555
1000.393, 423.1007
1000.876, 422.3440
1001.358, 421.3011
1001.840, 419.7431
1002.322, 418.0571
1002.804, 416.3076
1003.286, 414.7758
1003.768, 414.2400
1004.250, 415.0062
1004.733, 415.0555
1005.215, 412.3799
1005.697, 409.5889
1006.179, 408.7766
1006.661, 408.9367
1007.143, 408.9052
1007.625, 408.5138
1008.107, 407.9818
1008.589, 407.4169
1009.072, 406.4906
1009.554, 404.1527
1010.036, 401.9459
1010.518, 402.4193
1011.000, 404.1935
1011.482, 404.2325
1011.964, 402.4084
1012.446, 400.9263
1012.929, 401.0188
1013.411, 401.5307
1013.893, 401.1910
1014.375, 400.2153
1014.857, 398.6653
1015.339, 396.8789
1015.821, 396.0223
1016.303, 396.2793
1016.785, 396.8636
1017.268, 397.3028
1017.750, 397.3863
1018.232, 396.6393
1018.714, 395.2397
1019.196, 393.7060
1019.678, 392.1483
1020.160, 391.4000
1020.642, 391.6804
1021.125, 392.0120
1021.607, 391.5633
1022.089, 390.8081
1022.571, 391.2133
1023.053, 390.0440
1023.535, 391.8027
1024.017, 388.4776
1024.499, 386.0539
1024.981, 385.6183
1025.464, 386.2409
1025.946, 387.2338
1026.428, 388.3614
1026.910, 388.9713
1027.392, 389.1084
1027.874, 388.0107
1028.356, 385.2088
1028.838, 383.4023
1029.321, 383.7153
1029.803, 384.7607
1030.285, 385.1426
1030.767, 385.1450
1031.249, 386.2589
1031.731, 389.2328
1032.213, 390.2956
1032.695, 388.5741
1033.177, 386.9381
1033.660, 386.5630
1034.142, 386.4369
1034.624, 385.2747
1035.106, 383.4249
1035.588, 383.1770
1036.070, 385.4101
1036.552, 387.1818
1037.034, 388.7414
1037.516, 389.2710
1037.999, 387.7473
1038.481, 385.8091
1038.963, 385.4015
1039.445, 384.4150
1039.927, 383.6154
1040.409, 384.0624
1040.891, 383.0469
1041.373, 383.9409
1041.855, 384.9298
1042.338, 385.2705
1042.820, 385.4497
1043.302, 386.1429
1043.784, 387.2142
1044.266, 387.6162
1044.748, 386.8461
1045.230, 386.2039
1045.712, 385.7939
1046.195, 385.4792
1046.677, 385.0015
1047.159, 384.7353
1047.641, 385.3246
1048.123, 386.5947
1048.605, 387.3019
1049.087, 386.9948
1049.569, 386.7036
1050.052, 386.5515
1050.534, 386.4672
1051.016, 386.2245
1051.498, 386.1649
1051.980, 387.0183
1052.462, 388.5198
1052.944, 389.0045
1053.426, 387.3415
1053.908, 386.3580
1054.391, 387.1130
1054.873, 388.2040
1055.355, 389.2307
1055.837, 389.9987
1056.319, 390.1446
1056.801, 389.8288
1057.283, 389.8798
1057.765, 390.5690
1058.248, 391.4498
1058.730, 392.9713
1059.212, 393.9990
1059.694, 393.4506
1060.176, 392.3826
1060.658, 391.8872
1061.140, 392.0474
1061.622, 392.6343
1062.104, 393.7879
1062.587, 394.7828
1063.069, 395.0277
1063.551, 395.4107
1064.033, 397.1492
1064.515, 398.8144
1064.997, 398.1413
1065.479, 395.7971
1065.961, 394.9021
1066.443, 396.7552
1066.926, 398.6383
1067.408, 399.7340
1067.890, 400.2056
1068.372, 399.5222
1068.854, 398.7236
1069.336, 399.1422
1069.818, 400.5136
1070.300, 401.5445
1070.782, 401.7797
1071.265, 402.1000
1071.747, 403.4953
1072.229, 404.3999
1072.711, 402.8275
1073.193, 401.0594
1073.675, 402.1518
1074.157, 405.2305
1074.639, 406.8999
1075.122, 405.9120
1075.604, 405.9372
1076.086, 410.6308
1076.568, 414.4782
1077.050, 413.2476
1077.532, 410.3436
1078.014, 409.0697
1078.496, 409.2863
1078.979, 409.6617
1079.461, 409.8514
1079.943, 410.2120
1080.425, 410.9701
1080.907, 411.8604
1081.389, 412.6910
1081.871, 413.6187
1082.353, 415.0028
1082.835, 416.5432
1083.318, 417.5101
1083.800, 417.7485
1084.282, 418.1318
1084.764, 419.3170
1085.246, 420.3798
1085.728, 420.5980
1086.210, 420.7381
1086.692, 421.3799
1087.175, 422.4765
1087.657, 424.0630
1088.139, 426.0561
1088.621, 427.4595
1089.103, 427.6190
1089.585, 427.4697
1090.067, 427.0687
1090.549, 426.8503
1091.031, 427.0760
1091.514, 427.7417
1091.996, 428.7479
1092.478, 430.1186
1092.960, 432.1802
1093.442, 436.0171
1093.924, 438.7287
1094.406, 438.4824
1094.888, 437.6032
1095.370, 437.4103
1095.853, 437.6247
1096.335, 437.6790
1096.817, 438.2394
1097.299, 438.1952
1097.781, 439.7708
1098.263, 441.2719
1098.745, 442.4699
1099.227, 443.3750
1099.709, 443.6889
1100.192, 443.9497
1100.674, 444.7436
1101.156, 445.9841
1101.638, 447.2637
1102.120, 448.5807
1102.602, 449.6342
1103.084, 449.9390
1103.566, 450.4892
1104.049, 451.9237
1104.531, 453.5389
1105.013, 454.7958
1105.495, 455.7364
1105.977, 456.2707
1106.459, 456.0880
1106.941, 457.5935
1107.423, 462.9727
1107.906, 467.5999
1108.388, 470.2106
1108.870, 471.7252
1109.352, 472.2752
1109.834, 472.3458
1110.316, 472.6714
1110.798, 473.3082
1111.280, 474.0280
1111.762, 474.8091
1112.245, 475.6930
1112.727, 476.5357
1113.209, 477.6638
1113.691, 479.6353
1114.173, 481.7227
1114.655, 482.9084
1115.137, 483.2623
1115.619, 483.8372
1116.102, 484.2453
1116.584, 485.5833
1117.066, 488.7589
1117.548, 491.5072
1118.030, 492.5880
1118.512, 493.4351
1118.994, 495.5643
1119.476, 498.5907
1119.958, 500.9901
1120.441, 502.7525
1120.923, 503.8268
1121.405, 503.5535
1121.887, 504.0629
1122.369, 506.0793
1122.851, 508.6920
1123.333, 511.3416
1123.815, 514.0367
1124.297, 516.9473
1124.780, 520.1959
1125.262, 521.8195
1125.744, 521.1209
1126.226, 521.3927
1126.708, 523.3203
1127.190, 525.8531
1127.672, 528.4272
1128.154, 531.3122
1128.636, 535.1185
1129.119, 537.2442
1129.601, 539.7752
1130.083, 542.4774
1130.565, 543.9766
1131.047, 547.1201
1131.529, 549.5080
1132.011, 550.0667
1132.493, 550.2336
1132.976, 551.4213
1133.458, 553.4160
1133.940, 555.7825
1134.422, 558.4648
1134.904, 560.5433
1135.386, 562.0233
1135.868, 563.8926
1136.350, 566.4196
1136.833, 569.3045
1137.315, 572.3545
1137.797, 575.6190
1138.279, 579.4327
1138.761, 583.4718
1139.243, 586.5119
1139.725, 588.7155
1140.207, 590.6541
1140.689, 592.5082
1141.172, 594.7063
1141.654, 597.4484
1142.136, 599.9280
1142.618, 600.6420
1143.100, 601.2465
1143.582, 605.2512
1144.064, 610.9684
1144.546, 614.4831
1145.029, 616.3824
1145.511, 619.9174
1145.993, 625.8515
1146.475, 631.8657
1146.957, 636.6668
1147.439, 640.2006
1147.921, 641.8452
1148.403, 642.6696
1148.885, 643.5797
1149.368, 644.8015
1149.850, 646.2686
1150.332, 648.2335
1150.814, 651.8034
1151.296, 657.7010
1151.778, 663.4692
1152.260, 666.8430
1152.742, 670.4618
1153.224, 677.2357
1153.707, 684.3392
1154.189, 688.5698
1154.671, 690.6640
1155.153, 692.7454
1155.635, 695.2490
1156.117, 698.1301
1156.599, 701.5662
1157.081, 705.1093
1157.563, 708.3068
1158.046, 711.9111
1158.528, 716.3167
1159.010, 721.4318
1159.492, 727.6693
1159.974, 734.7069
1160.456, 740.2333
1160.938, 742.5340
1161.420, 746.2806
1161.903, 753.0334
1162.385, 759.2429
1162.867, 763.4754
1163.349, 767.3936
1163.831, 772.4426
1164.313, 778.0246
1164.795, 782.3987
1165.277, 787.9768
1165.760, 793.7688
1166.242, 798.5311
1166.724, 805.9189
1167.206, 811.2375
1167.688, 817.5129
1168.170, 826.7779
1168.652, 836.2541
1169.134, 842.1064
1169.616, 845.2672
1170.099, 850.1332
1170.581, 856.7384
1171.063, 863.1281
1171.545, 869.2033
1172.027, 874.6859
1172.509, 879.5140
1172.991, 885.4885
1173.473, 894.1454
1173.956, 903.8495
1174.438, 911.5262
1174.920, 918.0136
1175.402, 926.1087
1175.884, 935.3689
1176.366, 944.1021
1176.848, 952.1722
1177.330, 960.1990
1177.813, 968.4854
1178.295, 977.0345
1178.777, 985.4877
1179.259, 994.9348
1179.741, 1007.775
1180.223, 1021.705
1180.705, 1034.174
1181.187, 1044.655
1181.669, 1051.416
1182.151, 1055.166
1182.634, 1060.604
1183.116, 1070.053
1183.598, 1080.611
1184.080, 1090.091
1184.562, 1100.620
1185.044, 1114.605
1185.526, 1129.522
1186.008, 1142.295
1186.490, 1153.975
1186.973, 1168.204
1187.455, 1185.779
1187.937, 1200.903
1188.419, 1209.405
1188.901, 1220.005
1189.383, 1235.779
1189.865, 1252.473
1190.347, 1268.049
1190.830, 1283.303
1191.312, 1298.959
1191.794, 1315.041
1192.276, 1331.807
1192.758, 1349.454
1193.240, 1367.235
1193.722, 1385.001
1194.204, 1403.267
1194.687, 1422.237
1195.169, 1441.423
1195.651, 1460.590
1196.133, 1479.894
1196.615, 1499.732
1197.097, 1519.925
1197.579, 1539.304
1198.061, 1558.123
1198.543, 1579.790
1199.026, 1604.437
1199.508, 1628.141
1199.990, 1649.536
1200.472, 1671.776
1200.954, 1697.419
1201.436, 1723.807
1201.918, 1745.894
1202.400, 1766.598
1202.883, 1791.700
1203.365, 1820.146
1203.847, 1850.102
1204.329, 1880.450
1204.811, 1909.156
1205.293, 1935.448
1205.775, 1961.530
1206.257, 1988.836
1206.740, 2016.577
1207.222, 2044.625
1207.704, 2072.429
1208.186, 2098.126
1208.668, 2124.053
1209.150, 2155.249
1209.632, 2190.519
1210.114, 2221.976
1210.596, 2246.539
1211.078, 2271.361
1211.561, 2297.966
1212.043, 2325.203
1212.525, 2354.470
1213.007, 2382.330
1213.489, 2405.125
1213.971, 2426.344
1214.453, 2451.872
1214.935, 2481.270
1215.417, 2506.465
1215.900, 2525.917
1216.382, 2547.194
1216.864, 2571.413
1217.346, 2593.468
1217.828, 2611.532
1218.310, 2628.390
1218.792, 2646.426
1219.274, 2664.426
1219.757, 2680.725
1220.239, 2695.105
1220.721, 2705.809
1221.203, 2713.740
1221.685, 2722.582
1222.167, 2733.102
1222.649, 2747.458
1223.131, 2765.786
1223.614, 2780.869
1224.096, 2786.461
1224.578, 2788.969
1225.060, 2795.312
1225.542, 2802.641
1226.024, 2808.641
1226.506, 2812.524
1226.988, 2813.493
1227.470, 2811.484
1227.953, 2805.754
1228.435, 2795.928
1228.917, 2787.912
1229.399, 2784.786
1229.881, 2782.688
1230.363, 2780.030
1230.845, 2778.355
1231.327, 2779.576
1231.810, 2781.532
1232.292, 2781.231
1232.774, 2782.255
1233.256, 2782.508
1233.738, 2781.999
1234.220, 2782.881
1234.702, 2780.890
1235.184, 2781.436
1235.667, 2786.261
1236.149, 2790.878
1236.631, 2793.102
1237.113, 2793.289
1237.595, 2791.243
1238.077, 2788.609
1238.559, 2790.640
1239.041, 2796.553
1239.523, 2802.272
1240.005, 2807.921
1240.488, 2815.204
1240.970, 2824.225
1241.452, 2833.075
1241.934, 2840.871
1242.416, 2849.531
1242.898, 2861.468
1243.380, 2874.389
1243.862, 2885.930
1244.344, 2897.315
1244.827, 2909.325
1245.309, 2922.624
1245.791, 2938.694
1246.273, 2957.052
1246.755, 2974.998
1247.237, 2992.561
1247.719, 3007.237
1248.201, 3014.339
1248.684, 3024.392
1249.166, 3043.166
1249.648, 3062.583
1250.130, 3077.296
1250.612, 3090.852
1251.094, 3108.322
1251.576, 3129.018
1252.058, 3148.386
1252.541, 3166.491
1253.023, 3182.271
1253.505, 3195.436
1253.987, 3210.582
1254.469, 3228.829
1254.951, 3248.732
1255.433, 3269.556
1255.915, 3289.792
1256.397, 3307.352
1256.880, 3323.460
1257.362, 3339.813
1257.844, 3356.760
1258.326, 3374.719
1258.808, 3393.904
1259.290, 3416.248
1259.772, 3440.608
1260.254, 3461.834
1260.737, 3477.811
1261.219, 3490.289
1261.701, 3498.906
1262.183, 3505.988
1262.665, 3511.470
1263.147, 3517.138
1263.629, 3524.496
1264.111, 3532.675
1264.594, 3542.138
1265.076, 3551.547
1265.558, 3553.308
1266.040, 3544.260
1266.522, 3539.165
1267.004, 3539.416
1267.486, 3538.757
1267.968, 3536.137
1268.450, 3531.510
1268.932, 3524.569
1269.415, 3517.743
1269.897, 3514.281
1270.379, 3505.375
1270.861, 3502.344
1271.343, 3488.836
1271.825, 3476.757
1272.307, 3466.482
1272.789, 3459.405
1273.271, 3454.451
1273.754, 3447.034
1274.236, 3435.403
1274.718, 3422.603
1275.200, 3411.696
1275.682, 3398.794
1276.164, 3378.766
1276.646, 3359.020
1277.128, 3347.043
1277.611, 3336.724
1278.093, 3320.708
1278.575, 3300.144
1279.057, 3280.245
1279.539, 3261.320
1280.021, 3243.544
1280.503, 3226.304
1280.985, 3210.376
1281.468, 3197.452
1281.950, 3183.771
1282.432, 3167.922
1282.914, 3150.310
1283.396, 3130.930
1283.878, 3111.333
1284.360, 3094.737
1284.842, 3078.364
1285.324, 3055.116
##END=



