##NAMES=Tveitite-(Y)
##RRUFFID=R060895
##IDEAL CHEMISTRY=(Y,Na)_6_(Ca,Na,Y)_12_(Ca,Na)F_42_
##LOCALITY=Rov-Gora, West Keivy, Kola Peninsula, Russia
##OWNER=RRUFF
##SOURCE=Michael Scott
##DESCRIPTION=Pink massive
##STATUS=The identification of this mineral has been confirmed by X-ray diffraction.
##URL=rruff.info/R060895
83.91797, 630.9040
84.40009, 632.3025
84.88220, 642.8207
85.36432, 656.3406
85.84644, 664.4727
86.32855, 659.7759
86.81067, 650.8748
87.29279, 642.2910
87.77490, 632.7558
88.25701, 628.6052
88.73913, 639.1781
89.22124, 660.4692
89.70336, 679.2191
90.18548, 683.3021
90.66759, 680.2047
91.14971, 681.1185
91.63183, 690.5301
92.11395, 704.1051
92.59606, 718.0169
93.07818, 732.2716
93.56030, 742.9113
94.04241, 743.0933
94.52453, 734.9818
95.00665, 729.0758
95.48875, 728.6815
95.97087, 733.6687
96.45299, 743.2167
96.93510, 757.2344
97.41722, 776.1534
97.89934, 801.6054
98.38145, 834.3004
98.86357, 868.7248
99.34569, 897.8529
99.82780, 920.3458
100.3099, 958.8599
100.7920, 1016.349
101.2742, 1091.501
101.7563, 1173.069
102.2384, 1253.378
102.7205, 1356.821
103.2026, 1508.587
103.6847, 1721.025
104.1668, 1947.402
104.6490, 2170.648
105.1311, 2388.845
105.6132, 2654.717
106.0953, 2965.118
106.5774, 3328.111
107.0595, 3754.074
107.5417, 4227.556
108.0238, 4780.637
108.5059, 5413.235
108.9880, 6098.708
109.4701, 6914.370
109.9522, 7886.240
110.4344, 8992.863
110.9165, 10143.49
111.3986, 11344.50
111.8807, 12588.81
112.3628, 13864.40
112.8449, 15197.56
113.3271, 16526.28
113.8092, 17846.90
114.2913, 19158.69
114.7734, 20496.86
115.2555, 21840.90
115.7376, 23221.45
116.2198, 24643.63
116.7019, 26064.36
117.1840, 27561.21
117.6661, 29206.28
118.1482, 31002.68
118.6303, 32833.60
119.1124, 34636.68
119.5946, 36425.11
120.0767, 38206.75
120.5588, 40040.08
121.0409, 41827.05
121.5230, 43523.18
122.0051, 45119.35
122.4873, 46597.07
122.9694, 47918.68
123.4515, 49097.98
123.9336, 50157.15
124.4157, 51087.38
124.8979, 51911.25
125.3800, 52658.82
125.8621, 53330.76
126.3442, 53939.16
126.8263, 54489.97
127.3084, 54981.59
127.7905, 55445.52
128.2727, 55891.82
128.7548, 56325.21
129.2369, 56751.19
129.7190, 57156.14
130.2011, 57559.17
130.6832, 58010.60
131.1654, 58515.89
131.6475, 59046.29
132.1296, 59555.81
132.6117, 60050.35
133.0938, 60588.58
133.5759, 61197.67
134.0581, 61876.52
134.5402, 62590.66
135.0223, 63348.22
135.5044, 64133.28
135.9865, 64916.98
136.4686, 65698.50
136.9508, 66460.36
137.4329, 67200.80
137.9150, 67916.70
138.3971, 68584.88
138.8792, 69204.88
139.3613, 69777.88
139.8434, 70312.13
140.3256, 70811.29
140.8077, 71279.15
141.2898, 71732.52
141.7719, 72185.54
142.2540, 72576.56
142.7361, 72884.05
143.2183, 73112.96
143.7004, 73328.95
144.1825, 73531.66
144.6646, 73718.73
145.1467, 73882.00
145.6288, 74004.55
146.1110, 74125.40
146.5931, 74261.64
147.0752, 74429.80
147.5573, 74520.25
148.0394, 74454.15
148.5215, 74335.77
149.0037, 74317.23
149.4858, 74529.08
149.9679, 74712.94
150.4500, 74790.76
150.9321, 74682.98
151.4142, 74624.74
151.8964, 74675.89
152.3785, 74784.85
152.8606, 74828.77
153.3427, 74732.27
153.8248, 74631.10
154.3069, 74583.68
154.7890, 74600.19
155.2712, 74672.37
155.7533, 74838.48
156.2354, 75076.30
156.7175, 75282.17
157.1996, 75389.69
157.6817, 75486.30
158.1639, 75628.23
158.6460, 75840.20
159.1281, 76080.54
159.6102, 76354.50
160.0923, 76655.23
160.5744, 76920.27
161.0566, 77100.66
161.5387, 77237.25
162.0208, 77370.20
162.5029, 77501.91
162.9850, 77634.45
163.4671, 77779.58
163.9493, 77939.30
164.4314, 78064.07
164.9135, 78118.30
165.3956, 78125.25
165.8777, 78118.80
166.3598, 78104.08
166.8420, 78090.94
167.3241, 78092.76
167.8062, 78119.84
168.2883, 78140.01
168.7704, 78130.13
169.2525, 78100.88
169.7346, 78072.95
170.2168, 78025.02
170.6989, 78001.17
171.1810, 78056.84
171.6631, 78231.73
172.1452, 78424.50
172.6273, 78528.41
173.1095, 78569.12
173.5916, 78645.55
174.0737, 78867.96
174.5558, 79153.44
175.0379, 79373.37
175.5201, 79469.57
176.0022, 79526.45
176.4843, 79655.66
176.9664, 79845.13
177.4485, 80008.68
177.9306, 80020.93
178.4128, 79958.59
178.8949, 79988.97
179.3770, 80213.63
179.8591, 80527.80
180.3412, 80774.36
180.8233, 80954.98
181.3055, 81096.77
181.7876, 81195.21
182.2697, 81268.96
182.7518, 81385.35
183.2339, 81602.89
183.7160, 81874.46
184.1982, 82075.88
184.6803, 82199.42
185.1624, 82302.25
185.6445, 82462.16
186.1266, 82665.90
186.6087, 82844.48
187.0908, 82939.09
187.5730, 82976.42
188.0551, 83074.13
188.5372, 83253.84
189.0193, 83435.38
189.5014, 83481.42
189.9835, 83398.79
190.4657, 83336.02
190.9478, 83379.41
191.4299, 83517.26
191.9120, 83668.26
192.3941, 83843.21
192.8762, 84002.17
193.3584, 84052.13
193.8405, 83988.41
194.3226, 83920.52
194.8047, 83914.95
195.2868, 83970.62
195.7689, 84039.95
196.2511, 84124.26
196.7332, 84217.55
197.2153, 84302.47
197.6974, 84379.45
198.1795, 84455.82
198.6616, 84528.83
199.1438, 84597.97
199.6259, 84701.71
200.1080, 84855.18
200.5901, 85044.18
201.0722, 85204.20
201.5543, 85322.54
202.0364, 85456.66
202.5186, 85663.52
203.0007, 85953.06
203.4828, 86222.11
203.9649, 86432.28
204.4470, 86601.00
204.9291, 86853.88
205.4113, 87215.56
205.8934, 87594.78
206.3755, 87899.78
206.8576, 88111.47
207.3397, 88329.45
207.8218, 88580.57
208.3040, 88861.70
208.7861, 89114.25
209.2682, 89324.08
209.7503, 89531.64
210.2324, 89778.16
210.7145, 90065.70
211.1967, 90391.68
211.6788, 90760.46
212.1609, 91175.25
212.6430, 91621.63
213.1251, 92102.56
213.6072, 92611.15
214.0894, 93141.34
214.5715, 93689.11
215.0536, 94271.62
215.5357, 94884.68
216.0178, 95527.67
216.4999, 96216.05
216.9820, 96950.13
217.4642, 97712.61
217.9463, 98489.84
218.4284, 99266.88
218.9105, 100062.2
219.3926, 100884.7
219.8747, 101729.6
220.3569, 102573.9
220.8390, 103401.6
221.3211, 104238.5
221.8032, 105174.5
222.2853, 106250.1
222.7674, 107338.7
223.2496, 108372.8
223.7317, 109322.6
224.2138, 110363.5
224.6959, 111545.2
225.1780, 112799.3
225.6601, 114039.7
226.1423, 115233.7
226.6244, 116453.6
227.1065, 117713.1
227.5886, 119029.7
228.0707, 120362.0
228.5528, 121709.5
229.0350, 123083.6
229.5171, 124501.7
229.9992, 126004.8
230.4813, 127521.9
230.9634, 129016.7
231.4455, 130486.0
231.9276, 131973.2
232.4098, 133482.1
232.8919, 135020.6
233.3740, 136536.9
233.8561, 138042.8
234.3382, 139521.3
234.8203, 140979.0
235.3025, 142401.3
235.7846, 143817.6
236.2667, 145215.5
236.7488, 146616.9
237.2309, 148063.0
237.7130, 149598.8
238.1952, 151099.5
238.6773, 152491.6
239.1594, 153722.4
239.6415, 154957.3
240.1236, 156230.3
240.6057, 157521.9
241.0879, 158772.4
241.5700, 159956.4
242.0521, 161115.9
242.5342, 162277.1
243.0163, 163478.1
243.4984, 164595.0
243.9806, 165598.6
244.4627, 166503.9
244.9448, 167395.6
245.4269, 168294.4
245.9090, 169139.5
246.3911, 169906.0
246.8732, 170603.2
247.3554, 171179.7
247.8375, 171599.8
248.3196, 171884.8
248.8017, 172162.3
249.2838, 172465.5
249.7659, 172713.4
250.2481, 172863.6
250.7302, 172921.8
251.2123, 172886.7
251.6944, 172758.6
252.1765, 172548.4
252.6586, 172282.2
253.1408, 171972.6
253.6229, 171608.8
254.1050, 171178.3
254.5871, 170679.4
255.0692, 170143.0
255.5513, 169555.5
256.0334, 168935.2
256.5156, 168352.0
256.9977, 167824.4
257.4798, 167299.0
257.9619, 166730.6
258.4440, 166074.7
258.9261, 165470.7
259.4083, 164969.7
259.8904, 164525.4
260.3725, 163897.6
260.8546, 162991.9
261.3367, 162032.0
261.8188, 161186.5
262.3010, 160519.8
262.7831, 159738.0
263.2652, 158757.5
263.7473, 157633.4
264.2294, 156618.0
264.7115, 155801.1
265.1937, 154940.3
265.6758, 153848.5
266.1579, 152470.0
266.6400, 151122.2
267.1221, 149856.9
267.6042, 148653.4
268.0864, 147482.1
268.5685, 146355.3
269.0506, 145216.0
269.5327, 144011.3
270.0148, 142722.0
270.4969, 141471.0
270.9791, 140294.7
271.4612, 139160.9
271.9433, 137969.6
272.4254, 136701.1
272.9075, 135445.9
273.3896, 134266.2
273.8718, 133173.0
274.3539, 132167.6
274.8360, 131264.1
275.3181, 130432.9
275.8002, 129565.9
276.2823, 128658.9
276.7645, 127727.7
277.2466, 126747.1
277.7287, 125703.7
278.2108, 124741.1
278.6929, 123879.1
279.1750, 123091.1
279.6572, 122307.0
280.1393, 121522.4
280.6214, 120755.7
281.1035, 120011.7
281.5856, 119289.1
282.0677, 118617.5
282.5499, 118012.4
283.0320, 117444.7
283.5141, 116846.0
283.9962, 116213.8
284.4783, 115581.9
284.9604, 114974.3
285.4425, 114388.3
285.9247, 113800.4
286.4068, 113204.3
286.8889, 112619.4
287.3710, 112088.4
287.8531, 111612.4
288.3352, 111167.3
288.8174, 110744.3
289.2995, 110342.0
289.7816, 109945.2
290.2637, 109556.9
290.7458, 109180.5
291.2279, 108832.5
291.7101, 108510.5
292.1922, 108191.9
292.6743, 107862.7
293.1564, 107527.4
293.6385, 107203.3
294.1206, 106890.7
294.6028, 106602.9
295.0849, 106367.0
295.5670, 106177.8
296.0491, 105995.0
296.5312, 105792.2
297.0133, 105585.7
297.4955, 105412.4
297.9776, 105282.8
298.4597, 105180.7
298.9418, 105102.2
299.4239, 105041.9
299.9060, 104978.7
300.3882, 104878.7
300.8703, 104772.8
301.3524, 104718.0
301.8345, 104717.7
302.3166, 104734.8
302.7987, 104748.5
303.2809, 104748.3
303.7630, 104714.8
304.2451, 104574.4
304.7272, 104418.9
305.2093, 104374.9
305.6914, 104450.8
306.1736, 104540.1
306.6557, 104600.0
307.1378, 104611.5
307.6199, 104544.0
308.1020, 104315.6
308.5841, 104050.7
309.0663, 103872.4
309.5484, 103782.9
310.0305, 103685.3
310.5126, 103496.7
310.9947, 103268.9
311.4768, 103069.2
311.9590, 102950.1
312.4411, 102844.9
312.9232, 102710.2
313.4053, 102547.6
313.8874, 102393.6
314.3695, 102260.5
314.8517, 102144.7
315.3337, 102042.4
315.8159, 101997.4
316.2980, 101924.4
316.7801, 101761.9
317.2622, 101526.8
317.7443, 101319.4
318.2264, 101198.3
318.7086, 101113.6
319.1907, 101029.5
319.6728, 100909.3
320.1549, 100825.5
320.6370, 100814.7
321.1191, 100861.5
321.6013, 100905.8
322.0834, 100928.3
322.5655, 100943.6
323.0476, 100959.0
323.5297, 100982.0
324.0118, 100990.4
324.4940, 100955.6
324.9761, 100899.5
325.4582, 100882.6
325.9403, 100997.3
326.4224, 101080.9
326.9045, 101060.0
327.3867, 100833.5
327.8688, 100678.0
328.3509, 100641.4
328.8330, 100672.4
329.3151, 100678.6
329.7972, 100656.1
330.2794, 100614.7
330.7615, 100556.3
331.2436, 100478.6
331.7257, 100394.9
332.2078, 100302.1
332.6899, 100206.4
333.1721, 100115.3
333.6542, 100026.2
334.1363, 99951.66
334.6184, 99909.52
335.1005, 99910.36
335.5826, 99834.53
336.0648, 99633.50
336.5469, 99415.08
337.0290, 99308.53
337.5111, 99362.88
337.9932, 99371.12
338.4753, 99262.25
338.9575, 99053.13
339.4396, 98938.15
339.9217, 98954.26
340.4038, 98966.81
340.8859, 98832.53
341.3680, 98533.92
341.8502, 98273.94
342.3323, 98109.22
342.8144, 98004.36
343.2965, 97837.45
343.7786, 97598.18
344.2607, 97382.70
344.7429, 97291.41
345.2250, 97311.33
345.7071, 97264.61
346.1892, 97101.43
346.6713, 96905.77
347.1534, 96838.16
347.6355, 96892.30
348.1176, 96957.00
348.5998, 96965.90
349.0819, 96928.63
349.5640, 96862.87
350.0461, 96751.76
350.5282, 96659.55
351.0103, 96686.47
351.4925, 96801.91
351.9746, 96906.52
352.4567, 96938.89
352.9388, 96929.98
353.4209, 96933.07
353.9030, 96954.96
354.3852, 96949.72
354.8673, 96838.28
355.3494, 96678.45
355.8315, 96573.47
356.3136, 96626.46
356.7957, 96717.28
357.2779, 96739.87
357.7600, 96696.72
358.2421, 96664.37
358.7242, 96697.18
359.2063, 96762.16
359.6884, 96823.87
360.1706, 96878.63
360.6527, 96919.07
361.1348, 96907.77
361.6169, 96862.45
362.0990, 96883.62
362.5811, 97073.40
363.0633, 97299.57
363.5454, 97472.41
364.0275, 97532.89
364.5096, 97596.76
364.9917, 97704.45
365.4738, 97835.98
365.9560, 97939.99
366.4381, 97975.45
366.9202, 98008.89
367.4023, 98068.67
367.8844, 98167.92
368.3665, 98273.98
368.8487, 98397.23
369.3308, 98526.45
369.8129, 98640.80
370.2950, 98707.51
370.7771, 98800.67
371.2592, 98953.79
371.7414, 99181.38
372.2235, 99349.95
372.7056, 99420.20
373.1877, 99464.20
373.6698, 99561.02
374.1519, 99734.17
374.6341, 99891.93
375.1162, 100008.6
375.5983, 100088.8
376.0804, 100181.0
376.5625, 100289.6
377.0446, 100394.4
377.5267, 100477.5
378.0089, 100538.5
378.4910, 100597.3
378.9731, 100658.4
379.4552, 100721.3
379.9373, 100777.8
380.4194, 100829.6
380.9016, 100895.3
381.3837, 101001.6
381.8658, 101140.8
382.3479, 101253.8
382.8300, 101330.2
383.3121, 101408.3
383.7943, 101554.6
384.2764, 101753.1
384.7585, 101933.4
385.2406, 102003.0
385.7227, 102044.0
386.2048, 102219.1
386.6870, 102531.9
387.1691, 102872.7
387.6512, 103161.4
388.1333, 103400.6
388.6154, 103599.2
389.0975, 103714.2
389.5797, 103821.7
390.0618, 103998.2
390.5439, 104233.5
391.0260, 104453.9
391.5081, 104592.5
391.9902, 104713.2
392.4724, 104881.1
392.9545, 105157.9
393.4366, 105414.5
393.9187, 105566.5
394.4008, 105658.0
394.8829, 105796.8
395.3651, 106075.9
395.8472, 106365.8
396.3293, 106583.3
396.8114, 106660.3
397.2935, 106848.7
397.7756, 107287.3
398.2578, 107826.4
398.7399, 108273.7
399.2220, 108543.7
399.7041, 108790.4
400.1862, 109032.0
400.6683, 109266.3
401.1505, 109515.6
401.6326, 109787.3
402.1147, 110067.7
402.5968, 110352.3
403.0789, 110651.8
403.5610, 110934.6
404.0432, 111195.3
404.5253, 111438.6
405.0074, 111681.0
405.4895, 111926.0
405.9716, 112165.1
406.4537, 112383.1
406.9359, 112577.1
407.4180, 112813.3
407.9001, 113107.6
408.3822, 113420.0
408.8643, 113670.8
409.3464, 113860.7
409.8285, 114097.3
410.3106, 114474.1
410.7928, 114932.6
411.2749, 115268.5
411.7570, 115475.4
412.2391, 115653.8
412.7212, 115887.1
413.2033, 116171.3
413.6855, 116495.2
414.1676, 116876.5
414.6497, 117271.3
415.1318, 117594.4
415.6139, 117866.1
416.0960, 118181.6
416.5782, 118666.9
417.0603, 119198.8
417.5424, 119629.1
418.0245, 119886.2
418.5066, 120152.8
418.9887, 120562.2
419.4709, 121050.8
419.9530, 121510.4
420.4351, 121841.3
420.9172, 122180.7
421.3993, 122606.8
421.8814, 123141.2
422.3636, 123650.2
422.8457, 124080.7
423.3278, 124489.3
423.8099, 124919.5
424.2920, 125410.4
424.7741, 125895.2
425.2563, 126370.5
425.7384, 126841.1
426.2205, 127279.4
426.7026, 127585.9
427.1847, 127976.2
427.6668, 128588.0
428.1490, 129578.4
428.6311, 130371.0
429.1132, 130884.3
429.5953, 131260.7
430.0774, 131783.9
430.5595, 132492.3
431.0417, 133180.9
431.5238, 133754.7
432.0059, 134223.8
432.4880, 134741.6
432.9701, 135321.0
433.4522, 135891.4
433.9344, 136362.9
434.4165, 136748.1
434.8986, 137187.8
435.3807, 137738.7
435.8628, 138338.5
436.3449, 138894.5
436.8271, 139406.7
437.3092, 139868.3
437.7913, 140228.3
438.2734, 140545.8
438.7555, 140917.0
439.2376, 141369.3
439.7197, 141807.0
440.2018, 142138.5
440.6840, 142400.1
441.1661, 142659.0
441.6482, 142953.0
442.1303, 143238.8
442.6124, 143492.0
443.0945, 143711.7
443.5767, 143903.7
444.0588, 144087.5
444.5409, 144237.0
445.0230, 144333.0
445.5051, 144369.5
445.9872, 144358.2
446.4694, 144282.8
446.9515, 144161.3
447.4336, 144049.1
447.9157, 143977.6
448.3978, 143888.2
448.8799, 143762.4
449.3621, 143596.7
449.8442, 143406.0
450.3263, 143187.0
450.8084, 142947.1
451.2905, 142687.9
451.7726, 142399.7
452.2548, 142132.0
452.7369, 141907.9
453.2190, 141710.9
453.7011, 141439.1
454.1832, 141079.6
454.6653, 140726.6
455.1475, 140487.6
455.6296, 140332.7
456.1117, 140047.4
456.5938, 139589.8
457.0759, 139059.0
457.5580, 138583.3
458.0402, 138156.9
458.5223, 137755.6
459.0044, 137406.0
459.4865, 137055.5
459.9686, 136604.0
460.4507, 136056.8
460.9329, 135534.7
461.4150, 135166.5
461.8971, 134865.2
462.3792, 134531.5
462.8613, 134116.9
463.3434, 133697.2
463.8256, 133303.4
464.3077, 132934.8
464.7898, 132581.5
465.2719, 132265.4
465.7540, 131946.7
466.2361, 131596.7
466.7183, 131186.1
467.2004, 130823.1
467.6825, 130556.3
468.1646, 130317.8
468.6467, 130032.9
469.1288, 129648.0
469.6110, 129305.5
470.0930, 129050.0
470.5752, 128856.3
471.0573, 128552.1
471.5394, 128078.5
472.0215, 127633.0
472.5036, 127372.9
472.9857, 127315.3
473.4679, 127131.4
473.9500, 126788.8
474.4321, 126368.5
474.9142, 125990.0
475.3963, 125648.9
475.8784, 125284.6
476.3606, 124838.5
476.8427, 124376.3
477.3248, 124057.9
477.8069, 123875.3
478.2890, 123699.3
478.7711, 123411.9
479.2533, 123082.8
479.7354, 122806.1
480.2175, 122609.0
480.6996, 122449.9
481.1817, 122319.7
481.6638, 122204.2
482.1460, 122077.8
482.6281, 121908.4
483.1102, 121737.8
483.5923, 121590.7
484.0744, 121467.3
484.5565, 121307.6
485.0387, 121029.3
485.5208, 120745.3
486.0029, 120540.3
486.4850, 120506.9
486.9671, 120420.7
487.4492, 120284.4
487.9314, 120090.2
488.4135, 119804.7
488.8956, 119391.3
489.3777, 118982.4
489.8598, 118636.3
490.3419, 118361.8
490.8241, 118033.1
491.3062, 117625.3
491.7883, 117249.4
492.2704, 117054.8
492.7525, 117024.8
493.2346, 116938.7
493.7168, 116736.7
494.1989, 116471.9
494.6810, 116213.9
495.1631, 115966.5
495.6452, 115744.9
496.1273, 115586.7
496.6095, 115445.3
497.0916, 115256.4
497.5737, 115010.2
498.0558, 114771.5
498.5379, 114609.5
499.0201, 114473.9
499.5022, 114309.1
499.9843, 114046.3
500.4664, 113804.4
500.9485, 113650.6
501.4306, 113559.5
501.9127, 113441.6
502.3948, 113244.4
502.8770, 113049.2
503.3591, 112892.4
503.8412, 112786.2
504.3233, 112675.2
504.8054, 112555.2
505.2875, 112429.5
505.7697, 112297.6
506.2518, 112149.7
506.7339, 112015.6
507.2160, 111910.3
507.6981, 111816.2
508.1802, 111656.9
508.6624, 111422.2
509.1445, 111219.0
509.6266, 111180.5
510.1087, 111244.0
510.5908, 111097.3
511.0729, 110701.2
511.5551, 110278.3
512.0372, 110087.3
512.5193, 110048.5
513.0014, 109981.6
513.4835, 109782.5
513.9656, 109581.9
514.4478, 109507.2
514.9299, 109528.7
515.4120, 109537.5
515.8941, 109490.1
516.3762, 109403.3
516.8583, 109277.1
517.3405, 109095.9
517.8226, 108930.8
518.3047, 108792.5
518.7868, 108677.9
519.2689, 108584.5
519.7510, 108517.6
520.2332, 108465.0
520.7153, 108447.7
521.1974, 108445.2
521.6795, 108372.2
522.1616, 108207.3
522.6437, 108023.8
523.1259, 107866.1
523.6080, 107737.1
524.0901, 107544.5
524.5722, 107266.1
525.0543, 107000.3
525.5364, 106866.9
526.0186, 106843.6
526.5007, 106811.3
526.9828, 106731.9
527.4649, 106639.1
527.9470, 106609.4
528.4291, 106617.1
528.9113, 106561.2
529.3934, 106308.1
529.8755, 106014.6
530.3576, 105831.6
530.8397, 105780.3
531.3218, 105724.4
531.8040, 105612.2
532.2861, 105460.6
532.7682, 105288.7
533.2503, 105071.6
533.7324, 104869.0
534.2145, 104675.1
534.6967, 104504.3
535.1788, 104391.4
535.6609, 104400.7
536.1430, 104379.4
536.6251, 104256.2
537.1072, 104022.2
537.5894, 103919.0
538.0715, 103986.8
538.5536, 104086.5
539.0357, 104073.0
539.5178, 103950.8
539.9999, 103896.9
540.4821, 103948.4
540.9642, 104047.8
541.4463, 104110.1
541.9284, 104142.0
542.4105, 104179.7
542.8926, 104263.7
543.3748, 104347.0
543.8569, 104347.1
544.3390, 104272.4
544.8211, 104234.5
545.3032, 104322.4
545.7853, 104460.7
546.2675, 104592.4
546.7495, 104720.8
547.2316, 104811.1
547.7137, 104806.4
548.1959, 104772.6
548.6780, 104807.1
549.1601, 105029.6
549.6422, 105186.8
550.1243, 105206.5
550.6064, 105113.6
551.0886, 105102.6
551.5707, 105208.2
552.0528, 105321.3
552.5349, 105361.6
553.0170, 105323.6
553.4991, 105375.5
553.9813, 105535.7
554.4634, 105727.4
554.9455, 105861.0
555.4276, 105946.4
555.9097, 106022.6
556.3918, 106093.4
556.8740, 106171.9
557.3561, 106274.6
557.8382, 106399.6
558.3203, 106537.9
558.8024, 106727.4
559.2845, 106899.2
559.7667, 106979.0
560.2488, 106951.5
560.7309, 106981.7
561.2130, 107185.6
561.6951, 107432.1
562.1772, 107622.8
562.6594, 107627.4
563.1415, 107730.8
563.6236, 107995.7
564.1057, 108335.9
564.5878, 108589.7
565.0699, 108729.8
565.5521, 108841.3
566.0342, 108945.3
566.5163, 109039.7
566.9984, 109104.3
567.4805, 109129.9
567.9626, 109198.2
568.4448, 109436.2
568.9269, 109769.3
569.4090, 109948.2
569.8911, 109928.6
570.3732, 109858.5
570.8553, 109869.3
571.3375, 109935.8
571.8196, 110012.4
572.3017, 110084.3
572.7838, 110161.3
573.2659, 110267.0
573.7480, 110384.9
574.2302, 110465.9
574.7123, 110454.1
575.1944, 110437.7
575.6765, 110461.3
576.1586, 110540.3
576.6407, 110586.7
577.1229, 110596.3
577.6050, 110582.3
578.0871, 110548.1
578.5692, 110482.5
579.0513, 110452.3
579.5334, 110471.7
580.0156, 110518.6
580.4977, 110542.4
580.9798, 110546.3
581.4619, 110591.3
581.9440, 110726.3
582.4261, 110899.0
582.9083, 111021.9
583.3904, 111093.5
583.8725, 111119.6
584.3546, 111057.2
584.8367, 110974.7
585.3188, 110939.1
585.8010, 110965.4
586.2831, 110998.8
586.7652, 111017.3
587.2473, 111029.5
587.7294, 111044.4
588.2115, 111092.7
588.6937, 111106.8
589.1758, 111051.9
589.6579, 110965.6
590.1400, 110953.5
590.6221, 111076.1
591.1042, 111133.8
591.5864, 111033.1
592.0685, 110799.5
592.5506, 110653.0
593.0327, 110599.8
593.5148, 110591.4
593.9969, 110623.2
594.4791, 110670.7
594.9612, 110647.4
595.4433, 110534.9
595.9254, 110409.2
596.4075, 110349.2
596.8896, 110323.6
597.3718, 110281.6
597.8539, 110195.0
598.3360, 110099.7
598.8181, 110007.6
599.3002, 109920.0
599.7823, 109838.3
600.2645, 109781.8
600.7466, 109710.1
601.2287, 109598.1
601.7108, 109439.5
602.1929, 109322.1
602.6750, 109256.4
603.1572, 109216.2
603.6393, 109188.6
604.1214, 109175.9
604.6035, 109156.0
605.0856, 109131.6
605.5677, 109086.0
606.0499, 108980.5
606.5320, 108828.6
607.0141, 108691.4
607.4962, 108606.3
607.9783, 108520.8
608.4604, 108360.0
608.9425, 108145.5
609.4246, 107951.8
609.9067, 107818.1
610.3889, 107710.7
610.8710, 107626.9
611.3531, 107568.8
611.8352, 107462.6
612.3173, 107243.0
612.7994, 107009.8
613.2816, 106823.5
613.7637, 106716.0
614.2458, 106594.5
614.7279, 106464.8
615.2100, 106318.5
615.6921, 106132.4
616.1743, 105900.4
616.6564, 105699.3
617.1385, 105546.5
617.6206, 105436.9
618.1027, 105382.1
618.5848, 105370.2
619.0670, 105331.7
619.5491, 105198.3
620.0312, 105036.0
620.5133, 104911.5
620.9954, 104824.5
621.4775, 104744.0
621.9597, 104655.0
622.4418, 104562.7
622.9239, 104470.0
623.4060, 104379.9
623.8881, 104280.0
624.3702, 104143.6
624.8524, 104011.7
625.3345, 103935.8
625.8166, 103962.5
626.2987, 103916.4
626.7808, 103737.5
627.2629, 103507.7
627.7451, 103443.9
628.2272, 103548.5
628.7093, 103632.4
629.1914, 103616.6
629.6735, 103524.6
630.1556, 103374.6
630.6378, 103178.2
631.1199, 103022.8
631.6020, 103011.7
632.0841, 103042.4
632.5662, 103005.5
633.0483, 102870.2
633.5305, 102784.3
634.0126, 102837.6
634.4947, 102948.5
634.9768, 103046.5
635.4589, 103109.5
635.9410, 103182.4
636.4232, 103279.8
636.9053, 103378.0
637.3874, 103427.0
637.8695, 103409.5
638.3516, 103414.9
638.8337, 103474.6
639.3159, 103565.9
639.7980, 103622.7
640.2801, 103648.7
640.7622, 103688.6
641.2443, 103778.2
641.7264, 103896.0
642.2086, 104020.1
642.6907, 104151.4
643.1728, 104274.5
643.6549, 104368.2
644.1370, 104462.9
644.6191, 104586.1
645.1013, 104753.1
645.5834, 104926.1
646.0655, 105110.4
646.5476, 105292.4
647.0297, 105447.9
647.5118, 105543.7
647.9940, 105691.5
648.4761, 105916.9
648.9582, 106185.8
649.4403, 106431.9
649.9224, 106649.2
650.4045, 106862.7
650.8867, 107093.8
651.3688, 107319.7
651.8509, 107502.7
652.3330, 107645.4
652.8151, 107755.7
653.2972, 107800.6
653.7794, 107843.8
654.2615, 107958.3
654.7436, 108163.9
655.2257, 108319.1
655.7078, 108283.9
656.1899, 108249.4
656.6721, 108367.7
657.1542, 108786.8
657.6363, 109084.8
658.1184, 109224.6
658.6005, 109284.8
659.0826, 109366.7
659.5648, 109471.2
660.0469, 109571.1
660.5290, 109661.8
661.0111, 109741.9
661.4932, 109790.9
661.9753, 109822.5
662.4575, 109889.7
662.9396, 110084.6
663.4217, 110284.8
663.9038, 110333.8
664.3859, 110266.1
664.8680, 110290.8
665.3502, 110621.8
665.8323, 110963.8
666.3144, 111145.5
666.7965, 111101.5
667.2786, 111117.1
667.7607, 111195.3
668.2429, 111320.3
668.7250, 111498.3
669.2071, 111742.2
669.6892, 111899.3
670.1713, 111942.5
670.6534, 111936.0
671.1355, 111972.9
671.6176, 112035.3
672.0997, 112061.5
672.5818, 112052.1
673.0640, 111975.7
673.5461, 111754.3
674.0282, 111450.9
674.5103, 111192.3
674.9924, 111095.3
675.4745, 110998.8
675.9567, 110821.3
676.4388, 110580.9
676.9209, 110420.4
677.4030, 110464.9
677.8851, 110428.0
678.3672, 110157.6
678.8494, 109652.5
679.3315, 109358.0
679.8136, 109315.8
680.2957, 109282.7
680.7778, 109025.3
681.2599, 108610.5
681.7421, 108300.5
682.2242, 108122.5
682.7063, 107945.4
683.1884, 107644.1
683.6705, 107272.7
684.1526, 106907.0
684.6348, 106606.6
685.1169, 106241.4
685.5990, 105719.2
686.0811, 105124.7
686.5632, 104584.9
687.0453, 104164.3
687.5275, 103721.1
688.0096, 103243.9
688.4917, 102738.8
688.9738, 102193.7
689.4559, 101610.5
689.9380, 100995.9
690.4202, 100317.3
690.9023, 99623.39
691.3844, 99081.10
691.8665, 98672.18
692.3486, 98241.28
692.8307, 97694.86
693.3129, 97070.79
693.7950, 96365.74
694.2771, 95575.27
694.7592, 94852.17
695.2413, 94336.64
695.7234, 93830.66
696.2056, 93194.20
696.6877, 92358.42
697.1698, 91584.84
697.6519, 90895.48
698.1340, 90241.39
698.6161, 89573.52
699.0983, 88893.60
699.5804, 88226.15
700.0625, 87585.41
700.5446, 86951.74
701.0267, 86306.75
701.5089, 85650.94
701.9910, 84983.85
702.4731, 84294.91
702.9552, 83607.26
703.4373, 82920.54
703.9194, 82248.38
704.4016, 81607.43
704.8837, 81049.97
705.3658, 80468.69
705.8479, 79797.87
706.3300, 79071.15
706.8121, 78464.42
707.2943, 78016.57
707.7764, 77574.91
708.2585, 77066.99
708.7406, 76501.20
709.2227, 75922.16
709.7048, 75328.84
710.1870, 74776.33
710.6691, 74342.99
711.1512, 73961.60
711.6333, 73529.88
712.1154, 73033.77
712.5975, 72522.99
713.0797, 71965.63
713.5618, 71431.70
714.0439, 70987.17
714.5260, 70696.75
715.0081, 70378.95
715.4902, 70027.89
715.9724, 69656.98
716.4545, 69278.16
716.9366, 68881.20
717.4187, 68537.32
717.9008, 68269.87
718.3829, 68017.88
718.8651, 67666.24
719.3472, 67248.91
719.8293, 66852.44
720.3114, 66529.01
720.7935, 66217.45
721.2756, 65852.55
721.7578, 65464.87
722.2399, 65134.28
722.7220, 64972.93
723.2041, 64773.99
723.6862, 64441.52
724.1683, 64008.54
724.6505, 63644.71
725.1326, 63368.43
725.6147, 63115.91
726.0968, 62873.88
726.5789, 62635.82
727.0610, 62353.68
727.5432, 62028.69
728.0253, 61722.85
728.5074, 61494.51
728.9895, 61303.82
729.4716, 61113.02
729.9537, 60918.85
730.4359, 60696.00
730.9180, 60400.11
731.4001, 60093.68
731.8822, 59816.88
732.3643, 59587.06
732.8464, 59360.30
733.3285, 59135.83
733.8106, 58914.45
734.2927, 58705.38
734.7748, 58513.64
735.2570, 58264.26
735.7391, 57936.44
736.2212, 57602.09
736.7033, 57352.58
737.1854, 57165.14
737.6675, 56991.18
738.1497, 56835.79
738.6318, 56657.14
739.1139, 56402.33
739.5960, 56115.15
740.0781, 55861.69
740.5602, 55689.30
741.0424, 55516.54
741.5245, 55328.20
742.0066, 55133.43
742.4887, 54962.17
742.9708, 54826.39
743.4529, 54655.48
743.9351, 54415.23
744.4172, 54135.64
744.8993, 53877.03
745.3814, 53640.65
745.8635, 53436.20
746.3456, 53289.39
746.8278, 53155.24
747.3099, 53007.81
747.7920, 52842.03
748.2741, 52641.10
748.7562, 52388.94
749.2383, 52110.47
749.7205, 51815.17
750.2026, 51503.30
750.6847, 51189.31
751.1668, 50873.47
751.6489, 50557.52
752.1310, 50231.68
752.6132, 49900.93
753.0953, 49605.37
753.5774, 49341.92
754.0595, 49112.48
754.5416, 48939.72
755.0237, 48782.36
755.5059, 48583.05
755.9880, 48329.67
756.4701, 48074.25
756.9522, 47847.40
757.4343, 47619.68
757.9164, 47367.33
758.3986, 47086.11
758.8807, 46790.66
759.3628, 46480.79
759.8449, 46162.94
760.3270, 45839.89
760.8091, 45516.75
761.2913, 45235.04
761.7734, 45016.59
762.2555, 44799.46
762.7376, 44500.62
763.2197, 44160.35
763.7018, 43844.47
764.1840, 43588.70
764.6661, 43330.14
765.1482, 43043.04
765.6303, 42740.81
766.1124, 42443.84
766.5945, 42131.15
767.0767, 41858.39
767.5588, 41652.38
768.0409, 41465.17
768.5230, 41183.23
769.0051, 40811.98
769.4872, 40485.50
769.9694, 40262.51
770.4515, 40067.83
770.9336, 39799.48
771.4157, 39474.86
771.8978, 39137.52
772.3799, 38790.54
772.8621, 38452.77
773.3442, 38137.35
773.8263, 37838.07
774.3084, 37528.71
774.7905, 37207.92
775.2726, 36880.02
775.7548, 36538.64
776.2369, 36193.02
776.7190, 35893.65
777.2011, 35638.52
777.6832, 35387.65
778.1653, 35124.22
778.6475, 34847.37
779.1296, 34541.77
779.6117, 34215.83
780.0938, 33909.57
780.5759, 33686.27
781.0580, 33455.95
781.5402, 33158.36
782.0223, 32789.58
782.5044, 32469.19
782.9865, 32225.10
783.4686, 31986.62
783.9507, 31719.58
784.4329, 31430.90
784.9150, 31143.65
785.3971, 30856.89
785.8792, 30575.52
786.3613, 30302.35
786.8434, 30033.41
787.3256, 29761.50
787.8077, 29488.24
788.2898, 29231.04
788.7719, 29027.98
789.2540, 28823.27
789.7361, 28578.45
790.2183, 28277.95
790.7004, 28001.90
791.1825, 27748.00
791.6646, 27516.36
792.1467, 27316.58
792.6288, 27144.26
793.1110, 26947.53
793.5930, 26725.13
794.0751, 26489.35
794.5573, 26251.06
795.0394, 26007.09
795.5215, 25757.79
796.0036, 25501.06
796.4857, 25250.64
796.9678, 25011.72
797.4500, 24785.93
797.9321, 24573.02
798.4142, 24380.80
798.8963, 24184.17
799.3784, 23981.11
799.8605, 23773.82
800.3427, 23556.04
800.8248, 23332.69
801.3069, 23124.65
801.7890, 22937.60
802.2711, 22749.48
802.7532, 22525.68
803.2354, 22297.91
803.7175, 22099.97
804.1996, 21956.99
804.6817, 21804.02
805.1638, 21615.08
805.6459, 21417.89
806.1281, 21235.49
806.6102, 21070.48
807.0923, 20908.39
807.5744, 20748.37
808.0565, 20588.59
808.5386, 20428.87
809.0208, 20266.97
809.5029, 20097.63
809.9850, 19914.35
810.4671, 19741.14
810.9492, 19609.87
811.4313, 19491.59
811.9135, 19353.70
812.3956, 19158.49
812.8777, 18991.63
813.3598, 18873.16
813.8419, 18768.81
814.3240, 18635.01
814.8062, 18470.12
815.2883, 18314.20
815.7704, 18175.03
816.2525, 18043.44
816.7346, 17913.42
817.2167, 17782.34
817.6989, 17643.75
818.1810, 17493.28
818.6631, 17343.96
819.1452, 17197.27
819.6273, 17055.90
820.1094, 16926.85
820.5916, 16827.09
821.0737, 16701.25
821.5558, 16533.10
822.0379, 16358.16
822.5200, 16238.75
823.0021, 16167.64
823.4843, 16076.86
823.9664, 15945.93
824.4485, 15816.64
824.9306, 15749.13
825.4127, 15706.51
825.8948, 15631.80
826.3770, 15476.97
826.8591, 15336.59
827.3412, 15247.28
827.8233, 15175.86
828.3054, 15087.35
828.7875, 14977.23
829.2697, 14861.95
829.7518, 14737.74
830.2339, 14620.09
830.7160, 14540.20
831.1981, 14482.45
831.6802, 14397.13
832.1624, 14260.42
832.6445, 14120.71
833.1266, 14007.86
833.6087, 13912.75
834.0908, 13823.83
834.5729, 13749.49
835.0551, 13665.55
835.5372, 13562.32
836.0193, 13459.74
836.5014, 13392.90
836.9835, 13360.75
837.4656, 13299.17
837.9478, 13190.82
838.4299, 13078.13
838.9120, 13023.92
839.3941, 12993.24
839.8762, 12925.36
840.3583, 12777.81
840.8405, 12644.03
841.3226, 12564.11
841.8047, 12510.75
842.2868, 12455.06
842.7689, 12396.71
843.2510, 12334.16
843.7332, 12265.46
844.2153, 12196.45
844.6974, 12137.51
845.1795, 12084.49
845.6616, 12024.07
846.1437, 11951.88
846.6259, 11877.44
847.1080, 11808.20
847.5901, 11740.22
848.0722, 11668.37
848.5543, 11582.49
849.0364, 11512.98
849.5186, 11475.80
850.0007, 11436.46
850.4828, 11350.22
850.9649, 11217.59
851.4470, 11119.12
851.9291, 11066.43
852.4113, 11028.24
852.8934, 10977.01
853.3755, 10918.60
853.8576, 10861.28
854.3397, 10808.61
854.8218, 10751.89
855.3040, 10676.87
855.7860, 10604.87
856.2681, 10554.65
856.7502, 10535.40
857.2324, 10503.62
857.7145, 10457.46
858.1966, 10405.66
858.6787, 10349.81
859.1608, 10295.67
859.6429, 10262.66
860.1251, 10254.63
860.6072, 10238.01
861.0893, 10187.45
861.5714, 10122.00
862.0535, 10051.19
862.5356, 9969.934
863.0178, 9914.457
863.4999, 9897.847
863.9820, 9885.603
864.4641, 9856.495
864.9462, 9811.125
865.4283, 9756.915
865.9105, 9694.290
866.3926, 9627.123
866.8747, 9546.024
867.3568, 9470.639
867.8389, 9429.772
868.3210, 9425.558
868.8032, 9410.479
869.2853, 9373.256
869.7674, 9321.723
870.2495, 9249.575
870.7316, 9159.216
871.2137, 9109.745
871.6959, 9104.032
872.1780, 9105.288
872.6601, 9101.878
873.1422, 9085.214
873.6243, 9033.496
874.1064, 8951.921
874.5886, 8872.845
875.0707, 8795.161
875.5528, 8738.899
876.0349, 8723.288
876.5170, 8739.450
876.9991, 8743.810
877.4813, 8736.117
877.9634, 8716.286
878.4455, 8679.722
878.9276, 8634.342
879.4097, 8603.842
879.8918, 8583.211
880.3740, 8553.324
880.8561, 8493.988
881.3382, 8433.320
881.8203, 8385.311
882.3024, 8348.532
882.7845, 8317.776
883.2667, 8296.210
883.7488, 8274.001
884.2309, 8250.774
884.7130, 8224.041
885.1951, 8181.756
885.6772, 8128.584
886.1594, 8091.675
886.6415, 8091.691
887.1236, 8091.042
887.6057, 8052.229
888.0878, 7992.940
888.5699, 7941.741
889.0521, 7903.986
889.5342, 7877.569
890.0163, 7868.875
890.4984, 7864.644
890.9805, 7844.662
891.4626, 7809.516
891.9448, 7778.284
892.4269, 7753.619
892.9090, 7735.928
893.3911, 7734.615
893.8732, 7736.671
894.3553, 7723.808
894.8375, 7687.101
895.3196, 7647.998
895.8017, 7604.547
896.2838, 7565.416
896.7659, 7539.012
897.2480, 7528.340
897.7302, 7505.928
898.2123, 7470.305
898.6944, 7433.687
899.1765, 7413.106
899.6586, 7396.691
900.1407, 7364.729
900.6229, 7315.054
901.1050, 7268.606
901.5871, 7232.624
902.0692, 7203.710
902.5513, 7180.913
903.0334, 7164.518
903.5156, 7142.880
903.9977, 7115.947
904.4798, 7082.419
904.9619, 7031.542
905.4440, 6977.086
905.9261, 6950.689
906.4083, 6947.745
906.8904, 6945.980
907.3725, 6933.972
907.8546, 6920.865
908.3367, 6911.841
908.8188, 6905.333
909.3010, 6896.175
909.7831, 6885.786
910.2652, 6867.557
910.7473, 6839.017
911.2294, 6802.347
911.7115, 6753.143
912.1937, 6698.325
912.6758, 6658.506
913.1579, 6648.471
913.6400, 6647.785
914.1221, 6656.770
914.6042, 6665.657
915.0864, 6657.477
915.5685, 6625.229
916.0506, 6593.156
916.5327, 6562.346
917.0148, 6535.577
917.4969, 6519.720
917.9790, 6510.716
918.4611, 6495.423
918.9432, 6469.911
919.4254, 6445.313
919.9075, 6429.607
920.3896, 6417.716
920.8717, 6405.140
921.3538, 6390.771
921.8359, 6377.875
922.3181, 6367.790
922.8002, 6355.261
923.2823, 6334.314
923.7644, 6306.879
924.2465, 6280.613
924.7286, 6255.617
925.2108, 6235.039
925.6929, 6217.316
926.1750, 6207.710
926.6571, 6222.927
927.1392, 6261.629
927.6213, 6245.990
928.1035, 6144.085
928.5856, 6063.258
929.0677, 6054.005
929.5498, 6090.687
930.0319, 6101.000
930.5140, 6088.387
930.9962, 6068.933
931.4783, 6045.989
931.9604, 6023.567
932.4425, 6003.508
932.9246, 5985.556
933.4067, 5968.997
933.8889, 5957.605
934.3710, 5938.854
934.8531, 5909.250
935.3352, 5874.544
935.8173, 5837.617
936.2994, 5803.370
936.7816, 5797.334
937.2637, 5834.978
937.7458, 5864.216
938.2279, 5837.949
938.7100, 5791.443
939.1921, 5761.480
939.6743, 5761.041
940.1564, 5749.353
940.6385, 5720.819
941.1206, 5694.366
941.6027, 5691.039
942.0848, 5702.530
942.5670, 5697.690
943.0491, 5675.850
943.5312, 5648.734
944.0133, 5619.706
944.4954, 5591.750
944.9775, 5567.055
945.4597, 5545.558
945.9418, 5524.564
946.4239, 5502.103
946.9060, 5485.946
947.3881, 5481.254
947.8702, 5482.646
948.3524, 5479.894
948.8345, 5472.220
949.3166, 5456.852
949.7987, 5420.832
950.2808, 5389.123
950.7629, 5383.040
951.2451, 5386.850
951.7272, 5370.468
952.2093, 5323.796
952.6914, 5285.083
953.1735, 5257.982
953.6556, 5241.263
954.1378, 5240.554
954.6199, 5247.897
955.1020, 5244.804
955.5841, 5226.820
956.0662, 5204.776
956.5483, 5178.154
957.0305, 5154.387
957.5126, 5141.476
957.9947, 5142.536
958.4768, 5128.467
958.9589, 5096.344
959.4410, 5064.247
959.9232, 5045.043
960.4053, 5034.100
960.8874, 5024.994
961.3695, 5016.550
961.8516, 5003.881
962.3337, 4977.497
962.8159, 4954.382
963.2980, 4941.086
963.7801, 4935.638
964.2622, 4935.863
964.7443, 4943.651
965.2264, 4938.340
965.7086, 4910.036
966.1907, 4876.109
966.6728, 4865.684
967.1549, 4863.919
967.6370, 4843.311
968.1191, 4776.058
968.6013, 4728.649
969.0834, 4729.312
969.5655, 4741.223
970.0476, 4734.601
970.5297, 4708.960
971.0118, 4677.826
971.4940, 4641.282
971.9761, 4607.688
972.4582, 4577.879
972.9403, 4558.520
973.4224, 4563.551
973.9045, 4592.736
974.3867, 4605.196
974.8688, 4587.931
975.3509, 4560.180
975.8330, 4521.282
976.3151, 4479.027
976.7972, 4471.337
977.2794, 4492.820
977.7615, 4503.653
978.2436, 4483.471
978.7257, 4450.309
979.2078, 4401.449
979.6899, 4353.764
980.1720, 4338.634
980.6541, 4396.130
981.1362, 4412.354
981.6183, 4369.301
982.1005, 4307.985
982.5826, 4272.644
983.0647, 4258.859
983.5468, 4258.817
984.0289, 4272.777
984.5110, 4276.172
984.9932, 4244.452
985.4753, 4204.463
985.9574, 4174.079
986.4395, 4153.701
986.9216, 4135.518
987.4037, 4118.785
987.8859, 4108.004
988.3680, 4111.864
988.8501, 4117.984
989.3322, 4095.362
989.8143, 4054.595
990.2964, 4025.954
990.7786, 4044.165
991.2607, 4049.771
991.7428, 4012.151
992.2249, 3960.891
992.7070, 3939.327
993.1891, 3950.023
993.6713, 3954.135
994.1534, 3946.337
994.6355, 3933.980
995.1176, 3924.058
995.5997, 3914.276
996.0818, 3901.777
996.5640, 3885.869
997.0461, 3868.307
997.5282, 3842.846
998.0103, 3825.888
998.4924, 3830.846
998.9745, 3851.085
999.4567, 3845.362
999.9388, 3817.030
1000.421, 3792.821
1000.903, 3795.183
1001.385, 3798.638
1001.867, 3783.921
1002.349, 3757.592
1002.831, 3735.645
1003.314, 3720.617
1003.796, 3707.790
1004.278, 3700.186
1004.760, 3685.638
1005.242, 3633.049
1005.724, 3563.838
1006.206, 3530.814
1006.688, 3546.720
1007.171, 3565.325
1007.653, 3566.720
1008.135, 3562.286
1008.617, 3559.773
1009.099, 3559.066
1009.581, 3551.483
1010.063, 3536.569
1010.545, 3519.076
1011.027, 3499.842
1011.510, 3480.622
1011.992, 3463.450
1012.474, 3448.265
1012.956, 3435.008
1013.438, 3423.905
1013.920, 3414.304
1014.402, 3406.643
1014.884, 3399.827
1015.367, 3391.694
1015.849, 3382.805
1016.331, 3378.388
1016.813, 3379.886
1017.295, 3377.078
1017.777, 3356.675
1018.259, 3333.129
1018.741, 3319.364
1019.223, 3316.953
1019.706, 3307.617
1020.188, 3289.096
1020.670, 3271.651
1021.152, 3261.272
1021.634, 3253.828
1022.116, 3239.711
1022.598, 3221.434
1023.080, 3205.854
1023.563, 3192.140
1024.045, 3186.217
1024.527, 3196.494
1025.009, 3209.970
1025.491, 3212.328
1025.973, 3203.421
1026.455, 3185.617
1026.937, 3157.886
1027.419, 3135.369
1027.901, 3142.605
1028.384, 3154.211
1028.866, 3141.041
1029.348, 3100.944
1029.830, 3076.143
1030.312, 3075.026
1030.794, 3078.317
1031.276, 3083.013
1031.758, 3084.538
1032.241, 3065.417
1032.723, 3032.819
1033.205, 3009.750
1033.687, 3014.067
1034.169, 3013.848
1034.651, 2981.640
1035.133, 2946.416
1035.615, 2941.014
1036.098, 2972.870
1036.580, 2991.292
1037.062, 2994.629
1037.544, 2988.440
1038.026, 2966.276
1038.508, 2944.281
1038.990, 2948.055
1039.472, 2973.733
1039.954, 2983.314
1040.437, 2960.449
1040.919, 2933.939
1041.401, 2907.378
1041.883, 2883.758
1042.365, 2870.633
1042.847, 2865.886
1043.329, 2861.929
1043.811, 2858.960
1044.293, 2849.246
1044.776, 2816.548
1045.258, 2783.853
1045.740, 2773.252
1046.222, 2788.137
1046.704, 2794.929
1047.186, 2792.708
1047.668, 2788.967
1048.150, 2790.711
1048.633, 2792.171
1049.115, 2782.608
1049.597, 2766.086
1050.079, 2755.347
1050.561, 2764.194
1051.043, 2764.303
1051.525, 2748.408
1052.007, 2727.636
1052.490, 2717.360
1052.972, 2716.395
1053.454, 2723.045
1053.936, 2738.160
1054.418, 2745.329
1054.900, 2726.219
1055.382, 2701.842
1055.864, 2683.774
1056.346, 2672.351
1056.828, 2676.651
1057.311, 2699.799
1057.793, 2708.701
1058.275, 2681.632
1058.757, 2644.291
1059.239, 2629.896
1059.721, 2628.840
1060.203, 2624.265
1060.685, 2601.244
1061.168, 2592.951
1061.650, 2608.332
1062.132, 2625.447
1062.614, 2622.870
1063.096, 2605.095
1063.578, 2588.897
1064.060, 2574.800
1064.542, 2558.558
1065.025, 2528.722
1065.507, 2505.378
1065.989, 2504.333
1066.471, 2516.427
1066.953, 2520.241
1067.435, 2515.119
1067.917, 2510.865
1068.399, 2509.939
1068.881, 2509.215
1069.364, 2504.859
1069.846, 2498.990
1070.328, 2493.931
1070.810, 2489.997
1071.292, 2486.978
1071.774, 2485.120
1072.256, 2483.274
1072.738, 2480.806
1073.220, 2477.820
1073.703, 2476.870
1074.185, 2475.997
1074.667, 2469.076
1075.149, 2444.549
1075.631, 2424.750
1076.113, 2419.333
1076.595, 2419.198
1077.077, 2414.556
1077.559, 2405.545
1078.042, 2399.072
1078.524, 2395.691
1079.006, 2393.405
1079.488, 2394.259
1079.970, 2392.674
1080.452, 2378.738
1080.934, 2355.943
1081.416, 2353.889
1081.899, 2380.842
1082.381, 2397.870
1082.863, 2394.206
1083.345, 2377.808
1083.827, 2350.799
1084.309, 2322.616
1084.791, 2308.521
1085.273, 2314.533
1085.755, 2325.816
1086.238, 2348.870
1086.720, 2362.434
1087.202, 2349.198
1087.684, 2317.668
1088.166, 2308.174
1088.648, 2316.933
1089.130, 2323.708
1089.612, 2322.263
1090.094, 2312.150
1090.577, 2279.161
1091.059, 2245.139
1091.541, 2244.920
1092.023, 2285.192
1092.505, 2288.723
1092.987, 2248.008
1093.469, 2211.232
1093.951, 2232.895
1094.434, 2266.907
1094.916, 2267.118
1095.398, 2235.557
1095.880, 2212.984
1096.362, 2199.764
1096.844, 2202.663
1097.326, 2228.990
1097.808, 2258.942
1098.291, 2260.000
1098.773, 2242.696
1099.255, 2226.298
1099.737, 2214.255
1100.219, 2204.151
1100.701, 2194.746
1101.183, 2188.278
1101.665, 2188.193
1102.147, 2191.526
1102.630, 2179.911
1103.112, 2157.400
1103.594, 2143.869
1104.076, 2157.060
1104.558, 2169.309
1105.040, 2163.603
1105.522, 2151.572
1106.004, 2147.339
1106.486, 2152.286
1106.969, 2153.889
1107.451, 2151.857
1107.933, 2145.723
1108.415, 2132.474
1108.897, 2117.250
1109.379, 2101.734
1109.861, 2088.178
1110.343, 2085.487
1110.826, 2099.451
1111.308, 2106.631
1111.790, 2102.000
1112.272, 2093.307
1112.754, 2087.828
1113.236, 2085.907
1113.718, 2091.107
1114.200, 2104.872
1114.682, 2107.539
1115.165, 2088.961
1115.647, 2068.071
1116.129, 2050.114
1116.611, 2035.616
1117.093, 2028.580
1117.575, 2026.389
1118.057, 2019.140
1118.539, 1997.302
1119.021, 1985.568
1119.504, 2006.478
1119.986, 2030.916
1120.468, 2037.688
1120.950, 2027.138
1121.432, 2021.419
1121.914, 2020.349
1122.396, 2020.254
1122.878, 2021.208
1123.361, 2020.220
1123.843, 2016.236
1124.325, 2008.469
1124.807, 1994.209
1125.289, 1969.916
1125.771, 1958.348
1126.253, 1961.724
1126.735, 1972.264
1127.218, 1987.451
1127.700, 2002.863
1128.182, 2017.759
1128.664, 2029.757
1129.146, 2022.849
1129.628, 1984.089
1130.110, 1961.508
1130.592, 1969.599
1131.074, 1985.946
1131.557, 1974.856
1132.039, 1949.974
1132.521, 1936.913
1133.003, 1941.142
1133.485, 1941.942
1133.967, 1927.602
1134.449, 1921.352
1134.931, 1937.163
1135.413, 1963.322
1135.896, 1965.520
1136.378, 1949.531
1136.860, 1932.326
1137.342, 1918.979
1137.824, 1906.693
1138.306, 1889.398
1138.788, 1877.786
1139.270, 1882.054
1139.752, 1900.540
1140.235, 1908.957
1140.717, 1907.840
1141.199, 1902.133
1141.681, 1887.791
1142.163, 1877.056
1142.645, 1885.055
1143.127, 1896.363
1143.609, 1885.487
1144.092, 1848.623
1144.574, 1830.794
1145.056, 1835.180
1145.538, 1840.650
1146.020, 1828.471
1146.502, 1811.990
1146.984, 1800.429
1147.466, 1794.640
1147.948, 1794.838
1148.431, 1802.569
1148.913, 1809.823
1149.395, 1815.575
1149.877, 1819.367
1150.359, 1821.536
1150.841, 1820.866
1151.323, 1813.450
1151.805, 1798.720
1152.287, 1793.669
1152.770, 1805.379
1153.252, 1807.901
1153.734, 1788.661
1154.216, 1763.734
1154.698, 1761.142
1155.180, 1772.173
1155.662, 1784.513
1156.144, 1800.176
1156.627, 1796.277
1157.109, 1756.828
1157.591, 1726.427
1158.073, 1735.013
1158.555, 1764.844
1159.037, 1769.536
1159.519, 1755.239
1160.001, 1738.397
1160.484, 1716.027
1160.966, 1708.150
1161.448, 1731.229
1161.930, 1753.073
1162.412, 1742.784
1162.894, 1708.259
1163.376, 1696.718
1163.858, 1704.742
1164.340, 1709.901
1164.823, 1698.334
1165.305, 1684.641
1165.787, 1669.752
1166.269, 1658.785
1166.751, 1662.746
1167.233, 1679.227
1167.715, 1678.804
1168.197, 1659.939
1168.679, 1643.031
1169.162, 1640.909
1169.644, 1645.038
1170.126, 1654.606
1170.608, 1665.698
1171.090, 1671.948
1171.572, 1673.190
1172.054, 1660.359
1172.536, 1629.670
1173.019, 1606.115
1173.501, 1619.311
1173.983, 1638.836
1174.465, 1639.837
1174.947, 1625.727
1175.429, 1614.726
1175.911, 1606.720
1176.393, 1607.283
1176.875, 1620.332
1177.358, 1634.355
1177.840, 1639.056
1178.322, 1638.599
1178.804, 1636.987
1179.286, 1634.688
1179.768, 1628.694
1180.250, 1618.988
1180.732, 1606.051
1181.214, 1587.379
1181.697, 1570.571
1182.179, 1562.806
1182.661, 1562.568
1183.143, 1569.459
1183.625, 1587.375
1184.107, 1594.951
1184.589, 1591.022
1185.071, 1583.072
1185.554, 1574.262
1186.036, 1565.215
1186.518, 1555.201
1187.000, 1545.987
1187.482, 1541.674
1187.964, 1545.972
1188.446, 1547.146
1188.928, 1543.946
1189.411, 1542.030
1189.893, 1553.102
1190.375, 1563.702
1190.857, 1546.732
1191.339, 1512.094
1191.821, 1494.286
1192.303, 1508.320
1192.785, 1521.273
1193.267, 1531.536
1193.750, 1536.650
1194.232, 1528.322
1194.714, 1516.281
1195.196, 1520.053
1195.678, 1536.904
1196.160, 1540.299
1196.642, 1518.395
1197.124, 1494.625
1197.606, 1469.552
1198.089, 1451.445
1198.571, 1458.076
1199.053, 1476.444
1199.535, 1484.458
1200.017, 1479.912
1200.499, 1477.052
1200.981, 1480.153
1201.463, 1481.900
1201.945, 1479.402
1202.428, 1476.734
1202.910, 1482.991
1203.392, 1493.068
1203.874, 1498.192
1204.356, 1496.841
1204.838, 1489.787
1205.320, 1469.962
1205.802, 1460.080
1206.285, 1474.163
1206.767, 1494.266
1207.249, 1477.151
1207.731, 1440.613
1208.213, 1421.731
1208.695, 1435.383
1209.177, 1442.704
1209.659, 1433.047
1210.141, 1426.365
1210.624, 1435.303
1211.106, 1450.779
1211.588, 1452.691
1212.070, 1444.400
1212.552, 1432.558
1213.034, 1414.005
1213.516, 1406.136
1213.998, 1416.854
1214.480, 1425.267
1214.963, 1413.066
1215.445, 1392.233
1215.927, 1398.353
1216.409, 1421.414
1216.891, 1435.694
1217.373, 1430.211
1217.855, 1417.518
1218.337, 1394.474
1218.820, 1373.826
1219.302, 1368.296
1219.784, 1371.535
1220.266, 1366.561
1220.748, 1356.239
1221.230, 1349.802
1221.712, 1353.468
1222.194, 1357.265
1222.677, 1361.000
1223.159, 1363.073
1223.641, 1360.017
1224.123, 1354.960
1224.605, 1356.607
1225.087, 1362.906
1225.569, 1364.487
1226.051, 1351.283
1226.533, 1344.288
1227.016, 1348.730
1227.498, 1352.826
1227.980, 1341.038
1228.462, 1320.973
1228.944, 1304.962
1229.426, 1293.967
1229.908, 1288.691
1230.390, 1292.401
1230.872, 1297.045
1231.355, 1302.051
1231.837, 1306.346
1232.319, 1307.619
1232.801, 1307.698
1233.283, 1312.192
1233.765, 1320.172
1234.247, 1317.573
1234.729, 1295.429
1235.212, 1277.846
1235.694, 1269.915
1236.176, 1266.039
1236.658, 1256.322
1237.140, 1247.291
1237.622, 1252.092
1238.104, 1271.043
1238.586, 1279.508
1239.068, 1271.250
1239.551, 1264.387
1240.033, 1262.521
1240.515, 1265.559
1240.997, 1280.235
1241.479, 1295.844
1241.961, 1297.241
1242.443, 1282.248
1242.925, 1265.514
1243.407, 1245.725
1243.890, 1232.741
1244.372, 1230.196
1244.854, 1233.475
1245.336, 1240.248
1245.818, 1247.306
1246.300, 1251.130
1246.782, 1251.027
1247.264, 1245.418
1247.747, 1232.210
1248.229, 1226.859
1248.711, 1238.140
1249.193, 1249.367
1249.675, 1238.515
1250.157, 1219.942
1250.639, 1209.832
1251.121, 1209.458
1251.604, 1210.283
1252.086, 1212.870
1252.568, 1209.183
1253.050, 1193.261
1253.532, 1177.814
1254.014, 1176.905
1254.496, 1181.436
1254.978, 1181.855
1255.460, 1177.958
1255.943, 1175.075
1256.425, 1173.178
1256.907, 1173.648
1257.389, 1179.057
1257.871, 1182.428
1258.353, 1177.093
1258.835, 1168.153
1259.317, 1159.953
1259.799, 1152.575
1260.281, 1146.646
1260.764, 1142.415
1261.246, 1143.350
1261.728, 1157.161
1262.210, 1164.277
1262.692, 1144.509
1263.174, 1122.407
1263.656, 1118.519
1264.138, 1129.686
1264.621, 1129.665
1265.103, 1120.915
1265.585, 1115.831
1266.067, 1122.932
1266.549, 1128.770
1267.031, 1125.795
1267.513, 1123.192
1267.995, 1130.612
1268.478, 1142.909
1268.960, 1129.475
1269.442, 1100.155
1269.924, 1090.637
1270.406, 1137.763
1270.888, 1165.173
1271.370, 1155.602
1271.852, 1135.993
1272.334, 1122.591
1272.817, 1114.753
1273.299, 1112.430
1273.781, 1113.868
1274.263, 1114.406
1274.745, 1108.995
1275.227, 1110.077
1275.709, 1121.496
1276.191, 1129.853
1276.673, 1118.673
1277.156, 1102.737
1277.638, 1112.661
1278.120, 1136.094
1278.602, 1145.484
1279.084, 1130.609
1279.566, 1111.641
1280.048, 1086.621
1280.530, 1068.242
1281.013, 1073.359
1281.495, 1082.687
1281.977, 1068.689
1282.459, 1046.049
1282.941, 1044.619
1283.423, 1072.461
1283.905, 1088.938
1284.387, 1093.458
1284.870, 1090.032
1285.352, 1072.925
1285.834, 1057.979
1286.316, 1058.809
1286.798, 1067.654
1287.280, 1073.703
1287.762, 1077.051
1288.244, 1073.260
1288.726, 1063.085
1289.208, 1055.974
1289.691, 1062.683
1290.173, 1067.733
1290.655, 1063.682
1291.137, 1054.969
1291.619, 1040.679
1292.101, 1023.811
1292.583, 1033.714
1293.065, 1064.533
1293.548, 1081.980
1294.030, 1051.118
1294.512, 1032.565
1294.994, 1042.773
1295.476, 1058.615
1295.958, 1057.916
1296.440, 1046.436
1296.922, 1039.360
1297.405, 1037.164
1297.887, 1033.733
1298.369, 1019.517
1298.851, 1009.838
1299.333, 1005.828
1299.815, 1004.578
1300.297, 1004.167
1300.779, 1004.596
##END=



