##NAMES=Tyrolite
##RRUFFID=R060264
##IDEAL CHEMISTRY=Ca_2_Cu^2+^_9_(As^5+^O_4_)_4_(CO_3_)(OH)_8_&#183;11H_2_O
##LOCALITY=Lovelock mine, Bolivia, Cottonwood Canyon, Churchill County, Nevada, USA
##OWNER=RRUFF
##SOURCE=Michael Scott
##DESCRIPTION=Greenish-blue flat bladed crystals in radial aggregates
##STATUS=The identification of this mineral has been confirmed by single-crystal X-ray diffraction.
##URL=rruff.info/R060264
158.0653, 0.0000000E+00
158.5474, 1.328457
159.0295, 5.891151
159.5117, 8.653259
159.9938, 4.300930
160.4759, 0.5296480
160.9580, 0.2741430
161.4401, 1.377655
161.9222, 3.799366
162.4044, 5.523174
162.8865, 6.419113
163.3686, 7.391083
163.8507, 9.464874
164.3328, 10.76568
164.8149, 9.804527
165.2971, 6.894012
165.7792, 3.820526
166.2613, 2.726467
166.7434, 4.559326
167.2255, 5.769169
167.7076, 6.185257
168.1898, 6.206318
168.6719, 5.955612
169.1540, 5.504543
169.6361, 5.092258
170.1182, 5.089539
170.6003, 5.708607
171.0825, 6.248783
171.5646, 6.943260
172.0467, 7.445633
172.5288, 7.178169
173.0109, 5.890862
173.4930, 4.316490
173.9752, 3.805443
174.4573, 4.485031
174.9394, 4.928879
175.4215, 4.036572
175.9036, 2.613464
176.3857, 2.773373
176.8679, 5.879494
177.3500, 9.569149
177.8321, 10.53882
178.3142, 8.636890
178.7963, 6.443985
179.2784, 5.578186
179.7606, 5.862734
180.2427, 5.911526
180.7248, 5.193329
181.2069, 4.283157
181.6890, 3.607311
182.1711, 4.042681
182.6533, 4.231358
183.1354, 3.524014
183.6175, 2.288935
184.0996, 1.908760
184.5817, 3.399885
185.0638, 5.461540
185.5460, 7.709501
186.0281, 10.01319
186.5102, 11.84931
186.9923, 12.29205
187.4744, 10.97855
187.9565, 9.248447
188.4387, 6.129284
188.9208, 3.481155
189.4029, 2.760900
189.8850, 4.490360
190.3671, 7.334518
190.8492, 8.715904
191.3314, 7.346687
191.8135, 6.517128
192.2956, 7.190443
192.7777, 8.056671
193.2598, 7.550064
193.7419, 5.118370
194.2241, 1.981434
194.7062, 1.087610
195.1883, 6.536324
195.6704, 9.526276
196.1525, 7.611479
196.6346, 3.872158
197.1168, 2.163988
197.5989, 4.246218
198.0810, 8.556190
198.5631, 10.53415
199.0452, 8.407541
199.5273, 6.481533
200.0095, 5.169081
200.4916, 4.522089
200.9737, 4.977119
201.4558, 7.063059
201.9379, 9.696312
202.4200, 9.474035
202.9022, 4.737654
203.3843, 0.6817550
203.8664, 9.4081998E-02
204.3485, 1.334206
204.8306, 1.982029
205.3127, 0.4650880
205.7949, 2.054970
206.2770, 3.061249
206.7591, 2.329763
207.2412, 0.8122620
207.7233, 1.468700
208.2054, 4.322342
208.6876, 6.480438
209.1697, 7.229418
209.6518, 7.095890
210.1339, 6.894434
210.6160, 6.558958
211.0981, 6.424303
211.5803, 6.993065
212.0624, 8.270088
212.5445, 9.185184
213.0266, 9.647738
213.5087, 9.294312
213.9908, 7.360662
214.4730, 3.352413
214.9551, 0.1290210
215.4372, 0.7109030
215.9193, 6.868256
216.4014, 11.26756
216.8836, 10.61692
217.3657, 8.109697
217.8478, 5.273554
218.3299, 2.450714
218.8120, 0.1732690
219.2941, 0.6916620
219.7763, 2.2012999E-02
220.2584, 1.538412
220.7405, 5.188374
221.2226, 8.653055
221.7047, 10.00508
222.1868, 8.785694
222.6690, 6.476715
223.1511, 5.393002
223.6332, 5.952946
224.1153, 6.865393
224.5974, 9.012234
225.0795, 10.78825
225.5617, 10.69480
226.0438, 8.418089
226.5259, 5.195507
227.0080, 3.125830
227.4901, 2.553131
227.9722, 2.691532
228.4544, 3.957977
228.9365, 5.531769
229.4186, 6.942986
229.9007, 8.001783
230.3828, 8.589035
230.8649, 8.417210
231.3471, 6.468010
231.8292, 5.417427
232.3113, 6.368923
232.7934, 7.504124
233.2755, 6.820005
233.7576, 3.922739
234.2398, 0.6324540
234.7219, 9.1624998E-02
235.2040, 4.997826
235.6861, 7.908730
236.1682, 7.270931
236.6503, 5.530260
237.1325, 5.015287
237.6146, 6.311914
238.0967, 8.196869
238.5788, 8.905285
239.0609, 7.695620
239.5430, 6.581171
240.0252, 5.386482
240.5073, 4.451305
240.9894, 4.306931
241.4715, 5.071238
241.9536, 5.997187
242.4357, 6.048466
242.9179, 5.015034
243.4000, 3.999031
243.8821, 2.856052
244.3642, 1.892969
244.8463, 1.422173
245.3284, 1.503332
245.8106, 2.087854
246.2927, 3.356562
246.7748, 5.354210
247.2569, 6.898823
247.7390, 8.352905
248.2211, 9.037373
248.7033, 7.429859
249.1854, 2.979935
249.6675, 1.237862
250.1496, 1.558170
250.6317, 1.427099
251.1138, 4.036106
251.5960, 5.553478
252.0781, 6.283802
252.5602, 6.538214
253.0423, 6.306072
253.5244, 5.821218
254.0065, 5.020981
254.4887, 4.083668
254.9708, 3.573181
255.4529, 3.735407
255.9350, 4.363659
256.4171, 5.195677
256.8992, 6.226643
257.3813, 7.448406
257.8635, 9.672132
258.3456, 12.03692
258.8277, 12.85149
259.3098, 10.73095
259.7919, 7.331631
260.2740, 4.924419
260.7562, 3.725641
261.2383, 3.102972
261.7204, 2.564791
262.2025, 2.494631
262.6846, 3.470951
263.1667, 6.341558
263.6489, 9.360428
264.1310, 10.06741
264.6131, 8.059713
265.0952, 6.123190
265.5773, 5.923346
266.0594, 6.129459
266.5416, 5.327293
267.0237, 2.806269
267.5058, 6.0589001E-02
267.9879, 0.7619230
268.4700, 0.7186510
268.9521, 2.383577
269.4343, 4.277727
269.9164, 5.664850
270.3985, 5.574797
270.8806, 3.660286
271.3627, 1.402370
271.8448, 0.8960690
272.3270, 2.600983
272.8091, 3.625626
273.2912, 1.802019
273.7733, 6.9090001E-02
274.2554, 0.6948390
274.7375, 3.989925
275.2197, 7.769344
275.7018, 9.619312
276.1839, 9.302395
276.6660, 8.555496
277.1481, 6.705191
277.6302, 5.153625
278.1124, 4.765175
278.5945, 5.479618
279.0766, 6.389858
279.5587, 6.475842
280.0408, 5.764992
280.5229, 5.562418
281.0051, 7.048725
281.4872, 7.933565
281.9693, 6.595587
282.4514, 3.623562
282.9335, 1.121700
283.4156, 1.169714
283.8978, 3.836950
284.3799, 5.770386
284.8620, 6.771101
285.3441, 7.130827
285.8262, 6.586351
286.3083, 5.474623
286.7905, 4.425596
287.2726, 3.838598
287.7547, 3.707262
288.2368, 4.031813
288.7189, 5.445887
289.2010, 6.580574
289.6832, 6.771513
290.1653, 6.575008
290.6474, 7.039009
291.1295, 8.963642
291.6116, 11.65450
292.0938, 12.09194
292.5759, 7.960564
293.0580, 4.845486
293.5401, 4.707598
294.0222, 5.731230
294.5043, 5.742126
294.9865, 3.737034
295.4686, 0.6798710
295.9507, 1.024931
296.4328, 0.8030050
296.9149, 0.3191300
297.3970, 0.5767170
297.8792, 1.572237
298.3613, 2.363823
298.8434, 2.871119
299.3255, 3.284966
299.8076, 3.999660
300.2897, 5.413412
300.7719, 6.190237
301.2540, 5.594023
301.7361, 4.934679
302.2182, 5.325039
302.7003, 6.787296
303.1824, 8.226475
303.6646, 8.068594
304.1467, 5.477381
304.6288, 4.362930
305.1109, 6.159721
305.5930, 8.081593
306.0751, 8.816498
306.5573, 8.430906
307.0394, 7.735079
307.5215, 7.336954
308.0036, 7.324091
308.4857, 7.537128
308.9678, 8.066673
309.4500, 8.519136
309.9321, 9.150141
310.4142, 9.620594
310.8963, 9.039700
311.3784, 6.549187
311.8605, 2.643030
312.3427, 1.288107
312.8248, 5.878313
313.3069, 9.146847
313.7890, 8.757843
314.2711, 6.609858
314.7532, 5.356281
315.2354, 6.357227
315.7175, 8.626192
316.1996, 9.303848
316.6817, 7.528767
317.1638, 5.377363
317.6459, 1.521353
318.1281, 1.743273
318.6102, 1.592897
319.0923, 2.642435
319.5744, 8.202383
320.0565, 10.19758
320.5386, 6.265209
321.0208, 4.213110
321.5029, 5.795483
321.9850, 7.952490
322.4671, 8.886299
322.9492, 8.353537
323.4313, 7.113558
323.9135, 5.781912
324.3956, 3.994190
324.8777, 3.597708
325.3598, 6.475576
325.8419, 8.952461
326.3240, 9.775034
326.8062, 8.990028
327.2883, 7.512253
327.7704, 6.045380
328.2525, 4.612682
328.7346, 3.582739
329.2167, 3.169626
329.6989, 2.958368
330.1810, 3.026121
330.6631, 3.187328
331.1452, 3.027540
331.6273, 2.217934
332.1094, 1.286169
332.5916, 2.072149
333.0737, 6.353575
333.5558, 9.276989
334.0379, 9.334522
334.5200, 8.231501
335.0021, 7.773619
335.4843, 8.512735
335.9664, 9.200333
336.4485, 7.329679
336.9306, 1.287634
337.4127, 2.463125
337.8948, 2.373674
338.3770, 0.6588950
338.8591, 2.449829
339.3412, 6.398441
339.8233, 9.380611
340.3055, 8.993305
340.7876, 4.766705
341.2697, 1.942549
341.7518, 1.537153
342.2339, 1.679184
342.7160, 1.733564
343.1982, 1.749027
343.6803, 2.037954
344.1624, 3.045273
344.6445, 4.458639
345.1266, 4.449978
345.6087, 1.313011
346.0909, 0.3892140
346.5730, 2.227800
347.0551, 6.435148
347.5372, 8.546946
348.0193, 6.787575
348.5014, 3.316711
348.9836, 2.171804
349.4657, 4.053722
349.9478, 5.934008
350.4299, 7.629091
350.9120, 8.654669
351.3941, 8.410307
351.8763, 6.811560
352.3584, 4.661032
352.8405, 2.201601
353.3226, 0.6403160
353.8047, 1.499588
354.2868, 1.541506
354.7690, 5.288244
355.2511, 8.186468
355.7332, 10.09582
356.2153, 10.87625
356.6974, 9.725037
357.1795, 7.257427
357.6617, 6.056616
358.1438, 6.831455
358.6259, 7.463915
359.1080, 6.153111
359.5901, 4.023649
360.0722, 2.932461
360.5544, 3.853416
361.0365, 5.733337
361.5186, 7.420134
362.0007, 9.002605
362.4828, 9.514853
362.9649, 7.185246
363.4471, 4.365612
363.9292, 4.140532
364.4113, 7.424732
364.8934, 10.56727
365.3755, 10.46379
365.8576, 7.635658
366.3398, 4.844412
366.8219, 2.425943
367.3040, 0.6937120
367.7861, 2.4897000E-02
368.2682, 0.1992800
368.7503, 0.7853790
369.2325, 1.901413
369.7146, 3.119024
370.1967, 3.497309
370.6788, 2.801571
371.1609, 2.255823
371.6430, 3.082930
372.1252, 4.848326
372.6073, 6.068459
373.0894, 6.466080
373.5715, 6.320629
374.0536, 5.487885
374.5357, 4.133654
375.0179, 3.217613
375.5000, 3.168386
375.9821, 3.797773
376.4642, 5.186251
376.9463, 8.039930
377.4284, 10.17048
377.9106, 10.60435
378.3927, 9.854708
378.8748, 8.727570
379.3569, 7.416475
379.8390, 5.884031
380.3211, 3.774069
380.8033, 0.7457100
381.2854, 0.5732520
381.7675, 2.086140
382.2496, 5.039942
382.7317, 4.701797
383.2138, 1.303831
383.6960, 1.614933
384.1781, 1.205269
384.6602, 2.433065
385.1423, 4.520515
385.6244, 3.924950
386.1065, 3.052832
386.5887, 2.822086
387.0708, 2.940786
387.5529, 2.737871
388.0350, 1.891737
388.5171, 0.9153820
388.9992, 0.9739650
389.4814, 3.591785
389.9635, 4.876442
390.4456, 3.754545
390.9277, 2.127748
391.4098, 1.384106
391.8919, 1.771381
392.3741, 2.806282
392.8562, 4.046722
393.3383, 5.630604
393.8204, 6.342682
394.3025, 5.372356
394.7846, 4.436769
395.2668, 4.062584
395.7489, 4.143120
396.2310, 4.058342
396.7131, 3.273380
397.1952, 2.166262
397.6773, 2.396908
398.1595, 5.506737
398.6416, 7.375593
399.1237, 6.704601
399.6058, 5.205091
400.0879, 4.071121
400.5700, 3.676283
401.0522, 4.082026
401.5343, 5.986334
402.0164, 10.01328
402.4985, 11.68169
402.9806, 8.118221
403.4627, 4.667351
403.9449, 3.930380
404.4270, 5.256376
404.9091, 6.374678
405.3912, 5.758965
405.8733, 4.013216
406.3554, 3.040277
406.8376, 3.043938
407.3197, 3.306656
407.8018, 3.946386
408.2839, 4.511269
408.7660, 4.336447
409.2481, 3.114649
409.7303, 1.961052
410.2124, 1.905800
410.6945, 2.926291
411.1766, 4.822613
411.6587, 8.722940
412.1408, 12.13580
412.6230, 11.95656
413.1051, 8.689753
413.5872, 6.031452
414.0693, 6.027195
414.5514, 7.399372
415.0335, 8.395739
415.5157, 8.966700
415.9978, 8.528801
416.4799, 5.653915
416.9620, 1.671303
417.4441, 0.6067140
417.9262, 4.771311
418.4084, 8.992428
418.8905, 10.38516
419.3726, 9.567642
419.8547, 7.843761
420.3368, 5.434542
420.8189, 3.034872
421.3011, 1.869402
421.7832, 2.199667
422.2653, 2.564463
422.7474, 3.145540
423.2295, 3.474907
423.7116, 2.561623
424.1938, 0.6681040
424.6759, 0.2051280
425.1580, 1.804205
425.6401, 6.428244
426.1222, 8.933155
426.6043, 7.596760
427.0865, 6.475464
427.5686, 6.973043
428.0507, 8.162043
428.5328, 8.526512
429.0149, 7.509800
429.4970, 6.049997
429.9792, 5.868134
430.4613, 7.874149
430.9434, 9.187256
431.4255, 10.00311
431.9076, 10.10854
432.3897, 8.851585
432.8719, 6.676863
433.3540, 4.902920
433.8361, 4.668480
434.3182, 5.719118
434.8003, 6.210953
435.2824, 5.946497
435.7646, 5.373846
436.2467, 4.251648
436.7288, 3.088520
437.2109, 2.515785
437.6930, 2.736509
438.1751, 3.189232
438.6573, 2.867805
439.1394, 1.593504
439.6215, 1.795599
440.1036, 5.893679
440.5857, 9.045536
441.0678, 7.107712
441.5500, 1.262920
442.0321, 3.390284
442.5142, 3.911264
442.9963, 1.852617
443.4784, 0.4112400
443.9605, 2.951820
444.4427, 5.195953
444.9248, 7.221977
445.4069, 8.511848
445.8890, 8.164452
446.3711, 5.653917
446.8532, 2.875494
447.3354, 0.3844890
447.8175, 1.561966
448.2996, 2.161188
448.7817, 1.095072
449.2638, 0.4036690
449.7459, 0.7988320
450.2281, 2.3960001E-03
450.7102, 0.5422780
451.1923, 4.661463
451.6744, 8.232794
452.1565, 8.024569
452.6386, 4.982197
453.1208, 2.011959
453.6029, 0.4978640
454.0850, 0.4191860
454.5671, 1.753595
455.0492, 6.873701
455.5313, 10.15442
456.0135, 10.95760
456.4956, 10.29411
456.9777, 8.206377
457.4598, 5.186707
457.9419, 2.879965
458.4240, 3.050762
458.9062, 5.748631
459.3883, 7.396461
459.8704, 7.265022
460.3525, 6.825483
460.8346, 6.336416
461.3167, 5.742502
461.7989, 4.882099
462.2810, 3.686623
462.7631, 2.615417
463.2452, 1.596111
463.7273, 0.4740030
464.2094, 0.4776310
464.6916, 2.698858
465.1737, 5.228979
465.6558, 7.151499
466.1379, 8.448479
466.6200, 9.324718
467.1021, 10.29414
467.5843, 10.73007
468.0664, 8.654636
468.5485, 3.530180
469.0306, 0.1867940
469.5127, 0.3606740
469.9948, 3.047924
470.4770, 4.524252
470.9591, 4.516779
471.4412, 3.914879
471.9233, 2.451874
472.4054, 0.8646280
472.8875, 0.9013630
473.3697, 2.973326
473.8518, 5.028997
474.3339, 5.109056
474.8160, 3.197704
475.2981, 1.807573
475.7802, 1.003017
476.2624, 0.6365430
476.7445, 0.8218190
477.2266, 1.366838
477.7087, 1.916693
478.1908, 2.332809
478.6729, 2.753300
479.1551, 3.503613
479.6372, 5.212639
480.1193, 5.698277
480.6014, 3.876457
481.0835, 1.974779
481.5656, 0.9388500
482.0478, 0.8929560
482.5299, 1.880043
483.0120, 4.139032
483.4941, 7.134996
483.9762, 8.785616
484.4583, 8.554287
484.9405, 8.031727
485.4226, 7.209309
485.9047, 6.457161
486.3868, 6.106321
486.8689, 6.181431
487.3510, 6.415615
487.8332, 6.911547
488.3153, 7.461311
488.7974, 6.608482
489.2795, 3.274652
489.7616, 1.089643
490.2437, 4.352840
490.7259, 9.728479
491.2080, 11.78699
491.6901, 8.040106
492.1722, 3.851019
492.6543, 3.789099
493.1364, 6.407188
493.6186, 7.132982
494.1007, 4.431786
494.5828, 1.222845
495.0649, 1.091089
495.5470, 4.422306
496.0291, 6.592896
496.5113, 6.171095
496.9934, 5.756773
497.4755, 7.362150
497.9576, 10.19474
498.4397, 12.22119
498.9218, 12.45288
499.4040, 11.40209
499.8861, 9.927208
500.3682, 7.762537
500.8503, 6.355009
501.3324, 5.941284
501.8145, 5.849308
502.2967, 5.973423
502.7788, 6.128679
503.2609, 5.825869
503.7430, 4.496929
504.2251, 2.714634
504.7072, 2.924091
505.1894, 6.175617
505.6715, 8.935221
506.1536, 11.15700
506.6357, 12.20084
507.1178, 10.64882
507.5999, 6.481024
508.0821, 2.669983
508.5642, 1.921743
509.0463, 3.213085
509.5284, 3.285318
510.0105, 1.592037
510.4926, 0.3138660
510.9748, 0.9804880
511.4569, 3.002480
511.9390, 5.022350
512.4211, 7.478430
512.9032, 8.967806
513.3853, 8.049887
513.8674, 5.900805
514.3495, 4.393892
514.8317, 3.940647
515.3138, 4.478504
515.7959, 6.240093
516.2780, 9.415585
516.7601, 10.77408
517.2422, 9.197386
517.7244, 7.376505
518.2065, 6.433498
518.6886, 5.739956
519.1707, 3.684752
519.6528, 0.1428390
520.1349, 3.445659
520.6171, 1.867599
521.0992, 6.779516
521.5813, 11.55919
522.0634, 8.893063
522.5455, 5.292580
523.0276, 2.749260
523.5098, 1.392981
523.9919, 0.9193080
524.4740, 1.275803
524.9561, 2.201159
525.4382, 3.590185
525.9203, 5.453323
526.4025, 6.599981
526.8846, 6.209677
527.3667, 5.733763
527.8488, 7.339655
528.3309, 10.63756
528.8130, 12.08904
529.2952, 8.526104
529.7773, 4.157932
530.2594, 3.397871
530.7415, 5.661312
531.2236, 7.804302
531.7057, 8.478954
532.1879, 8.176927
532.6700, 7.771903
533.1521, 7.029075
533.6342, 6.813674
534.1163, 8.037419
534.5984, 8.889873
535.0806, 7.514385
535.5627, 4.708115
536.0448, 2.946342
536.5269, 3.840601
537.0090, 6.496750
537.4911, 8.237780
537.9733, 8.870905
538.4554, 9.010231
538.9375, 8.250137
539.4196, 7.437897
539.9017, 6.982216
540.3839, 6.940262
540.8660, 7.333115
541.3481, 8.665287
541.8302, 10.17011
542.3123, 9.652317
542.7944, 6.775612
543.2766, 4.899763
543.7587, 5.856625
544.2408, 8.097320
544.7229, 9.401106
545.2050, 9.718539
545.6871, 9.675715
546.1693, 9.478335
546.6514, 9.027101
547.1335, 7.910873
547.6156, 6.288095
548.0977, 5.266380
548.5798, 5.695349
549.0620, 6.931076
549.5441, 6.811487
550.0262, 3.291242
550.5083, 1.136801
550.9904, 1.032987
551.4725, 1.796452
551.9547, 2.880227
552.4368, 4.023623
552.9189, 4.838652
553.4010, 4.924438
553.8831, 4.577892
554.3652, 5.171392
554.8474, 7.394413
555.3295, 8.806227
555.8116, 7.622026
556.2937, 6.204079
556.7758, 6.453145
557.2579, 8.378752
557.7401, 10.28088
558.2222, 11.13487
558.7043, 11.33636
559.1864, 11.53100
559.6685, 11.73507
560.1506, 12.01852
560.6328, 12.75125
561.1149, 13.26422
561.5970, 11.57274
562.0791, 6.479077
562.5612, 3.410029
563.0433, 5.009043
563.5255, 7.787472
564.0076, 8.896481
564.4897, 8.356088
564.9718, 7.513578
565.4539, 7.170521
565.9360, 7.346687
566.4182, 8.245890
566.9003, 11.04298
567.3824, 12.30775
567.8645, 10.64848
568.3466, 8.559804
568.8287, 7.747638
569.3109, 7.985358
569.7930, 7.830263
570.2751, 5.818474
570.7572, 3.437510
571.2393, 4.543844
571.7214, 9.533391
572.2036, 13.09407
572.6857, 13.01236
573.1678, 11.32208
573.6499, 10.45547
574.1320, 10.38998
574.6141, 9.935935
575.0963, 8.430305
575.5784, 6.690092
576.0605, 5.102098
576.5426, 3.840414
577.0247, 3.695655
577.5068, 5.201848
577.9890, 6.625257
578.4711, 5.024454
578.9532, 2.402631
579.4353, 5.696787
579.9174, 1.962617
580.3995, 2.455219
580.8817, 4.941333
581.3638, 5.759070
581.8459, 5.696057
582.3280, 5.026457
582.8101, 4.429406
583.2922, 5.703770
583.7744, 9.148628
584.2565, 9.727340
584.7386, 4.982526
585.2207, 0.2153140
585.7029, 2.668099
586.1850, 2.929149
586.6671, 2.189534
587.1492, 5.3367000E-02
587.6313, 2.340754
588.1135, 3.534949
588.5956, 3.959494
589.0777, 3.995610
589.5598, 3.734685
590.0419, 3.146951
590.5240, 1.905335
591.0062, 0.1138890
591.4883, 0.2443520
591.9704, 6.213633
592.4525, 10.35804
592.9346, 9.263842
593.4167, 6.182981
593.8989, 4.823500
594.3810, 6.015949
594.8631, 8.112436
595.3452, 9.627553
595.8273, 10.56302
596.3094, 11.01415
596.7916, 11.08867
597.2737, 10.43608
597.7558, 7.929913
598.2379, 5.092468
598.7200, 3.538500
599.2021, 3.494955
599.6843, 4.156537
600.1664, 5.776488
600.6485, 7.532831
601.1306, 7.996471
601.6127, 7.216692
602.0948, 6.726471
602.5770, 7.552391
603.0591, 9.010933
603.5412, 9.202459
604.0233, 7.122932
604.5054, 5.357943
604.9875, 3.687030
605.4697, 2.509907
605.9518, 2.145391
606.4339, 2.494357
606.9160, 3.385730
607.3981, 4.808102
607.8802, 6.320965
608.3624, 6.934126
608.8445, 6.513691
609.3266, 6.262119
609.8087, 6.356297
610.2908, 6.671480
610.7729, 7.355742
611.2551, 8.196797
611.7372, 8.493272
612.2193, 7.258804
612.7014, 6.439775
613.1835, 8.422571
613.6656, 11.70692
614.1478, 12.66406
614.6299, 10.41271
615.1120, 7.390389
615.5941, 6.018456
616.0762, 6.303576
616.5583, 6.610252
617.0405, 7.406163
617.5226, 7.635372
618.0047, 6.605310
618.4868, 5.243582
618.9689, 4.118159
619.4510, 3.520147
619.9332, 4.107162
620.4153, 7.242187
620.8974, 11.83190
621.3795, 13.61481
621.8616, 12.10773
622.3438, 10.32212
622.8259, 9.069713
623.3080, 8.342781
623.7901, 8.148765
624.2722, 8.500375
624.7543, 9.019041
625.2365, 10.11964
625.7186, 10.91926
626.2007, 10.63303
626.6828, 9.424759
627.1649, 7.452078
627.6470, 4.733095
628.1292, 2.536070
628.6113, 3.153693
629.0934, 7.566332
629.5755, 10.70316
630.0576, 12.78471
630.5397, 13.22527
631.0219, 10.69214
631.5040, 6.821999
631.9861, 3.615391
632.4682, 1.633122
632.9503, 0.7653470
633.4324, 1.373169
633.9146, 3.013854
634.3967, 4.295804
634.8788, 5.091144
635.3609, 5.687149
635.8430, 6.286676
636.3251, 6.831389
636.8073, 6.755136
637.2894, 5.859937
637.7715, 5.110123
638.2536, 4.379797
638.7357, 3.764286
639.2178, 3.616694
639.7000, 3.765123
640.1821, 3.642344
640.6642, 2.912523
641.1463, 1.979543
641.6284, 1.720419
642.1105, 2.386324
642.5927, 3.003061
643.0748, 3.669184
643.5569, 3.517447
644.0390, 1.337649
644.5211, 1.495446
645.0032, 2.119308
645.4854, 0.5199760
645.9675, 4.080799
646.4496, 8.468841
646.9317, 12.29204
647.4138, 12.06927
647.8959, 7.593224
648.3781, 3.216226
648.8602, 2.192042
649.3423, 3.887264
649.8244, 5.052882
650.3065, 5.620850
650.7886, 5.633350
651.2708, 4.269182
651.7529, 3.087355
652.2350, 3.480725
652.7171, 4.978516
653.1992, 5.968540
653.6813, 5.436453
654.1635, 4.410958
654.6456, 4.700611
655.1277, 6.156841
655.6098, 6.833078
656.0919, 6.192068
656.5740, 5.182997
657.0562, 4.466867
657.5383, 4.073526
658.0204, 4.016104
658.5025, 4.889667
658.9846, 5.354658
659.4667, 4.683779
659.9489, 3.620739
660.4310, 2.498903
660.9131, 1.695110
661.3952, 2.434361
661.8773, 5.644876
662.3594, 10.21355
662.8416, 11.67989
663.3237, 8.959456
663.8058, 7.184750
664.2879, 8.245656
664.7700, 9.481115
665.2521, 8.489023
665.7343, 6.029787
666.2164, 4.815161
666.6985, 6.806723
667.1806, 8.647193
667.6627, 7.327045
668.1448, 4.339602
668.6270, 2.297897
669.1091, 1.787518
669.5912, 2.807192
670.0733, 5.796862
670.5554, 10.13808
671.0375, 11.21620
671.5197, 5.626167
672.0018, 2.369198
672.4839, 4.271008
672.9660, 6.995338
673.4481, 7.831387
673.9302, 6.829229
674.4124, 5.020050
674.8945, 2.277174
675.3766, 2.1561000E-02
675.8587, 0.7901210
676.3408, 3.832479
676.8229, 5.280321
677.3051, 3.818911
677.7872, 2.503145
678.2693, 4.370365
678.7514, 8.969900
679.2335, 11.03585
679.7156, 8.492039
680.1978, 6.490894
680.6799, 6.123590
681.1620, 6.301422
681.6441, 6.273062
682.1262, 5.900057
682.6083, 5.272665
683.0905, 4.383842
683.5726, 3.399019
684.0547, 2.509293
684.5368, 1.718237
685.0189, 1.537413
685.5010, 2.271248
685.9832, 3.174288
686.4653, 3.766619
686.9474, 4.007603
687.4295, 3.772745
687.9116, 2.542440
688.3937, 1.546051
688.8759, 1.140715
689.3580, 1.135786
689.8401, 1.417519
690.3222, 1.957493
690.8043, 2.692810
691.2864, 3.767311
691.7686, 4.729305
692.2507, 4.244671
692.7328, 2.001308
693.2149, 0.2810970
693.6970, 0.6165810
694.1791, 0.9223830
694.6613, 0.4628070
695.1434, 0.4261910
695.6255, 0.9265820
696.1076, 0.4847410
696.5897, 0.5339030
697.0718, 2.809719
697.5540, 5.331324
698.0361, 5.346624
698.5182, 3.025682
699.0003, 0.3908560
699.4824, 1.373307
699.9645, 2.106757
700.4467, 0.7593380
700.9288, 3.925629
701.4109, 6.225176
701.8930, 3.434153
702.3751, 1.036535
702.8572, 2.942848
703.3394, 6.952330
703.8215, 8.644712
704.3036, 6.582058
704.7857, 4.500517
705.2678, 4.973129
705.7499, 6.476669
706.2321, 7.133821
706.7142, 6.802830
707.1963, 5.650076
707.6784, 3.646202
708.1605, 1.553919
708.6426, 0.9080010
709.1248, 2.009035
709.6069, 3.522661
710.0890, 6.938828
710.5711, 8.964968
711.0532, 7.040173
711.5353, 3.778072
712.0175, 2.983017
712.4996, 5.510256
712.9817, 7.560993
713.4638, 5.547607
713.9459, 2.387302
714.4280, 2.682425
714.9102, 5.895977
715.3923, 8.538441
715.8744, 9.153372
716.3565, 8.413141
716.8386, 7.231480
717.3207, 5.587103
717.8029, 3.678030
718.2850, 0.2308650
718.7671, 2.144164
719.2492, 0.4842260
719.7313, 4.449453
720.2134, 6.690434
720.6956, 6.842581
721.1777, 6.295052
721.6598, 5.518734
722.1419, 4.724195
722.6240, 4.253141
723.1061, 4.019390
723.5883, 3.584557
724.0704, 2.793520
724.5525, 2.209288
725.0346, 2.538113
725.5167, 3.736065
725.9988, 4.159657
726.4810, 2.957739
726.9631, 2.203651
727.4452, 2.367483
727.9273, 2.863823
728.4094, 3.488884
728.8915, 4.074837
729.3737, 4.191835
729.8558, 3.188282
730.3379, 2.125578
730.8200, 2.145521
731.3021, 2.951839
731.7842, 4.050880
732.2664, 5.324322
732.7485, 5.513508
733.2306, 3.342968
733.7127, 0.2956010
734.1948, 1.710032
734.6769, 0.9640370
735.1591, 2.519287
735.6412, 1.459864
736.1233, 0.6574940
736.6054, 2.513926
737.0875, 5.471825
737.5696, 6.263414
738.0518, 3.539402
738.5339, 0.5328140
739.0160, 3.1202000E-02
739.4981, 0.8115180
739.9802, 0.9672070
740.4623, 0.4463880
740.9445, 0.9393180
741.4266, 3.462723
741.9087, 6.632114
742.3908, 7.860695
742.8729, 6.573687
743.3550, 5.851225
743.8372, 6.422077
744.3193, 6.686300
744.8014, 6.111650
745.2835, 5.078554
745.7656, 3.918039
746.2477, 2.701031
746.7299, 1.586786
747.2120, 0.3094040
747.6941, 0.5644450
748.1762, 1.5457000E-02
748.6583, 1.512814
749.1404, 2.700121
749.6226, 3.163744
750.1047, 3.059412
750.5868, 2.442139
751.0689, 1.397520
751.5510, 0.8738120
752.0331, 1.213396
752.5153, 1.354609
752.9974, 0.4528880
753.4795, 0.1421490
753.9616, 1.027046
754.4437, 3.276802
754.9258, 4.364983
755.4080, 3.230673
755.8901, 1.530548
756.3722, 0.2379040
756.8543, 1.560741
757.3364, 1.370182
757.8185, 0.1903920
758.3007, 1.588112
758.7828, 1.743280
759.2649, 1.352552
759.7470, 2.277554
760.2291, 5.072721
760.7112, 6.421873
761.1934, 5.112358
761.6755, 4.132921
762.1576, 6.038853
762.6397, 8.523428
763.1218, 8.221048
763.6039, 4.479567
764.0861, 1.541548
764.5682, 1.004772
765.0503, 1.687454
765.5324, 3.680740
766.0145, 5.944517
766.4966, 6.233686
766.9788, 4.110836
767.4609, 1.800089
767.9430, 1.689014
768.4251, 3.263361
768.9072, 3.867945
769.3893, 3.313463
769.8715, 2.672409
770.3536, 1.773390
770.8357, 1.482132
771.3178, 2.917690
771.7999, 5.762259
772.2820, 8.402699
772.7642, 11.89297
773.2463, 13.61765
773.7284, 11.62393
774.2105, 8.539351
774.6926, 6.494873
775.1747, 5.507278
775.6569, 4.745708
776.1390, 3.761654
776.6211, 2.850672
777.1032, 2.922762
777.5853, 3.700525
778.0674, 4.476254
778.5496, 5.240593
779.0317, 5.610960
779.5138, 5.265810
779.9959, 4.624949
780.4780, 4.429419
780.9601, 4.797430
781.4423, 5.154064
781.9244, 5.624573
782.4065, 5.933374
782.8886, 5.538662
783.3707, 5.217157
783.8528, 6.470486
784.3350, 9.010170
784.8171, 10.05259
785.2992, 6.976652
785.7813, 2.570026
786.2634, 0.2881950
786.7455, 1.434872
787.2277, 0.7471980
787.7098, 6.466780
788.1919, 10.78414
788.6740, 9.524187
789.1561, 4.283266
789.6382, 0.8704640
790.1204, 0.1450200
790.6025, 0.6636660
791.0846, 0.3193020
791.5667, 6.5799998E-03
792.0488, 0.2894950
792.5309, 0.6521870
793.0131, 0.6116410
793.4952, 4.3931998E-02
793.9773, 0.7166060
794.4594, 1.658962
794.9415, 2.602514
795.4236, 3.452375
795.9058, 4.152071
796.3879, 4.668955
796.8700, 4.960274
797.3521, 4.810408
797.8342, 3.785978
798.3163, 2.175550
798.7985, 1.586353
799.2806, 2.206585
799.7627, 2.772388
800.2448, 3.098902
800.7269, 3.112167
801.2090, 2.312717
801.6912, 1.062654
802.1733, 1.274490
802.6554, 5.006445
803.1375, 6.929766
803.6196, 3.945576
804.1017, 0.7783830
804.5839, 1.287224
805.0660, 4.268841
805.5481, 6.543417
806.0302, 7.018444
806.5123, 6.910189
806.9944, 8.098026
807.4766, 9.453606
807.9587, 6.915140
808.4408, 0.9453660
808.9229, 1.160463
809.4050, 3.797659
809.8871, 10.03440
810.3693, 10.24318
810.8514, 4.510490
811.3335, 2.099451
811.8156, 5.745962
812.2977, 8.186785
812.7798, 7.382719
813.2620, 5.966269
813.7441, 5.581821
814.2262, 5.991362
814.7083, 6.239035
815.1904, 6.114466
815.6725, 6.099924
816.1547, 6.440626
816.6368, 6.882889
817.1189, 7.076916
817.6010, 7.101357
818.0831, 7.331562
818.5652, 7.928102
819.0474, 8.526064
819.5295, 8.713701
820.0116, 8.499065
820.4937, 7.750845
820.9758, 6.278214
821.4579, 5.479548
821.9401, 6.040400
822.4222, 7.034517
822.9043, 7.742985
823.3864, 8.117067
823.8685, 7.325693
824.3506, 2.973520
824.8328, 0.8624100
825.3149, 3.432076
825.7970, 7.132069
826.2791, 10.10935
826.7612, 12.03192
827.2433, 12.77276
827.7255, 12.23814
828.2076, 10.93009
828.6897, 8.097820
829.1718, 5.365822
829.6539, 6.445572
830.1360, 10.45815
830.6182, 12.55122
831.1003, 10.87110
831.5824, 8.009521
832.0645, 6.988890
832.5466, 7.695004
833.0287, 9.090599
833.5109, 11.97120
833.9930, 12.96703
834.4751, 9.661095
834.9572, 6.350384
835.4393, 7.365238
835.9214, 11.16978
836.4036, 13.29831
836.8857, 12.84980
837.3678, 11.86842
837.8499, 10.06107
838.3320, 8.623291
838.8141, 8.694712
839.2963, 9.704905
839.7784, 10.71980
840.2605, 11.39441
840.7426, 11.43390
841.2247, 9.851496
841.7068, 7.793312
842.1890, 8.222656
842.6711, 10.44692
843.1532, 10.49815
843.6353, 7.253431
844.1174, 4.292933
844.5995, 4.962721
845.0817, 8.382206
845.5638, 9.967411
846.0459, 9.146856
846.5280, 8.068850
847.0101, 6.765102
847.4922, 5.379692
847.9744, 3.354111
848.4565, 1.658291
848.9386, 1.698671
849.4207, 3.371838
849.9028, 5.685360
850.3849, 10.02529
850.8671, 13.14205
851.3492, 12.19513
851.8313, 9.320581
852.3134, 7.157686
852.7955, 6.295012
853.2776, 6.315392
853.7598, 7.166840
854.2419, 8.259066
854.7240, 8.640993
855.2061, 8.480808
855.6882, 8.595686
856.1703, 9.069134
856.6525, 8.809902
857.1346, 7.018524
857.6167, 4.873116
858.0988, 4.854254
858.5809, 7.528391
859.0630, 8.535660
859.5452, 7.326166
860.0273, 5.408978
860.5094, 1.825590
860.9915, 1.149275
861.4736, 1.154329
861.9557, 1.415998
862.4379, 4.028833
862.9200, 7.040886
863.4021, 9.155684
863.8842, 9.045393
864.3663, 8.058224
864.8484, 7.243078
865.3306, 6.578911
865.8127, 5.594589
866.2948, 4.121962
866.7769, 2.748337
867.2590, 2.121607
867.7411, 2.109613
868.2233, 2.708553
868.7054, 3.802837
869.1875, 4.885685
869.6696, 5.818701
870.1517, 6.340899
870.6339, 6.166157
871.1160, 5.419125
871.5981, 4.471104
872.0802, 2.858833
872.5623, 2.920643
873.0444, 6.361591
873.5266, 9.037560
874.0087, 8.156385
874.4908, 5.207403
874.9729, 2.758204
875.4550, 0.8216360
875.9371, 0.1829910
876.4193, 4.5185000E-02
876.9014, 0.9033320
877.3835, 3.573046
877.8656, 6.253134
878.3477, 6.578577
878.8298, 4.995173
879.3120, 4.433502
879.7941, 6.725510
880.2762, 9.527294
880.7583, 11.39605
881.2404, 11.81543
881.7225, 8.692747
882.2047, 3.048691
882.6868, 0.1884710
883.1689, 1.100691
883.6510, 3.909908
884.1331, 4.434486
884.6152, 3.007980
885.0974, 2.023251
885.5795, 1.453836
886.0616, 1.637459
886.5437, 2.930412
887.0258, 4.350737
887.5079, 5.270844
887.9901, 5.637880
888.4722, 5.169096
888.9543, 2.675821
889.4364, 1.628365
889.9185, 3.503716
890.4006, 5.083319
890.8828, 4.810537
891.3649, 3.712980
891.8470, 3.112244
892.3291, 3.125816
892.8112, 2.924433
893.2933, 1.422909
893.7755, 0.4620230
894.2576, 1.990850
894.7397, 4.220379
895.2218, 4.781807
895.7039, 3.817316
896.1860, 2.812750
896.6682, 2.464190
897.1503, 2.572546
897.6324, 3.386906
898.1145, 4.369770
898.5966, 3.165785
899.0787, 0.1275290
899.5609, 0.4396140
900.0430, 2.980301
900.5251, 6.755907
901.0072, 7.251662
901.4893, 5.265314
901.9714, 4.872141
902.4536, 6.952675
902.9357, 7.238323
903.4178, 4.130208
903.8999, 1.403484
904.3820, 1.801941
904.8641, 3.410110
905.3463, 2.406497
905.8284, 1.802495
906.3105, 3.610305
906.7926, 0.1709070
907.2747, 2.576787
907.7568, 1.748581
908.2390, 0.3485030
908.7211, 1.619705
909.2032, 4.708025
909.6853, 6.153193
910.1674, 4.281232
910.6495, 2.457579
911.1317, 3.340000
911.6138, 5.109579
912.0959, 6.024622
912.5780, 6.035801
913.0601, 4.999695
913.5422, 3.088769
914.0244, 1.706726
914.5065, 2.211657
914.9886, 3.773544
915.4707, 4.707991
915.9528, 5.094347
916.4349, 5.502806
916.9171, 6.010969
917.3992, 6.129400
917.8813, 5.524916
918.3634, 4.670404
918.8455, 4.482487
919.3276, 5.133107
919.8098, 3.910582
920.2919, 0.8546090
920.7740, 3.295960
921.2561, 0.8109210
921.7382, 2.843008
922.2203, 4.967745
922.7025, 5.732606
923.1846, 5.828947
923.6667, 4.524630
924.1488, 4.155668
924.6309, 6.403620
925.1130, 7.959511
925.5952, 6.293048
926.0773, 3.713362
926.5594, 3.329222
927.0415, 5.205158
927.5236, 6.644560
928.0057, 6.326585
928.4879, 5.534964
928.9700, 5.190405
929.4521, 4.771780
929.9342, 3.050356
930.4163, 0.7540510
930.8984, 0.3455720
931.3806, 2.636300
931.8627, 4.716129
932.3448, 2.629605
932.8269, 1.098113
933.3090, 0.4869510
933.7911, 3.288535
934.2733, 5.124659
934.7554, 4.079372
935.2375, 2.509949
935.7196, 1.981160
936.2017, 2.028593
936.6838, 1.674361
937.1660, 0.8898510
937.6481, 0.1174820
938.1302, 0.8809920
938.6123, 0.6319870
939.0944, 1.855608
939.5765, 4.716702
940.0587, 5.997959
940.5408, 5.941762
941.0229, 6.393480
941.5050, 8.155687
941.9871, 9.217781
942.4692, 8.929939
942.9514, 7.621828
943.4335, 4.112818
943.9156, 0.6836910
944.3977, 0.8145480
944.8798, 4.610819
945.3619, 7.312117
945.8441, 7.531507
946.3262, 7.005290
946.8083, 5.412388
947.2904, 4.133878
947.7725, 4.660471
948.2546, 6.363525
948.7368, 7.829706
949.2189, 8.649146
949.7010, 8.693915
950.1831, 7.441132
950.6652, 5.845781
951.1473, 4.159626
951.6295, 2.975003
952.1116, 3.855132
952.5937, 6.391256
953.0758, 7.683954
953.5579, 5.947619
954.0400, 3.448379
954.5222, 3.576526
955.0043, 5.357437
955.4864, 5.712984
955.9685, 4.782520
956.4506, 4.648289
956.9327, 5.923386
957.4149, 6.869820
957.8970, 5.931044
958.3791, 3.840517
958.8612, 2.764388
959.3433, 2.856780
959.8254, 2.342231
960.3076, 0.6846540
960.7897, 0.5296710
961.2718, 3.667212
961.7539, 7.438664
962.2360, 8.385718
962.7181, 6.639112
963.2003, 5.098939
963.6824, 3.015497
964.1645, 2.355569
964.6466, 4.855608
965.1287, 7.428406
965.6108, 8.498244
966.0930, 8.663915
966.5751, 8.825199
967.0572, 9.047197
967.5393, 8.726250
968.0214, 6.776373
968.5035, 5.647087
968.9857, 7.268959
969.4678, 8.802105
969.9499, 7.345383
970.4320, 4.241515
970.9141, 2.814250
971.3962, 3.992658
971.8784, 5.459930
972.3605, 6.568704
972.8426, 7.170322
973.3247, 6.793344
973.8068, 6.083698
974.2889, 5.991009
974.7711, 6.390430
975.2532, 6.291067
975.7353, 5.166124
976.2174, 3.936758
976.6995, 3.312143
977.1816, 3.173403
977.6638, 3.386139
978.1459, 3.866566
978.6280, 4.882912
979.1101, 6.579660
979.5922, 7.459164
980.0743, 6.365645
980.5565, 4.304172
981.0386, 2.252867
981.5207, 0.6554550
982.0028, 1.870899
982.4849, 5.585764
982.9670, 7.807932
983.4492, 7.173759
983.9313, 6.296431
984.4134, 7.838303
984.8955, 10.72264
985.3776, 11.45853
985.8597, 9.993361
986.3419, 7.783333
986.8240, 4.759119
987.3061, 2.707962
987.7882, 2.776753
988.2703, 3.651873
988.7524, 3.760597
989.2346, 3.193299
989.7167, 2.702058
990.1988, 2.075874
990.6809, 2.124756
991.1630, 3.377104
991.6451, 4.863787
992.1273, 6.091086
992.6094, 7.198650
993.0915, 8.648921
993.5736, 8.606847
994.0557, 10.81584
994.5378, 7.893884
995.0200, 5.632627
995.5021, 3.983394
995.9842, 3.431536
996.4663, 5.238380
996.9484, 8.071772
997.4305, 10.08352
997.9127, 11.26460
998.3948, 9.762479
998.8769, 1.187432
999.3590, 4.656594
999.8411, 2.659479
1000.323, 1.226175
1000.805, 2.383394
1001.287, 1.817888
1001.770, 2.552676
1002.252, 5.363682
1002.734, 7.198114
1003.216, 5.766026
1003.698, 4.172985
1004.180, 4.273745
1004.662, 5.138277
1005.144, 6.340736
1005.627, 7.267841
1006.109, 6.427057
1006.591, 3.203414
1007.073, 0.2891170
1007.555, 0.2772360
1008.037, 1.162344
1008.519, 0.2533520
1009.001, 0.5457840
1009.483, 2.478604
1009.966, 5.654869
1010.448, 8.367344
1010.930, 9.826133
1011.412, 9.936401
1011.894, 7.292959
1012.376, 4.120268
1012.858, 4.185251
1013.340, 6.523024
1013.823, 9.415209
1014.305, 11.94816
1014.787, 11.22297
1015.269, 5.333368
1015.751, 0.8301860
1016.233, 0.9414040
1016.715, 7.203724
1017.197, 8.296532
1017.679, 5.097103
1018.162, 2.277058
1018.644, 0.9204520
1019.126, 0.4672740
1019.608, 0.5354290
1020.090, 1.191871
1020.572, 2.698629
1021.054, 4.944546
1021.536, 7.511079
1022.018, 10.44769
1022.501, 12.24758
1022.983, 12.18704
1023.465, 10.84085
1023.947, 8.217987
1024.429, 5.374236
1024.911, 4.916103
1025.393, 6.923086
1025.875, 7.157452
1026.358, 5.309379
1026.840, 4.425402
1027.322, 5.338526
1027.804, 6.553299
1028.286, 6.937263
1028.768, 6.651651
1029.250, 6.098872
1029.732, 5.303467
1030.214, 3.782070
1030.697, 0.7379120
1031.179, 8.8715002E-02
1031.661, 4.074483
1032.143, 7.844337
1032.625, 7.275925
1033.107, 3.898031
1033.589, 1.972261
1034.071, 1.599628
1034.553, 2.391352
1035.036, 5.463439
1035.518, 7.250506
1036.000, 6.404768
1036.482, 4.616786
1036.964, 2.770279
1037.446, 1.162103
1037.928, 0.7932770
1038.410, 2.164453
1038.893, 2.993717
1039.375, 2.687502
1039.857, 2.773349
1040.339, 3.288185
1040.821, 4.661772
1041.303, 8.337361
1041.785, 12.97371
1042.267, 14.64095
1042.750, 12.78856
1043.232, 9.849611
1043.714, 2.595517
1044.196, 1.327592
1044.678, 3.511089
1045.160, 8.830953
1045.642, 7.164482
1046.124, 1.618333
1046.606, 0.3478180
1047.089, 5.271982
1047.571, 8.274261
1048.053, 7.047743
1048.535, 5.781758
1049.017, 5.475387
1049.499, 5.659353
1049.981, 6.118570
1050.463, 6.734222
1050.945, 7.398404
1051.428, 8.194338
1051.910, 8.406884
1052.392, 7.766634
1052.874, 6.706072
1053.356, 4.536748
1053.838, 2.767075
1054.320, 3.187386
1054.802, 4.674036
1055.285, 4.513517
1055.767, 2.067877
1056.249, 1.158926
1056.731, 4.978346
1057.213, 7.287899
1057.695, 4.278582
1058.177, 1.368733
1058.659, 3.884049
1059.141, 8.906258
1059.624, 10.17041
1060.106, 6.621703
1060.588, 3.868624
1061.070, 4.461319
1061.552, 5.222632
1062.034, 4.383142
1062.516, 3.735477
1062.998, 5.142791
1063.480, 7.550280
1063.963, 9.269175
1064.445, 9.961878
1064.927, 9.564820
1065.409, 7.410179
1065.891, 4.955990
1066.373, 1.891309
1066.855, 0.1496610
1067.337, 0.9051180
1067.820, 3.502079
1068.302, 5.570635
1068.784, 6.630911
1069.266, 6.251110
1069.748, 2.907212
1070.230, 0.4773970
1070.712, 1.526640
1071.194, 3.381007
1071.677, 4.890417
1072.159, 5.561464
1072.641, 3.762527
1073.123, 0.1288990
1073.605, 1.061705
1074.087, 3.124978
1074.569, 6.949558
1075.051, 7.933264
1075.533, 7.441544
1076.016, 5.343609
1076.498, 3.135503
1076.980, 2.850048
1077.462, 4.186440
1077.944, 4.740065
1078.426, 3.627287
1078.908, 1.946761
1079.390, 1.749881
1079.873, 3.661289
1080.355, 0.7525280
1080.837, 6.908966
1081.319, 9.680232
1081.801, 9.164708
1082.283, 7.572603
1082.765, 5.371759
1083.247, 3.240206
1083.729, 0.4977390
1084.212, 0.9109230
1084.694, 1.356849
1085.176, 4.553531
1085.658, 6.119297
1086.140, 6.157196
1086.622, 5.378452
1087.104, 3.898295
1087.586, 3.063289
1088.068, 4.132870
1088.551, 5.097939
1089.033, 4.322861
1089.515, 3.593417
1089.997, 5.287546
1090.479, 7.889212
1090.961, 8.155829
1091.443, 5.627144
1091.925, 3.312241
1092.408, 1.940657
1092.890, 1.535330
1093.372, 2.630118
1093.854, 4.276679
1094.336, 6.115454
1094.818, 7.522518
1095.300, 7.645312
1095.782, 6.647686
1096.265, 6.543470
1096.747, 9.218507
1097.229, 10.30720
1097.711, 6.529733
1098.193, 2.819132
1098.675, 2.521550
1099.157, 3.563013
1099.639, 3.295894
1100.121, 1.914584
1100.604, 1.313888
1101.086, 1.964220
1101.568, 3.175352
1102.050, 4.993056
1102.532, 7.033525
1103.014, 10.14695
1103.496, 12.27274
1103.978, 10.63318
1104.460, 6.677617
1104.943, 4.364166
1105.425, 4.487260
1105.907, 4.759974
1106.389, 4.678848
1106.871, 4.820265
1107.353, 5.633359
1107.835, 6.440300
1108.317, 6.752539
1108.800, 6.746770
1109.282, 6.743674
1109.764, 6.767031
1110.246, 6.751905
1110.728, 7.108835
1111.210, 6.797263
1111.692, 4.201511
1112.174, 2.613807
1112.656, 4.796108
1113.139, 8.063187
1113.621, 8.965054
1114.103, 7.702529
1114.585, 6.942060
1115.067, 7.071883
1115.549, 7.060341
1116.031, 7.507845
1116.513, 6.892992
1116.995, 2.982431
1117.478, 0.2678760
1117.960, 1.647850
1118.442, 6.722130
1118.924, 8.343854
1119.406, 5.233187
1119.888, 3.801313
1120.370, 5.119155
1120.852, 5.867430
1121.335, 4.918377
1121.817, 3.873378
1122.299, 3.659602
1122.781, 4.135724
1123.263, 5.215454
1123.745, 6.926113
1124.227, 7.519759
1124.709, 6.316116
1125.192, 6.732417
1125.674, 10.23896
1126.156, 11.99054
1126.638, 9.359223
1127.120, 4.804666
1127.602, 0.7636190
1128.084, 2.351336
1128.566, 1.844472
1129.048, 2.976124
1129.531, 4.890411
1130.013, 3.181270
1130.495, 1.352099
1130.977, 0.3452210
1131.459, 0.6943450
1131.941, 3.411529
1132.423, 6.594254
1132.905, 5.392369
1133.387, 0.2799170
1133.870, 0.8052450
1134.352, 1.974964
1134.834, 4.337733
1135.316, 5.445713
1135.798, 5.683264
1136.280, 5.202185
1136.762, 4.867467
1137.244, 5.981129
1137.727, 7.712235
1138.209, 7.748095
1138.691, 6.290779
1139.173, 4.815989
1139.655, 3.665439
1140.137, 3.925348
1140.619, 5.828175
1141.101, 7.601652
1141.583, 7.619095
1142.066, 6.714991
1142.548, 6.334873
1143.030, 6.017139
1143.512, 4.504451
1143.994, 2.424777
1144.476, 1.557645
1144.958, 2.133101
1145.440, 3.475861
1145.922, 5.321177
1146.405, 6.703936
1146.887, 6.516456
1147.369, 5.588129
1147.851, 4.136690
1148.333, 3.031050
1148.815, 4.599389
1149.297, 7.434309
1149.779, 7.315174
1150.262, 3.477338
1150.744, 0.2729530
1151.226, 1.937279
1151.708, 1.948934
1152.190, 0.8225570
1152.672, 3.734076
1153.154, 4.140439
1153.636, 3.467803
1154.119, 4.152464
1154.601, 6.067397
1155.083, 7.099036
1155.565, 6.345049
1156.047, 5.844248
1156.529, 6.858082
1157.011, 7.500521
1157.493, 5.995075
1157.975, 4.657805
1158.458, 6.187000
1158.940, 9.097994
1159.422, 10.18126
1159.904, 9.080292
1160.386, 7.476229
1160.868, 4.170988
1161.350, 2.443296
1161.832, 4.020852
1162.314, 5.425263
1162.797, 4.939659
1163.279, 3.986271
1163.761, 4.140946
1164.243, 4.878860
1164.725, 4.310007
1165.207, 1.594934
1165.689, 0.5714370
1166.171, 1.594362
1166.654, 3.497722
1167.136, 6.654064
1167.618, 8.498450
1168.100, 6.881773
1168.582, 4.045378
1169.064, 4.011450
1169.546, 3.169055
1170.028, 3.113127
1170.510, 4.329911
1170.993, 4.445967
1171.475, 7.345304
1171.957, 8.593925
1172.439, 6.475822
1172.921, 3.833843
1173.403, 3.225489
1173.885, 2.559514
1174.367, 3.843288
1174.849, 3.725090
1175.332, 5.124641
1175.814, 7.433235
1176.296, 8.178095
1176.778, 7.036338
1177.260, 4.814212
1177.742, 1.918676
1178.224, 0.1429410
1178.706, 0.4079760
1179.189, 2.188665
1179.671, 4.347235
1180.153, 5.928440
1180.635, 4.442426
1181.117, 1.524953
1181.599, 1.582065
1182.081, 4.805491
1182.563, 6.404907
1183.046, 3.419319
1183.528, 0.8640060
1184.010, 2.628474
1184.492, 4.750450
1184.974, 3.752049
1185.456, 2.371294
1185.938, 4.468529
1186.420, 8.390173
1186.902, 9.040587
1187.385, 5.273381
1187.867, 2.365950
1188.349, 1.127677
1188.831, 1.146454
1189.313, 3.633413
1189.795, 5.828480
1190.277, 5.906730
1190.759, 5.483534
1191.241, 6.467266
1191.724, 6.088079
1192.206, 5.961272
1192.688, 6.478525
1193.170, 5.619617
1193.652, 6.369859
1194.134, 6.759204
1194.616, 6.482182
1195.098, 5.279434
1195.581, 4.673024
1196.063, 0.4231880
1196.545, 2.564858
1197.027, 0.5250940
1197.509, 8.6716004E-02
1197.991, 1.088032
1198.473, 0.6162470
1198.955, 1.793024
1199.438, 4.052667
1199.920, 4.953405
1200.402, 5.167726
1200.884, 5.084529
1201.366, 5.056311
1201.848, 5.773815
1202.330, 5.793862
1202.812, 6.817162
1203.294, 6.434052
1203.776, 6.491593
1204.259, 6.786415
1204.741, 6.282506
1205.223, 4.828644
1205.705, 3.721386
1206.187, 4.060001
1206.669, 3.982478
1207.151, 0.5877410
1207.633, 1.906324
1208.116, 0.9721360
1208.598, 5.534815
1209.080, 7.671981
1209.562, 7.766682
1210.044, 7.882952
1210.526, 8.296167
1211.008, 7.618575
1211.490, 3.146530
1211.973, 1.252738
1212.455, 6.515966
1212.937, 10.28701
1213.419, 7.099072
1213.901, 2.535941
1214.383, 2.208415
1214.865, 4.979216
1215.347, 7.070760
1215.829, 8.459107
1216.312, 9.463401
1216.794, 10.34274
1217.276, 9.062201
1217.758, 4.774696
1218.240, 1.718966
1218.722, 2.119975
1219.204, 3.365555
1219.686, 2.467930
1220.168, 0.3592210
1220.651, 1.030616
1221.133, 1.507124
1221.615, 0.3466870
1222.097, 3.880804
1222.579, 6.559111
1223.061, 7.829237
1223.543, 7.751057
1224.025, 6.373091
1224.508, 5.043121
1224.990, 4.972608
1225.472, 5.483993
1225.954, 6.314081
1226.436, 7.035490
1226.918, 7.099375
1227.400, 6.723576
1227.882, 5.903900
1228.365, 5.020147
1228.847, 5.758410
1229.329, 9.453127
1229.811, 10.99594
1230.293, 7.228121
1230.775, 3.527706
1231.257, 1.334557
1231.739, 9.7286999E-02
1232.221, 0.6691150
1232.703, 0.5841890
1233.186, 1.259368
1233.668, 4.421472
1234.150, 5.952221
1234.632, 5.493479
1235.114, 4.614167
1235.596, 3.029193
1236.078, 2.724777
1236.560, 4.428169
1237.043, 5.353926
1237.525, 3.692762
1238.007, 1.902905
1238.489, 3.411880
1238.971, 6.870008
1239.453, 8.612740
1239.935, 9.135116
1240.417, 10.28926
1240.900, 11.74029
1241.382, 11.77091
1241.864, 10.22068
1242.346, 8.103427
1242.828, 6.002177
1243.310, 4.702454
1243.792, 4.927746
1244.274, 6.169852
1244.756, 9.696225
1245.239, 12.44899
1245.721, 10.27453
1246.203, 6.022682
1246.685, 4.334105
1247.167, 5.005076
1247.649, 5.418272
1248.131, 4.775079
1248.613, 3.961758
1249.095, 2.477353
1249.578, 1.773624
1250.060, 2.316988
1250.542, 3.403014
1251.024, 5.127283
1251.506, 6.484686
1251.988, 6.100267
1252.470, 4.494272
1252.952, 3.735913
1253.435, 3.704070
1253.917, 3.145206
1254.399, 2.339224
1254.881, 2.522758
1255.363, 3.896843
1255.845, 5.489275
1256.327, 6.829558
1256.809, 7.537268
1257.292, 6.979883
1257.774, 6.240595
1258.256, 7.726318
1258.738, 9.238142
1259.220, 6.132912
1259.702, 7.139215
1260.184, 6.678675
1260.666, 4.977131
1261.148, 5.961538
1261.630, 2.853378
1262.113, 1.236306
1262.595, 5.486593
1263.077, 8.001452
1263.559, 5.222902
1264.041, 1.966162
1264.523, 8.6590998E-02
1265.005, 0.7798950
1265.487, 1.024953
1265.970, 0.2137370
1266.452, 1.134177
1266.934, 3.945131
1267.416, 7.266510
1267.898, 11.57431
1268.380, 11.94771
1268.862, 7.606213
1269.344, 5.754128
1269.827, 8.761660
1270.309, 11.20600
1270.791, 9.050531
1271.273, 5.070169
1271.755, 2.600253
1272.237, 1.424376
1272.719, 1.398052
1273.201, 2.261668
1273.683, 4.146420
1274.166, 6.288971
1274.648, 6.956303
1275.130, 6.075874
1275.612, 4.822390
1276.094, 4.002199
1276.576, 3.728970
1277.058, 2.985860
1277.540, 2.271590
1278.022, 1.616807
1278.505, 1.229492
1278.987, 1.354640
1279.469, 1.756843
1279.951, 2.350092
1280.433, 2.940259
1280.915, 2.663954
1281.397, 1.421265
1281.879, 0.5077180
1282.362, 0.1702700
1282.844, 1.102379
1283.326, 4.661791
1283.808, 6.751263
1284.290, 5.517632
1284.772, 3.305244
1285.254, 1.418672
1285.736, 0.0000000E+00
##END=



