##NAMES=Tyrolite
##RRUFFID=R050231
##IDEAL CHEMISTRY=Ca_2_Cu^2+^_9_(As^5+^O_4_)_4_(CO_3_)(OH)_8_&#183;11H_2_O
##LOCALITY=Tyrol, Austria
##OWNER=RRUFF
##SOURCE=Marcus Origlieri
##DESCRIPTION=Thin green scaly crystals
##STATUS=The identification of this mineral is confirmed by single-crystal X-ray diffraction and chemical analysis.
##URL=rruff.info/R050231
##MEASURED CHEMISTRY=(Ca_0.80_Fe^2+^_0.20_)_Σ=1_(Cu_4.86_Zn_0.11_[box]_0.03_)_Σ=5_((As_0.96_S_0.03_P_0.01_)_Σ=1_O4)_2_(CO_3_)(OH)_4_·6H_2_O
145.8685, 0.0000000E+00
146.3506, 0.1016690
146.8327, 2.3762999E-02
147.3148, 7.1859998E-03
147.7969, 0.1708880
148.2790, 0.3521870
148.7612, 0.4763610
149.2433, 0.5428430
149.7254, 0.5336390
150.2075, 0.3739660
150.6896, 0.1897840
151.1717, 0.1922810
151.6539, 0.4501580
152.1360, 0.7326230
152.6181, 0.8190160
153.1002, 0.6869460
153.5823, 0.5770550
154.0644, 0.6546130
154.5466, 0.7638910
155.0287, 0.7569950
155.5108, 0.5707010
155.9929, 0.3270180
156.4750, 0.2635730
156.9571, 0.5066400
157.4393, 0.6486720
157.9214, 0.4836790
158.4035, 0.2243290
158.8856, 9.2988998E-02
159.3677, 0.2134030
159.8498, 0.5491380
160.3320, 0.8679940
160.8141, 1.052300
161.2962, 1.102749
161.7783, 0.9143000
162.2604, 0.6114730
162.7425, 0.3665320
163.2247, 0.2890330
163.7068, 0.3641060
164.1889, 0.4103280
164.6710, 0.4069140
165.1531, 0.3991910
165.6352, 0.3880630
166.1174, 0.3827190
166.5995, 0.4066690
167.0816, 0.4787500
167.5637, 0.5988090
168.0458, 0.6229760
168.5279, 0.4826650
169.0101, 0.3220380
169.4922, 0.1891820
169.9743, 9.9519998E-02
170.4564, 0.1162300
170.9385, 0.2721160
171.4206, 0.5626260
171.9028, 0.6989770
172.3849, 0.5674510
172.8670, 0.3321540
173.3491, 0.1219150
173.8312, 6.1345998E-02
174.3133, 0.1662240
174.7955, 9.6571997E-02
175.2776, 0.1046930
175.7597, 0.2990320
176.2418, 0.5146920
176.7239, 0.7148420
177.2060, 0.8147570
177.6882, 0.7866670
178.1703, 0.7145200
178.6524, 0.6365470
179.1345, 0.5702150
179.6166, 0.5590690
180.0987, 0.6757890
180.5809, 0.8839400
181.0630, 0.9504520
181.5451, 0.7339320
182.0272, 0.5425300
182.5093, 0.5394910
182.9914, 0.6726790
183.4736, 0.7938010
183.9557, 0.7967090
184.4378, 0.6771530
184.9199, 0.5623150
185.4020, 0.4411280
185.8841, 0.3604070
186.3663, 0.2631180
186.8484, 0.1653940
187.3305, 0.1555890
187.8126, 0.3263760
188.2947, 0.7436550
188.7768, 0.9405970
189.2590, 0.7443490
189.7411, 0.5120290
190.2232, 0.3835060
190.7053, 0.3722620
191.1874, 0.4313560
191.6695, 0.5264610
192.1517, 0.6940920
192.6338, 0.7226370
193.1159, 0.5075260
193.5980, 0.2543820
194.0801, 6.5109998E-02
194.5622, 3.7422001E-02
195.0444, 5.0469000E-02
195.5265, 4.9603999E-02
196.0086, 0.3143330
196.4907, 0.4753230
196.9728, 0.4711720
197.4549, 0.3976630
197.9371, 0.3232790
198.4192, 0.2591800
198.9013, 0.2187910
199.3834, 0.2302750
199.8655, 0.2944540
200.3476, 0.3380100
200.8298, 0.3365800
201.3119, 0.3122200
201.7940, 0.3026050
202.2761, 0.3215810
202.7582, 0.3242300
203.2403, 0.2138320
203.7225, 2.6316000E-02
204.2046, 7.7209003E-02
204.6867, 1.4657000E-02
205.1688, 0.2294330
205.6509, 0.4086450
206.1330, 0.5410180
206.6152, 0.6153630
207.0973, 0.6249450
207.5794, 0.5777360
208.0615, 0.4897680
208.5436, 0.3070250
209.0257, 7.0551999E-02
209.5078, 3.2400000E-03
209.9900, 0.2220990
210.4721, 0.4508640
210.9542, 0.5125860
211.4363, 0.4388290
211.9184, 0.3267660
212.4005, 0.2271980
212.8827, 0.1410830
213.3648, 9.5697999E-02
213.8469, 0.1262070
214.3290, 0.1653530
214.8111, 0.1761460
215.2932, 0.1708830
215.7754, 0.1864570
216.2575, 0.2663670
216.7396, 0.4144220
217.2217, 0.5070220
217.7038, 0.5359210
218.1859, 0.5132000
218.6681, 0.3911760
219.1502, 0.2007830
219.6323, 4.0128000E-02
220.1144, 3.4570000E-03
220.5965, 8.2817003E-02
221.0786, 0.1461980
221.5608, 0.1603290
222.0429, 0.1795340
222.5250, 0.2356290
223.0071, 0.3160680
223.4892, 0.3860790
223.9713, 0.4196570
224.4535, 0.4202610
224.9356, 0.3431220
225.4177, 3.0060999E-02
225.8998, 0.2004030
226.3819, 0.1366730
226.8640, 0.1551360
227.3462, 0.4283300
227.8283, 0.4617650
228.3104, 0.2281670
228.7925, 0.1167520
229.2746, 0.1877930
229.7567, 0.3000850
230.2389, 0.4140020
230.7210, 0.5145820
231.2031, 0.5715620
231.6852, 0.5360610
232.1673, 0.4077190
232.6494, 0.3252880
233.1316, 0.3008060
233.6137, 0.3076670
234.0958, 0.3511970
234.5779, 0.4261100
235.0600, 0.4986040
235.5421, 0.5543950
236.0243, 0.5915210
236.5064, 0.5832390
236.9885, 0.4290350
237.4706, 0.3115350
237.9527, 0.4161250
238.4348, 0.7205900
238.9170, 0.9517510
239.3991, 0.8980400
239.8812, 0.6335320
240.3633, 0.4660620
240.8454, 0.4689150
241.3275, 0.5130070
241.8097, 0.4807720
242.2918, 0.3758440
242.7739, 0.3135670
243.2560, 0.3966020
243.7381, 0.5492520
244.2202, 0.6246550
244.7024, 0.5927670
245.1845, 0.5042440
245.6666, 0.3649810
246.1487, 0.1716810
246.6308, 6.1455999E-02
247.1129, 0.1861710
247.5951, 0.3848100
248.0772, 0.4433890
248.5593, 0.2886310
249.0414, 0.1051660
249.5235, 8.6058997E-02
250.0056, 0.2418750
250.4878, 0.4210470
250.9699, 0.6474330
251.4520, 0.8243370
251.9341, 0.8333800
252.4162, 0.6359570
252.8983, 0.3950130
253.3805, 0.2863110
253.8626, 0.3176360
254.3447, 0.3717120
254.8268, 0.4546280
255.3089, 0.5274760
255.7910, 0.5665730
256.2732, 0.5677880
256.7553, 0.5346110
257.2374, 0.4432740
257.7195, 0.2749710
258.2016, 0.1854820
258.6837, 0.2737530
259.1659, 0.3990370
259.6480, 0.5215460
260.1301, 0.6249180
260.6122, 0.6716830
261.0943, 0.5833330
261.5764, 0.3249530
262.0586, 0.1607550
262.5407, 0.2239310
263.0228, 0.3135700
263.5049, 0.3464260
263.9870, 0.3220100
264.4691, 0.2839540
264.9513, 0.2621520
265.4334, 0.2513740
265.9155, 0.2988210
266.3976, 0.5333660
266.8797, 0.7128770
267.3618, 0.7221190
267.8440, 0.5971890
268.3261, 0.4383780
268.8082, 0.3251320
269.2903, 0.2576490
269.7724, 0.2298430
270.2545, 0.2964730
270.7367, 0.3520090
271.2188, 0.3767980
271.7009, 0.3678500
272.1830, 0.3196780
272.6651, 0.2191260
273.1472, 7.2613001E-02
273.6294, 8.3160000E-03
274.1115, 7.4552000E-02
274.5936, 0.1271670
275.0757, 5.9503000E-02
275.5578, 5.9402000E-02
276.0399, 0.1031280
276.5221, 1.4664000E-02
277.0042, 0.2545050
277.4863, 0.3809020
277.9684, 0.2777690
278.4505, 0.1791880
278.9326, 6.9178998E-02
279.4148, 1.1992000E-02
279.8969, 5.6850002E-03
280.3790, 0.1604710
280.8611, 0.3922500
281.3432, 0.5051840
281.8253, 0.3796120
282.3075, 0.2685790
282.7896, 0.1226970
283.2717, 2.1220000E-02
283.7538, 9.2454001E-02
284.2359, 0.4014020
284.7180, 0.8087850
285.2002, 0.9894490
285.6823, 0.7102020
286.1644, 0.5091460
286.6465, 0.4508880
287.1286, 0.4320380
287.6107, 0.3259630
288.0929, 0.1097850
288.5750, 8.7240003E-02
289.0571, 5.2138001E-02
289.5392, 0.4258700
290.0213, 0.6532750
290.5034, 0.4482680
290.9856, 0.1373530
291.4677, 7.8139000E-02
291.9498, 0.1546000
292.4319, 0.1165390
292.9140, 2.7856000E-02
293.3961, 0.3282450
293.8783, 0.5082780
294.3604, 0.4741400
294.8425, 0.4153110
295.3246, 0.4663800
295.8067, 0.6110190
296.2888, 0.7218300
296.7710, 0.6795840
297.2531, 0.4741470
297.7352, 0.3394440
298.2173, 0.3124290
298.6994, 0.3052390
299.1815, 0.2808620
299.6637, 0.2447150
300.1458, 0.2186920
300.6279, 0.2172770
301.1100, 0.2383990
301.5921, 0.2654560
302.0742, 0.3375410
302.5564, 0.3713500
303.0385, 0.2982610
303.5206, 0.1761080
304.0027, 0.1146250
304.4848, 0.1725290
304.9669, 0.3080010
305.4491, 0.3919000
305.9312, 0.3937020
306.4133, 0.3889880
306.8954, 0.4051280
307.3775, 0.4140910
307.8596, 0.3561120
308.3418, 0.2087640
308.8239, 5.2416001E-02
309.3060, 3.7781000E-02
309.7881, 0.2659360
310.2702, 0.4279900
310.7523, 0.5015000
311.2345, 0.5103850
311.7166, 0.4524530
312.1987, 0.3341600
312.6808, 0.2107270
313.1629, 0.1455160
313.6451, 0.1522100
314.1272, 0.1854630
314.6093, 0.2495620
315.0914, 0.3139360
315.5735, 0.4184020
316.0556, 0.5446680
316.5378, 0.5948130
317.0199, 0.4616780
317.5020, 0.1404510
317.9841, 9.2780003E-03
318.4662, 0.1462530
318.9483, 0.3130910
319.4305, 0.3607290
319.9126, 0.3115970
320.3947, 0.2347480
320.8768, 0.1590070
321.3589, 0.1007800
321.8410, 0.1551790
322.3232, 0.4716420
322.8053, 0.7053590
323.2874, 0.7114140
323.7695, 0.5963230
324.2516, 0.5396440
324.7337, 0.6197790
325.2159, 0.7543110
325.6980, 0.7547660
326.1801, 0.5201900
326.6622, 0.3264660
327.1443, 0.1963510
327.6264, 0.1133970
328.1086, 5.7948001E-02
328.5907, 2.6132001E-02
329.0728, 3.6679000E-02
329.5549, 0.1266460
330.0370, 0.3523720
330.5191, 0.4608270
331.0013, 0.3561940
331.4834, 0.2120600
331.9655, 0.1323220
332.4476, 0.1288140
332.9297, 0.1799610
333.4118, 0.2732340
333.8939, 0.4133560
334.3760, 0.5203420
334.8582, 0.6405360
335.3403, 0.6797980
335.8224, 0.5340940
336.3045, 0.2758320
336.7866, 6.9531001E-02
337.2687, 1.6702000E-02
337.7509, 8.5523002E-02
338.2330, 0.1210640
338.7151, 0.1062000
339.1972, 8.0495000E-02
339.6793, 6.2000001E-04
340.1614, 7.2168000E-02
340.6436, 3.4012999E-02
341.1257, 0.1525450
341.6078, 0.3912110
342.0899, 0.4941950
342.5720, 0.3595970
343.0541, 0.2524800
343.5363, 0.1808200
344.0184, 0.1294790
344.5005, 7.7041999E-02
344.9826, 2.5139000E-02
345.4647, 6.9599999E-03
345.9468, 7.0370004E-02
346.4290, 0.2478200
346.9111, 0.3284930
347.3932, 0.2467930
347.8753, 0.1495890
348.3574, 8.5945003E-02
348.8395, 6.4620003E-02
349.3217, 8.4688000E-02
349.8038, 0.1510290
350.2859, 0.2657370
350.7680, 0.3697660
351.2501, 0.4950300
351.7322, 0.5598470
352.2144, 0.4904490
352.6965, 0.3691660
353.1786, 0.3117580
353.6607, 0.3706480
354.1428, 0.4944900
354.6249, 0.5662620
355.1071, 0.5877800
355.5892, 0.5438550
356.0713, 0.3347910
356.5534, 0.1319600
357.0355, 9.2303999E-02
357.5176, 0.2312500
357.9998, 0.4237170
358.4819, 0.5093080
358.9640, 0.4475360
359.4461, 0.4477550
359.9282, 0.6435540
360.4103, 0.7985940
360.8925, 0.7076150
361.3746, 0.4295940
361.8567, 0.1923470
362.3388, 0.1569450
362.8209, 0.3024900
363.3030, 0.4400480
363.7852, 0.6022970
364.2673, 0.7085140
364.7494, 0.7410380
365.2315, 0.7109560
365.7136, 0.6063990
366.1957, 0.4175740
366.6779, 0.2185620
367.1600, 0.1877460
367.6421, 0.4415850
368.1242, 0.5906380
368.6063, 0.4907900
369.0884, 0.3324530
369.5706, 0.2423830
370.0527, 0.2427710
370.5348, 0.2613450
371.0169, 0.1512620
371.4990, 9.4760001E-02
371.9811, 0.1791020
372.4633, 7.5686000E-02
372.9454, 0.3173160
373.4275, 0.3672860
373.9096, 0.2793020
374.3917, 0.1970760
374.8738, 0.2105450
375.3560, 0.2896430
375.8381, 0.3413580
376.3202, 0.3583660
376.8023, 0.3677560
377.2844, 0.3628290
377.7665, 0.3637700
378.2487, 0.4047780
378.7308, 0.5171990
379.2129, 0.6387600
379.6950, 0.6335430
380.1771, 0.5202410
380.6592, 0.4502490
381.1414, 0.4972750
381.6235, 0.5673940
382.1056, 0.5725050
382.5877, 0.5139680
383.0698, 0.4624980
383.5519, 0.4822580
384.0341, 0.5432390
384.5162, 0.5490630
384.9983, 0.4798280
385.4804, 0.3851170
385.9625, 0.2708730
386.4446, 0.1582010
386.9268, 0.1035610
387.4089, 0.1580090
387.8910, 0.2487020
388.3731, 0.3036800
388.8552, 0.3234570
389.3373, 0.3209010
389.8195, 0.2923700
390.3016, 0.2505370
390.7837, 0.2059860
391.2658, 0.1290610
391.7479, 0.1331690
392.2300, 0.3707240
392.7122, 0.7199300
393.1943, 0.9050940
393.6764, 0.8446530
394.1585, 0.6718910
394.6406, 0.5240640
395.1227, 0.4012250
395.6049, 0.2899160
396.0870, 0.1445760
396.5691, 4.1214999E-02
397.0512, 8.2849003E-02
397.5333, 0.2534770
398.0154, 0.3980700
398.4976, 0.4064320
398.9797, 0.3100350
399.4618, 0.3106110
399.9439, 0.5298650
400.4260, 0.6883220
400.9081, 0.6711090
401.3903, 0.5472890
401.8724, 0.4153600
402.3545, 0.3103620
402.8366, 0.2318580
403.3187, 0.1816920
403.8008, 0.1712740
404.2830, 0.1690800
404.7651, 0.1903290
405.2472, 0.2078860
405.7293, 0.1827530
406.2114, 0.1290060
406.6935, 0.1108020
407.1757, 0.1975390
407.6578, 0.3841880
408.1399, 0.4656540
408.6220, 0.3318030
409.1041, 0.2167060
409.5862, 0.1460510
410.0684, 0.1302060
410.5505, 0.2013500
411.0326, 0.3721940
411.5147, 0.5704400
411.9968, 0.6380830
412.4789, 0.4736870
412.9611, 0.4048480
413.4432, 0.5311590
413.9253, 0.6777150
414.4074, 0.7345700
414.8895, 0.7034430
415.3716, 0.6629520
415.8538, 0.7171790
416.3359, 0.8492990
416.8180, 0.7429960
417.3001, 0.1135980
417.7822, 0.3443700
418.2643, 0.2964960
418.7465, 1.4936000E-02
419.2286, 0.2646760
419.7107, 0.3240060
420.1928, 0.2810280
420.6749, 0.2593570
421.1570, 0.2608800
421.6392, 0.2707180
422.1213, 0.2971700
422.6034, 0.3207710
423.0855, 0.3399400
423.5676, 0.3509290
424.0497, 0.3177850
424.5319, 0.1380490
425.0140, 0.1001230
425.4961, 9.8215997E-02
425.9782, 0.2481880
426.4603, 0.5378530
426.9424, 0.3480630
427.4246, 8.6530000E-02
427.9067, 0.2853160
428.3888, 3.9379999E-02
428.8709, 0.3055160
429.3530, 0.4794300
429.8351, 0.5113680
430.3173, 0.5481720
430.7994, 0.6339390
431.2815, 0.7152910
431.7636, 0.6780730
432.2457, 0.5054910
432.7278, 0.3728830
433.2100, 0.3168460
433.6921, 0.3217990
434.1742, 0.4365500
434.6563, 0.6426180
435.1384, 0.7225050
435.6205, 0.4428570
436.1027, 0.1546180
436.5848, 0.3757860
437.0669, 7.4313998E-02
437.5490, 0.4948290
438.0311, 0.6484800
438.5132, 0.6362860
438.9954, 0.6241320
439.4775, 0.6741840
439.9596, 0.7306720
440.4417, 0.6883540
440.9238, 0.4649540
441.4059, 0.3353120
441.8881, 0.3862280
442.3702, 0.4409450
442.8523, 0.3637700
443.3344, 0.1922330
443.8165, 6.7787997E-02
444.2986, 0.1005070
444.7808, 0.2655060
445.2629, 0.4123280
445.7450, 0.5434250
446.2271, 0.6493500
446.7092, 0.7805710
447.1913, 0.8617460
447.6735, 0.7780550
448.1556, 0.5088000
448.6377, 0.2230730
449.1198, 0.1497610
449.6019, 0.3060530
450.0840, 0.3726610
450.5662, 0.2452790
451.0483, 0.1213860
451.5304, 0.1067390
452.0125, 0.1783290
452.4946, 0.2826130
452.9767, 0.4337980
453.4589, 0.5697820
453.9410, 0.5477150
454.4231, 0.3493500
454.9052, 0.2492660
455.3873, 0.4397260
455.8694, 0.7163170
456.3516, 0.7871600
456.8337, 0.6212050
457.3158, 0.4320910
457.7979, 0.3105740
458.2800, 0.2349730
458.7621, 0.1642960
459.2443, 9.1435999E-02
459.7264, 4.8207000E-02
460.2085, 6.6783004E-02
460.6906, 0.1443300
461.1727, 0.2195600
461.6548, 0.3507030
462.1370, 0.4181450
462.6191, 0.2858620
463.1012, 6.1705001E-02
463.5833, 2.6861001E-02
464.0654, 0.1079430
464.5475, 0.3467140
465.0297, 0.4905710
465.5118, 0.4965340
465.9939, 0.5051960
466.4760, 0.5046010
466.9581, 0.5167530
467.4402, 0.5931360
467.9224, 0.6982690
468.4045, 0.7193820
468.8866, 0.5641410
469.3687, 0.2936750
469.8508, 0.1989160
470.3329, 0.4263430
470.8151, 0.5982680
471.2972, 0.6379250
471.7793, 0.6258960
472.2614, 0.6201540
472.7435, 0.6349080
473.2256, 0.6635080
473.7078, 0.7186820
474.1899, 0.7984730
474.6720, 0.8028540
475.1541, 0.6841360
475.6362, 0.5384650
476.1183, 0.4156550
476.6005, 0.3542300
477.0826, 0.3884340
477.5647, 0.5654780
478.0468, 0.7639520
478.5289, 0.8379450
479.0110, 0.8011620
479.4932, 0.7970260
479.9753, 0.8880830
480.4574, 0.9835030
480.9395, 0.9593600
481.4216, 0.8291240
481.9037, 0.7220610
482.3859, 0.6393210
482.8680, 0.6086000
483.3501, 0.7217770
483.8322, 0.9610550
484.3143, 1.156456
484.7964, 1.226194
485.2786, 1.176632
485.7607, 1.031407
486.2428, 0.6951320
486.7249, 0.5013980
487.2070, 0.5670500
487.6891, 0.7389640
488.1713, 0.9057280
488.6534, 1.035741
489.1355, 1.106761
489.6176, 1.092875
490.0997, 0.9960680
490.5818, 0.9016430
491.0640, 0.7734700
491.5461, 0.6925700
492.0282, 0.6769190
492.5103, 0.7135310
492.9924, 0.8130150
493.4745, 0.9714070
493.9567, 1.105120
494.4388, 1.114760
494.9209, 1.030971
495.4030, 0.9215190
495.8851, 0.7427470
496.3672, 0.5996930
496.8494, 0.5564600
497.3315, 0.5803800
497.8136, 0.6040490
498.2957, 0.5930860
498.7778, 0.5915560
499.2599, 0.6824600
499.7420, 0.8615300
500.2242, 0.9782310
500.7063, 0.9820210
501.1884, 0.9170170
501.6705, 0.8234490
502.1526, 0.7029670
502.6347, 0.5928480
503.1169, 0.4719770
503.5990, 0.3862390
504.0811, 0.4159550
504.5632, 0.5376580
505.0453, 0.6046350
505.5274, 0.5301120
506.0096, 0.3814850
506.4917, 0.3593290
506.9738, 0.6020380
507.4559, 0.7442700
507.9380, 0.6777380
508.4201, 0.5628930
508.9023, 0.5618700
509.3844, 0.6625890
509.8665, 0.7108240
510.3486, 0.3185210
510.8307, 0.6234690
511.3128, 0.7937470
511.7950, 0.8372270
512.2771, 0.3721080
512.7592, 0.5632820
513.2413, 0.4909930
513.7234, 0.4079060
514.2056, 0.6916340
514.6877, 0.2994490
515.1698, 0.5775030
515.6519, 0.5901520
516.1340, 0.7231850
516.6161, 0.5909660
517.0983, 0.5406330
517.5804, 0.7554140
518.0625, 0.8234460
518.5446, 0.6607380
519.0267, 0.8014370
519.5089, 0.4000620
519.9910, 0.4743780
520.4731, 0.7539370
520.9552, 0.6045930
521.4373, 0.7488920
521.9194, 0.7853790
522.4016, 0.3199460
522.8837, 0.7368780
523.3658, 0.7635300
523.8479, 0.3959930
524.3300, 0.7761520
524.8121, 0.4629720
525.2943, 0.3972790
525.7764, 0.5178400
526.2585, 0.4442520
526.7406, 0.6767790
527.2227, 0.6144160
527.7048, 0.5257110
528.1870, 0.5519940
528.6691, 0.2524600
529.1512, 0.5574000
529.6333, 0.4494430
530.1154, 0.5467380
530.5975, 0.6905600
531.0797, 0.4781740
531.5618, 0.6429110
532.0439, 0.2228350
532.5260, 0.2925480
533.0081, 0.3216800
533.4902, 0.6657620
533.9724, 0.2501750
534.4545, 0.3060740
534.9366, 0.5633310
535.4187, 0.5432310
535.9008, 0.6373770
536.3829, 0.3819810
536.8651, 0.4541870
537.3472, 0.4360990
537.8293, 0.7300480
538.3114, 0.7776650
538.7935, 0.5282050
539.2756, 0.2800070
539.7578, 0.5964260
540.2399, 0.3777030
540.7220, 0.4477300
541.2041, 0.2196240
541.6862, 0.2489720
542.1683, 0.2743380
542.6505, 0.4318450
543.1326, 0.1891130
543.6147, 0.4654080
544.0968, 0.4417000
544.5789, 0.5063750
545.0610, 0.5612200
545.5432, 0.2134590
546.0253, 0.1957440
546.5074, 0.6502890
546.9895, 0.3846200
547.4716, 0.2643180
547.9537, 0.2473540
548.4359, 0.7180810
548.9180, 0.7355100
549.4001, 0.2111070
549.8822, 0.6603800
550.3643, 0.5106640
550.8464, 0.5389120
551.3286, 0.3991370
551.8107, 0.3463370
552.2928, 0.3206340
552.7749, 0.3659310
553.2570, 0.4277290
553.7391, 0.4640650
554.2213, 0.4680520
554.7034, 0.3888390
555.1855, 0.1716560
555.6676, 6.5569997E-02
556.1497, 7.0515998E-02
556.6318, 0.3239610
557.1140, 0.5641160
557.5961, 0.5360060
558.0782, 0.4437650
558.5603, 0.3872710
559.0424, 0.3822000
559.5245, 0.4363210
560.0067, 0.5636340
560.4888, 0.7144820
560.9709, 0.7684850
561.4530, 0.7236170
561.9351, 0.5867360
562.4172, 0.1852630
562.8994, 0.1599190
563.3815, 0.2623080
563.8636, 0.1600530
564.3457, 8.5190004E-03
564.8278, 0.2296120
565.3099, 0.4182360
565.7921, 0.3845370
566.2742, 0.1428000
566.7563, 4.0615998E-02
567.2384, 0.2568430
567.7205, 0.5416150
568.2026, 0.5218950
568.6848, 0.2049580
569.1669, 1.2039000E-02
569.6490, 2.0974001E-02
570.1311, 4.4172999E-02
570.6132, 0.1409500
571.0953, 0.2366700
571.5775, 0.2536710
572.0596, 0.1566520
572.5417, 1.8634001E-02
573.0238, 3.4410998E-02
573.5059, 1.2710000E-02
573.9880, 0.1005390
574.4702, 0.3131800
574.9523, 0.4773610
575.4344, 0.4724140
575.9165, 0.3820610
576.3986, 0.3737910
576.8807, 0.5311930
577.3629, 0.7063690
577.8450, 0.6671910
578.3271, 0.4164420
578.8092, 0.1820820
579.2913, 4.4394001E-02
579.7734, 0.1797700
580.2555, 9.3781002E-02
580.7376, 0.1330240
581.2197, 0.3087530
581.7018, 0.4062900
582.1840, 0.4334460
582.6661, 0.3392840
583.1482, 0.1895330
583.6303, 0.1209130
584.1124, 0.1670350
584.5945, 0.2587580
585.0767, 0.3322570
585.5588, 0.3881540
586.0409, 0.4003450
586.5230, 0.3123530
587.0051, 0.2520060
587.4872, 0.2834410
587.9694, 0.3372960
588.4515, 0.3405980
588.9336, 0.2766460
589.4157, 0.1704030
589.8978, 1.0532000E-02
590.3799, 0.1835090
590.8621, 0.2160100
591.3442, 5.4640002E-03
591.8263, 0.1664230
592.3084, 8.6110003E-02
592.7905, 5.1608998E-02
593.2726, 5.2990001E-03
593.7548, 0.3105170
594.2369, 0.5585050
594.7190, 0.5562340
595.2011, 0.4250480
595.6832, 0.3051460
596.1653, 0.2147160
596.6475, 0.1868010
597.1296, 0.2579920
597.6117, 0.3788420
598.0938, 0.4069780
598.5759, 0.2575760
599.0580, 0.1468790
599.5402, 7.0704997E-02
600.0223, 3.7103999E-02
600.5044, 5.4962002E-02
600.9865, 0.1198670
601.4686, 0.2314170
601.9507, 0.3979930
602.4329, 0.5762970
602.9150, 0.6716900
603.3971, 0.6772260
603.8792, 0.6433730
604.3613, 0.5460540
604.8434, 0.4489490
605.3256, 0.4157220
605.8077, 0.4224870
606.2898, 0.3881070
606.7719, 0.2350730
607.2540, 9.6031003E-02
607.7361, 9.2619002E-02
608.2183, 0.1845850
608.7004, 0.2711730
609.1825, 0.3264240
609.6646, 0.3809760
610.1467, 0.4843740
610.6288, 0.6436330
611.1110, 0.6820930
611.5931, 0.4815350
612.0752, 0.3159260
612.5573, 0.2195720
613.0394, 0.2036760
613.5215, 0.3416760
614.0037, 0.6123620
614.4858, 0.8031160
614.9679, 0.6552370
615.4500, 0.2445220
615.9321, 7.4939998E-03
616.4142, 2.4095001E-02
616.8964, 8.2139997E-03
617.3785, 4.9600001E-02
617.8606, 0.1325540
618.3427, 0.3354450
618.8248, 0.6754420
619.3069, 0.8962250
619.7891, 0.8399400
620.2712, 0.6677580
620.7533, 0.4969960
621.2354, 0.3464300
621.7175, 0.2480080
622.1996, 0.2153420
622.6818, 0.2218080
623.1639, 0.2363380
623.6460, 0.2578770
624.1281, 0.2911930
624.6102, 0.3672130
625.0923, 0.4213240
625.5745, 0.4215150
626.0566, 0.3845030
626.5387, 0.3397590
627.0208, 0.2866840
627.5029, 0.2364270
627.9850, 0.2349740
628.4672, 0.2746040
628.9493, 0.2750380
629.4314, 0.2188440
629.9135, 0.1580510
630.3956, 0.1022680
630.8777, 7.1599998E-02
631.3599, 0.1310780
631.8420, 0.3500230
632.3241, 0.4980320
632.8062, 0.4559880
633.2883, 0.3400490
633.7704, 0.2456920
634.2526, 0.1904100
634.7347, 0.1798070
635.2168, 0.2209200
635.6989, 0.2949170
636.1810, 0.3476900
636.6631, 0.3644140
637.1453, 0.3887640
637.6274, 0.4252980
638.1095, 0.4808090
638.5916, 0.5993740
639.0737, 0.7258860
639.5558, 0.7366380
640.0380, 0.5369380
640.5201, 0.3216770
641.0022, 0.2945750
641.4843, 0.4076710
641.9664, 0.5011920
642.4485, 0.5479230
642.9307, 0.5405190
643.4128, 0.4528960
643.8949, 0.3002690
644.3770, 0.2231420
644.8591, 0.2898660
645.3412, 0.3294850
645.8234, 0.2689740
646.3055, 0.2026530
646.7876, 0.2424310
647.2697, 0.3680220
647.7518, 0.4687240
648.2339, 0.4562370
648.7161, 0.3725090
649.1982, 0.2894750
649.6803, 0.1812620
650.1624, 0.1631150
650.6445, 0.3317400
651.1266, 0.5076270
651.6088, 0.5069930
652.0909, 0.3694970
652.5730, 0.2520020
653.0551, 0.1709590
653.5372, 0.1382600
654.0193, 0.1881810
654.5015, 0.2827220
654.9836, 0.3602150
655.4657, 0.4062650
655.9478, 0.4337970
656.4299, 0.4545920
656.9120, 0.4677050
657.3942, 0.4620670
657.8763, 0.4188220
658.3584, 0.3897250
658.8405, 0.3866780
659.3226, 0.3927700
659.8047, 0.3954080
660.2869, 0.3946210
660.7690, 0.3965090
661.2511, 0.4004540
661.7332, 0.4181610
662.2153, 0.4898080
662.6974, 0.6035380
663.1796, 0.6626090
663.6617, 0.6345800
664.1438, 0.5743370
664.6259, 0.5464040
665.1080, 0.5515960
665.5901, 0.4815740
666.0723, 0.1921880
666.5544, 1.7809000E-02
667.0365, 0.1516440
667.5186, 0.3665370
668.0007, 0.4144520
668.4828, 0.2855290
668.9650, 0.1605780
669.4471, 0.1941180
669.9292, 0.3180570
670.4113, 0.3095560
670.8934, 0.1442010
671.3755, 0.1008320
671.8577, 0.3266630
672.3398, 0.5832340
672.8219, 0.5756080
673.3040, 0.3624510
673.7861, 0.2705480
674.2682, 0.4796370
674.7504, 0.6779960
675.2325, 0.6745870
675.7146, 0.5816240
676.1967, 0.5703840
676.6788, 0.6693180
677.1609, 0.7572440
677.6431, 0.7164960
678.1252, 0.5751240
678.6073, 0.4936830
679.0894, 0.4964270
679.5715, 0.5012330
680.0536, 0.5131010
680.5358, 0.5073110
681.0179, 0.4395130
681.5000, 0.3297380
681.9821, 0.2433390
682.4642, 0.2351550
682.9464, 0.2215720
683.4285, 8.2000002E-02
683.9106, 0.1068270
684.3927, 0.1550040
684.8748, 2.4019999E-02
685.3569, 0.1543170
685.8391, 0.2659730
686.3212, 0.3187440
686.8033, 0.3789110
687.2854, 0.4753740
687.7675, 0.5315000
688.2496, 0.5256350
688.7318, 0.4928910
689.2139, 0.4321630
689.6960, 0.3670360
690.1781, 0.3532330
690.6602, 0.4525490
691.1423, 0.5654600
691.6245, 0.5766220
692.1066, 0.5006710
692.5887, 0.3658320
693.0708, 0.1692030
693.5529, 1.2214000E-02
694.0350, 2.3872999E-02
694.5172, 4.9853001E-02
694.9993, 0.1644490
695.4814, 0.4607460
695.9635, 0.5993720
696.4456, 0.4414420
696.9277, 0.2204800
697.4099, 4.0876001E-02
697.8920, 5.5870999E-02
698.3741, 5.4029999E-03
698.8562, 0.2986320
699.3383, 0.6311270
699.8204, 0.7221670
700.3026, 0.5989280
700.7847, 0.4333010
701.2668, 0.2265220
701.7489, 8.4301002E-02
702.2310, 0.1178500
702.7131, 0.2643500
703.1953, 0.2857300
703.6774, 9.2960000E-02
704.1595, 3.5493001E-02
704.6416, 4.9045000E-02
705.1237, 2.4870001E-03
705.6058, 0.1116030
706.0880, 0.2524360
706.5701, 0.3868230
707.0522, 0.4964940
707.5343, 0.5787750
708.0164, 0.6388830
708.4985, 0.6738370
708.9807, 0.6153960
709.4628, 0.4167960
709.9449, 0.2715270
710.4270, 0.3260970
710.9091, 0.4814690
711.3912, 0.5285000
711.8734, 0.4470460
712.3555, 0.3463380
712.8376, 0.2057850
713.3197, 9.1210999E-02
713.8018, 6.6812001E-02
714.2839, 9.8481998E-02
714.7661, 0.1020890
715.2482, 5.0361000E-02
715.7303, 2.1284999E-02
716.2124, 0.1611490
716.6945, 0.4472260
717.1766, 0.5046930
717.6588, 0.2572760
718.1409, 2.7392000E-02
718.6230, 7.8642003E-02
719.1051, 8.4914997E-02
719.5872, 1.0250000E-02
720.0693, 0.2130790
720.5515, 0.3218180
721.0336, 0.2019860
721.5157, 7.3129997E-02
721.9978, 7.6122999E-02
722.4799, 0.1541610
722.9620, 0.2162800
723.4442, 0.2370680
723.9263, 0.2341610
724.4084, 0.2221650
724.8905, 0.2026500
725.3726, 0.1648430
725.8547, 9.7447000E-02
726.3369, 6.2226001E-02
726.8190, 0.1076430
727.3011, 0.1530970
727.7832, 9.9307999E-02
728.2653, 2.7234999E-02
728.7474, 9.7956002E-02
729.2296, 6.9412000E-02
729.7117, 8.0049997E-03
730.1938, 0.1005900
730.6759, 0.2006240
731.1580, 0.2112470
731.6401, 0.1358600
732.1223, 3.5422001E-02
732.6044, 5.8015000E-02
733.0865, 0.1128640
733.5686, 1.8572001E-02
734.0507, 0.2597150
734.5328, 0.4414480
735.0150, 0.4749060
735.4971, 0.4379200
735.9792, 0.3517050
736.4613, 0.2368010
736.9434, 0.1232070
737.4255, 1.4831000E-02
737.9077, 7.6981001E-02
738.3898, 2.5750000E-02
738.8719, 0.1736540
739.3540, 0.2765380
739.8361, 0.3303660
740.3182, 0.3572500
740.8004, 0.3671240
741.2825, 0.3506620
741.7646, 0.2605610
742.2467, 0.1020460
742.7288, 6.4940996E-02
743.2109, 0.1970370
743.6931, 0.2938550
744.1752, 0.2493980
744.6573, 0.1415480
745.1394, 8.3696999E-02
745.6215, 7.9522997E-02
746.1036, 6.0539000E-02
746.5858, 3.3801001E-02
747.0679, 9.6152999E-02
747.5500, 1.9847000E-02
748.0321, 0.1083580
748.5142, 0.1388510
748.9963, 5.2726001E-02
749.4785, 2.4587000E-02
749.9606, 2.2504000E-02
750.4427, 0.1589730
750.9248, 0.2795990
751.4069, 0.3871640
751.8890, 0.4262950
752.3712, 0.3660550
752.8533, 0.2788990
753.3354, 0.2298520
753.8175, 0.2115460
754.2996, 0.1792960
754.7817, 0.1324630
755.2639, 7.0249997E-02
755.7460, 5.5854000E-02
756.2281, 0.1581840
756.7102, 0.1613240
757.1923, 8.2584001E-02
757.6744, 2.1461001E-02
758.1566, 0.1255390
758.6387, 0.2154380
759.1208, 0.2808670
759.6029, 0.3176210
760.0850, 0.2609910
760.5671, 7.7986002E-02
761.0493, 2.1546001E-02
761.5314, 0.1134710
762.0135, 0.3465890
762.4956, 0.4201840
762.9777, 0.2822080
763.4598, 0.1849280
763.9420, 0.1222750
764.4241, 0.1079740
764.9062, 0.1601480
765.3883, 0.2580940
765.8704, 0.4067610
766.3525, 0.5894360
766.8347, 0.7146230
767.3168, 0.7026660
767.7989, 0.5925600
768.2810, 0.4100470
768.7631, 0.1753920
769.2452, 6.8502001E-02
769.7274, 0.1484440
770.2095, 0.2734640
770.6916, 0.3085460
771.1737, 0.2685290
771.6558, 0.2775800
772.1379, 0.4235040
772.6201, 0.4868970
773.1022, 0.3795860
773.5843, 0.2594780
774.0664, 0.2250120
774.5485, 0.2543120
775.0306, 0.2918600
775.5128, 0.3241820
775.9949, 0.3319580
776.4770, 0.2730040
776.9591, 0.1888080
777.4412, 0.1433350
777.9233, 0.1360370
778.4055, 0.1520340
778.8876, 0.1833750
779.3697, 0.2547840
779.8518, 0.4387060
780.3339, 0.7741520
780.8160, 0.8299870
781.2982, 0.3673240
781.7803, 1.5053000E-02
782.2624, 9.6850004E-03
782.7445, 0.1484540
783.2266, 0.2852880
783.7087, 0.4074050
784.1909, 0.5123240
784.6730, 0.6340550
785.1551, 0.7008890
785.6372, 0.6061830
786.1193, 0.4522310
786.6014, 0.3792770
787.0836, 0.4190300
787.5657, 0.5749710
788.0478, 0.8684290
788.5299, 1.177146
789.0120, 1.166869
789.4941, 0.7966240
789.9763, 0.6238700
790.4584, 0.7841880
790.9405, 0.9260500
791.4226, 0.8410070
791.9047, 0.6199090
792.3868, 0.4466270
792.8690, 0.3125250
793.3511, 0.2560680
793.8332, 0.3523570
794.3153, 0.4530510
794.7974, 0.4602250
795.2795, 0.4285720
795.7617, 0.4558890
796.2438, 0.5621530
796.7259, 0.6449000
797.2080, 0.5869230
797.6901, 0.4854440
798.1722, 0.6061550
798.6544, 0.9071410
799.1365, 0.9774020
799.6186, 0.6886950
800.1007, 0.4023110
800.5828, 0.4444960
801.0649, 0.7334010
801.5471, 0.8628370
802.0292, 0.6493880
802.5113, 0.5894110
802.9934, 0.8547120
803.4755, 1.095682
803.9576, 1.115110
804.4398, 1.003320
804.9219, 0.9265880
805.4040, 0.9372490
805.8861, 0.9176010
806.3682, 0.7250560
806.8503, 0.5177400
807.3325, 0.5359390
807.8146, 0.6994750
808.2967, 0.7188350
808.7788, 0.5146320
809.2609, 0.3284340
809.7430, 0.4341980
810.2252, 0.7687430
810.7073, 0.9232920
811.1894, 0.8396140
811.6715, 0.8148520
812.1536, 0.9695410
812.6357, 1.107326
813.1179, 0.9982450
813.6000, 0.7497510
814.0821, 0.7099500
814.5642, 1.085116
815.0463, 1.300908
815.5284, 1.070042
816.0106, 0.7685720
816.4927, 0.6273830
816.9748, 0.6334930
817.4569, 0.7484610
817.9390, 0.9502310
818.4211, 1.127147
818.9033, 1.133192
819.3854, 1.046232
819.8675, 1.079632
820.3496, 1.216903
820.8317, 1.265612
821.3138, 1.160710
821.7960, 1.007466
822.2781, 0.9050480
822.7602, 0.8500750
823.2423, 0.8139470
823.7244, 0.8026900
824.2065, 0.7984730
824.6887, 0.7490560
825.1708, 0.7570420
825.6529, 0.9463150
826.1350, 1.213629
826.6171, 1.352337
827.0992, 1.300551
827.5814, 1.222861
828.0635, 1.155945
828.5456, 1.135814
829.0277, 1.245229
829.5098, 1.419588
829.9919, 1.509584
830.4741, 1.474104
830.9562, 1.394879
831.4383, 1.347818
831.9204, 1.333193
832.4025, 1.290369
832.8846, 1.192013
833.3668, 1.235544
833.8489, 1.527331
834.3310, 1.768726
834.8131, 1.677263
835.2952, 1.363669
835.7773, 1.259679
836.2595, 1.527895
836.7416, 1.691615
837.2237, 1.708810
837.7058, 1.662609
838.1879, 1.516064
838.6700, 1.366061
839.1522, 1.376080
839.6343, 1.568993
840.1164, 1.716916
840.5985, 1.693248
841.0806, 1.551193
841.5627, 1.237657
842.0449, 0.8718370
842.5270, 0.7811860
843.0091, 0.9946990
843.4912, 1.152894
843.9733, 0.9593780
844.4554, 0.5919350
844.9376, 0.5522560
845.4197, 0.8811160
845.9018, 1.094672
846.3839, 1.126786
846.8660, 1.105630
847.3481, 1.059349
847.8303, 1.029481
848.3124, 1.124170
848.7945, 1.395205
849.2766, 1.509149
849.7587, 1.370821
850.2408, 1.173781
850.7230, 0.8462430
851.2051, 0.5868840
851.6872, 0.6782670
852.1693, 1.049612
852.6514, 1.304515
853.1335, 1.226025
853.6157, 1.021169
854.0978, 0.8233390
854.5799, 0.6657580
855.0620, 0.6163460
855.5441, 0.6641820
856.0262, 0.7274540
856.5084, 0.7673730
856.9905, 0.7604960
857.4726, 0.6336400
857.9547, 0.3893680
858.4368, 0.2305190
858.9189, 0.1557210
859.4011, 0.1806670
859.8832, 0.3573500
860.3653, 0.5674740
860.8474, 0.7106720
861.3295, 0.7864830
861.8116, 0.8062980
862.2938, 0.7312690
862.7759, 0.6794030
863.2580, 0.6258740
863.7401, 0.6060690
864.2222, 0.6865020
864.7043, 0.7988480
865.1865, 0.8105710
865.6686, 0.6865530
866.1507, 0.5610640
866.6328, 0.5076840
867.1149, 0.5135560
867.5970, 0.6145470
868.0792, 0.7542090
868.5613, 0.7709670
869.0434, 0.6441490
869.5255, 0.5278190
870.0076, 0.5487020
870.4897, 0.6562920
870.9719, 0.7317210
871.4540, 0.7748360
871.9361, 0.7020460
872.4182, 0.4735600
872.9003, 0.2485230
873.3824, 8.7035000E-02
873.8646, 3.3350000E-03
874.3467, 4.2847000E-02
874.8288, 0.2446870
875.3109, 0.3566160
875.7930, 0.3215950
876.2751, 0.2780940
876.7573, 0.2385530
877.2394, 0.2173730
877.7215, 0.2498160
878.2036, 0.3114140
878.6857, 0.3196040
879.1678, 0.2284000
879.6500, 0.1283480
880.1321, 2.9332999E-02
880.6142, 1.6336000E-02
881.0963, 0.1015520
881.5784, 0.3180650
882.0605, 0.4643530
882.5427, 0.4826490
883.0248, 0.4333060
883.5069, 0.3605480
883.9890, 0.2788620
884.4711, 0.2428390
884.9532, 0.2484150
885.4354, 0.2088540
885.9175, 9.5499001E-02
886.3996, 3.5025001E-02
886.8817, 0.1453200
887.3638, 0.3414790
887.8459, 0.3751660
888.3281, 0.2064480
888.8102, 3.4660000E-02
889.2923, 0.1967900
889.7744, 0.3007010
890.2565, 8.6612001E-02
890.7386, 0.1978680
891.2208, 0.3065900
891.7029, 0.2405430
892.1850, 0.1431590
892.6671, 9.1139004E-02
893.1492, 0.1767640
893.6313, 0.1761780
894.1135, 0.5702480
894.5956, 0.5938740
895.0777, 0.3562960
895.5598, 0.2071520
896.0419, 0.2776720
896.5240, 0.3843040
897.0062, 0.3387660
897.4883, 0.2376430
897.9704, 0.2456110
898.4525, 0.3395440
898.9346, 0.4468770
899.4167, 0.5427150
899.8989, 0.5746620
900.3810, 0.4910710
900.8631, 0.3353270
901.3452, 0.2237290
901.8273, 0.1600920
902.3094, 0.1194120
902.7916, 8.9752004E-02
903.2737, 0.1184940
903.7558, 0.2613540
904.2379, 0.4315070
904.7200, 0.4881520
905.2021, 0.4157890
905.6843, 0.3818450
906.1664, 0.4336510
906.6485, 0.4579790
907.1306, 0.4100690
907.6127, 0.3558130
908.0948, 0.3400460
908.5769, 0.3542530
909.0590, 0.3777020
909.5411, 0.4143760
910.0233, 0.4224480
910.5054, 0.3865360
910.9875, 0.3123230
911.4696, 0.1284480
911.9517, 5.6883000E-02
912.4338, 1.0876000E-02
912.9160, 0.2589780
913.3981, 0.4287430
913.8802, 0.2267880
914.3623, 7.0424996E-02
914.8444, 4.3464001E-02
915.3265, 0.2007590
915.8087, 0.3922740
916.2908, 0.4956930
916.7729, 0.4821370
917.2550, 0.3324600
917.7371, 0.1591820
918.2192, 0.1346990
918.7014, 0.2368840
919.1835, 0.1689910
919.6656, 0.1332360
920.1477, 0.2495930
920.6298, 2.5831999E-02
921.1119, 0.2502430
921.5941, 0.3825290
922.0762, 0.3968690
922.5583, 0.3641700
923.0404, 0.2526850
923.5225, 0.1739340
924.0046, 0.1028710
924.4868, 9.3754001E-02
924.9689, 0.2409900
925.4510, 0.4019810
925.9331, 0.4291590
926.4152, 0.3311390
926.8973, 0.2174680
927.3795, 8.7195002E-02
927.8616, 2.9730001E-03
928.3437, 2.1497000E-02
928.8258, 5.3429999E-03
929.3079, 7.8240998E-02
929.7900, 0.1708880
930.2722, 0.2427590
930.7543, 0.2818660
931.2364, 0.3061610
931.7185, 0.3128630
932.2006, 0.3281520
932.6827, 0.4342530
933.1649, 0.5673190
933.6470, 0.5311530
934.1291, 0.3289050
934.6112, 0.1754880
935.0933, 0.1955100
935.5754, 0.3207080
936.0576, 0.4709980
936.5397, 0.6382120
937.0218, 0.6874220
937.5039, 0.6109650
937.9860, 0.5398110
938.4681, 0.5081340
938.9503, 0.5051270
939.4324, 0.5221160
939.9145, 0.5588410
940.3966, 0.6231350
940.8787, 0.7425470
941.3608, 0.7935310
941.8430, 0.7773530
942.3251, 0.6860440
942.8072, 0.3898540
943.2893, 0.1056090
943.7714, 0.1848690
944.2535, 0.5950140
944.7357, 0.7107830
945.2178, 8.1541002E-02
945.6999, 0.2779770
946.1820, 7.5525999E-02
946.6641, 0.5245920
947.1462, 0.6813350
947.6284, 0.6244550
948.1105, 0.5286870
948.5926, 0.4200280
949.0747, 0.3407610
949.5568, 0.3180440
950.0389, 0.3279450
950.5211, 0.3964620
951.0032, 0.4534250
951.4853, 0.3701200
951.9674, 0.1867460
952.4495, 0.1226680
952.9316, 0.2859280
953.4138, 0.4907540
953.8959, 0.5534320
954.3780, 0.5132470
954.8601, 0.3958430
955.3422, 0.2406460
955.8243, 0.2089370
956.3065, 0.3265760
956.7886, 0.4294970
957.2707, 0.3928240
957.7528, 0.2682070
958.2349, 0.1506350
958.7170, 4.1838001E-02
959.1992, 2.2832001E-02
959.6813, 4.0151000E-02
960.1634, 3.3562001E-02
960.6455, 1.3575000E-02
961.1276, 3.8036998E-02
961.6097, 0.1505580
962.0919, 0.3108020
962.5740, 0.4207460
963.0561, 0.4926970
963.5382, 0.4689340
964.0203, 0.2478760
964.5024, 0.1060440
964.9846, 0.2405820
965.4667, 0.4797730
965.9488, 0.5659960
966.4309, 0.4855300
966.9130, 0.4568370
967.3951, 0.6057670
967.8773, 0.6270180
968.3594, 0.3142600
968.8415, 2.4881000E-02
969.3236, 9.9649997E-03
969.8057, 0.1564760
970.2878, 0.2689490
970.7700, 0.3143640
971.2521, 0.3317100
971.7342, 0.3230350
972.2163, 0.2972030
972.6984, 0.2682280
973.1805, 0.2429120
973.6627, 0.1752170
974.1448, 9.9565998E-02
974.6269, 0.1005970
975.1090, 0.2162690
975.5911, 0.3225690
976.0732, 0.2971440
976.5554, 0.2459510
977.0375, 0.3195830
977.5196, 0.4283760
978.0017, 0.3772640
978.4838, 0.2000220
978.9659, 0.1138260
979.4481, 0.2589960
979.9302, 0.4732480
980.4123, 0.5850700
980.8944, 0.5956780
981.3765, 0.4493440
981.8586, 0.1920310
982.3408, 3.7865002E-02
982.8229, 4.5226999E-02
983.3050, 0.1737380
983.7871, 0.4146140
984.2692, 0.6689980
984.7513, 0.6819320
985.2335, 0.4712020
985.7156, 0.2718190
986.1977, 9.2588998E-02
986.6798, 3.6084998E-02
987.1619, 0.1584630
987.6440, 0.3052000
988.1262, 0.3085200
988.6083, 0.2078820
989.0904, 0.1947340
989.5725, 0.2800360
990.0546, 0.4280170
990.5367, 0.7180110
991.0189, 0.8412100
991.5010, 0.5838200
991.9831, 0.2022070
992.4652, 3.4650001E-03
992.9473, 3.4830000E-02
993.4294, 7.1423002E-02
993.9116, 0.4722370
994.3937, 0.7253390
994.8758, 0.7494760
995.3579, 0.6801610
995.8400, 0.5385630
996.3221, 0.3642340
996.8043, 0.1941380
997.2864, 2.7838999E-02
997.7685, 6.8892002E-02
998.2506, 6.8199001E-02
998.7327, 2.9712001E-02
999.2148, 5.3530000E-02
999.6970, 0.1518510
1000.179, 0.2955540
1000.661, 0.4208690
1001.143, 0.3919980
1001.625, 0.1874670
1002.108, 5.8935001E-02
1002.590, 0.1536700
1003.072, 0.2596020
1003.554, 0.2544500
1004.036, 0.2433970
1004.518, 0.2625160
1005.000, 0.3054490
1005.482, 0.3497570
1005.964, 0.3885040
1006.447, 0.4161870
1006.929, 0.4189700
1007.411, 0.4207140
1007.893, 0.4490100
1008.375, 0.4819550
1008.857, 0.4979400
1009.339, 0.4903490
1009.821, 0.4498330
1010.304, 0.3727710
1010.786, 0.2835050
1011.268, 0.1523470
1011.750, 6.1595999E-02
1012.232, 0.1835520
1012.714, 0.3999650
1013.196, 0.4393570
1013.678, 0.3219330
1014.160, 0.2989510
1014.643, 0.4690790
1015.125, 0.6526200
1015.607, 0.6441960
1016.089, 0.5188560
1016.571, 0.4296130
1017.053, 0.3672130
1017.535, 0.3157100
1018.017, 0.2701540
1018.500, 0.1977990
1018.982, 7.5998999E-02
1019.464, 2.0100000E-04
1019.946, 0.1696380
1020.428, 0.4990590
1020.910, 0.5829920
1021.392, 0.4467210
1021.874, 0.3307300
1022.356, 0.2833970
1022.839, 0.2920550
1023.321, 0.3547430
1023.803, 0.4326320
1024.285, 0.4486750
1024.767, 0.4109000
1025.249, 0.4560870
1025.731, 0.5962880
1026.213, 0.5968580
1026.696, 0.3449990
1027.178, 0.1449450
1027.660, 0.2136800
1028.142, 0.4167530
1028.624, 0.4978310
1029.106, 0.4545630
1029.588, 0.3140360
1030.070, 2.1782000E-02
1030.552, 0.1069280
1031.035, 3.5379998E-02
1031.517, 0.2492270
1031.999, 0.4323630
1032.481, 0.5441970
1032.963, 0.4697730
1033.445, 0.1663770
1033.927, 3.6045000E-02
1034.409, 0.1429900
1034.891, 0.2543710
1035.374, 0.3133910
1035.856, 0.3833620
1036.338, 0.5444550
1036.820, 0.7192770
1037.302, 0.7204740
1037.784, 0.5090620
1038.266, 0.3382970
1038.748, 0.1626090
1039.231, 0.1164290
1039.713, 0.3426910
1040.195, 0.5602650
1040.677, 0.5723390
1041.159, 0.4484320
1041.641, 0.3121320
1042.123, 0.1289160
1042.605, 9.9189997E-02
1043.088, 0.4284630
1043.570, 0.6182300
1044.052, 0.4377800
1044.534, 0.2482500
1045.016, 0.3112810
1045.498, 0.5116460
1045.980, 0.6257690
1046.462, 0.6402880
1046.944, 0.6148370
1047.427, 0.5187240
1047.909, 0.4320490
1048.391, 0.3889690
1048.873, 0.3427560
1049.355, 0.1960980
1049.837, 5.0783001E-02
1050.319, 0.1326890
1050.801, 0.4890300
1051.283, 0.7154250
1051.766, 0.7030930
1052.248, 0.6090160
1052.730, 0.3825660
1053.212, 0.1793440
1053.694, 7.9798996E-02
1054.176, 8.3336003E-02
1054.658, 0.2281210
1055.140, 0.5194010
1055.623, 0.6577310
1056.105, 0.4112020
1056.587, 0.2464770
1057.069, 0.4186170
1057.551, 0.6015730
1058.033, 0.5365980
1058.515, 0.3466650
1058.997, 0.2528440
1059.479, 0.2799080
1059.962, 0.2771210
1060.444, 0.1441970
1060.926, 5.3675000E-02
1061.408, 0.1118970
1061.890, 0.1843210
1062.372, 0.1258630
1062.854, 4.6535000E-02
1063.336, 0.1552090
1063.818, 0.4500150
1064.301, 0.6589880
1064.783, 0.6813800
1065.265, 0.6246570
1065.747, 0.4363620
1066.229, 0.2797800
1066.711, 0.3284760
1067.193, 0.4481520
1067.675, 0.3958390
1068.158, 0.1937240
1068.640, 0.1632850
1069.122, 0.5602800
1069.604, 0.8119080
1070.086, 0.5625290
1070.568, 0.2034650
1071.050, 0.1193980
1071.532, 0.3092560
1072.015, 0.1671870
1072.497, 0.2225790
1072.979, 0.4463040
1073.461, 0.3160070
1073.943, 0.1806910
1074.425, 0.2164850
1074.907, 0.2799570
1075.389, 0.2830300
1075.871, 0.2583980
1076.354, 0.2244580
1076.836, 0.2009450
1077.318, 0.2272500
1077.800, 0.3263440
1078.282, 0.4293310
1078.764, 0.5486560
1079.246, 0.6116470
1079.728, 0.5375560
1080.210, 0.4125880
1080.693, 0.2973770
1081.175, 0.2185820
1081.657, 0.2477680
1082.139, 0.4195750
1082.621, 0.4680130
1083.103, 7.3909998E-02
1083.585, 0.2286940
1084.067, 2.2235001E-02
1084.549, 0.3040940
1085.032, 0.3586850
1085.514, 0.2366970
1085.996, 0.2128690
1086.478, 0.3443890
1086.960, 0.4622810
1087.442, 0.5054730
1087.924, 0.4927190
1088.406, 0.3515720
1088.889, 0.2437520
1089.371, 0.3454910
1089.853, 0.5267020
1090.335, 0.5503230
1090.817, 0.3924800
1091.299, 0.2336260
1091.781, 0.1004570
1092.263, 4.1108001E-02
1092.745, 0.1251850
1093.228, 0.2365960
1093.710, 0.3163630
1094.192, 0.3632740
1094.674, 0.3663130
1095.156, 0.3376220
1095.638, 0.3401400
1096.120, 0.4267880
1096.602, 0.4561860
1097.084, 0.3162260
1097.567, 0.1772380
1098.049, 0.1373830
1098.531, 0.1468430
1099.013, 0.1624150
1099.495, 0.1744180
1099.977, 0.1641890
1100.459, 0.1099410
1100.941, 0.1139320
1101.424, 0.3192650
1101.906, 0.4413140
1102.388, 0.2259730
1102.870, 1.2540000E-03
1103.352, 0.1099950
1103.834, 0.4071040
1104.316, 0.5433390
1104.798, 0.4601890
1105.281, 0.3515970
1105.763, 0.2185300
1106.245, 0.1198940
1106.727, 7.4827000E-02
1107.209, 6.6408999E-02
1107.691, 0.1150530
1108.173, 0.1768890
1108.655, 0.1555830
1109.137, 5.1899001E-02
1109.620, 7.2476998E-02
1110.102, 0.4207590
1110.584, 0.6211410
1111.066, 0.5324020
1111.548, 0.3801060
1112.030, 0.1715150
1112.512, 2.0141000E-02
1112.994, 0.1183440
1113.476, 0.4057180
1113.959, 0.4969450
1114.441, 0.2148070
1114.923, 8.5125998E-02
1115.405, 0.2825990
1115.887, 0.4106280
1116.369, 0.2825700
1116.851, 0.1324470
1117.333, 0.1569560
1117.816, 0.2939510
1118.298, 0.3867210
1118.780, 0.4383430
1119.262, 0.4273770
1119.744, 0.3177170
1120.226, 0.2109420
1120.708, 9.0274997E-02
1121.190, 3.3328000E-02
1121.672, 0.1179660
1122.155, 0.2597750
1122.637, 0.3326660
1123.119, 0.3366930
1123.601, 0.2656790
1124.083, 3.9044000E-02
1124.565, 7.0899999E-04
1125.047, 0.2455890
1125.529, 0.5062220
1126.011, 0.7001690
1126.494, 0.7876760
1126.976, 0.7034350
1127.458, 0.4932400
1127.940, 0.3461140
1128.422, 0.2658640
1128.904, 0.2659160
1129.386, 0.3362880
1129.868, 0.4264310
1130.351, 0.5229210
1130.833, 0.5915680
1131.315, 0.6236200
1131.797, 0.5898990
1132.279, 0.3856940
1132.761, 3.5521999E-02
1133.243, 3.7668001E-02
1133.725, 0.1687930
1134.208, 0.3577410
1134.690, 0.4814720
1135.172, 0.5188750
1135.654, 0.4549520
1136.136, 0.3552420
1136.618, 0.2950430
1137.100, 0.2685030
1137.582, 0.2645520
1138.064, 0.2792810
1138.547, 0.2782300
1139.029, 0.2672120
1139.511, 0.3293650
1139.993, 0.4841460
1140.475, 0.6143810
1140.957, 0.6270210
1141.439, 0.5486400
1141.921, 0.4568580
1142.403, 0.3477740
1142.886, 0.2243440
1143.368, 9.8908998E-02
1143.850, 1.2590000E-03
1144.332, 6.6453002E-02
1144.814, 8.1891999E-02
1145.296, 3.9728999E-02
1145.778, 3.3411998E-02
1146.260, 0.1149330
1146.743, 0.2094610
1147.225, 0.3680220
1147.707, 0.5165460
1148.189, 0.5278220
1148.671, 0.4234390
1149.153, 0.2648710
1149.635, 8.5372001E-02
1150.117, 2.3334000E-02
1150.599, 1.9362999E-02
1151.082, 9.4405003E-02
1151.564, 8.3178997E-02
1152.046, 9.1706999E-02
1152.528, 0.2937930
1153.010, 0.5363210
1153.492, 0.5574580
1153.974, 0.3865110
1154.456, 0.2705140
1154.938, 0.2916890
1155.421, 0.3367520
1155.903, 0.3919470
1156.385, 0.4177600
1156.867, 0.3634800
1157.349, 0.3011640
1157.831, 0.3057380
1158.313, 0.3418810
1158.795, 0.3341310
1159.278, 0.2752640
1159.760, 0.2135020
1160.242, 9.8410003E-02
1160.724, 7.4189000E-02
1161.206, 0.2990200
1161.688, 0.4565530
1162.170, 0.3180420
1162.652, 0.1153670
1163.135, 0.1081700
1163.617, 0.2384400
1164.099, 0.2572230
1164.581, 0.1098290
1165.063, 4.1769002E-02
1165.545, 8.0879003E-02
1166.027, 0.1420800
1166.509, 0.2338050
1166.991, 0.2818610
1167.474, 0.2222880
1167.956, 0.1229370
1168.438, 9.1406003E-02
1168.920, 0.1241390
1169.402, 0.1988790
1169.884, 0.3302890
1170.366, 0.3375170
1170.848, 0.1846980
1171.330, 0.1466980
1171.813, 0.3366830
1172.295, 0.5216140
1172.777, 0.4894990
1173.259, 0.3348240
1173.741, 0.2462310
1174.223, 0.2160840
1174.705, 0.2051470
1175.187, 0.2152560
1175.670, 0.2793670
1176.152, 0.3886500
1176.634, 0.4745090
1177.116, 0.5127600
1177.598, 0.5022540
1178.080, 0.4139760
1178.562, 0.3162000
1179.044, 0.3304550
1179.526, 0.4003710
1180.009, 0.4236440
1180.491, 0.4101990
1180.973, 0.4288730
1181.455, 0.4831660
1181.937, 0.5014640
1182.419, 0.4412920
1182.901, 0.3645030
1183.383, 0.2496690
1183.865, 0.2073310
1184.348, 0.4943210
1184.830, 0.7716240
1185.312, 0.4929640
1185.794, 7.3507003E-02
1186.276, 0.1945170
1186.758, 0.2697260
1187.240, 0.6380040
1187.722, 0.6934380
1188.205, 0.6445620
1188.687, 0.4468660
1189.169, 0.2734170
1189.651, 0.2323420
1190.133, 0.2479380
1190.615, 0.2045580
1191.097, 0.1384390
1191.579, 0.2432740
1192.062, 0.6176610
1192.544, 0.7830330
1193.026, 0.6552580
1193.508, 0.4880870
1193.990, 0.2675620
1194.472, 0.1553730
1194.954, 0.2795170
1195.436, 0.4759470
1195.918, 0.5112740
1196.401, 0.4264790
1196.883, 0.4666710
1197.365, 0.6404490
1197.847, 0.6966540
1198.329, 0.6187840
1198.811, 0.5748870
1199.293, 0.6116580
1199.775, 0.5894250
1200.257, 0.4068930
1200.740, 0.1809630
1201.222, 6.6466004E-02
1201.704, 4.9357999E-02
1202.186, 0.1043210
1202.668, 0.2219160
1203.150, 0.4233230
1203.632, 0.6542270
1204.114, 0.7347680
1204.597, 0.6273190
1205.079, 0.4803880
1205.561, 0.3720020
1206.043, 0.3167000
1206.525, 0.3703210
1207.007, 0.4392140
1207.489, 0.4114320
1207.971, 0.3544080
1208.453, 0.4027960
1208.936, 0.5018630
1209.418, 0.4618550
1209.900, 0.2358680
1210.382, 6.4801998E-02
1210.864, 3.5369999E-03
1211.346, 4.0079001E-02
1211.828, 0.3363700
1212.310, 0.5834260
1212.792, 0.5882060
1213.275, 0.4846190
1213.757, 0.3949190
1214.239, 0.3278710
1214.721, 0.3211190
1215.203, 0.4120450
1215.685, 0.3691510
1216.167, 0.1004240
1216.649, 1.6951000E-02
1217.132, 0.1369700
1217.614, 0.2625640
1218.096, 0.2038130
1218.578, 6.8117999E-02
1219.060, 3.1120000E-02
1219.542, 8.7856002E-02
1220.024, 8.4895000E-02
1220.506, 2.2465000E-02
1220.989, 0.1097680
1221.471, 0.3039660
1221.953, 0.5168270
1222.435, 0.7258590
1222.917, 0.8351380
1223.399, 0.7986960
1223.881, 0.6820510
1224.363, 0.5120670
1224.845, 0.3604580
1225.328, 0.3661040
1225.810, 0.4235650
1226.292, 0.3529890
1226.774, 0.2172590
1227.256, 0.1431130
1227.738, 0.1614850
1228.220, 0.2993760
1228.702, 0.6080950
1229.184, 0.8045500
1229.667, 0.6942290
1230.149, 0.5340920
1230.631, 0.4050900
1231.113, 0.3077600
1231.595, 0.2677370
1232.077, 0.2417830
1232.559, 0.1252590
1233.041, 6.0934000E-02
1233.524, 8.5548997E-02
1234.006, 0.2050490
1234.488, 0.3989270
1234.970, 0.4978690
1235.452, 0.4853770
1235.934, 0.3219780
1236.416, 0.1441840
1236.898, 1.8390000E-02
1237.380, 2.3087000E-02
1237.863, 8.9217998E-02
1238.345, 0.3009270
1238.827, 0.3604850
1239.309, 0.3020260
1239.791, 0.4287590
1240.273, 0.7109860
1240.755, 0.8235270
1241.237, 0.7056750
1241.719, 0.5265650
1242.202, 0.3745090
1242.684, 0.2974170
1243.166, 0.3944890
1243.648, 0.5393280
1244.130, 0.5823450
1244.612, 0.5928660
1245.094, 0.6921990
1245.576, 0.8100350
1246.059, 0.7811580
1246.541, 0.6207760
1247.023, 0.5090040
1247.505, 0.5065230
1247.987, 0.5239570
1248.469, 0.5743400
1248.951, 0.5849800
1249.433, 0.5249200
1249.916, 0.4295600
1250.398, 0.2314500
1250.880, 0.1114880
1251.362, 0.2970770
1251.844, 0.6985940
1252.326, 0.8280510
1252.808, 0.6324510
1253.290, 0.4234690
1253.772, 0.1813090
1254.255, 0.1065390
1254.737, 0.2487120
1255.219, 0.4352020
1255.701, 0.5807600
1256.183, 0.6378300
1256.665, 0.5240510
1257.147, 0.3232880
1257.629, 0.3202780
1258.111, 0.4100300
1258.594, 0.4495890
1259.076, 0.4180440
1259.558, 0.2567960
1260.040, 2.1925000E-02
1260.522, 2.6705001E-02
1261.004, 0.2013370
1261.486, 0.4024940
1261.968, 0.3512570
1262.451, 0.3010780
1262.933, 0.4288770
1263.415, 0.5387780
1263.897, 0.4822660
1264.379, 0.3545890
1264.861, 0.2323920
1265.343, 0.1391210
1265.825, 0.1384790
1266.307, 0.2453870
1266.790, 0.3027430
1267.272, 0.2885460
1267.754, 0.2972980
1268.236, 0.3548530
1268.718, 0.3628000
1269.200, 0.2757200
1269.682, 0.1999320
1270.164, 0.2332170
1270.646, 0.2888680
1271.129, 0.2331460
1271.611, 0.1024020
1272.093, 3.3031002E-02
1272.575, 1.9200999E-02
1273.057, 5.6669999E-02
1273.539, 0.1309230
1274.021, 0.2051910
1274.503, 0.2704590
1274.986, 0.3513440
1275.468, 0.4760150
1275.950, 0.5422810
1276.432, 0.4415790
1276.914, 0.3006450
1277.396, 0.1828010
1277.878, 9.4036996E-02
1278.360, 1.8158000E-02
1278.843, 4.2710002E-03
1279.325, 0.1228040
1279.807, 0.1677140
1280.289, 0.0000000E+00
##END=



