##NAMES=Tyrolite
##RRUFFID=R050571
##IDEAL CHEMISTRY=Ca_2_Cu^2+^_9_(As^5+^O_4_)_4_(CO_3_)(OH)_8_&#183;11H_2_O
##LOCALITY=Penamellera, Spain
##OWNER=RRUFF
##SOURCE=University of Arizona Mineral Museum
##DESCRIPTION=Pale blue foliated coating, tyrolite-2M polytype
##STATUS=The identification of this mineral is confirmed by single-crystal X-ray diffraction and chemical analysis.
##URL=rruff.info/R050571
##MEASURED CHEMISTRY=Ca_1.00_(Cu_4.95_Fe_0.03_Zn_0.02_)_Σ=5_(As_1.00_O_4_)_2_(CO_3_)(OH)_4_·6H_2_O
92.06543, 0.0000000E+00
92.54755, 3.319237
93.02966, 7.954269
93.51178, 16.30940
93.99390, 23.19015
94.47601, 17.46005
94.95813, 7.454498
95.44025, 1.5984001E-02
95.92236, 1.746498
96.40448, 14.47548
96.88660, 22.66146
97.36871, 20.19535
97.85082, 12.80745
98.33294, 11.04342
98.81506, 16.04481
99.29717, 21.85605
99.77929, 20.99508
100.2614, 14.03939
100.7435, 7.422134
101.2256, 2.384451
101.7078, 0.7498300
102.1899, 1.940613
102.6720, 0.3757590
103.1541, 2.446707
103.6362, 4.674658
104.1183, 6.007454
104.6005, 8.108574
105.0826, 14.38326
105.5647, 26.13685
106.0468, 32.06636
106.5289, 23.06258
107.0110, 11.71363
107.4931, 5.307823
107.9753, 5.891317
108.4574, 10.89435
108.9395, 15.05857
109.4216, 19.98451
109.9037, 21.48922
110.3858, 15.97929
110.8680, 8.445313
111.3501, 4.312172
111.8322, 6.492613
112.3143, 13.78090
112.7964, 18.52403
113.2785, 20.91951
113.7607, 20.99353
114.2428, 16.25763
114.7249, 8.692698
115.2070, 3.382793
115.6891, 4.710508
116.1712, 13.19823
116.6534, 18.12916
117.1355, 18.55787
117.6176, 17.70939
118.0997, 17.44777
118.5818, 17.83516
119.0639, 18.79837
119.5461, 21.02637
120.0282, 24.00786
120.5103, 25.90384
120.9924, 25.28711
121.4745, 23.29930
121.9566, 22.77160
122.4388, 25.76460
122.9209, 27.38724
123.4030, 22.81470
123.8851, 13.76466
124.3672, 6.208588
124.8493, 5.855150
125.3315, 13.30220
125.8136, 19.06289
126.2957, 21.89081
126.7778, 23.23669
127.2599, 23.58740
127.7420, 22.98404
128.2242, 21.21132
128.7063, 17.51342
129.1884, 9.426060
129.6705, 4.258244
130.1526, 2.977354
130.6347, 3.478956
131.1169, 4.503082
131.5990, 5.559902
132.0811, 6.613468
132.5632, 7.598795
133.0453, 8.176388
133.5274, 9.049575
134.0096, 10.40262
134.4917, 13.22024
134.9738, 15.16735
135.4559, 17.53021
135.9380, 19.83810
136.4201, 20.24326
136.9023, 17.98570
137.3844, 15.32476
137.8665, 13.41731
138.3486, 12.06580
138.8307, 10.66058
139.3128, 5.382318
139.7950, 0.7363500
140.2771, 1.332326
140.7592, 8.254128
141.2413, 19.07255
141.7234, 21.34743
142.2055, 13.51439
142.6877, 5.467763
143.1698, 2.591635
143.6519, 2.693438
144.1340, 3.735350
144.6161, 5.245163
145.0982, 7.030006
145.5803, 8.548837
146.0625, 9.469223
146.5446, 10.67539
147.0267, 13.11860
147.5088, 15.94261
147.9909, 17.86195
148.4730, 17.99479
148.9552, 16.39688
149.4373, 14.28352
149.9194, 9.660256
150.4015, 6.559457
150.8836, 6.455847
151.3657, 8.887135
151.8479, 12.73331
152.3300, 17.34646
152.8121, 23.40377
153.2942, 25.77591
153.7763, 22.25569
154.2584, 18.04779
154.7406, 15.60053
155.2227, 15.11038
155.7048, 15.29618
156.1869, 14.71431
156.6690, 12.96723
157.1511, 12.13241
157.6333, 13.02737
158.1154, 14.35568
158.5975, 14.53699
159.0796, 13.17471
159.5617, 11.95651
160.0438, 14.13088
160.5260, 20.20167
161.0081, 24.09083
161.4902, 23.13235
161.9723, 19.19682
162.4544, 15.64850
162.9365, 13.34468
163.4187, 11.43325
163.9008, 8.473128
164.3829, 4.558527
164.8650, 1.836745
165.3471, 2.357696
165.8292, 5.634204
166.3113, 8.112088
166.7935, 8.506358
167.2756, 8.326447
167.7577, 8.533636
168.2398, 9.200809
168.7219, 10.40797
169.2040, 12.78339
169.6862, 16.76153
170.1683, 19.14891
170.6504, 18.44495
171.1325, 16.56748
171.6146, 13.89409
172.0967, 10.67690
172.5789, 7.802850
173.0610, 6.718079
173.5431, 8.416298
174.0252, 9.861825
174.5073, 12.33987
174.9894, 13.67505
175.4716, 10.92082
175.9537, 3.534528
176.4358, 5.051525
176.9179, 7.701898
177.4000, 1.272798
177.8821, 8.893130
178.3643, 15.87309
178.8464, 20.97754
179.3285, 22.08307
179.8106, 18.33964
180.2927, 11.93754
180.7748, 8.917022
181.2570, 13.51182
181.7391, 16.22533
182.2212, 14.99915
182.7033, 11.41779
183.1854, 7.810493
183.6675, 5.191835
184.1497, 3.250546
184.6318, 0.8215070
185.1139, 4.102286
185.5960, 6.588866
186.0781, 3.148083
186.5602, 4.396498
187.0423, 11.06257
187.5245, 14.94207
188.0066, 15.82581
188.4887, 13.54213
188.9708, 5.367433
189.4529, 1.233059
189.9350, 0.5648340
190.4172, 9.853031
190.8993, 16.55219
191.3814, 13.83532
191.8635, 7.119862
192.3456, 4.451320
192.8277, 7.800025
193.3099, 12.92925
193.7920, 15.91898
194.2741, 16.61588
194.7562, 16.32077
195.2383, 14.67152
195.7204, 12.62667
196.2026, 10.87761
196.6847, 9.530697
197.1668, 8.689259
197.6489, 8.606549
198.1310, 9.753293
198.6131, 10.84155
199.0953, 11.22818
199.5774, 11.25393
200.0595, 11.04431
200.5416, 10.56384
201.0237, 10.19807
201.5058, 10.85413
201.9880, 13.00429
202.4701, 15.44887
202.9522, 19.62417
203.4343, 23.26006
203.9164, 23.45716
204.3985, 18.82860
204.8807, 11.39993
205.3628, 7.292631
205.8449, 8.682133
206.3270, 11.01600
206.8091, 15.43665
207.2912, 19.91833
207.7733, 21.89432
208.2555, 20.00626
208.7376, 15.47375
209.2197, 12.79173
209.7018, 13.57427
210.1839, 14.51238
210.6660, 15.46125
211.1482, 16.41109
211.6303, 17.43581
212.1124, 18.85843
212.5945, 20.28014
213.0766, 19.93032
213.5587, 14.39419
214.0409, 11.19125
214.5230, 14.23680
215.0051, 20.42856
215.4872, 24.04793
215.9693, 21.46251
216.4514, 14.64126
216.9336, 11.51635
217.4157, 14.98656
217.8978, 17.49168
218.3799, 15.11119
218.8620, 9.743812
219.3441, 6.560910
219.8263, 8.897580
220.3084, 14.04390
220.7905, 14.25619
221.2726, 5.913649
221.7547, 0.6342590
222.2368, 1.226960
222.7190, 9.686255
223.2011, 17.47482
223.6832, 21.68067
224.1653, 23.13323
224.6474, 24.10903
225.1295, 24.82657
225.6117, 24.60946
226.0938, 22.29948
226.5759, 18.09015
227.0580, 14.83696
227.5401, 13.73280
228.0222, 14.09667
228.5043, 15.42124
228.9865, 18.21606
229.4686, 19.80870
229.9507, 16.05354
230.4328, 7.021009
230.9149, 2.166708
231.3970, 8.517973
231.8792, 17.38200
232.3613, 21.07395
232.8434, 18.46012
233.3255, 14.10973
233.8076, 12.21792
234.2897, 12.63084
234.7719, 13.48413
235.2540, 16.93918
235.7361, 19.50806
236.2182, 18.67593
236.7003, 14.18993
237.1824, 8.637335
237.6646, 4.588331
238.1467, 2.145516
238.6288, 0.5375780
239.1109, 0.3688760
239.5930, 0.3976250
240.0751, 1.103619
240.5573, 3.999866
241.0394, 6.993531
241.5215, 8.142972
242.0036, 6.559861
242.4857, 6.826977
242.9678, 11.89247
243.4500, 16.57382
243.9321, 17.90215
244.4142, 15.59854
244.8963, 12.13367
245.3784, 10.78275
245.8605, 12.25779
246.3427, 13.31194
246.8248, 13.18315
247.3069, 13.22350
247.7890, 15.11270
248.2711, 18.25894
248.7532, 20.41087
249.2354, 18.68712
249.7175, 11.48089
250.1996, 7.411870
250.6817, 8.446833
251.1638, 10.46154
251.6459, 12.06016
252.1281, 12.93643
252.6102, 13.14343
253.0923, 12.66531
253.5744, 11.36297
254.0565, 10.23760
254.5386, 8.302628
255.0208, 7.380219
255.5029, 8.449222
255.9850, 11.34203
256.4671, 15.53909
256.9492, 21.11203
257.4313, 28.59487
257.9135, 30.52398
258.3956, 23.63718
258.8777, 15.73062
259.3598, 8.621933
259.8419, 3.076527
260.3240, 0.2209710
260.8062, 1.082870
261.2883, 5.658953
261.7704, 10.82170
262.2525, 20.15734
262.7346, 26.48833
263.2167, 24.64174
263.6989, 17.09109
264.1810, 10.65348
264.6631, 9.852039
265.1452, 13.95801
265.6273, 16.38698
266.1094, 18.01983
266.5916, 17.50741
267.0737, 12.24879
267.5558, 4.337579
268.0379, 1.415771
268.5200, 2.305826
269.0021, 0.8527940
269.4843, 4.784992
269.9664, 12.01458
270.4485, 16.96532
270.9306, 17.13464
271.4127, 13.86469
271.8948, 9.089066
272.3770, 2.827226
272.8591, 2.903913
273.3412, 1.797602
273.8233, 9.842099
274.3054, 19.06544
274.7875, 19.92447
275.2697, 15.87622
275.7518, 13.37421
276.2339, 14.75619
276.7160, 18.34080
277.1981, 21.59281
277.6802, 25.14180
278.1623, 26.49837
278.6444, 23.23322
279.1266, 17.83487
279.6087, 14.82223
280.0908, 15.83727
280.5729, 18.04078
281.0550, 17.49664
281.5371, 14.33461
282.0193, 10.63269
282.5014, 5.249164
282.9835, 0.1758470
283.4656, 1.122643
283.9477, 2.360126
284.4298, 7.209172
284.9120, 10.39609
285.3941, 12.03908
285.8762, 11.90991
286.3583, 7.070481
286.8404, 1.758271
287.3225, 2.307489
287.8047, 9.884907
288.2868, 17.59580
288.7689, 19.37839
289.2510, 16.63302
289.7331, 14.29218
290.2152, 13.29520
290.6974, 12.94176
291.1795, 12.54723
291.6616, 12.18867
292.1437, 11.88936
292.6258, 11.41147
293.1079, 11.34030
293.5901, 13.11812
294.0722, 19.20835
294.5543, 24.60141
295.0364, 23.66957
295.5185, 16.82245
296.0006, 11.76696
296.4828, 13.55273
296.9649, 18.42086
297.4470, 19.37799
297.9291, 14.77920
298.4112, 9.688001
298.8933, 8.404655
299.3755, 10.15051
299.8576, 9.756018
300.3397, 3.980952
300.8218, 3.011975
301.3039, 5.135042
301.7860, 2.311293
302.2682, 1.107396
302.7503, 4.930780
303.2324, 8.552713
303.7145, 9.238062
304.1966, 4.947358
304.6787, 2.4917001E-02
305.1609, 0.3154940
305.6430, 3.352756
306.1251, 6.259394
306.6072, 4.717955
307.0893, 1.160703
307.5714, 1.576934
308.0536, 7.918989
308.5357, 14.63025
309.0178, 16.21814
309.4999, 14.30455
309.9820, 12.99119
310.4641, 15.31270
310.9463, 18.32111
311.4284, 16.30630
311.9105, 7.942860
312.3926, 1.416258
312.8747, 4.106199
313.3568, 12.00856
313.8390, 18.35412
314.3211, 22.71160
314.8032, 24.14778
315.2853, 19.89119
315.7674, 9.804466
316.2495, 1.875051
316.7317, 0.7919400
317.2138, 3.555683
317.6959, 5.186243
318.1780, 4.663475
318.6601, 4.762090
319.1422, 8.859941
319.6243, 16.13633
320.1064, 20.68139
320.5886, 19.93962
321.0707, 16.35983
321.5528, 12.57783
322.0349, 8.405731
322.5170, 5.977939
322.9991, 7.301270
323.4813, 11.28654
323.9634, 15.26751
324.4455, 19.42463
324.9276, 21.99415
325.4097, 20.45955
325.8918, 15.48533
326.3740, 10.23486
326.8561, 3.939035
327.3382, 1.237723
327.8203, 0.2026190
328.3024, 8.748147
328.7845, 17.03749
329.2667, 16.46588
329.7488, 10.24104
330.2309, 6.229105
330.7130, 7.787236
331.1951, 10.76574
331.6772, 10.52261
332.1594, 7.006721
332.6415, 3.657445
333.1236, 2.350338
333.6057, 2.376859
334.0878, 1.879278
334.5699, 5.8848999E-02
335.0521, 0.9133070
335.5342, 1.443435
336.0163, 6.177010
336.4984, 8.941402
336.9805, 7.399931
337.4626, 4.383177
337.9448, 4.722722
338.4269, 8.948873
338.9090, 12.20487
339.3911, 11.15182
339.8732, 8.075690
340.3553, 7.945657
340.8375, 12.37698
341.3196, 17.09248
341.8017, 16.84142
342.2838, 12.08876
342.7659, 8.019735
343.2480, 4.832849
343.7302, 3.233033
344.2123, 4.896960
344.6944, 9.746534
345.1765, 14.63024
345.6586, 17.48882
346.1407, 18.22063
346.6229, 17.82099
347.1050, 16.12530
347.5871, 13.44374
348.0692, 8.567964
348.5513, 2.473510
349.0334, 0.9927910
349.5156, 0.6481950
349.9977, 5.550677
350.4798, 8.567443
350.9619, 8.650969
351.4440, 9.310696
351.9261, 12.88784
352.4083, 17.47139
352.8904, 19.42778
353.3725, 17.42310
353.8546, 14.25515
354.3367, 14.12397
354.8188, 17.88199
355.3010, 21.09012
355.7831, 24.75041
356.2652, 26.73671
356.7473, 24.41174
357.2294, 17.74469
357.7115, 9.528225
358.1937, 1.307791
358.6758, 7.058218
359.1579, 9.647659
359.6400, 0.5204640
360.1221, 8.604337
360.6042, 11.50867
361.0863, 9.506443
361.5685, 6.699478
362.0506, 5.324856
362.5327, 4.962968
363.0148, 4.219592
363.4969, 1.529520
363.9790, 5.7730000E-02
364.4612, 0.1467740
364.9433, 1.766921
365.4254, 5.802287
365.9075, 12.39458
366.3896, 18.67251
366.8717, 19.65856
367.3539, 11.39706
367.8360, 6.741735
368.3181, 8.298048
368.8002, 11.18578
369.2823, 12.31656
369.7644, 11.44953
370.2466, 9.832889
370.7287, 8.413146
371.2108, 7.100143
371.6929, 7.683655
372.1750, 13.42178
372.6571, 17.44722
373.1393, 16.31334
373.6214, 12.27641
374.1035, 9.505554
374.5856, 10.39015
375.0677, 13.57962
375.5498, 14.48146
376.0320, 10.19085
376.5141, 7.942757
376.9962, 10.68213
377.4783, 14.20477
377.9604, 14.28582
378.4425, 10.12860
378.9247, 4.819777
379.4068, 2.693541
379.8889, 4.802238
380.3710, 6.436987
380.8531, 8.219767
381.3352, 8.968630
381.8174, 6.892096
382.2995, 3.104036
382.7816, 0.8347420
383.2637, 3.029178
383.7458, 8.784910
384.2279, 11.67749
384.7101, 9.974996
385.1922, 7.761495
385.6743, 5.430776
386.1564, 3.941323
386.6385, 4.951488
387.1206, 9.502834
387.6028, 14.80338
388.0849, 15.91885
388.5670, 11.78583
389.0491, 8.538128
389.5312, 8.087978
390.0133, 8.644923
390.4955, 9.368808
390.9776, 10.11207
391.4597, 10.59024
391.9418, 10.18122
392.4239, 9.126827
392.9060, 9.343637
393.3882, 12.32595
393.8703, 14.45807
394.3524, 12.06272
394.8345, 7.210012
395.3166, 4.512617
395.7987, 7.269571
396.2809, 11.76553
396.7630, 12.64820
397.2451, 9.707144
397.7272, 6.425941
398.2093, 3.621715
398.6914, 1.870028
399.1736, 2.334740
399.6557, 6.031659
400.1378, 8.724478
400.6199, 6.291754
401.1020, 0.8894790
401.5841, 1.249375
402.0662, 1.916154
402.5483, 6.768808
403.0305, 9.245088
403.5126, 9.520474
403.9947, 9.286745
404.4768, 7.738432
404.9589, 6.535357
405.4410, 8.245892
405.9232, 12.54515
406.4053, 15.30448
406.8874, 13.22517
407.3695, 7.657369
407.8516, 4.649069
408.3337, 5.410811
408.8159, 6.917433
409.2980, 8.782349
409.7801, 10.66187
410.2622, 12.31948
410.7443, 13.71894
411.2264, 13.98616
411.7086, 11.41121
412.1907, 3.549867
412.6728, 0.8876660
413.1549, 0.4250760
413.6370, 2.144533
414.1191, 6.296629
414.6013, 11.10291
415.0834, 14.02052
415.5655, 12.54899
416.0476, 7.152026
416.5297, 5.579820
417.0118, 13.67534
417.4940, 20.42882
417.9761, 24.12982
418.4582, 24.54789
418.9403, 20.14629
419.4224, 10.55692
419.9045, 3.5250001E-03
420.3867, 3.352983
420.8688, 4.679903
421.3509, 8.746998
421.8330, 3.457973
422.3151, 1.695331
422.7972, 1.320316
423.2794, 4.047088
423.7615, 10.68081
424.2436, 16.59637
424.7257, 21.36868
425.2078, 21.73980
425.6899, 14.87062
426.1721, 8.505387
426.6542, 4.455964
427.1363, 2.728172
427.6184, 4.207260
428.1005, 9.778106
428.5826, 15.48665
429.0648, 15.58567
429.5469, 9.978345
430.0290, 6.251607
430.5111, 6.798257
430.9932, 9.003757
431.4753, 11.02935
431.9575, 12.75358
432.4396, 13.21525
432.9217, 10.23659
433.4038, 6.285514
433.8859, 6.489331
434.3680, 11.60070
434.8502, 15.78845
435.3323, 14.72656
435.8144, 10.11395
436.2965, 7.056928
436.7786, 5.916494
437.2607, 5.962279
437.7429, 8.685475
438.2250, 12.44099
438.7071, 12.85902
439.1892, 8.219481
439.6713, 1.937067
440.1534, 1.243456
440.6356, 0.6404470
441.1177, 0.2426160
441.5998, 1.475537
442.0819, 2.742024
442.5640, 3.872363
443.0461, 4.881138
443.5282, 5.857649
444.0103, 6.568670
444.4925, 6.986985
444.9746, 7.014463
445.4567, 4.708018
445.9388, 4.453369
446.4209, 9.479744
446.9030, 15.34551
447.3852, 17.04949
447.8673, 13.55723
448.3494, 8.358282
448.8315, 6.043124
449.3136, 7.452804
449.7957, 7.519032
450.2779, 4.380610
450.7600, 1.716586
451.2421, 1.156805
451.7242, 1.960561
452.2063, 2.518380
452.6884, 1.862038
453.1706, 0.7008600
453.6527, 0.7429450
454.1348, 2.303265
454.6169, 4.637566
455.0990, 7.503366
455.5811, 10.08239
456.0633, 11.32126
456.5454, 11.17273
457.0275, 10.69028
457.5096, 10.34334
457.9917, 10.25140
458.4738, 11.00706
458.9560, 12.96518
459.4381, 14.82444
459.9202, 16.60924
460.4023, 17.65656
460.8844, 16.46745
461.3665, 11.50066
461.8487, 6.112725
462.3308, 2.222768
462.8129, 0.1617600
463.2950, 0.6459750
463.7771, 1.324556
464.2592, 4.301185
464.7414, 5.404144
465.2235, 4.207784
465.7056, 3.689290
466.1877, 4.624854
466.6698, 5.997969
467.1519, 7.097251
467.6341, 7.889386
468.1162, 8.498622
468.5983, 8.946466
469.0804, 9.357141
469.5625, 10.29128
470.0446, 12.31922
470.5268, 14.11837
471.0089, 16.95387
471.4910, 18.81935
471.9731, 16.77888
472.4552, 10.87192
472.9373, 4.774617
473.4195, 2.658562
473.9016, 4.848648
474.3837, 6.614575
474.8658, 7.932964
475.3479, 8.786448
475.8300, 9.026030
476.3122, 8.849397
476.7943, 8.313573
477.2764, 7.350141
477.7585, 6.712156
478.2406, 7.802106
478.7227, 11.20969
479.2049, 13.79173
479.6870, 15.34104
480.1691, 15.40607
480.6512, 13.01535
481.1333, 8.811844
481.6154, 5.576265
482.0976, 4.357343
482.5797, 5.043706
483.0618, 8.681576
483.5439, 15.40616
484.0260, 19.69423
484.5081, 17.51281
484.9902, 12.12008
485.4724, 10.98345
485.9545, 16.04589
486.4366, 19.36586
486.9187, 16.43298
487.4008, 10.99618
487.8829, 8.286853
488.3651, 9.018827
488.8472, 10.17980
489.3293, 8.743481
489.8114, 4.746751
490.2935, 4.694090
490.7756, 12.14404
491.2578, 18.80928
491.7399, 23.38100
492.2220, 25.07858
492.7041, 20.86880
493.1862, 10.27700
493.6683, 0.6327990
494.1505, 2.053270
494.6326, 9.654458
495.1147, 16.61026
495.5968, 15.42358
496.0789, 12.77976
496.5610, 10.04533
497.0432, 7.766416
497.5253, 6.650576
498.0074, 7.319224
498.4895, 8.614861
498.9716, 8.114626
499.4537, 5.513145
499.9359, 2.823395
500.4180, 0.8182160
500.9001, 3.095039
501.3822, 1.510170
501.8643, 3.580313
502.3464, 8.504160
502.8286, 12.68500
503.3107, 15.16867
503.7928, 13.38302
504.2749, 7.275314
504.7570, 2.106049
505.2391, 0.3923170
505.7213, 1.704689
506.2034, 5.135475
506.6855, 12.05347
507.1676, 17.64708
507.6497, 20.21904
508.1318, 21.04209
508.6140, 21.55664
509.0961, 21.92949
509.5782, 21.44256
510.0603, 19.52305
510.5424, 16.18279
511.0245, 11.43686
511.5067, 0.7363970
511.9888, 6.961193
512.4709, 0.2028850
512.9530, 11.80602
513.4351, 18.06691
513.9172, 16.52682
514.3994, 11.77173
514.8815, 9.049509
515.3636, 8.504696
515.8457, 7.887089
516.3278, 6.772184
516.8099, 6.183607
517.2921, 7.584333
517.7742, 9.436401
518.2563, 8.936101
518.7384, 4.462881
519.2205, 0.2335410
519.7026, 4.9020001E-03
520.1848, 4.346644
520.6669, 5.733517
521.1490, 1.271326
521.6311, 3.435429
522.1132, 2.136820
522.5953, 3.704189
523.0775, 9.076497
523.5596, 14.22629
524.0417, 18.28002
524.5238, 20.52594
525.0059, 21.13445
525.4880, 20.58069
525.9702, 19.02573
526.4523, 16.55535
526.9344, 13.05345
527.4165, 7.279450
527.8986, 3.973793
528.3807, 3.523220
528.8629, 4.943264
529.3450, 9.772305
529.8271, 15.94116
530.3092, 18.81693
530.7913, 15.53977
531.2734, 8.850378
531.7556, 5.701880
532.2377, 7.736102
532.7198, 8.682065
533.2019, 4.571848
533.6840, 1.710396
534.1661, 5.105062
534.6483, 13.44153
535.1304, 20.46354
535.6125, 21.90845
536.0946, 20.31243
536.5767, 20.74408
537.0588, 23.38703
537.5410, 23.86834
538.0231, 18.96136
538.5052, 12.48871
538.9873, 11.04506
539.4694, 15.34943
539.9515, 18.25745
540.4337, 17.23398
540.9158, 14.26795
541.3979, 10.60443
541.8800, 6.687944
542.3621, 3.571041
542.8442, 1.888447
543.3264, 1.535276
543.8085, 2.163315
544.2906, 4.134283
544.7726, 6.763792
545.2548, 10.74931
545.7369, 14.58599
546.2190, 18.57598
546.7011, 21.80736
547.1832, 21.28150
547.6653, 13.41272
548.1475, 1.221209
548.6296, 2.058414
549.1117, 7.812094
549.5938, 15.40161
550.0759, 14.84429
550.5580, 11.18821
551.0402, 6.687700
551.5223, 1.847652
552.0044, 0.4071940
552.4865, 4.970798
552.9686, 12.99759
553.4507, 13.71728
553.9329, 6.692886
554.4150, 1.065033
554.8971, 1.948198
555.3792, 7.115049
555.8613, 11.19658
556.3434, 14.62034
556.8256, 16.23605
557.3077, 13.04328
557.7898, 9.880255
558.2719, 12.36262
558.7540, 19.58704
559.2361, 26.10030
559.7183, 27.92763
560.2004, 25.88678
560.6825, 23.81401
561.1646, 21.97162
561.6467, 19.64324
562.1288, 15.54818
562.6110, 11.94375
563.0931, 10.91160
563.5752, 12.11856
564.0573, 13.17313
564.5394, 11.87467
565.0215, 9.528219
565.5037, 9.932880
565.9858, 13.60369
566.4679, 16.74693
566.9500, 18.46209
567.4321, 18.67336
567.9142, 16.13168
568.3964, 10.77547
568.8785, 6.786926
569.3606, 4.983063
569.8427, 5.178484
570.3248, 10.34088
570.8069, 18.62486
571.2891, 24.63005
571.7712, 25.37731
572.2533, 22.59821
572.7354, 20.11188
573.2175, 17.09780
573.6996, 15.96477
574.1818, 18.99008
574.6639, 21.75868
575.1460, 20.77997
575.6281, 17.22388
576.1102, 14.94126
576.5923, 16.52560
577.0745, 19.53357
577.5566, 18.33172
578.0387, 12.11688
578.5208, 5.878450
579.0029, 1.497698
579.4850, 6.469299
579.9672, 4.211401
580.4493, 3.576244
580.9314, 8.975348
581.4135, 6.950985
581.8956, 3.169636
582.3777, 3.454145
582.8599, 6.794888
583.3420, 9.034710
583.8241, 8.516443
584.3062, 7.648775
584.7883, 9.985115
585.2704, 16.64422
585.7526, 20.94493
586.2347, 22.17652
586.7168, 22.01476
587.1989, 19.82216
587.6810, 17.12656
588.1631, 16.91159
588.6453, 20.10363
589.1274, 23.34800
589.6095, 20.65513
590.0916, 10.89176
590.5737, 6.114416
591.0558, 9.967220
591.5380, 13.75597
592.0201, 11.97163
592.5022, 7.989645
592.9843, 7.330221
593.4664, 12.19316
593.9485, 17.18443
594.4307, 18.27184
594.9128, 16.38652
595.3949, 12.81489
595.8770, 7.621664
596.3591, 3.991196
596.8412, 4.698891
597.3234, 9.122885
597.8055, 12.75603
598.2876, 15.73638
598.7697, 17.88837
599.2518, 19.87070
599.7339, 20.57867
600.2161, 18.43624
600.6982, 13.75721
601.1803, 8.275845
601.6624, 3.338287
602.1445, 0.6184920
602.6266, 1.085314
603.1088, 3.406641
603.5909, 7.562824
604.0730, 9.289839
604.5551, 10.73782
605.0372, 13.98392
605.5193, 18.92882
606.0015, 22.69559
606.4836, 23.68921
606.9657, 22.84488
607.4478, 19.69092
607.9299, 14.68153
608.4120, 10.15242
608.8942, 6.856962
609.3763, 5.077892
609.8584, 5.424818
610.3405, 8.900248
610.8226, 11.55850
611.3047, 13.29777
611.7869, 14.36678
612.2690, 15.20821
612.7511, 15.37186
613.2332, 13.44252
613.7153, 8.975975
614.1974, 4.537325
614.6796, 4.137255
615.1617, 8.029398
615.6438, 10.55264
616.1259, 10.44551
616.6080, 10.91934
617.0901, 15.72956
617.5723, 21.43467
618.0544, 22.41606
618.5365, 16.53129
619.0186, 10.52075
619.5007, 7.694969
619.9828, 7.453279
620.4650, 9.946533
620.9471, 14.78866
621.4292, 18.31485
621.9113, 17.89511
622.3934, 14.46682
622.8755, 11.64100
623.3577, 10.48030
623.8398, 8.372252
624.3219, 1.779003
624.8040, 2.770178
625.2861, 2.264820
625.7682, 13.37529
626.2504, 19.66176
626.7325, 13.87967
627.2145, 2.372549
627.6967, 3.703148
628.1788, 4.230524
628.6609, 1.629400
629.1430, 5.946898
629.6251, 12.87292
630.1072, 12.18927
630.5894, 6.189056
631.0715, 3.248428
631.5536, 7.782515
632.0357, 12.16110
632.5178, 11.33867
632.9999, 8.249138
633.4821, 8.180326
633.9642, 12.00123
634.4463, 15.90356
634.9284, 16.18884
635.4105, 13.10098
635.8926, 10.09087
636.3748, 5.967293
636.8569, 3.791880
637.3390, 4.841265
637.8211, 7.457464
638.3032, 10.88886
638.7853, 14.31894
639.2675, 16.31322
639.7496, 14.52931
640.2317, 11.64017
640.7138, 13.02081
641.1959, 18.19664
641.6780, 20.75373
642.1602, 17.95914
642.6423, 13.03542
643.1244, 10.03832
643.6065, 9.327244
644.0886, 8.699951
644.5707, 7.649958
645.0529, 7.244461
645.5350, 8.586260
646.0171, 10.57419
646.4992, 11.94925
646.9813, 12.24768
647.4634, 11.20801
647.9456, 7.787416
648.4277, 2.383713
648.9098, 4.6471000E-02
649.3919, 1.320463
649.8740, 3.581953
650.3561, 6.256912
650.8383, 8.883396
651.3204, 11.35094
651.8025, 13.73498
652.2846, 14.11735
652.7667, 9.693171
653.2488, 4.500559
653.7310, 2.823660
654.2131, 3.907852
654.6952, 4.817778
655.1773, 4.315197
655.6594, 3.176197
656.1415, 2.680204
656.6237, 3.127983
657.1058, 2.817360
657.5879, 0.9706170
658.0700, 2.448360
658.5521, 2.118891
659.0342, 8.887165
659.5164, 12.89633
659.9985, 12.90891
660.4806, 11.93162
660.9627, 13.54443
661.4448, 16.02571
661.9269, 13.45724
662.4091, 4.977184
662.8912, 1.651873
663.3733, 2.678692
663.8554, 1.1217000E-02
664.3375, 2.870541
664.8196, 5.850388
665.3018, 9.246313
665.7839, 14.90753
666.2660, 18.94507
666.7481, 17.15848
667.2302, 12.84091
667.7123, 12.84132
668.1945, 19.50471
668.6766, 26.25715
669.1587, 23.36003
669.6408, 11.64252
670.1229, 3.920256
670.6050, 0.9353920
671.0872, 0.9221000
671.5693, 5.121189
672.0514, 10.73321
672.5335, 12.70909
673.0156, 10.14989
673.4977, 8.082895
673.9799, 7.887703
674.4620, 8.845638
674.9441, 11.32424
675.4262, 14.42213
675.9083, 15.81470
676.3904, 14.47312
676.8726, 11.82639
677.3547, 9.795517
677.8368, 8.101038
678.3189, 9.216118
678.8010, 16.84534
679.2831, 21.84488
679.7653, 17.74317
680.2474, 10.63598
680.7295, 8.668257
681.2116, 13.55508
681.6937, 17.79152
682.1758, 15.61537
682.6580, 11.21681
683.1401, 11.48260
683.6222, 15.51580
684.1043, 17.85026
684.5864, 15.78348
685.0685, 11.95623
685.5507, 10.96596
686.0328, 14.57483
686.5149, 15.35486
686.9970, 10.05900
687.4791, 5.358501
687.9612, 3.612101
688.4434, 3.392881
688.9255, 2.527403
689.4076, 0.5661110
689.8897, 0.2977180
690.3718, 2.745787
690.8539, 7.652637
691.3361, 10.31275
691.8182, 10.69755
692.3003, 10.82960
692.7824, 11.75669
693.2645, 12.34352
693.7466, 10.36588
694.2288, 4.485994
694.7109, 1.962902
695.1930, 4.396856
695.6751, 8.171850
696.1572, 14.61425
696.6393, 20.60435
697.1215, 20.77915
697.6036, 14.68166
698.0857, 7.957506
698.5678, 5.082378
699.0499, 5.510777
699.5320, 8.783706
700.0142, 15.11377
700.4963, 18.74170
700.9784, 16.75190
701.4605, 12.60881
701.9426, 11.15216
702.4247, 12.63465
702.9069, 13.03770
703.3890, 10.55765
703.8711, 9.369993
704.3532, 13.16554
704.8353, 18.04187
705.3174, 18.66796
705.7996, 14.44324
706.2817, 9.368266
706.7638, 7.013279
707.2459, 6.415522
707.7280, 5.652611
708.2101, 4.615543
708.6923, 4.663715
709.1743, 7.095037
709.6564, 9.341932
710.1385, 7.595585
710.6207, 2.359503
711.1028, 0.1477300
711.5849, 3.638857
712.0670, 7.546024
712.5491, 9.498991
713.0313, 11.01266
713.5134, 14.97168
713.9955, 20.88525
714.4776, 24.40019
714.9597, 21.91496
715.4418, 15.33773
715.9240, 9.311108
716.4061, 3.901861
716.8882, 1.393732
717.3703, 4.177227
717.8524, 6.894882
718.3345, 3.099972
718.8167, 4.599056
719.2988, 6.947725
719.7809, 0.3439220
720.2630, 7.320698
720.7451, 17.01331
721.2272, 23.86602
721.7094, 19.87938
722.1915, 7.672901
722.6736, 0.9627700
723.1557, 1.198357
723.6378, 9.700081
724.1199, 16.62895
724.6021, 22.20159
725.0842, 23.56949
725.5663, 17.98644
726.0484, 12.61571
726.5305, 13.80543
727.0126, 18.33529
727.4948, 19.47044
727.9769, 15.68646
728.4590, 12.29282
728.9411, 11.37265
729.4232, 11.16696
729.9053, 10.30028
730.3875, 9.078410
730.8696, 8.348211
731.3517, 8.450747
731.8338, 8.454521
732.3159, 5.943186
732.7980, 0.9398480
733.2802, 1.957506
733.7623, 12.13318
734.2444, 19.31972
734.7265, 16.48429
735.2086, 9.282540
735.6907, 5.215359
736.1729, 4.329952
736.6550, 5.837709
737.1371, 14.17589
737.6192, 20.15375
738.1013, 15.24639
738.5834, 5.425266
739.0656, 0.6357590
739.5477, 3.031736
740.0298, 7.662136
740.5119, 10.17599
740.9940, 10.80903
741.4761, 10.12190
741.9583, 7.677343
742.4404, 6.613350
742.9225, 8.691967
743.4046, 11.10107
743.8867, 10.76893
744.3688, 8.193208
744.8510, 6.157179
745.3331, 4.060316
745.8152, 3.569565
746.2973, 6.999664
746.7794, 11.10859
747.2615, 11.79858
747.7437, 9.676464
748.2258, 9.041374
748.7079, 12.76415
749.1900, 18.00664
749.6721, 19.82461
750.1542, 18.23759
750.6364, 13.93834
751.1185, 5.557001
751.6006, 0.7483540
752.0827, 0.2204110
752.5648, 5.488991
753.0469, 6.415949
753.5291, 0.2680320
754.0112, 2.573004
754.4933, 1.909378
754.9754, 7.418888
755.4575, 10.41726
755.9396, 11.52901
756.4218, 12.77632
756.9039, 14.73140
757.3860, 15.45617
757.8681, 11.66090
758.3502, 4.774689
758.8323, 0.5063100
759.3145, 4.194523
759.7966, 4.892605
760.2787, 1.368744
760.7608, 3.841555
761.2429, 7.912759
761.7250, 10.91243
762.2072, 11.75320
762.6893, 9.146804
763.1714, 6.217001
763.6535, 0.7351840
764.1356, 2.639833
764.6177, 3.092810
765.0999, 15.76714
765.5820, 24.26822
766.0641, 20.44355
766.5462, 13.00311
767.0283, 14.19980
767.5104, 21.64098
767.9926, 26.75417
768.4747, 28.13689
768.9568, 25.80237
769.4389, 18.79240
769.9210, 9.436755
770.4031, 5.996550
770.8853, 13.94166
771.3674, 17.06689
771.8495, 9.841618
772.3316, 3.966248
772.8137, 6.151865
773.2958, 12.18168
773.7780, 14.97067
774.2601, 12.71564
774.7422, 11.04524
775.2243, 15.45496
775.7064, 21.14216
776.1885, 20.85251
776.6707, 15.87159
777.1528, 13.07025
777.6349, 15.35214
778.1170, 19.19553
778.5991, 20.99440
779.0812, 20.78596
779.5634, 18.90361
780.0455, 13.96140
780.5276, 10.44906
781.0097, 11.95712
781.4918, 13.16092
781.9739, 7.204076
782.4561, 3.129047
782.9382, 5.682514
783.4203, 8.242209
783.9024, 21.51688
784.3845, 27.63434
784.8666, 27.69641
785.3488, 19.41809
785.8309, 5.821355
786.3130, 3.465244
786.7951, 3.023779
787.2772, 2.809530
787.7593, 7.581640
788.2415, 11.26166
788.7236, 12.74557
789.2057, 11.13794
789.6878, 10.73243
790.1699, 14.70416
790.6520, 19.90448
791.1342, 20.43531
791.6162, 15.42506
792.0983, 11.40135
792.5804, 8.664497
793.0626, 7.033393
793.5447, 6.607806
794.0268, 7.128365
794.5089, 8.743062
794.9910, 11.16003
795.4731, 13.16904
795.9553, 14.00475
796.4374, 13.94479
796.9195, 12.55939
797.4016, 10.48199
797.8837, 11.36852
798.3658, 16.01429
798.8480, 19.27323
799.3301, 16.67496
799.8122, 10.83595
800.2943, 10.89874
800.7764, 21.66779
801.2585, 28.01364
801.7407, 27.95382
802.2228, 25.34692
802.7049, 18.99676
803.1870, 12.06922
803.6691, 9.450942
804.1512, 12.14270
804.6334, 14.89008
805.1155, 15.65555
805.5976, 14.87585
806.0797, 11.27883
806.5618, 6.825397
807.0439, 6.669940
807.5261, 11.63854
808.0082, 15.64962
808.4903, 12.29281
808.9724, 4.240997
809.4545, 2.238213
809.9366, 7.476427
810.4188, 11.47965
810.9009, 12.57808
811.3830, 12.97822
811.8651, 14.60882
812.3472, 17.16178
812.8293, 17.37637
813.3115, 14.70376
813.7936, 10.93248
814.2757, 3.426100
814.7578, 2.245909
815.2399, 1.384518
815.7220, 3.322010
816.2042, 7.599056
816.6863, 10.05654
817.1684, 10.73602
817.6505, 8.030267
818.1326, 5.042377
818.6147, 8.687271
819.0969, 17.29731
819.5790, 21.96558
820.0611, 20.08785
820.5432, 15.24249
821.0253, 10.22775
821.5074, 5.567845
821.9896, 5.030194
822.4717, 12.05218
822.9538, 16.33384
823.4359, 15.48010
823.9180, 13.01084
824.4001, 9.213722
824.8823, 5.609000
825.3644, 5.374107
825.8465, 9.715008
826.3286, 14.44288
826.8107, 20.03730
827.2928, 23.55219
827.7750, 19.76795
828.2571, 12.81640
828.7392, 12.33510
829.2213, 20.19660
829.7034, 26.66885
830.1855, 20.94624
830.6677, 8.019532
831.1498, 2.040779
831.6319, 2.891928
832.1140, 6.363238
832.5961, 12.27856
833.0782, 17.19594
833.5604, 18.00265
834.0425, 15.69066
834.5246, 14.55635
835.0067, 15.92303
835.4888, 16.21658
835.9709, 14.14508
836.4531, 12.48310
836.9352, 13.10957
837.4173, 14.60919
837.8994, 14.80499
838.3815, 13.27688
838.8636, 11.44776
839.3458, 8.809301
839.8279, 7.279365
840.3100, 10.17327
840.7921, 14.81727
841.2742, 15.69084
841.7563, 11.76000
842.2385, 8.010252
842.7206, 8.633302
843.2027, 11.75850
843.6848, 12.00314
844.1669, 9.074111
844.6490, 10.26935
845.1312, 18.53827
845.6133, 23.25334
846.0954, 16.08692
846.5775, 3.172755
847.0596, 1.975374
847.5417, 3.503204
848.0239, 8.119919
848.5060, 12.09692
848.9881, 14.99692
849.4702, 15.98725
849.9523, 16.86129
850.4344, 19.76468
850.9166, 22.87853
851.3987, 22.63144
851.8808, 13.90182
852.3629, 6.340838
852.8450, 10.71010
853.3271, 20.26908
853.8093, 23.95423
854.2914, 21.31682
854.7735, 17.63945
855.2556, 15.75057
855.7377, 15.54640
856.2198, 18.00633
856.7020, 23.13473
857.1841, 23.81156
857.6662, 18.66649
858.1483, 13.33442
858.6304, 9.145912
859.1125, 6.760766
859.5947, 7.684196
860.0768, 11.94517
860.5589, 13.64335
861.0410, 9.515723
861.5231, 7.512065
862.0052, 9.996335
862.4874, 13.52213
862.9695, 15.60822
863.4516, 16.93853
863.9337, 20.16740
864.4158, 26.91168
864.8979, 30.50035
865.3801, 23.67953
865.8622, 14.11955
866.3443, 10.94779
866.8264, 11.84565
867.3085, 9.459096
867.7906, 2.144802
868.2728, 4.220371
868.7549, 3.716602
869.2370, 1.301739
869.7191, 3.862570
870.2012, 3.990791
870.6833, 6.218918
871.1655, 12.10672
871.6476, 15.98473
872.1297, 13.20323
872.6118, 6.594074
873.0939, 3.639879
873.5760, 5.488693
874.0581, 7.549935
874.5402, 9.408835
875.0223, 11.98383
875.5045, 18.01723
875.9866, 23.18062
876.4687, 22.12178
876.9508, 15.31996
877.4329, 9.481046
877.9150, 6.527287
878.3972, 5.430120
878.8793, 6.665706
879.3614, 8.780691
879.8435, 10.00124
880.3256, 10.64655
880.8077, 12.30506
881.2899, 15.20028
881.7720, 18.06709
882.2541, 19.31129
882.7362, 19.05933
883.2183, 16.99866
883.7004, 13.42308
884.1826, 11.08389
884.6647, 10.83532
885.1468, 12.36882
885.6289, 15.99386
886.1110, 20.68503
886.5931, 19.98615
887.0753, 10.11884
887.5574, 6.764924
888.0395, 16.85542
888.5216, 25.39348
889.0037, 21.93961
889.4858, 12.69465
889.9680, 8.150149
890.4501, 9.331890
890.9322, 9.912657
891.4143, 8.503070
891.8964, 6.922513
892.3785, 5.616472
892.8607, 4.727203
893.3428, 4.493795
893.8249, 4.821421
894.3070, 5.133339
894.7891, 4.714167
895.2712, 5.573225
895.7534, 11.77233
896.2355, 19.18249
896.7176, 20.80331
897.1997, 17.27603
897.6818, 12.64909
898.1639, 8.580989
898.6461, 5.308043
899.1282, 2.805246
899.6103, 1.482275
900.0924, 4.154055
900.5745, 11.11722
901.0566, 14.87755
901.5388, 13.78352
902.0209, 11.72992
902.5030, 11.14136
902.9851, 11.85142
903.4672, 13.81624
903.9493, 18.56695
904.4315, 20.21964
904.9136, 15.40605
905.3957, 11.81456
905.8778, 15.43888
906.3599, 18.65131
906.8420, 10.25732
907.3242, 7.740225
907.8063, 16.21760
908.2884, 3.288568
908.7705, 9.818531
909.2526, 15.72935
909.7347, 17.82984
910.2169, 17.85736
910.6990, 16.84533
911.1811, 16.22743
911.6632, 16.47560
912.1453, 16.52846
912.6274, 16.41949
913.1096, 14.96248
913.5917, 7.431475
914.0738, 2.692688
914.5559, 4.146570
915.0380, 4.589413
915.5201, 14.81953
916.0023, 20.74682
916.4844, 22.42251
916.9665, 18.45247
917.4486, 8.912118
917.9307, 3.723267
918.4128, 3.803896
918.8950, 5.310078
919.3771, 6.527584
919.8592, 9.092545
920.3413, 16.15582
920.8234, 27.50397
921.3055, 31.44038
921.7877, 21.82724
922.2698, 15.66003
922.7519, 16.46292
923.2340, 19.37863
923.7161, 24.14747
924.1982, 28.58318
924.6804, 27.82763
925.1625, 20.11774
925.6446, 15.83614
926.1267, 20.73149
926.6088, 25.67110
927.0909, 26.99229
927.5731, 25.24603
928.0552, 19.62565
928.5373, 11.81624
929.0194, 6.906940
929.5015, 7.499835
929.9836, 10.66464
930.4658, 15.80305
930.9479, 20.79714
931.4300, 21.62860
931.9121, 19.64712
932.3942, 19.70740
932.8763, 23.09132
933.3585, 26.45972
933.8406, 26.78865
934.3227, 24.79166
934.8048, 21.17814
935.2869, 16.40376
935.7690, 16.00295
936.2512, 21.05073
936.7333, 21.94808
937.2154, 12.40458
937.6975, 0.2012560
938.1796, 3.194809
938.6617, 3.903900
939.1439, 10.17052
939.6260, 16.84068
940.1081, 18.93584
940.5902, 11.86489
941.0723, 4.941683
941.5544, 6.263681
942.0366, 13.40884
942.5187, 18.12537
943.0008, 19.92164
943.4829, 20.65149
943.9650, 19.58673
944.4471, 18.42947
944.9293, 16.99382
945.4114, 16.46336
945.8935, 18.40694
946.3756, 22.19641
946.8577, 25.90589
947.3398, 31.39632
947.8220, 32.61371
948.3041, 22.47198
948.7862, 10.41687
949.2683, 4.090914
949.7504, 2.831732
950.2325, 4.846781
950.7147, 9.156758
951.1968, 12.40431
951.6789, 11.19446
952.1610, 8.638142
952.6431, 8.924688
953.1252, 10.74544
953.6074, 11.33322
954.0895, 10.46243
954.5716, 8.955966
955.0537, 7.170440
955.5358, 6.234133
956.0179, 8.418150
956.5000, 12.74885
956.9821, 15.34605
957.4642, 16.14356
957.9464, 12.28895
958.4285, 2.573298
958.9106, 5.643782
959.3927, 6.732874
959.8748, 2.429018
960.3569, 3.493900
960.8391, 12.01879
961.3212, 16.67680
961.8033, 16.59691
962.2854, 14.77639
962.7675, 10.31095
963.2496, 7.439241
963.7318, 11.98990
964.2139, 22.46990
964.6960, 27.57784
965.1781, 24.33390
965.6602, 19.05804
966.1423, 7.646853
966.6245, 1.485489
967.1066, 10.98284
967.5887, 24.64186
968.0708, 26.84340
968.5529, 17.31068
969.0350, 10.80334
969.5172, 12.74809
969.9993, 14.95303
970.4814, 15.39195
970.9635, 14.59199
971.4456, 11.43015
971.9277, 7.628469
972.4099, 7.417211
972.8920, 12.12480
973.3741, 16.26928
973.8562, 16.77028
974.3383, 15.80902
974.8204, 14.35738
975.3026, 12.96433
975.7847, 12.98237
976.2668, 13.85286
976.7489, 13.23826
977.2310, 10.50692
977.7131, 8.073950
978.1953, 8.591970
978.6774, 10.88307
979.1595, 13.99771
979.6416, 17.05437
980.1237, 16.70460
980.6058, 12.83725
981.0880, 9.869299
981.5701, 10.79125
982.0522, 7.752534
982.5343, 11.10122
983.0164, 6.340632
983.4985, 4.833982
983.9807, 6.692628
984.4628, 11.78389
984.9449, 20.53488
985.4270, 25.44376
985.9091, 18.87808
986.3912, 6.006008
986.8734, 3.348924
987.3555, 12.54175
987.8376, 18.41807
988.3197, 20.47597
988.8018, 18.49293
989.2839, 10.01444
989.7661, 2.175364
990.2482, 3.785151
990.7303, 13.22807
991.2124, 18.58396
991.6945, 18.05751
992.1766, 17.65956
992.6588, 17.96234
993.1409, 17.96512
993.6230, 16.98981
994.1051, 15.66598
994.5872, 15.00309
995.0693, 14.98141
995.5515, 13.95309
996.0336, 10.22071
996.5157, 8.172585
996.9978, 9.730072
997.4799, 10.91770
997.9620, 8.291611
998.4442, 4.605490
998.9263, 4.419992
999.4084, 8.177997
999.8905, 11.19698
1000.373, 12.42921
1000.855, 12.60004
1001.337, 12.36654
1001.819, 10.78113
1002.301, 5.168545
1002.783, 1.724068
1003.265, 4.428644
1003.747, 1.705967
1004.230, 1.793685
1004.712, 3.607806
1005.194, 5.636194
1005.676, 10.64459
1006.158, 15.47465
1006.640, 15.87255
1007.122, 13.06174
1007.604, 11.39017
1008.086, 12.38248
1008.569, 13.20545
1009.051, 10.90707
1009.533, 8.036056
1010.015, 8.208238
1010.497, 9.409223
1010.979, 6.475208
1011.461, 0.7164210
1011.943, 9.2983000E-02
1012.426, 7.699621
1012.908, 16.93781
1013.390, 20.56231
1013.872, 20.12261
1014.354, 16.85180
1014.836, 12.19631
1015.318, 10.97485
1015.800, 13.34079
1016.282, 14.19648
1016.765, 10.08679
1017.247, 5.606666
1017.729, 7.884772
1018.211, 14.92143
1018.693, 20.14695
1019.175, 23.43103
1019.657, 24.07732
1020.139, 21.73119
1020.622, 18.55252
1021.104, 16.30476
1021.586, 14.48088
1022.068, 11.46061
1022.550, 7.634101
1023.032, 8.277279
1023.514, 13.50654
1023.996, 15.29060
1024.478, 11.34164
1024.961, 7.528635
1025.443, 8.400684
1025.925, 11.20159
1026.407, 8.627647
1026.889, 10.61571
1027.371, 13.25982
1027.853, 10.61364
1028.335, 17.26504
1028.818, 15.46619
1029.300, 11.98794
1029.782, 12.09596
1030.264, 13.90540
1030.746, 12.64710
1031.228, 7.588455
1031.710, 3.954908
1032.192, 2.156994
1032.674, 0.2731820
1033.156, 3.469460
1033.639, 4.707102
1034.121, 1.711771
1034.603, 12.19337
1035.085, 15.95866
1035.567, 10.40898
1036.049, 7.349489
1036.531, 7.267208
1037.013, 8.916481
1037.496, 14.11249
1037.978, 18.14917
1038.460, 16.31105
1038.942, 10.57224
1039.424, 7.076717
1039.906, 6.526433
1040.388, 6.127003
1040.870, 4.467762
1041.353, 5.014499
1041.835, 11.07457
1042.317, 17.37672
1042.799, 19.03531
1043.281, 17.76126
1043.763, 19.23355
1044.245, 17.48581
1044.727, 12.33097
1045.209, 13.42232
1045.692, 2.260735
1046.174, 1.694234
1046.656, 1.411692
1047.138, 2.829760
1047.620, 9.096851
1048.102, 12.53329
1048.584, 12.20522
1049.066, 11.23514
1049.548, 8.471999
1050.031, 6.740003
1050.513, 8.254961
1050.995, 9.932120
1051.477, 7.490311
1051.959, 3.517206
1052.441, 5.813663
1052.923, 17.63965
1053.405, 24.43176
1053.888, 19.66405
1054.370, 13.83740
1054.852, 8.763717
1055.334, 6.096269
1055.816, 9.142449
1056.298, 15.19244
1056.780, 17.32576
1057.262, 13.86339
1057.745, 11.22269
1058.227, 12.86069
1058.709, 13.53169
1059.191, 9.256393
1059.673, 4.733680
1060.155, 3.951083
1060.637, 6.197533
1061.119, 9.777214
1061.601, 15.25531
1062.083, 16.76512
1062.566, 6.417694
1063.048, 0.9614230
1063.530, 4.913680
1064.012, 13.12692
1064.494, 13.61500
1064.976, 9.252626
1065.458, 7.534900
1065.940, 9.946427
1066.423, 11.20376
1066.905, 7.086400
1067.387, 4.203127
1067.869, 7.584972
1068.351, 11.61497
1068.833, 11.17837
1069.315, 7.934245
1069.797, 5.272196
1070.280, 3.906013
1070.762, 3.282919
1071.244, 3.673245
1071.726, 4.106126
1072.208, 4.264132
1072.690, 4.163754
1073.172, 3.426482
1073.654, 2.624399
1074.136, 2.670648
1074.619, 3.679466
1075.101, 5.209383
1075.583, 8.908465
1076.065, 10.02513
1076.547, 2.808895
1077.029, 4.396633
1077.511, 4.457691
1077.993, 0.5400620
1078.475, 2.499360
1078.958, 3.891304
1079.440, 4.672529
1079.922, 4.976007
1080.404, 5.315580
1080.886, 6.103451
1081.368, 6.842286
1081.850, 7.316350
1082.332, 7.437173
1082.814, 6.124923
1083.297, 4.221747
1083.779, 5.875705
1084.261, 14.49203
1084.743, 20.05543
1085.225, 16.03755
1085.707, 9.644692
1086.189, 3.231411
1086.671, 1.295440
1087.154, 1.603750
1087.636, 1.672032
1088.118, 6.548560
1088.600, 13.28369
1089.082, 17.07113
1089.564, 12.96673
1090.046, 8.997888
1090.528, 11.86984
1091.010, 14.90641
1091.493, 10.37282
1091.975, 1.880282
1092.457, 1.252667
1092.939, 3.559555
1093.421, 7.734620
1093.903, 7.294824
1094.385, 6.580664
1094.867, 6.826988
1095.349, 8.261074
1095.832, 12.62525
1096.314, 17.65392
1096.796, 18.77663
1097.278, 15.32274
1097.760, 12.66882
1098.242, 13.68800
1098.724, 14.06861
1099.206, 10.57388
1099.689, 7.848728
1100.171, 10.17434
1100.653, 14.68536
1101.135, 17.99087
1101.617, 19.39891
1102.099, 17.04740
1102.581, 5.724564
1103.063, 1.149057
1103.546, 2.888808
1104.028, 8.162267
1104.510, 11.50188
1104.992, 12.34407
1105.474, 8.060160
1105.956, 0.4700320
1106.438, 1.980972
1106.920, 4.331410
1107.402, 9.759435
1107.885, 13.43416
1108.367, 15.19587
1108.849, 13.49948
1109.331, 11.16992
1109.813, 11.30694
1110.295, 12.69199
1110.777, 11.35815
1111.259, 5.901578
1111.741, 2.585639
1112.224, 4.014111
1112.706, 4.584510
1113.188, 1.040770
1113.670, 1.549537
1114.152, 0.9498840
1114.634, 6.177159
1115.116, 10.41509
1115.598, 13.76603
1116.081, 14.72471
1116.563, 12.62174
1117.045, 9.129267
1117.527, 1.558488
1118.009, 3.114142
1118.491, 0.2895240
1118.973, 5.275632
1119.455, 8.074031
1119.938, 8.387552
1120.420, 9.011369
1120.902, 10.16870
1121.384, 11.07917
1121.866, 12.11756
1122.348, 11.67268
1122.830, 7.982306
1123.312, 4.960239
1123.794, 7.302362
1124.276, 12.26677
1124.759, 10.09154
1125.241, 11.62509
1125.723, 14.60232
1126.205, 9.080284
1126.687, 16.75503
1127.169, 14.06964
1127.651, 8.857460
1128.133, 5.666865
1128.616, 4.702962
1129.098, 6.872512
1129.580, 11.86262
1130.062, 14.47744
1130.544, 14.64612
1131.026, 12.10323
1131.508, 6.238637
1131.990, 4.619968
1132.473, 11.54634
1132.955, 18.79684
1133.437, 16.14011
1133.919, 6.901253
1134.401, 2.166073
1134.883, 1.388930
1135.365, 2.277343
1135.847, 4.479493
1136.329, 6.371566
1136.812, 7.451320
1137.294, 9.043846
1137.776, 12.33121
1138.258, 16.02595
1138.740, 18.28724
1139.222, 18.96372
1139.704, 16.98350
1140.186, 12.91315
1140.668, 8.415855
1141.151, 4.241212
1141.633, 2.519218
1142.115, 4.332464
1142.597, 8.269480
1143.079, 15.15679
1143.561, 21.02661
1144.043, 16.57476
1144.525, 7.227900
1145.008, 4.773076
1145.490, 8.250392
1145.972, 10.29733
1146.454, 8.655161
1146.936, 5.200083
1147.418, 0.6300180
1147.900, 3.616530
1148.382, 4.889096
1148.865, 15.85667
1149.347, 18.12674
1149.829, 15.39330
1150.311, 15.50601
1150.793, 18.74200
1151.275, 19.28116
1151.757, 14.36697
1152.239, 9.078083
1152.721, 4.681169
1153.203, 2.749702
1153.686, 7.001805
1154.168, 12.01180
1154.650, 11.22302
1155.132, 6.959114
1155.614, 5.128424
1156.096, 6.854366
1156.578, 10.02006
1157.060, 18.43569
1157.543, 21.86359
1158.025, 12.14761
1158.507, 2.641397
1158.989, 2.029656
1159.471, 5.391155
1159.953, 6.323283
1160.435, 5.146108
1160.917, 5.216448
1161.400, 7.090686
1161.882, 9.489678
1162.364, 14.86235
1162.846, 16.96839
1163.328, 12.19605
1163.810, 6.262178
1164.292, 2.333346
1164.774, 0.8536790
1165.256, 2.835357
1165.739, 8.643802
1166.221, 11.12261
1166.703, 9.244313
1167.185, 7.630730
1167.667, 6.439951
1168.149, 7.383068
1168.631, 11.82847
1169.113, 16.80198
1169.595, 19.19153
1170.078, 19.16207
1170.560, 16.63812
1171.042, 11.73553
1171.524, 8.599982
1172.006, 7.509666
1172.488, 6.066591
1172.970, 3.697291
1173.452, 1.912620
1173.934, 1.754362
1174.417, 1.958616
1174.899, 0.1342850
1175.381, 2.437813
1175.863, 2.265222
1176.345, 0.1854050
1176.827, 2.905839
1177.309, 5.334779
1177.791, 6.332785
1178.274, 5.675665
1178.756, 5.034389
1179.238, 5.656122
1179.720, 6.839203
1180.202, 8.594337
1180.684, 9.833341
1181.166, 9.122988
1181.648, 6.936466
1182.130, 2.410079
1182.613, 2.692021
1183.095, 1.969106
1183.577, 7.603318
1184.059, 16.38618
1184.541, 20.72697
1185.023, 21.17496
1185.505, 14.19637
1185.987, 7.149612
1186.469, 5.970765
1186.952, 9.135402
1187.434, 14.92509
1187.916, 22.58976
1188.398, 25.86637
1188.880, 21.81999
1189.362, 16.70630
1189.844, 7.242058
1190.326, 2.119612
1190.809, 8.969559
1191.291, 15.73462
1191.773, 10.62017
1192.255, 0.4406750
1192.737, 2.757430
1193.219, 4.774114
1193.701, 8.647613
1194.183, 7.584761
1194.666, 7.888492
1195.148, 10.90075
1195.630, 13.11375
1196.112, 12.76016
1196.594, 11.78938
1197.076, 12.54047
1197.558, 13.85938
1198.040, 11.48270
1198.522, 6.168941
1199.005, 4.935918
1199.487, 7.512825
1199.969, 9.604722
1200.451, 10.37041
1200.933, 11.77359
1201.415, 14.91423
1201.897, 17.64236
1202.379, 16.66271
1202.861, 14.76505
1203.344, 17.58426
1203.826, 21.97772
1204.308, 22.36891
1204.790, 19.51368
1205.272, 15.31230
1205.754, 10.93452
1206.236, 10.94251
1206.718, 19.31121
1207.201, 24.10479
1207.683, 12.18594
1208.165, 0.9639100
1208.647, 3.656847
1209.129, 11.64417
1209.611, 17.94115
1210.093, 21.47918
1210.575, 21.02373
1211.057, 16.28293
1211.540, 14.15646
1212.022, 20.84478
1212.504, 21.98717
1212.986, 8.719913
1213.468, 0.5387510
1213.950, 2.523460
1214.432, 9.873664
1214.914, 15.71862
1215.396, 19.37291
1215.879, 18.62094
1216.361, 13.10309
1216.843, 7.460767
1217.325, 1.304611
1217.807, 2.220099
1218.289, 2.569662
1218.771, 0.8138750
1219.253, 2.627984
1219.736, 8.010880
1220.218, 16.14190
1220.700, 23.81021
1221.182, 22.04514
1221.664, 14.44385
1222.146, 13.59442
1222.628, 17.69992
1223.110, 18.72878
1223.593, 15.86920
1224.075, 13.54296
1224.557, 13.67122
1225.039, 13.26923
1225.521, 8.828771
1226.003, 4.262954
1226.485, 1.699346
1226.967, 2.027900
1227.449, 8.693561
1227.932, 17.47635
1228.414, 22.46347
1228.896, 23.10748
1229.378, 21.13700
1229.860, 15.62793
1230.342, 12.62342
1230.824, 15.90376
1231.306, 18.20422
1231.788, 17.65174
1232.271, 16.28423
1232.753, 14.97323
1233.235, 14.10215
1233.717, 13.87348
1234.199, 16.25558
1234.681, 14.23509
1235.163, 15.43905
1235.645, 16.56047
1236.128, 14.07282
1236.610, 17.18643
1237.092, 12.30601
1237.574, 6.808896
1238.056, 4.945402
1238.538, 6.005662
1239.020, 9.732064
1239.502, 14.71841
1239.984, 17.82126
1240.467, 19.40378
1240.949, 19.24146
1241.431, 17.41783
1241.913, 12.80601
1242.395, 6.351031
1242.877, 3.665555
1243.359, 7.818231
1243.841, 13.06622
1244.323, 16.59564
1244.806, 17.92606
1245.288, 14.71267
1245.770, 11.02059
1246.252, 11.32736
1246.734, 13.48843
1247.216, 13.26736
1247.698, 10.76982
1248.180, 10.22382
1248.662, 13.64023
1249.145, 15.47775
1249.627, 14.24917
1250.109, 13.35607
1250.591, 13.72415
1251.073, 14.39237
1251.555, 15.36852
1252.037, 15.19121
1252.519, 10.61883
1253.002, 12.44988
1253.484, 4.673878
1253.966, 11.71509
1254.448, 13.69490
1254.930, 10.52746
1255.412, 8.242178
1255.894, 8.128345
1256.376, 8.007039
1256.859, 6.725154
1257.341, 5.976438
1257.823, 8.366040
1258.305, 11.01895
1258.787, 8.952633
1259.269, 5.727355
1259.751, 6.043635
1260.233, 8.890370
1260.715, 13.53699
1261.198, 18.26904
1261.680, 17.14020
1262.162, 6.873920
1262.644, 1.954905
1263.126, 11.89527
1263.608, 20.52665
1264.090, 24.48545
1264.572, 24.20712
1265.054, 16.98643
1265.537, 8.675033
1266.019, 5.322457
1266.501, 5.885472
1266.983, 7.078091
1267.465, 8.988841
1267.947, 10.04841
1268.429, 9.942822
1268.911, 14.18926
1269.394, 23.72732
1269.876, 27.93330
1270.358, 22.39820
1270.840, 14.20794
1271.322, 9.092044
1271.804, 7.224054
1272.286, 11.66834
1272.768, 17.49060
1273.250, 15.23875
1273.733, 8.651339
1274.215, 3.802940
1274.697, 1.469570
1275.179, 1.489033
1275.661, 3.481454
1276.143, 4.138047
1276.625, 0.8899900
1277.107, 1.358485
1277.589, 0.4270240
1278.072, 1.079419
1278.554, 1.901750
1279.036, 2.972420
1279.518, 5.144485
1280.000, 7.952528
1280.482, 10.86109
1280.964, 13.60127
1281.446, 14.89307
1281.929, 12.86564
1282.411, 8.994862
1282.893, 3.456031
1283.375, 0.2027460
1283.857, 0.1102030
1284.339, 1.767253
1284.821, 4.739315
1285.303, 5.362769
1285.786, 3.923791
1286.268, 0.0000000E+00
##END=



