##NAMES=Uchucchacuaite
##RRUFFID=R100213
##IDEAL CHEMISTRY=Ag^1+^Mn^2+^Pb^2+^_3_Sb^3+^_5_S^2-^_12_
##LOCALITY=Uchuc-Chacua, Lima, Peru
##OWNER=RRUFF
##SOURCE=Mark N. Feinglos
##DESCRIPTION=Bright silver metallic massive, associated with quartz
##STATUS=The identification of this mineral is confirmed by single-crystal X-ray diffraction and chemical analysis.
##URL=rruff.info/R100213
##MEASURED CHEMISTRY=Ag_0.99_(Mn_0.92_Pb_0.03_Sb_0.02_Bi_0.01_)_Î£=0.98_Pb_3.00_Sb_5.00_S_12.00_ ; (Note: bright phase is galena, PbS)
179.7447, 0.0000000E+00
180.2268, 2.759453
180.7090, 5.761528
181.1911, 8.815582
181.6732, 10.01534
182.1553, 5.767250
182.6374, 3.671432
183.1195, 4.091080
183.6017, 8.631607
184.0838, 13.80634
184.5659, 11.84325
185.0480, 4.233887
185.5301, 1.324181
186.0123, 0.1396410
186.4944, 5.890869
186.9765, 10.15273
187.4586, 12.31269
187.9407, 13.29939
188.4228, 14.83162
188.9050, 16.74649
189.3871, 17.05817
189.8692, 13.10625
190.3513, 6.150848
190.8334, 2.797791
191.3155, 3.832596
191.7977, 7.289055
192.2798, 12.07259
192.7619, 16.00746
193.2440, 18.34837
193.7261, 17.63992
194.2082, 14.19052
194.6904, 11.60091
195.1725, 10.17082
195.6546, 9.418968
196.1367, 8.548546
196.6188, 7.543106
197.1009, 6.584274
197.5831, 5.242783
198.0652, 3.512306
198.5473, 4.284760
199.0294, 8.613197
199.5115, 14.24197
199.9937, 16.25231
200.4758, 14.18215
200.9579, 11.38902
201.4400, 9.724159
201.9221, 9.289375
202.4042, 8.544746
202.8864, 7.428551
203.3685, 5.934731
203.8506, 3.295998
204.3327, 1.273605
204.8148, 3.767807
205.2969, 0.7665480
205.7791, 8.904060
206.2612, 15.43988
206.7433, 17.91149
207.2254, 17.23981
207.7075, 15.23476
208.1896, 11.23768
208.6718, 7.808601
209.1539, 6.209625
209.6360, 6.510757
210.1181, 8.522713
210.6002, 13.00286
211.0823, 18.76817
211.5645, 22.47185
212.0466, 23.74113
212.5287, 23.78125
213.0108, 22.89509
213.4929, 20.57619
213.9750, 19.42761
214.4572, 20.14542
214.9393, 21.89893
215.4214, 21.99383
215.9035, 19.50052
216.3856, 17.23770
216.8678, 17.11260
217.3499, 20.27383
217.8320, 21.59972
218.3141, 19.82710
218.7962, 16.35294
219.2783, 15.88377
219.7605, 19.88210
220.2426, 24.22054
220.7247, 26.99709
221.2068, 28.57571
221.6889, 27.18873
222.1710, 20.91792
222.6532, 12.06654
223.1353, 8.612450
223.6174, 13.70098
224.0995, 18.87248
224.5816, 19.22893
225.0637, 11.31802
225.5459, 7.746262
226.0280, 11.11481
226.5101, 18.57610
226.9922, 20.99215
227.4743, 15.63641
227.9564, 9.581245
228.4386, 6.049515
228.9207, 5.501923
229.4028, 6.716881
229.8849, 11.03620
230.3670, 16.76801
230.8492, 18.87454
231.3313, 14.76920
231.8134, 10.92480
232.2955, 10.56901
232.7776, 15.97102
233.2597, 19.62357
233.7419, 21.28383
234.2240, 21.23281
234.7061, 19.96381
235.1882, 16.58730
235.6703, 13.35877
236.1524, 11.12954
236.6346, 9.842484
237.1167, 9.914139
237.5988, 12.54842
238.0809, 16.12016
238.5630, 16.71305
239.0451, 12.21789
239.5273, 7.904510
240.0094, 6.170189
240.4915, 8.577568
240.9736, 9.292145
241.4557, 7.657013
241.9378, 4.684898
242.4200, 2.588799
242.9021, 0.5376210
243.3842, 0.6164860
243.8663, 8.2465999E-02
244.3484, 3.441544
244.8306, 6.229828
245.3127, 8.338585
245.7948, 9.902885
246.2769, 11.20235
246.7590, 12.49580
247.2411, 13.05919
247.7233, 12.45962
248.2054, 10.24034
248.6875, 8.576866
249.1696, 7.756676
249.6517, 7.345673
250.1338, 6.424744
250.6160, 3.943748
251.0981, 2.915497
251.5802, 5.055511
252.0623, 11.67050
252.5444, 14.36039
253.0265, 10.57909
253.5087, 4.944054
253.9908, 4.708275
254.4729, 13.42795
254.9550, 20.35511
255.4371, 21.53408
255.9192, 15.98171
256.4014, 13.44675
256.8835, 15.38281
257.3656, 18.89548
257.8477, 20.51273
258.3298, 19.64797
258.8120, 18.11270
259.2941, 15.72684
259.7762, 12.27634
260.2583, 11.91648
260.7404, 16.00149
261.2225, 21.48924
261.7047, 25.51318
262.1868, 28.27950
262.6689, 28.63911
263.1510, 25.96569
263.6331, 20.25539
264.1152, 16.06597
264.5974, 13.56791
265.0795, 12.38033
265.5616, 12.43293
266.0437, 14.18166
266.5258, 15.71612
267.0079, 16.89699
267.4901, 17.64821
267.9722, 16.92094
268.4543, 14.03710
268.9364, 11.02125
269.4185, 9.694275
269.9006, 10.51883
270.3828, 10.92926
270.8649, 10.16785
271.3470, 8.730026
271.8291, 8.906990
272.3112, 10.81096
272.7933, 14.05420
273.2755, 19.38748
273.7576, 27.66757
274.2397, 31.99121
274.7218, 30.56123
275.2039, 25.18677
275.6860, 21.06693
276.1682, 18.15045
276.6503, 16.53514
277.1324, 16.74567
277.6145, 18.96754
278.0966, 20.40757
278.5787, 20.58221
279.0609, 20.18335
279.5430, 21.18361
280.0251, 23.96407
280.5072, 25.76814
280.9893, 24.35011
281.4715, 19.74767
281.9536, 16.91863
282.4357, 16.40034
282.9178, 17.07008
283.3999, 17.01488
283.8820, 16.18641
284.3642, 15.47726
284.8463, 15.86514
285.3284, 17.11102
285.8105, 15.86633
286.2926, 11.40247
286.7747, 6.710876
287.2569, 6.635902
287.7390, 10.98912
288.2211, 14.79442
288.7032, 16.01524
289.1853, 15.03504
289.6674, 13.29686
290.1496, 10.67133
290.6317, 8.086060
291.1138, 6.300850
291.5959, 5.356270
292.0780, 5.605766
292.5602, 7.634995
293.0423, 10.75566
293.5244, 13.82817
294.0065, 16.90118
294.4886, 18.36334
294.9707, 14.96027
295.4529, 8.305870
295.9350, 4.453400
296.4171, 5.874619
296.8992, 10.04832
297.3813, 13.79466
297.8634, 16.92721
298.3456, 17.31086
298.8277, 9.912781
299.3098, 1.294037
299.7919, 7.048996
300.2740, 3.968994
300.7561, 2.756500
301.2383, 7.251953
301.7204, 9.763351
302.2025, 11.00276
302.6846, 10.55080
303.1667, 9.389282
303.6488, 9.070168
304.1310, 10.00175
304.6131, 11.26334
305.0952, 12.55772
305.5773, 13.54034
306.0594, 13.28217
306.5415, 9.601952
307.0237, 5.272018
307.5058, 3.447418
307.9879, 4.698578
308.4700, 6.648590
308.9521, 8.476791
309.4343, 9.664246
309.9164, 9.366402
310.3985, 5.773849
310.8806, 1.532585
311.3627, 1.763245
311.8448, 4.074158
312.3270, 4.756920
312.8091, 2.102768
313.2912, 1.968430
313.7733, 5.188446
314.2554, 6.303757
314.7375, 6.866234
315.2197, 7.849052
315.7018, 9.322838
316.1839, 10.52722
316.6660, 11.02454
317.1481, 11.16028
317.6302, 11.20717
318.1124, 11.18428
318.5945, 11.14355
319.0766, 11.27439
319.5587, 11.44204
320.0408, 11.32466
320.5229, 9.569054
321.0051, 8.023499
321.4872, 8.093338
321.9693, 11.23663
322.4514, 13.91302
322.9335, 15.82664
323.4156, 16.76915
323.8978, 16.33615
324.3799, 12.36301
324.8620, 8.826393
325.3441, 7.272568
325.8262, 8.428001
326.3083, 9.659180
326.7905, 11.84740
327.2726, 13.73627
327.7547, 13.75854
328.2368, 8.440582
328.7189, 4.829063
329.2010, 4.762817
329.6832, 8.606232
330.1653, 11.98235
330.6474, 16.15293
331.1295, 18.94292
331.6116, 18.34291
332.0938, 10.85535
332.5759, 5.570282
333.0580, 4.297928
333.5401, 6.462852
334.0222, 8.073982
334.5043, 9.047310
334.9865, 9.240707
335.4686, 8.247833
335.9507, 5.011337
336.4328, 4.185379
336.9149, 6.875885
337.3970, 11.71842
337.8792, 15.25797
338.3613, 17.75687
338.8434, 18.38159
339.3255, 15.53299
339.8076, 8.154022
340.2898, 5.950974
340.7719, 10.26741
341.2540, 17.43417
341.7361, 22.42787
342.2182, 24.64003
342.7003, 25.95438
343.1825, 26.87890
343.6646, 27.48114
344.1467, 28.44682
344.6288, 29.99792
345.1109, 30.83074
345.5930, 28.39917
346.0752, 23.25232
346.5573, 20.99331
347.0394, 24.46066
347.5215, 30.33031
348.0036, 30.57877
348.4857, 25.31528
348.9679, 19.47520
349.4500, 16.60654
349.9321, 16.00175
350.4142, 15.63692
350.8963, 15.20307
351.3784, 14.88244
351.8606, 15.22195
352.3427, 15.98009
352.8248, 16.26260
353.3069, 15.68333
353.7890, 14.37840
354.2711, 11.75796
354.7533, 7.386238
355.2354, 3.963387
355.7175, 5.125618
356.1996, 8.642609
356.6817, 10.62432
357.1638, 7.334656
357.6460, 3.147736
358.1281, 2.563820
358.6102, 5.152824
359.0923, 7.258865
359.5744, 5.877136
360.0565, 3.470299
360.5387, 2.594719
361.0208, 4.520485
361.5029, 6.695038
361.9850, 8.479477
362.4671, 9.655823
362.9492, 9.504135
363.4314, 5.637215
363.9135, 1.929161
364.3956, 0.7163470
364.8777, 3.403313
365.3598, 5.985985
365.8419, 8.158386
366.3241, 9.606285
366.8062, 9.833229
367.2883, 7.245979
367.7704, 4.930725
368.2526, 3.610443
368.7347, 3.008049
369.2168, 3.620018
369.6989, 8.158012
370.1810, 12.26612
370.6631, 12.20431
371.1453, 2.421997
371.6274, 3.361534
372.1095, 1.811043
372.5916, 5.666901
373.0737, 9.501617
373.5558, 8.041954
374.0380, 5.444633
374.5201, 3.957054
375.0022, 3.970245
375.4843, 3.907372
375.9664, 3.850891
376.4485, 3.551819
376.9307, 1.971275
377.4128, 1.567993
377.8949, 3.387016
378.3770, 0.8663330
378.8591, 5.623619
379.3412, 8.137070
379.8234, 5.880234
380.3055, 2.372559
380.7876, 2.035477
381.2697, 4.635002
381.7518, 5.903275
382.2339, 3.990082
382.7161, 0.6022030
383.1982, 9.7571999E-02
383.6803, 1.824501
384.1624, 4.294357
384.6445, 5.823921
385.1266, 6.716103
385.6088, 7.980164
386.0909, 10.10847
386.5730, 11.55950
387.0551, 9.354744
387.5372, 4.792793
388.0193, 1.561676
388.5015, 3.037933
388.9836, 6.084137
389.4657, 7.542336
389.9478, 7.230797
390.4299, 5.776939
390.9120, 2.007805
391.3942, 2.163971
391.8763, 4.319191
392.3584, 2.819061
392.8405, 0.1201630
393.3226, 4.704933
393.8047, 10.25292
394.2869, 13.66559
394.7690, 12.36031
395.2511, 9.484245
395.7332, 6.788071
396.2154, 4.102104
396.6975, 2.547791
397.1796, 3.691216
397.6617, 5.896088
398.1438, 6.357132
398.6259, 0.6146620
399.1081, 2.928894
399.5902, 0.5696560
400.0723, 9.123505
400.5544, 14.76394
401.0365, 14.01201
401.5186, 10.93913
402.0008, 8.809120
402.4829, 7.944786
402.9650, 7.381592
403.4471, 7.024147
403.9292, 6.888313
404.4113, 7.001045
404.8935, 7.263504
405.3756, 7.993492
405.8577, 9.825325
406.3398, 13.14737
406.8219, 14.32404
407.3040, 12.78763
407.7862, 10.11913
408.2683, 8.728897
408.7504, 8.670174
409.2325, 8.115967
409.7146, 6.102150
410.1967, 3.223213
410.6789, 0.9401470
411.1610, 0.7682950
411.6431, 1.116783
412.1252, 1.900223
412.6073, 6.916168
413.0894, 9.923149
413.5716, 9.823463
414.0537, 8.047356
414.5358, 5.135201
415.0179, 1.726578
415.5000, 0.1839900
415.9821, 2.533920
416.4643, 6.216805
416.9464, 5.942810
417.4285, 0.9963070
417.9106, 2.093422
418.3927, 3.679222
418.8748, 12.78476
419.3570, 18.54147
419.8391, 16.09229
420.3212, 12.45387
420.8033, 10.20737
421.2854, 9.171967
421.7675, 8.391884
422.2497, 7.479851
422.7318, 7.052261
423.2139, 7.240829
423.6960, 9.565933
424.1781, 10.13191
424.6602, 6.372551
425.1424, 1.186951
425.6245, 1.137825
426.1066, 1.013222
426.5887, 4.079437
427.0709, 8.124443
427.5530, 13.14642
428.0351, 15.07342
428.5172, 11.96571
428.9993, 8.441582
429.4814, 7.964493
429.9636, 12.11362
430.4457, 14.94733
430.9278, 15.86222
431.4099, 15.03151
431.8920, 11.93970
432.3741, 6.053490
432.8563, 1.872704
433.3384, 2.332741
433.8205, 6.628349
434.3026, 9.016167
434.7847, 9.304596
435.2668, 9.187996
435.7490, 10.98790
436.2311, 14.34336
436.7132, 16.94102
437.1953, 18.17124
437.6774, 18.06637
438.1595, 16.11474
438.6417, 12.72655
439.1238, 9.586388
439.6059, 7.551559
440.0880, 6.361000
440.5701, 5.654778
441.0522, 5.323402
441.5344, 5.925034
442.0165, 8.793610
442.4986, 12.35664
442.9807, 14.67313
443.4628, 14.00814
443.9449, 13.04957
444.4271, 13.19736
444.9092, 14.12873
445.3913, 13.93608
445.8734, 10.66378
446.3555, 7.296165
446.8376, 5.230049
447.3198, 4.517372
447.8019, 5.314857
448.2840, 9.824051
448.7661, 14.89062
449.2482, 15.64258
449.7303, 9.033218
450.2125, 3.656891
450.6946, 1.553558
451.1767, 2.385147
451.6588, 3.091698
452.1409, 3.581467
452.6230, 4.171989
453.1052, 5.216995
453.5873, 6.793335
454.0694, 7.820641
454.5515, 8.040024
455.0337, 8.038292
455.5158, 9.220268
455.9979, 11.45264
456.4800, 12.55501
456.9621, 10.68662
457.4442, 7.459076
457.9264, 5.631508
458.4085, 5.212868
458.8906, 5.617500
459.3727, 6.781914
459.8548, 8.678162
460.3369, 11.40982
460.8191, 15.95084
461.3012, 19.12473
461.7833, 17.19025
462.2654, 12.04582
462.7475, 7.651772
463.2296, 5.451561
463.7118, 4.649017
464.1939, 5.235153
464.6760, 7.222160
465.1581, 9.017792
465.6402, 11.09998
466.1223, 12.21145
466.6045, 11.42059
467.0866, 4.040184
467.5687, 0.4272770
468.0508, 3.961319
468.5329, 11.30521
469.0150, 14.95797
469.4972, 12.56477
469.9793, 10.33464
470.4614, 10.25343
470.9435, 12.48476
471.4256, 13.36643
471.9077, 12.64034
472.3899, 11.08440
472.8720, 9.007973
473.3541, 6.192726
473.8362, 4.790001
474.3183, 5.451561
474.8004, 6.845497
475.2826, 5.829742
475.7647, 2.463821
476.2468, 8.4793001E-02
476.7289, 0.2649380
477.2110, 2.246536
477.6931, 5.286224
478.1753, 9.367775
478.6574, 11.55615
479.1395, 6.332428
479.6216, 1.466667
480.1037, 4.070045
480.5858, 3.456802
481.0680, 11.06782
481.5501, 9.999313
482.0322, 4.020958
482.5143, 0.9993060
482.9964, 7.689705
483.4786, 14.71592
483.9607, 18.01536
484.4428, 17.01070
484.9249, 14.71278
485.4070, 9.229843
485.8892, 4.206238
486.3713, 2.341156
486.8534, 6.576973
487.3355, 9.689804
487.8176, 11.64237
488.2997, 12.32673
488.7819, 11.25483
489.2640, 7.222450
489.7461, 4.055664
490.2282, 3.366936
490.7103, 5.001511
491.1924, 5.831444
491.6746, 5.821602
492.1567, 5.181763
492.6388, 3.749481
493.1209, 1.654053
493.6030, 0.1786880
494.0851, 0.5227580
494.5673, 0.5776060
495.0494, 3.5896000E-02
495.5315, 1.034286
496.0136, 2.363098
496.4957, 3.835045
496.9778, 5.499672
497.4600, 8.023643
497.9421, 11.19656
498.4242, 13.14066
498.9063, 11.58788
499.3884, 8.982567
499.8705, 7.486839
500.3527, 7.954430
500.8348, 8.495377
501.3169, 8.761566
501.7990, 8.617966
502.2811, 7.864624
502.7632, 4.589516
503.2454, 2.727539
503.7275, 3.879066
504.2096, 7.683090
504.6917, 10.25458
505.1738, 11.02651
505.6559, 11.30939
506.1381, 12.00093
506.6202, 13.67639
507.1023, 12.90861
507.5844, 8.485786
508.0665, 3.800987
508.5486, 4.449303
509.0308, 10.60270
509.5129, 14.98515
509.9950, 15.43839
510.4771, 13.28424
510.9592, 10.55982
511.4413, 7.431137
511.9235, 5.351936
512.4056, 6.181892
512.8877, 8.290047
513.3698, 9.518776
513.8519, 9.733330
514.3340, 8.618645
514.8162, 4.122269
515.2983, 1.168869
515.7804, 4.103706
516.2625, 2.404602
516.7446, 0.1040340
517.2267, 2.607796
517.7089, 4.807899
518.1910, 5.929199
518.6731, 5.110031
519.1552, 3.841690
519.6373, 2.335037
520.1194, 0.4593660
520.6016, 0.2887800
521.0837, 0.6724550
521.5658, 2.117348
522.0479, 3.180328
522.5300, 3.729263
523.0121, 4.370689
523.4943, 5.233109
523.9764, 6.085396
524.4585, 6.292755
524.9406, 5.824974
525.4227, 5.986176
525.9048, 8.135590
526.3870, 10.83159
526.8691, 9.277939
527.3513, 3.874771
527.8334, 0.2369610
528.3155, 5.104691
528.7976, 13.25381
529.2797, 16.62209
529.7618, 13.64156
530.2440, 9.948013
530.7261, 7.590492
531.2082, 6.716034
531.6903, 7.840164
532.1724, 15.00994
532.6545, 20.02689
533.1367, 18.31810
533.6188, 11.99370
534.1009, 8.555420
534.5830, 13.00913
535.0651, 16.77808
535.5472, 16.54122
536.0294, 11.46475
536.5115, 8.479362
536.9936, 8.438362
537.4757, 9.198318
537.9578, 9.137321
538.4399, 8.664566
538.9221, 7.321762
539.4042, 4.473755
539.8863, 1.791283
540.3684, 3.302635
540.8505, 8.557037
541.3326, 12.06651
541.8148, 10.21605
542.2969, 6.077515
542.7790, 5.427208
543.2611, 7.878716
543.7432, 10.29813
544.2253, 11.20516
544.7075, 10.66331
545.1896, 8.126823
545.6717, 3.152046
546.1538, 0.8691020
546.6359, 1.697327
547.1180, 0.7034530
547.6002, 0.6200870
548.0823, 1.775322
548.5644, 3.410477
549.0465, 6.391800
549.5286, 9.981438
550.0107, 11.99751
550.4929, 11.59837
550.9750, 10.88516
551.4571, 10.52755
551.9392, 10.49993
552.4213, 9.842659
552.9034, 8.146019
553.3856, 7.186989
553.8677, 9.388443
554.3498, 14.32587
554.8319, 16.60011
555.3140, 15.35098
555.7961, 12.56123
556.2783, 10.05602
556.7604, 8.043175
557.2425, 7.208008
557.7246, 8.443184
558.2067, 10.29834
558.6888, 12.12960
559.1710, 13.56761
559.6531, 13.29324
560.1352, 8.288635
560.6173, 3.256248
561.0994, 0.9322660
561.5815, 1.674400
562.0637, 3.820976
562.5458, 9.802795
563.0279, 15.42372
563.5100, 17.49913
563.9921, 14.00034
564.4742, 10.74761
564.9564, 7.312401
565.4385, 4.611275
565.9206, 4.818481
566.4027, 8.730408
566.8848, 11.41765
567.3669, 10.88008
567.8491, 8.415543
568.3312, 8.699463
568.8133, 11.60677
569.2954, 13.87563
569.7775, 13.02052
570.2596, 10.19416
570.7418, 6.914284
571.2239, 3.189644
571.7060, 0.8229830
572.1881, 2.526772
572.6702, 5.724342
573.1523, 7.475357
573.6345, 6.359253
574.1166, 4.919914
574.5987, 3.597443
575.0808, 2.474442
575.5629, 1.907707
576.0450, 2.675194
576.5272, 3.200447
577.0093, 2.892227
577.4914, 1.982773
577.9735, 2.166664
578.4556, 4.232452
578.9377, 6.053360
579.4199, 6.676476
579.9020, 6.179588
580.3841, 6.440453
580.8662, 7.684822
581.3483, 8.493744
581.8304, 6.813499
582.3126, 3.420570
582.7947, 0.9018250
583.2768, 0.3733980
583.7589, 0.3242030
584.2410, 1.587273
584.7231, 4.850876
585.2053, 8.456367
585.6874, 15.28144
586.1696, 19.26560
586.6517, 14.44460
587.1338, 3.117844
587.6159, 4.460075
588.0980, 2.794212
588.5801, 0.6500090
589.0623, 2.945030
589.5444, 3.911804
590.0265, 4.393425
590.5086, 3.340897
590.9907, 3.142204
591.4728, 6.837761
591.9550, 15.77950
592.4371, 19.03588
592.9192, 14.51668
593.4013, 7.155144
593.8834, 3.792305
594.3655, 4.016434
594.8477, 5.367363
595.3298, 7.530586
595.8119, 9.809860
596.2940, 11.48614
596.7761, 12.50753
597.2582, 12.75365
597.7404, 10.90795
598.2225, 9.223335
598.7046, 10.01617
599.1867, 13.34365
599.6688, 14.99940
600.1509, 12.14967
600.6331, 8.385994
601.1152, 6.052017
601.5973, 6.259048
602.0794, 5.207909
602.5615, 1.183159
603.0436, 2.444809
603.5258, 0.7331160
604.0079, 7.933891
604.4900, 12.45243
604.9721, 10.00924
605.4542, 4.282280
605.9363, 2.560707
606.4185, 4.505074
606.9006, 7.026062
607.3827, 9.437790
607.8648, 11.13902
608.3469, 10.29815
608.8290, 7.461800
609.3112, 5.750015
609.7933, 8.796509
610.2754, 12.41027
610.7575, 13.18977
611.2396, 10.39492
611.7217, 7.585381
612.2039, 5.050949
612.6860, 3.328331
613.1681, 2.871353
613.6502, 4.564552
614.1323, 6.001617
614.6144, 7.295105
615.0966, 8.191628
615.5787, 8.360229
616.0608, 7.783295
616.5429, 6.470978
617.0250, 3.726402
617.5071, 0.7231830
617.9893, 0.9551850
618.4714, 3.916542
618.9535, 5.656342
619.4356, 2.229507
619.9177, 2.534355
620.3998, 3.408623
620.8820, 0.6890340
621.3641, 2.370911
621.8462, 4.075668
622.3283, 5.380539
622.8104, 7.213791
623.2925, 10.17288
623.7747, 11.74136
624.2568, 10.03757
624.7389, 7.651878
625.2210, 6.686073
625.7031, 7.820404
626.1852, 9.004410
626.6674, 10.48954
627.1495, 11.55546
627.6316, 10.42863
628.1137, 6.973488
628.5958, 4.808739
629.0779, 5.569275
629.5601, 7.538475
630.0422, 6.731682
630.5243, 3.840500
631.0064, 2.100159
631.4885, 4.911697
631.9706, 8.621620
632.4528, 9.382553
632.9349, 7.359291
633.4170, 5.831810
633.8991, 8.026627
634.3812, 9.801941
634.8633, 7.913254
635.3455, 0.3364790
635.8276, 4.370033
636.3097, 1.898689
636.7918, 2.956161
637.2739, 7.033432
637.7560, 10.34956
638.2382, 12.68295
638.7203, 13.99342
639.2024, 14.30693
639.6845, 13.50143
640.1666, 11.64032
640.6487, 9.115555
641.1309, 5.180542
641.6130, 1.782944
642.0951, 2.793373
642.5772, 6.702072
643.0594, 9.299049
643.5415, 6.954247
644.0236, 4.073669
644.5057, 3.336121
644.9879, 4.620834
645.4700, 5.644249
645.9521, 6.940002
646.4342, 7.782913
646.9163, 7.423889
647.3984, 5.535034
647.8806, 4.820282
648.3627, 5.915733
648.8448, 6.987999
649.3269, 6.221840
649.8090, 3.620361
650.2911, 1.989380
650.7733, 1.550888
651.2554, 1.944122
651.7375, 2.651962
652.2196, 3.856758
652.7017, 6.331802
653.1838, 11.49678
653.6660, 15.60104
654.1481, 14.16553
654.6302, 9.907379
655.1123, 7.610313
655.5944, 11.60746
656.0765, 14.90450
656.5587, 15.06431
657.0408, 12.85116
657.5229, 10.67450
658.0050, 7.786613
658.4871, 5.728722
658.9692, 4.844864
659.4514, 5.151932
659.9335, 7.604034
660.4156, 12.59934
660.8977, 16.25761
661.3798, 15.15453
661.8619, 10.92981
662.3441, 7.730705
662.8262, 5.789581
663.3083, 5.217682
663.7904, 7.861984
664.2725, 11.07707
664.7546, 11.52703
665.2368, 7.096954
665.7189, 3.868980
666.2010, 4.666428
666.6831, 7.347961
667.1652, 9.529121
667.6473, 11.41022
668.1295, 12.17641
668.6116, 11.13538
669.0937, 9.428787
669.5758, 9.846939
670.0579, 12.79449
670.5400, 13.77489
671.0222, 10.57394
671.5043, 5.566658
671.9864, 4.167786
672.4685, 5.651276
672.9506, 6.422920
673.4327, 2.395348
673.9149, 1.722672
674.3970, 0.5325090
674.8791, 5.185387
675.3612, 9.174484
675.8433, 6.172234
676.3254, 3.177071
676.8076, 4.750771
677.2897, 12.40067
677.7718, 15.87624
678.2539, 13.74258
678.7360, 9.876114
679.2181, 5.774734
679.7003, 1.116280
680.1824, 0.2027130
680.6645, 3.938187
681.1466, 8.164597
681.6287, 7.477669
682.1108, 3.633995
682.5930, 1.673019
683.0751, 2.948669
683.5572, 4.980476
684.0393, 5.532135
684.5214, 5.549225
685.0035, 6.388367
685.4857, 10.55191
685.9678, 13.19506
686.4499, 11.59465
686.9320, 7.818459
687.4141, 6.592705
687.8962, 9.914276
688.3784, 12.01161
688.8605, 11.39673
689.3426, 8.760536
689.8247, 5.816788
690.3068, 2.832092
690.7889, 1.746147
691.2711, 5.514023
691.7532, 11.03199
692.2353, 10.87443
692.7174, 5.912575
693.1995, 1.598282
693.6816, 1.919807
694.1638, 3.679657
694.6459, 3.749710
695.1280, 1.547356
695.6101, 1.166161
696.0922, 5.760422
696.5743, 10.95272
697.0565, 14.61275
697.5386, 16.83562
698.0207, 16.83528
698.5028, 13.58025
698.9849, 10.29102
699.4670, 11.15865
699.9492, 15.51610
700.4313, 15.58258
700.9135, 9.820313
701.3956, 3.415649
701.8777, 2.442375
702.3598, 4.591881
702.8419, 5.874039
703.3240, 4.405319
703.8062, 3.242371
704.2883, 4.189873
704.7704, 6.356369
705.2525, 8.423141
705.7346, 11.13906
706.2167, 12.42455
706.6989, 11.37319
707.1810, 9.090973
707.6631, 8.233803
708.1452, 9.147850
708.6273, 9.463699
709.1094, 8.207367
709.5916, 6.173729
710.0737, 4.598534
710.5558, 3.695541
711.0379, 4.497307
711.5200, 10.05005
712.0021, 15.67742
712.4843, 17.48909
712.9664, 15.73813
713.4485, 12.10560
713.9306, 3.193718
714.4127, 3.775566
714.8948, 4.254890
715.3770, 1.818848
715.8591, 5.949875
716.3412, 7.727013
716.8233, 8.368904
717.3054, 8.471855
717.7875, 8.031975
718.2697, 6.332863
718.7518, 3.183205
719.2339, 1.197571
719.7160, 4.433296
720.1981, 9.641586
720.6802, 11.03344
721.1624, 7.546150
721.6445, 4.408936
722.1266, 5.053917
722.6087, 7.222252
723.0908, 9.010994
723.5729, 9.858009
724.0551, 10.83304
724.5372, 12.31783
725.0193, 13.63921
725.5014, 14.16803
725.9835, 13.91434
726.4656, 12.43636
726.9478, 9.106171
727.4299, 6.065269
727.9120, 7.313477
728.3941, 11.48479
728.8762, 14.17347
729.3583, 13.86845
729.8405, 12.34194
730.3226, 10.06718
730.8047, 7.778595
731.2868, 6.755699
731.7689, 9.170578
732.2510, 10.74673
732.7332, 9.604195
733.2153, 7.086143
733.6974, 5.988899
734.1795, 7.011086
734.6616, 7.574631
735.1437, 6.425423
735.6259, 4.574074
736.1080, 5.283287
736.5901, 8.267883
737.0722, 10.99837
737.5543, 11.66505
738.0364, 11.90358
738.5186, 14.62030
739.0007, 18.76070
739.4828, 20.65331
739.9649, 16.49332
740.4470, 12.07562
740.9291, 9.517632
741.4113, 8.573402
741.8934, 8.194016
742.3755, 8.636497
742.8576, 9.244713
743.3397, 9.664429
743.8218, 9.791695
744.3040, 10.41399
744.7861, 11.54079
745.2682, 12.60133
745.7503, 14.56851
746.2324, 15.63452
746.7145, 11.23824
747.1967, 1.739525
747.6788, 5.387932
748.1609, 4.369728
748.6430, 0.8415450
749.1251, 1.762123
749.6072, 2.987587
750.0894, 3.909752
750.5715, 4.971260
751.0536, 5.242851
751.5357, 3.344597
752.0178, 1.202591
752.4999, 1.497681
752.9821, 2.995651
753.4642, 8.227707
753.9463, 10.89150
754.4284, 11.38111
754.9105, 9.666885
755.3926, 5.383598
755.8748, 2.569763
756.3569, 5.636513
756.8390, 10.25481
757.3211, 12.51516
757.8032, 10.68001
758.2853, 8.822960
758.7675, 7.234184
759.2496, 5.698448
759.7318, 3.392349
760.2139, 0.2118530
760.6960, 0.5251850
761.1781, 7.198128
761.6602, 14.14496
762.1423, 13.26594
762.6245, 7.381805
763.1066, 3.350220
763.5887, 2.954376
764.0708, 3.668282
764.5529, 3.567245
765.0350, 3.666344
765.5172, 5.170059
765.9993, 10.37193
766.4814, 14.26960
766.9635, 16.64762
767.4456, 17.58579
767.9277, 16.73651
768.4099, 13.65330
768.8920, 11.87358
769.3741, 12.30409
769.8562, 13.42122
770.3383, 12.36012
770.8204, 9.989105
771.3026, 8.499741
771.7847, 8.883400
772.2668, 9.505180
772.7489, 10.34447
773.2310, 11.11523
773.7131, 10.63295
774.1953, 6.002655
774.6774, 3.785309
775.1595, 6.305443
775.6416, 10.59836
776.1237, 10.67063
776.6058, 5.783096
777.0880, 2.406929
777.5701, 2.153084
778.0522, 4.043373
778.5343, 8.194313
779.0164, 13.28194
779.4985, 15.34046
779.9807, 10.14394
780.4628, 4.625420
780.9449, 3.186417
781.4270, 4.474922
781.9091, 5.633110
782.3912, 5.845192
782.8734, 6.234253
783.3555, 7.065399
783.8376, 8.116814
784.3197, 8.996849
784.8018, 9.770981
785.2839, 9.468460
785.7661, 7.074600
786.2482, 4.488831
786.7303, 5.721893
787.2124, 9.494072
787.6945, 12.19277
788.1766, 11.63694
788.6588, 10.08297
789.1409, 8.267937
789.6230, 6.353111
790.1051, 4.701454
790.5872, 3.574928
791.0693, 2.302383
791.5515, 0.3121260
792.0336, 1.669205
792.5157, 1.126907
792.9978, 1.951942
793.4799, 5.014641
793.9620, 7.228195
794.4442, 8.817032
794.9263, 10.45118
795.4084, 11.78374
795.8905, 11.88146
796.3726, 9.858955
796.8547, 7.009468
797.3369, 2.167282
797.8190, 3.182777
798.3011, 3.941650
798.7832, 3.610023
799.2653, 8.141197
799.7474, 5.612198
800.2296, 0.7740100
800.7117, 1.627602
801.1938, 2.592606
801.6759, 6.973434
802.1580, 10.06827
802.6401, 11.63416
803.1223, 10.10638
803.6044, 6.743004
804.0865, 4.846252
804.5686, 7.163071
805.0507, 9.436226
805.5328, 9.711349
806.0150, 9.038246
806.4971, 9.371391
806.9792, 11.17632
807.4613, 11.73486
807.9434, 9.911552
808.4255, 6.853325
808.9077, 4.708984
809.3898, 3.536201
809.8719, 3.521286
810.3540, 5.674492
810.8361, 8.430061
811.3182, 10.99200
811.8004, 12.96011
812.2825, 13.45455
812.7646, 10.52227
813.2467, 8.171524
813.7288, 7.093697
814.2109, 7.082825
814.6931, 7.967186
815.1752, 9.951424
815.6573, 10.94211
816.1394, 10.07549
816.6215, 8.354095
817.1037, 7.331810
817.5858, 6.822861
818.0679, 6.262245
818.5500, 5.246826
819.0322, 4.473900
819.5143, 4.105331
819.9964, 4.253799
820.4785, 5.327209
820.9606, 8.535416
821.4427, 10.29021
821.9249, 9.660019
822.4070, 7.700699
822.8891, 6.540314
823.3712, 6.106720
823.8533, 5.549667
824.3354, 4.452103
824.8176, 3.500328
825.2997, 4.121452
825.7818, 5.302666
826.2639, 5.296623
826.7460, 0.8800050
827.2281, 1.575386
827.7103, 0.5961150
828.1924, 4.935120
828.6745, 8.512894
829.1566, 11.36672
829.6387, 13.37127
830.1208, 14.64560
830.6030, 14.42946
831.0851, 10.75635
831.5672, 4.991211
832.0493, 0.8620610
832.5314, 0.4905470
833.0135, 0.2920230
833.4957, 1.543205
833.9778, 4.069427
834.4599, 6.209106
834.9420, 7.004318
835.4241, 8.577553
835.9063, 11.78684
836.3884, 14.74700
836.8705, 15.05643
837.3526, 12.77282
837.8347, 9.453644
838.3168, 4.760353
838.7990, 1.367897
839.2811, 4.294579
839.7632, 9.450554
840.2453, 10.63790
840.7274, 5.107079
841.2095, 0.9545670
841.6917, 1.978874
842.1738, 4.817818
842.6559, 6.891273
843.1380, 7.533440
843.6201, 8.198051
844.1022, 8.919678
844.5844, 9.544083
845.0665, 10.51500
845.5486, 11.21767
846.0307, 9.049591
846.5128, 3.690445
846.9949, 0.1435170
847.4771, 2.760803
847.9592, 6.974190
848.4413, 8.081421
848.9234, 4.829819
849.4055, 2.550148
849.8876, 1.329872
850.3698, 1.100883
850.8519, 2.217705
851.3340, 4.422737
851.8161, 5.100380
852.2982, 4.265038
852.7803, 3.979553
853.2625, 7.349884
853.7446, 10.99477
854.2267, 10.70505
854.7088, 6.683495
855.1909, 3.401611
855.6730, 1.001717
856.1552, 0.9542540
856.6373, 5.778992
857.1194, 13.53761
857.6015, 15.58532
858.0836, 11.12177
858.5657, 6.556419
859.0479, 5.234123
859.5300, 5.673302
860.0121, 5.641182
860.4942, 5.151024
860.9763, 4.230934
861.4584, 1.427444
861.9406, 0.2748870
862.4227, 1.441467
862.9048, 5.493172
863.3869, 7.826881
863.8690, 7.598274
864.3511, 7.939049
864.8333, 10.13144
865.3154, 12.60388
865.7975, 11.47565
866.2796, 7.545662
866.7617, 4.261650
867.2438, 2.766014
867.7260, 2.360123
868.2081, 2.981422
868.6902, 4.192123
869.1723, 5.312851
869.6544, 6.398689
870.1365, 7.119392
870.6187, 7.426346
871.1008, 7.399490
871.5829, 6.641930
872.0650, 5.270271
872.5471, 6.101257
873.0292, 9.975273
873.5114, 13.92664
873.9935, 15.37506
874.4756, 14.87017
874.9577, 12.51511
875.4399, 6.942734
875.9220, 4.027725
876.4041, 8.172981
876.8862, 13.01737
877.3683, 14.34125
877.8505, 11.50521
878.3326, 9.494102
878.8147, 8.389786
879.2968, 7.541817
879.7789, 6.130402
880.2610, 4.732895
880.7432, 4.572128
881.2253, 5.659111
881.7074, 6.338593
882.1895, 5.726120
882.6716, 4.579887
883.1537, 2.789146
883.6359, 0.4870070
884.1180, 0.5003660
884.6001, 3.528084
885.0822, 5.856895
885.5643, 5.703575
886.0464, 3.829330
886.5286, 1.291725
887.0107, 1.415192
887.4928, 2.253571
887.9749, 1.763878
888.4570, 6.004242
888.9391, 8.357269
889.4213, 9.148079
889.9034, 9.659157
890.3855, 10.26446
890.8676, 9.771950
891.3497, 7.529060
891.8318, 4.576706
892.3140, 2.682098
892.7961, 1.728920
893.2782, 1.359787
893.7603, 1.770050
894.2424, 2.030365
894.7245, 0.6942140
895.2067, 0.8607710
895.6888, 0.9204330
896.1709, 2.460846
896.6530, 4.629982
897.1351, 5.280830
897.6172, 5.170517
898.0994, 5.259438
898.5815, 5.379074
899.0636, 3.369865
899.5457, 1.109825
900.0278, 3.682999
900.5099, 1.493629
900.9921, 8.798218
901.4742, 12.89793
901.9563, 12.70296
902.4384, 12.90995
902.9205, 15.33974
903.4026, 16.37297
903.8848, 13.48890
904.3669, 7.425400
904.8490, 4.289398
905.3311, 4.047478
905.8132, 4.929840
906.2953, 7.066635
906.7775, 8.887390
907.2596, 8.087662
907.7417, 5.535568
908.2238, 4.292351
908.7059, 5.889412
909.1880, 8.250099
909.6702, 11.88656
910.1523, 15.44140
910.6344, 14.63525
911.1165, 9.602448
911.5986, 7.382935
912.0807, 11.57085
912.5629, 15.70316
913.0450, 9.907516
913.5271, 0.1470570
914.0092, 4.919037
914.4913, 0.6849520
914.9734, 4.714027
915.4556, 4.097923
915.9377, 2.376198
916.4198, 2.824196
916.9019, 5.599777
917.3840, 7.788429
917.8661, 9.244926
918.3483, 10.12592
918.8304, 10.85331
919.3125, 10.95423
919.7946, 9.207062
920.2767, 5.500847
920.7589, 3.232094
921.2410, 4.748428
921.7231, 6.573364
922.2052, 7.297729
922.6873, 7.086823
923.1694, 7.557777
923.6516, 8.737221
924.1337, 9.507980
924.6158, 9.121552
925.0979, 8.178894
925.5800, 7.448540
926.0621, 6.806404
926.5443, 5.932495
927.0264, 3.270004
927.5085, 2.297531
927.9906, 4.558846
928.4727, 8.191238
928.9548, 10.33489
929.4370, 10.98474
929.9191, 9.857521
930.4012, 6.421059
930.8833, 3.346558
931.3654, 3.713669
931.8475, 6.286812
932.3297, 9.997917
932.8118, 15.67559
933.2939, 18.36172
933.7761, 13.49341
934.2582, 8.724411
934.7403, 9.277061
935.2224, 15.35287
935.7045, 17.39471
936.1866, 15.29758
936.6688, 12.53513
937.1509, 10.93173
937.6330, 10.41106
938.1151, 11.96617
938.5972, 14.88857
939.0793, 15.65354
939.5615, 10.27940
940.0436, 6.200203
940.5257, 5.631660
941.0078, 7.360146
941.4899, 8.599274
941.9720, 9.325066
942.4542, 8.521721
942.9363, 5.032555
943.4184, 2.034172
943.9005, 4.665466
944.3826, 9.304268
944.8647, 10.75182
945.3469, 5.661720
945.8290, 1.397194
946.3111, 2.358788
946.7932, 4.270287
947.2753, 2.137665
947.7574, 3.754128
948.2396, 6.227646
948.7217, 5.029305
949.2038, 4.034294
949.6859, 7.299652
950.1680, 11.35493
950.6501, 13.45287
951.1323, 13.41593
951.6144, 11.46713
952.0965, 5.512589
952.5786, 1.456047
953.0607, 1.303665
953.5428, 4.097565
954.0250, 8.160286
954.5071, 12.86651
954.9892, 14.68945
955.4713, 10.96011
955.9534, 6.117500
956.4355, 2.016365
956.9177, 0.5590820
957.3998, 0.4020230
957.8819, 5.006935
958.3640, 8.586784
958.8461, 9.450241
959.3282, 9.259819
959.8104, 9.597374
960.2925, 10.33585
960.7746, 11.34216
961.2567, 12.59384
961.7388, 12.88129
962.2209, 10.25760
962.7031, 7.391098
963.1852, 6.369324
963.6673, 7.140953
964.1494, 7.018227
964.6315, 5.799789
965.1136, 4.459061
965.5958, 2.639366
966.0779, 1.075851
966.5600, 2.106705
967.0421, 4.891869
967.5242, 7.171120
968.0063, 9.060120
968.4885, 8.931450
968.9706, 3.126457
969.4527, 3.330597
969.9348, 3.869644
970.4169, 3.237740
970.8990, 7.734306
971.3812, 8.821655
971.8633, 8.067749
972.3454, 7.003464
972.8275, 6.052338
973.3096, 6.847748
973.7917, 9.479271
974.2739, 10.97035
974.7560, 8.048897
975.2381, 6.297188
975.7202, 8.554916
976.2023, 13.68604
976.6844, 15.96972
977.1666, 15.44716
977.6487, 13.93983
978.1308, 11.61043
978.6129, 9.564217
979.0950, 9.587669
979.5771, 10.51624
980.0593, 10.43655
980.5414, 6.718056
981.0235, 5.209419
981.5056, 6.674278
981.9877, 9.576279
982.4698, 12.99812
982.9520, 16.66344
983.4341, 19.28549
983.9162, 20.87363
984.3983, 19.78617
984.8804, 10.61895
985.3625, 1.922760
985.8447, 1.013741
986.3268, 7.805397
986.8089, 12.08053
987.2910, 13.38165
987.7731, 13.19097
988.2552, 11.50195
988.7374, 9.249084
989.2195, 8.571228
989.7016, 8.901031
990.1837, 8.656143
990.6658, 6.482872
991.1479, 5.299911
991.6301, 7.288780
992.1122, 10.23135
992.5944, 12.03774
993.0765, 12.56810
993.5586, 12.39075
994.0407, 11.41126
994.5228, 10.52156
995.0049, 10.54926
995.4871, 11.14420
995.9692, 12.08217
996.4513, 13.16616
996.9334, 12.62988
997.4155, 6.957253
997.8976, 3.448021
998.3798, 4.827744
998.8619, 8.735985
999.3440, 8.952354
999.8261, 5.976059
1000.308, 4.732430
1000.790, 6.900459
1001.272, 9.757896
1001.755, 11.12912
1002.237, 11.93682
1002.719, 13.44662
1003.201, 16.91653
1003.683, 16.91163
1004.165, 11.71738
1004.647, 6.817207
1005.129, 6.917496
1005.612, 10.09778
1006.094, 10.43069
1006.576, 8.394600
1007.058, 6.270966
1007.540, 4.493103
1008.022, 3.693611
1008.504, 5.233925
1008.986, 7.620018
1009.468, 7.819855
1009.951, 5.342155
1010.433, 3.653145
1010.915, 3.371391
1011.397, 3.725304
1011.879, 3.748337
1012.361, 3.742783
1012.843, 4.010612
1013.325, 4.563591
1013.807, 5.772285
1014.290, 8.578911
1014.772, 10.63850
1015.254, 10.67152
1015.736, 9.348274
1016.218, 9.329765
1016.700, 10.42551
1017.182, 11.54790
1017.664, 12.38655
1018.147, 12.87631
1018.629, 12.27505
1019.111, 11.58858
1019.593, 12.67553
1020.075, 17.27369
1020.557, 18.25754
1021.039, 14.86433
1021.521, 9.721909
1022.003, 3.180664
1022.486, 2.503098
1022.968, 1.681648
1023.450, 5.190681
1023.932, 9.998650
1024.414, 6.464600
1024.896, 4.088852
1025.378, 7.149521
1025.860, 12.91576
1026.343, 12.62424
1026.825, 6.810570
1027.307, 2.671883
1027.789, 2.658501
1028.271, 4.602463
1028.753, 7.594810
1029.235, 10.22575
1029.717, 10.50887
1030.199, 6.925575
1030.682, 5.890587
1031.164, 8.337456
1031.646, 10.69863
1032.128, 10.31406
1032.610, 8.390099
1033.092, 8.340691
1033.574, 9.587296
1034.056, 10.00499
1034.539, 6.319412
1035.021, 4.520729
1035.503, 8.361038
1035.985, 13.85986
1036.467, 15.76453
1036.949, 13.98935
1037.431, 10.87504
1037.913, 6.417526
1038.396, 3.477287
1038.878, 7.139374
1039.360, 11.68996
1039.842, 10.98610
1040.324, 4.545425
1040.806, 0.1472930
1041.288, 1.864120
1041.770, 1.492981
1042.252, 2.346031
1042.734, 7.066040
1043.217, 6.307823
1043.699, 2.149353
1044.181, 0.2889100
1044.663, 3.751671
1045.145, 6.565254
1045.627, 5.384697
1046.109, 3.504616
1046.591, 3.513603
1047.074, 5.591141
1047.556, 6.530472
1048.038, 6.402893
1048.520, 6.023834
1049.002, 6.108459
1049.484, 6.030594
1049.966, 4.783447
1050.448, 2.940056
1050.931, 2.248360
1051.413, 3.940262
1051.895, 3.963493
1052.377, 0.9183430
1052.859, 1.541801
1053.341, 2.827003
1053.823, 10.70695
1054.305, 14.48577
1054.787, 13.27312
1055.270, 11.39304
1055.752, 9.981544
1056.234, 9.192825
1056.716, 9.182693
1057.198, 9.773415
1057.680, 10.48775
1058.162, 11.28068
1058.644, 11.49675
1059.126, 11.01884
1059.609, 9.641708
1060.091, 5.260704
1060.573, 0.9628220
1061.055, 0.8501130
1061.537, 6.834503
1062.019, 10.66160
1062.501, 12.21426
1062.983, 12.03300
1063.466, 9.343239
1063.948, 5.760094
1064.430, 4.808159
1064.912, 5.559608
1065.394, 5.227921
1065.876, 1.301872
1066.358, 1.872627
1066.840, 3.988480
1067.323, 4.595879
1067.805, 2.235535
1068.287, 2.475616
1068.769, 5.273376
1069.251, 5.821625
1069.733, 5.520813
1070.215, 4.269661
1070.697, 3.466125
1071.179, 4.450371
1071.661, 6.751778
1072.144, 8.383919
1072.626, 9.268478
1073.108, 10.03544
1073.590, 11.03217
1074.072, 11.37711
1074.554, 8.766098
1075.036, 5.397820
1075.518, 4.447838
1076.001, 7.183533
1076.483, 9.032646
1076.965, 9.458038
1077.447, 9.364265
1077.929, 9.183571
1078.411, 8.830345
1078.893, 7.886253
1079.375, 6.536003
1079.858, 5.389534
1080.340, 4.696892
1080.822, 4.031693
1081.304, 2.753288
1081.786, 1.719650
1082.268, 2.213760
1082.750, 4.276466
1083.232, 4.740685
1083.714, 3.569878
1084.197, 3.683044
1084.679, 9.325058
1085.161, 15.07016
1085.643, 16.35012
1086.125, 14.27491
1086.607, 13.38847
1087.089, 14.77678
1087.571, 13.37123
1088.054, 7.658783
1088.536, 1.947784
1089.018, 1.239204
1089.500, 3.819344
1089.982, 8.559258
1090.464, 15.36421
1090.946, 17.93385
1091.428, 11.82757
1091.911, 6.699837
1092.393, 5.810844
1092.875, 7.460098
1093.357, 7.773903
1093.839, 7.168488
1094.321, 7.099197
1094.803, 8.350899
1095.285, 8.927544
1095.767, 6.648956
1096.250, 4.495079
1096.732, 4.456772
1097.214, 6.446709
1097.696, 9.397308
1098.178, 13.19199
1098.660, 15.25715
1099.142, 13.48787
1099.624, 10.34116
1100.106, 5.862328
1100.589, 1.963135
1101.071, 1.929558
1101.553, 7.253799
1102.035, 10.68131
1102.517, 12.17300
1102.999, 11.57051
1103.481, 6.761665
1103.963, 1.068283
1104.446, 0.8886260
1104.928, 0.3522190
1105.410, 1.990623
1105.892, 4.025589
1106.374, 5.357811
1106.856, 5.848320
1107.338, 5.565163
1107.820, 3.207664
1108.302, 0.4612050
1108.785, 2.643486
1109.267, 10.31275
1109.749, 15.34631
1110.231, 12.19180
1110.713, 7.873108
1111.195, 4.572731
1111.677, 2.494232
1112.159, 3.258942
1112.641, 6.286301
1113.124, 7.599403
1113.606, 5.623199
1114.088, 4.352348
1114.570, 7.858398
1115.052, 12.04316
1115.534, 13.73991
1116.016, 12.99546
1116.498, 10.70956
1116.981, 6.948441
1117.463, 5.113762
1117.945, 8.211800
1118.427, 11.72928
1118.909, 9.870636
1119.391, 6.168983
1119.873, 5.345665
1120.355, 9.608902
1120.838, 12.40388
1121.320, 13.78527
1121.802, 13.45393
1122.284, 10.14032
1122.766, 5.673225
1123.248, 2.333923
1123.730, 0.1109700
1124.212, 1.240852
1124.694, 1.383507
1125.177, 0.9956440
1125.659, 0.2204510
1126.141, 1.819099
1126.623, 2.603447
1127.105, 3.369431
1127.587, 7.561615
1128.069, 14.55444
1128.551, 18.50791
1129.033, 13.65658
1129.516, 9.381996
1129.998, 8.556389
1130.480, 6.414383
1130.962, 8.766708
1131.444, 7.054771
1131.926, 7.634712
1132.408, 11.13741
1132.890, 12.92741
1133.373, 7.464340
1133.855, 2.090630
1134.337, 1.265015
1134.819, 3.753555
1135.301, 5.397995
1135.783, 6.230476
1136.265, 7.958664
1136.747, 11.67887
1137.229, 13.69734
1137.712, 8.365868
1138.194, 1.744064
1138.676, 0.3687590
1139.158, 2.093353
1139.640, 4.746704
1140.122, 7.793259
1140.604, 9.035515
1141.086, 6.551247
1141.569, 3.794533
1142.051, 5.284622
1142.533, 8.597290
1143.015, 10.48547
1143.497, 10.18845
1143.979, 9.236885
1144.461, 7.479698
1144.943, 5.660721
1145.426, 3.810455
1145.908, 2.566711
1146.390, 3.656525
1146.872, 6.064758
1147.354, 7.681557
1147.836, 7.188408
1148.318, 6.854759
1148.800, 6.579483
1149.282, 6.836479
1149.765, 8.839798
1150.247, 11.36175
1150.729, 11.39716
1151.211, 9.348091
1151.693, 7.156517
1152.175, 4.470459
1152.657, 3.418297
1153.139, 4.854294
1153.621, 7.102158
1154.104, 8.386589
1154.586, 8.818108
1155.068, 8.432579
1155.550, 7.356003
1156.032, 6.817101
1156.514, 9.578583
1156.996, 10.03163
1157.478, 5.050575
1157.961, 1.671127
1158.443, 3.368538
1158.925, 0.7398680
1159.407, 2.711922
1159.889, 6.568161
1160.371, 9.213684
1160.853, 8.208672
1161.335, 7.296310
1161.818, 9.165451
1162.300, 12.22033
1162.782, 11.26778
1163.264, 6.725868
1163.746, 4.909897
1164.228, 7.681145
1164.710, 10.26751
1165.192, 8.476212
1165.674, 5.799583
1166.156, 4.821625
1166.639, 5.309708
1167.121, 5.442535
1167.603, 5.232712
1168.085, 6.520935
1168.567, 10.64738
1169.049, 14.20760
1169.531, 13.52000
1170.013, 11.32619
1170.496, 10.54182
1170.978, 11.30303
1171.460, 10.85529
1171.942, 8.909264
1172.424, 6.837875
1172.906, 5.630211
1173.388, 4.386047
1173.870, 0.6724010
1174.353, 2.828659
1174.835, 1.477089
1175.317, 6.653496
1175.799, 8.269562
1176.281, 2.085770
1176.763, 2.393150
1177.245, 2.302109
1177.727, 9.019554
1178.209, 9.044563
1178.692, 5.595139
1179.174, 4.223000
1179.656, 6.459938
1180.138, 8.690636
1180.620, 11.26140
1181.102, 12.12572
1181.584, 7.844475
1182.066, 2.422768
1182.548, 1.205864
1183.031, 3.039215
1183.513, 5.207474
1183.995, 7.744308
1184.477, 9.179901
1184.959, 9.344643
1185.441, 8.873589
1185.923, 7.818573
1186.405, 6.811249
1186.888, 7.040649
1187.370, 8.126755
1187.852, 8.622864
1188.334, 7.746422
1188.816, 7.538902
1189.298, 8.487877
1189.780, 9.102852
1190.262, 6.758026
1190.745, 3.710571
1191.227, 3.992134
1191.709, 7.062668
1192.191, 8.950294
1192.673, 8.786522
1193.155, 7.204689
1193.637, 3.613724
1194.119, 0.4752810
1194.601, 1.818817
1195.084, 4.985779
1195.566, 5.166222
1196.048, 2.399559
1196.530, 1.310730
1197.012, 4.393082
1197.494, 5.803040
1197.976, 3.705681
1198.458, 1.329025
1198.941, 4.594604
1199.423, 10.11754
1199.905, 11.36158
1200.387, 7.796555
1200.869, 6.377518
1201.351, 10.67059
1201.833, 12.39578
1202.315, 8.660164
1202.797, 3.254089
1203.280, 1.677330
1203.762, 3.012917
1204.244, 6.544464
1204.726, 12.32277
1205.208, 15.70422
1205.690, 15.21223
1206.172, 13.83015
1206.654, 12.25201
1207.136, 10.53026
1207.619, 8.268677
1208.101, 6.096680
1208.583, 5.481285
1209.065, 7.034264
1209.547, 7.010025
1210.029, 3.635551
1210.511, 1.471382
1210.993, 2.480179
1211.476, 5.023232
1211.958, 6.825119
1212.440, 7.723763
1212.922, 7.043365
1213.404, 4.134354
1213.886, 2.628922
1214.368, 3.651283
1214.850, 4.180260
1215.333, 2.536942
1215.815, 0.1655810
1216.297, 0.2873760
1216.779, 0.9292760
1217.261, 3.172668
1217.743, 7.175392
1218.225, 8.162979
1218.707, 4.084595
1219.189, 1.119446
1219.672, 2.650246
1220.154, 6.233086
1220.636, 8.013519
1221.118, 8.348404
1221.600, 7.594490
1222.082, 4.925980
1222.564, 4.542542
1223.046, 7.734642
1223.528, 9.716988
1224.011, 6.778793
1224.493, 2.638428
1224.975, 4.197334
1225.457, 8.964371
1225.939, 12.74352
1226.421, 14.71883
1226.903, 15.13554
1227.385, 14.04998
1227.868, 11.07398
1228.350, 4.151764
1228.832, 2.732056
1229.314, 2.140694
1229.796, 2.422333
1230.278, 4.907364
1230.760, 2.936333
1231.242, 2.816719
1231.724, 5.162766
1232.207, 6.153519
1232.689, 2.125717
1233.171, 2.217949
1233.653, 5.6007002E-02
1234.135, 5.769943
1234.617, 9.449020
1235.099, 10.52398
1235.581, 10.36463
1236.063, 8.743820
1236.546, 7.493370
1237.028, 8.286713
1237.510, 9.467255
1237.992, 9.587952
1238.474, 8.775436
1238.956, 6.920959
1239.438, 3.242958
1239.920, 2.514572
1240.403, 4.989861
1240.885, 7.028328
1241.367, 5.245758
1241.849, 3.118126
1242.331, 4.533440
1242.813, 7.124405
1243.295, 7.084244
1243.777, 3.521706
1244.260, 2.012764
1244.742, 2.538353
1245.224, 4.069710
1245.706, 7.175728
1246.188, 9.756065
1246.670, 10.68967
1247.152, 9.973274
1247.634, 7.396370
1248.116, 2.629860
1248.599, 0.4243850
1249.081, 0.7131120
1249.563, 2.041649
1250.045, 4.452232
1250.527, 6.614685
1251.009, 7.760635
1251.491, 8.321205
1251.973, 8.817924
1252.455, 9.219971
1252.938, 8.199356
1253.420, 6.042465
1253.902, 5.030685
1254.384, 7.670036
1254.866, 10.08208
1255.348, 11.00026
1255.830, 10.96083
1256.313, 10.15575
1256.795, 8.714211
1257.277, 7.257530
1257.759, 5.873489
1258.241, 4.972580
1258.723, 4.549522
1259.205, 5.023071
1259.687, 7.055977
1260.169, 8.977600
1260.651, 9.156868
1261.134, 7.995720
1261.616, 6.542435
1262.098, 4.889656
1262.580, 3.260307
1263.062, 0.5980450
1263.544, 7.1975999E-02
1264.026, 1.873756
1264.508, 4.816254
1264.991, 8.732353
1265.473, 11.97512
1265.955, 9.121376
1266.437, 3.144302
1266.919, 1.293343
1267.401, 9.515068
1267.883, 13.35918
1268.365, 11.45373
1268.848, 9.076775
1269.330, 10.50667
1269.812, 12.76623
1270.294, 12.00993
1270.776, 9.119026
1271.258, 5.856628
1271.740, 1.584480
1272.222, 0.3745420
1272.704, 0.1076510
1273.187, 2.259850
1273.669, 8.638580
1274.151, 13.39925
1274.633, 8.227341
1275.115, 0.5185620
1275.597, 2.121246
1276.079, 5.225670
1276.561, 7.790161
1277.043, 5.630203
1277.526, 2.944893
1278.008, 1.703224
1278.490, 1.384773
1278.972, 2.292542
1279.454, 3.573128
1279.936, 4.392723
1280.418, 4.750740
1280.900, 5.100670
1281.383, 5.351967
1281.865, 4.935287
1282.347, 2.549667
1282.829, 0.8931120
1283.311, 1.097061
1283.793, 2.049683
1284.275, 3.093185
1284.757, 4.171188
1285.240, 5.140251
1285.722, 5.904823
1286.204, 6.115387
1286.686, 5.348938
1287.168, 4.420670
1287.650, 3.070442
1288.132, 2.378792
1288.614, 3.464424
1289.096, 5.243477
1289.578, 5.096710
1290.061, 4.613556
1290.543, 4.841301
1291.025, 6.632362
1291.507, 8.070473
1291.989, 9.237381
1292.471, 9.636627
1292.953, 8.673531
1293.435, 7.194382
1293.918, 5.933952
1294.400, 4.946465
1294.882, 4.281525
1295.364, 3.878937
1295.846, 4.457886
1296.328, 6.079102
1296.810, 6.403244
1297.292, 2.971855
1297.775, 0.2868960
1298.257, 3.245247
1298.739, 7.473854
1299.221, 8.985741
1299.703, 7.973503
1300.185, 5.569946
1300.667, 2.141029
1301.149, 7.6797001E-02
1301.631, 0.2642750
1302.114, 0.3887180
1302.596, 0.0000000E+00
##END=



