##NAMES=Uchucchacuaite
##RRUFFID=R070760
##IDEAL CHEMISTRY=Ag^1+^Mn^2+^Pb^2+^_3_Sb^3+^_5_S^2-^_12_
##LOCALITY=Inakuraishi mine, Shakotan peninsula, Shiribeshi Province, Hokkaido Island, Japan
##OWNER=RRUFF
##SOURCE=Michael Scott
##DESCRIPTION=Steel gray metallic massive associated with rhodochrosite
##STATUS=The identification of this mineral is confirmed by single-crystal X-ray diffraction and chemical analysis.
##URL=rruff.info/R070760
##MEASURED CHEMISTRY=Ag_1.00_(Mn_0.82_Sb_0.11_Ag_0.04_Bi_0.02_)_Î£=0.99_Pb_2.98_Sb_5.00_S_12.00_
169.3341, 4.567673
169.8163, 5.898270
170.2984, 2.600998
170.7805, 9.158234
171.2626, 22.01028
171.7447, 27.96111
172.2268, 25.04509
172.7090, 19.21486
173.1911, 13.20674
173.6732, 7.848877
174.1553, 5.912186
174.6374, 12.72598
175.1195, 23.05905
175.6017, 29.12221
176.0838, 28.36176
176.5659, 24.11388
177.0480, 16.82086
177.5301, 5.913589
178.0122, 9.071472
178.4944, 16.78664
178.9765, 17.61540
179.4586, 9.049942
179.9407, 0.2148900
180.4228, 5.603165
180.9049, 11.57219
181.3871, 2.266647
181.8692, 6.985428
182.3513, 3.378998
182.8334, 1.637939
183.3155, 6.769928
183.7976, 12.26923
184.2797, 15.01361
184.7619, 6.757034
185.2440, 12.69727
185.7261, 12.94812
186.2082, 12.96916
186.6903, 20.91568
187.1724, 14.26732
187.6546, 22.09555
188.1367, 24.41228
188.6188, 32.65372
189.1009, 32.06972
189.5830, 26.38484
190.0651, 24.18340
190.5473, 25.85027
191.0294, 27.96220
191.5115, 27.42278
191.9936, 24.50130
192.4757, 22.70264
192.9578, 22.91779
193.4400, 24.45117
193.9221, 25.15797
194.4042, 24.91104
194.8863, 24.60484
195.3684, 24.52974
195.8505, 24.66287
196.3327, 27.11108
196.8148, 34.78459
197.2969, 45.89844
197.7790, 46.86279
198.2611, 35.41617
198.7432, 20.35112
199.2254, 11.99707
199.7075, 7.504303
200.1896, 11.74690
200.6717, 14.18112
201.1538, 14.90057
201.6359, 8.728058
202.1181, 11.24228
202.6002, 10.07434
203.0823, 8.905258
203.5644, 12.82529
204.0465, 7.705582
204.5286, 11.58516
205.0108, 11.87355
205.4929, 13.80679
205.9750, 12.18112
206.4571, 11.65584
206.9392, 9.105255
207.4213, 18.98753
207.9035, 30.49174
208.3856, 37.48741
208.8677, 39.21132
209.3498, 39.34001
209.8319, 36.92982
210.3140, 33.30559
210.7962, 35.13882
211.2783, 44.72388
211.7604, 55.27695
212.2425, 61.60938
212.7246, 62.94023
213.2067, 62.68721
213.6889, 60.69560
214.1710, 57.19307
214.6531, 55.98018
215.1352, 58.51897
215.6173, 61.24654
216.0994, 60.15166
216.5816, 53.34283
217.0637, 47.51640
217.5458, 44.11156
218.0279, 43.21486
218.5100, 43.64447
218.9921, 46.83670
219.4743, 49.93384
219.9564, 48.11543
220.4385, 37.24393
220.9206, 30.08385
221.4027, 31.70073
221.8848, 44.60918
222.3670, 53.95425
222.8491, 58.00659
223.3312, 59.51129
223.8133, 64.13762
224.2954, 76.16667
224.7775, 83.98322
225.2596, 81.78040
225.7418, 63.87274
226.2239, 51.62157
226.7060, 45.03336
227.1881, 43.70065
227.6702, 49.78271
228.1523, 70.85966
228.6345, 88.82759
229.1166, 93.09412
229.5987, 75.48682
230.0808, 62.92734
230.5629, 57.77242
231.0450, 58.58614
231.5272, 59.96565
232.0093, 63.90770
232.4914, 65.82263
232.9735, 62.83090
233.4556, 53.65912
233.9377, 41.63271
234.4199, 22.61052
234.9020, 1.246048
235.3841, 7.325836
235.8662, 18.07388
236.3483, 47.15976
236.8304, 58.30779
237.3126, 39.66245
237.7947, 25.42323
238.2768, 20.83472
238.7589, 25.63774
239.2410, 27.19467
239.7231, 22.39732
240.2053, 15.74696
240.6874, 10.26501
241.1695, 4.656631
241.6516, 2.572845
242.1337, 6.365021
242.6158, 16.91777
243.0980, 21.81741
243.5801, 18.46004
244.0622, 11.63077
244.5443, 6.998672
245.0264, 6.466461
245.5085, 4.694427
245.9907, 1.032547
246.4728, 12.63501
246.9549, 16.55019
247.4370, 9.206314
247.9191, 3.265671
248.4012, 11.92421
248.8834, 14.69458
249.3655, 17.31920
249.8476, 22.55153
250.3297, 32.78233
250.8118, 35.59712
251.2939, 27.51093
251.7761, 14.05447
252.2582, 4.738403
252.7403, 0.6767430
253.2224, 1.498276
253.7045, 3.154724
254.1866, 15.17625
254.6688, 27.24199
255.1509, 41.04814
255.6330, 53.99953
256.1151, 59.30107
256.5972, 52.40617
257.0793, 45.78838
257.5615, 45.28497
258.0436, 53.63205
258.5257, 60.46233
259.0078, 65.65475
259.4899, 69.30635
259.9720, 71.99860
260.4542, 74.40631
260.9363, 74.62421
261.4184, 70.22725
261.9005, 57.74904
262.3826, 52.06155
262.8647, 54.97626
263.3469, 64.96025
263.8290, 77.78583
264.3111, 96.07838
264.7932, 112.1822
265.2753, 121.6028
265.7574, 123.1754
266.2396, 121.2346
266.7217, 114.2569
267.2038, 104.3834
267.6859, 99.98425
268.1680, 102.3105
268.6501, 107.4068
269.1323, 113.7790
269.6144, 122.5350
270.0965, 126.8140
270.5786, 124.4545
271.0607, 117.1782
271.5428, 112.3598
272.0250, 110.7050
272.5071, 109.8248
272.9892, 107.5066
273.4713, 103.1670
273.9534, 100.7391
274.4355, 100.8976
274.9177, 103.3677
275.3998, 107.8748
275.8819, 115.5057
276.3640, 121.8304
276.8461, 122.8457
277.3282, 118.1641
277.8104, 111.2241
278.2925, 100.0213
278.7746, 87.36354
279.2567, 88.91574
279.7388, 108.0327
280.2209, 128.3844
280.7031, 133.0645
281.1852, 121.2704
281.6673, 113.5841
282.1494, 116.8246
282.6315, 127.0914
283.1136, 126.7649
283.5958, 113.9851
284.0779, 100.2882
284.5600, 97.94739
285.0421, 106.5923
285.5242, 114.1985
286.0063, 117.7701
286.4884, 118.0278
286.9706, 116.5871
287.4527, 113.1505
287.9348, 110.1199
288.4169, 108.8816
288.8990, 109.6457
289.3811, 115.1955
289.8633, 132.1150
290.3454, 152.3841
290.8275, 149.1786
291.3096, 120.6503
291.7917, 88.64856
292.2738, 73.65683
292.7560, 73.33669
293.2381, 76.33112
293.7202, 81.60519
294.2023, 87.12076
294.6844, 89.29779
295.1665, 88.15013
295.6487, 83.44675
296.1308, 71.76863
296.6129, 55.59798
297.0950, 43.53200
297.5771, 40.92912
298.0592, 42.81459
298.5414, 40.31105
299.0235, 33.36179
299.5056, 26.62740
299.9877, 24.57352
300.4698, 25.82941
300.9519, 27.13387
301.4341, 26.47939
301.9162, 25.74203
302.3983, 28.97580
302.8804, 36.01945
303.3625, 40.64299
303.8446, 35.59831
304.3268, 24.39980
304.8089, 14.13037
305.2910, 7.334961
305.7731, 3.288467
306.2552, 0.8712620
306.7373, 7.2600998E-02
307.2195, 2.171844
307.7016, 12.70911
308.1837, 25.67197
308.6658, 32.54869
309.1479, 23.51241
309.6300, 12.21399
310.1122, 9.209152
310.5943, 13.98109
311.0764, 20.93752
311.5585, 25.37015
312.0406, 28.70290
312.5227, 31.34827
313.0049, 35.06801
313.4870, 36.71263
313.9691, 35.70261
314.4512, 32.33325
314.9333, 28.87527
315.4154, 28.68709
315.8976, 28.79579
316.3797, 29.62840
316.8618, 31.29216
317.3439, 33.40080
317.8260, 36.73746
318.3081, 40.77174
318.7903, 42.78714
319.2724, 39.22754
319.7545, 34.59798
320.2366, 33.18042
320.7187, 33.40416
321.2008, 37.21126
321.6830, 48.82475
322.1651, 67.05708
322.6472, 79.92914
323.1293, 83.76184
323.6114, 82.19615
324.0935, 79.75597
324.5757, 74.24596
325.0578, 70.83546
325.5399, 72.34319
326.0220, 77.79198
326.5041, 78.37659
326.9862, 66.14348
327.4684, 54.98734
327.9505, 52.95168
328.4326, 76.16735
328.9147, 88.17384
329.3968, 80.84933
329.8789, 58.05956
330.3611, 44.08730
330.8432, 43.82795
331.3253, 47.37962
331.8074, 48.97978
332.2895, 44.81824
332.7716, 45.98326
333.2538, 56.36141
333.7359, 72.71552
334.2180, 81.13588
334.7001, 77.47474
335.1822, 72.68417
335.6643, 73.40803
336.1465, 82.34852
336.6286, 87.86511
337.1107, 87.63564
337.5928, 84.30344
338.0749, 85.78324
338.5570, 93.13561
339.0392, 102.0475
339.5213, 110.2855
340.0034, 117.8785
340.4855, 125.7386
340.9676, 135.0820
341.4497, 143.5429
341.9319, 145.1177
342.4140, 139.1360
342.8961, 132.7149
343.3782, 129.4707
343.8603, 129.2215
344.3424, 130.6266
344.8246, 134.4166
345.3067, 138.0692
345.7888, 137.3685
346.2709, 132.4208
346.7530, 125.8325
347.2351, 117.9163
347.7173, 109.3257
348.1994, 102.7484
348.6815, 98.78559
349.1636, 94.20431
349.6457, 82.99724
350.1278, 67.10941
350.6100, 54.08710
351.0921, 50.56525
351.5742, 51.18834
352.0563, 46.18090
352.5384, 34.58301
353.0205, 24.02918
353.5027, 21.43057
353.9848, 25.00372
354.4669, 31.38744
354.9490, 45.56876
355.4311, 57.98262
355.9132, 58.02864
356.3954, 45.47778
356.8775, 30.90158
357.3596, 17.56426
357.8417, 7.203606
358.3238, 1.755394
358.8059, 3.723747
359.2881, 9.303093
359.7702, 19.44238
360.2523, 33.45352
360.7344, 42.10812
361.2165, 38.21614
361.6986, 28.66194
362.1808, 19.38585
362.6629, 9.146065
363.1450, 2.202438
363.6271, 0.9604570
364.1092, 4.749527
364.5913, 8.808014
365.0735, 14.71071
365.5556, 18.85407
366.0377, 19.04709
366.5198, 9.648018
367.0019, 2.704056
367.4840, 1.375153
367.9662, 2.482048
368.4482, 15.89646
368.9304, 4.180656
369.4125, 15.46687
369.8946, 18.43814
370.3767, 11.85144
370.8588, 0.7798840
371.3409, 3.795410
371.8231, 9.080986
372.3052, 9.577835
372.7873, 15.90100
373.2694, 2.365425
373.7515, 3.163170
374.2336, 11.96976
374.7158, 3.538727
375.1979, 0.4839170
375.6800, 14.63467
376.1621, 19.18494
376.6442, 8.669106
377.1263, 17.96327
377.6085, 8.140808
378.0906, 3.191338
378.5727, 15.15458
379.0548, 5.492111
379.5369, 15.08552
380.0190, 17.34307
380.5012, 13.73243
380.9833, 1.724648
381.4654, 2.959869
381.9475, 4.176567
382.4296, 5.874420
382.9117, 8.181690
383.3939, 7.317165
383.8760, 5.175987
384.3581, 24.84950
384.8402, 37.09809
385.3223, 33.82371
385.8044, 24.54020
386.2866, 22.28052
386.7687, 26.31504
387.2508, 31.43102
387.7329, 34.62494
388.2150, 35.12043
388.6971, 34.12138
389.1793, 31.36974
389.6614, 27.93593
390.1435, 22.96384
390.6256, 17.55809
391.1077, 15.35463
391.5898, 23.18258
392.0720, 31.77905
392.5541, 33.45304
393.0362, 23.35891
393.5183, 15.05602
394.0004, 15.31152
394.4825, 20.73176
394.9647, 25.10552
395.4468, 27.91184
395.9289, 28.33250
396.4110, 24.18445
396.8931, 12.07446
397.3752, 7.249821
397.8574, 19.92855
398.3395, 38.07615
398.8216, 47.07054
399.3037, 38.51347
399.7858, 29.76281
400.2679, 24.12488
400.7501, 21.86348
401.2322, 18.63954
401.7143, 13.34093
402.1964, 8.223465
402.6785, 5.143330
403.1606, 4.167931
403.6428, 5.106663
404.1249, 8.121292
404.6070, 13.03559
405.0891, 19.54082
405.5712, 28.53519
406.0533, 36.34644
406.5355, 40.39210
407.0176, 40.56853
407.4997, 38.50067
407.9818, 33.80238
408.4639, 27.70055
408.9460, 21.65346
409.4282, 15.69740
409.9103, 12.82065
410.3924, 15.85189
410.8745, 23.45328
411.3566, 32.34713
411.8387, 43.32260
412.3209, 51.22856
412.8030, 45.37841
413.2851, 30.57500
413.7672, 20.98685
414.2493, 29.72320
414.7314, 43.98325
415.2136, 47.91479
415.6957, 40.93294
416.1778, 32.44169
416.6599, 27.93473
417.1420, 26.33125
417.6241, 26.33692
418.1063, 28.07179
418.5884, 30.73141
419.0705, 35.90480
419.5526, 42.65383
420.0347, 45.09148
420.5168, 34.39596
420.9990, 22.49446
421.4811, 18.14102
421.9632, 32.62007
422.4453, 41.25470
422.9274, 35.81486
423.4095, 21.05220
423.8917, 10.61880
424.3738, 7.007343
424.8559, 6.599033
425.3380, 8.487694
425.8201, 14.55230
426.3022, 17.39603
426.7844, 16.37221
427.2665, 14.54578
427.7486, 19.13733
428.2307, 34.25488
428.7128, 45.24589
429.1949, 45.27703
429.6771, 34.53490
430.1592, 26.77531
430.6413, 20.55247
431.1234, 16.60743
431.6055, 11.09243
432.0876, 3.828907
432.5698, 2.613194
433.0519, 11.54917
433.5340, 26.36342
434.0161, 32.89870
434.4982, 30.77516
434.9803, 27.07503
435.4625, 26.00209
435.9446, 27.25047
436.4267, 26.85850
436.9088, 22.88860
437.3909, 19.58195
437.8730, 25.01705
438.3552, 34.35558
438.8373, 38.89195
439.3194, 25.04533
439.8015, 7.421925
440.2836, 0.2774730
440.7657, 5.507015
441.2479, 12.18698
441.7300, 15.52147
442.2121, 16.49116
442.6942, 17.02281
443.1763, 20.36705
443.6584, 20.81075
444.1406, 12.43186
444.6227, 3.633446
445.1048, 11.21819
445.5869, 1.755665
446.0690, 18.14272
446.5511, 27.85305
447.0333, 25.13716
447.5154, 22.21653
447.9975, 18.30463
448.4796, 14.31905
448.9617, 12.78913
449.4438, 14.31915
449.9260, 17.36298
450.4081, 21.98531
450.8902, 29.15221
451.3723, 34.12452
451.8544, 36.47345
452.3365, 36.21241
452.8186, 32.83007
453.3008, 26.54460
453.7829, 19.99324
454.2650, 11.84365
454.7471, 4.426052
455.2292, 8.666389
455.7113, 25.38834
456.1935, 41.54482
456.6756, 45.70123
457.1577, 40.64303
457.6398, 33.12596
458.1219, 21.83590
458.6040, 13.71700
459.0862, 20.86964
459.5683, 39.13841
460.0504, 54.93714
460.5325, 60.23694
461.0146, 59.63232
461.4967, 56.26784
461.9789, 49.96265
462.4610, 44.18848
462.9431, 40.60991
463.4252, 38.62521
463.9073, 37.54241
464.3894, 35.57327
464.8716, 36.00697
465.3537, 43.14865
465.8358, 56.91524
466.3179, 62.27681
466.8000, 48.73432
467.2821, 32.39764
467.7643, 23.01104
468.2464, 23.44649
468.7285, 26.60411
469.2106, 34.82297
469.6927, 44.87068
470.1748, 47.47116
470.6570, 39.90855
471.1391, 31.42479
471.6212, 25.23232
472.1033, 21.23298
472.5854, 21.29229
473.0675, 26.63487
473.5497, 32.59652
474.0318, 32.94502
474.5139, 28.10716
474.9960, 22.91797
475.4781, 17.30088
475.9602, 13.31095
476.4424, 17.44400
476.9245, 28.95959
477.4066, 39.01995
477.8887, 39.32932
478.3708, 34.85530
478.8529, 32.01559
479.3351, 32.59988
479.8172, 34.85971
480.2993, 39.66749
480.7814, 45.13336
481.2635, 47.32922
481.7456, 43.54813
482.2278, 36.91486
482.7099, 26.29454
483.1920, 10.33112
483.6741, 3.113388
484.1562, 17.53843
484.6383, 37.40912
485.1205, 48.78151
485.6026, 42.22271
486.0847, 36.92843
486.5668, 35.91061
487.0489, 37.66503
487.5310, 34.61353
488.0132, 23.33247
488.4953, 12.91341
488.9774, 8.842945
489.4595, 13.22770
489.9416, 11.52334
490.4237, 0.8750380
490.9059, 10.66545
491.3880, 9.219803
491.8701, 5.114662
492.3522, 15.75354
492.8343, 13.04372
493.3164, 4.001717
493.7986, 10.01071
494.2807, 30.63107
494.7628, 47.78620
495.2449, 41.80278
495.7270, 23.23050
496.2091, 10.69509
496.6913, 9.306690
497.1734, 11.56594
497.6555, 11.12588
498.1376, 9.651909
498.6197, 11.44659
499.1018, 22.84337
499.5840, 34.12435
500.0661, 40.09570
500.5482, 39.77477
501.0303, 37.46352
501.5124, 29.29483
501.9945, 21.98621
502.4767, 21.30276
502.9588, 40.25505
503.4409, 50.70949
503.9230, 45.58654
504.4051, 29.05829
504.8872, 18.60776
505.3694, 16.40348
505.8515, 16.62226
506.3336, 17.52903
506.8157, 19.81055
507.2978, 16.83979
507.7799, 6.906017
508.2621, 4.350487
508.7442, 10.16714
509.2263, 10.70617
509.7084, 7.367430
510.1905, 1.646893
510.6726, 12.75897
511.1548, 18.39686
511.6369, 18.96855
512.1190, 18.87042
512.6011, 21.32520
513.0832, 24.93105
513.5653, 28.06148
514.0474, 30.72345
514.5295, 31.93256
515.0117, 30.59381
515.4938, 27.45344
515.9759, 23.81453
516.4580, 17.19196
516.9401, 12.86364
517.4222, 13.92597
517.9044, 20.70512
518.3865, 26.14136
518.8686, 31.04111
519.3507, 33.20269
519.8328, 30.68628
520.3149, 18.60322
520.7971, 11.70404
521.2792, 12.45790
521.7613, 17.57262
522.2434, 21.98889
522.7255, 26.17303
523.2076, 27.70086
523.6898, 22.97527
524.1719, 13.77153
524.6540, 14.42019
525.1361, 25.86226
525.6182, 39.71714
526.1003, 50.11922
526.5825, 56.51030
527.0646, 56.32302
527.5467, 46.66721
528.0288, 34.29916
528.5109, 22.69822
528.9930, 13.75163
529.4752, 12.69081
529.9573, 33.81420
530.4394, 55.56314
530.9215, 61.04611
531.4036, 47.00500
531.8857, 33.02025
532.3679, 24.04293
532.8500, 18.81539
533.3321, 16.32913
533.8142, 22.49481
534.2963, 23.85957
534.7784, 14.59936
535.2606, 0.6045270
535.7427, 4.633509
536.2248, 7.792065
536.7069, 21.27643
537.1890, 30.41893
537.6711, 35.22932
538.1533, 33.28635
538.6354, 22.53379
539.1175, 10.98599
539.5996, 9.090183
540.0817, 15.54643
540.5638, 20.97173
541.0460, 22.20678
541.5281, 22.19184
542.0102, 27.46060
542.4923, 36.41308
542.9744, 41.69124
543.4565, 35.68582
543.9387, 25.72720
544.4208, 18.00232
544.9029, 12.94205
545.3850, 11.81026
545.8671, 21.46678
546.3492, 32.82703
546.8314, 36.06007
547.3135, 16.75426
547.7956, 2.639969
548.2777, 1.481777
548.7598, 9.750908
549.2419, 16.03395
549.7241, 21.99829
550.2062, 24.28557
550.6883, 20.26207
551.1704, 7.863781
551.6525, 2.170250
552.1346, 4.938145
552.6168, 10.42045
553.0989, 11.47245
553.5810, 8.324085
554.0631, 6.890297
554.5452, 8.793915
555.0273, 12.86972
555.5095, 17.54583
555.9916, 22.69487
556.4737, 27.50980
556.9558, 34.33584
557.4379, 39.11467
557.9200, 34.99819
558.4022, 20.23298
558.8843, 8.262920
559.3664, 10.63762
559.8485, 17.72915
560.3306, 19.65994
560.8127, 5.974342
561.2949, 4.084337
561.7770, 6.716942
562.2591, 2.699219
562.7412, 4.594791
563.2233, 21.09315
563.7054, 32.77227
564.1876, 32.88494
564.6697, 19.71878
565.1518, 11.98025
565.6339, 10.41324
566.1160, 12.39289
566.5981, 17.57164
567.0803, 25.87022
567.5624, 30.04919
568.0445, 28.36014
568.5266, 23.21365
569.0087, 18.00312
569.4908, 13.23157
569.9730, 10.02471
570.4551, 10.27753
570.9372, 11.90602
571.4193, 10.76797
571.9014, 7.126854
572.3835, 6.015923
572.8657, 15.13206
573.3478, 25.19672
573.8299, 28.08053
574.3120, 14.19001
574.7941, 3.985779
575.2762, 0.1984480
575.7584, 2.136154
576.2405, 9.669640
576.7226, 32.07833
577.2047, 44.23767
577.6868, 34.05784
578.1689, 3.848728
578.6511, 5.916954
579.1332, 9.332020
579.6153, 28.40034
580.0974, 33.36134
580.5795, 26.29046
581.0616, 23.58127
581.5438, 28.44682
582.0259, 34.87378
582.5080, 34.45238
582.9901, 29.43731
583.4722, 25.40498
583.9543, 24.35092
584.4365, 25.47512
584.9186, 30.63019
585.4007, 38.48026
585.8828, 41.88533
586.3649, 31.56882
586.8470, 20.64363
587.3292, 17.13738
587.8113, 25.84368
588.2934, 31.63773
588.7755, 33.49258
589.2576, 32.44421
589.7397, 28.98052
590.2219, 21.42597
590.7040, 16.39753
591.1861, 16.08204
591.6682, 18.33022
592.1503, 15.41338
592.6324, 6.845032
593.1146, 0.9988330
593.5967, 5.229252
594.0788, 15.66205
594.5609, 19.41366
595.0430, 16.06722
595.5251, 11.47103
596.0073, 10.53296
596.4894, 11.28264
596.9715, 10.83301
597.4536, 6.600990
597.9357, 4.330805
598.4178, 7.190678
598.9000, 13.78807
599.3821, 21.45211
599.8642, 37.09636
600.3463, 45.75590
600.8284, 40.25642
601.3105, 21.09818
601.7927, 10.01012
602.2748, 9.457394
602.7569, 12.66080
603.2390, 16.60171
603.7211, 21.65408
604.2032, 21.74854
604.6854, 14.98667
605.1675, 8.152279
605.6496, 13.18884
606.1317, 26.87729
606.6138, 35.29581
607.0959, 30.29762
607.5781, 22.14119
608.0602, 23.84814
608.5423, 32.92192
609.0244, 40.59501
609.5065, 42.46386
609.9886, 41.22401
610.4708, 37.42262
610.9529, 30.48317
611.4350, 25.69730
611.9171, 25.63895
612.3992, 27.12334
612.8813, 27.90435
613.3635, 29.07208
613.8456, 26.92688
614.3277, 19.37395
614.8098, 10.05576
615.2919, 6.411335
615.7740, 8.826088
616.2562, 13.32051
616.7383, 20.89127
617.2204, 28.50490
617.7025, 24.40964
618.1846, 9.748266
618.6667, 1.343590
619.1489, 6.200178
619.6310, 20.60168
620.1131, 26.79131
620.5952, 21.27168
621.0773, 16.15983
621.5594, 19.57219
622.0416, 26.30135
622.5237, 30.77469
623.0058, 33.21894
623.4879, 31.54202
623.9700, 22.61512
624.4521, 9.802443
624.9343, 1.090748
625.4164, 3.636589
625.8985, 4.535379
626.3806, 0.6941510
626.8627, 10.83760
627.3448, 11.89094
627.8270, 2.563368
628.3091, 5.204630
628.7912, 3.237183
629.2733, 20.55331
629.7554, 26.08334
630.2375, 15.11120
630.7197, 2.083490
631.2018, 1.226324
631.6839, 2.043415
632.1660, 7.169138
632.6481, 17.10783
633.1302, 23.69196
633.6124, 21.63200
634.0945, 13.36058
634.5766, 8.226662
635.0587, 11.20519
635.5408, 12.94315
636.0229, 9.989037
636.5051, 1.629961
636.9872, 5.088753
637.4693, 11.72150
637.9514, 13.78784
638.4335, 4.486389
638.9156, 14.33865
639.3978, 25.80789
639.8799, 27.06051
640.3620, 24.14051
640.8441, 22.95234
641.3262, 23.08449
641.8083, 23.57636
642.2905, 22.96714
642.7726, 23.71250
643.2547, 29.85654
643.7368, 39.10875
644.2189, 43.91578
644.7010, 39.10741
645.1832, 31.85703
645.6653, 24.10265
646.1474, 15.51607
646.6295, 9.712860
647.1116, 6.679749
647.5938, 6.368320
648.0759, 9.786007
648.5580, 17.43656
649.0401, 22.37077
649.5222, 23.78246
650.0043, 23.57047
650.4865, 23.48169
650.9686, 23.81531
651.4507, 26.01847
651.9328, 33.38699
652.4149, 39.38282
652.8970, 35.96476
653.3792, 25.60474
653.8613, 16.62775
654.3434, 12.15124
654.8255, 10.10078
655.3076, 9.386223
655.7897, 9.867275
656.2718, 13.08061
656.7539, 21.83557
657.2360, 30.24574
657.7181, 34.64540
658.2003, 34.15811
658.6824, 33.54741
659.1645, 32.97081
659.6466, 32.17211
660.1287, 30.83313
660.6108, 28.97998
661.0930, 26.75317
661.5751, 24.13854
662.0572, 21.25309
662.5393, 17.36608
663.0214, 13.23513
663.5035, 10.91438
663.9857, 13.82987
664.4678, 16.68254
664.9499, 15.20898
665.4320, 9.593067
665.9141, 8.044762
666.3962, 16.98841
666.8784, 25.80437
667.3605, 29.80211
667.8426, 28.03659
668.3247, 25.08060
668.8068, 20.35017
669.2889, 15.68391
669.7711, 13.36038
670.2532, 13.14315
670.7353, 12.40785
671.2174, 10.27596
671.6995, 8.508038
672.1816, 10.35326
672.6638, 14.30379
673.1459, 16.73667
673.6280, 15.62505
674.1101, 13.00744
674.5922, 7.757744
675.0743, 1.165138
675.5565, 2.9230000E-02
676.0386, 10.86619
676.5207, 21.34333
677.0028, 26.53256
677.4849, 25.56358
677.9670, 27.26263
678.4492, 33.32696
678.9313, 38.39661
679.4134, 37.87974
679.8955, 32.12810
680.3776, 24.38306
680.8597, 14.30192
681.3419, 4.994886
681.8240, 1.106083
682.3061, 3.754908
682.7882, 2.202991
683.2703, 7.473326
683.7524, 16.01618
684.2346, 15.66599
684.7167, 10.33578
685.1988, 9.738388
685.6809, 21.47672
686.1630, 32.37016
686.6451, 41.59941
687.1273, 48.17648
687.6094, 44.47148
688.0915, 25.56911
688.5736, 9.120705
689.0557, 6.109482
689.5378, 15.50432
690.0200, 23.95059
690.5021, 31.45854
690.9842, 36.26926
691.4663, 35.82497
691.9484, 31.87708
692.4305, 26.98967
692.9127, 21.26236
693.3948, 15.77895
693.8769, 11.03685
694.3590, 7.370625
694.8411, 4.531040
695.3232, 1.701471
695.8054, 1.923668
696.2875, 10.09097
696.7696, 28.46656
697.2517, 37.41744
697.7338, 34.27487
698.2159, 31.39738
698.6981, 34.87172
699.1802, 41.41833
699.6623, 37.12310
700.1444, 22.66541
700.6265, 9.900515
701.1086, 8.658342
701.5908, 12.79031
702.0729, 14.57430
702.5550, 13.21857
703.0371, 13.02390
703.5192, 20.04138
704.0013, 26.58790
704.4835, 26.31579
704.9656, 11.21503
705.4477, 1.844021
705.9298, 0.3012910
706.4119, 2.125233
706.8940, 6.610260
707.3762, 13.61895
707.8583, 20.21574
708.3404, 27.07120
708.8225, 31.36469
709.3046, 24.04802
709.7867, 8.577942
710.2689, 1.596916
710.7510, 3.823597
711.2331, 14.05140
711.7152, 20.58800
712.1973, 23.98357
712.6794, 26.55828
713.1616, 32.41369
713.6437, 34.69358
714.1258, 27.31150
714.6079, 9.242054
715.0900, 0.3991810
715.5721, 4.291756
716.0543, 11.29187
716.5364, 15.21130
717.0185, 16.04426
717.5006, 17.96237
717.9827, 21.42418
718.4648, 23.98530
718.9470, 21.20716
719.4291, 16.10142
719.9112, 14.90847
720.3933, 20.99801
720.8754, 25.54397
721.3575, 21.34412
721.8397, 13.00785
722.3218, 7.277178
722.8039, 4.563200
723.2860, 6.145311
723.7681, 15.65316
724.2502, 28.69613
724.7324, 31.54831
725.2145, 21.28291
725.6966, 12.92471
726.1787, 12.22697
726.6608, 17.14779
727.1429, 23.79951
727.6251, 31.64845
728.1072, 34.98687
728.5893, 24.12115
729.0714, 10.79192
729.5535, 7.808142
730.0356, 16.04876
730.5178, 23.21600
730.9999, 26.46733
731.4820, 25.70838
731.9641, 19.36361
732.4462, 2.423613
732.9283, 4.359274
733.4105, 2.971470
733.8926, 14.41984
734.3747, 21.90248
734.8568, 25.46215
735.3389, 26.45526
735.8210, 24.62530
736.3032, 21.77489
736.7853, 18.76107
737.2674, 16.58012
737.7495, 17.59851
738.2316, 26.99367
738.7137, 34.14481
739.1959, 31.29574
739.6780, 22.16964
740.1601, 15.49468
740.6422, 13.61979
741.1243, 14.12730
741.6064, 16.73096
742.0886, 21.17225
742.5707, 27.47267
743.0528, 36.54043
743.5349, 41.79676
744.0170, 36.47041
744.4991, 25.57024
744.9813, 24.13513
745.4634, 31.30238
745.9455, 38.53762
746.4276, 42.23264
746.9097, 41.95833
747.3918, 35.37198
747.8740, 20.93109
748.3561, 10.84789
748.8382, 12.16053
749.3203, 15.40694
749.8024, 14.70390
750.2845, 8.667284
750.7667, 2.431303
751.2488, 4.955051
751.7309, 10.45232
752.2130, 9.719568
752.6951, 3.696812
753.1772, 2.747599
753.6594, 8.974979
754.1415, 15.68001
754.6236, 24.91323
755.1057, 34.52650
755.5878, 41.32753
756.0699, 44.96157
756.5521, 44.58962
757.0342, 37.59292
757.5163, 26.59164
757.9984, 17.41135
758.4805, 9.006744
758.9626, 4.877720
759.4448, 7.384172
759.9269, 13.80805
760.4090, 14.51311
760.8911, 9.984417
761.3732, 7.843235
761.8553, 15.46594
762.3375, 25.80871
762.8196, 29.60402
763.3017, 27.59869
763.7838, 25.17488
764.2659, 25.01490
764.7480, 25.07885
765.2302, 24.19851
765.7123, 22.14953
766.1944, 20.51367
766.6765, 18.88420
767.1586, 18.32969
767.6407, 20.29748
768.1229, 24.63463
768.6050, 26.80163
769.0871, 26.61457
769.5692, 24.19408
770.0513, 16.43897
770.5334, 7.563061
771.0156, 5.236227
771.4977, 11.96577
771.9798, 19.01745
772.4619, 23.59162
772.9440, 25.44720
773.4261, 24.16366
773.9083, 15.20375
774.3904, 10.66207
774.8725, 13.39308
775.3546, 17.80758
775.8367, 15.01051
776.3188, 4.939285
776.8010, 2.329611
777.2831, 4.916767
777.7652, 3.338680
778.2473, 5.529251
778.7294, 17.85029
779.2115, 25.09250
779.6937, 19.47135
780.1758, 12.28804
780.6579, 6.531055
781.1400, 2.928331
781.6221, 4.168446
782.1042, 15.38121
782.5864, 24.07802
783.0685, 25.45030
783.5506, 21.91506
784.0327, 22.65221
784.5148, 27.80759
784.9969, 32.48696
785.4791, 35.50290
785.9612, 35.90673
786.4433, 29.13008
786.9254, 17.07309
787.4075, 9.715374
787.8896, 18.78034
788.3718, 28.58821
788.8539, 29.84132
789.3360, 21.36068
789.8181, 12.76155
790.3002, 3.5757001E-02
790.7823, 6.103197
791.2645, 5.159849
791.7466, 33.06782
792.2287, 43.49077
792.7108, 35.40055
793.1929, 24.96057
793.6750, 27.28617
794.1572, 35.30090
794.6393, 38.54008
795.1214, 35.54781
795.6035, 30.87388
796.0856, 24.74978
796.5677, 19.14392
797.0499, 15.77311
797.5320, 15.13533
798.0141, 15.67918
798.4962, 17.81589
798.9783, 20.46986
799.4604, 23.15114
799.9426, 25.70817
800.4247, 25.33559
800.9068, 20.89699
801.3889, 17.25810
801.8710, 22.19561
802.3531, 30.51582
802.8353, 34.24184
803.3174, 29.26958
803.7995, 23.13242
804.2816, 16.98951
804.7637, 11.58547
805.2458, 7.518932
805.7280, 3.796129
806.2101, 4.718914
806.6922, 12.95856
807.1743, 22.79858
807.6564, 22.05127
808.1385, 12.82827
808.6207, 8.155966
809.1028, 14.34684
809.5849, 22.08358
810.0670, 22.87527
810.5491, 19.35684
811.0313, 15.88898
811.5134, 12.78800
811.9955, 11.45527
812.4776, 12.18253
812.9597, 14.12523
813.4418, 12.30957
813.9240, 4.481749
814.4061, 2.726454
814.8882, 13.40203
815.3703, 29.54689
815.8524, 35.47290
816.3345, 32.61980
816.8167, 27.64915
817.2988, 22.43564
817.7809, 17.60846
818.2630, 13.43247
818.7451, 9.956402
819.2272, 7.456572
819.7094, 5.889347
820.1915, 5.507133
820.6736, 7.031885
821.1556, 9.900238
821.6378, 10.29443
822.1199, 7.978449
822.6020, 5.921854
823.0841, 5.889471
823.5662, 7.108225
824.0483, 8.875219
824.5305, 10.87580
825.0126, 11.39540
825.4947, 6.904623
825.9768, 2.954735
826.4589, 2.873425
826.9410, 7.025618
827.4232, 11.57233
827.9053, 17.97508
828.3874, 21.93930
828.8695, 20.34701
829.3516, 14.21458
829.8337, 11.10156
830.3159, 11.00900
830.7980, 12.64152
831.2801, 16.84606
831.7622, 21.20610
832.2443, 22.84185
832.7264, 21.58619
833.2086, 19.77517
833.6907, 16.60071
834.1728, 14.58041
834.6549, 15.65130
835.1370, 20.56411
835.6191, 20.37450
836.1013, 13.94679
836.5834, 7.103262
837.0655, 4.747398
837.5476, 5.398079
838.0297, 4.758223
838.5118, 2.614666
838.9940, 0.2194730
839.4761, 8.493849
839.9582, 13.55537
840.4403, 5.438823
840.9224, 22.38765
841.4045, 36.98341
841.8867, 30.24236
842.3688, 18.45847
842.8509, 11.33347
843.3330, 8.957813
843.8151, 8.092661
844.2972, 9.240320
844.7794, 10.80391
845.2615, 11.66963
845.7436, 12.44229
846.2257, 13.24682
846.7078, 14.00263
847.1899, 15.72687
847.6721, 21.94895
848.1542, 26.83598
848.6363, 25.57446
849.1184, 17.03265
849.6005, 10.00909
850.0826, 3.961126
850.5648, 0.9146980
851.0469, 5.259285
851.5290, 14.19634
852.0111, 18.14618
852.4932, 16.01949
852.9753, 11.84724
853.4575, 5.928551
853.9396, 1.093987
854.4217, 0.1211510
854.9038, 4.518694
855.3859, 9.846039
855.8680, 17.04610
856.3502, 23.55042
856.8323, 27.11125
857.3144, 27.70088
857.7965, 27.96104
858.2786, 27.95748
858.7607, 27.99047
859.2429, 27.61153
859.7250, 27.76171
860.2071, 30.81316
860.6892, 38.50963
861.1713, 42.30993
861.6534, 36.67048
862.1356, 28.27213
862.6177, 22.00532
863.0998, 17.86634
863.5819, 15.65702
864.0640, 15.52865
864.5461, 16.75842
865.0283, 19.57304
865.5104, 23.14078
865.9925, 25.01680
866.4746, 24.84175
866.9567, 24.33210
867.4388, 27.71681
867.9210, 29.24559
868.4031, 22.03041
868.8852, 2.765336
869.3673, 10.72410
869.8494, 6.806412
870.3315, 27.29634
870.8137, 31.52341
871.2958, 21.19181
871.7779, 14.14375
872.2600, 11.26749
872.7421, 11.69259
873.2242, 19.48908
873.7064, 27.40843
874.1885, 25.74002
874.6706, 10.35338
875.1527, 1.450413
875.6348, 8.942143
876.1169, 19.79625
876.5991, 27.72817
877.0812, 32.77816
877.5633, 33.99405
878.0454, 31.05505
878.5275, 26.48560
879.0096, 19.37050
879.4918, 13.21969
879.9739, 16.89629
880.4560, 31.47764
880.9381, 40.20772
881.4202, 27.32107
881.9023, 12.05331
882.3845, 7.779794
882.8666, 16.50113
883.3487, 18.90492
883.8308, 12.88984
884.3129, 7.008816
884.7950, 8.437464
885.2772, 14.52686
885.7593, 16.65591
886.2414, 14.84878
886.7235, 14.17168
887.2056, 18.31833
887.6877, 23.14247
888.1699, 26.75844
888.6520, 28.93081
889.1341, 28.48744
889.6162, 23.98239
890.0983, 19.65366
890.5804, 18.23213
891.0626, 18.90372
891.5447, 14.90833
892.0268, 6.692025
892.5089, 1.956102
892.9910, 9.080371
893.4731, 19.38872
893.9553, 25.79725
894.4374, 28.15700
894.9195, 29.51401
895.4016, 31.97093
895.8837, 31.37145
896.3658, 24.38398
896.8480, 13.09034
897.3301, 10.22423
897.8122, 16.01641
898.2943, 21.69253
898.7764, 20.85557
899.2585, 17.63484
899.7407, 17.13054
900.2228, 17.47829
900.7049, 15.00981
901.1870, 1.696510
901.6691, 6.647743
902.1512, 4.839231
902.6334, 3.960380
903.1155, 13.24034
903.5976, 23.70857
904.0797, 27.72292
904.5618, 19.16000
905.0439, 6.920630
905.5261, 6.324335
906.0082, 13.53143
906.4903, 18.40490
906.9724, 11.81961
907.4545, 7.700079
907.9366, 15.48765
908.4188, 27.83027
908.9009, 28.68084
909.3830, 13.72967
909.8651, 5.337429
910.3472, 9.943363
910.8293, 19.66035
911.3115, 21.22114
911.7936, 17.42912
912.2757, 15.05057
912.7578, 17.48292
913.2399, 19.93092
913.7220, 17.49238
914.2042, 14.87889
914.6863, 19.74854
915.1684, 38.39928
915.6505, 47.09549
916.1326, 42.50168
916.6147, 30.92759
917.0969, 16.13928
917.5790, 1.176047
918.0611, 3.666749
918.5432, 5.721585
919.0253, 16.55636
919.5074, 22.22149
919.9896, 24.52261
920.4717, 24.74332
920.9538, 20.93477
921.4359, 21.35621
921.9180, 28.19934
922.4001, 34.56529
922.8823, 32.19690
923.3644, 23.82517
923.8465, 20.42597
924.3286, 22.94678
924.8107, 25.31562
925.2928, 23.43047
925.7750, 19.42185
926.2571, 13.95752
926.7392, 6.116783
927.2213, 2.525461
927.7034, 6.094965
928.1855, 11.00671
928.6677, 14.24528
929.1498, 16.29872
929.6319, 20.20736
930.1140, 25.66073
930.5961, 30.02109
931.0782, 30.74715
931.5604, 30.38715
932.0425, 30.11949
932.5246, 30.17971
933.0067, 32.56863
933.4888, 42.37649
933.9709, 44.52456
934.4531, 30.13504
934.9352, 7.321662
935.4173, 3.602033
935.8994, 16.15827
936.3815, 27.02527
936.8636, 23.12190
937.3458, 17.76287
937.8279, 20.30653
938.3100, 28.38844
938.7921, 36.89668
939.2742, 49.60761
939.7563, 54.47929
940.2385, 47.97297
940.7206, 35.21944
941.2027, 23.90746
941.6848, 14.31239
942.1669, 8.402240
942.6490, 7.856930
943.1312, 7.903537
943.6133, 1.424785
944.0954, 5.221048
944.5775, 3.834307
945.0596, 18.38397
945.5417, 27.88380
946.0239, 18.64583
946.5060, 6.751472
946.9881, 12.63595
947.4702, 31.73157
947.9523, 38.32967
948.4344, 29.27877
948.9166, 17.74269
949.3987, 8.845481
949.8808, 5.109778
950.3629, 11.34223
950.8450, 31.68682
951.3271, 40.20147
951.8093, 30.89568
952.2914, 21.10643
952.7735, 22.43268
953.2556, 31.80703
953.7377, 35.23770
954.2198, 33.10868
954.7020, 28.83628
955.1841, 24.36354
955.6662, 18.61191
956.1483, 7.229307
956.6304, 7.398711
957.1125, 9.021103
957.5947, 11.67569
958.0768, 23.46640
958.5589, 13.34091
959.0410, 7.194521
959.5231, 9.173208
960.0052, 3.257984
960.4874, 13.23747
960.9695, 10.55078
961.4516, 7.132765
961.9337, 11.57768
962.4158, 19.11465
962.8979, 20.43190
963.3801, 11.54566
963.8622, 6.208555
964.3443, 5.883854
964.8264, 9.040546
965.3085, 15.63742
965.7906, 23.91428
966.2728, 29.68363
966.7549, 32.10145
967.2370, 32.07069
967.7191, 28.94501
968.2012, 24.32711
968.6833, 18.65815
969.1655, 10.57753
969.6476, 10.16270
970.1297, 19.41253
970.6118, 27.86756
971.0939, 26.65180
971.5760, 19.57297
972.0582, 13.04042
972.5403, 7.433958
973.0224, 3.373202
973.5045, 1.730623
973.9866, 1.080829
974.4688, 0.6762850
974.9509, 0.6612830
975.4330, 1.605981
975.9151, 3.100828
976.3972, 7.585855
976.8793, 18.18206
977.3615, 28.21195
977.8436, 25.55744
978.3257, 14.93973
978.8078, 6.965290
979.2899, 4.992184
979.7720, 6.759132
980.2542, 14.90413
980.7363, 24.08274
981.2184, 26.02580
981.7005, 20.51866
982.1826, 17.82518
982.6647, 19.73697
983.1469, 22.62448
983.6290, 23.71361
984.1111, 23.27684
984.5932, 21.26005
985.0753, 16.97310
985.5574, 13.75186
986.0395, 11.01217
986.5216, 10.71420
987.0037, 15.54761
987.4858, 24.66413
987.9680, 29.44674
988.4501, 29.58791
988.9322, 27.13081
989.4143, 20.32938
989.8964, 14.58161
990.3785, 14.42352
990.8607, 19.25139
991.3428, 24.92085
991.8249, 35.34107
992.3070, 36.44147
992.7891, 20.49759
993.2712, 1.824579
993.7534, 5.652896
994.2355, 4.342861
994.7176, 13.19305
995.1997, 14.66906
995.6818, 15.69138
996.1639, 21.02865
996.6461, 27.30270
997.1282, 30.15882
997.6103, 28.58673
998.0924, 27.81643
998.5745, 27.97490
999.0566, 27.15434
999.5388, 22.91509
1000.021, 17.43129
1000.503, 14.61562
1000.985, 14.98370
1001.467, 15.34075
1001.949, 13.03007
1002.431, 11.58379
1002.914, 12.78725
1003.396, 16.10542
1003.878, 19.77334
1004.360, 23.88060
1004.842, 25.73221
1005.324, 22.00290
1005.806, 17.26350
1006.288, 17.77529
1006.771, 21.11124
1007.253, 21.32591
1007.735, 10.14009
1008.217, 5.674077
1008.699, 13.19506
1009.181, 24.07215
1009.663, 23.68040
1010.145, 14.24553
1010.627, 7.517021
1011.110, 5.536024
1011.592, 6.978125
1012.074, 15.47673
1012.556, 23.94054
1013.038, 24.82471
1013.520, 15.55397
1014.002, 9.951476
1014.484, 8.065633
1014.966, 7.927225
1015.449, 10.09738
1015.931, 12.52954
1016.413, 9.172161
1016.895, 1.496075
1017.377, 0.1081180
1017.859, 23.57910
1018.341, 39.59238
1018.823, 30.75650
1019.306, 7.992043
1019.788, 2.974441
1020.270, 1.882791
1020.752, 5.078726
1021.234, 19.09763
1021.716, 30.70344
1022.198, 24.80691
1022.680, 11.40925
1023.162, 4.575928
1023.645, 10.37672
1024.127, 15.90317
1024.609, 19.98873
1025.091, 23.87587
1025.573, 30.96052
1026.055, 39.42803
1026.537, 33.65142
1027.019, 14.64903
1027.502, 0.8150290
1027.984, 9.185213
1028.466, 21.81458
1028.948, 28.21636
1029.430, 28.68872
1029.912, 27.83838
1030.394, 25.59946
1030.876, 21.87737
1031.359, 15.69596
1031.841, 9.701294
1032.323, 9.302210
1032.805, 12.08727
1033.287, 12.89860
1033.769, 7.164669
1034.251, 5.171452
1034.733, 10.94379
1035.215, 19.77519
1035.698, 30.58286
1036.180, 43.43560
1036.662, 41.58718
1037.144, 24.12645
1037.626, 8.325567
1038.108, 11.53578
1038.590, 19.11031
1039.072, 17.59775
1039.554, 7.264299
1040.037, 2.240290
1040.519, 4.003132
1041.001, 9.489977
1041.483, 19.50033
1041.965, 30.40623
1042.447, 35.82269
1042.929, 36.26171
1043.411, 33.04051
1043.894, 25.05986
1044.376, 16.24166
1044.858, 3.807615
1045.340, 5.619328
1045.822, 4.066737
1046.304, 10.73023
1046.786, 17.46016
1047.268, 14.35753
1047.750, 11.76986
1048.233, 21.92036
1048.715, 33.86319
1049.197, 34.56679
1049.679, 24.31682
1050.161, 17.08211
1050.643, 14.96980
1051.125, 14.73731
1051.607, 15.83522
1052.089, 18.31421
1052.572, 22.13387
1053.054, 25.95465
1053.536, 25.23523
1054.018, 16.37167
1054.500, 7.013767
1054.982, 1.742734
1055.464, 7.476170
1055.946, 7.833327
1056.429, 2.085671
1056.911, 6.388710
1057.393, 18.30569
1057.875, 26.64196
1058.357, 20.62008
1058.839, 10.01848
1059.321, 6.604555
1059.803, 10.19648
1060.286, 13.05569
1060.768, 13.45530
1061.250, 14.56109
1061.732, 18.97664
1062.214, 23.47735
1062.696, 18.14896
1063.178, 6.849694
1063.660, 2.714406
1064.142, 11.78853
1064.625, 22.33053
1065.107, 31.21468
1065.589, 36.77246
1066.071, 37.06192
1066.553, 30.95745
1067.035, 28.05195
1067.517, 28.53650
1067.999, 29.26499
1068.481, 28.73503
1068.964, 26.68411
1069.446, 20.84990
1069.928, 12.75762
1070.410, 9.513654
1070.892, 13.90717
1071.374, 20.39450
1071.856, 29.72501
1072.338, 37.78347
1072.820, 34.59953
1073.303, 24.47659
1073.785, 19.88786
1074.267, 25.07627
1074.749, 29.34396
1075.231, 11.98757
1075.713, 28.16245
1076.195, 37.04203
1076.677, 39.01987
1077.160, 13.32564
1077.642, 23.29789
1078.124, 19.03131
1078.606, 14.28734
1079.088, 29.53617
1079.570, 8.037720
1080.052, 23.03594
1080.534, 23.51143
1081.016, 30.68171
1081.499, 23.45911
1081.981, 20.72547
1082.463, 32.45482
1082.945, 36.22711
1083.427, 27.47613
1083.909, 35.26763
1084.391, 13.59482
1084.873, 17.83922
1085.355, 33.28445
1085.838, 25.42383
1086.320, 33.64389
1086.802, 35.78496
1087.284, 10.18280
1087.766, 32.91916
1088.248, 34.79791
1088.730, 15.25947
1089.212, 36.43958
1089.695, 19.92493
1090.177, 16.90997
1090.659, 24.06504
1091.141, 20.68801
1091.623, 34.00089
1092.105, 31.29980
1092.587, 27.19810
1093.069, 24.39339
1093.552, 20.59649
1094.034, 22.48937
1094.516, 29.45313
1094.998, 30.11065
1095.480, 13.78504
1095.962, 4.714267
1096.444, 11.24714
1096.926, 25.47876
1097.408, 31.68964
1097.891, 31.12388
1098.373, 26.97763
1098.855, 17.64945
1099.337, 10.49073
1099.819, 10.77464
1100.301, 13.13276
1100.783, 12.96559
1101.265, 10.13256
1101.747, 14.48199
1102.230, 25.85258
1102.712, 31.04402
1103.194, 11.55558
1103.676, 8.610523
1104.158, 7.867432
1104.640, 7.138021
1105.122, 18.98244
1105.604, 26.94236
1106.087, 30.15684
1106.569, 27.49329
1107.051, 23.46209
1107.533, 23.12380
1108.015, 25.14622
1108.497, 28.81858
1108.979, 34.31255
1109.461, 34.66941
1109.943, 23.07303
1110.426, 13.78562
1110.908, 12.61525
1111.390, 16.78909
1111.872, 18.18842
1112.354, 17.58256
1112.836, 17.99661
1113.318, 23.18165
1113.800, 24.20566
1114.282, 12.23715
1114.765, 1.984038
1115.247, 8.839261
1115.729, 8.012191
1116.211, 1.174632
1116.693, 11.33747
1117.175, 19.38462
1117.657, 5.982243
1118.139, 6.282442
1118.622, 7.170435
1119.104, 37.74704
1119.586, 50.56229
1120.068, 40.41434
1120.550, 28.21112
1121.032, 16.29636
1121.514, 7.531786
1121.996, 7.300055
1122.479, 11.89427
1122.961, 16.75762
1123.443, 21.57444
1123.925, 23.43935
1124.407, 20.51825
1124.889, 17.75123
1125.371, 17.36827
1125.853, 18.52610
1126.335, 18.20465
1126.818, 17.38623
1127.300, 19.24393
1127.782, 29.13581
1128.264, 35.25842
1128.746, 31.43354
1129.228, 24.81799
1129.710, 21.01079
1130.192, 19.95078
1130.674, 20.39103
1131.157, 22.21583
1131.639, 23.89146
1132.121, 25.16900
1132.603, 25.22815
1133.085, 20.68057
1133.567, 15.02259
1134.049, 19.47548
1134.531, 36.22681
1135.014, 42.59666
1135.496, 32.79628
1135.978, 21.03064
1136.460, 24.20694
1136.942, 31.75843
1137.424, 32.05764
1137.906, 22.55494
1138.388, 16.31202
1138.870, 13.96289
1139.353, 12.96618
1139.835, 11.86583
1140.317, 12.01456
1140.799, 17.84602
1141.281, 26.14950
1141.763, 30.78802
1142.245, 28.11347
1142.727, 24.31037
1143.209, 18.07902
1143.692, 14.17297
1144.174, 19.08974
1144.656, 29.08613
1145.138, 31.36649
1145.620, 26.76274
1146.102, 21.76550
1146.584, 17.75863
1147.066, 16.01194
1147.549, 18.24618
1148.031, 22.00117
1148.513, 21.15520
1148.995, 16.97710
1149.477, 13.26183
1149.959, 10.45664
1150.441, 9.888625
1150.923, 15.26880
1151.406, 20.52251
1151.888, 21.24233
1152.370, 18.38775
1152.852, 17.20720
1153.334, 17.67266
1153.816, 17.32879
1154.298, 15.44438
1154.780, 12.24485
1155.262, 3.588658
1155.745, 3.825816
1156.227, 0.1141530
1156.709, 18.16203
1157.191, 27.34621
1157.673, 26.77348
1158.155, 22.08395
1158.637, 13.22027
1159.119, 5.062222
1159.601, 2.657397
1160.084, 5.356453
1160.566, 12.38077
1161.048, 29.84531
1161.530, 35.82130
1162.012, 27.36100
1162.494, 14.99144
1162.976, 6.725202
1163.458, 2.303610
1163.941, 2.543610
1164.423, 7.050516
1164.905, 11.59549
1165.387, 16.09989
1165.869, 19.08968
1166.351, 20.44528
1166.833, 19.82756
1167.315, 14.65382
1167.797, 7.470364
1168.280, 4.248938
1168.762, 6.661619
1169.244, 10.05609
1169.726, 15.42045
1170.208, 18.27501
1170.690, 15.54421
1171.172, 9.291553
1171.654, 7.262138
1172.136, 8.364723
1172.619, 7.813309
1173.101, 0.5642930
1173.583, 3.577727
1174.065, 12.80158
1174.547, 29.35780
1175.029, 28.66342
1175.511, 11.94089
1175.993, 9.844221
1176.476, 21.74793
1176.958, 31.21395
1177.440, 25.10942
1177.922, 17.67946
1178.404, 17.79501
1178.886, 20.58546
1179.368, 17.95651
1179.850, 10.45319
1180.333, 9.571225
1180.815, 16.83542
1181.297, 23.20953
1181.779, 20.05707
1182.261, 14.89980
1182.743, 13.06863
1183.225, 13.99858
1183.707, 14.11461
1184.189, 13.10426
1184.672, 16.18520
1185.154, 25.89976
1185.636, 34.53170
1186.118, 33.66701
1186.600, 28.66199
1187.082, 24.36213
1187.564, 21.17054
1188.046, 19.83531
1188.528, 20.89767
1189.011, 19.52505
1189.493, 12.12907
1189.975, 3.879166
1190.457, 1.043888
1190.939, 1.298430
1191.421, 1.083366
1191.903, 1.214381
1192.385, 0.3609190
1192.868, 3.984740
1193.350, 9.760970
1193.832, 17.89942
1194.314, 24.98320
1194.796, 25.31125
1195.278, 20.90359
1195.760, 16.98317
1196.242, 14.47232
1196.724, 11.92711
1197.207, 8.684828
1197.689, 7.362934
1198.171, 11.94070
1198.653, 19.33060
1199.135, 26.79724
1199.617, 33.39484
1200.099, 34.04397
1200.581, 23.89252
1201.063, 16.53702
1201.546, 14.89309
1202.028, 15.55280
1202.510, 13.42285
1202.992, 10.39066
1203.474, 10.83617
1203.956, 15.74180
1204.438, 14.60136
1204.920, 1.195833
1205.403, 8.309333
1205.885, 4.693569
1206.367, 25.22482
1206.849, 26.77621
1207.331, 16.94508
1207.813, 10.66370
1208.295, 12.41302
1208.777, 14.07371
1209.260, 13.94302
1209.742, 14.56227
1210.224, 18.61385
1210.706, 23.26049
1211.188, 19.72405
1211.670, 11.29469
1212.152, 6.673383
1212.634, 12.76846
1213.116, 15.75883
1213.599, 11.91142
1214.081, 8.280207
1214.563, 11.79248
1215.045, 13.53441
1215.527, 20.20942
1216.009, 23.95072
1216.491, 24.91435
1216.973, 14.79548
1217.455, 18.98267
1217.938, 17.43501
1218.420, 15.65114
1218.902, 21.84977
1219.384, 13.33742
1219.866, 19.44557
1220.348, 19.69699
1220.830, 22.61272
1221.312, 19.74672
1221.795, 18.65180
1222.277, 23.40724
1222.759, 24.96690
1223.241, 21.50436
1223.723, 24.64586
1224.205, 15.98871
1224.687, 17.68555
1225.169, 23.84981
1225.651, 20.67867
1226.134, 23.92746
1226.616, 15.56682
1227.098, 13.40196
1227.580, 18.67156
1228.062, 27.77188
1228.544, 30.27903
1229.026, 22.52811
1229.508, 14.75444
1229.990, 7.179287
1230.473, 4.519704
1230.955, 11.29752
1231.437, 22.79491
1231.919, 24.38611
1232.401, 19.48474
1232.883, 17.88350
1233.365, 25.37521
1233.847, 30.25974
1234.329, 31.87080
1234.812, 27.85295
1235.294, 11.36445
1235.776, 10.28405
1236.258, 10.44626
1236.740, 5.157728
1237.222, 18.09753
1237.704, 22.14186
1238.186, 20.80952
1238.669, 11.92069
1239.151, 3.264782
1239.633, 3.248822
1240.115, 8.589656
1240.597, 9.780261
1241.079, 7.870066
1241.561, 8.456492
1242.043, 19.08042
1242.526, 22.57368
1243.008, 16.09176
1243.490, 8.805243
1243.972, 16.25526
1244.454, 30.40676
1244.936, 30.72147
1245.418, 18.28124
1245.900, 11.26162
1246.382, 22.36382
1246.865, 28.92919
1247.347, 26.50018
1247.829, 19.99461
1248.311, 14.29699
1248.793, 10.09062
1249.275, 8.076552
1249.757, 8.378145
1250.239, 13.86782
1250.721, 30.35302
1251.204, 40.05858
1251.686, 37.02311
1252.168, 28.70732
1252.650, 25.99231
1253.132, 26.32326
1253.614, 25.88154
1254.096, 24.06994
1254.578, 21.03927
1255.061, 15.41053
1255.543, 13.00682
1256.025, 17.28996
1256.507, 23.01133
1256.989, 19.98851
1257.471, 13.99665
1257.953, 10.79323
1258.435, 23.25895
1258.917, 26.35493
1259.400, 17.47267
1259.882, 8.453171
1260.364, 3.749857
1260.846, 3.163624
1261.328, 9.729110
1261.810, 18.83659
1262.292, 23.24109
1262.774, 20.71725
1263.256, 19.36281
1263.739, 19.54490
1264.221, 18.33440
1264.703, 12.49838
1265.185, 6.212559
1265.667, 4.379244
1266.149, 4.827530
1266.631, 3.724188
1267.113, 0.2056570
1267.596, 0.6341470
1268.078, 2.722410
1268.560, 5.437965
1269.042, 2.346190
1269.524, 0.1957790
1270.006, 3.604840
1270.488, 11.28511
1270.970, 18.97211
1271.453, 27.27289
1271.935, 28.77710
1272.417, 23.28665
1272.899, 16.75727
1273.381, 9.058558
1273.863, 5.341909
1274.345, 15.43762
1274.827, 28.66142
1275.309, 30.15844
1275.792, 19.89492
1276.274, 10.45207
1276.756, 2.984453
1277.238, 0.1133980
1277.720, 7.868814
1278.202, 14.34837
1278.684, 8.733250
1279.166, 0.0000000E+00
##END=



