##NAMES=Ullmannite
##RRUFFID=R070541
##IDEAL CHEMISTRY=NiSbS
##LOCALITY=Oms, Pyrennes Mountains, Spain
##OWNER=RRUFF
##SOURCE=James Shigley
##DESCRIPTION=Steel gray massive
##STATUS=The identification of this mineral has been confirmed by single-crystal X-ray diffraction.
##URL=rruff.info/R070541
173.4686, 0.0000000E+00
173.9507, 6.734863
174.4329, 33.12256
174.9150, 62.19189
175.3971, 95.77271
175.8792, 130.4460
176.3613, 144.1018
176.8434, 136.0098
177.3256, 129.5913
177.8077, 139.8518
178.2898, 144.6943
178.7719, 136.9670
179.2540, 113.0876
179.7361, 78.45068
180.2183, 45.42627
180.7004, 17.01465
181.1825, 4.622803
181.6646, 11.46021
182.1467, 0.2897950
182.6288, 17.04822
183.1110, 38.54785
183.5931, 60.97913
184.0752, 81.12134
184.5573, 100.5752
185.0394, 124.0704
185.5215, 163.4752
186.0037, 222.8429
186.4858, 279.2579
186.9679, 330.1409
187.4500, 371.0315
187.9321, 394.9585
188.4142, 400.2500
188.8964, 386.8885
189.3785, 352.4939
189.8606, 289.2965
190.3427, 235.0918
190.8248, 206.0779
191.3069, 194.2106
191.7891, 181.4352
192.2712, 158.0785
192.7533, 138.5024
193.2354, 148.4694
193.7175, 192.7046
194.1996, 234.2657
194.6818, 270.3534
195.1639, 295.1630
195.6460, 293.7881
196.1281, 257.3330
196.6102, 205.9086
197.0923, 175.1553
197.5745, 166.6166
198.0566, 162.2047
198.5387, 155.0781
199.0208, 150.0890
199.5029, 155.2202
199.9850, 175.0072
200.4672, 198.5405
200.9493, 216.3303
201.4314, 232.6222
201.9135, 240.8009
202.3956, 224.5746
202.8777, 198.6919
203.3599, 184.8848
203.8420, 190.0031
204.3241, 203.8323
204.8062, 211.7688
205.2883, 214.4221
205.7704, 212.5624
206.2526, 205.3645
206.7347, 193.9694
207.2168, 179.4088
207.6989, 161.3087
208.1810, 141.9858
208.6631, 124.6808
209.1453, 109.1119
209.6274, 97.86182
210.1095, 96.27454
210.5916, 97.02124
211.0737, 88.84338
211.5558, 69.11224
212.0380, 52.06555
212.5201, 55.55713
213.0022, 77.71265
213.4843, 92.82117
213.9664, 94.90869
214.4485, 89.14056
214.9307, 78.63452
215.4128, 63.47552
215.8949, 50.00385
216.3770, 44.48572
216.8591, 46.18475
217.3412, 46.57092
217.8233, 41.99579
218.3055, 37.70612
218.7876, 39.06329
219.2697, 46.07019
219.7518, 55.16333
220.2339, 66.46075
220.7160, 78.33905
221.1982, 80.96167
221.6803, 68.52960
222.1624, 50.90143
222.6445, 32.55786
223.1266, 14.24054
223.6087, 2.1361999E-02
224.0909, 6.705505
224.5730, 6.732666
225.0551, 7.226013
225.5372, 9.449951
226.0193, 10.95337
226.5014, 9.583557
226.9836, 6.003540
227.4657, 2.958496
227.9478, 1.590820
228.4299, 2.120972
228.9120, 4.942627
229.3941, 12.22150
229.8763, 18.81238
230.3584, 21.42285
230.8405, 21.47369
231.3226, 16.74805
231.8047, 17.31720
232.2868, 19.60406
232.7690, 13.44751
233.2511, 5.090149
233.7332, 22.79816
234.2153, 35.11981
234.6974, 43.84235
235.1796, 52.02026
235.6617, 60.69006
236.1438, 69.54425
236.6259, 77.34845
237.1080, 82.76550
237.5901, 90.31006
238.0723, 102.5142
238.5544, 116.5429
239.0365, 129.3973
239.5186, 140.8036
240.0007, 149.9233
240.4828, 152.0385
240.9650, 141.7305
241.4471, 141.3084
241.9292, 163.1833
242.4113, 189.6812
242.8934, 202.5034
243.3755, 198.8757
243.8577, 190.1819
244.3398, 188.9405
244.8219, 197.7248
245.3040, 203.4900
245.7861, 200.5023
246.2682, 198.8015
246.7504, 207.7974
247.2325, 226.6642
247.7146, 245.6075
248.1967, 255.8409
248.6788, 256.4601
249.1609, 257.7110
249.6431, 255.0065
250.1252, 256.8851
250.6073, 269.4394
251.0894, 290.5959
251.5715, 314.0043
252.0536, 335.4741
252.5358, 354.8633
253.0179, 372.5519
253.5000, 388.8094
253.9821, 403.4010
254.4642, 419.6687
254.9463, 433.6232
255.4285, 437.0865
255.9106, 424.9768
256.3927, 401.8834
256.8748, 385.2738
257.3569, 381.5034
257.8391, 377.4880
258.3212, 375.9041
258.8033, 372.1563
259.2854, 358.7139
259.7675, 332.9735
260.2496, 302.3872
260.7318, 283.2508
261.2139, 287.5831
261.6960, 284.7648
262.1781, 270.8644
262.6602, 252.5134
263.1423, 233.0067
263.6245, 213.8079
264.1066, 197.3928
264.5887, 187.4946
265.0708, 186.1265
265.5529, 186.0352
266.0350, 191.1525
266.5172, 194.1312
266.9993, 187.6489
267.4814, 173.8267
267.9635, 162.7110
268.4456, 165.2380
268.9277, 182.7972
269.4099, 195.2952
269.8920, 199.1986
270.3741, 200.9482
270.8562, 201.1616
271.3383, 200.6763
271.8204, 200.6030
272.3026, 201.3121
272.7847, 203.0660
273.2668, 208.1232
273.7489, 220.1477
274.2310, 230.1488
274.7131, 236.8332
275.1953, 239.9086
275.6774, 238.0044
276.1595, 229.5387
276.6416, 218.6915
277.1237, 214.7334
277.6058, 220.1755
278.0880, 225.6428
278.5701, 227.3878
279.0522, 228.6047
279.5343, 232.1946
280.0164, 238.9955
280.4985, 246.7137
280.9807, 253.8176
281.4628, 260.3387
281.9449, 261.9674
282.4270, 254.1672
282.9091, 244.8908
283.3912, 240.6373
283.8734, 241.5557
284.3555, 242.5161
284.8376, 238.6354
285.3197, 231.3450
285.8018, 228.4561
286.2839, 234.4447
286.7661, 238.3752
287.2482, 228.6921
287.7303, 208.7162
288.2124, 191.2953
288.6945, 184.4146
289.1766, 182.5019
289.6588, 174.8411
290.1409, 160.0079
290.6230, 144.9802
291.1051, 133.8289
291.5872, 125.9183
292.0693, 121.4283
292.5515, 123.9451
293.0336, 126.7316
293.5157, 123.1671
293.9978, 114.2556
294.4799, 106.8738
294.9620, 104.7936
295.4442, 106.2460
295.9263, 106.4496
296.4084, 105.7637
296.8905, 103.4949
297.3726, 98.98120
297.8547, 92.66522
298.3369, 84.44244
298.8190, 73.65741
299.3011, 63.86365
299.7832, 61.96130
300.2653, 72.17200
300.7474, 77.67200
301.2296, 73.12524
301.7117, 65.26154
302.1938, 59.19617
302.6759, 56.20129
303.1580, 57.24866
303.6401, 64.28998
304.1223, 79.24811
304.6044, 87.21759
305.0865, 84.04523
305.5686, 79.01831
306.0507, 75.68085
306.5328, 74.19647
307.0150, 74.01300
307.4971, 74.90100
307.9792, 76.61713
308.4613, 77.12067
308.9434, 73.95978
309.4255, 72.28058
309.9077, 74.64093
310.3898, 78.30237
310.8719, 79.76465
311.3540, 77.38031
311.8361, 72.66058
312.3182, 68.33081
312.8004, 62.86011
313.2825, 61.24402
313.7646, 67.42389
314.2467, 74.41296
314.7288, 77.17181
315.2109, 75.22095
315.6931, 71.84418
316.1752, 71.83649
316.6573, 76.11835
317.1394, 73.24847
317.6215, 54.61761
318.1036, 37.59521
318.5858, 30.02264
319.0679, 30.13403
319.5500, 32.50604
320.0321, 33.67908
320.5142, 34.88873
320.9963, 41.32764
321.4785, 56.87531
321.9606, 67.20776
322.4427, 61.38782
322.9248, 47.88245
323.4069, 35.78302
323.8890, 26.62671
324.3712, 20.96442
324.8533, 21.17603
325.3354, 26.77570
325.8175, 29.89337
326.2996, 26.36182
326.7817, 21.05457
327.2639, 21.54907
327.7460, 28.96497
328.2281, 33.77435
328.7102, 29.78967
329.1923, 20.87463
329.6744, 14.08502
330.1566, 10.73431
330.6387, 8.817993
331.1208, 6.101440
331.6029, 2.588135
332.0850, 1.621765
332.5671, 5.971924
333.0493, 11.00488
333.5314, 12.98828
334.0135, 12.39301
334.4956, 12.18164
334.9777, 14.33441
335.4598, 18.34814
335.9420, 21.13477
336.4241, 23.80548
336.9062, 24.16669
337.3883, 18.58044
337.8704, 11.52124
338.3525, 9.969604
338.8346, 16.27271
339.3167, 25.27545
339.7989, 27.73419
340.2810, 18.79004
340.7631, 12.96637
341.2452, 10.76062
341.7273, 10.70123
342.2094, 12.89069
342.6916, 16.63965
343.1737, 20.08496
343.6558, 21.30316
344.1379, 20.35400
344.6200, 20.84119
345.1021, 25.21564
345.5843, 27.99713
346.0664, 25.82623
346.5485, 21.55798
347.0306, 20.11261
347.5127, 24.55920
347.9948, 30.75348
348.4770, 29.61700
348.9591, 18.69159
349.4412, 11.34015
349.9233, 15.36346
350.4054, 22.05353
350.8875, 24.22876
351.3697, 20.95453
351.8518, 16.75317
352.3339, 15.35028
352.8160, 16.01178
353.2981, 15.16290
353.7802, 10.94891
354.2624, 7.740906
354.7445, 12.80200
355.2266, 23.49390
355.7087, 28.47968
356.1908, 18.76904
356.6729, 6.695740
357.1551, 4.879089
357.6372, 12.67914
358.1193, 21.00293
358.6014, 25.79663
359.0835, 27.06512
359.5656, 24.54645
360.0478, 13.65631
360.5299, 6.057434
361.0120, 6.821289
361.4941, 11.79553
361.9762, 15.92322
362.4583, 17.65387
362.9405, 17.40234
363.4226, 15.56940
363.9047, 11.22968
364.3868, 8.233582
364.8689, 6.418945
365.3510, 5.985291
365.8332, 9.340576
366.3153, 14.40997
366.7974, 15.69537
367.2795, 9.792847
367.7616, 1.396790
368.2437, 7.700439
368.7259, 5.595398
369.2080, 3.701294
369.6901, 5.124329
370.1722, 6.931396
370.6543, 5.337341
371.1364, 0.8283080
371.6186, 7.496582
372.1007, 8.586609
372.5828, 3.594910
373.0649, 1.344849
373.5470, 4.119690
374.0291, 8.117065
374.5113, 11.08179
374.9934, 13.26886
375.4755, 15.56055
375.9576, 19.54364
376.4397, 23.56799
376.9218, 24.42163
377.4040, 21.77643
377.8861, 18.41504
378.3682, 15.34998
378.8503, 12.95184
379.3324, 12.00494
379.8145, 13.60266
380.2967, 14.93091
380.7788, 13.40503
381.2609, 10.54028
381.7430, 10.20813
382.2251, 13.86908
382.7072, 19.01990
383.1894, 21.59802
383.6715, 20.04761
384.1536, 19.15198
384.6357, 20.13342
385.1178, 20.84558
385.5999, 19.45972
386.0821, 16.39288
386.5642, 13.85138
387.0463, 12.82446
387.5284, 12.41058
388.0105, 10.44757
388.4926, 2.880249
388.9748, 0.5099490
389.4569, 6.134583
389.9390, 14.92255
390.4211, 17.38550
390.9032, 11.44885
391.3853, 3.226868
391.8675, 0.9138790
392.3496, 5.088074
392.8317, 6.713501
393.3138, 2.265686
393.7959, 1.385681
394.2780, 0.6835330
394.7602, 6.500427
395.2423, 11.17218
395.7244, 11.66583
396.2065, 10.29535
396.6886, 10.32971
397.1707, 11.80109
397.6529, 14.36047
398.1350, 19.05829
398.6171, 23.84137
399.0992, 24.42017
399.5813, 18.86084
400.0634, 14.93298
400.5456, 18.24176
401.0277, 24.00336
401.5098, 24.52448
401.9919, 18.32599
402.4740, 10.01764
402.9561, 3.408630
403.4383, 1.721680
403.9204, 1.254944
404.4025, 12.30286
404.8846, 22.75830
405.3667, 21.24524
405.8488, 12.64270
406.3310, 6.149719
406.8131, 6.088013
407.2952, 9.730164
407.7773, 11.56354
408.2594, 12.11420
408.7415, 10.10150
409.2237, 2.627869
409.7058, 4.964050
410.1879, 10.15558
410.6700, 12.52264
411.1521, 12.14398
411.6342, 8.333557
412.1164, 1.788574
412.5985, 5.563660
413.0806, 15.54340
413.5627, 21.33557
414.0448, 14.41718
414.5269, 2.888428
415.0091, 2.906006
415.4912, 0.1185910
415.9733, 5.515015
416.4554, 9.504089
416.9375, 12.31122
417.4196, 14.73773
417.9018, 17.07831
418.3839, 18.52985
418.8660, 18.08917
419.3481, 15.53302
419.8302, 12.78271
420.3123, 8.694824
420.7945, 5.508118
421.2766, 6.339600
421.7587, 9.257996
422.2408, 8.279114
422.7229, 0.2582400
423.2050, 12.17303
423.6872, 15.33017
424.1693, 1.706604
424.6514, 7.469116
425.1335, 7.335327
425.6156, 5.990417
426.0977, 10.28381
426.5799, 19.95880
427.0620, 28.60632
427.5441, 30.53693
428.0262, 26.49005
428.5083, 21.85742
428.9904, 16.58997
429.4726, 11.15271
429.9547, 3.625061
430.4368, 3.192627
430.9189, 5.115723
431.4010, 5.5969000E-02
431.8831, 5.903809
432.3653, 6.670959
432.8474, 4.127014
433.3295, 5.843933
433.8116, 14.67761
434.2937, 23.28381
434.7758, 23.27069
435.2580, 14.32709
435.7401, 7.283508
436.2222, 3.374634
436.7043, 0.8960570
437.1864, 1.423706
437.6685, 3.167175
438.1507, 2.695374
438.6328, 0.9451900
439.1149, 5.596985
439.5970, 6.063538
440.0791, 2.170654
440.5612, 6.373718
441.0434, 5.043396
441.5255, 1.424103
442.0076, 4.794708
442.4897, 11.90445
442.9718, 14.99954
443.4539, 8.308868
443.9361, 3.930878
444.4182, 4.687988
444.9003, 10.73032
445.3824, 24.01401
445.8645, 28.11749
446.3466, 26.76846
446.8288, 21.76520
447.3109, 12.72244
447.7930, 5.658875
448.2751, 5.464081
448.7572, 9.652771
449.2393, 14.08176
449.7215, 18.35562
450.2036, 20.07703
450.6857, 15.92209
451.1678, 6.765472
451.6499, 3.172180
452.1320, 9.718628
452.6142, 16.17905
453.0963, 18.31238
453.5784, 18.51746
454.0605, 20.82135
454.5426, 26.30930
455.0247, 32.09409
455.5069, 34.34741
455.9890, 32.63364
456.4711, 29.32056
456.9532, 22.47684
457.4353, 16.09070
457.9174, 10.68820
458.3996, 6.756104
458.8817, 5.137238
459.3638, 6.519745
459.8459, 9.524445
460.3280, 12.31183
460.8102, 14.88266
461.2923, 17.72372
461.7744, 22.67355
462.2565, 25.95874
462.7386, 22.12378
463.2207, 11.99957
463.7029, 4.534821
464.1850, 1.181122
464.6671, 1.197479
465.1492, 7.227722
465.6313, 17.61356
466.1134, 24.07663
466.5956, 21.92084
467.0777, 14.51801
467.5598, 9.868195
468.0419, 9.031586
468.5240, 9.706940
469.0061, 14.41696
469.4883, 18.99704
469.9704, 20.05621
470.4525, 17.94910
470.9346, 15.63776
471.4167, 14.82086
471.8988, 14.92862
472.3810, 17.39673
472.8631, 24.35477
473.3452, 27.98825
473.8273, 20.05219
474.3094, 11.02841
474.7915, 11.44757
475.2737, 22.53055
475.7558, 31.11740
476.2379, 25.33557
476.7200, 13.23068
477.2021, 11.14005
477.6842, 20.49396
478.1664, 28.91776
478.6485, 28.20139
479.1306, 20.30981
479.6127, 14.21136
480.0948, 9.644043
480.5769, 6.778412
481.0591, 4.932281
481.5412, 4.850037
482.0233, 8.882263
482.5054, 16.08765
482.9875, 23.04559
483.4696, 26.86816
483.9518, 27.59982
484.4339, 26.16098
484.9160, 21.17035
485.3981, 16.05237
485.8802, 9.799042
486.3623, 4.870361
486.8445, 4.330597
487.3266, 8.978668
487.8087, 15.29999
488.2908, 21.12076
488.7729, 26.29300
489.2550, 29.50656
489.7372, 30.05655
490.2193, 29.79507
490.7014, 30.34442
491.1835, 31.34573
491.6656, 31.00452
492.1477, 29.62772
492.6299, 26.57584
493.1120, 18.54813
493.5941, 10.06070
494.0762, 7.342896
494.5583, 11.52420
495.0404, 18.91541
495.5226, 26.25873
496.0047, 33.84778
496.4868, 37.58688
496.9689, 34.61633
497.4510, 30.93414
497.9331, 27.14136
498.4153, 23.51529
498.8974, 20.67709
499.3795, 18.83926
499.8616, 17.37164
500.3437, 15.23544
500.8258, 12.61584
501.3080, 9.902008
501.7901, 6.036896
502.2722, 4.788666
502.7543, 11.46216
503.2364, 23.02451
503.7185, 28.40878
504.2007, 23.19333
504.6828, 16.99094
505.1649, 10.72015
505.6470, 6.676422
506.1291, 10.60291
506.6112, 22.66034
507.0934, 33.25464
507.5755, 31.38138
508.0576, 16.67572
508.5397, 8.763855
509.0218, 13.67346
509.5039, 17.70956
509.9861, 17.12805
510.4682, 14.67105
510.9503, 14.06274
511.4324, 16.22766
511.9145, 17.56458
512.3967, 12.99899
512.8788, 4.722626
513.3609, 1.690887
513.8430, 5.633972
514.3251, 9.869537
514.8073, 9.585266
515.2894, 6.253204
515.7715, 5.696045
516.2536, 10.91068
516.7357, 14.19006
517.2178, 11.23630
517.7000, 6.268097
518.1821, 4.518829
518.6642, 6.471527
519.1463, 8.761963
519.6284, 8.428314
520.1105, 5.663269
520.5927, 2.061523
521.0748, 5.536621
521.5569, 8.757629
522.0390, 2.723755
522.5211, 6.022064
523.0032, 12.16025
523.4854, 14.63376
523.9675, 15.30765
524.4496, 14.26559
524.9317, 12.70435
525.4138, 14.08289
525.8959, 18.71490
526.3781, 21.43591
526.8602, 19.13489
527.3423, 13.27618
527.8244, 7.249969
528.3065, 1.944366
528.7886, 5.262787
529.2708, 4.060822
529.7529, 15.46713
530.2350, 20.64865
530.7171, 19.79327
531.1992, 17.25354
531.6813, 15.50009
532.1635, 14.43826
532.6456, 13.68542
533.1277, 13.15665
533.6098, 13.22058
534.0919, 15.35565
534.5740, 16.93933
535.0562, 14.51071
535.5383, 9.144684
536.0204, 7.125641
536.5025, 15.64780
536.9846, 26.05722
537.4667, 26.46075
537.9489, 19.06784
538.4310, 12.11932
538.9131, 8.544769
539.3952, 7.830566
539.8773, 9.359741
540.3594, 13.62955
540.8416, 18.16797
541.3237, 25.91617
541.8058, 30.87836
542.2879, 27.31879
542.7700, 20.03110
543.2521, 18.15262
543.7343, 25.64053
544.2164, 34.17877
544.6985, 31.04099
545.1806, 16.97009
545.6627, 6.875092
546.1448, 2.041840
546.6270, 0.2115780
547.1091, 2.104401
547.5912, 6.574799
548.0733, 9.987610
548.5554, 11.81561
549.0375, 12.80524
549.5197, 13.06723
550.0018, 12.78741
550.4839, 10.94727
550.9660, 7.975250
551.4481, 8.331818
551.9302, 17.17737
552.4124, 33.17740
552.8945, 40.41403
553.3766, 33.85162
553.8587, 26.28836
554.3408, 18.18735
554.8229, 11.56506
555.3051, 8.251007
555.7872, 8.347717
556.2693, 10.27954
556.7514, 14.89767
557.2335, 19.92917
557.7156, 20.79788
558.1978, 17.67914
558.6799, 14.46484
559.1620, 12.74936
559.6441, 11.97318
560.1262, 10.99857
560.6083, 8.868164
561.0905, 9.521393
561.5726, 17.01730
562.0547, 23.45718
562.5368, 23.15903
563.0189, 18.68237
563.5010, 15.48175
563.9832, 16.09769
564.4653, 18.56058
564.9474, 19.82639
565.4295, 19.83447
565.9116, 21.12183
566.3937, 25.59344
566.8759, 28.32520
567.3580, 23.87784
567.8401, 15.19958
568.3222, 8.965057
568.8043, 5.811249
569.2864, 5.443909
569.7686, 9.746948
570.2507, 15.87720
570.7328, 19.98853
571.2149, 21.45569
571.6970, 21.74158
572.1791, 21.80075
572.6613, 21.52826
573.1434, 20.19257
573.6255, 16.00977
574.1076, 14.27136
574.5897, 17.46579
575.0718, 22.05502
575.5540, 26.72974
576.0361, 30.78577
576.5182, 31.75726
577.0003, 26.01807
577.4824, 17.91849
577.9645, 12.00647
578.4467, 8.340454
578.9288, 7.842346
579.4109, 11.72745
579.8930, 16.81097
580.3751, 17.48221
580.8572, 11.82736
581.3394, 9.379700
581.8215, 13.41431
582.3036, 16.49176
582.7857, 14.19739
583.2678, 10.28506
583.7499, 10.67984
584.2321, 16.88947
584.7142, 23.19443
585.1963, 21.90909
585.6783, 15.51785
586.1605, 16.30368
586.6426, 26.72061
587.1247, 32.93784
587.6068, 24.23764
588.0889, 7.425720
588.5710, 0.6383670
589.0532, 2.692322
589.5353, 6.268311
590.0174, 10.00446
590.4995, 12.05124
590.9816, 8.650879
591.4637, 2.424286
591.9459, 1.101013
592.4280, 9.289490
592.9101, 19.94315
593.3922, 17.79840
593.8743, 1.002899
594.3564, 7.300385
594.8386, 0.5882570
595.3207, 8.438019
595.8028, 11.19678
596.2849, 9.775146
596.7670, 8.459167
597.2491, 6.136322
597.7313, 6.768280
598.2134, 16.96976
598.6955, 28.72928
599.1776, 29.97156
599.6597, 20.55908
600.1418, 10.49985
600.6240, 7.616577
601.1061, 9.848022
601.5882, 8.586060
602.0703, 2.026520
602.5524, 3.420563
603.0345, 9.357544
603.5167, 11.40335
603.9988, 3.905762
604.4809, 10.54675
604.9630, 21.46060
605.4451, 24.27267
605.9272, 23.00592
606.4094, 17.47659
606.8915, 10.88782
607.3736, 12.62558
607.8557, 24.68912
608.3378, 36.21460
608.8199, 35.44821
609.3021, 23.07166
609.7842, 15.62988
610.2663, 15.40186
610.7484, 17.08105
611.2305, 20.05838
611.7126, 23.56006
612.1948, 28.08502
612.6769, 32.97083
613.1590, 34.33911
613.6411, 25.72940
614.1232, 15.22723
614.6053, 14.72391
615.0875, 22.09045
615.5696, 27.24472
616.0517, 26.76605
616.5338, 23.95468
617.0159, 23.04199
617.4980, 24.07404
617.9802, 24.77670
618.4623, 26.16772
618.9444, 26.31589
619.4265, 23.45218
619.9086, 19.88531
620.3907, 17.87686
620.8729, 17.87064
621.3550, 19.22964
621.8371, 23.94553
622.3192, 28.71320
622.8013, 25.59174
623.2834, 15.24384
623.7656, 7.349396
624.2477, 5.885681
624.7298, 7.961395
625.2119, 9.332031
625.6940, 9.500641
626.1761, 11.20929
626.6583, 15.67676
627.1404, 20.06766
627.6225, 24.85776
628.1046, 28.60269
628.5867, 28.50818
629.0688, 23.87836
629.5510, 18.44949
630.0331, 14.22211
630.5152, 11.61868
630.9973, 12.49658
631.4794, 16.87280
631.9615, 20.57318
632.4437, 21.72321
632.9258, 21.38098
633.4079, 21.50717
633.8900, 23.01022
634.3721, 21.62238
634.8542, 14.17136
635.3364, 7.451569
635.8185, 3.044281
636.3006, 1.608276
636.7827, 4.954865
637.2648, 13.30637
637.7469, 21.55661
638.2291, 24.53308
638.7112, 23.59613
639.1933, 22.15387
639.6754, 20.26898
640.1575, 19.40564
640.6396, 20.29333
641.1218, 22.45502
641.6039, 25.27878
642.0860, 29.50885
642.5681, 31.96161
643.0502, 32.58279
643.5323, 31.57202
644.0145, 27.54172
644.4966, 22.53561
644.9787, 19.60135
645.4608, 19.53421
645.9429, 20.00842
646.4250, 17.53281
646.9072, 14.13638
647.3893, 16.64548
647.8714, 25.31845
648.3535, 30.32812
648.8356, 26.04111
649.3177, 18.11682
649.7999, 16.72256
650.2820, 25.28818
650.7641, 28.62686
651.2462, 20.46619
651.7283, 14.27756
652.2104, 17.08691
652.6926, 24.52908
653.1747, 29.57462
653.6568, 30.27609
654.1389, 28.09717
654.6210, 21.32257
655.1031, 13.58713
655.5853, 14.19809
656.0674, 22.85291
656.5495, 30.46915
657.0316, 33.70322
657.5137, 33.58273
657.9958, 31.31992
658.4780, 26.63873
658.9601, 21.06458
659.4422, 11.03635
659.9243, 4.351135
660.4064, 4.741089
660.8885, 8.480835
661.3707, 12.05020
661.8528, 15.18552
662.3349, 17.93970
662.8170, 20.90649
663.2991, 23.00305
663.7813, 21.06577
664.2634, 15.93848
664.7455, 13.93893
665.2276, 17.76624
665.7097, 22.63489
666.1918, 22.07309
666.6740, 15.50543
667.1561, 9.225983
667.6382, 0.1660460
668.1203, 4.531982
668.6024, 0.1194460
669.0845, 7.348419
669.5667, 9.956207
670.0488, 7.729034
670.5309, 7.127441
671.0130, 14.20908
671.4951, 22.72461
671.9772, 26.59073
672.4594, 26.09732
672.9415, 20.97491
673.4236, 11.22122
673.9057, 1.551422
674.3878, 3.237030
674.8699, 3.231201
675.3521, 0.4328000
675.8342, 11.15710
676.3163, 19.21661
676.7984, 21.40036
677.2805, 21.16498
677.7626, 20.34641
678.2448, 19.17673
678.7269, 18.01981
679.2090, 16.73611
679.6911, 15.82651
680.1732, 15.85889
680.6553, 16.41074
681.1375, 17.25500
681.6196, 18.08902
682.1017, 17.24927
682.5838, 12.82761
683.0659, 6.734161
683.5480, 7.231201
684.0302, 17.38721
684.5123, 20.49435
684.9944, 8.488007
685.4765, 4.046600
685.9586, 4.445221
686.4407, 3.468506
686.9229, 8.593658
687.4050, 7.038727
687.8871, 6.874939
688.3692, 14.38412
688.8513, 22.05185
689.3334, 20.38162
689.8156, 11.63217
690.2977, 6.265198
690.7798, 10.51862
691.2619, 18.14117
691.7440, 17.04941
692.2261, 7.787323
692.7083, 3.958527
693.1904, 8.255096
693.6725, 12.80185
694.1546, 12.81509
694.6367, 9.769653
695.1188, 7.172058
695.6010, 4.117584
696.0831, 3.921173
696.5652, 9.130493
697.0473, 14.87061
697.5294, 18.81900
698.0115, 21.36554
698.4937, 23.86932
698.9758, 26.75299
699.4579, 27.80499
699.9400, 22.54028
700.4221, 14.78217
700.9042, 14.08871
701.3864, 20.13196
701.8685, 24.61142
702.3506, 23.91104
702.8327, 21.18753
703.3148, 21.35233
703.7969, 25.25537
704.2791, 25.35855
704.7612, 17.55988
705.2433, 11.46631
705.7254, 9.127472
706.2075, 9.518738
706.6896, 13.04657
707.1718, 19.12317
707.6539, 22.89932
708.1360, 20.13446
708.6181, 16.22385
709.1002, 16.45547
709.5823, 18.68698
710.0645, 18.63562
710.5466, 15.44644
711.0287, 10.75980
711.5108, 5.688202
711.9929, 0.6856380
712.4750, 2.691620
712.9572, 4.565308
713.4393, 4.234070
713.9214, 1.550049
714.4035, 3.407715
714.8856, 13.38419
715.3677, 25.80151
715.8499, 31.06308
716.3320, 23.26923
716.8141, 17.06216
717.2962, 15.55524
717.7783, 17.38358
718.2604, 25.01804
718.7426, 34.78281
719.2247, 37.40762
719.7068, 28.10675
720.1889, 15.91922
720.6710, 11.83328
721.1531, 14.04694
721.6353, 15.94235
722.1174, 17.01913
722.5995, 20.48410
723.0816, 29.27124
723.5637, 38.00836
724.0458, 35.87982
724.5280, 18.63116
725.0101, 7.546509
725.4922, 6.936035
725.9743, 7.433105
726.4564, 6.955750
726.9385, 6.893250
727.4207, 9.980377
727.9028, 16.19391
728.3849, 20.15906
728.8670, 15.66229
729.3491, 11.13434
729.8312, 17.71039
730.3134, 28.81274
730.7955, 29.31100
731.2776, 16.90283
731.7597, 3.816193
732.2418, 0.3622130
732.7239, 4.926849
733.2061, 13.19699
733.6882, 26.58099
734.1703, 30.44080
734.6524, 17.79044
735.1345, 4.058990
735.6166, 1.595154
736.0988, 7.876617
736.5809, 10.87604
737.0630, 6.146271
737.5451, 5.599976
738.0272, 16.50378
738.5093, 26.84839
738.9915, 27.52347
739.4736, 21.61920
739.9557, 16.56534
740.4378, 15.03528
740.9199, 14.24631
741.4020, 10.70572
741.8842, 6.488647
742.3663, 6.238922
742.8484, 9.627502
743.3305, 13.11768
743.8126, 15.74854
744.2947, 16.99808
744.7769, 15.18738
745.2590, 10.22910
745.7411, 7.262268
746.2232, 7.479645
746.7053, 7.263947
747.1874, 5.396606
747.6696, 2.913483
748.1517, 0.2849430
748.6338, 2.301605
749.1159, 3.612488
749.5980, 2.246399
750.0801, 0.9771420
750.5623, 1.275970
751.0444, 1.977966
751.5265, 2.269348
752.0086, 1.771515
752.4907, 0.1910100
752.9728, 4.160217
753.4550, 9.024323
753.9371, 13.96463
754.4192, 18.53973
754.9013, 20.59085
755.3834, 19.97543
755.8655, 18.16483
756.3477, 15.86246
756.8298, 13.77972
757.3119, 13.26855
757.7940, 14.43991
758.2761, 16.79111
758.7582, 22.71039
759.2404, 26.48221
759.7225, 25.91107
760.2046, 22.77762
760.6867, 17.99286
761.1688, 11.82269
761.6509, 7.246002
762.1331, 5.296417
762.6152, 5.130280
763.0973, 7.478394
763.5794, 10.67957
764.0615, 12.75763
764.5436, 13.34207
765.0258, 12.68161
765.5079, 10.72498
765.9900, 8.249786
766.4721, 6.615784
766.9542, 5.756439
767.4363, 4.954346
767.9185, 4.011261
768.4006, 4.681335
768.8827, 8.505890
769.3648, 13.87546
769.8469, 16.96072
770.3290, 17.13113
770.8112, 16.38065
771.2933, 13.94498
771.7754, 11.97446
772.2575, 11.68387
772.7396, 11.63333
773.2217, 9.927948
773.7039, 6.417389
774.1860, 3.745300
774.6681, 2.032104
775.1502, 2.263367
775.6323, 7.363678
776.1144, 13.66071
776.5966, 14.85382
777.0787, 11.12473
777.5608, 9.128326
778.0429, 14.13553
778.5250, 21.62643
779.0071, 23.31891
779.4893, 20.14575
779.9714, 17.56470
780.4535, 16.31955
780.9356, 14.56195
781.4177, 10.86426
781.8998, 6.642029
782.3820, 5.449432
782.8641, 8.909973
783.3462, 9.376160
783.8283, 3.720764
784.3104, 0.5010380
784.7925, 0.4906920
785.2747, 3.447205
785.7568, 4.478027
786.2389, 3.430603
786.7210, 4.520111
787.2031, 12.58621
787.6852, 18.62732
788.1674, 16.99557
788.6495, 11.64182
789.1316, 6.393585
789.6137, 2.130310
790.0958, 1.350342
790.5779, 4.431244
791.0601, 5.752686
791.5422, 2.323059
792.0243, 4.240051
792.5064, 9.646942
792.9885, 13.25555
793.4706, 14.43436
793.9528, 12.68588
794.4349, 9.391235
794.9170, 6.557312
795.3991, 3.984863
795.8812, 5.079193
796.3633, 10.98141
796.8455, 14.60397
797.3276, 12.22662
797.8097, 8.112488
798.2918, 7.420319
798.7739, 9.774719
799.2560, 10.75067
799.7382, 9.696716
800.2203, 7.727478
800.7024, 3.238464
801.1845, 0.4942930
801.6666, 0.3691100
802.1487, 2.755554
802.6309, 6.348083
803.1130, 9.634399
803.5951, 12.17539
804.0772, 14.21689
804.5593, 14.93976
805.0414, 11.72577
805.5236, 6.024811
806.0057, 2.909546
806.4878, 4.071106
806.9699, 7.391724
807.4520, 11.27182
807.9341, 15.16318
808.4163, 15.68134
808.8984, 12.52548
809.3805, 10.04825
809.8626, 9.462250
810.3447, 9.408875
810.8268, 8.727936
811.3090, 7.401581
811.7911, 5.284271
812.2732, 0.1315000
812.7553, 1.792877
813.2374, 3.096130
813.7195, 8.800903
814.2017, 13.96286
814.6838, 17.95889
815.1659, 19.60840
815.6480, 18.56699
816.1301, 17.49307
816.6122, 17.06470
817.0944, 17.09235
817.5765, 19.18231
818.0586, 20.74399
818.5407, 16.61679
819.0228, 7.559082
819.5049, 1.060486
819.9871, 2.574463
820.4692, 7.386810
820.9513, 9.753296
821.4334, 10.47403
821.9155, 11.93304
822.3976, 14.23068
822.8798, 15.54721
823.3619, 14.88306
823.8440, 12.95969
824.3261, 10.24097
824.8082, 6.621521
825.2903, 8.322296
825.7725, 17.89514
826.2546, 22.24716
826.7367, 14.21057
827.2188, 4.330200
827.7009, 4.585968
828.1830, 14.30066
828.6652, 21.82852
829.1473, 27.98587
829.6294, 30.34390
830.1115, 25.85373
830.5936, 20.54355
831.0757, 17.79343
831.5579, 16.85199
832.0400, 15.98779
832.5221, 14.87979
833.0042, 13.62482
833.4863, 11.48706
833.9684, 9.974274
834.4506, 10.98123
834.9327, 13.10321
835.4148, 14.19406
835.8969, 13.78015
836.3790, 12.38580
836.8611, 10.02161
837.3433, 7.672638
837.8254, 5.674377
838.3075, 4.357391
838.7896, 6.983276
839.2717, 13.28580
839.7538, 16.79834
840.2360, 13.52441
840.7181, 8.103912
841.2002, 9.934845
841.6823, 19.20203
842.1644, 20.68973
842.6465, 12.42731
843.1287, 5.888519
843.6108, 5.238861
844.0929, 6.862030
844.5750, 6.534698
845.0571, 4.642426
845.5392, 6.754150
846.0214, 18.39420
846.5035, 25.09067
846.9856, 22.39734
847.4677, 18.30478
847.9498, 17.68106
848.4319, 18.11066
848.9141, 14.43661
849.3962, 4.995392
849.8783, 0.8022460
850.3604, 0.3352970
850.8425, 5.057800
851.3246, 17.77167
851.8068, 29.31891
852.2889, 24.15521
852.7710, 4.364502
853.2531, 9.086792
853.7352, 2.390686
854.2173, 10.30832
854.6995, 16.17239
855.1816, 17.65955
855.6637, 18.58008
856.1458, 19.26456
856.6279, 18.77362
857.1100, 16.70197
857.5922, 14.16541
858.0743, 12.13080
858.5564, 10.85638
859.0385, 10.76724
859.5206, 12.03479
860.0027, 19.24695
860.4849, 34.57257
860.9670, 46.60989
861.4491, 45.17975
861.9312, 33.81430
862.4133, 24.62469
862.8954, 16.97366
863.3776, 14.50830
863.8597, 19.93195
864.3418, 25.58072
864.8239, 28.65320
865.3060, 29.47488
865.7881, 28.45126
866.2703, 25.49734
866.7524, 21.01587
867.2345, 9.726990
867.7166, 4.105591
868.1987, 11.82260
868.6808, 21.37189
869.1630, 24.13977
869.6451, 21.83188
870.1272, 20.60751
870.6093, 22.46481
871.0914, 23.20328
871.5735, 18.87009
872.0557, 14.67813
872.5378, 15.60910
873.0199, 18.77066
873.5020, 18.90042
873.9841, 15.45370
874.4662, 13.08347
874.9484, 16.45132
875.4305, 19.68274
875.9126, 14.56766
876.3947, 5.512268
876.8768, 1.5564000E-02
877.3589, 1.179352
877.8411, 1.324646
878.3232, 7.167114
878.8053, 13.71918
879.2874, 18.04169
879.7695, 20.15988
880.2516, 19.41052
880.7338, 16.08218
881.2159, 13.63232
881.6980, 12.73395
882.1801, 13.51230
882.6622, 16.89920
883.1443, 20.92709
883.6265, 18.75916
884.1086, 9.146118
884.5907, 1.471497
885.0728, 4.075958
885.5549, 6.660095
886.0370, 5.703125
886.5192, 1.811035
887.0013, 5.153717
887.4834, 15.42801
887.9655, 21.11713
888.4476, 19.91589
888.9297, 17.83701
889.4119, 13.34827
889.8940, 10.48383
890.3761, 14.02618
890.8582, 20.31387
891.3403, 20.72623
891.8224, 12.33682
892.3046, 6.817108
892.7867, 9.506775
893.2688, 11.44727
893.7509, 7.096130
894.2330, 1.106934
894.7151, 2.733215
895.1973, 3.396881
895.6794, 1.039307
896.1615, 14.70108
896.6436, 26.28903
897.1257, 28.41449
897.6078, 26.34988
898.0900, 23.66071
898.5721, 21.26080
899.0542, 19.75531
899.5363, 19.36343
900.0184, 20.42844
900.5005, 26.24155
900.9827, 30.49881
901.4648, 21.36319
901.9469, 6.310608
902.4290, 0.4943850
902.9111, 4.951416
903.3932, 13.10565
903.8754, 21.49976
904.3575, 26.66119
904.8396, 21.61108
905.3217, 10.40851
905.8038, 6.316681
906.2859, 8.737549
906.7681, 12.33911
907.2502, 15.70538
907.7323, 17.28146
908.2144, 15.74640
908.6965, 12.67130
909.1786, 8.905945
909.6608, 4.821594
910.1429, 6.789612
910.6250, 16.47192
911.1071, 22.90146
911.5892, 22.18393
912.0714, 19.50488
912.5535, 21.80463
913.0356, 28.36359
913.5177, 29.66306
913.9998, 22.22552
914.4819, 20.24399
914.9641, 28.38681
915.4462, 36.96860
915.9283, 41.84198
916.4104, 42.67325
916.8925, 37.66199
917.3746, 24.62573
917.8568, 17.25644
918.3389, 20.17072
918.8210, 22.33920
919.3031, 21.56943
919.7852, 19.58542
920.2673, 16.18591
920.7495, 12.67862
921.2316, 13.09772
921.7137, 19.93585
922.1958, 24.67892
922.6779, 24.72217
923.1600, 23.75806
923.6422, 24.76291
924.1243, 24.71628
924.6064, 17.59998
925.0885, 5.292572
925.5706, 0.3073430
926.0527, 8.954651
926.5349, 17.02264
927.0170, 14.62567
927.4991, 10.56046
927.9812, 12.06137
928.4633, 16.89389
928.9454, 21.29916
929.4276, 24.12970
929.9097, 24.18716
930.3918, 17.86713
930.8739, 12.13354
931.3560, 13.36163
931.8381, 17.74228
932.3203, 22.18262
932.8024, 25.05783
933.2845, 22.84921
933.7666, 14.36053
934.2487, 6.361176
934.7308, 5.088867
935.2130, 7.376129
935.6951, 10.08719
936.1772, 12.84274
936.6593, 16.09808
937.1414, 19.09103
937.6235, 17.36496
938.1057, 8.087677
938.5878, 1.499451
939.0699, 0.9556270
939.5520, 5.838287
940.0341, 9.785400
940.5162, 11.11813
940.9984, 11.91031
941.4805, 12.69070
941.9626, 12.93491
942.4447, 12.05890
942.9268, 10.90738
943.4089, 12.14432
943.8911, 15.53220
944.3732, 19.12604
944.8553, 21.74133
945.3374, 21.34311
945.8195, 17.93677
946.3016, 14.83444
946.7838, 15.22046
947.2659, 18.60886
947.7480, 25.48309
948.2301, 35.95892
948.7122, 34.89041
949.1943, 19.38751
949.6765, 7.456573
950.1586, 7.552826
950.6407, 12.34357
951.1228, 12.63538
951.6049, 9.067047
952.0870, 7.150970
952.5692, 6.975281
953.0513, 6.991486
953.5334, 7.206635
954.0155, 7.855988
954.4976, 9.382263
954.9797, 11.02789
955.4619, 11.20300
955.9440, 9.748657
956.4261, 11.68823
956.9082, 19.51361
957.3903, 23.42206
957.8724, 20.35385
958.3546, 15.59528
958.8367, 12.51978
959.3188, 10.08164
959.8009, 5.613708
960.2830, 1.986328
960.7651, 5.751984
961.2473, 4.945862
961.7294, 1.554169
962.2115, 5.487640
962.6936, 13.22305
963.1757, 20.17432
963.6578, 25.90186
964.1400, 29.38806
964.6221, 32.19135
965.1042, 28.21429
965.5863, 6.054871
966.0684, 7.509796
966.5505, 1.438782
967.0327, 15.61295
967.5148, 21.83817
967.9969, 21.39795
968.4790, 19.84204
968.9611, 16.56915
969.4432, 13.91864
969.9254, 11.12616
970.4075, 10.06311
970.8896, 12.80310
971.3717, 16.51752
971.8538, 19.08267
972.3359, 20.21851
972.8181, 18.87085
973.3002, 11.50375
973.7823, 8.126770
974.2644, 13.68909
974.7465, 19.46259
975.2286, 21.62189
975.7108, 21.66418
976.1929, 20.48367
976.6750, 18.66647
977.1571, 19.37057
977.6392, 26.20230
978.1213, 30.67093
978.6035, 30.82059
979.0856, 28.11929
979.5677, 18.89148
980.0498, 9.952576
980.5319, 13.64285
981.0140, 29.18796
981.4962, 36.12787
981.9783, 19.38010
982.4604, 7.361115
982.9425, 14.40555
983.4246, 22.80200
983.9067, 18.05878
984.3889, 8.375153
984.8710, 7.985077
985.3531, 18.22015
985.8352, 27.32623
986.3173, 33.06961
986.7994, 34.84354
987.2816, 28.75995
987.7637, 22.16309
988.2458, 21.07800
988.7279, 23.11563
989.2100, 23.64557
989.6921, 21.95279
990.1743, 20.86435
990.6564, 21.48300
991.1385, 22.87869
991.6206, 26.51767
992.1027, 29.05475
992.5848, 27.38785
993.0670, 22.71310
993.5491, 15.60959
994.0312, 6.591858
994.5133, 4.080627
994.9954, 20.20694
995.4775, 32.46454
995.9597, 26.03418
996.4418, 14.69995
996.9239, 9.327393
997.4060, 9.299744
997.8881, 12.32672
998.3702, 17.72137
998.8524, 20.27573
999.3345, 15.22644
999.8166, 9.943665
1000.299, 9.870697
1000.781, 9.778076
1001.263, 0.5728150
1001.745, 10.93298
1002.227, 8.507385
1002.709, 11.03421
1003.191, 26.21469
1003.674, 22.94672
1004.156, 18.52728
1004.638, 23.68332
1005.120, 30.05276
1005.602, 30.04498
1006.084, 25.24014
1006.566, 19.13602
1007.048, 12.59723
1007.530, 9.056305
1008.013, 11.53528
1008.495, 15.36691
1008.977, 20.09238
1009.459, 23.44720
1009.941, 22.33969
1010.423, 18.71445
1010.905, 16.45728
1011.387, 16.39594
1011.870, 16.80481
1012.352, 17.93008
1012.834, 18.43103
1013.316, 16.30670
1013.798, 13.60480
1014.280, 11.10440
1014.762, 9.470428
1015.244, 9.848846
1015.726, 12.43344
1016.209, 15.44687
1016.691, 20.70154
1017.173, 23.05234
1017.655, 18.34009
1018.137, 12.17496
1018.619, 7.258362
1019.101, 5.219696
1019.583, 8.853699
1020.065, 18.33871
1020.548, 26.66367
1021.030, 34.31894
1021.512, 36.78064
1021.994, 25.26270
1022.476, 15.15735
1022.958, 21.53116
1023.440, 35.00983
1023.922, 38.41971
1024.405, 30.99063
1024.887, 24.88937
1025.369, 22.47604
1025.851, 23.06967
1026.333, 32.38693
1026.815, 38.43488
1027.297, 29.38101
1027.779, 14.58670
1028.261, 7.815826
1028.744, 10.21002
1029.226, 15.38828
1029.708, 25.88065
1030.190, 33.63181
1030.672, 39.03812
1031.154, 39.20587
1031.636, 28.39288
1032.118, 14.01022
1032.601, 5.064362
1033.083, 1.910828
1033.565, 1.446747
1034.047, 2.915222
1034.529, 7.715057
1035.011, 23.10101
1035.493, 33.40442
1035.975, 28.88895
1036.458, 17.91251
1036.940, 8.600098
1037.422, 1.212982
1037.904, 3.821014
1038.386, 9.511017
1038.868, 7.663422
1039.350, 7.701294
1039.832, 22.71240
1040.314, 36.68994
1040.797, 44.68323
1041.279, 39.08197
1041.761, 23.37338
1042.243, 13.57486
1042.725, 10.40274
1043.207, 11.76801
1043.689, 21.49481
1044.171, 28.53702
1044.653, 29.37469
1045.136, 26.71234
1045.618, 22.44485
1046.100, 17.23386
1046.582, 13.28250
1047.064, 10.62000
1047.546, 9.005402
1048.028, 8.100952
1048.510, 9.651245
1048.993, 15.38159
1049.475, 20.35745
1049.957, 20.66745
1050.439, 18.15506
1050.921, 17.10220
1051.403, 17.72037
1051.885, 15.37665
1052.367, 8.654053
1052.849, 8.504852
1053.332, 18.42569
1053.814, 28.41925
1054.296, 31.97626
1054.778, 31.52231
1055.260, 32.06210
1055.742, 33.18521
1056.224, 30.41461
1056.706, 23.67621
1057.188, 15.11639
1057.671, 4.917450
1058.153, 1.805939
1058.635, 10.76230
1059.117, 22.46100
1059.599, 24.87390
1060.081, 20.55148
1060.563, 12.76404
1061.045, 2.761414
1061.528, 4.649170
1062.010, 17.80533
1062.492, 23.22003
1062.974, 13.82217
1063.456, 2.369781
1063.938, 0.5365910
1064.420, 5.337524
1064.902, 14.06427
1065.385, 24.04556
1065.867, 28.43924
1066.349, 27.43921
1066.831, 21.50818
1067.313, 12.22040
1067.795, 10.20056
1068.277, 26.07251
1068.759, 41.05630
1069.241, 26.32864
1069.724, 1.482788
1070.206, 4.046844
1070.688, 3.541809
1071.170, 9.376862
1071.652, 10.72305
1072.134, 11.68481
1072.616, 14.61490
1073.098, 15.30734
1073.580, 5.757324
1074.063, 2.310303
1074.545, 4.863281
1075.027, 17.06464
1075.509, 19.07684
1075.991, 13.04092
1076.473, 10.86481
1076.955, 16.51309
1077.437, 20.91763
1077.920, 18.79581
1078.402, 15.80258
1078.884, 15.40720
1079.366, 14.78244
1079.848, 7.666534
1080.330, 6.6955999E-02
1080.812, 5.601257
1081.294, 26.78589
1081.776, 39.49390
1082.259, 33.70624
1082.741, 26.33456
1083.223, 17.37479
1083.705, 11.55682
1084.187, 12.62384
1084.669, 17.47681
1085.151, 23.22995
1085.633, 29.48007
1086.115, 32.85916
1086.598, 32.96997
1087.080, 30.88132
1087.562, 25.82352
1088.044, 19.62634
1088.526, 10.37537
1089.008, 4.365356
1089.490, 9.145142
1089.972, 20.04974
1090.454, 21.77435
1090.937, 12.02826
1091.419, 9.043884
1091.901, 14.34534
1092.383, 18.91129
1092.865, 20.80795
1093.347, 21.49323
1093.829, 22.04840
1094.311, 21.17560
1094.794, 15.60013
1095.276, 6.805817
1095.758, 5.962799
1096.240, 11.90768
1096.722, 10.58432
1097.204, 1.209747
1097.686, 5.556427
1098.168, 4.933167
1098.651, 0.2806400
1099.133, 5.733582
1099.615, 12.13562
1100.097, 19.34689
1100.579, 24.63843
1101.061, 17.02664
1101.543, 1.618927
1102.025, 2.473145
1102.507, 7.741211
1102.990, 17.04697
1103.472, 15.82690
1103.954, 11.85373
1104.436, 11.23013
1104.918, 12.87106
1105.400, 18.63498
1105.882, 24.03516
1106.364, 19.88223
1106.846, 9.249756
1107.329, 5.639526
1107.811, 14.43106
1108.293, 20.87994
1108.775, 15.11429
1109.257, 9.116760
1109.739, 10.83591
1110.221, 12.83517
1110.703, 6.149200
1111.186, 3.584076
1111.668, 4.509094
1112.150, 4.570892
1112.632, 9.384430
1113.114, 1.325745
1113.596, 0.4289860
1114.078, 13.92676
1114.560, 24.61975
1115.042, 21.02866
1115.525, 14.07129
1116.007, 14.97488
1116.489, 21.64352
1116.971, 25.53992
1117.453, 26.48315
1117.935, 25.06268
1118.417, 20.63223
1118.899, 16.43167
1119.381, 12.92471
1119.864, 10.55331
1120.346, 9.895081
1120.828, 10.81528
1121.310, 13.76617
1121.792, 17.92593
1122.274, 17.87018
1122.756, 14.23224
1123.238, 11.86118
1123.721, 11.48727
1124.203, 14.87592
1124.685, 22.38580
1125.167, 27.26077
1125.649, 22.75623
1126.131, 14.26013
1126.613, 7.404572
1127.095, 3.602478
1127.578, 8.481354
1128.060, 17.08716
1128.542, 17.92230
1129.024, 10.70743
1129.506, 7.228302
1129.988, 13.78143
1130.470, 18.03287
1130.952, 6.285797
1131.434, 3.954437
1131.917, 3.681244
1132.399, 15.30835
1132.881, 15.60529
1133.363, 8.389618
1133.845, 3.486969
1134.327, 2.176422
1134.809, 3.304352
1135.291, 9.347961
1135.773, 13.63571
1136.256, 12.17331
1136.738, 12.52451
1137.220, 21.03989
1137.702, 29.54825
1138.184, 29.01514
1138.666, 21.73776
1139.148, 16.47736
1139.630, 13.62033
1140.113, 10.82861
1140.595, 7.806335
1141.077, 5.834961
1141.559, 5.109192
1142.041, 10.36661
1142.523, 24.99973
1143.005, 37.85132
1143.487, 32.25256
1143.969, 14.36545
1144.452, 5.867737
1144.934, 5.200836
1145.416, 7.250610
1145.898, 10.47916
1146.380, 9.959106
1146.862, 4.845123
1147.344, 1.737274
1147.826, 5.730713
1148.308, 11.57498
1148.791, 13.95709
1149.273, 14.84595
1149.755, 16.15518
1150.237, 17.83017
1150.719, 20.77560
1151.201, 23.72552
1151.683, 22.33325
1152.165, 15.02509
1152.648, 9.651245
1153.130, 11.41653
1153.612, 12.43399
1154.094, 7.520264
1154.576, 3.666870
1155.058, 6.882751
1155.540, 12.37775
1156.022, 14.32983
1156.505, 13.46649
1156.987, 13.19867
1157.469, 14.28226
1157.951, 13.29428
1158.433, 8.567535
1158.915, 7.320282
1159.397, 12.54532
1159.879, 16.90311
1160.361, 15.79565
1160.844, 12.03897
1161.326, 10.58694
1161.808, 10.57565
1162.290, 6.440247
1162.772, 0.2771000
1163.254, 0.9729000
1163.736, 9.560547
1164.218, 16.21506
1164.700, 17.80988
1165.183, 15.24139
1165.665, 7.991516
1166.147, 1.496796
1166.629, 3.553009
1167.111, 7.728363
1167.593, 5.660675
1168.075, 1.497650
1168.557, 1.170807
1169.040, 4.502045
1169.522, 10.55234
1170.004, 19.59747
1170.486, 23.88971
1170.968, 15.75891
1171.450, 10.17355
1171.932, 12.42859
1172.414, 16.84793
1172.896, 23.33481
1173.379, 28.05551
1173.861, 26.48492
1174.343, 20.12576
1174.825, 14.44641
1175.307, 9.495758
1175.789, 4.493561
1176.271, 1.339539
1176.753, 1.911713
1177.235, 4.631042
1177.718, 10.07040
1178.200, 10.01270
1178.682, 8.358582
1179.164, 9.972168
1179.646, 12.80704
1180.128, 11.49780
1180.610, 7.747772
1181.092, 5.688782
1181.575, 5.374878
1182.057, 6.546082
1182.539, 8.877258
1183.021, 9.791138
1183.503, 8.390259
1183.985, 7.295502
1184.467, 8.542816
1184.949, 10.38779
1185.432, 13.15207
1185.914, 14.61343
1186.396, 8.632385
1186.878, 2.174622
1187.360, 10.50632
1187.842, 32.85452
1188.324, 41.97128
1188.806, 28.51743
1189.288, 17.69177
1189.771, 10.49997
1190.253, 4.847809
1190.735, 0.4954830
1191.217, 1.696625
1191.699, 5.110413
1192.181, 13.55682
1192.663, 12.73984
1193.145, 5.154938
1193.627, 2.562317
1194.110, 4.183533
1194.592, 5.737671
1195.074, 6.908875
1195.556, 7.455902
1196.038, 7.942749
1196.520, 13.80661
1197.002, 29.99539
1197.484, 41.23746
1197.967, 29.11493
1198.449, 10.25159
1198.931, 5.591766
1199.413, 14.96866
1199.895, 11.03372
1200.377, 0.5054630
1200.859, 9.473053
1201.341, 14.29553
1201.823, 15.36420
1202.306, 8.936615
1202.788, 5.654602
1203.270, 8.715912
1203.752, 9.766998
1204.234, 3.998352
1204.716, 1.240417
1205.198, 9.900909
1205.680, 22.47244
1206.162, 25.76181
1206.645, 21.40863
1207.127, 20.71103
1207.609, 23.05908
1208.091, 23.42618
1208.573, 21.42471
1209.055, 17.42618
1209.537, 12.17273
1210.019, 10.10831
1210.502, 14.31021
1210.984, 19.75156
1211.466, 19.89062
1211.948, 21.08020
1212.430, 34.35187
1212.912, 47.45056
1213.394, 44.03537
1213.876, 31.43289
1214.359, 24.68808
1214.841, 25.38382
1215.323, 25.42755
1215.805, 23.05484
1216.287, 21.20685
1216.769, 19.91464
1217.251, 19.10095
1217.733, 18.39374
1218.215, 19.23523
1218.698, 22.87701
1219.180, 27.67484
1219.662, 31.52814
1220.144, 34.33438
1220.626, 34.88675
1221.108, 33.70245
1221.590, 36.41663
1222.072, 41.92065
1222.554, 46.59262
1223.037, 49.19058
1223.519, 48.45419
1224.001, 43.69916
1224.483, 37.18875
1224.965, 28.41245
1225.447, 21.20645
1225.929, 18.51599
1226.411, 18.09778
1226.894, 19.22983
1227.376, 20.77380
1227.858, 20.48959
1228.340, 18.90039
1228.822, 22.04816
1229.304, 32.17593
1229.786, 35.20947
1230.268, 28.38528
1230.750, 24.07010
1231.233, 24.37665
1231.715, 26.56427
1232.197, 28.88773
1232.679, 28.93411
1233.161, 31.31412
1233.643, 33.19861
1234.125, 34.36395
1234.607, 35.22583
1235.089, 37.95407
1235.572, 40.51376
1236.054, 37.48599
1236.536, 29.96417
1237.018, 22.23364
1237.500, 15.76602
1237.982, 12.79340
1238.464, 18.82550
1238.946, 20.49619
1239.429, 5.641968
1239.911, 4.072144
1240.393, 6.836731
1240.875, 20.03998
1241.357, 22.79904
1241.839, 19.31631
1242.321, 16.73346
1242.803, 15.06464
1243.286, 14.58472
1243.768, 15.27496
1244.250, 15.82175
1244.732, 16.30688
1245.214, 19.35120
1245.696, 25.01669
1246.178, 28.67929
1246.660, 27.77673
1247.142, 23.30112
1247.625, 12.50546
1248.107, 2.855072
1248.589, 0.9998470
1249.071, 3.694611
1249.553, 11.16611
1250.035, 18.78235
1250.517, 18.61771
1250.999, 12.66815
1251.481, 13.92661
1251.964, 26.80771
1252.446, 28.17242
1252.928, 10.81451
1253.410, 1.773529
1253.892, 4.014374
1254.374, 10.32156
1254.856, 18.51630
1255.338, 22.07385
1255.821, 14.34903
1256.303, 3.363647
1256.785, 3.303345
1257.267, 8.531158
1257.749, 7.526520
1258.231, 4.322327
1258.713, 7.221588
1259.195, 14.60263
1259.677, 21.78690
1260.160, 27.33902
1260.642, 27.63947
1261.124, 18.45288
1261.606, 12.20889
1262.088, 14.87228
1262.570, 14.73135
1263.052, 4.792328
1263.534, 0.2983090
1264.016, 9.682434
1264.499, 11.67850
1264.981, 0.0000000E+00
##END=



