##NAMES=Uraninite
##RRUFFID=R070747
##IDEAL CHEMISTRY=U^4+^O_2_
##LOCALITY=Topsham, Sagadahoc County, Maine, USA
##OWNER=RRUFF
##SOURCE=Michael Scott
##DESCRIPTION=Elongated dodecahedral gray-black submetallic crystals
##STATUS=The identification of this mineral has been confirmed by X-ray diffraction.
##URL=rruff.info/R070747
222.3669, 0.0000000E+00
222.8491, 10.83484
223.3312, 25.04800
223.8133, 29.70920
224.2954, 12.24570
224.7775, 0.6683040
225.2596, 2.491028
225.7418, 32.26935
226.2239, 48.29193
226.7060, 44.92834
227.1881, 29.26764
227.6702, 19.23532
228.1523, 16.37766
228.6345, 16.98621
229.1166, 21.26654
229.5987, 30.36020
230.0808, 34.44516
230.5629, 30.54593
231.0450, 21.17435
231.5272, 16.82538
232.0093, 19.99905
232.4914, 25.01883
232.9735, 29.37250
233.4556, 35.17859
233.9377, 34.79694
234.4199, 24.25461
234.9020, 5.428528
235.3841, 0.8458560
235.8662, 6.554657
236.3483, 17.33124
236.8304, 21.92511
237.3126, 16.00092
237.7947, 12.34869
238.2768, 13.63791
238.7589, 19.76581
239.2410, 23.57285
239.7231, 23.77856
240.2053, 22.93317
240.6874, 23.82150
241.1695, 29.40002
241.6516, 31.28830
242.1337, 26.47589
242.6158, 14.11871
243.0980, 5.650787
243.5801, 0.8305360
244.0622, 8.8806003E-02
244.5443, 4.945374
245.0264, 20.87808
245.5085, 33.03851
245.9907, 37.71817
246.4728, 33.48779
246.9549, 27.12482
247.4370, 13.47195
247.9191, 0.7391050
248.4012, 6.365845
248.8834, 0.9787600
249.3655, 9.441010
249.8476, 15.96335
250.3297, 20.65106
250.8118, 22.72855
251.2939, 20.61887
251.7761, 16.85764
252.2582, 16.37283
252.7403, 21.81839
253.2224, 26.16684
253.7045, 27.02228
254.1866, 22.97610
254.6688, 19.96194
255.1509, 18.28787
255.6330, 17.40509
256.1151, 15.73938
256.5972, 12.07938
257.0793, 9.752899
257.5615, 10.59094
258.0436, 16.18982
258.5257, 20.11353
259.0078, 20.43448
259.4899, 19.71860
259.9720, 20.70749
260.4542, 30.97812
260.9363, 37.50870
261.4184, 40.53516
261.9005, 29.47055
262.3826, 36.90775
262.8647, 36.68839
263.3469, 36.16800
263.8290, 39.80734
264.3111, 34.17139
264.7932, 27.65640
265.2753, 22.93530
265.7574, 19.91040
266.2396, 19.88620
266.7217, 25.23419
267.2038, 33.23004
267.6859, 31.89093
268.1680, 18.34848
268.6501, 3.541992
269.1323, 0.1342770
269.6144, 10.87469
270.0965, 16.42078
270.5786, 12.07550
271.0607, 0.3124390
271.5428, 2.631195
272.0250, 5.914093
272.5071, 16.61569
272.9892, 21.83640
273.4713, 20.35361
273.9534, 20.99017
274.4355, 26.48322
274.9177, 35.43842
275.3998, 38.84949
275.8819, 33.86969
276.3640, 26.19833
276.8461, 18.99161
277.3282, 11.96378
277.8103, 7.939667
278.2924, 9.315552
278.7746, 14.73300
279.2567, 18.12860
279.7388, 19.30099
280.2209, 19.36096
280.7030, 19.23691
281.1852, 18.97034
281.6673, 16.81747
282.1494, 10.11130
282.6315, 1.600830
283.1136, 4.995331
283.5957, 22.18271
284.0779, 41.10947
284.5600, 51.51712
285.0421, 53.48428
285.5242, 48.50424
286.0063, 32.45135
286.4884, 10.83142
286.9706, 5.175385
287.4527, 17.12714
287.9348, 33.12564
288.4169, 40.59045
288.8990, 40.09357
289.3811, 37.14679
289.8633, 31.46164
290.3454, 25.05634
290.8275, 26.51343
291.3096, 36.82318
291.7917, 43.95648
292.2738, 22.22968
292.7560, 28.30743
293.2381, 30.52866
293.7202, 29.31531
294.2023, 13.96307
294.6844, 16.86697
295.1665, 12.51611
295.6487, 8.079987
296.1308, 17.43469
296.6129, 28.01349
297.0950, 35.68607
297.5771, 37.47168
298.0592, 34.86176
298.5414, 28.72501
299.0235, 18.99579
299.5056, 10.22086
299.9877, 7.292389
300.4698, 8.335358
300.9519, 8.825012
301.4341, 4.226501
301.9162, 1.7517000E-02
302.3983, 5.610626
302.8804, 20.85385
303.3625, 34.10419
303.8446, 31.46710
304.3268, 20.52795
304.8089, 14.92059
305.2910, 27.29572
305.7731, 42.32791
306.2552, 42.39941
306.7373, 29.00500
307.2195, 16.09830
307.7016, 15.19626
308.1837, 20.71048
308.6658, 24.91400
309.1479, 24.81732
309.6300, 22.54922
310.1122, 18.36423
310.5943, 12.45676
311.0764, 8.586639
311.5585, 12.75128
312.0406, 18.90100
312.5227, 20.45169
313.0049, 6.991669
313.4870, 5.462952
313.9691, 6.209198
314.4512, 3.841766
314.9333, 13.04327
315.4154, 15.81110
315.8976, 15.20117
316.3797, 14.09943
316.8618, 13.70349
317.3439, 12.65085
317.8260, 7.941895
318.3081, 0.3496400
318.7903, 1.247955
319.2724, 12.95764
319.7545, 30.83682
320.2366, 43.03366
320.7187, 46.25366
321.2008, 44.07022
321.6830, 32.77072
322.1651, 14.02942
322.6472, 3.240814
323.1293, 11.48380
323.6114, 23.89932
324.0935, 30.41931
324.5757, 23.75854
325.0578, 17.76556
325.5399, 15.35419
326.0220, 16.03189
326.5041, 14.19116
326.9862, 4.784149
327.4684, 3.969238
327.9505, 7.664642
328.4326, 2.833282
328.9147, 2.709198
329.3968, 10.98828
329.8789, 21.03369
330.3611, 23.52121
330.8432, 11.14825
331.3253, 1.548798
331.8074, 6.098999
332.2895, 3.208313
332.7716, 10.38400
333.2538, 14.10080
333.7359, 15.03140
334.2180, 16.15192
334.7001, 18.34937
335.1822, 19.35040
335.6643, 17.19299
336.1465, 9.799194
336.6286, 6.644592
337.1107, 10.66248
337.5928, 18.49323
338.0749, 11.40283
338.5570, 19.48825
339.0392, 23.83286
339.5213, 24.64893
340.0034, 11.31842
340.4855, 16.14044
340.9676, 13.71036
341.4497, 11.01388
341.9319, 18.50275
342.4140, 7.220673
342.8961, 14.54630
343.3782, 14.44296
343.8603, 17.73849
344.3424, 13.78400
344.8246, 12.08011
345.3067, 17.75281
345.7888, 19.34796
346.2709, 14.43036
346.7530, 17.93719
347.2351, 6.389984
347.7173, 8.051514
348.1994, 15.41162
348.6815, 11.28067
349.1636, 13.27655
349.6457, 12.25974
350.1278, 8.939331
350.6100, 6.082031
351.0921, 5.905182
351.5742, 6.713715
352.0563, 5.277222
352.5384, 1.226990
353.0205, 2.412476
353.5027, 2.409454
353.9848, 2.3071000E-02
354.4669, 2.468018
354.9490, 3.337921
355.4311, 4.111694
355.9132, 5.822876
356.3954, 8.503235
356.8775, 12.75711
357.3596, 24.19412
357.8417, 36.03741
358.3238, 39.74512
358.8059, 18.80441
359.2880, 8.8200001E-03
359.7701, 1.848053
360.2523, 23.27377
360.7344, 41.47107
361.2165, 47.35223
361.6986, 45.08701
362.1807, 38.39590
362.6628, 18.18488
363.1450, 3.819641
363.6271, 5.562897
364.1092, 20.67645
364.5913, 29.76532
365.0734, 22.60950
365.5555, 11.69656
366.0377, 4.740692
366.5198, 3.864746
367.0019, 5.488129
367.4840, 12.88846
367.9661, 23.70853
368.4482, 27.35883
368.9304, 15.90582
369.4125, 4.040344
369.8946, 1.661194
370.3767, 3.692871
370.8588, 6.596008
371.3409, 4.454437
371.8231, 0.2930300
372.3052, 1.664520
372.7873, 12.15076
373.2694, 20.90759
373.7515, 22.50735
374.2336, 14.15164
374.7158, 10.86942
375.1979, 15.32053
375.6800, 22.06573
376.1621, 20.98993
376.6442, 10.00610
377.1263, 0.1931760
377.6085, 4.896454
378.0906, 5.278687
378.5727, 3.156189
379.0548, 2.286163
379.5369, 7.753632
380.0190, 7.747681
380.5012, 2.468475
380.9833, 0.3623050
381.4654, 2.613464
381.9475, 9.632202
382.4296, 16.40381
382.9117, 22.97949
383.3939, 27.51321
383.8760, 26.79803
384.3581, 22.32578
384.8402, 18.70163
385.3223, 17.33603
385.8044, 16.90387
386.2866, 15.58081
386.7687, 13.60159
387.2508, 12.58344
387.7329, 15.82495
388.2150, 20.14658
388.6971, 20.91003
389.1793, 14.65509
389.6614, 7.672272
390.1435, 5.897095
390.6256, 7.674500
391.1077, 9.299713
391.5898, 10.00952
392.0720, 9.207916
392.5541, 5.519440
393.0362, 3.808655
393.5183, 9.658203
394.0004, 5.137115
394.4825, 4.884735
394.9647, 11.49271
395.4468, 9.454651
395.9289, 5.871429
396.4110, 2.733368
396.8931, 0.7407840
397.3752, 0.2723690
397.8574, 8.172699
398.3395, 19.65387
398.8216, 28.24304
399.3037, 36.58188
399.7858, 38.79501
400.2679, 31.19525
400.7501, 12.73901
401.2322, 0.2886350
401.7143, 4.178650
402.1964, 4.467133
402.6785, 3.983734
403.1606, 4.024292
403.6428, 0.3665470
404.1249, 12.17172
404.6070, 29.17175
405.0891, 39.25571
405.5712, 41.87607
406.0533, 38.94409
406.5355, 28.30673
407.0176, 9.006989
407.4997, 0.1283260
407.9818, 5.521301
408.4639, 18.47321
408.9460, 22.20074
409.4282, 16.66730
409.9103, 11.88315
410.3924, 15.23560
410.8745, 23.89377
411.3566, 28.47827
411.8387, 28.00354
412.3209, 26.08331
412.8030, 27.64108
413.2851, 31.33914
413.7672, 33.24985
414.2493, 28.96945
414.7314, 23.21298
415.2136, 21.96509
415.6957, 25.44730
416.1778, 29.68134
416.6599, 32.40390
417.1420, 33.88989
417.6241, 34.72784
418.1063, 31.99109
418.5884, 31.23450
419.0705, 39.00024
419.5526, 53.21677
420.0347, 60.62381
420.5168, 48.04999
420.9990, 31.62784
421.4811, 22.76227
421.9632, 28.34955
422.4453, 34.59097
422.9274, 41.67896
423.4095, 48.00293
423.8917, 49.05460
424.3738, 34.59689
424.8559, 23.70758
425.3380, 24.22031
425.8201, 42.90308
426.3022, 54.81799
426.7844, 57.59766
427.2665, 55.10101
427.7486, 52.38321
428.2307, 49.25101
428.7128, 47.18192
429.1949, 47.61813
429.6771, 50.39423
430.1592, 47.06366
430.6413, 34.63126
431.1234, 23.70200
431.6055, 27.47186
432.0876, 46.42624
432.5698, 62.02579
433.0519, 70.29953
433.5340, 72.87479
434.0161, 72.93283
434.4982, 70.53751
434.9803, 67.86084
435.4625, 66.18265
435.9446, 65.43521
436.4267, 64.57730
436.9088, 62.91663
437.3909, 62.64822
437.8730, 62.96600
438.3552, 59.85760
438.8373, 68.85074
439.3194, 74.12305
439.8015, 75.85794
440.2836, 63.45593
440.7657, 69.31241
441.2478, 67.85382
441.7299, 66.09671
442.2121, 74.52737
442.6942, 64.18954
443.1763, 77.33502
443.6584, 85.37967
444.1405, 93.43332
444.6227, 100.9989
445.1048, 102.4301
445.5869, 89.81796
446.0690, 75.35745
446.5511, 66.24103
447.0332, 66.88699
447.5154, 67.83255
447.9975, 68.92609
448.4796, 70.26993
448.9617, 72.12503
449.4438, 74.34979
449.9259, 77.30371
450.4081, 82.17358
450.8902, 90.11603
451.3723, 91.01923
451.8544, 82.55695
452.3365, 72.08621
452.8186, 69.97101
453.3008, 77.05695
453.7829, 84.92938
454.2650, 92.17276
454.7471, 97.99252
455.2292, 97.16772
455.7113, 89.24396
456.1935, 82.44128
456.6756, 86.18335
457.1577, 96.62469
457.6398, 103.3645
458.1219, 103.9737
458.6040, 100.4605
459.0862, 92.27020
459.5683, 81.32498
460.0504, 73.35718
460.5325, 67.39407
461.0146, 75.48941
461.4967, 79.95062
461.9789, 80.93073
462.4610, 68.04166
462.9431, 73.08722
463.4252, 70.81772
463.9073, 68.24985
464.3894, 75.86969
464.8716, 64.72092
465.3537, 72.18021
465.8358, 72.21506
466.3179, 75.65121
466.8000, 71.72726
467.2821, 70.07855
467.7643, 75.79559
468.2464, 77.60510
468.7285, 66.68637
469.2106, 73.44382
469.6927, 84.60672
470.1748, 87.15836
470.6570, 77.54599
471.1391, 68.09067
471.6212, 63.53152
472.1033, 63.97516
472.5854, 68.26880
473.0675, 78.00308
473.5497, 86.99796
474.0318, 85.55469
474.5139, 74.67920
474.9960, 66.35638
475.4781, 64.02316
475.9602, 66.64938
476.4424, 76.02188
476.9245, 91.15292
477.4066, 100.5199
477.8887, 89.22842
478.3708, 68.63583
478.8529, 56.71561
479.3351, 59.83002
479.8172, 64.71933
480.2993, 59.14569
480.7814, 47.99854
481.2635, 41.55472
481.7456, 49.46255
482.2278, 58.64621
482.7099, 61.96646
483.1920, 58.21875
483.6741, 54.57291
484.1562, 52.63834
484.6383, 51.64639
485.1205, 50.91309
485.6026, 53.06210
486.0847, 52.08743
486.5668, 45.08847
487.0489, 34.06400
487.5310, 28.38763
488.0132, 29.57999
488.4953, 33.71307
488.9774, 39.83038
489.4595, 48.80713
489.9416, 54.99423
490.4237, 58.49307
490.9059, 58.99811
491.3880, 55.19742
491.8701, 47.15530
492.3522, 38.71997
492.8343, 30.90164
493.3164, 23.86795
493.7986, 16.89764
494.2807, 10.08267
494.7628, 6.829742
495.2449, 12.66803
495.7270, 23.46957
496.2091, 31.97501
496.6913, 36.64651
497.1734, 39.07819
497.6555, 40.26700
498.1376, 40.19086
498.6197, 38.84628
499.1018, 36.51096
499.5840, 32.65106
500.0661, 25.04919
500.5482, 12.48193
501.0303, 5.679077
501.5124, 14.02875
501.9945, 25.66248
502.4767, 29.91235
502.9588, 17.33978
503.4409, 8.207886
503.9230, 5.373718
504.4051, 7.472382
504.8872, 8.928192
505.3694, 9.694550
505.8515, 9.960449
506.3336, 9.800507
506.8157, 9.210236
507.2978, 7.741180
507.7799, 4.487915
508.2621, 2.487823
508.7442, 9.101715
509.2263, 23.04892
509.7084, 29.03394
510.1905, 16.00070
510.6726, 4.124908
511.1548, 5.374573
511.6369, 10.71509
512.1190, 26.90173
512.6011, 30.01495
513.0832, 26.52383
513.5653, 24.93958
514.0474, 27.89490
514.5295, 29.49203
515.0117, 24.89185
515.4938, 16.62015
515.9759, 9.355865
516.4580, 0.4951480
516.9401, 4.254486
517.4222, 2.333771
517.9044, 21.12741
518.3865, 30.23538
518.8686, 15.36462
519.3507, 1.451324
519.8328, 6.562927
520.3149, 7.617157
520.7971, 18.87888
521.2792, 26.80313
521.7613, 30.99799
522.2434, 28.93466
522.7255, 18.47592
523.2076, 10.86304
523.6898, 13.46103
524.1719, 23.96237
524.6540, 23.58789
525.1361, 11.23492
525.6182, 3.270844
526.1003, 11.32300
526.5825, 13.95560
527.0646, 12.87277
527.5467, 7.146149
528.0288, 0.3000180
528.5109, 4.518280
528.9930, 7.509705
529.4752, 10.22592
529.9573, 11.17819
530.4394, 9.976807
530.9215, 8.232666
531.4036, 5.732239
531.8857, 4.724854
532.3679, 8.206421
532.8500, 12.40521
533.3321, 13.83954
533.8142, 8.856628
534.2963, 4.897705
534.7784, 1.824677
535.2606, 0.2121280
535.7427, 2.796631
536.2248, 13.36993
536.7069, 21.36942
537.1890, 20.21252
537.6711, 8.306274
538.1533, 2.826630
538.6354, 4.986237
539.1175, 9.882416
539.5996, 12.29596
540.0817, 12.46066
540.5638, 11.37372
541.0460, 7.853027
541.5281, 5.069305
542.0102, 10.19135
542.4923, 21.43942
542.9744, 30.51086
543.4565, 31.05219
543.9387, 27.82065
544.4208, 24.85800
544.9029, 22.46341
545.3850, 21.31329
545.8671, 23.00482
546.3492, 25.57962
546.8314, 26.91327
547.3135, 24.72342
547.7956, 23.22736
548.2777, 24.73557
548.7598, 27.96457
549.2419, 27.19913
549.7241, 19.31903
550.2062, 11.65613
550.6883, 6.304565
551.1704, 2.686554
551.6525, 6.828613
552.1346, 22.03409
552.6168, 37.87494
553.0989, 40.33951
553.5810, 30.02740
554.0631, 21.97513
554.5452, 19.81503
555.0273, 21.67145
555.5095, 25.87335
555.9916, 31.77811
556.4737, 35.76300
556.9558, 34.59674
557.4379, 30.85867
557.9200, 27.47668
558.4022, 24.84613
558.8843, 21.38022
559.3664, 11.28204
559.8485, 1.988617
560.3306, 1.134888
560.8127, 23.88095
561.2949, 40.38373
561.7770, 40.74088
562.2591, 29.32172
562.7412, 22.97839
563.2233, 23.90506
563.7054, 27.36661
564.1876, 33.59280
564.6697, 43.86792
565.1518, 42.61569
565.6339, 25.22168
566.1160, 7.045593
566.5981, 6.311859
567.0803, 22.07062
567.5624, 32.54404
568.0445, 32.46188
568.5266, 27.22412
569.0087, 24.45853
569.4908, 24.38010
569.9730, 26.64749
570.4551, 35.31308
570.9372, 43.76859
571.4193, 45.33157
571.9014, 39.70175
572.3835, 30.80484
572.8657, 13.40903
573.3478, 2.360138
573.8299, 7.476624
574.3120, 7.189270
574.7941, 21.89496
575.2762, 37.31403
575.7584, 50.61484
576.2405, 55.94376
576.7226, 49.23801
577.2047, 41.07272
577.6868, 33.43579
578.1689, 26.98505
578.6511, 22.10538
579.1332, 18.34860
579.6153, 17.81287
580.0974, 25.13425
580.5795, 38.56598
581.0616, 44.95010
581.5438, 42.18939
582.0259, 34.39410
582.5080, 21.56177
582.9901, 7.437592
583.4722, 1.120758
583.9543, 15.45541
584.4365, 31.75211
584.9186, 36.78766
585.4007, 31.83096
585.8828, 22.54620
586.3649, 6.9182999E-02
586.8470, 18.32294
587.3292, 20.62958
587.8113, 2.051788
588.2934, 20.35663
588.7755, 33.80743
589.2576, 41.84988
589.7397, 42.96671
590.2219, 34.19946
590.7040, 26.48111
591.1861, 21.40054
591.6682, 18.63397
592.1503, 18.62064
592.6324, 21.67935
593.1146, 21.89526
593.5967, 10.89722
594.0788, 4.863770
594.5609, 5.537384
595.0430, 9.641113
595.5251, 27.27869
596.0073, 39.09491
596.4894, 45.56866
596.9715, 47.09702
597.4536, 41.52228
597.9357, 34.97369
598.4178, 29.81503
598.9000, 25.71768
599.3821, 21.93085
599.8642, 16.62695
600.3463, 13.40857
600.8284, 13.21445
601.3105, 16.01752
601.7927, 20.97006
602.2748, 29.60391
602.7569, 37.75183
603.2390, 43.53949
603.7211, 47.26343
604.2032, 44.37326
604.6854, 33.12399
605.1675, 20.00247
605.6496, 12.89801
606.1317, 11.30792
606.6138, 13.48764
607.0959, 21.16965
607.5781, 29.75119
608.0602, 34.55325
608.5423, 35.78238
609.0244, 34.17517
609.5065, 24.99384
609.9886, 17.10056
610.4708, 17.65973
610.9529, 28.84445
611.4350, 36.57501
611.9171, 37.36319
612.3992, 34.08466
612.8813, 28.39825
613.3635, 14.93045
613.8456, 10.34592
614.3277, 19.28564
614.8098, 34.13770
615.2919, 38.60980
615.7740, 31.45990
616.2562, 26.56607
616.7383, 30.56366
617.2204, 39.66940
617.7025, 43.78793
618.1846, 43.16641
618.6667, 39.87503
619.1489, 32.97665
619.6310, 25.15277
620.1131, 19.73221
620.5952, 17.26160
621.0773, 16.13147
621.5594, 16.35193
622.0416, 17.08276
622.5237, 17.42654
623.0058, 13.79160
623.4879, 13.88998
623.9700, 21.10947
624.4521, 32.53491
624.9343, 41.09088
625.4164, 46.95972
625.8985, 49.43387
626.3806, 47.27640
626.8627, 41.20978
627.3448, 38.70670
627.8270, 40.11612
628.3091, 42.32004
628.7912, 41.68207
629.2733, 39.68326
629.7554, 41.69214
630.2375, 49.63321
630.7197, 56.98401
631.2018, 57.34940
631.6839, 52.97849
632.1660, 48.23157
632.6481, 41.24863
633.1302, 36.11963
633.6124, 35.46823
634.0945, 38.09210
634.5766, 39.45383
635.0587, 41.26294
635.5408, 39.10162
636.0229, 29.27512
636.5051, 10.79184
636.9872, 2.460022
637.4693, 6.360687
637.9514, 14.26019
638.4335, 19.94687
638.9156, 23.64706
639.3978, 27.22375
639.8799, 30.94855
640.3620, 34.25580
640.8441, 35.55014
641.3262, 35.86340
641.8083, 38.02328
642.2905, 46.99268
642.7726, 53.88446
643.2547, 51.86136
643.7368, 42.86414
644.2189, 33.30075
644.7010, 22.49155
645.1832, 13.12195
645.6653, 7.380524
646.1474, 3.881470
646.6295, 3.264618
647.1116, 5.908813
647.5937, 10.76407
648.0758, 18.86618
648.5579, 31.28326
649.0400, 33.69324
649.5222, 22.22757
650.0043, 9.060211
650.4864, 14.34442
650.9685, 32.73117
651.4506, 44.97668
651.9327, 41.46176
652.4149, 32.35913
652.8970, 26.67026
653.3791, 23.12390
653.8612, 19.03790
654.3433, 7.206268
654.8254, 4.4983000E-02
655.3076, 6.730042
655.7897, 29.57278
656.2718, 44.27826
656.7539, 47.58453
657.2360, 45.13486
657.7181, 39.14957
658.2003, 28.18253
658.6824, 19.78574
659.1645, 13.49619
659.6466, 11.14801
660.1287, 18.87305
660.6108, 34.21298
661.0930, 41.86929
661.5751, 33.39417
662.0572, 22.69907
662.5393, 31.53613
663.0214, 52.31186
663.5035, 64.42505
663.9857, 49.20786
664.4678, 30.37988
664.9499, 19.98273
665.4320, 18.29135
665.9141, 18.02014
666.3962, 20.40353
666.8784, 21.77444
667.3605, 19.70023
667.8426, 12.33578
668.3247, 10.35312
668.8068, 15.57919
669.2889, 22.10059
669.7711, 22.65652
670.2532, 17.98996
670.7353, 16.32388
671.2174, 20.56628
671.6995, 24.79251
672.1816, 19.02805
672.6638, 7.392303
673.1459, 0.2148130
673.6280, 1.5503000E-02
674.1101, 5.786407
674.5922, 21.88278
675.0743, 44.73199
675.5565, 56.36563
676.0386, 39.87570
676.5207, 24.05017
677.0028, 20.67917
677.4849, 31.67917
677.9670, 35.95660
678.4492, 31.52319
678.9313, 24.70605
679.4134, 19.70599
679.8955, 16.58759
680.3776, 17.35120
680.8597, 23.37402
681.3419, 28.06534
681.8240, 18.31015
682.3061, 2.309204
682.7882, 2.727081
683.2703, 19.86896
683.7524, 40.18326
684.2346, 38.32346
684.7167, 21.67206
685.1988, 7.234589
685.6809, 2.528320
686.1630, 7.575165
686.6451, 7.464264
687.1273, 2.522400
687.6094, 5.647278
688.0915, 19.66760
688.5736, 30.01517
689.0557, 28.86978
689.5378, 17.67520
690.0200, 13.32104
690.5021, 16.40790
690.9842, 21.28485
691.4663, 23.50546
691.9484, 23.81815
692.4305, 23.18274
692.9127, 21.36749
693.3948, 20.07059
693.8769, 21.91733
694.3590, 23.95181
694.8411, 22.35895
695.3232, 10.67691
695.8054, 2.436920
696.2875, 0.6508480
696.7696, 3.082336
697.2517, 3.498688
697.7338, 0.7800600
698.2159, 0.2153320
698.6981, 5.079437
699.1802, 13.09787
699.6623, 15.40689
700.1444, 12.31253
700.6265, 9.182556
701.1086, 11.44467
701.5908, 14.83429
702.0729, 13.22046
702.5550, 5.898254
703.0371, 0.6199040
703.5192, 3.360504
704.0013, 3.917084
704.4835, 3.548889
704.9656, 3.104492
705.4477, 1.309265
705.9298, 12.38593
706.4119, 24.25293
706.8940, 29.04214
707.3762, 25.75098
707.8583, 22.21741
708.3404, 20.03763
708.8225, 17.97095
709.3046, 12.53989
709.7867, 4.915741
710.2689, 0.5842290
710.7510, 1.672852
711.2331, 3.1000000E-05
711.7152, 5.093689
712.1973, 12.34512
712.6794, 16.32437
713.1616, 10.42709
713.6437, 4.865784
714.1258, 4.981018
714.6079, 11.19370
715.0900, 8.201599
715.5721, 16.94281
716.0543, 21.94376
716.5364, 23.40521
717.0185, 10.72772
717.5006, 16.30679
717.9827, 14.56894
718.4648, 12.53119
718.9470, 20.67947
719.4291, 10.05719
719.9112, 18.04324
720.3933, 18.60153
720.8754, 22.56024
721.3575, 19.43738
721.8397, 18.93640
722.3218, 25.17630
722.8039, 27.33255
723.2860, 23.08038
723.7681, 27.25296
724.2502, 16.37170
724.7324, 18.69940
725.2145, 26.73129
725.6966, 22.84662
726.1787, 27.15106
726.6608, 28.33585
727.1429, 15.34494
727.6251, 27.00552
728.1072, 28.00421
728.5893, 21.00845
729.0714, 20.01718
729.5535, 25.16431
730.0356, 36.85657
730.5178, 43.96613
730.9999, 36.40027
731.4820, 27.14307
731.9641, 25.87042
732.4462, 38.63123
732.9283, 40.85565
733.4105, 27.22989
733.8926, 11.27200
734.3747, 8.164490
734.8568, 17.55243
735.3389, 22.32529
735.8210, 19.34433
736.3032, 13.92514
736.7853, 12.00735
737.2674, 12.73590
737.7495, 14.51599
738.2316, 18.06653
738.7137, 20.86386
739.1959, 21.12119
739.6780, 19.74097
740.1601, 18.58731
740.6422, 18.17038
741.1243, 17.88727
741.6064, 17.08740
742.0886, 16.14963
742.5707, 16.85526
743.0528, 19.34406
743.5349, 22.52817
744.0170, 27.57187
744.4991, 32.73959
744.9813, 31.30591
745.4634, 23.76022
745.9455, 16.58401
746.4276, 13.37210
746.9097, 13.14816
747.3918, 16.13821
747.8740, 22.97687
748.3561, 27.97723
748.8382, 31.50940
749.3203, 31.29279
749.8024, 24.96796
750.2845, 8.213562
750.7667, 0.6514590
751.2488, 0.2133180
751.7309, 4.710602
752.2130, 5.822235
752.6951, 4.514221
753.1772, 5.752838
753.6594, 10.96362
754.1415, 17.24878
754.6236, 23.41077
755.1057, 28.34723
755.5878, 30.49945
756.0699, 26.86642
756.5521, 23.11856
757.0342, 20.05649
757.5163, 18.07819
757.9984, 18.17108
758.4805, 21.36472
758.9626, 24.64883
759.4448, 28.10767
759.9269, 30.72916
760.4090, 29.24539
760.8911, 23.73499
761.3732, 15.63779
761.8553, 1.025818
762.3375, 12.55154
762.8196, 13.08368
763.3017, 2.280243
763.7838, 6.720795
764.2659, 4.358215
764.7480, 1.520447
765.2302, 5.057434
765.7123, 16.43027
766.1944, 24.35437
766.6765, 28.58008
767.1586, 29.52255
767.6407, 25.57153
768.1229, 16.71777
768.6050, 14.49326
769.0871, 19.95212
769.5692, 25.65799
770.0513, 22.55237
770.5334, 15.74661
771.0156, 14.20459
771.4977, 20.60867
771.9798, 26.25073
772.4619, 23.86871
772.9440, 19.93701
773.4261, 21.23572
773.9083, 37.06140
774.3904, 44.16702
774.8725, 38.86456
775.3546, 28.21939
775.8367, 21.33002
776.3188, 18.01556
776.8010, 16.73825
777.2831, 18.36200
777.7652, 19.44485
778.2473, 10.61453
778.7294, 2.790497
779.2115, 8.346008
779.6937, 8.819885
780.1758, 25.18750
780.6579, 29.76740
781.1400, 25.47183
781.6221, 20.51804
782.1042, 12.32745
782.5864, 8.898376
783.0685, 13.79584
783.5506, 24.27335
784.0327, 30.81140
784.5148, 33.38828
784.9969, 32.68533
785.4791, 26.83328
785.9612, 18.97922
786.4433, 13.89917
786.9254, 11.46671
787.4075, 11.40259
787.8896, 15.35336
788.3718, 20.12024
788.8539, 24.78494
789.3360, 29.41846
789.8181, 29.92502
790.3002, 23.45358
790.7823, 17.32382
791.2645, 15.27866
791.7466, 17.26035
792.2287, 21.58139
792.7108, 28.43958
793.1929, 34.59100
793.6750, 36.98239
794.1572, 36.99002
794.6393, 37.38989
795.1214, 38.88483
795.6035, 36.55618
796.0856, 21.40601
796.5677, 5.701477
797.0499, 0.3236080
797.5320, 11.90155
798.0141, 17.92123
798.4962, 16.16550
798.9783, 12.37381
799.4604, 12.12619
799.9426, 15.26868
800.4247, 19.86935
800.9068, 26.09698
801.3889, 31.78839
801.8710, 35.69730
802.3531, 37.24582
802.8353, 35.19592
803.3174, 26.71802
803.7995, 19.25638
804.2816, 16.32089
804.7637, 15.32458
805.2458, 12.00427
805.7280, 3.155640
806.2101, 0.9249570
806.6922, 9.554993
807.1743, 21.12405
807.6564, 19.55121
808.1385, 7.280609
808.6207, 1.163666
809.1028, 1.8524000E-02
809.5849, 5.448822
810.0670, 13.22867
810.5491, 20.94766
811.0313, 24.05798
811.5133, 13.46106
811.9954, 6.976166
812.4775, 13.43597
812.9597, 26.42010
813.4418, 27.85178
813.9239, 14.14227
814.4060, 3.673523
814.8881, 2.012207
815.3702, 6.749634
815.8524, 16.04813
816.3345, 28.10474
816.8166, 34.17953
817.2987, 21.93036
817.7808, 9.429993
818.2629, 11.81287
818.7451, 25.58521
819.2272, 34.17355
819.7093, 32.12534
820.1914, 25.68179
820.6735, 15.59152
821.1556, 3.827209
821.6378, 1.218048
822.1199, 0.7686460
822.6020, 3.370117
823.0841, 2.000916
823.5662, 0.5213320
824.0483, 1.820404
824.5305, 8.242920
825.0126, 14.14166
825.4947, 18.62418
825.9768, 20.44394
826.4589, 17.60529
826.9410, 10.15295
827.4232, 4.920074
827.9053, 1.652588
828.3874, 2.045837
828.8695, 9.051758
829.3516, 21.07440
829.8337, 25.44904
830.3159, 22.23471
830.7980, 17.41672
831.2801, 15.51382
831.7622, 14.22580
832.2443, 10.15158
832.7264, 3.466827
833.2086, 1.290588
833.6907, 0.2615970
834.1728, 2.382996
834.6549, 1.722717
835.1370, 2.418976
835.6191, 3.649414
836.1013, 1.584076
836.5834, 1.647400
837.0655, 5.564941
837.5476, 10.44327
838.0297, 13.63651
838.5118, 15.06085
838.9940, 16.68274
839.4761, 22.32324
839.9582, 27.00760
840.4403, 25.32648
840.9224, 14.05075
841.4045, 9.421906
841.8867, 17.11728
842.3688, 25.25134
842.8509, 24.81302
843.3330, 15.38367
843.8151, 12.84961
844.2972, 17.94318
844.7794, 23.64270
845.2615, 23.41455
845.7436, 12.81778
846.2257, 20.83997
846.7078, 25.12335
847.1899, 25.86993
847.6721, 12.47913
848.1542, 17.34473
848.6363, 14.89310
849.1184, 12.14081
849.6005, 19.57404
850.0826, 8.236542
850.5648, 15.50684
851.0469, 15.34845
851.5290, 18.58911
852.0111, 14.46744
852.4932, 12.61896
852.9753, 18.13388
853.4575, 19.57050
853.9396, 14.60974
854.4217, 18.51566
854.9038, 7.378601
855.3859, 10.13513
855.8680, 13.51239
856.3502, 17.73694
856.8323, 19.76782
857.3144, 19.54825
857.7965, 21.80490
858.2786, 27.29459
858.7607, 30.55728
859.2429, 22.71310
859.7250, 11.13705
860.2071, 6.817047
860.6892, 13.04416
861.1713, 17.82849
861.6534, 14.65262
862.1356, 9.851898
862.6177, 8.067139
863.0998, 9.790100
863.5819, 13.25476
864.0640, 19.53787
864.5461, 24.17422
865.0283, 19.75204
865.5104, 10.57883
865.9925, 10.64117
866.4746, 22.21179
866.9567, 30.55661
867.4388, 22.19000
867.9210, 8.672821
868.4031, 1.051941
868.8852, 6.722076
869.3673, 4.294373
869.8494, 11.31314
870.3315, 26.64383
870.8137, 28.54758
871.2958, 18.73676
871.7779, 16.68359
872.2600, 23.69315
872.7421, 32.45700
873.2242, 41.10715
873.7064, 45.62964
874.1885, 39.44519
874.6706, 18.79443
875.1527, 3.967407
875.6348, 2.811554
876.1169, 6.246521
876.5991, 10.43610
877.0812, 15.80106
877.5633, 17.62103
878.0454, 15.59967
878.5275, 12.06824
879.0096, 7.662109
879.4918, 3.466919
879.9739, 1.120850
880.4560, 0.6719060
880.9381, 3.499664
881.4202, 14.29727
881.9023, 25.34650
882.3845, 32.57648
882.8666, 36.37808
883.3487, 30.82233
883.8308, 11.53644
884.3129, 3.694214
884.7950, 2.389221
885.2772, 21.67331
885.7593, 28.02246
886.2414, 21.48343
886.7235, 15.74173
887.2056, 21.80276
887.6877, 30.15109
888.1699, 35.45822
888.6520, 37.17493
889.1341, 32.45026
889.6162, 16.13589
890.0983, 3.798737
890.5804, 5.570313
891.0626, 10.78003
891.5447, 12.53510
892.0268, 0.1705930
892.5089, 6.056335
892.9910, 4.453979
893.4731, 2.473602
893.9553, 10.80844
894.4374, 0.4933170
894.9195, 8.808746
895.4016, 9.705475
895.8837, 14.00244
896.3658, 10.94406
896.8480, 10.15082
897.3301, 16.72095
897.8122, 19.21283
898.2943, 15.29648
898.7764, 19.80481
899.2585, 9.259125
899.7407, 11.92258
900.2228, 20.28571
900.7049, 16.73843
901.1870, 21.38040
901.6691, 22.90262
902.1512, 10.24911
902.6334, 22.24713
903.1155, 23.58313
903.5976, 19.65271
904.0797, 23.84735
904.5618, 29.90756
905.0439, 34.90097
905.5261, 34.34787
906.0082, 29.86789
906.4903, 24.74905
906.9724, 17.69507
907.4545, 13.12823
907.9366, 14.57565
908.4188, 19.02359
908.9009, 20.49490
909.3830, 18.26984
909.8651, 16.19824
910.3472, 15.56174
910.8293, 14.49008
911.3115, 5.760773
911.7936, 5.628082
912.2757, 6.639191
912.7578, 15.46899
913.2399, 34.81717
913.7220, 37.19931
914.2042, 30.21680
914.6863, 24.46292
915.1684, 20.00851
915.6505, 17.47296
916.1326, 16.80038
916.6147, 18.29626
917.0969, 24.43463
917.5790, 33.06848
918.0611, 37.43399
918.5432, 35.38202
919.0253, 32.33563
919.5074, 30.40497
919.9896, 29.91428
920.4717, 31.78226
920.9538, 39.10037
921.4359, 39.72989
921.9180, 30.52533
922.4001, 21.39764
922.8823, 23.94534
923.3644, 34.49417
923.8465, 38.77362
924.3286, 35.59891
924.8107, 30.82291
925.2928, 29.27914
925.7750, 27.40619
926.2571, 20.86511
926.7392, 7.315399
927.2213, 1.888184
927.7034, 8.185089
928.1855, 15.68201
928.6677, 17.49023
929.1498, 15.35382
929.6319, 20.56009
930.1140, 32.03439
930.5961, 39.15433
931.0782, 29.56387
931.5604, 17.60788
932.0425, 14.27353
932.5246, 19.08771
933.0067, 22.10156
933.4888, 21.11252
933.9709, 21.25443
934.4531, 24.82031
934.9352, 30.20917
935.4173, 32.14465
935.8994, 31.13687
936.3815, 30.51932
936.8636, 33.94864
937.3458, 36.67282
937.8279, 33.90417
938.3100, 28.31165
938.7921, 24.39359
939.2742, 22.50076
939.7563, 23.16211
940.2385, 28.24536
940.7206, 33.74142
941.2027, 30.75024
941.6848, 21.01190
942.1669, 13.40817
942.6490, 10.75092
943.1312, 11.42279
943.6133, 17.98553
944.0954, 25.61755
944.5775, 28.34415
945.0596, 22.56299
945.5417, 15.63205
946.0239, 6.227570
946.5060, 2.262939
946.9881, 6.742859
947.4702, 7.314880
947.9523, 3.400635
948.4344, 6.161011
948.9166, 14.17035
949.3987, 13.30441
949.8808, 10.06366
950.3629, 10.59561
950.8450, 16.69681
951.3271, 19.88379
951.8093, 19.69229
952.2914, 17.27704
952.7735, 11.76843
953.2556, 4.561340
953.7377, 2.855194
954.2198, 6.272827
954.7020, 11.46640
955.1841, 18.76459
955.6662, 25.01028
956.1483, 28.35181
956.6304, 28.63168
957.1125, 25.63181
957.5947, 16.56647
958.0768, 11.69003
958.5589, 15.40027
959.0410, 23.87994
959.5231, 29.73923
960.0052, 32.27448
960.4874, 28.51907
960.9695, 10.59488
961.4516, 4.977356
961.9337, 9.209106
962.4158, 5.113068
962.8979, 2.690125
963.3801, 17.99243
963.8622, 25.58667
964.3443, 22.13141
964.8264, 15.24371
965.3085, 15.46426
965.7906, 20.19333
966.2728, 22.23328
966.7549, 19.39883
967.2370, 18.35928
967.7191, 25.19611
968.2012, 33.56186
968.6833, 38.95340
969.1655, 41.90079
969.6476, 36.72266
970.1297, 21.47723
970.6118, 8.837769
971.0939, 10.68561
971.5760, 19.61981
972.0582, 19.52631
972.5403, 11.17194
973.0224, 6.667358
973.5045, 16.70816
973.9866, 26.70978
974.4688, 29.68893
974.9509, 27.09589
975.4330, 25.93393
975.9150, 26.54895
976.3972, 25.04849
976.8793, 17.78442
977.3614, 10.50046
977.8435, 13.91461
978.3256, 23.65173
978.8077, 29.84930
979.2899, 27.82742
979.7720, 23.26431
980.2541, 14.43445
980.7362, 5.773407
981.2183, 4.721527
981.7004, 11.52246
982.1826, 13.96378
982.6647, 9.707214
983.1468, 4.434662
983.6289, 2.926666
984.1110, 4.088501
984.5931, 7.274719
985.0753, 13.40021
985.5574, 17.15494
986.0395, 16.34213
986.5216, 15.40134
987.0037, 17.80768
987.4858, 22.95764
987.9680, 23.51834
988.4501, 19.80237
988.9322, 16.96686
989.4143, 20.55151
989.8964, 24.48730
990.3785, 22.50226
990.8607, 16.04770
991.3428, 15.80890
991.8249, 27.94788
992.3070, 33.59970
992.7891, 26.22800
993.2712, 11.55594
993.7534, 1.808167
994.2355, 12.11365
994.7176, 12.17203
995.1997, 8.550598
995.6818, 25.33957
996.1639, 18.09695
996.6461, 3.223663
997.1282, 2.726440
997.6103, 23.54379
998.0924, 35.40176
998.5745, 36.25577
999.0566, 31.51804
999.5388, 23.30225
1000.021, 14.59308
1000.503, 11.84558
1000.985, 15.92136
1001.467, 18.33401
1001.949, 12.53891
1002.431, 7.482819
1002.914, 7.804962
1003.396, 12.82117
1003.878, 16.07797
1004.360, 17.34882
1004.842, 17.30426
1005.324, 15.63596
1005.806, 14.27374
1006.288, 15.40927
1006.771, 17.98380
1007.253, 20.18106
1007.735, 21.72232
1008.217, 22.51013
1008.699, 22.47549
1009.181, 21.76810
1009.663, 19.98752
1010.145, 17.53384
1010.627, 17.17075
1011.110, 19.89685
1011.592, 21.90350
1012.074, 19.04224
1012.556, 14.92383
1013.038, 13.53568
1013.520, 16.55267
1014.002, 13.70724
1014.484, 2.457306
1014.966, 6.454376
1015.449, 4.657532
1015.931, 4.209686
1016.413, 14.13602
1016.895, 24.13315
1017.377, 29.57571
1017.859, 21.47766
1018.341, 16.14688
1018.823, 24.16370
1019.306, 37.42749
1019.788, 34.65161
1020.270, 15.33063
1020.752, 3.338715
1021.234, 5.284363
1021.716, 12.41718
1022.198, 17.32660
1022.680, 20.11749
1023.162, 20.54532
1023.645, 16.45590
1024.127, 15.12949
1024.609, 18.29483
1025.091, 22.24753
1025.573, 23.92212
1026.055, 23.78079
1026.537, 25.05371
1027.019, 27.66800
1027.502, 29.64587
1027.984, 29.09006
1028.466, 28.63821
1028.948, 30.11356
1029.430, 32.53879
1029.912, 28.23203
1030.394, 14.04459
1030.876, 5.181274
1031.359, 6.679657
1031.841, 13.78622
1032.323, 20.62442
1032.805, 26.96420
1033.287, 32.52646
1033.769, 37.56396
1034.251, 41.13486
1034.733, 42.27060
1035.215, 42.69424
1035.698, 44.33768
1036.180, 47.22147
1036.662, 46.51971
1037.144, 42.01248
1037.626, 36.70331
1038.108, 31.05252
1038.590, 27.10742
1039.072, 28.44040
1039.554, 34.40387
1040.037, 34.68848
1040.519, 25.55713
1041.001, 18.71338
1041.483, 17.78973
1041.965, 21.15738
1042.447, 28.70688
1042.929, 37.77365
1043.411, 40.53900
1043.894, 28.60825
1044.376, 20.55453
1044.858, 29.70673
1045.340, 41.72049
1045.822, 42.76697
1046.304, 31.66931
1046.786, 20.81784
1047.268, 10.35617
1047.750, 3.560059
1048.233, 5.508636
1048.715, 10.83530
1049.197, 14.88754
1049.679, 17.28915
1050.161, 17.05884
1050.643, 12.01166
1051.125, 8.766449
1051.607, 9.523468
1052.089, 12.07239
1052.572, 13.71286
1053.054, 15.20428
1053.536, 15.83835
1054.018, 14.86502
1054.500, 14.57638
1054.982, 16.28156
1055.464, 19.07794
1055.946, 22.64380
1056.429, 27.80801
1056.911, 27.32568
1057.393, 20.68701
1057.875, 15.52844
1058.357, 23.19925
1058.839, 32.58545
1059.321, 27.98697
1059.803, 11.02396
1060.285, 3.482269
1060.768, 16.49457
1061.250, 23.79144
1061.732, 16.15982
1062.214, 3.391388
1062.696, 9.856812
1063.178, 29.25522
1063.660, 38.41562
1064.142, 27.17029
1064.625, 14.43149
1065.107, 7.242645
1065.589, 4.704163
1066.071, 6.830597
1066.553, 15.09225
1067.035, 18.81403
1067.517, 17.54565
1067.999, 17.09662
1068.481, 24.19275
1068.964, 31.95447
1069.446, 31.48557
1069.928, 24.71515
1070.410, 21.55078
1070.892, 27.93649
1071.374, 28.96643
1071.856, 19.69498
1072.338, 7.679535
1072.820, 6.674011
1073.303, 13.56458
1073.785, 19.21616
1074.267, 21.46500
1074.749, 22.18207
1075.231, 22.84586
1075.713, 21.51096
1076.195, 15.58536
1076.677, 5.066071
1077.160, 3.332062
1077.642, 10.38403
1078.124, 16.78265
1078.606, 14.84525
1079.088, 11.35974
1079.570, 12.82001
1080.052, 17.34476
1080.534, 19.67676
1081.016, 18.10178
1081.499, 17.52667
1081.981, 18.76294
1082.463, 20.46301
1082.945, 21.43210
1083.427, 21.47989
1083.909, 20.60382
1084.391, 18.93256
1084.873, 14.48358
1085.355, 1.629547
1085.838, 11.40201
1086.320, 4.215942
1086.802, 15.44827
1087.284, 26.11606
1087.766, 28.32269
1088.248, 26.06415
1088.730, 17.22913
1089.212, 10.00870
1089.695, 10.81592
1090.177, 16.39380
1090.659, 22.73175
1091.141, 31.59540
1091.623, 32.89810
1092.105, 24.98831
1092.587, 16.72214
1093.069, 18.29486
1093.552, 23.04944
1094.034, 21.03259
1094.516, 12.64923
1094.998, 8.466583
1095.480, 12.77454
1095.962, 17.63177
1096.444, 22.14877
1096.926, 25.63257
1097.408, 25.05377
1097.891, 21.84964
1098.373, 21.04300
1098.855, 25.22275
1099.337, 27.86664
1099.819, 22.26776
1100.301, 17.07907
1100.783, 19.89096
1101.265, 31.02576
1101.747, 33.90054
1102.230, 28.66217
1102.712, 24.07681
1103.194, 27.54807
1103.676, 32.35291
1104.158, 33.34964
1104.640, 31.33340
1105.122, 28.49869
1105.604, 24.47736
1106.087, 21.68002
1106.569, 20.88104
1107.051, 19.78287
1107.533, 13.52887
1108.015, 6.117584
1108.497, 3.580719
1108.979, 6.678223
1109.461, 13.78854
1109.943, 29.92081
1110.426, 42.34454
1110.908, 46.90308
1111.390, 44.27640
1111.872, 32.41864
1112.354, 14.67874
1112.836, 3.331604
1113.318, 6.921265
1113.800, 10.32983
1114.282, 3.420319
1114.765, 4.102539
1115.247, 1.823517
1115.729, 11.52032
1116.211, 15.63394
1116.693, 10.25348
1117.175, 5.386871
1117.657, 12.29898
1118.139, 18.90878
1118.622, 11.23117
1119.104, 5.275940
1119.586, 8.460663
1120.068, 6.727753
1120.550, 18.75375
1121.032, 23.57315
1121.514, 24.36713
1121.996, 25.57492
1122.479, 24.75577
1122.961, 16.01498
1123.443, 3.517975
1123.925, 13.32391
1124.407, 7.478455
1124.889, 1.065063
1125.371, 7.898254
1125.853, 12.79300
1126.335, 14.09665
1126.818, 12.83365
1127.300, 12.04031
1127.782, 13.57907
1128.264, 14.63968
1128.746, 13.29935
1129.228, 12.14090
1129.710, 14.34964
1130.192, 19.55313
1130.674, 20.17880
1131.157, 16.24216
1131.639, 12.56665
1132.121, 12.56628
1132.603, 13.58505
1133.085, 14.21823
1133.567, 14.58136
1134.049, 15.39081
1134.531, 16.82309
1135.014, 16.36191
1135.496, 13.05811
1135.978, 10.39304
1136.460, 12.55643
1136.942, 16.56613
1137.424, 19.79514
1137.906, 21.98892
1138.388, 20.51453
1138.870, 13.89758
1139.353, 8.831146
1139.835, 8.646423
1140.317, 11.01971
1140.799, 13.77664
1141.281, 15.69806
1141.763, 14.07071
1142.245, 1.140991
1142.727, 1.494446
1143.209, 12.95963
1143.692, 27.07709
1144.174, 26.38092
1144.656, 15.37515
1145.138, 7.878418
1145.620, 3.962158
1146.102, 3.600555
1146.584, 11.90543
1147.066, 16.98505
1147.549, 12.78522
1148.031, 6.128723
1148.513, 9.792511
1148.995, 21.95572
1149.477, 32.28165
1149.959, 39.48779
1150.441, 40.92505
1150.923, 30.90271
1151.406, 18.06946
1151.888, 6.213196
1152.370, 3.712494
1152.852, 6.255157
1153.334, 1.489990
1153.816, 4.171997
1154.298, 9.301910
1154.780, 13.06036
1155.262, 13.80936
1155.745, 13.28540
1156.227, 13.53784
1156.709, 14.83203
1157.191, 16.20367
1157.673, 17.82779
1158.155, 18.17416
1158.637, 13.77884
1159.119, 9.545654
1159.601, 12.81226
1160.084, 20.48880
1160.566, 24.70859
1161.048, 21.45648
1161.530, 22.08322
1162.012, 28.76807
1162.494, 34.94836
1162.976, 33.27982
1163.458, 27.07233
1163.941, 17.87469
1164.423, 6.389221
1164.905, 2.409912
1165.387, 15.13940
1165.869, 24.90442
1166.351, 18.98819
1166.833, 27.39386
1167.315, 32.05951
1167.797, 33.18585
1168.280, 20.17337
1168.762, 25.41763
1169.244, 23.34509
1169.726, 20.97220
1170.208, 28.78638
1170.690, 17.83853
1171.172, 25.49475
1171.654, 25.71722
1172.136, 29.33713
1172.619, 25.35699
1173.101, 23.78616
1173.583, 29.68130
1174.065, 31.49857
1174.547, 26.90784
1175.029, 30.74210
1175.511, 22.29889
1175.993, 17.82880
1176.476, 10.69299
1176.958, 4.146210
1177.440, 1.123840
1177.922, 2.504303
1178.404, 2.988983
1178.886, 11.27924
1179.368, 17.28223
1179.850, 21.00848
1180.333, 18.78104
1180.815, 9.789520
1181.297, 2.434021
1181.779, 4.715210
1182.261, 10.15884
1182.743, 14.33441
1183.225, 16.65427
1183.707, 16.91013
1184.189, 14.78662
1184.672, 15.09647
1185.154, 19.77768
1185.636, 23.88507
1186.118, 20.84042
1186.600, 16.03165
1187.082, 15.03101
1187.564, 18.35291
1188.046, 22.90891
1188.528, 29.01160
1189.011, 34.11185
1189.493, 38.52261
1189.975, 39.14584
1190.457, 27.05362
1190.939, 10.92316
1191.421, 4.696594
1191.903, 15.90775
1192.385, 17.44040
1192.868, 6.649811
1193.350, 0.7449340
1193.832, 11.22668
1194.314, 29.17044
1194.796, 35.61642
1195.278, 33.36453
1195.760, 29.59479
1196.242, 24.59589
1196.724, 19.62689
1197.207, 13.48065
1197.689, 11.56189
1198.171, 26.56100
1198.653, 45.28540
1199.135, 45.31891
1199.617, 28.45251
1200.099, 17.85580
1200.581, 22.44763
1201.063, 22.36404
1201.546, 12.13992
1202.028, 1.4435000E-02
1202.510, 1.852081
1202.992, 2.273468
1203.474, 5.700226
1203.956, 7.495392
1204.438, 7.874542
1204.920, 3.610931
1205.403, 5.224243
1205.885, 19.51587
1206.367, 36.95407
1206.849, 36.49588
1207.331, 25.07068
1207.813, 15.83344
1208.295, 11.39838
1208.777, 11.05807
1209.260, 16.30991
1209.742, 22.09991
1210.224, 25.72012
1210.706, 26.93253
1211.188, 27.32526
1211.670, 26.53015
1212.152, 23.53577
1212.634, 13.85245
1213.116, 9.497711
1213.599, 14.29486
1214.081, 19.80377
1214.563, 17.80417
1215.045, 11.61118
1215.527, 11.61292
1216.009, 16.65164
1216.491, 21.60925
1216.973, 26.71985
1217.455, 27.30948
1217.938, 19.54431
1218.420, 12.49780
1218.902, 22.56952
1219.384, 40.70410
1219.866, 37.66882
1220.348, 14.16467
1220.830, 4.504852
1221.312, 7.746979
1221.795, 3.752197
1222.277, 8.330780
1222.759, 22.04486
1223.241, 26.40948
1223.723, 24.22995
1224.205, 21.40717
1224.687, 18.75638
1225.169, 17.56354
1225.651, 20.85550
1226.134, 22.35461
1226.616, 19.58154
1227.098, 14.59955
1227.580, 11.05130
1228.062, 9.168427
1228.544, 10.17331
1229.026, 15.16992
1229.508, 18.34195
1229.990, 17.38861
1230.473, 16.80728
1230.955, 18.41968
1231.437, 22.09338
1231.919, 31.07291
1232.401, 41.73810
1232.883, 43.66815
1233.365, 28.19479
1233.847, 15.99246
1234.329, 9.771423
1234.812, 9.736053
1235.294, 19.83585
1235.776, 35.00040
1236.258, 37.37158
1236.740, 30.72101
1237.222, 26.79968
1237.704, 35.15030
1238.186, 39.84082
1238.669, 38.31766
1239.151, 34.07724
1239.633, 29.37366
1240.115, 24.65436
1240.597, 20.90204
1241.079, 18.31314
1241.561, 17.33215
1242.043, 21.71652
1242.526, 22.01965
1243.008, 14.01938
1243.490, 6.557373
1243.972, 13.97247
1244.454, 28.05014
1244.936, 28.48260
1245.418, 16.06891
1245.900, 6.801483
1246.382, 7.360138
1246.865, 9.253815
1247.347, 10.50882
1247.829, 13.98889
1248.311, 29.29510
1248.793, 47.43381
1249.275, 49.16119
1249.757, 32.86142
1250.239, 21.24097
1250.721, 21.05835
1251.204, 18.21191
1251.686, 11.74936
1252.168, 5.599792
1252.650, 8.119965
1253.132, 14.07294
1253.614, 13.45145
1254.096, 3.629822
1254.578, 1.946106
1255.061, 12.83829
1255.543, 22.95505
1256.025, 28.07846
1256.507, 29.08926
1256.989, 22.13672
1257.471, 14.30838
1257.953, 18.20889
1258.435, 41.42615
1258.917, 50.05292
1259.400, 40.30847
1259.882, 30.04077
1260.364, 28.23486
1260.846, 28.81094
1261.328, 21.92279
1261.810, 12.75604
1262.292, 9.449036
1262.774, 14.72235
1263.256, 20.09766
1263.739, 25.81354
1264.221, 28.82709
1264.703, 25.71994
1265.185, 20.59662
1265.667, 18.39636
1266.149, 16.90283
1266.631, 11.32458
1267.113, 1.392395
1267.596, 4.785370
1268.078, 1.602539
1268.560, 11.88190
1269.042, 25.19519
1269.524, 36.59332
1270.006, 42.37778
1270.488, 43.12778
1270.970, 40.29718
1271.453, 33.19659
1271.935, 28.03000
1272.417, 25.21243
1272.899, 23.41837
1273.381, 22.74066
1273.863, 21.70996
1274.345, 11.40442
1274.827, 6.074768
1275.309, 9.075836
1275.792, 18.74988
1276.274, 20.80380
1276.756, 14.33496
1277.238, 7.734192
1277.720, 7.445923
1278.202, 7.246063
1278.684, 3.755890
1279.166, 0.1420290
1279.648, 4.677338
1280.131, 7.942017
1280.613, 0.0000000E+00
##END=



