##NAMES=Ushkovite
##RRUFFID=R060954
##IDEAL CHEMISTRY=MgFe^3+^_2_(P^5+^O_4_)_2_(OH)_2_&#183;8H_2_O
##LOCALITY=Linópolis, Minas Gerais, Brazil
##OWNER=RRUFF
##SOURCE=Bob Jenkins
##DESCRIPTION=Radial aggregate of pale brownish yellow bladed crystals, associated with radial aggregate of pale green atencioite, dark green rockbridgeite, and lefontite R140074
##STATUS=The identification of this mineral is confirmed by single-crystal X-ray diffraction and chemical analysis.
##URL=rruff.info/R060954
##MEASURED CHEMISTRY=Mg_1.03_Fe^3+^_2.08_(P_2.00_O_4_)_2_(OH)_2_·8H_2_O
229.5171, 0.0000000E+00
229.9992, 43.17188
230.4813, 0.2031250
230.9634, 2.359375
231.4455, 65.12109
231.9276, 100.5000
232.4098, 86.17969
232.8919, 50.57422
233.3740, 39.75781
233.8561, 74.57031
234.3382, 98.72656
234.8203, 88.49219
235.3025, 25.57422
235.7846, 3.191406
236.2667, 44.30859
236.7488, 113.8750
237.2309, 150.5703
237.7130, 140.8516
238.1952, 119.9336
238.6773, 95.41016
239.1594, 60.91016
239.6415, 47.69141
240.1236, 68.01172
240.6057, 104.4062
241.0879, 125.8320
241.5700, 125.8281
242.0521, 120.1367
242.5342, 107.8789
243.0163, 74.03125
243.4984, 82.83594
243.9806, 154.3125
244.4627, 256.7578
244.9448, 331.5977
245.4269, 368.0000
245.9090, 389.3594
246.3911, 401.3906
246.8732, 399.3164
247.3554, 396.8555
247.8375, 386.9297
248.3196, 377.1133
248.8017, 384.0820
249.2838, 413.3281
249.7659, 450.2422
250.2481, 498.9492
250.7302, 582.0898
251.2123, 607.0820
251.6944, 549.3320
252.1765, 450.3633
252.6586, 389.3164
253.1408, 384.1797
253.6229, 391.6875
254.1050, 399.4688
254.5871, 410.2773
255.0692, 413.8516
255.5513, 397.4062
256.0334, 382.4375
256.5156, 417.7578
256.9977, 537.4570
257.4798, 643.7461
257.9619, 688.2891
258.4440, 640.1523
258.9261, 648.6523
259.4083, 741.8750
259.8904, 870.3438
260.3725, 929.1094
260.8546, 874.3086
261.3367, 838.9453
261.8188, 884.5977
262.3010, 1042.648
262.7831, 1146.676
263.2652, 1186.965
263.7473, 1185.320
264.2294, 1191.699
264.7115, 1223.645
265.1937, 1224.301
265.6758, 1187.316
266.1579, 1111.559
266.6400, 1026.273
267.1221, 920.6562
267.6042, 818.5664
268.0864, 773.5391
268.5685, 813.4258
269.0506, 831.9453
269.5327, 780.0625
270.0148, 646.1250
270.4969, 545.3398
270.9791, 489.1953
271.4612, 453.0508
271.9433, 389.5547
272.4254, 284.8125
272.9075, 210.1602
273.3896, 202.0586
273.8718, 265.0195
274.3539, 317.0430
274.8360, 360.3828
275.3181, 390.1797
275.8002, 390.6797
276.2823, 353.1094
276.7645, 331.5234
277.2466, 353.1016
277.7287, 417.3555
278.2108, 459.5781
278.6929, 477.5469
279.1750, 477.3203
279.6572, 455.9492
280.1393, 408.2500
280.6214, 384.8281
281.1035, 414.6523
281.5856, 490.9336
282.0677, 539.7305
282.5499, 557.6211
283.0320, 557.4102
283.5141, 550.5195
283.9962, 536.9141
284.4783, 528.2070
284.9604, 537.9062
285.4425, 558.9258
285.9247, 539.7461
286.4068, 475.0273
286.8889, 401.1484
287.3710, 356.5312
287.8531, 342.2266
288.3352, 335.2461
288.8174, 332.9492
289.2995, 333.3359
289.7816, 326.8711
290.2637, 313.5547
290.7458, 289.9727
291.2279, 231.1484
291.7101, 147.4922
292.1922, 89.48047
292.6743, 80.66406
293.1564, 102.0586
293.6385, 115.7812
294.1206, 121.9453
294.6028, 115.3594
295.0849, 85.19141
295.5670, 38.58984
296.0491, 2.085938
296.5312, 29.45312
297.0133, 45.94531
297.4955, 50.05078
297.9776, 42.16797
298.4597, 37.81641
298.9418, 67.28125
299.4239, 108.7656
299.9060, 110.8906
300.3882, 47.75781
300.8703, 40.51953
301.3524, 89.70703
301.8345, 106.4414
302.3166, 139.5273
302.7987, 255.0352
303.2809, 398.9414
303.7630, 480.2617
304.2451, 447.2344
304.7272, 396.2109
305.2093, 452.6484
305.6914, 586.7305
306.1736, 679.5977
306.6557, 622.0234
307.1378, 502.0039
307.6199, 421.7188
308.1020, 404.4844
308.5841, 418.2617
309.0663, 463.2422
309.5484, 526.9492
310.0305, 568.3945
310.5126, 558.1211
310.9947, 523.3789
311.4768, 482.4492
311.9590, 433.6094
312.4411, 396.3477
312.9232, 398.3125
313.4053, 419.5859
313.8874, 422.0156
314.3695, 376.3984
314.8517, 317.3906
315.3337, 265.1445
315.8159, 222.2812
316.2980, 183.9297
316.7801, 134.0430
317.2622, 91.04297
317.7443, 80.13672
318.2264, 168.7109
318.7086, 241.8633
319.1907, 236.2539
319.6728, 139.3477
320.1549, 61.75000
320.6370, 39.51562
321.1191, 51.16016
321.6013, 74.60547
322.0834, 123.5508
322.5655, 162.8711
323.0476, 171.1602
323.5297, 146.4297
324.0118, 146.0469
324.4940, 205.6797
324.9761, 277.2617
325.4582, 323.9492
325.9403, 331.3750
326.4224, 323.9961
326.9045, 290.7461
327.3867, 234.9102
327.8688, 208.0664
328.3509, 238.8789
328.8330, 278.8477
329.3151, 302.3125
329.7972, 300.6562
330.2794, 294.9570
330.7615, 282.6680
331.2436, 267.2891
331.7257, 261.8711
332.2078, 271.7305
332.6899, 286.7188
333.1721, 305.7656
333.6542, 345.5117
334.1363, 352.5703
334.6184, 314.7266
335.1005, 250.4844
335.5826, 199.7852
336.0648, 160.5391
336.5469, 140.1289
337.0290, 146.0508
337.5111, 185.4766
337.9932, 211.6523
338.4753, 217.4492
338.9575, 215.7734
339.4396, 237.2930
339.9217, 294.4844
340.4038, 313.6680
340.8859, 243.9961
341.3680, 91.67969
341.8502, 36.82422
342.3323, 102.9297
342.8144, 200.5078
343.2965, 224.0312
343.7786, 174.3516
344.2607, 110.3086
344.7429, 34.40234
345.2250, 37.56641
345.7071, 32.37891
346.1892, 60.16406
346.6713, 147.8789
347.1534, 117.6719
347.6355, 0.7695310
348.1176, 53.13281
348.5998, 16.69922
349.0819, 146.7031
349.5640, 228.1758
350.0461, 263.4102
350.5282, 281.9219
351.0103, 308.2383
351.4925, 331.2305
351.9746, 324.7812
352.4567, 271.0625
352.9388, 213.3281
353.4209, 202.7266
353.9030, 230.0820
354.3852, 264.7305
354.8673, 319.1445
355.3494, 361.4023
355.8315, 345.3047
356.3136, 256.3359
356.7957, 164.7227
357.2779, 126.5312
357.7600, 125.9922
358.2421, 132.6133
358.7242, 144.9688
359.2063, 147.1523
359.6884, 122.7852
360.1706, 69.01953
360.6527, 22.74609
361.1348, 18.09375
361.6169, 36.11719
362.0990, 12.83203
362.5811, 131.6484
363.0633, 244.9258
363.5454, 255.4414
364.0275, 169.9336
364.5096, 93.76562
364.9917, 64.34766
365.4738, 46.58984
365.9560, 17.54297
366.4381, 61.30078
366.9202, 109.7852
367.4023, 102.9688
367.8844, 53.63281
368.3665, 13.22266
368.8487, 14.58984
369.3308, 35.87500
369.8129, 51.39062
370.2950, 53.54688
370.7771, 65.75391
371.2592, 92.50000
371.7414, 127.3555
372.2235, 159.9336
372.7056, 188.5781
373.1877, 215.4062
373.6698, 238.2266
374.1519, 254.3398
374.6341, 277.2539
375.1162, 308.8438
375.5983, 340.5859
376.0804, 368.5586
376.5625, 398.6133
377.0446, 392.2578
377.5267, 325.2500
378.0089, 211.9609
378.4910, 149.4883
378.9731, 147.2070
379.4552, 158.3984
379.9373, 141.0898
380.4194, 98.36328
380.9016, 71.23828
381.3837, 72.62109
381.8658, 88.97656
382.3479, 82.60938
382.8300, 56.60938
383.3121, 52.08594
383.7943, 123.0898
384.2764, 234.5820
384.7585, 287.2344
385.2406, 258.6758
385.7227, 211.8438
386.2048, 222.2344
386.6870, 272.5742
387.1691, 318.2422
387.6512, 324.8984
388.1333, 317.5234
388.6154, 323.3672
389.0975, 342.1953
389.5797, 367.6094
390.0618, 394.7500
390.5439, 425.1133
391.0260, 460.0977
391.5081, 527.4180
391.9902, 577.6250
392.4724, 584.5234
392.9545, 552.5273
393.4366, 501.5078
393.9187, 417.9062
394.4008, 335.5781
394.8829, 277.8750
395.3651, 261.2539
395.8472, 253.0742
396.3293, 240.8477
396.8114, 231.4844
397.2935, 240.1719
397.7756, 320.1758
398.2578, 372.1680
398.7399, 342.1914
399.2220, 169.1445
399.7041, 86.08594
400.1862, 158.4102
400.6683, 288.1562
401.1505, 362.9336
401.6326, 355.5352
402.1147, 337.1133
402.5968, 311.5195
403.0789, 280.1445
403.5610, 265.3867
404.0432, 277.8086
404.5253, 293.4180
405.0074, 292.0078
405.4895, 266.6953
405.9716, 256.3672
406.4537, 276.9922
406.9359, 311.5703
407.4180, 317.3125
407.9001, 289.8359
408.3822, 264.1680
408.8643, 256.4883
409.3464, 266.2422
409.8285, 296.5234
410.3106, 351.9062
410.7928, 409.6133
411.2749, 446.2773
411.7570, 462.5469
412.2391, 458.8906
412.7212, 418.1367
413.2033, 365.2070
413.6855, 341.9023
414.1676, 347.4219
414.6497, 373.3867
415.1318, 430.7266
415.6139, 498.9258
416.0960, 545.1758
416.5782, 556.0195
417.0603, 549.0508
417.5424, 528.8828
418.0245, 499.3047
418.5066, 473.1016
418.9887, 444.2461
419.4709, 427.8008
419.9530, 446.3203
420.4351, 519.5469
420.9172, 563.2344
421.3993, 523.8594
421.8814, 446.1758
422.3636, 389.8633
422.8457, 391.7266
423.3278, 395.2891
423.8099, 391.8359
424.2920, 380.2305
424.7741, 341.6328
425.2563, 238.4219
425.7384, 142.9141
426.2205, 102.1055
426.7026, 147.5430
427.1847, 189.0820
427.6668, 221.4023
428.1490, 244.8359
428.6311, 258.7500
429.1132, 255.5742
429.5953, 257.6055
430.0774, 286.0781
430.5595, 349.1602
431.0417, 338.0156
431.5238, 223.0781
432.0059, 94.47266
432.4880, 90.90234
432.9701, 213.6484
433.4522, 314.3320
433.9344, 350.3945
434.4165, 332.7461
434.8986, 279.1211
435.3807, 190.0977
435.8628, 112.1719
436.3449, 95.16016
436.8271, 118.3555
437.3092, 129.3164
437.7913, 114.5273
438.2734, 105.3047
438.7555, 148.0117
439.2376, 227.7734
439.7197, 291.6602
440.2018, 295.0781
440.6840, 279.4453
441.1661, 283.7930
441.6482, 313.1914
442.1303, 330.7148
442.6124, 305.5469
443.0945, 261.2188
443.5767, 225.2305
444.0588, 181.1992
444.5409, 165.5977
445.0230, 208.8789
445.5051, 297.3867
445.9872, 351.2422
446.4694, 336.7773
446.9515, 305.4141
447.4336, 279.6719
447.9157, 257.5898
448.3978, 249.5039
448.8799, 266.5898
449.3621, 292.5000
449.8442, 302.0039
450.3263, 293.7344
450.8084, 269.7148
451.2905, 216.9062
451.7726, 138.5625
452.2548, 119.4141
452.7369, 174.4062
453.2190, 245.5898
453.7011, 289.1133
454.1832, 304.2383
454.6653, 298.1875
455.1475, 264.6094
455.6296, 221.9180
456.1117, 231.1641
456.5938, 288.2383
457.0759, 322.1914
457.5580, 276.9180
458.0402, 185.3164
458.5223, 99.13281
459.0044, 18.77734
459.4865, 25.64844
459.9686, 28.26562
460.4507, 128.5938
460.9329, 192.1719
461.4150, 150.0703
461.8971, 100.5352
462.3792, 122.0312
462.8613, 194.7266
463.3434, 242.1836
463.8256, 201.4961
464.3077, 145.4492
464.7898, 118.7617
465.2719, 138.3086
465.7540, 159.6328
466.2361, 168.6133
466.7183, 175.9102
467.2004, 195.6445
467.6825, 241.5508
468.1646, 284.2070
468.6467, 317.0039
469.1288, 339.7773
469.6110, 366.6133
470.0930, 403.0352
470.5752, 433.0703
471.0573, 444.9844
471.5394, 433.6562
472.0215, 418.9844
472.5036, 399.3438
472.9857, 379.0742
473.4679, 372.1719
473.9500, 379.7109
474.4321, 375.3711
474.9142, 342.6406
475.3963, 290.9688
475.8784, 254.3594
476.3606, 234.8555
476.8427, 216.0898
477.3248, 183.6016
477.8069, 143.4570
478.2890, 108.1484
478.7711, 84.49609
479.2533, 65.46875
479.7354, 42.64062
480.2175, 21.29688
480.6996, 12.42578
481.1817, 19.22266
481.6638, 42.53906
482.1460, 89.01562
482.6281, 159.9414
483.1102, 222.7148
483.5923, 240.6992
484.0744, 252.5547
484.5565, 293.8320
485.0387, 413.7305
485.5208, 507.6289
486.0029, 563.1484
486.4850, 581.3164
486.9671, 563.5039
487.4492, 489.6211
487.9314, 407.6992
488.4135, 336.1211
488.8956, 277.8672
489.3777, 228.3516
489.8598, 192.6836
490.3419, 163.5117
490.8241, 132.1055
491.3062, 99.60547
491.7883, 70.21484
492.2704, 42.86719
492.7525, 22.83203
493.2346, 36.83203
493.7168, 81.34766
494.1989, 102.2812
494.6810, 13.64453
495.1631, 115.7617
495.6452, 126.8086
496.1273, 7.660156
496.6095, 154.2148
497.0916, 193.0430
497.5737, 160.6133
498.0558, 113.6836
498.5379, 60.02734
499.0201, 11.18359
499.5022, 18.21484
499.9843, 32.23438
500.4664, 49.07812
500.9485, 108.6172
501.4306, 154.1172
501.9127, 148.8047
502.3948, 65.69531
502.8770, 17.12500
503.3591, 101.9062
503.8412, 161.7461
504.3233, 185.1250
504.8054, 143.2461
505.2875, 112.7930
505.7697, 104.5547
506.2518, 116.4570
506.7339, 146.0273
507.2160, 202.0820
507.6981, 244.5898
508.1802, 235.8164
508.6624, 178.8906
509.1445, 166.6016
509.6266, 214.4258
510.1087, 269.1680
510.5908, 260.5195
511.0729, 199.9453
511.5551, 127.7891
512.0372, 31.22656
512.5193, 43.12500
513.0014, 3.121094
513.4835, 127.6562
513.9656, 231.9766
514.4478, 194.0000
514.9299, 125.1172
515.4120, 129.8789
515.8941, 242.5000
516.3762, 341.1992
516.8583, 352.8398
517.3405, 327.2539
517.8226, 328.2969
518.3047, 400.1211
518.7868, 458.0742
519.2689, 485.6602
519.7510, 485.3086
520.2332, 464.6602
520.7153, 383.8789
521.1974, 337.3633
521.6795, 386.6250
522.1616, 568.5469
522.6437, 656.8086
523.1259, 624.7148
523.6080, 550.0000
524.0901, 533.2148
524.5722, 575.8945
525.0543, 597.3906
525.5364, 571.1875
526.0186, 521.4180
526.5007, 510.2578
526.9828, 529.4883
527.4649, 520.1328
527.9470, 405.2617
528.4291, 256.3398
528.9113, 167.2070
529.3934, 147.3828
529.8755, 165.3320
530.3576, 244.4336
530.8397, 332.2734
531.3218, 369.8125
531.8040, 289.2852
532.2861, 211.8086
532.7682, 189.8125
533.2503, 203.6641
533.7324, 193.9688
534.2145, 106.3711
534.6967, 41.89453
535.1788, 49.86328
535.6609, 150.6602
536.1430, 176.4805
536.6251, 86.69531
537.1072, 23.30859
537.5894, 67.65625
538.0715, 36.44922
538.5536, 2.976563
539.0357, 48.40234
539.5178, 89.81641
539.9999, 95.93359
540.4821, 68.25000
540.9642, 58.78906
541.4463, 109.0391
541.9284, 187.6797
542.4105, 227.5469
542.8926, 229.4062
543.3748, 230.1719
543.8569, 262.8750
544.3390, 305.9922
544.8211, 330.2109
545.3032, 314.3750
545.7853, 317.7422
546.2675, 417.8125
546.7495, 546.3516
547.2316, 596.9531
547.7137, 450.6484
548.1959, 320.3203
548.6780, 282.2109
549.1601, 330.2734
549.6422, 325.7500
550.1243, 225.6953
550.6064, 126.8359
551.0886, 82.31250
551.5707, 107.8672
552.0528, 124.1406
552.5349, 125.2812
553.0170, 116.4531
553.4991, 128.6484
553.9813, 168.7266
554.4634, 172.4766
554.9455, 104.0234
555.4276, 10.14062
555.9097, 9.304688
556.3918, 31.81250
556.8740, 63.21094
557.3561, 13.51562
557.8382, 49.49219
558.3203, 27.58594
558.8024, 88.88281
559.2845, 158.1328
559.7667, 32.88281
560.2488, 131.6250
560.7309, 195.4766
561.2130, 39.23438
561.6951, 91.08594
562.1772, 134.3203
562.6594, 121.8750
563.1415, 124.5781
563.6236, 151.0312
564.1057, 177.9453
564.5878, 195.3438
565.0699, 203.3125
565.5521, 238.4531
566.0342, 315.7891
566.5163, 375.3594
566.9984, 355.3672
567.4805, 263.7969
567.9626, 223.5312
568.4448, 248.3125
568.9269, 306.0547
569.4090, 382.3203
569.8911, 460.6641
570.3732, 498.3906
570.8553, 469.9375
571.3375, 420.1953
571.8196, 381.6641
572.3017, 352.2188
572.7838, 325.4844
573.2659, 297.3594
573.7480, 271.8438
574.2302, 251.3984
574.7123, 236.5156
575.1944, 223.8672
575.6765, 212.7734
576.1586, 205.0000
576.6407, 204.7188
577.1229, 235.3359
577.6050, 227.9531
578.0871, 162.7422
578.5692, 73.11719
579.0513, 24.44531
579.5334, 20.97656
580.0156, 36.51562
580.4977, 70.05469
580.9798, 113.4609
581.4619, 146.9375
581.9440, 169.5156
582.4261, 167.9844
582.9083, 106.6953
583.3904, 22.28125
583.8725, 30.63281
584.3546, 46.14844
584.8367, 38.74219
585.3188, 18.12500
585.8010, 19.01562
586.2831, 77.23438
586.7652, 212.6016
587.2473, 305.4531
587.7294, 293.9453
588.2115, 216.5859
588.6937, 183.1016
589.1758, 239.6797
589.6579, 287.0000
590.1400, 298.2734
590.6221, 274.0625
591.1042, 233.7031
591.5864, 166.4922
592.0685, 114.4453
592.5506, 120.8203
593.0327, 181.3047
593.5148, 212.5625
593.9969, 202.8594
594.4791, 185.5469
594.9612, 197.9531
595.4433, 232.0781
595.9254, 269.6172
596.4075, 298.5391
596.8896, 334.7344
597.3718, 413.0234
597.8539, 511.1641
598.3360, 565.4531
598.8181, 507.7188
599.3002, 436.5547
599.7823, 401.6797
600.2645, 409.8047
600.7466, 404.3984
601.2287, 349.4766
601.7108, 307.0547
602.1929, 316.9531
602.6750, 397.6953
603.1572, 475.5469
603.6393, 548.0312
604.1214, 620.1484
604.6035, 712.2422
605.0856, 824.0547
605.5677, 891.8125
606.0499, 879.4453
606.5320, 837.3438
607.0141, 865.7109
607.4962, 949.6562
607.9783, 1025.688
608.4604, 1042.648
608.9425, 1042.797
609.4246, 1059.664
609.9067, 1095.398
610.3889, 1148.141
610.8710, 1259.648
611.3531, 1359.602
611.8352, 1393.805
612.3173, 1304.672
612.7994, 1247.680
613.2816, 1239.039
613.7637, 1260.344
614.2458, 1298.734
614.7279, 1371.102
615.2100, 1409.875
615.6921, 1394.734
616.1743, 1345.914
616.6564, 1290.945
617.1385, 1229.070
617.6206, 1207.625
618.1027, 1259.469
618.5848, 1360.477
619.0670, 1495.031
619.5491, 1651.109
620.0312, 1761.898
620.5133, 1719.820
620.9954, 1631.680
621.4775, 1611.805
621.9597, 1703.070
622.4418, 1784.906
622.9239, 1812.703
623.4060, 1809.273
623.8881, 1800.102
624.3702, 1793.219
624.8524, 1770.047
625.3345, 1716.430
625.8166, 1649.727
626.2987, 1618.445
626.7808, 1633.031
627.2629, 1641.039
627.7451, 1618.320
628.2272, 1575.711
628.7093, 1569.625
629.1914, 1599.672
629.6735, 1602.945
630.1556, 1510.805
630.6378, 1372.367
631.1199, 1256.297
631.6020, 1169.672
632.0841, 1108.852
632.5662, 1080.539
633.0483, 1073.477
633.5305, 1077.656
634.0126, 1110.891
634.4947, 1126.141
634.9768, 1109.180
635.4589, 1069.734
635.9410, 1022.383
636.4232, 951.0625
636.9053, 900.4141
637.3874, 880.3438
637.8695, 886.4375
638.3516, 914.1875
638.8337, 968.3047
639.3159, 994.2344
639.7980, 932.1875
640.2801, 820.9531
640.7622, 788.9062
641.2443, 836.7969
641.7264, 882.2109
642.2086, 868.6797
642.6907, 817.1875
643.1728, 740.5000
643.6549, 623.4062
644.1370, 544.0312
644.6191, 544.7109
645.1013, 597.8047
645.5834, 670.9141
646.0655, 835.9688
646.5476, 915.7578
647.0297, 841.0938
647.5118, 689.2891
647.9940, 658.0703
648.4761, 777.6719
648.9582, 890.2109
649.4403, 936.6641
649.9224, 934.2656
650.4045, 957.6406
650.8867, 999.4375
651.3688, 1037.219
651.8509, 1053.992
652.3330, 1057.523
652.8151, 1065.273
653.2972, 1081.094
653.7794, 1074.492
654.2615, 993.1797
654.7436, 898.5469
655.2257, 847.7266
655.7078, 884.2812
656.1899, 906.8828
656.6721, 899.4844
657.1542, 876.4766
657.6363, 850.5234
658.1184, 818.3281
658.6005, 777.6719
659.0826, 725.0469
659.5648, 669.2891
660.0469, 646.7656
660.5290, 655.6562
661.0111, 628.9609
661.4932, 501.9688
661.9753, 342.1016
662.4575, 266.6406
662.9396, 268.1875
663.4217, 298.5625
663.9038, 356.6094
664.3859, 415.6562
664.8680, 452.8281
665.3502, 464.7969
665.8323, 476.8047
666.3144, 505.4531
666.7965, 527.3984
667.2786, 521.7969
667.7607, 447.1406
668.2429, 429.4219
668.7250, 484.4219
669.2071, 567.1562
669.6892, 617.9531
670.1713, 634.4531
670.6534, 650.8203
671.1355, 680.7188
671.6176, 697.5234
672.0997, 647.1250
672.5818, 548.2656
673.0640, 455.3359
673.5461, 405.5391
674.0282, 367.0078
674.5103, 328.5000
674.9924, 288.7266
675.4745, 231.7344
675.9567, 145.7812
676.4388, 54.96875
676.9209, 40.63281
677.4030, 143.8438
677.8851, 183.1172
678.3672, 139.7422
678.8494, 66.03125
679.3315, 1.875000
679.8136, 68.30469
680.2957, 156.0312
680.7778, 258.7344
681.2599, 349.3125
681.7421, 376.8594
682.2242, 367.0156
682.7063, 382.3750
683.1884, 450.4844
683.6705, 510.0000
684.1526, 499.9375
684.6348, 456.9844
685.1169, 436.5469
685.5990, 500.9844
686.0811, 543.1016
686.5632, 519.6172
687.0453, 459.2891
687.5275, 441.2109
688.0096, 493.3125
688.4917, 530.4062
688.9738, 514.6719
689.4559, 464.0859
689.9380, 476.3594
690.4202, 551.4766
690.9023, 632.6250
691.3844, 685.9453
691.8665, 715.8984
692.3486, 730.5938
692.8307, 729.5078
693.3129, 712.0703
693.7950, 637.5625
694.2771, 569.9297
694.7592, 571.2266
695.2413, 688.9922
695.7234, 767.4531
696.2056, 764.1250
696.6877, 724.6719
697.1698, 686.9922
697.6519, 658.9297
698.1340, 611.4297
698.6161, 538.9922
699.0983, 456.9844
699.5804, 380.4766
700.0625, 313.9453
700.5446, 283.0547
701.0267, 318.3203
701.5089, 359.8281
701.9910, 312.7344
702.4731, 211.8516
702.9552, 145.7422
703.4373, 195.1641
703.9194, 248.3359
704.4016, 236.8828
704.8837, 172.8438
705.3658, 155.3438
705.8479, 259.0469
706.3300, 315.3594
706.8121, 240.8516
707.2943, 36.64062
707.7764, 48.31250
708.2585, 4.242188
708.7406, 80.39062
709.2227, 102.1328
709.7048, 81.09375
710.1870, 41.61719
710.6691, 15.67969
711.1512, 61.87500
711.6333, 66.10938
712.1154, 50.83594
712.5975, 39.71094
713.0797, 35.49219
713.5618, 40.46094
714.0439, 81.44531
714.5260, 120.0547
715.0081, 112.7344
715.4902, 41.71875
715.9724, 35.85156
716.4545, 122.3750
716.9366, 201.5469
717.4187, 245.2578
717.9008, 253.6484
718.3829, 222.8906
718.8651, 128.8594
719.3472, 29.02344
719.8293, 4.578125
720.3114, 42.22656
720.7935, 103.4219
721.2756, 214.1953
721.7578, 302.6406
722.2399, 307.7188
722.7220, 244.8984
723.2041, 213.3828
723.6862, 280.0391
724.1683, 317.7891
724.6505, 263.3984
725.1326, 123.0391
725.6147, 84.70312
726.0968, 170.1797
726.5789, 259.2109
727.0610, 262.9531
727.5432, 205.4375
728.0253, 162.2812
728.5074, 136.5938
728.9895, 121.9453
729.4716, 129.4141
729.9537, 137.7578
730.4359, 116.6328
730.9180, 46.36719
731.4001, 9.617188
731.8822, 69.78906
732.3643, 149.0703
732.8464, 174.8359
733.3285, 102.6797
733.8106, 83.07031
734.2927, 134.0312
734.7748, 215.2812
735.2570, 304.6562
735.7391, 393.5625
736.2212, 356.1719
736.7033, 116.1484
737.1854, 141.0078
737.6675, 168.3359
738.1497, 49.00000
738.6318, 51.93750
739.1139, 64.80469
739.5960, 55.64062
740.0781, 47.28125
740.5602, 39.16406
741.0424, 25.02344
741.5245, 14.46094
742.0066, 25.81250
742.4887, 8.820313
742.9708, 78.17969
743.4529, 140.1406
743.9351, 191.7891
744.4172, 250.3828
744.8993, 321.4062
745.3814, 401.6172
745.8635, 493.6328
746.3456, 592.2344
746.8278, 676.6953
747.3099, 729.0000
747.7920, 763.7500
748.2741, 796.6797
748.7562, 830.8125
749.2383, 826.6484
749.7205, 757.7422
750.2026, 681.1250
750.6847, 631.5469
751.1668, 617.9609
751.6489, 557.6172
752.1310, 438.5312
752.6132, 342.3516
753.0953, 368.0938
753.5774, 472.6953
754.0595, 523.1250
754.5416, 502.1875
755.0237, 479.2188
755.5059, 512.1641
755.9880, 562.9453
756.4701, 594.3125
756.9522, 594.1250
757.4343, 574.1875
757.9164, 512.1328
758.3986, 444.1562
758.8807, 412.0781
759.3628, 439.7891
759.8449, 410.4531
760.3270, 303.9062
760.8091, 169.0469
761.2913, 63.05469
761.7734, 10.82031
762.2555, 53.64844
762.7376, 63.71094
763.2197, 39.03906
763.7018, 58.21875
764.1840, 183.7500
764.6661, 266.4062
765.1482, 263.3984
765.6303, 230.1094
766.1124, 128.8984
766.5945, 18.32812
767.0767, 36.80469
767.5588, 224.0156
768.0409, 401.6172
768.5230, 523.8594
769.0051, 600.4766
769.4872, 646.8125
769.9694, 670.6719
770.4515, 716.9609
770.9336, 864.0469
771.4157, 997.0234
771.8978, 986.2734
772.3799, 865.6562
772.8621, 756.1250
773.3442, 715.7500
773.8263, 683.9297
774.3084, 630.1172
774.7905, 563.1172
775.2726, 543.3359
775.7548, 590.4141
776.2369, 634.7812
776.7190, 648.6406
777.2011, 636.0547
777.6832, 589.4922
778.1653, 515.5625
778.6475, 473.3750
779.1296, 526.9141
779.6117, 613.0156
780.0938, 666.7812
780.5759, 684.3672
781.0580, 717.1250
781.5402, 790.3438
782.0223, 871.6328
782.5044, 957.0391
782.9865, 1051.039
783.4686, 1058.992
783.9507, 948.4219
784.4329, 845.0625
784.9150, 852.7344
785.3971, 944.0000
785.8792, 1004.898
786.3613, 1032.508
786.8434, 1038.461
787.3256, 996.4922
787.8077, 960.7188
788.2898, 997.5781
788.7719, 1135.180
789.2540, 1241.250
789.7361, 1266.438
790.2183, 1260.586
790.7004, 1242.688
791.1825, 1189.656
791.6646, 1223.586
792.1467, 1368.203
792.6288, 1514.977
793.1110, 1543.859
793.5930, 1485.469
794.0751, 1441.508
794.5573, 1427.664
795.0394, 1399.094
795.5215, 1260.617
796.0036, 1144.430
796.4857, 1195.570
796.9678, 1591.633
797.4500, 1831.031
797.9321, 1774.203
798.4142, 1614.781
798.8963, 1528.469
799.3784, 1522.812
799.8605, 1532.367
800.3427, 1559.281
800.8248, 1577.500
801.3069, 1504.672
801.7890, 1393.914
802.2711, 1388.180
802.7532, 1558.695
803.2354, 1718.102
803.7175, 1742.672
804.1996, 1694.711
804.6817, 1648.680
805.1638, 1593.008
805.6459, 1578.273
806.1281, 1629.445
806.6102, 1698.266
807.0923, 1712.797
807.5744, 1672.359
808.0565, 1649.367
808.5386, 1658.414
809.0208, 1682.656
809.5029, 1702.859
809.9850, 1722.289
810.4671, 1746.672
810.9492, 1776.656
811.4313, 1812.562
811.9135, 1859.461
812.3956, 1910.078
812.8777, 1959.086
813.3598, 2025.414
813.8419, 2041.164
814.3240, 1972.781
814.8062, 1873.000
815.2883, 1823.719
815.7704, 1823.648
816.2525, 1852.289
816.7346, 1916.133
817.2167, 1981.398
817.6989, 2023.109
818.1810, 2038.930
818.6631, 2026.367
819.1452, 1942.328
819.6273, 1878.336
820.1094, 1866.734
820.5916, 1888.102
821.0737, 1916.500
821.5558, 1955.523
822.0379, 1993.586
822.5200, 2033.375
823.0021, 2066.453
823.4843, 2069.367
823.9664, 2052.203
824.4485, 2048.930
824.9306, 2073.195
825.4127, 2108.570
825.8948, 2152.328
826.3770, 2195.352
826.8591, 2223.961
827.3412, 2188.070
827.8233, 2196.750
828.3054, 2276.219
828.7875, 2391.586
829.2697, 2494.867
829.7518, 2589.203
830.2339, 2602.016
830.7160, 2495.586
831.1981, 2350.914
831.6802, 2279.141
832.1624, 2252.297
832.6445, 2214.055
833.1266, 2112.500
833.6087, 2038.188
834.0908, 2052.766
834.5729, 2107.805
835.0551, 2116.039
835.5372, 2056.578
836.0193, 1997.453
836.5014, 1935.562
836.9835, 1897.438
837.4656, 1972.117
837.9478, 2124.070
838.4299, 2185.562
838.9120, 2073.273
839.3941, 1927.438
839.8762, 1876.352
840.3583, 1869.945
840.8405, 1830.633
841.3226, 1672.070
841.8047, 1571.391
842.2868, 1579.594
842.7689, 1626.430
843.2510, 1593.219
843.7332, 1468.969
844.2153, 1395.273
844.6974, 1411.781
845.1795, 1446.789
845.6616, 1402.727
846.1437, 1304.453
846.6259, 1198.234
847.1080, 1087.641
847.5901, 988.8125
848.0722, 910.0469
848.5543, 846.6328
849.0364, 794.8516
849.5186, 773.8906
850.0007, 714.5312
850.4828, 600.5234
850.9649, 471.1406
851.4470, 385.2500
851.9291, 334.4766
852.4113, 276.6719
852.8934, 202.8125
853.3755, 127.1484
853.8576, 46.90625
854.3397, 20.56250
854.8218, 53.37500
855.3040, 3.757813
855.7860, 2.031250
856.2681, 105.6406
856.7502, 197.7578
857.2324, 113.0000
857.7145, 155.8984
858.1966, 352.1172
858.6787, 445.4375
859.1608, 481.8125
859.6429, 493.1875
860.1251, 486.3203
860.6072, 473.4375
861.0893, 457.3828
861.5714, 429.3828
862.0535, 337.8828
862.5356, 259.8594
863.0178, 279.8203
863.4999, 463.7109
863.9820, 504.3125
864.4641, 367.7109
864.9462, 197.6953
865.4283, 139.1016
865.9105, 155.6016
866.3926, 152.3203
866.8747, 120.1172
867.3568, 79.98438
867.8389, 29.66406
868.3210, 8.273438
868.8032, 2.507813
869.2853, 79.07031
869.7674, 75.86719
870.2495, 66.82031
870.7316, 198.1094
871.2137, 205.5859
871.6959, 102.6797
872.1780, 28.08594
872.6601, 17.42188
873.1422, 41.32812
873.6243, 38.82031
874.1064, 23.15625
874.5886, 1.304688
875.0707, 34.82031
875.5528, 48.82031
876.0349, 45.65625
876.5170, 13.39062
876.9991, 72.92969
877.4813, 203.0703
877.9634, 220.5703
878.4455, 116.7188
878.9276, 41.13281
879.4097, 127.3984
879.8918, 273.6953
880.3740, 339.1406
880.8561, 333.1484
881.3382, 303.6328
881.8203, 257.2500
882.3024, 207.4688
882.7845, 151.1406
883.2667, 95.27344
883.7488, 64.25781
884.2309, 54.50000
884.7130, 86.79688
885.1951, 184.0547
885.6772, 310.1250
886.1594, 419.5156
886.6415, 500.2656
887.1236, 518.8828
887.6057, 364.9922
888.0878, 246.1328
888.5699, 303.9297
889.0521, 464.8516
889.5342, 554.4219
890.0163, 545.2109
890.4984, 519.9219
890.9805, 475.2422
891.4626, 439.1953
891.9448, 463.4766
892.4269, 537.6562
892.9090, 627.7109
893.3911, 730.2734
893.8732, 824.7891
894.3553, 902.2266
894.8375, 961.1953
895.3196, 988.8516
895.8017, 936.2344
896.2838, 918.4062
896.7659, 952.5625
897.2480, 999.2344
897.7302, 1025.281
898.2123, 1028.633
898.6944, 985.5625
899.1765, 892.4766
899.6586, 779.2188
900.1407, 639.1797
900.6229, 516.6562
901.1050, 476.8438
901.5871, 571.6484
902.0692, 592.0391
902.5513, 456.5391
903.0334, 320.2734
903.5156, 283.5781
903.9977, 347.0547
904.4798, 419.5625
904.9619, 500.6016
905.4440, 565.4297
905.9261, 606.6719
906.4083, 612.0156
906.8904, 545.2578
907.3725, 409.8672
907.8546, 309.9062
908.3367, 315.6016
908.8188, 319.2344
909.3010, 268.3828
909.7831, 178.6875
910.2652, 176.9062
910.7473, 267.4375
911.2294, 344.0000
911.7115, 341.4062
912.1937, 304.0938
912.6758, 294.9844
913.1579, 308.8750
913.6400, 311.0781
914.1221, 261.6719
914.6042, 215.5938
915.0864, 205.3906
915.5685, 220.3984
916.0506, 218.6484
916.5327, 198.8281
917.0148, 189.1172
917.4969, 208.8203
917.9790, 218.4453
918.4611, 122.8984
918.9432, 7.054688
919.4254, 36.46875
919.9075, 141.3906
920.3896, 306.8281
920.8717, 402.7891
921.3538, 442.6250
921.8359, 417.3828
922.3181, 296.3516
922.8002, 277.7109
923.2823, 388.0859
923.7644, 515.7969
924.2465, 498.0781
924.7286, 428.4062
925.2108, 485.7656
925.6929, 704.6172
926.1750, 886.2422
926.6571, 919.5391
927.1392, 918.9453
927.6213, 956.3672
928.1035, 1029.391
928.5856, 1051.312
929.0677, 1029.477
929.5498, 984.1250
930.0319, 908.6172
930.5140, 820.0703
930.9962, 739.1094
931.4783, 670.1562
931.9604, 634.1641
932.4425, 689.5312
932.9246, 726.3281
933.4067, 679.4609
933.8889, 584.6953
934.3710, 556.1172
934.8531, 611.9922
935.3352, 650.0156
935.8173, 636.4844
936.2994, 596.7812
936.7816, 547.3203
937.2637, 502.9844
937.7458, 494.0078
938.2279, 581.5234
938.7100, 629.9844
939.1921, 548.1875
939.6743, 428.6797
940.1564, 379.6328
940.6385, 418.8438
941.1206, 445.1641
941.6027, 455.1328
942.0848, 436.7109
942.5670, 344.3516
943.0491, 228.1797
943.5312, 174.8359
944.0133, 202.8125
944.4954, 231.5938
944.9775, 243.9766
945.4597, 234.1406
945.9418, 196.4922
946.4239, 130.4922
946.9060, 61.11719
947.3881, 15.45312
947.8702, 56.39844
948.3524, 10.06250
948.8345, 75.04688
949.3166, 138.9219
949.7987, 179.3516
950.2808, 187.1562
950.7629, 138.7812
951.2451, 76.50000
951.7272, 10.36719
952.2093, 95.44531
952.6914, 93.96875
953.1735, 0.2343750
953.6556, 60.70312
954.1378, 40.58594
954.6199, 1.609375
955.1020, 18.32031
955.5841, 69.15625
956.0662, 121.1719
956.5483, 172.0859
957.0305, 212.0938
957.5126, 236.5625
957.9947, 255.1484
958.4768, 284.3203
958.9589, 326.2031
959.4410, 313.7656
959.9232, 239.6016
960.4053, 169.7422
960.8874, 156.1328
961.3695, 177.8750
961.8516, 223.6328
962.3337, 290.8594
962.8159, 334.3984
963.2980, 314.1172
963.7801, 312.3906
964.2622, 382.9609
964.7443, 491.6484
965.2264, 453.9844
965.7086, 287.7344
966.1907, 168.8750
966.6728, 230.8438
967.1549, 318.9297
967.6370, 304.1094
968.1191, 220.2266
968.6013, 133.6641
969.0834, 3.414063
969.5655, 32.82812
970.0476, 99.32031
970.5297, 280.7266
971.0118, 364.3906
971.4940, 362.0391
971.9761, 319.9609
972.4582, 239.6562
972.9403, 163.2734
973.4224, 125.4922
973.9045, 101.0000
974.3867, 50.84375
974.8688, 53.09375
975.3509, 12.80469
975.8330, 228.1875
976.3151, 449.2031
976.7972, 494.2344
977.2794, 415.6875
977.7615, 351.9844
978.2436, 298.0234
978.7257, 250.4375
979.2078, 203.7344
979.6899, 164.0156
980.1720, 132.6328
980.6541, 109.3750
981.1362, 91.89844
981.6183, 76.67188
982.1005, 93.14062
982.5826, 159.7891
983.0647, 230.7734
983.5468, 235.5625
984.0289, 199.6719
984.5110, 169.4609
984.9932, 163.8750
985.4753, 145.6719
985.9574, 83.81250
986.4395, 23.78906
986.9216, 4.890625
987.4037, 0.9140630
987.8859, 27.09375
988.3680, 80.63281
988.8501, 110.6641
989.3322, 37.16406
989.8143, 48.20312
990.2964, 16.56250
990.7786, 108.0703
991.2607, 155.8906
991.7428, 2.679688
992.2249, 105.2734
992.7070, 73.51562
993.1891, 34.37500
993.6713, 69.06250
994.1534, 45.06250
994.6355, 46.22656
995.1176, 111.5547
995.5997, 175.1797
996.0818, 175.9922
996.5640, 152.7656
997.0461, 152.0312
997.5282, 190.5781
998.0103, 217.0781
998.4924, 231.3828
998.9745, 231.6172
999.4567, 180.5547
999.9388, 121.1172
1000.421, 193.5000
1000.903, 387.6875
1001.385, 552.1719
1001.867, 604.9609
1002.349, 605.3359
1002.831, 551.2969
1003.314, 467.6016
1003.796, 447.0938
1004.278, 497.3672
1004.760, 543.6328
1005.242, 570.4531
1005.724, 569.3750
1006.206, 517.1094
1006.688, 439.8750
1007.171, 382.6641
1007.653, 368.3125
1008.135, 356.0781
1008.617, 355.2891
1009.099, 339.7031
1009.581, 272.6953
1010.063, 156.3203
1010.545, 89.46094
1011.027, 78.06250
1011.510, 95.92969
1011.992, 137.2422
1012.474, 191.7344
1012.956, 263.4766
1013.438, 345.4609
1013.920, 388.9219
1014.402, 383.8281
1014.884, 360.1953
1015.367, 320.6562
1015.849, 275.1094
1016.331, 240.3281
1016.813, 215.6797
1017.295, 200.0859
1017.777, 198.7891
1018.259, 196.6094
1018.741, 189.0000
1019.223, 178.8984
1019.706, 173.4766
1020.188, 179.5391
1020.670, 131.3438
1021.152, 21.60156
1021.634, 38.89062
1022.116, 93.09375
1022.598, 276.0703
1023.080, 328.9453
1023.563, 274.5391
1024.045, 288.4922
1024.527, 498.3359
1025.009, 631.8047
1025.491, 607.4375
1025.973, 498.9062
1026.455, 432.0391
1026.937, 406.2031
1027.419, 429.6953
1027.901, 525.2578
1028.384, 604.8203
1028.866, 603.0078
1029.348, 564.1172
1029.830, 532.0781
1030.312, 517.9297
1030.794, 469.2891
1031.276, 380.4922
1031.758, 299.8906
1032.241, 257.6797
1032.723, 249.1484
1033.205, 292.4609
1033.687, 370.2891
1034.169, 418.6875
1034.651, 339.3516
1035.133, 325.5156
1035.615, 445.4766
1036.098, 622.0938
1036.580, 719.8281
1037.062, 742.1328
1037.544, 728.5391
1038.026, 673.2578
1038.508, 642.6172
1038.990, 746.2188
1039.472, 860.0312
1039.954, 849.5234
1040.437, 679.2969
1040.919, 604.5625
1041.401, 659.9219
1041.883, 698.1250
1042.365, 626.6641
1042.847, 502.7969
1043.329, 451.6562
1043.811, 449.6875
1044.293, 424.1328
1044.776, 304.0547
1045.258, 217.0078
1045.740, 224.6016
1046.222, 252.3047
1046.704, 177.5391
1047.186, 5.437500
1047.668, 6.656250
1048.150, 176.4688
1048.633, 341.8594
1049.115, 248.6562
1049.597, 105.4922
1050.079, 96.81250
1050.561, 243.4453
1051.043, 340.6172
1051.525, 365.6328
1052.007, 387.5859
1052.490, 433.8516
1052.972, 485.6562
1053.454, 501.0859
1053.936, 492.9219
1054.418, 489.1172
1054.900, 475.1172
1055.382, 506.2344
1055.864, 640.7891
1056.346, 780.8594
1056.828, 848.5156
1057.311, 842.9766
1057.793, 809.3594
1058.275, 749.0469
1058.757, 705.8672
1059.239, 749.5234
1059.721, 790.7812
1060.203, 760.6328
1060.685, 669.5234
1061.168, 572.4688
1061.650, 470.0391
1062.132, 382.6172
1062.614, 320.4453
1063.096, 265.3984
1063.578, 171.7266
1064.060, 73.25000
1064.542, 34.88281
1065.025, 77.95312
1065.507, 128.2422
1065.989, 188.5078
1066.471, 222.3516
1066.953, 188.1719
1067.435, 102.3828
1067.917, 129.2031
1068.399, 252.0234
1068.881, 326.6641
1069.364, 232.0938
1069.846, 116.7578
1070.328, 36.38281
1070.810, 13.33594
1071.292, 96.21875
1071.774, 340.3984
1072.256, 468.0781
1072.738, 444.6484
1073.220, 373.1953
1073.703, 345.7188
1074.185, 336.7812
1074.667, 314.3203
1075.149, 276.5547
1075.631, 234.9766
1076.113, 197.5547
1076.595, 153.0000
1077.077, 99.69531
1077.559, 41.81250
1078.042, 23.83594
1078.524, 86.38281
1079.006, 105.0938
1079.488, 49.67969
1079.970, 8.000000
1080.452, 53.49219
1080.934, 113.8438
1081.416, 134.5156
1081.899, 115.3438
1082.381, 66.67188
1082.863, 10.74219
1083.345, 98.82812
1083.827, 215.0703
1084.309, 307.3750
1084.791, 290.2109
1085.273, 213.0234
1085.755, 202.5234
1086.238, 325.1953
1086.720, 399.2812
1087.202, 401.3594
1087.684, 374.8672
1088.166, 378.1562
1088.648, 388.1953
1089.130, 330.0703
1089.612, 200.6797
1090.094, 141.0938
1090.577, 300.5000
1091.059, 437.6641
1091.541, 460.8594
1092.023, 415.9062
1092.505, 400.3672
1092.987, 409.2266
1093.469, 488.8828
1093.951, 688.0391
1094.434, 844.7188
1094.916, 800.8984
1095.398, 688.1328
1095.880, 628.4688
1096.362, 627.1328
1096.844, 653.5000
1097.326, 711.3438
1097.808, 754.8203
1098.291, 734.6953
1098.773, 701.6328
1099.255, 707.4453
1099.737, 750.5625
1100.219, 831.2734
1100.701, 1060.141
1101.183, 1117.562
1101.665, 928.9609
1102.147, 692.6641
1102.630, 639.9219
1103.112, 706.6094
1103.594, 752.6250
1104.076, 766.1016
1104.558, 776.4922
1105.040, 808.0547
1105.522, 816.5391
1106.004, 769.0078
1106.486, 700.6250
1106.969, 727.0234
1107.451, 829.0312
1107.933, 880.5469
1108.415, 843.9453
1108.897, 776.6016
1109.379, 713.2109
1109.861, 648.0156
1110.343, 557.9531
1110.826, 439.3984
1111.308, 395.7188
1111.790, 446.8281
1112.272, 487.6484
1112.754, 430.3750
1113.236, 346.9766
1113.718, 314.9297
1114.200, 322.1406
1114.682, 349.4766
1115.165, 426.2891
1115.647, 445.5234
1116.129, 391.3750
1116.611, 310.9062
1117.093, 218.3516
1117.575, 139.6953
1118.057, 143.7109
1118.539, 217.3828
1119.021, 272.5078
1119.504, 280.6719
1119.986, 262.3516
1120.468, 217.8281
1120.950, 158.8516
1121.432, 95.33594
1121.914, 35.14062
1122.396, 9.687500
1122.878, 28.53125
1123.361, 48.65625
1123.843, 1.640625
1124.325, 0.6953130
1124.807, 149.0547
1125.289, 392.1172
1125.771, 398.4297
1126.253, 187.2578
1126.735, 128.2734
1127.218, 428.0938
1127.700, 735.9531
1128.182, 721.1328
1128.664, 582.4609
1129.146, 553.3359
1129.628, 665.5703
1130.110, 717.0000
1130.592, 697.0781
1131.074, 678.7656
1131.557, 705.7266
1132.039, 761.2969
1132.521, 855.1328
1133.003, 959.1953
1133.485, 1004.805
1133.967, 987.8984
1134.449, 892.7109
1134.931, 693.3750
1135.413, 501.3594
1135.896, 444.8984
1136.378, 469.2109
1136.860, 489.8047
1137.342, 506.4219
1137.824, 523.3672
1138.306, 545.4062
1138.788, 547.6172
1139.270, 523.9453
1139.752, 482.4922
1140.235, 403.3438
1140.717, 318.3125
1141.199, 343.7188
1141.681, 512.9453
1142.163, 635.0938
1142.645, 587.0625
1143.127, 493.7891
1143.609, 412.5703
1144.092, 340.5625
1144.574, 265.8359
1145.056, 191.2812
1145.538, 120.3359
1146.020, 39.43750
1146.502, 10.64062
1146.984, 159.7109
1147.466, 319.8828
1147.948, 334.7188
1148.431, 195.6172
1148.913, 67.98438
1149.395, 49.96094
1149.877, 79.69531
1150.359, 86.60156
1150.841, 294.2266
1151.323, 440.0703
1151.805, 531.8984
1152.287, 586.4453
1152.770, 591.7031
1153.252, 594.4297
1153.734, 592.9375
1154.216, 598.4531
1154.698, 624.4453
1155.180, 660.3125
1155.662, 702.7344
1156.144, 747.8828
1156.627, 776.7344
1157.109, 802.6016
1157.591, 782.8516
1158.073, 705.0547
1158.555, 604.3828
1159.037, 506.3281
1159.519, 421.9844
1160.001, 354.0938
1160.484, 302.6562
1160.966, 342.8281
1161.448, 589.5703
1161.930, 725.8359
1162.412, 630.9766
1162.894, 424.0859
1163.376, 329.5078
1163.858, 308.6484
1164.340, 271.1094
1164.823, 197.9922
1165.305, 143.8047
1165.787, 153.0391
1166.269, 145.2188
1166.751, 68.32812
1167.233, 41.88281
1167.715, 39.73438
1168.197, 38.53906
1168.679, 49.03906
1169.162, 154.4141
1169.644, 264.0469
1170.126, 104.1797
1170.608, 119.8672
1171.090, 281.9609
1171.572, 379.0781
1172.054, 378.9375
1172.536, 298.9844
1173.019, 281.8750
1173.501, 506.6797
1173.983, 689.7578
1174.465, 653.9453
1174.947, 539.6094
1175.429, 503.0781
1175.911, 544.2344
1176.393, 593.7969
1176.875, 647.4688
1177.358, 686.1797
1177.840, 696.8359
1178.322, 689.5781
1178.804, 656.3047
1179.286, 614.2656
1179.768, 594.3672
1180.250, 596.6250
1180.732, 628.4609
1181.214, 689.6250
1181.697, 778.9375
1182.179, 981.2500
1182.661, 1148.578
1183.143, 1108.562
1183.625, 907.1875
1184.107, 827.1172
1184.589, 882.1406
1185.071, 866.9688
1185.554, 710.0547
1186.036, 550.1562
1186.518, 552.6016
1187.000, 605.1953
1187.482, 581.3516
1187.964, 474.1641
1188.446, 459.8672
1188.928, 562.9609
1189.411, 572.1250
1189.893, 360.7734
1190.375, 121.2969
1190.857, 92.03125
1191.339, 162.2266
1191.821, 187.2656
1192.303, 133.1719
1192.785, 128.7656
1193.267, 179.8203
1193.750, 244.9688
1194.232, 320.0859
1194.714, 374.8281
1195.196, 349.8281
1195.678, 284.8516
1196.160, 253.0469
1196.642, 300.7969
1197.124, 286.1406
1197.606, 191.0781
1198.089, 96.57812
1198.571, 72.66406
1199.053, 84.98438
1199.535, 105.2891
1200.017, 128.0391
1200.499, 137.8047
1200.981, 117.2188
1201.463, 125.0625
1201.945, 178.6875
1202.428, 220.5234
1202.910, 164.4219
1203.392, 97.13281
1203.874, 82.45312
1204.356, 117.7188
1204.838, 178.9531
1205.320, 276.6094
1205.802, 370.8438
1206.285, 466.2969
1206.767, 521.5234
1207.249, 428.2891
1207.731, 295.5781
1208.213, 307.1484
1208.695, 462.8984
1209.177, 550.0703
1209.659, 521.3438
1210.141, 469.3516
1210.624, 396.9922
1211.106, 350.5547
1211.588, 425.2656
1212.070, 546.6797
1212.552, 579.2656
1213.034, 489.5000
1213.516, 442.7578
1213.998, 427.9609
1214.480, 375.9531
1214.963, 240.0547
1215.445, 108.5547
1215.927, 174.5547
1216.409, 323.2422
1216.891, 361.8281
1217.373, 233.7891
1217.855, 136.9922
1218.337, 91.00000
1218.820, 74.32812
1219.302, 97.53906
1219.784, 118.4141
1220.266, 27.14844
1220.748, 106.3359
1221.230, 156.4688
1221.712, 57.89844
1222.194, 0.8359380
1222.677, 12.42188
1223.159, 16.78906
1223.641, 33.45312
1224.123, 107.4766
1224.605, 157.5312
1225.087, 189.1016
1225.569, 207.7344
1226.051, 202.5625
1226.533, 206.1250
1227.016, 213.0547
1227.498, 241.1719
1227.980, 334.5391
1228.462, 435.8281
1228.944, 425.8281
1229.426, 356.3516
1229.908, 339.7109
1230.390, 462.2266
1230.872, 535.7812
1231.355, 553.2266
1231.837, 536.1094
1232.319, 478.2031
1232.801, 412.7891
1233.283, 388.7734
1233.765, 396.2031
1234.247, 401.3594
1234.729, 364.1875
1235.212, 422.2109
1235.694, 607.9766
1236.176, 773.0781
1236.658, 747.9141
1237.140, 643.1719
1237.622, 589.0859
1238.104, 575.2109
1238.586, 485.5469
1239.068, 376.4062
1239.551, 344.7031
1240.033, 414.9062
1240.515, 506.5000
1240.997, 567.6094
1241.479, 596.6484
1241.961, 595.4922
1242.443, 562.7031
1242.925, 481.5312
1243.407, 331.1016
1243.890, 236.4375
1244.372, 218.3750
1244.854, 242.1719
1245.336, 270.8750
1245.818, 320.8672
1246.300, 417.9297
1246.782, 550.9688
1247.264, 657.7031
1247.747, 737.2188
1248.229, 779.8281
1248.711, 782.2734
1249.193, 748.8203
1249.675, 662.7188
1250.157, 563.0469
1250.639, 492.2812
1251.121, 445.5625
1251.604, 363.7266
1252.086, 246.4609
1252.568, 206.5391
1253.050, 290.7500
1253.532, 352.4609
1254.014, 163.4766
1254.496, 4.156250
1254.978, 118.1172
1255.460, 0.0000000E+00
##END=



