##NAMES=Vasilite
##RRUFFID=R070716
##IDEAL CHEMISTRY=(Pd,Cu)_16_(S,Te)_7_
##LOCALITY=Mount Filipp, Kamchatka Oblast', Far-Eastern Region, Russia
##OWNER=RRUFF
##SOURCE=Michael Scott
##DESCRIPTION=Black metallic bleb; mounted on microprobe plastic
##STATUS=The identification of this mineral is not yet confirmed.
##URL=rruff.info/R070716
142.7868, 0.0000000E+00
143.2689, 11.03345
143.7510, 11.05322
144.2331, 0.7817380
144.7152, 6.411377
145.1974, 46.95715
145.6795, 83.68384
146.1616, 107.1398
146.6437, 115.8309
147.1258, 113.5634
147.6079, 93.89062
148.0901, 63.14221
148.5722, 40.32056
149.0543, 25.47644
149.5364, 19.03662
150.0185, 20.26904
150.5006, 40.62976
150.9828, 57.03381
151.4649, 67.60339
151.9470, 73.36121
152.4291, 78.89990
152.9112, 79.94958
153.3933, 84.81030
153.8755, 99.40271
154.3576, 149.4996
154.8397, 184.8873
155.3218, 205.8295
155.8039, 196.8124
156.2860, 169.5492
156.7682, 120.8312
157.2503, 67.55188
157.7324, 30.42114
158.2145, 24.89758
158.6966, 27.70972
159.1787, 29.93311
159.6609, 30.25256
160.1430, 30.20374
160.6251, 26.32886
161.1072, 23.62732
161.5893, 32.88940
162.0714, 76.26245
162.5536, 121.0873
163.0357, 144.2235
163.5178, 130.5903
163.9999, 105.7781
164.4820, 74.05750
164.9641, 37.49487
165.4463, 10.83203
165.9284, 10.74988
166.4105, 21.20398
166.8926, 24.87097
167.3747, 0.9510500
167.8568, 19.27112
168.3390, 14.38611
168.8211, 17.05334
169.3032, 51.91907
169.7853, 82.84900
170.2674, 106.6973
170.7495, 117.4406
171.2317, 96.14868
171.7138, 65.55371
172.1959, 51.35132
172.6780, 59.64185
173.1601, 74.92944
173.6422, 89.58728
174.1244, 100.9658
174.6065, 102.0706
175.0886, 77.43188
175.5707, 47.66467
176.0528, 29.62793
176.5349, 32.36792
177.0171, 46.67676
177.4992, 67.05798
177.9813, 93.09619
178.4634, 108.1077
178.9455, 92.99048
179.4276, 59.35938
179.9098, 35.63501
180.3919, 36.08325
180.8740, 49.04675
181.3561, 55.05505
181.8382, 55.07922
182.3203, 54.56763
182.8025, 63.62085
183.2846, 80.18146
183.7667, 93.81952
184.2488, 96.35144
184.7309, 92.29791
185.2130, 100.1603
185.6951, 119.3173
186.1773, 138.7957
186.6594, 136.6074
187.1415, 115.0825
187.6236, 92.32129
188.1057, 72.89209
188.5878, 58.56354
189.0700, 50.40881
189.5521, 49.33405
190.0342, 54.59644
190.5163, 69.87683
190.9984, 95.97064
191.4805, 112.5714
191.9627, 92.90051
192.4448, 41.23645
192.9269, 11.99725
193.4090, 19.89038
193.8911, 52.38867
194.3732, 73.35144
194.8554, 81.70178
195.3375, 83.09821
195.8196, 82.95953
196.3017, 81.69354
196.7838, 74.76593
197.2659, 58.81116
197.7481, 35.63275
198.2302, 20.25238
198.7123, 12.79688
199.1944, 12.91266
199.6765, 23.76855
200.1586, 47.60358
200.6408, 67.24792
201.1229, 73.89392
201.6050, 67.37775
202.0871, 57.48145
202.5692, 42.83710
203.0513, 27.43811
203.5335, 18.26019
204.0156, 16.06207
204.4977, 16.75275
204.9798, 20.02118
205.4619, 26.84534
205.9440, 28.71411
206.4262, 24.37347
206.9083, 15.62378
207.3904, 4.677368
207.8725, 11.97516
208.3546, 21.19061
208.8367, 12.14197
209.3189, 21.26227
209.8010, 48.68170
210.2831, 69.89850
210.7652, 83.27185
211.2473, 78.20520
211.7294, 46.62677
212.2116, 12.59601
212.6937, 4.582214
213.1758, 0.3946530
213.6579, 5.054749
214.1400, 7.685913
214.6221, 8.189697
215.1043, 18.11072
215.5864, 43.79852
216.0685, 69.78644
216.5506, 79.10931
217.0327, 65.29047
217.5148, 51.64777
217.9970, 44.15698
218.4791, 43.50928
218.9612, 37.15900
219.4433, 21.71521
219.9254, 4.296448
220.4075, 5.887268
220.8897, 6.772827
221.3718, 4.591797
221.8539, 0.9692380
222.3360, 4.112671
222.8181, 10.81647
223.3002, 21.11627
223.7824, 31.75049
224.2645, 35.72668
224.7466, 28.98688
225.2287, 21.92761
225.7108, 18.60626
226.1929, 24.17822
226.6750, 25.80280
227.1572, 19.87598
227.6393, 15.39136
228.1214, 16.31110
228.6035, 34.44165
229.0856, 39.72992
229.5677, 6.234009
230.0499, 13.89362
230.5320, 7.525879
231.0141, 7.9650998E-02
231.4962, 29.53156
231.9783, 9.056824
232.4604, 19.77625
232.9426, 21.67053
233.4247, 35.74451
233.9068, 23.00580
234.3889, 18.51971
234.8710, 40.78473
235.3531, 48.34344
235.8353, 32.68921
236.3174, 47.55341
236.7995, 7.848022
237.2816, 15.92853
237.7637, 44.55231
238.2458, 30.03644
238.7280, 45.28577
239.2101, 49.39673
239.6922, 2.227234
240.1743, 44.21582
240.6564, 47.39520
241.1385, 10.95892
241.6207, 49.76526
242.1028, 18.78223
242.5849, 12.69543
243.0670, 25.33411
243.5491, 18.42267
244.0313, 42.30389
244.5134, 36.49609
244.9955, 28.02832
245.4776, 31.11902
245.9597, 1.369019
246.4418, 32.39014
246.9240, 21.80304
247.4061, 31.85992
247.8882, 46.61169
248.3703, 25.57080
248.8524, 42.52979
249.3345, 0.6231080
249.8167, 7.954712
250.2988, 9.803528
250.7809, 42.83459
251.2630, 0.8444820
251.7451, 6.652344
252.2272, 32.80334
252.7094, 18.80695
253.1915, 33.96259
253.6736, 51.39172
254.1557, 64.65912
254.6378, 74.07452
255.1199, 77.98590
255.6021, 74.18243
256.0842, 65.90845
256.5663, 59.96552
257.0484, 56.09277
257.5305, 55.45685
258.0126, 60.68097
258.4948, 73.84790
258.9769, 79.94318
259.4590, 75.70325
259.9411, 65.49640
260.4232, 61.43713
260.9053, 65.89166
261.3875, 72.12842
261.8696, 77.62567
262.3517, 83.50183
262.8338, 84.88379
263.3159, 80.81488
263.7980, 72.20929
264.2802, 61.07440
264.7623, 43.86255
265.2444, 30.69556
265.7265, 29.20703
266.2086, 45.19995
266.6907, 53.81677
267.1729, 50.09961
267.6550, 37.56024
268.1371, 35.19220
268.6192, 47.41016
269.1013, 59.76630
269.5834, 59.92743
270.0656, 43.49622
270.5477, 35.16156
271.0298, 42.66766
271.5119, 60.92944
271.9940, 66.56616
272.4761, 55.38733
272.9583, 42.11218
273.4404, 37.87769
273.9225, 44.15247
274.4046, 51.86060
274.8867, 61.70221
275.3688, 71.64569
275.8510, 70.89874
276.3331, 56.92902
276.8152, 39.98810
277.2973, 27.52032
277.7794, 19.36353
278.2615, 15.34924
278.7437, 16.59064
279.2258, 22.61780
279.7079, 32.53143
280.1900, 48.12665
280.6721, 60.72278
281.1542, 60.16235
281.6364, 45.73645
282.1185, 33.65283
282.6006, 26.53778
283.0827, 24.46753
283.5648, 30.01111
284.0469, 44.70001
284.5291, 59.45966
285.0112, 65.27765
285.4933, 61.11316
285.9754, 56.00769
286.4575, 48.42340
286.9396, 40.34521
287.4217, 39.59900
287.9038, 48.47369
288.3860, 59.27142
288.8681, 66.48529
289.3502, 70.49792
289.8323, 68.99359
290.3144, 61.21692
290.7965, 49.38031
291.2787, 42.55078
291.7608, 40.91486
292.2429, 40.70117
292.7250, 38.40411
293.2071, 34.36566
293.6892, 30.58380
294.1714, 28.92859
294.6535, 27.44006
295.1356, 21.48712
295.6177, 10.89728
296.0998, 0.7088620
296.5819, 6.639526
297.0641, 10.10638
297.5462, 5.750061
298.0283, 16.31067
298.5104, 43.10559
298.9925, 50.82184
299.4746, 39.69067
299.9568, 25.13135
300.4389, 21.25330
300.9210, 24.65112
301.4031, 26.99030
301.8852, 24.62457
302.3673, 20.78632
302.8495, 16.87030
303.3316, 13.12830
303.8137, 11.24329
304.2958, 14.78693
304.7779, 21.11035
305.2600, 25.92358
305.7422, 25.13245
306.2243, 23.55829
306.7064, 27.05890
307.1885, 35.11847
307.6706, 43.20007
308.1527, 46.86322
308.6349, 48.75647
309.1170, 51.92175
309.5991, 67.03204
310.0812, 77.65320
310.5633, 65.40479
311.0454, 31.92078
311.5276, 4.518311
312.0097, 2.779297
312.4918, 14.76685
312.9739, 27.28168
313.4560, 44.68463
313.9381, 53.79895
314.4203, 37.79504
314.9024, 0.6000980
315.3845, 24.71991
315.8666, 3.158569
316.3487, 34.75659
316.8308, 61.31757
317.3130, 59.58264
317.7951, 53.05353
318.2772, 49.56390
318.7593, 49.01166
319.2414, 49.24060
319.7235, 49.43408
320.2057, 50.17517
320.6878, 51.92749
321.1699, 59.80426
321.6520, 63.62122
322.1341, 58.46350
322.6162, 45.29254
323.0984, 34.35858
323.5805, 27.77374
324.0626, 24.15857
324.5447, 22.46619
325.0268, 23.15826
325.5089, 25.05939
325.9911, 30.19073
326.4732, 37.83173
326.9553, 40.39197
327.4374, 27.03607
327.9195, 15.65265
328.4016, 16.11237
328.8838, 47.88251
329.3659, 67.68359
329.8480, 68.97363
330.3301, 54.50146
330.8122, 41.30383
331.2943, 25.18048
331.7765, 14.32666
332.2586, 13.86707
332.7407, 29.96613
333.2228, 46.32739
333.7049, 65.70074
334.1870, 84.74384
334.6692, 87.87634
335.1513, 66.31311
335.6334, 42.96680
336.1155, 30.25238
336.5976, 29.78455
337.0797, 35.39655
337.5619, 49.57697
338.0440, 68.35748
338.5261, 80.15442
339.0082, 84.16541
339.4903, 83.59631
339.9724, 79.64062
340.4546, 72.02405
340.9367, 62.29816
341.4188, 49.15479
341.9009, 35.51947
342.3830, 27.96503
342.8651, 26.97461
343.3473, 27.71820
343.8294, 26.17535
344.3115, 22.97302
344.7936, 27.87427
345.2757, 43.67468
345.7578, 62.27881
346.2400, 71.21698
346.7221, 70.74872
347.2042, 67.23749
347.6863, 60.57513
348.1684, 53.06500
348.6505, 54.58710
349.1327, 67.55341
349.6148, 80.22461
350.0969, 74.91632
350.5790, 55.95428
351.0611, 40.15985
351.5432, 39.13336
352.0254, 45.08954
352.5075, 44.11920
352.9896, 34.87787
353.4717, 27.56976
353.9538, 33.74866
354.4359, 48.51990
354.9181, 62.36176
355.4002, 75.98956
355.8823, 84.47137
356.3644, 78.84161
356.8465, 58.93414
357.3286, 42.34662
357.8108, 49.34241
358.2929, 63.99829
358.7750, 65.62958
359.2571, 20.14337
359.7392, 18.24127
360.2213, 9.325500
360.7035, 43.41602
361.1856, 85.41620
361.6677, 85.70300
362.1498, 67.92676
362.6319, 52.62555
363.1140, 45.13245
363.5962, 40.80670
364.0783, 39.91443
364.5604, 41.83459
365.0425, 42.35657
365.5246, 31.03107
366.0067, 24.06464
366.4889, 31.34485
366.9710, 80.96545
367.4531, 113.5072
367.9352, 119.6790
368.4173, 103.4888
368.8994, 82.86432
369.3815, 44.21777
369.8636, 11.80646
370.3458, 1.533813
370.8279, 20.38263
371.3100, 34.93060
371.7921, 39.91382
372.2742, 38.12738
372.7563, 36.07935
373.2385, 32.39685
373.7206, 30.62762
374.2027, 30.61108
374.6848, 32.46204
375.1669, 32.85895
375.6490, 29.58624
376.1312, 27.22888
376.6133, 36.53906
377.0954, 62.32062
377.5775, 80.30432
378.0596, 78.17664
378.5417, 56.73419
379.0239, 41.76147
379.5060, 33.96527
379.9881, 30.93518
380.4702, 32.22485
380.9523, 37.56696
381.4344, 38.96161
381.9166, 31.22675
382.3987, 18.09125
382.8808, 11.25208
383.3629, 11.10034
383.8450, 11.93164
384.3271, 6.138000
384.8093, 3.441528
385.2914, 7.557068
385.7735, 1.122742
386.2556, 9.858276
386.7377, 18.29156
387.2198, 24.21167
387.7020, 28.11542
388.1841, 30.10852
388.6662, 28.80334
389.1483, 23.19452
389.6304, 9.517700
390.1125, 2.800964
390.5947, 5.729492
391.0768, 1.374451
391.5589, 3.805237
392.0410, 8.552490
392.5231, 11.70044
393.0052, 11.60254
393.4874, 4.460876
393.9695, 1.313232
394.4516, 11.25458
394.9337, 28.03589
395.4158, 39.85486
395.8979, 36.94537
396.3801, 33.93384
396.8622, 38.34131
397.3443, 54.73309
397.8264, 64.08844
398.3085, 57.99438
398.7906, 45.53546
399.2728, 37.64227
399.7549, 36.34869
400.2370, 37.78937
400.7191, 43.10846
401.2012, 52.95605
401.6833, 56.91821
402.1655, 53.13928
402.6476, 45.33832
403.1297, 35.03027
403.6118, 17.03998
404.0939, 10.26056
404.5760, 23.06177
405.0582, 49.79504
405.5403, 57.34119
406.0224, 40.23663
406.5045, 19.68610
406.9866, 10.80334
407.4688, 14.24438
407.9509, 17.06769
408.4330, 17.34039
408.9151, 17.28351
409.3972, 24.29895
409.8793, 36.70636
410.3615, 44.20325
410.8436, 35.60065
411.3257, 16.57599
411.8078, 7.088013
412.2899, 9.223022
412.7720, 16.97308
413.2542, 26.27679
413.7363, 35.83936
414.2184, 41.92212
414.7005, 39.72675
415.1826, 34.60663
415.6647, 33.63489
416.1469, 37.08429
416.6290, 39.29651
417.1111, 34.65515
417.5932, 26.03625
418.0753, 19.34552
418.5574, 13.82507
419.0396, 12.04382
419.5217, 18.48334
420.0038, 31.53912
420.4859, 40.98181
420.9680, 37.07648
421.4501, 30.81274
421.9323, 30.61389
422.4144, 48.71436
422.8965, 58.24451
423.3786, 47.64020
423.8607, 24.42816
424.3428, 10.13367
424.8250, 18.81531
425.3071, 25.51306
425.7892, 19.44354
426.2713, 10.48090
426.7534, 22.82465
427.2355, 7.287720
427.7177, 19.36530
428.1998, 32.01379
428.6819, 25.52179
429.1640, 16.46954
429.6461, 8.134033
430.1282, 0.6621090
430.6104, 4.266052
431.0925, 7.569519
431.5746, 6.050476
432.0567, 8.028870
432.5388, 35.27905
433.0209, 51.43121
433.5031, 48.50555
433.9852, 33.67725
434.4673, 21.99841
434.9494, 13.55853
435.4315, 11.14862
435.9136, 21.33044
436.3958, 39.14856
436.8779, 51.93561
437.3600, 57.37433
437.8421, 58.53052
438.3242, 56.46796
438.8063, 52.89886
439.2885, 51.22589
439.7706, 53.60303
440.2527, 57.65796
440.7348, 61.02124
441.2169, 63.58063
441.6990, 64.65851
442.1812, 65.92029
442.6633, 64.69171
443.1454, 57.90131
443.6275, 38.27124
444.1096, 19.68726
444.5917, 5.082581
445.0739, 5.192627
445.5560, 7.659790
446.0381, 5.699951
446.5202, 22.08069
447.0023, 33.95563
447.4844, 41.17090
447.9666, 43.25317
448.4487, 38.57703
448.9308, 29.23999
449.4129, 19.17548
449.8950, 5.595581
450.3771, 3.979065
450.8593, 6.411072
451.3413, 1.060547
451.8235, 8.701904
452.3056, 25.23615
452.7877, 42.54614
453.2698, 52.57300
453.7519, 54.82153
454.2340, 54.77557
454.7162, 53.95105
455.1983, 52.10083
455.6804, 47.37286
456.1625, 39.54028
456.6446, 32.39264
457.1267, 29.29016
457.6089, 29.38501
458.0910, 30.47021
458.5731, 32.86877
459.0552, 34.65680
459.5373, 30.74261
460.0194, 23.58759
460.5016, 21.36694
460.9837, 35.98248
461.4658, 54.08972
461.9479, 61.81012
462.4300, 55.97162
462.9121, 49.55280
463.3943, 50.29199
463.8764, 53.89703
464.3585, 54.82086
464.8406, 53.05109
465.3227, 46.76984
465.8048, 30.00861
466.2870, 3.272339
466.7691, 10.10669
467.2512, 5.387756
467.7333, 26.76642
468.2154, 40.09497
468.6975, 41.81421
469.1797, 41.00562
469.6618, 36.52423
470.1439, 30.58429
470.6260, 27.36310
471.1081, 28.14532
471.5902, 30.26025
472.0724, 33.46265
472.5545, 38.12140
473.0366, 39.08264
473.5187, 35.41425
474.0008, 29.72656
474.4829, 24.12964
474.9651, 18.93768
475.4472, 17.94427
475.9293, 25.95233
476.4114, 36.36365
476.8935, 32.48358
477.3756, 15.59259
477.8578, 0.9978640
478.3399, 1.226135
478.8220, 10.50134
479.3041, 20.88409
479.7862, 31.69604
480.2683, 41.25720
480.7505, 49.04102
481.2326, 54.60950
481.7147, 57.13129
482.1968, 56.01569
482.6789, 52.00488
483.1610, 42.69025
483.6432, 26.50317
484.1253, 17.43652
484.6074, 26.47510
485.0895, 42.25598
485.5716, 53.06183
486.0537, 52.57983
486.5359, 52.14075
487.0180, 53.50299
487.5001, 55.77411
487.9822, 54.08008
488.4643, 44.16333
488.9464, 36.87903
489.4286, 40.73767
489.9107, 60.64111
490.3928, 65.37811
490.8749, 49.73462
491.3570, 27.84741
491.8391, 22.75287
492.3213, 34.40167
492.8034, 41.64575
493.2855, 33.21436
493.7676, 16.74200
494.2497, 13.96796
494.7318, 24.59375
495.2140, 33.38641
495.6961, 19.54797
496.1782, 2.896790
496.6603, 7.316162
497.1424, 18.42090
497.6245, 48.35980
498.1067, 64.95343
498.5888, 70.32233
499.0709, 69.70264
499.5530, 60.84021
500.0351, 50.24329
500.5172, 40.65924
500.9994, 32.32849
501.4815, 26.23236
501.9636, 20.35266
502.4457, 17.81775
502.9278, 21.07776
503.4099, 39.93768
503.8921, 54.20972
504.3742, 61.91711
504.8563, 63.16962
505.3384, 56.99805
505.8205, 37.70544
506.3026, 21.90662
506.7848, 19.35376
507.2669, 32.45892
507.7490, 40.99469
508.2311, 44.11957
508.7132, 43.65399
509.1953, 40.60925
509.6775, 35.33063
510.1596, 32.47980
510.6417, 35.17969
511.1238, 40.21057
511.6059, 40.34558
512.0880, 36.04803
512.5701, 32.68286
513.0522, 36.72650
513.5344, 42.83386
514.0165, 43.35077
514.4986, 34.80780
514.9807, 26.87177
515.4628, 27.80133
515.9449, 33.06189
516.4271, 34.94403
516.9092, 29.48950
517.3913, 21.57898
517.8734, 10.45258
518.3555, 4.181335
518.8376, 11.32544
519.3198, 4.820435
519.8019, 6.101807
520.2840, 16.46387
520.7661, 28.00055
521.2482, 35.52094
521.7303, 39.54681
522.2125, 39.56110
522.6946, 30.90967
523.1767, 8.424194
523.6588, 2.873108
524.1409, 14.48102
524.6230, 53.69934
525.1052, 70.54932
525.5873, 62.65460
526.0694, 44.41364
526.5515, 22.94562
527.0336, 1.979370
527.5157, 5.510925
527.9979, 9.917969
528.4800, 28.90106
528.9621, 29.02313
529.4442, 15.36414
529.9263, 2.938232
530.4084, 1.281616
530.8906, 0.8341060
531.3727, 3.442566
531.8548, 12.17969
532.3369, 18.43732
532.8190, 16.01038
533.3011, 11.94989
533.7833, 12.72144
534.2654, 28.50952
534.7475, 37.67737
535.2296, 34.74652
535.7117, 23.32654
536.1938, 17.23352
536.6760, 18.02179
537.1581, 21.51666
537.6402, 27.34222
538.1223, 35.96881
538.6044, 38.44952
539.0865, 32.61212
539.5687, 27.43958
540.0508, 36.72906
540.5329, 56.82062
541.0150, 68.78870
541.4971, 65.42090
541.9792, 54.37091
542.4614, 46.20154
542.9435, 40.62347
543.4256, 36.41083
543.9077, 34.70166
544.3898, 32.93011
544.8719, 26.86731
545.3541, 14.91821
545.8362, 7.751465
546.3183, 13.96313
546.8004, 26.19214
547.2825, 36.46008
547.7646, 42.17181
548.2468, 46.44019
548.7289, 49.95581
549.2110, 52.50305
549.6931, 52.86267
550.1752, 48.19611
550.6573, 45.23859
551.1395, 47.76556
551.6216, 57.46307
552.1037, 62.83649
552.5858, 64.25568
553.0679, 61.65594
553.5500, 48.63284
554.0322, 24.88229
554.5143, 11.85754
554.9964, 19.18011
555.4785, 35.32581
555.9606, 40.41901
556.4427, 36.15570
556.9249, 31.51965
557.4070, 30.51813
557.8891, 32.80283
558.3712, 40.02222
558.8533, 53.14319
559.3354, 62.33762
559.8176, 60.00162
560.2997, 51.96774
560.7818, 44.21332
561.2639, 36.35904
561.7460, 31.12592
562.2281, 30.32690
562.7103, 32.85934
563.1924, 34.43600
563.6745, 33.97183
564.1566, 33.97278
564.6387, 36.00928
565.1208, 40.68622
565.6030, 40.74249
566.0851, 34.22528
566.5672, 27.72568
567.0493, 28.88696
567.5314, 36.83759
568.0135, 45.26276
568.4957, 54.57120
568.9778, 61.76999
569.4599, 58.35062
569.9420, 46.95120
570.4241, 38.91257
570.9063, 46.04086
571.3884, 55.92834
571.8705, 54.03650
572.3526, 39.85474
572.8347, 27.75558
573.3168, 26.76746
573.7990, 30.41342
574.2811, 33.23767
574.7632, 32.28198
575.2453, 33.12509
575.7274, 39.73837
576.2095, 47.80255
576.6917, 49.46677
577.1738, 44.06216
577.6559, 35.40118
578.1380, 22.08789
578.6201, 4.746002
579.1022, 6.198669
579.5844, 10.98462
580.0665, 8.332916
580.5486, 8.645630
581.0307, 36.64359
581.5128, 47.29678
581.9949, 35.14642
582.4771, 16.69247
582.9592, 10.07803
583.4413, 13.35156
583.9234, 21.67264
584.4055, 42.03900
584.8876, 59.48096
585.3698, 57.56708
585.8519, 41.12323
586.3340, 30.08795
586.8161, 39.37476
587.2982, 51.74872
587.7803, 57.07248
588.2625, 50.69598
588.7446, 46.67160
589.2267, 48.78378
589.7088, 51.54388
590.1909, 48.46954
590.6730, 36.58588
591.1552, 26.79282
591.6373, 20.28021
592.1194, 17.39780
592.6015, 22.23520
593.0836, 35.59830
593.5657, 43.35046
594.0479, 31.28546
594.5300, 8.388611
595.0121, 1.916992
595.4942, 12.90771
595.9763, 23.55515
596.4584, 13.30786
596.9406, 4.246613
597.4227, 10.86847
597.9048, 3.207275
598.3869, 19.89539
598.8690, 33.73727
599.3511, 44.02173
599.8333, 49.67725
600.3154, 50.57843
600.7975, 46.47330
601.2796, 32.95428
601.7617, 10.54520
602.2438, 4.119690
602.7260, 22.82645
603.2081, 41.69873
603.6902, 42.32889
604.1723, 22.80530
604.6544, 11.18069
605.1365, 9.331238
605.6187, 13.94815
606.1008, 25.08154
606.5829, 40.14288
607.0650, 47.79977
607.5471, 40.86551
608.0292, 28.91791
608.5114, 23.86609
608.9935, 23.60986
609.4756, 20.56238
609.9577, 2.591553
610.4398, 13.02283
610.9219, 12.42355
611.4041, 8.561279
611.8862, 23.00024
612.3683, 19.93817
612.8504, 12.02078
613.3325, 8.929382
613.8146, 13.11609
614.2968, 17.44296
614.7789, 21.99539
615.2610, 26.16974
615.7431, 28.65195
616.2252, 29.36292
616.7073, 29.01828
617.1895, 26.83740
617.6716, 24.21341
618.1537, 26.92957
618.6358, 34.61658
619.1179, 39.08182
619.6000, 28.87186
620.0822, 15.03580
620.5643, 12.39447
621.0464, 24.57901
621.5285, 37.17422
622.0106, 46.81036
622.4927, 50.77100
622.9749, 46.05658
623.4570, 19.07877
623.9391, 1.162323
624.4212, 10.12003
624.9033, 9.787628
625.3854, 3.588806
625.8676, 12.66101
626.3497, 25.38031
626.8318, 29.12595
627.3139, 24.78232
627.7960, 19.60907
628.2781, 13.11780
628.7603, 9.775024
629.2424, 17.47089
629.7245, 30.93716
630.2066, 35.44751
630.6887, 27.68686
631.1708, 17.68219
631.6530, 12.98123
632.1351, 12.18060
632.6172, 13.16180
633.0993, 18.51959
633.5814, 22.18674
634.0635, 19.08945
634.5457, 11.42587
635.0278, 9.818024
635.5099, 25.72253
635.9920, 35.77475
636.4741, 28.83203
636.9562, 2.512360
637.4384, 4.441284
637.9205, 15.04831
638.4026, 36.36792
638.8847, 33.40012
639.3668, 9.635986
639.8489, 5.8196999E-02
640.3311, 11.04889
640.8132, 25.93018
641.2953, 21.66199
641.7774, 6.042358
642.2595, 3.943848
642.7416, 0.1518250
643.2238, 9.732422
643.7059, 26.31622
644.1880, 46.10052
644.6701, 57.61127
645.1522, 47.71390
645.6343, 36.53943
646.1165, 32.26443
646.5986, 35.59418
647.0807, 38.94318
647.5628, 43.32974
648.0449, 46.30927
648.5270, 45.89499
649.0092, 41.91440
649.4913, 36.31262
649.9734, 28.46585
650.4555, 21.12872
650.9376, 19.20355
651.4197, 21.16333
651.9019, 21.29446
652.3840, 14.27444
652.8661, 8.714325
653.3482, 15.92401
653.8303, 31.88599
654.3124, 44.37207
654.7946, 49.78165
655.2767, 48.50345
655.7588, 38.88193
656.2409, 18.72543
656.7230, 5.815674
657.2051, 1.997131
657.6872, 4.157623
658.1693, 12.79135
658.6514, 31.70227
659.1335, 38.71805
659.6157, 30.61389
660.0978, 16.98532
660.5799, 10.17081
661.0620, 9.188782
661.5441, 8.228760
662.0262, 3.992188
662.5084, 2.003296
662.9905, 13.91400
663.4726, 33.99805
663.9547, 46.71725
664.4368, 38.29099
664.9189, 25.98517
665.4011, 17.24823
665.8832, 12.48010
666.3653, 11.85428
666.8474, 19.61945
667.3295, 27.79868
667.8116, 32.21109
668.2938, 29.98074
668.7759, 34.74261
669.2580, 51.80807
669.7401, 65.91180
670.2222, 55.17944
670.7043, 23.05432
671.1865, 6.421844
671.6686, 16.09299
672.1507, 33.46066
672.6328, 33.05334
673.1149, 22.10394
673.5970, 17.82779
674.0792, 42.31329
674.5613, 62.19543
675.0434, 51.28778
675.5255, 16.18268
676.0076, 7.181915
676.4897, 4.964569
676.9719, 4.857025
677.4540, 18.02777
677.9361, 35.76770
678.4182, 44.70203
678.9003, 43.30972
679.3824, 36.48676
679.8646, 24.67932
680.3467, 8.992645
680.8288, 4.041534
681.3109, 12.95422
681.7930, 24.94928
682.2751, 28.38696
682.7573, 25.83960
683.2394, 21.51944
683.7215, 14.33337
684.2036, 8.445251
684.6857, 6.548767
685.1678, 7.793274
685.6500, 10.14737
686.1321, 12.55045
686.6142, 16.78598
687.0963, 25.05054
687.5784, 36.36533
688.0605, 41.94781
688.5427, 41.02173
689.0248, 36.26596
689.5069, 27.49594
689.9890, 15.30499
690.4711, 4.239716
690.9532, 6.160339
691.4354, 9.591919
691.9175, 8.449310
692.3996, 34.79578
692.8817, 46.87653
693.3638, 36.38538
693.8459, 23.38742
694.3281, 17.08615
694.8102, 15.84103
695.2923, 17.32007
695.7744, 26.34787
696.2565, 32.23975
696.7386, 33.28122
697.2208, 30.49237
697.7029, 25.76343
698.1850, 17.97113
698.6671, 12.43243
699.1492, 12.26364
699.6313, 15.44202
700.1135, 14.42801
700.5956, 9.701569
701.0777, 4.395844
701.5598, 4.635468
702.0419, 10.27942
702.5240, 1.128693
703.0062, 31.50412
703.4883, 54.18262
703.9704, 48.76807
704.4525, 35.05518
704.9346, 28.28339
705.4167, 35.42334
705.8989, 41.31848
706.3810, 46.22125
706.8631, 49.56003
707.3452, 50.57898
707.8273, 49.12207
708.3094, 45.91473
708.7916, 40.05038
709.2737, 34.23032
709.7558, 34.51266
710.2379, 39.51535
710.7200, 43.64020
711.2021, 45.96155
711.6843, 45.01791
712.1664, 36.21548
712.6485, 22.73648
713.1306, 14.38315
713.6127, 15.97244
714.0948, 22.14178
714.5770, 32.63174
715.0591, 47.92966
715.5412, 56.50851
716.0233, 56.02563
716.5054, 52.85944
716.9875, 50.98251
717.4697, 50.39990
717.9518, 48.64322
718.4339, 45.24500
718.9160, 43.39673
719.3981, 48.80576
719.8802, 57.80396
720.3624, 63.53751
720.8445, 64.39795
721.3266, 61.38416
721.8087, 52.36798
722.2908, 41.95523
722.7729, 36.32849
723.2551, 40.16647
723.7372, 44.90759
724.2193, 50.68182
724.7014, 56.18625
725.1835, 57.49194
725.6656, 54.00754
726.1478, 48.45569
726.6299, 40.80991
727.1120, 32.88544
727.5941, 31.35309
728.0762, 35.60358
728.5583, 42.55164
729.0405, 54.06982
729.5226, 64.68845
730.0047, 67.57291
730.4868, 62.27283
730.9689, 58.86728
731.4510, 64.20728
731.9332, 70.55914
732.4153, 72.66757
732.8974, 68.81351
733.3795, 66.23212
733.8616, 66.95355
734.3438, 65.67853
734.8259, 53.82776
735.3080, 31.64569
735.7901, 17.70523
736.2722, 15.14093
736.7543, 19.37604
737.2365, 27.43167
737.7186, 37.66580
738.2007, 46.76511
738.6828, 54.41440
739.1649, 59.53125
739.6470, 60.79153
740.1292, 59.52701
740.6113, 57.50058
741.0934, 58.04333
741.5755, 54.37137
742.0576, 41.63257
742.5397, 23.76996
743.0219, 20.04749
743.5040, 32.49405
743.9861, 46.68146
744.4682, 57.97510
744.9503, 65.11694
745.4324, 61.60822
745.9146, 48.63156
746.3967, 38.26089
746.8788, 41.52698
747.3609, 49.12732
747.8430, 53.64243
748.3251, 54.05127
748.8073, 53.03387
749.2894, 52.37515
749.7715, 50.04361
750.2536, 42.77689
750.7357, 24.90506
751.2178, 21.61972
751.7000, 37.46448
752.1821, 57.22372
752.6642, 63.77191
753.1463, 58.63580
753.6284, 47.61697
754.1105, 28.12848
754.5927, 14.83142
755.0748, 32.60022
755.5569, 63.63519
756.0390, 80.11359
756.5211, 58.23215
757.0032, 36.26779
757.4854, 23.49420
757.9675, 18.09521
758.4496, 16.27618
758.9317, 20.18283
759.4138, 22.82983
759.8959, 22.27759
760.3781, 19.94016
760.8602, 17.35941
761.3423, 14.69476
761.8244, 14.15289
762.3065, 18.42722
762.7886, 24.60446
763.2708, 27.56232
763.7529, 28.30597
764.2350, 33.30469
764.7171, 54.09390
765.1992, 72.69293
765.6813, 78.08270
766.1635, 67.93356
766.6456, 59.54358
767.1277, 53.57922
767.6098, 48.26569
768.0919, 43.93759
768.5740, 40.51465
769.0562, 28.77399
769.5383, 7.308929
770.0204, 10.75626
770.5025, 10.74637
770.9846, 1.1902000E-02
771.4667, 10.05478
771.9489, 17.69733
772.4310, 24.70087
772.9131, 35.21820
773.3952, 44.00378
773.8773, 45.46375
774.3594, 33.38889
774.8416, 22.26788
775.3237, 11.12537
775.8058, 2.308258
776.2879, 0.6467900
776.7700, 6.215179
777.2521, 6.410767
777.7343, 4.395081
778.2164, 14.90552
778.6985, 5.779694
779.1806, 15.72852
779.6627, 33.43884
780.1448, 38.39160
780.6270, 40.19171
781.1091, 44.15222
781.5912, 48.30801
782.0733, 46.42477
782.5554, 35.79004
783.0375, 22.60333
783.5197, 5.596252
784.0018, 12.02109
784.4839, 17.51196
784.9660, 10.61469
785.4481, 0.3717350
785.9302, 9.034882
786.4124, 18.87146
786.8945, 34.63226
787.3766, 54.11511
787.8587, 65.22638
788.3408, 53.20859
788.8229, 38.06763
789.3051, 32.13074
789.7872, 36.97266
790.2693, 36.37619
790.7514, 26.63788
791.2335, 16.84833
791.7156, 11.70346
792.1978, 11.18723
792.6799, 12.07538
793.1620, 14.32224
793.6441, 18.48831
794.1262, 28.51047
794.6083, 39.06912
795.0905, 42.96616
795.5726, 39.20871
796.0547, 31.60516
796.5368, 15.92700
797.0189, 1.088257
797.5010, 5.146057
797.9832, 0.6945500
798.4653, 7.476898
798.9474, 16.34366
799.4295, 24.30850
799.9116, 28.13803
800.3937, 28.04340
800.8759, 26.38876
801.3580, 22.80099
801.8401, 20.50931
802.3222, 25.53317
802.8043, 34.76944
803.2864, 40.10461
803.7686, 35.52884
804.2507, 30.17868
804.7328, 27.35175
805.2149, 25.89331
805.6970, 23.87479
806.1791, 20.12433
806.6613, 18.95380
807.1434, 21.52063
807.6255, 25.86963
808.1076, 29.97647
808.5897, 33.29889
809.0718, 31.73779
809.5540, 19.88519
810.0361, 9.614807
810.5182, 17.00681
811.0003, 33.80429
811.4824, 43.91986
811.9645, 30.59970
812.4467, 23.49408
812.9288, 36.79950
813.4109, 60.06110
813.8930, 65.09708
814.3751, 46.25278
814.8572, 33.35870
815.3394, 38.55603
815.8215, 51.79657
816.3036, 48.10727
816.7857, 31.04886
817.2678, 17.87064
817.7499, 19.36026
818.2321, 24.66528
818.7142, 26.46179
819.1963, 25.90494
819.6784, 27.05988
820.1605, 34.63785
820.6426, 39.32925
821.1248, 37.40637
821.6068, 30.38254
822.0889, 27.19116
822.5710, 28.01047
823.0532, 30.78342
823.5353, 31.49979
824.0174, 34.62796
824.4995, 56.79083
824.9816, 92.72339
825.4637, 112.8945
825.9459, 83.69342
826.4280, 49.62317
826.9101, 37.19360
827.3922, 48.92416
827.8743, 50.83295
828.3564, 38.41138
828.8386, 26.81946
829.3207, 22.97714
829.8028, 25.52731
830.2849, 21.38654
830.7670, 10.78693
831.2491, 7.719269
831.7313, 34.07376
832.2134, 66.35956
832.6955, 73.78241
833.1776, 54.78583
833.6597, 44.43906
834.1418, 73.49820
834.6240, 97.03973
835.1061, 87.62524
835.5882, 39.43524
836.0703, 14.41406
836.5524, 18.51001
837.0345, 29.71741
837.5167, 33.84113
837.9988, 32.47000
838.4809, 26.42175
838.9630, 16.93469
839.4451, 10.23230
839.9272, 9.020111
840.4094, 13.44724
840.8915, 27.21268
841.3736, 55.91937
841.8557, 66.46826
842.3378, 47.53976
842.8199, 25.18259
843.3021, 15.63699
843.7842, 18.74979
844.2663, 23.92123
844.7484, 31.43384
845.2305, 36.84329
845.7126, 35.75192
846.1948, 30.62534
846.6769, 23.78964
847.1590, 15.02985
847.6411, 9.172455
848.1232, 5.372650
848.6053, 7.438263
849.0875, 21.00781
849.5696, 54.44815
850.0517, 62.71179
850.5338, 38.33832
851.0159, 9.482910
851.4980, 0.3891910
851.9802, 7.829712
852.4623, 25.99185
852.9444, 55.60315
853.4265, 76.50128
853.9086, 63.52243
854.3907, 40.69904
854.8729, 30.27151
855.3550, 41.47473
855.8371, 47.27747
856.3192, 44.56232
856.8013, 37.38748
857.2834, 26.56982
857.7656, 11.84302
858.2477, 8.353668
858.7298, 18.43805
859.2119, 26.01285
859.6940, 6.724396
860.1761, 20.34119
860.6583, 26.95203
861.1404, 4.889740
861.6225, 16.41315
862.1046, 22.72266
862.5867, 26.63284
863.0688, 38.61237
863.5510, 64.70731
864.0331, 76.85870
864.5152, 73.34253
864.9973, 64.51642
865.4794, 60.23114
865.9615, 58.10086
866.4437, 51.72910
866.9258, 40.25479
867.4079, 32.26752
867.8900, 38.34357
868.3721, 47.11935
868.8542, 47.36374
869.3364, 30.64734
869.8185, 28.19193
870.3006, 48.74603
870.7827, 69.49036
871.2648, 68.94846
871.7469, 49.71445
872.2291, 42.14914
872.7112, 48.61673
873.1933, 52.99225
873.6754, 36.01663
874.1575, 12.66318
874.6396, 2.046844
875.1218, 5.331787
875.6039, 3.125122
876.0860, 7.597839
876.5681, 19.59177
877.0502, 28.62451
877.5323, 34.12555
878.0145, 42.02112
878.4966, 52.50391
878.9787, 64.00006
879.4608, 80.30652
879.9429, 94.76614
880.4250, 93.75989
880.9072, 75.76868
881.3893, 57.54761
881.8714, 46.01099
882.3535, 38.07446
882.8356, 31.38599
883.3177, 25.24197
883.7999, 25.71390
884.2820, 34.44260
884.7641, 44.80182
885.2462, 55.62704
885.7283, 64.22806
886.2104, 59.87646
886.6926, 43.05811
887.1747, 27.11206
887.6568, 20.53839
888.1389, 17.57300
888.6210, 14.29272
889.1031, 10.25937
889.5853, 9.879059
890.0674, 14.41168
890.5495, 20.08124
891.0316, 26.24576
891.5137, 32.20624
891.9958, 32.10214
892.4780, 25.96802
892.9601, 20.88809
893.4422, 26.01489
893.9243, 30.68506
894.4064, 20.42923
894.8885, 2.640991
895.3707, 12.18079
895.8528, 11.89987
896.3349, 32.60284
896.8170, 36.49231
897.2991, 27.03748
897.7813, 24.39352
898.2634, 28.64954
898.7455, 33.58136
899.2276, 37.54462
899.7097, 39.06525
900.1918, 34.93637
900.6740, 26.44955
901.1561, 18.40393
901.6382, 6.776581
902.1203, 2.930542
902.6024, 13.66650
903.0845, 34.03781
903.5667, 46.07855
904.0488, 49.25876
904.5309, 48.37393
905.0130, 42.56088
905.4951, 36.79056
905.9772, 42.13782
906.4594, 54.10852
906.9415, 60.73328
907.4236, 50.17899
907.9057, 40.92673
908.3878, 38.01938
908.8699, 41.06943
909.3521, 52.23245
909.8342, 77.58917
910.3163, 87.23630
910.7984, 70.54272
911.2805, 43.90155
911.7626, 34.81445
912.2448, 37.61475
912.7269, 38.61615
913.2090, 31.18253
913.6911, 24.53281
914.1732, 22.17416
914.6553, 23.99521
915.1375, 29.99704
915.6196, 41.17105
916.1017, 48.12988
916.5838, 49.19543
917.0659, 49.33612
917.5480, 57.61920
918.0302, 68.90118
918.5123, 73.92676
918.9944, 72.86407
919.4765, 64.19601
919.9586, 34.81372
920.4407, 3.961884
920.9229, 7.954895
921.4050, 11.96185
921.8871, 18.69946
922.3692, 6.922699
922.8513, 6.556000
923.3334, 4.134857
923.8156, 9.849121
924.2977, 19.32678
924.7798, 23.02838
925.2619, 24.54785
925.7440, 25.09708
926.2261, 25.72617
926.7083, 26.32611
927.1904, 26.95856
927.6725, 31.33969
928.1546, 44.05753
928.6367, 51.39197
929.1188, 41.52560
929.6010, 20.08224
930.0831, 8.698120
930.5652, 6.968384
931.0473, 13.03442
931.5294, 37.36206
932.0115, 58.68909
932.4937, 57.11261
932.9758, 34.78223
933.4579, 19.61493
933.9400, 15.85944
934.4221, 15.17511
934.9042, 15.77454
935.3864, 17.08514
935.8685, 17.13956
936.3506, 16.15921
936.8327, 15.50510
937.3148, 13.78812
937.7969, 14.70682
938.2791, 24.73346
938.7612, 39.08078
939.2433, 46.34979
939.7254, 42.03711
940.2075, 35.49100
940.6896, 26.11414
941.1718, 17.31549
941.6539, 17.07544
942.1360, 23.62012
942.6181, 27.49680
943.1002, 26.19739
943.5823, 21.77286
944.0645, 9.843872
944.5466, 1.678589
945.0287, 2.659485
945.5108, 21.58200
945.9929, 33.60342
946.4750, 29.31769
946.9572, 19.68250
947.4393, 16.57602
947.9214, 18.43222
948.4035, 14.38550
948.8856, 2.570099
949.3677, 2.834686
949.8499, 18.25058
950.3320, 43.84344
950.8141, 53.81802
951.2962, 41.65353
951.7783, 37.26938
952.2604, 45.69666
952.7426, 52.24872
953.2247, 45.45532
953.7068, 31.07541
954.1889, 29.55197
954.6710, 39.39532
955.1531, 47.34473
955.6353, 44.33646
956.1174, 37.33276
956.5995, 28.49045
957.0816, 19.09854
957.5637, 16.24561
958.0458, 24.63998
958.5280, 28.20129
959.0101, 19.44977
959.4922, 5.886932
959.9743, 6.342316
960.4564, 18.16153
960.9385, 31.36459
961.4207, 45.08789
961.9028, 54.93643
962.3849, 56.76196
962.8670, 53.69553
963.3491, 51.80069
963.8312, 54.51712
964.3134, 48.78241
964.7955, 30.39810
965.2776, 10.57196
965.7597, 5.374603
966.2418, 10.47650
966.7239, 13.00323
967.2061, 8.399872
967.6882, 12.97623
968.1703, 52.27258
968.6524, 92.22949
969.1345, 102.7104
969.6166, 76.52509
970.0988, 61.31641
970.5809, 60.20126
971.0630, 56.39883
971.5451, 28.35254
972.0272, 7.878479
972.5093, 19.47910
972.9915, 7.541870
973.4736, 6.284851
973.9557, 16.20087
974.4378, 21.28857
974.9199, 18.83707
975.4020, 11.17200
975.8842, 10.01388
976.3663, 16.37244
976.8484, 19.45129
977.3305, 13.15421
977.8126, 3.957916
978.2947, 0.1876530
978.7769, 0.3605650
979.2590, 3.781738
979.7411, 9.219940
980.2232, 17.60587
980.7053, 34.46216
981.1874, 50.10812
981.6696, 48.04373
982.1517, 27.42447
982.6338, 9.535522
983.1159, 3.670898
983.5980, 7.432007
984.0801, 14.33478
984.5623, 42.27805
985.0444, 53.90063
985.5265, 42.04498
986.0085, 24.92297
986.4907, 4.383057
986.9728, 24.66074
987.4549, 17.35022
987.9370, 13.69901
988.4191, 25.64893
988.9012, 19.53598
989.3834, 13.82477
989.8655, 24.68539
990.3476, 37.16367
990.8297, 39.08511
991.3118, 31.90771
991.7939, 27.58057
992.2761, 27.83731
992.7582, 29.01801
993.2403, 31.20627
993.7224, 32.49472
994.2045, 26.59180
994.6866, 16.00671
995.1688, 8.825317
995.6509, 7.761139
996.1330, 10.96756
996.6151, 18.33804
997.0972, 29.27222
997.5793, 44.46564
998.0615, 69.69083
998.5436, 77.19354
999.0257, 62.64523
999.5078, 43.40237
999.9899, 36.68539
1000.472, 37.76022
1000.954, 39.74142
1001.436, 41.88608
1001.918, 41.81284
1002.401, 30.24637
1002.883, 25.09326
1003.365, 39.83774
1003.847, 70.37576
1004.329, 74.64349
1004.811, 52.07016
1005.293, 29.68451
1005.775, 15.83191
1006.257, 13.48380
1006.740, 37.91959
1007.222, 75.47076
1007.704, 94.10089
1008.186, 65.93320
1008.668, 43.24576
1009.150, 32.84186
1009.632, 28.79977
1010.114, 20.85727
1010.596, 10.65427
1011.079, 8.601379
1011.561, 17.79898
1012.043, 28.34998
1012.525, 34.00558
1013.007, 36.54471
1013.489, 36.82846
1013.971, 34.15851
1014.453, 33.96875
1014.936, 37.06964
1015.418, 40.03125
1015.900, 42.09241
1016.382, 41.90500
1016.864, 33.10138
1017.346, 17.98352
1017.828, 8.276184
1018.310, 14.93466
1018.792, 22.15115
1019.275, 24.37460
1019.757, 22.84088
1020.239, 18.92194
1020.721, 12.23575
1021.203, 11.58582
1021.685, 20.69678
1022.167, 31.91861
1022.649, 38.01736
1023.132, 40.14154
1023.614, 39.86996
1024.096, 37.93680
1024.578, 31.48547
1025.060, 14.27862
1025.542, 2.167084
1026.024, 11.39774
1026.506, 37.87973
1026.989, 56.65353
1027.471, 67.41559
1027.953, 70.79501
1028.435, 57.72714
1028.917, 45.29187
1029.399, 46.41537
1029.881, 58.17371
1030.363, 63.96237
1030.845, 64.54105
1031.328, 61.40399
1031.810, 52.34198
1032.292, 44.23022
1032.774, 50.32303
1033.256, 64.39368
1033.738, 73.42194
1034.220, 71.94974
1034.702, 67.79651
1035.184, 58.56787
1035.667, 51.43906
1036.149, 54.72281
1036.631, 68.52704
1037.113, 71.90253
1037.595, 64.00262
1038.077, 55.11987
1038.559, 47.37891
1039.041, 46.52328
1039.524, 66.06931
1040.006, 102.7921
1040.488, 111.6120
1040.970, 76.92267
1041.452, 47.22833
1041.934, 37.64304
1042.416, 42.04901
1042.898, 55.00928
1043.380, 71.89648
1043.863, 79.46597
1044.345, 65.82959
1044.827, 54.58652
1045.309, 62.13385
1045.791, 74.52478
1046.273, 76.51868
1046.755, 66.44736
1047.237, 65.87115
1047.719, 76.55716
1048.202, 82.05511
1048.684, 58.91745
1049.166, 30.54132
1049.648, 24.69357
1050.130, 40.79800
1050.612, 49.07828
1051.094, 41.39810
1051.576, 35.27716
1052.059, 35.63199
1052.541, 40.47449
1053.023, 45.52341
1053.505, 51.06665
1053.987, 59.23035
1054.469, 76.48462
1054.951, 84.68359
1055.433, 68.21832
1055.916, 43.00900
1056.398, 24.04932
1056.880, 11.82999
1057.362, 4.434418
1057.844, 2.123291
1058.326, 4.885132
1058.808, 17.23062
1059.290, 31.99911
1059.772, 41.14075
1060.255, 44.89667
1060.737, 43.71558
1061.219, 31.65668
1061.701, 27.03278
1062.183, 38.75742
1062.665, 54.88257
1063.147, 42.67865
1063.629, 13.08365
1064.111, 2.417297
1064.594, 31.52435
1065.076, 55.00223
1065.558, 41.70657
1066.040, 18.70810
1066.522, 9.199097
1067.004, 14.76880
1067.486, 26.57507
1067.968, 45.84457
1068.450, 58.63138
1068.933, 47.92786
1069.415, 30.84760
1069.897, 27.37228
1070.379, 34.67459
1070.861, 34.65845
1071.343, 18.15903
1071.825, 8.573456
1072.307, 12.46002
1072.790, 21.19620
1073.272, 18.83975
1073.754, 9.385315
1074.236, 2.478973
1074.718, 1.313751
1075.200, 4.044830
1075.682, 34.46780
1076.164, 63.35168
1076.646, 72.23682
1077.129, 61.24045
1077.611, 53.18585
1078.093, 48.00888
1078.575, 45.15274
1079.057, 45.35809
1079.539, 46.78262
1080.021, 50.41663
1080.503, 53.90195
1080.985, 49.47659
1081.468, 27.35086
1081.950, 22.45923
1082.432, 44.88797
1082.914, 69.27026
1083.396, 59.17361
1083.878, 29.13480
1084.360, 4.954865
1084.842, 10.10275
1085.325, 13.48886
1085.807, 9.213104
1086.289, 29.81396
1086.771, 35.59293
1087.253, 29.54413
1087.735, 26.61377
1088.217, 26.08487
1088.699, 21.78119
1089.182, 3.906891
1089.664, 8.906128
1090.146, 5.551025
1090.628, 30.71216
1091.110, 42.18884
1091.592, 35.65887
1092.074, 27.54648
1092.556, 17.05237
1093.038, 12.45517
1093.521, 32.32108
1094.003, 55.93011
1094.485, 49.77716
1094.967, 16.05609
1095.449, 3.130951
1095.931, 12.65176
1096.413, 25.51520
1096.895, 24.77737
1097.377, 17.85486
1097.860, 22.97528
1098.342, 35.57312
1098.824, 39.86069
1099.306, 28.23807
1099.788, 19.22849
1100.270, 25.32596
1100.752, 33.41235
1101.234, 37.45966
1101.717, 37.58453
1102.199, 33.80936
1102.681, 26.24432
1103.163, 24.17780
1103.645, 42.77856
1104.127, 60.91003
1104.609, 56.88663
1105.091, 39.17963
1105.573, 31.96024
1106.056, 43.23059
1106.538, 43.22302
1107.020, 24.27277
1107.502, 4.386688
1107.984, 7.166443
1108.466, 23.11349
1108.948, 40.30307
1109.430, 57.72101
1109.912, 66.52582
1110.395, 59.21915
1110.877, 51.18289
1111.359, 48.31821
1111.841, 48.19250
1112.323, 44.16617
1112.805, 36.21411
1113.287, 25.16846
1113.769, 5.214752
1114.252, 6.276855
1114.734, 10.19373
1115.216, 29.91861
1115.698, 26.45935
1116.180, 3.305084
1116.662, 8.939392
1117.144, 10.22748
1117.626, 29.91461
1118.109, 32.01648
1118.591, 28.77148
1119.073, 31.75775
1119.555, 37.33200
1120.037, 30.93439
1120.519, 4.016693
1121.001, 4.520660
1121.483, 16.51270
1121.965, 43.36502
1122.448, 46.74591
1122.930, 36.14563
1123.412, 21.57913
1123.894, 2.372498
1124.376, 1.015106
1124.858, 24.03168
1125.340, 44.57361
1125.822, 45.56497
1126.304, 32.85342
1126.787, 17.40009
1127.269, 1.998627
1127.751, 4.437012
1128.233, 9.533295
1128.715, 20.37772
1129.197, 18.16089
1129.679, 12.74091
1130.161, 12.58563
1130.644, 17.36273
1131.126, 20.46701
1131.608, 21.80771
1132.090, 23.87698
1132.572, 31.77768
1133.054, 37.51239
1133.536, 30.69199
1134.018, 18.69409
1134.500, 24.50174
1134.983, 51.69321
1135.465, 61.46585
1135.947, 43.90155
1136.429, 23.10608
1136.911, 26.04218
1137.393, 37.76303
1137.875, 42.63364
1138.357, 37.69193
1138.839, 35.83109
1139.322, 38.46194
1139.804, 39.36938
1140.286, 34.57376
1140.768, 28.27524
1141.250, 27.80002
1141.732, 31.14069
1142.214, 34.74188
1142.696, 41.09024
1143.179, 39.05151
1143.661, 23.78430
1144.143, 9.433929
1144.625, 12.21417
1145.107, 24.84042
1145.589, 19.53604
1146.071, 0.4291690
1146.553, 12.69189
1147.036, 0.5500490
1147.518, 13.13971
1148.000, 24.89197
1148.482, 32.42892
1148.964, 29.38702
1149.446, 17.95535
1149.928, 12.18875
1150.410, 14.36386
1150.892, 19.15012
1151.375, 25.54984
1151.857, 31.05850
1152.339, 33.46848
1152.821, 33.52231
1153.303, 35.44510
1153.785, 39.35858
1154.267, 41.11743
1154.749, 37.30563
1155.231, 35.76242
1155.714, 55.62253
1156.196, 74.80170
1156.678, 60.38110
1157.160, 2.6520001E-02
1157.642, 20.66635
1158.124, 2.749908
1158.606, 33.76889
1159.088, 56.90033
1159.571, 69.03223
1160.053, 58.98016
1160.535, 36.17438
1161.017, 24.44662
1161.499, 35.35550
1161.981, 38.03406
1162.463, 28.94724
1162.945, 15.99603
1163.427, 3.715210
1163.910, 4.739349
1164.392, 0.9525150
1164.874, 14.01584
1165.356, 23.50833
1165.838, 19.71811
1166.320, 16.22968
1166.802, 15.59369
1167.284, 17.24243
1167.766, 23.32208
1168.249, 30.25650
1168.731, 27.34006
1169.213, 9.325592
1169.695, 0.6963200
1170.177, 21.80396
1170.659, 38.67392
1171.141, 33.06628
1171.623, 13.81494
1172.106, 14.41180
1172.588, 30.20483
1173.070, 39.97699
1173.552, 30.73108
1174.034, 22.42609
1174.516, 28.89792
1174.998, 34.94296
1175.480, 24.81488
1175.963, 0.2906190
1176.445, 14.79367
1176.927, 18.86090
1177.409, 16.22595
1177.891, 2.615265
1178.373, 9.981171
1178.855, 14.49454
1179.337, 14.86172
1179.819, 14.78076
1180.302, 14.22321
1180.784, 15.33740
1181.266, 18.48532
1181.748, 20.87564
1182.230, 18.97684
1182.712, 17.28235
1183.194, 19.02399
1183.676, 23.04849
1184.158, 22.52661
1184.641, 16.89032
1185.123, 13.46765
1185.605, 13.51019
1186.087, 17.37454
1186.569, 26.11624
1187.051, 36.78995
1187.533, 48.02890
1188.015, 59.96506
1188.498, 62.75583
1188.980, 55.56979
1189.462, 44.60669
1189.944, 28.52591
1190.426, 16.48074
1190.908, 23.64185
1191.390, 40.22296
1191.872, 52.30737
1192.354, 58.75864
1192.837, 57.56369
1193.319, 47.37512
1193.801, 36.29202
1194.283, 26.76193
1194.765, 21.79483
1195.247, 29.71164
1195.729, 45.23636
1196.211, 54.00604
1196.693, 49.73642
1197.176, 49.17493
1197.658, 55.35306
1198.140, 58.57864
1198.622, 43.34009
1199.104, 22.28918
1199.586, 13.70468
1200.068, 17.61227
1200.550, 25.82162
1201.033, 44.01227
1201.515, 50.21194
1201.997, 37.44687
1202.479, 18.75070
1202.961, 11.00302
1203.443, 11.18771
1203.925, 15.88705
1204.407, 24.52472
1204.890, 29.33337
1205.372, 23.91870
1205.854, 23.47678
1206.336, 35.90201
1206.818, 52.15244
1207.300, 53.30087
1207.782, 44.62253
1208.264, 35.85413
1208.746, 28.27032
1209.229, 24.28235
1209.711, 25.45560
1210.193, 27.21985
1210.675, 26.96606
1211.157, 25.74319
1211.639, 24.95639
1212.121, 25.49048
1212.603, 29.85184
1213.085, 46.45435
1213.568, 53.61511
1214.050, 46.21127
1214.532, 34.75482
1215.014, 23.77606
1215.496, 14.68991
1215.978, 22.67224
1216.460, 41.91913
1216.942, 54.01767
1217.425, 43.27795
1217.907, 36.08463
1218.389, 38.20389
1218.871, 42.79263
1219.353, 41.69028
1219.835, 36.81390
1220.317, 31.60779
1220.799, 26.98859
1221.281, 28.55515
1221.764, 47.56836
1222.246, 60.83276
1222.728, 61.56812
1223.210, 56.07742
1223.692, 55.36636
1224.174, 57.11768
1224.656, 54.95325
1225.138, 47.91010
1225.620, 39.51865
1226.103, 28.46420
1226.585, 19.47253
1227.067, 13.30859
1227.549, 10.53070
1228.031, 16.85861
1228.513, 27.77271
1228.995, 30.57681
1229.477, 20.53445
1229.960, 13.66867
1230.442, 12.07507
1230.924, 16.90381
1231.406, 32.57065
1231.888, 52.20029
1232.370, 54.06952
1232.852, 43.47272
1233.334, 34.49985
1233.816, 29.30997
1234.299, 31.10699
1234.781, 48.89819
1235.263, 62.20526
1235.745, 52.55914
1236.227, 30.17279
1236.709, 31.82333
1237.191, 50.10468
1237.673, 61.42078
1238.156, 54.96759
1238.638, 41.74713
1239.120, 18.09906
1239.602, 2.404175
1240.084, 6.821655
1240.566, 1.534851
1241.048, 18.37036
1241.530, 40.29089
1242.012, 54.52798
1242.495, 52.92157
1242.977, 46.02054
1243.459, 32.72406
1243.941, 20.33136
1244.423, 19.99982
1244.905, 26.02643
1245.387, 23.70532
1245.869, 13.88626
1246.351, 10.17422
1246.834, 27.54227
1247.316, 33.86026
1247.798, 19.65530
1248.280, 1.642090
1248.762, 4.077911
1249.244, 18.64124
1249.726, 32.12228
1250.208, 42.97729
1250.691, 45.59793
1251.173, 34.43729
1251.655, 26.05823
1252.137, 24.93878
1252.619, 27.38730
1253.101, 29.20981
1253.583, 29.93521
1254.065, 28.06998
1254.547, 22.95459
1255.030, 20.76947
1255.512, 23.31195
1255.994, 24.54102
1256.476, 21.06113
1256.958, 17.68768
1257.440, 26.88672
1257.922, 38.83002
1258.404, 36.52322
1258.886, 10.67572
1259.369, 2.210114
1259.851, 16.05963
1260.333, 28.59616
1260.815, 26.44675
1261.297, 21.32260
1261.779, 31.49014
1262.261, 47.88660
1262.743, 56.74750
1263.226, 55.44833
1263.708, 49.21753
1264.190, 36.45523
1264.672, 29.28262
1265.154, 41.37442
1265.636, 54.92764
1266.118, 47.16870
1266.600, 30.15750
1267.083, 24.41006
1267.565, 34.48471
1268.047, 40.92075
1268.529, 43.70480
1269.011, 41.37967
1269.493, 29.75183
1269.975, 20.86993
1270.457, 30.68365
1270.939, 47.67590
1271.422, 49.55823
1271.904, 33.27185
1272.386, 30.83594
1272.868, 43.42032
1273.350, 53.37085
1273.832, 44.85931
1274.314, 34.51199
1274.796, 32.41776
1275.278, 35.60861
1275.761, 41.58929
1276.243, 49.95169
1276.725, 47.28912
1277.207, 32.93613
1277.689, 20.80725
1278.171, 19.78244
1278.653, 22.89722
1279.135, 29.16159
1279.618, 36.42993
1280.100, 41.86108
1280.582, 45.75879
1281.064, 49.85132
1281.546, 54.33423
1282.028, 56.65753
1282.510, 56.80347
1282.992, 52.02124
1283.474, 38.75714
1283.957, 24.01068
1284.439, 22.74582
1284.921, 29.80487
1285.403, 31.15033
1285.885, 24.71494
1286.367, 15.73071
1286.849, 1.785034
1287.331, 8.437073
1287.813, 4.256348
1288.296, 24.97375
1288.778, 35.39096
1289.260, 39.13339
1289.742, 42.68860
1290.224, 47.18890
1290.706, 48.63980
1291.188, 43.65854
1291.670, 44.67703
1292.153, 57.40173
1292.635, 60.71664
1293.117, 68.52142
1293.599, 71.31619
1294.081, 65.08881
1294.563, 47.87698
1295.045, 28.85876
1295.527, 8.754028
1296.010, 0.1736150
1296.492, 12.44690
1296.974, 18.64337
1297.456, 0.0000000E+00
##END=



