##NAMES=Vasilite
##RRUFFID=R070716
##IDEAL CHEMISTRY=(Pd,Cu)_16_(S,Te)_7_
##LOCALITY=Mount Filipp, Kamchatka Oblast', Far-Eastern Region, Russia
##OWNER=RRUFF
##SOURCE=Michael Scott
##DESCRIPTION=Black metallic bleb; mounted on microprobe plastic
##STATUS=The identification of this mineral is not yet confirmed.
##URL=rruff.info/R070716
145.5577, 0.0000000E+00
146.0399, 14.55872
146.5220, 15.93445
147.0041, 12.52612
147.4862, 8.515503
147.9683, 4.994629
148.4504, 6.029297
148.9326, 12.75476
149.4147, 28.86658
149.8968, 39.49634
150.3789, 25.74683
150.8610, 11.45093
151.3431, 11.89648
151.8252, 25.36597
152.3074, 41.88794
152.7895, 44.14160
153.2716, 22.82471
153.7537, 20.52124
154.2358, 37.75696
154.7179, 61.06384
155.2001, 70.81018
155.6822, 57.13562
156.1643, 31.23962
156.6464, 16.14648
157.1285, 16.90088
157.6106, 17.65723
158.0928, 18.20142
158.5749, 18.42468
159.0570, 18.48022
159.5391, 18.69568
160.0212, 17.71521
160.5033, 13.87158
160.9855, 0.1871340
161.4676, 8.476318
161.9497, 1.758057
162.4318, 16.00403
162.9139, 32.26160
163.3960, 35.65674
163.8782, 25.86340
164.3603, 18.99268
164.8424, 18.00543
165.3245, 17.65900
165.8066, 13.63507
166.2887, 5.501343
166.7709, 2.064148
167.2530, 3.251282
167.7351, 2.142944
168.2172, 8.275452
168.6993, 14.17010
169.1814, 20.54010
169.6636, 28.78058
170.1457, 39.95746
170.6278, 50.29700
171.1099, 55.38037
171.5920, 56.07593
172.0741, 53.94177
172.5563, 45.44922
173.0384, 38.87384
173.5205, 38.42572
174.0026, 46.18433
174.4847, 56.54614
174.9668, 60.83514
175.4490, 59.40381
175.9311, 56.30383
176.4132, 53.22571
176.8953, 49.63489
177.3774, 48.58209
177.8595, 55.43939
178.3417, 61.27075
178.8238, 58.57477
179.3059, 47.36151
179.7880, 36.61279
180.2701, 38.19006
180.7522, 56.36108
181.2344, 71.91956
181.7165, 83.84424
182.1986, 91.32721
182.6807, 91.79163
183.1628, 84.93915
183.6449, 75.15448
184.1271, 67.32080
184.6092, 63.98578
185.0913, 58.73334
185.5734, 46.78729
186.0555, 35.02124
186.5376, 31.03894
187.0198, 37.92212
187.5019, 50.80188
187.9840, 57.33234
188.4661, 51.58856
188.9482, 45.89551
189.4303, 38.73547
189.9125, 33.27661
190.3946, 34.11475
190.8767, 43.43225
191.3588, 58.65668
191.8409, 67.87000
192.3230, 67.45605
192.8052, 64.83990
193.2873, 61.24329
193.7694, 56.54205
194.2515, 49.69061
194.7336, 39.84479
195.2157, 28.33484
195.6979, 19.34546
196.1800, 14.25000
196.6621, 10.55847
197.1442, 7.198914
197.6263, 4.073853
198.1084, 2.584900
198.5906, 4.875916
199.0727, 10.26776
199.5548, 9.428467
200.0369, 7.322083
200.5190, 21.59644
201.0011, 19.69354
201.4833, 2.800232
201.9654, 14.12122
202.4475, 19.94342
202.9296, 15.36053
203.4117, 13.96173
203.8938, 15.57495
204.3760, 17.80341
204.8581, 18.72968
205.3402, 18.21960
205.8223, 16.62189
206.3044, 12.84753
206.7865, 7.940063
207.2687, 5.839294
207.7508, 9.700806
208.2329, 15.86304
208.7150, 19.13086
209.1971, 18.74512
209.6792, 17.74652
210.1614, 19.64716
210.6435, 22.88495
211.1256, 23.41003
211.6077, 17.53003
212.0898, 8.390869
212.5719, 2.359375
213.0541, 1.7212000E-02
213.5362, 0.1995850
214.0183, 3.406677
214.5004, 8.332397
214.9825, 11.83063
215.4646, 9.552856
215.9468, 3.789612
216.4289, 5.137512
216.9110, 19.69208
217.3931, 33.22278
217.8752, 36.86206
218.3573, 32.92010
218.8395, 27.95184
219.3216, 28.29535
219.8037, 34.06146
220.2858, 33.11401
220.7679, 15.36426
221.2500, 0.6700440
221.7322, 0.8712160
222.2143, 8.634460
222.6964, 21.49243
223.1785, 33.56464
223.6606, 45.06122
224.1427, 49.64850
224.6249, 37.72003
225.1070, 26.88318
225.5891, 26.06879
226.0712, 33.31323
226.5533, 40.62872
227.0354, 39.72192
227.5176, 28.92383
227.9997, 21.66296
228.4818, 20.48676
228.9639, 20.77393
229.4460, 20.34766
229.9281, 19.53345
230.4103, 20.39465
230.8924, 25.99719
231.3745, 38.55066
231.8566, 46.00836
232.3387, 46.60291
232.8208, 44.08606
233.3030, 38.18237
233.7851, 30.01373
234.2672, 22.33142
234.7493, 16.97363
235.2314, 11.07489
235.7135, 19.26715
236.1957, 63.44672
236.6778, 101.7731
237.1599, 105.9534
237.6420, 77.53644
238.1241, 40.94910
238.6062, 24.57678
239.0884, 35.35834
239.5705, 44.53308
240.0526, 53.29175
240.5347, 59.89636
241.0168, 62.52557
241.4989, 61.36603
241.9811, 58.81525
242.4632, 58.34589
242.9453, 63.42139
243.4274, 58.32465
243.9095, 29.61145
244.3916, 2.308960
244.8738, 5.391541
245.3559, 7.927979
245.8380, 28.36829
246.3201, 40.23987
246.8022, 41.21442
247.2843, 38.81012
247.7665, 25.76801
248.2486, 14.06805
248.7307, 13.48987
249.2128, 24.55310
249.6949, 39.50183
250.1770, 50.19543
250.6592, 56.34460
251.1413, 56.70856
251.6234, 45.63974
252.1055, 32.98718
252.5876, 26.05603
253.0697, 25.73669
253.5519, 28.15973
254.0340, 29.24744
254.5161, 28.43680
254.9982, 28.83957
255.4803, 31.63651
255.9624, 34.84222
256.4445, 36.77576
256.9267, 37.29346
257.4088, 37.80444
257.8909, 39.73242
258.3730, 43.86420
258.8551, 43.67395
259.3372, 33.90091
259.8194, 24.12317
260.3015, 23.96460
260.7836, 34.02261
261.2657, 45.17914
261.7478, 48.33533
262.2299, 41.90033
262.7121, 36.43085
263.1942, 31.09222
263.6763, 27.38589
264.1584, 26.82254
264.6405, 29.49060
265.1227, 34.26099
265.6048, 41.47333
266.0869, 51.20078
266.5690, 54.50836
267.0511, 44.10831
267.5332, 31.98099
268.0154, 29.46716
268.4975, 36.96658
268.9796, 44.71011
269.4617, 44.34351
269.9438, 35.62720
270.4259, 28.25687
270.9081, 21.99976
271.3902, 17.59052
271.8723, 16.59018
272.3544, 18.81519
272.8365, 20.95535
273.3186, 20.18323
273.8008, 16.68677
274.2829, 14.55899
274.7650, 13.17944
275.2471, 13.79807
275.7292, 19.73593
276.2113, 30.29660
276.6935, 37.27518
277.1756, 32.75671
277.6577, 19.28024
278.1398, 14.41840
278.6219, 26.33139
279.1040, 40.03265
279.5862, 44.82181
280.0683, 41.82770
280.5504, 38.25162
281.0325, 38.08710
281.5146, 40.97736
281.9967, 44.24792
282.4789, 50.24640
282.9610, 54.42984
283.4431, 52.82953
283.9252, 46.35202
284.4073, 39.82352
284.8894, 35.09171
285.3716, 32.52643
285.8537, 32.41815
286.3358, 36.19196
286.8179, 40.49289
287.3000, 43.37747
287.7821, 45.20853
288.2643, 47.53510
288.7464, 51.65295
289.2285, 56.25174
289.7106, 58.03967
290.1927, 56.10959
290.6748, 53.32043
291.1570, 50.79486
291.6391, 48.45761
292.1212, 46.12671
292.6033, 43.98239
293.0854, 41.41885
293.5675, 36.88669
294.0497, 29.23218
294.5318, 23.16721
295.0139, 20.79208
295.4960, 21.38196
295.9781, 23.91290
296.4602, 29.03748
296.9424, 34.26477
297.4245, 34.00406
297.9066, 27.07016
298.3887, 21.82187
298.8708, 21.77063
299.3529, 24.90701
299.8351, 28.82684
300.3172, 33.70071
300.7993, 36.35562
301.2814, 30.26309
301.7635, 14.55743
302.2456, 1.023224
302.7278, 7.594940
303.2099, 11.98184
303.6920, 15.30112
304.1741, 18.57230
304.6562, 17.16653
305.1383, 1.442230
305.6205, 29.91180
306.1026, 49.37256
306.5847, 45.15512
307.0668, 31.84506
307.5489, 23.99628
308.0310, 23.44611
308.5132, 24.62497
308.9953, 21.84418
309.4774, 14.95166
309.9595, 12.17783
310.4416, 16.40326
310.9237, 23.11536
311.4059, 29.97421
311.8880, 36.49518
312.3701, 40.81458
312.8522, 40.52353
313.3343, 36.13507
313.8164, 35.93814
314.2986, 45.00455
314.7807, 53.55002
315.2628, 55.13193
315.7449, 50.87900
316.2270, 46.62405
316.7091, 46.61798
317.1913, 49.24988
317.6734, 45.62250
318.1555, 26.40335
318.6376, 11.92365
319.1197, 13.16394
319.6018, 25.04608
320.0840, 36.22009
320.5661, 41.80765
321.0482, 42.13086
321.5303, 37.23624
322.0124, 19.13803
322.4945, 7.422913
322.9767, 11.77188
323.4588, 23.73187
323.9409, 30.38367
324.4230, 27.13013
324.9051, 18.61636
325.3872, 14.03043
325.8694, 14.88351
326.3515, 17.31921
326.8336, 22.73508
327.3157, 28.79462
327.7978, 33.85068
328.2799, 37.34402
328.7621, 38.14783
329.2442, 34.28107
329.7263, 22.37616
330.2084, 14.07306
330.6905, 9.444824
331.1726, 8.179688
331.6548, 12.01947
332.1369, 20.18372
332.6190, 27.67941
333.1011, 29.13293
333.5832, 22.78259
334.0653, 21.00668
334.5475, 27.41458
335.0296, 33.59271
335.5117, 36.73239
335.9938, 36.62869
336.4759, 33.56812
336.9580, 27.11560
337.4402, 17.35233
337.9223, 12.22385
338.4044, 14.49420
338.8865, 18.22513
339.3686, 22.67526
339.8507, 27.47003
340.3329, 33.01227
340.8150, 39.93802
341.2971, 46.61484
341.7792, 45.81699
342.2613, 27.18399
342.7434, 13.90900
343.2256, 9.864380
343.7077, 11.73343
344.1898, 17.44714
344.6719, 26.07587
345.1540, 34.65161
345.6361, 36.50409
346.1183, 24.69574
346.6004, 18.43954
347.0825, 24.31921
347.5646, 31.77008
348.0467, 31.72681
348.5288, 23.04376
349.0110, 13.14038
349.4931, 12.97986
349.9752, 26.72858
350.4573, 33.55212
350.9394, 25.89255
351.4215, 17.08017
351.9037, 12.37045
352.3858, 12.04282
352.8679, 14.30969
353.3500, 18.47855
353.8321, 24.45227
354.3142, 28.95300
354.7964, 32.45825
355.2785, 33.55453
355.7606, 30.39487
356.2427, 24.68781
356.7248, 19.60272
357.2069, 16.61777
357.6891, 15.72525
358.1712, 18.03699
358.6533, 26.73822
359.1354, 31.22641
359.6175, 22.19336
360.0996, 8.782318
360.5818, 1.413696
361.0639, 3.799561
361.5460, 11.36649
362.0281, 19.66074
362.5102, 29.62436
362.9923, 35.94696
363.4745, 33.46732
363.9566, 26.95663
364.4387, 20.59097
364.9208, 14.53888
365.4029, 9.789948
365.8850, 7.196381
366.3672, 6.620056
366.8493, 7.358765
367.3314, 9.694916
367.8135, 12.57535
368.2956, 14.81396
368.7777, 16.48550
369.2599, 18.73404
369.7420, 23.67499
370.2241, 28.98373
370.7062, 30.11874
371.1883, 26.06876
371.6704, 20.73520
372.1526, 15.91211
372.6347, 12.17355
373.1168, 12.84015
373.5989, 24.43628
374.0810, 36.07901
374.5631, 38.29037
375.0453, 31.66043
375.5274, 22.77838
376.0095, 12.60925
376.4916, 2.405273
376.9737, 1.609436
377.4558, 5.387909
377.9380, 12.34094
378.4201, 16.46744
378.9022, 17.70828
379.3843, 14.42490
379.8664, 4.755524
380.3485, 6.068787
380.8307, 6.107513
381.3128, 14.04379
381.7949, 27.24454
382.2770, 27.33368
382.7591, 22.51251
383.2412, 20.09650
383.7234, 21.63110
384.2055, 25.18530
384.6876, 29.16885
385.1697, 35.19568
385.6518, 34.02399
386.1339, 16.52295
386.6161, 1.505219
387.0982, 1.328979
387.5803, 12.11169
388.0624, 21.11578
388.5445, 18.57071
389.0266, 5.929840
389.5088, 1.009430
389.9909, 5.049744
390.4730, 8.742615
390.9551, 4.122192
391.4372, 3.221313
391.9193, 5.571564
392.4015, 0.5597230
392.8836, 11.00702
393.3657, 17.11908
393.8478, 17.20346
394.3299, 16.96640
394.8120, 17.84103
395.2942, 18.21207
395.7763, 16.50946
396.2584, 12.71747
396.7405, 8.830383
397.2226, 6.900269
397.7047, 6.987030
398.1869, 7.135773
398.6690, 7.427368
399.1511, 7.507141
399.6332, 6.404022
400.1153, 4.817657
400.5974, 4.775269
401.0796, 9.721039
401.5617, 16.32236
402.0438, 15.39130
402.5259, 4.319733
403.0080, 3.970001
403.4901, 0.9091190
403.9723, 12.16800
404.4544, 19.66223
404.9365, 20.66272
405.4186, 19.37436
405.9007, 18.76907
406.3828, 18.75638
406.8650, 18.73822
407.3471, 18.34827
407.8292, 18.22043
408.3113, 19.61292
408.7934, 22.93646
409.2755, 25.44513
409.7577, 25.57999
410.2398, 24.68842
410.7219, 25.22641
411.2040, 27.63727
411.6861, 28.84610
412.1682, 25.00232
412.6504, 15.12885
413.1325, 9.544464
413.6146, 9.271210
414.0967, 12.08856
414.5788, 19.73596
415.0609, 29.80927
415.5431, 36.04398
416.0252, 34.41852
416.5073, 26.27832
416.9894, 17.97369
417.4715, 4.654297
417.9536, 2.861450
418.4358, 9.8999001E-02
418.9179, 7.784790
419.4000, 15.21338
419.8821, 20.51495
420.3642, 22.98849
420.8463, 20.39426
421.3285, 8.548157
421.8106, 3.331299
422.2927, 12.50674
422.7748, 21.13211
423.2569, 20.09012
423.7390, 11.33185
424.2212, 3.644440
424.7033, 4.266815
425.1854, 11.75531
425.6675, 17.37131
426.1496, 21.00296
426.6317, 22.66965
427.1139, 19.94553
427.5960, 16.32849
428.0781, 17.25082
428.5602, 26.10617
429.0423, 35.83127
429.5244, 35.90881
430.0066, 25.70944
430.4887, 18.27600
430.9708, 20.10492
431.4529, 23.37531
431.9350, 17.44821
432.4171, 1.574890
432.8993, 9.734711
433.3814, 5.900299
433.8635, 6.174805
434.3456, 14.64920
434.8277, 18.03119
435.3098, 17.31052
435.7920, 11.49841
436.2741, 1.109772
436.7562, 5.998566
437.2383, 8.825531
437.7204, 9.045563
438.2025, 7.168793
438.6847, 3.367126
439.1668, 1.919312
439.6489, 8.206055
440.1310, 14.59720
440.6131, 18.62573
441.0952, 17.88229
441.5774, 18.16565
442.0595, 20.70941
442.5416, 23.83264
443.0237, 26.65558
443.5058, 28.70325
443.9879, 28.82690
444.4701, 25.08636
444.9522, 16.55557
445.4343, 11.41702
445.9164, 10.30862
446.3985, 11.98480
446.8806, 18.99081
447.3628, 28.12781
447.8449, 34.25488
448.3270, 34.41782
448.8091, 29.85254
449.2912, 22.21997
449.7733, 8.755371
450.2555, 0.7400210
450.7376, 5.518005
451.2197, 13.55496
451.7018, 17.78387
452.1839, 17.06436
452.6660, 15.46005
453.1482, 17.51807
453.6303, 21.82498
454.1124, 20.64844
454.5945, 10.32867
455.0766, 0.5410160
455.5587, 1.010834
456.0409, 8.782196
456.5230, 15.83438
457.0051, 20.37726
457.4872, 23.54346
457.9693, 26.27225
458.4514, 28.54379
458.9336, 30.16348
459.4157, 31.15781
459.8978, 31.26691
460.3799, 29.66782
460.8620, 24.00424
461.3441, 20.06134
461.8262, 19.61896
462.3083, 20.51071
462.7905, 20.22177
463.2726, 18.42917
463.7547, 17.08481
464.2368, 18.68033
464.7189, 24.01898
465.2010, 25.14877
465.6832, 15.62903
466.1653, 9.290375
466.6474, 12.98798
467.1295, 21.58173
467.6116, 27.38672
468.0938, 26.05652
468.5759, 21.32013
469.0580, 22.69382
469.5401, 34.50558
470.0222, 40.06525
470.5043, 30.16592
470.9865, 17.67383
471.4686, 10.55951
471.9507, 9.382080
472.4328, 9.614044
472.9149, 6.855072
473.3970, 2.689178
473.8792, 4.048553
474.3613, 13.47479
474.8434, 21.66409
475.3255, 20.61652
475.8076, 13.99689
476.2897, 10.11893
476.7719, 9.810272
477.2540, 11.98022
477.7361, 17.47372
478.2182, 25.17676
478.7003, 32.28046
479.1824, 38.23822
479.6646, 41.52164
480.1467, 38.94110
480.6288, 27.48975
481.1109, 19.62500
481.5930, 19.11270
482.0751, 19.90433
482.5573, 16.93845
483.0394, 10.95193
483.5215, 6.603973
484.0036, 7.635101
484.4857, 12.88199
484.9678, 14.54001
485.4500, 8.902252
485.9321, 4.457123
486.4142, 0.9406740
486.8963, 2.944244
487.3784, 6.209320
487.8605, 27.21411
488.3427, 47.01044
488.8248, 47.80753
489.3069, 28.53336
489.7890, 15.64352
490.2711, 12.65573
490.7532, 12.80511
491.2354, 13.82755
491.7175, 15.97723
492.1996, 19.23782
492.6817, 25.97607
493.1638, 31.57773
493.6459, 27.87527
494.1281, 15.73526
494.6102, 8.387756
495.0923, 12.72073
495.5744, 23.04669
496.0565, 30.06000
496.5386, 34.46555
497.0208, 35.00778
497.5029, 27.22247
497.9850, 17.57642
498.4671, 12.47824
498.9492, 12.41891
499.4313, 14.88275
499.9135, 18.40726
500.3956, 22.70200
500.8777, 23.95294
501.3598, 18.74207
501.8419, 14.58386
502.3240, 11.92392
502.8062, 11.29688
503.2883, 14.43527
503.7704, 21.45459
504.2525, 28.40442
504.7346, 29.86136
505.2167, 25.08014
505.6989, 19.96481
506.1810, 13.51001
506.6631, 8.152130
507.1452, 4.117828
507.6273, 2.005890
508.1094, 3.294739
508.5916, 10.39203
509.0737, 19.15723
509.5558, 24.12375
510.0379, 25.35095
510.5200, 24.68469
511.0021, 21.51965
511.4843, 18.21109
511.9664, 19.76181
512.4485, 27.50812
512.9306, 30.20456
513.4127, 18.47784
513.8948, 4.728851
514.3770, 3.133972
514.8591, 13.05963
515.3412, 22.59036
515.8233, 23.39807
516.3054, 16.68930
516.7875, 10.17438
517.2697, 0.2390750
517.7518, 5.154602
518.2339, 0.2988280
518.7160, 9.211761
519.1981, 15.38153
519.6802, 17.34119
520.1624, 16.77124
520.6445, 14.89151
521.1266, 11.64035
521.6087, 9.900757
522.0908, 11.83963
522.5729, 12.01837
523.0551, 4.382477
523.5372, 5.439850
524.0193, 8.016266
524.5014, 1.183075
524.9835, 14.33832
525.4656, 26.37988
525.9478, 36.45068
526.4299, 39.41507
526.9120, 32.53589
527.3941, 21.71524
527.8762, 12.50754
528.3583, 4.779816
528.8405, 1.515930
529.3226, 8.207092
529.8047, 14.82242
530.2868, 13.33206
530.7689, 6.189514
531.2510, 1.160980
531.7332, 2.404419
532.2153, 7.017395
532.6974, 7.577423
533.1795, 8.5114002E-02
533.6616, 4.165009
534.1437, 3.036957
534.6259, 6.0577001E-02
535.1080, 4.147064
535.5901, 8.523163
536.0722, 11.80032
536.5543, 12.55463
537.0364, 11.72861
537.5186, 12.14902
538.0007, 13.98822
538.4828, 16.94479
538.9649, 24.30148
539.4470, 31.16055
539.9291, 30.26846
540.4113, 19.66730
540.8934, 12.03238
541.3755, 16.59775
541.8576, 26.91980
542.3397, 32.45691
542.8218, 32.13757
543.3040, 32.09232
543.7861, 37.29306
544.2682, 46.71155
544.7503, 52.65280
545.2324, 52.56555
545.7145, 53.27490
546.1967, 58.63275
546.6788, 64.15262
547.1609, 62.16071
547.6430, 52.47400
548.1251, 45.58441
548.6072, 56.02228
549.0894, 84.78189
549.5715, 99.91550
550.0536, 89.96344
550.5357, 83.04709
551.0178, 93.49216
551.4999, 111.1080
551.9821, 121.6092
552.4642, 119.8453
552.9463, 114.7994
553.4284, 115.1968
553.9105, 119.2933
554.3926, 119.5906
554.8748, 113.9474
555.3569, 107.1437
555.8390, 104.1271
556.3211, 104.7297
556.8032, 102.3069
557.2853, 95.71021
557.7675, 87.12054
558.2496, 74.74515
558.7317, 61.73969
559.2138, 54.53552
559.6959, 55.29236
560.1780, 58.57770
560.6602, 55.85114
561.1423, 45.12247
561.6244, 36.43063
562.1065, 28.90750
562.5886, 24.57333
563.0707, 26.18491
563.5529, 31.18100
564.0350, 35.36130
564.5171, 37.27988
564.9992, 36.63217
565.4813, 31.37155
565.9634, 21.94028
566.4456, 15.73090
566.9277, 15.03357
567.4098, 16.83994
567.8919, 18.81851
568.3740, 20.88055
568.8561, 21.53427
569.3383, 19.47861
569.8204, 16.94397
570.3025, 14.85486
570.7846, 13.45605
571.2667, 13.37766
571.7488, 14.90320
572.2310, 17.21509
572.7131, 19.18161
573.1952, 22.17847
573.6773, 20.98550
574.1594, 9.924622
574.6415, 0.5555420
575.1237, 1.273712
575.6058, 2.002960
576.0879, 6.227692
576.5700, 9.103760
577.0521, 10.90210
577.5342, 12.07202
578.0164, 12.73828
578.4985, 12.40106
578.9806, 9.908234
579.4627, 8.139069
579.9448, 11.29037
580.4269, 17.96704
580.9091, 21.35333
581.3912, 17.44125
581.8733, 11.86981
582.3554, 8.078308
582.8375, 5.830688
583.3196, 5.439514
583.8018, 7.084473
584.2839, 9.735168
584.7660, 11.58554
585.2481, 12.22180
585.7302, 13.21854
586.2123, 16.63879
586.6945, 18.34503
587.1766, 13.49429
587.6587, 6.063812
588.1408, 4.804413
588.6229, 15.29373
589.1050, 28.49438
589.5872, 29.18738
590.0693, 18.01843
590.5514, 13.75824
591.0335, 23.66159
591.5156, 35.05472
591.9977, 33.89615
592.4799, 22.19876
592.9620, 14.13458
593.4441, 15.75482
593.9262, 17.41150
594.4083, 10.71750
594.8904, 0.4023130
595.3726, 3.116730
595.8547, 3.738678
596.3368, 15.16815
596.8189, 23.45493
597.3010, 29.09619
597.7831, 29.18042
598.2653, 15.82172
598.7474, 5.070190
599.2295, 4.196350
599.7116, 8.562012
600.1937, 10.45999
600.6758, 6.702240
601.1580, 2.405884
601.6401, 3.582794
602.1222, 9.173248
602.6043, 14.44254
603.0864, 19.17413
603.5685, 20.99292
604.0507, 16.08972
604.5328, 5.576874
605.0149, 0.6163330
605.4970, 7.145020
605.9791, 12.20282
606.4612, 10.14505
606.9434, 4.600220
607.4255, 0.5037540
607.9076, 3.928040
608.3897, 5.482025
608.8718, 4.936249
609.3539, 2.296692
609.8361, 2.779572
610.3182, 14.22131
610.8003, 21.47672
611.2824, 17.73206
611.7645, 10.16702
612.2466, 6.367249
612.7288, 7.794037
613.2109, 10.71292
613.6930, 13.60437
614.1751, 16.04004
614.6572, 17.12186
615.1393, 16.79370
615.6215, 15.63351
616.1036, 13.43893
616.5857, 11.11688
617.0678, 11.98270
617.5499, 20.34570
618.0320, 25.88016
618.5142, 27.30276
618.9963, 26.41183
619.4784, 22.94046
619.9605, 18.19363
620.4426, 15.85471
620.9247, 19.30435
621.4069, 26.10480
621.8890, 27.71899
622.3711, 22.94562
622.8532, 18.76636
623.3353, 17.13892
623.8174, 16.66135
624.2996, 14.85324
624.7817, 11.96857
625.2638, 12.86365
625.7459, 24.14029
626.2280, 35.07010
626.7101, 36.33118
627.1923, 30.41324
627.6744, 24.00952
628.1565, 19.76865
628.6386, 17.06516
629.1207, 14.91296
629.6028, 13.02209
630.0850, 12.85870
630.5671, 19.03741
631.0492, 22.06653
631.5313, 14.42566
632.0134, 3.173462
632.4955, 0.6102290
632.9777, 12.02911
633.4598, 24.28394
633.9419, 22.87613
634.4240, 11.60193
634.9061, 3.074341
635.3882, 0.8768010
635.8704, 3.267944
636.3525, 6.846100
636.8346, 10.82620
637.3167, 10.01004
637.7988, 1.429291
638.2809, 9.270050
638.7631, 7.678162
639.2452, 3.789490
639.7273, 4.961700
640.2094, 11.14099
640.6915, 16.60468
641.1736, 16.39307
641.6558, 12.53418
642.1379, 12.78845
642.6200, 18.61038
643.1021, 22.07391
643.5842, 19.54437
644.0663, 14.97925
644.5485, 12.18637
645.0306, 11.15198
645.5127, 11.70059
645.9948, 15.11246
646.4769, 18.94379
646.9590, 21.62183
647.4412, 22.93433
647.9233, 23.71048
648.4054, 24.21405
648.8875, 23.79996
649.3696, 21.12024
649.8517, 15.37314
650.3339, 11.52032
650.8160, 9.956085
651.2981, 9.984924
651.7802, 12.08167
652.2623, 15.29501
652.7444, 18.69385
653.2266, 22.13422
653.7087, 24.32016
654.1908, 22.23111
654.6729, 17.66437
655.1550, 17.09930
655.6371, 21.23279
656.1193, 26.03748
656.6014, 29.36996
657.0835, 30.96915
657.5656, 29.81458
658.0477, 23.90213
658.5298, 17.81165
659.0120, 9.205841
659.4941, 2.372253
659.9762, 1.069611
660.4583, 4.191956
660.9404, 7.595093
661.4225, 8.576447
661.9047, 9.384827
662.3868, 16.03601
662.8689, 28.13403
663.3510, 32.75977
663.8331, 24.75085
664.3152, 13.81018
664.7974, 8.778107
665.2795, 9.484833
665.7616, 10.73236
666.2437, 13.96475
666.7258, 16.29941
667.2079, 16.34027
667.6901, 15.23978
668.1722, 13.58212
668.6543, 11.85379
669.1364, 11.38568
669.6185, 14.03418
670.1006, 18.98990
670.5828, 20.77985
671.0649, 17.86765
671.5470, 16.98676
672.0291, 22.56625
672.5112, 29.47879
672.9933, 32.24365
673.4755, 30.74561
673.9576, 26.97101
674.4397, 17.38623
674.9218, 9.286011
675.4039, 9.800171
675.8860, 16.29871
676.3682, 23.37189
676.8503, 28.81619
677.3324, 30.37555
677.8145, 22.97821
678.2966, 4.521973
678.7787, 5.816864
679.2609, 4.758331
679.7430, 0.1527100
680.2251, 7.933899
680.7072, 16.25690
681.1893, 20.24963
681.6714, 18.74945
682.1536, 16.16394
682.6357, 14.41806
683.1178, 13.29321
683.5999, 12.85239
684.0820, 12.89096
684.5641, 12.29300
685.0463, 10.33353
685.5284, 7.856171
686.0105, 7.047485
686.4926, 9.412018
686.9747, 9.857910
687.4568, 2.672638
687.9390, 0.6457210
688.4211, 9.683685
688.9032, 26.23993
689.3853, 34.33475
689.8674, 27.65692
690.3495, 18.07138
690.8317, 15.58875
691.3138, 17.68402
691.7959, 19.68051
692.2780, 20.85699
692.7601, 19.66931
693.2422, 13.92612
693.7244, 5.946655
694.2065, 5.095245
694.6886, 20.12704
695.1707, 28.27283
695.6528, 24.52045
696.1349, 18.70987
696.6171, 17.46573
697.0992, 19.44064
697.5813, 19.58096
698.0634, 14.81311
698.5455, 9.066620
699.0276, 6.233887
699.5098, 6.176392
699.9919, 9.825500
700.4740, 17.85165
700.9561, 23.32068
701.4382, 19.34207
701.9203, 7.649567
702.4025, 2.043274
702.8846, 10.72134
703.3667, 14.59399
703.8488, 5.255005
704.3309, 3.720367
704.8130, 0.2514040
705.2952, 14.92984
705.7773, 27.17776
706.2594, 29.06406
706.7415, 25.20511
707.2236, 19.44766
707.7057, 12.63550
708.1879, 10.99667
708.6700, 16.78372
709.1521, 23.18942
709.6342, 24.04416
710.1163, 19.51199
710.5984, 13.36407
711.0806, 0.6283260
711.5627, 7.955902
712.0448, 2.117615
712.5269, 8.062103
713.0090, 16.58234
713.4911, 22.16891
713.9733, 24.61423
714.4554, 22.61707
714.9375, 18.79248
715.4196, 17.65884
715.9017, 18.82339
716.3839, 18.33716
716.8660, 14.39920
717.3481, 12.50009
717.8302, 20.01245
718.3123, 36.90710
718.7944, 43.18945
719.2766, 30.41891
719.7587, 18.88699
720.2408, 11.56763
720.7229, 7.312408
721.2050, 5.372437
721.6871, 5.394135
722.1693, 6.841309
722.6514, 10.03372
723.1335, 13.76865
723.6156, 15.97479
724.0977, 16.82449
724.5798, 18.02820
725.0620, 20.38593
725.5441, 21.24759
726.0262, 16.99844
726.5083, 7.640381
726.9904, 3.238556
727.4725, 7.324066
727.9547, 11.60416
728.4368, 14.90872
728.9189, 17.76227
729.4010, 21.42484
729.8831, 25.49072
730.3652, 27.64917
730.8474, 25.27484
731.3295, 21.52167
731.8116, 21.01642
732.2937, 23.28372
732.7758, 26.25790
733.2579, 29.57605
733.7401, 32.23276
734.2222, 32.99173
734.7043, 31.96594
735.1864, 32.19412
735.6685, 39.31671
736.1506, 40.01749
736.6328, 24.82120
737.1149, 8.587891
737.5970, 4.041077
738.0791, 9.889862
738.5612, 15.71045
739.0433, 15.52032
739.5255, 13.64703
740.0076, 15.73523
740.4897, 20.38843
740.9718, 22.72632
741.4539, 21.01120
741.9360, 18.96964
742.4182, 21.39468
742.9003, 27.67636
743.3824, 29.74100
743.8645, 24.64676
744.3466, 20.34848
744.8287, 17.64609
745.3109, 16.12283
745.7930, 16.37787
746.2751, 17.84634
746.7572, 17.98111
747.2393, 14.22147
747.7214, 11.24734
748.2036, 14.75269
748.6857, 21.29852
749.1678, 23.78644
749.6499, 21.29581
750.1320, 17.82355
750.6141, 16.29480
751.0963, 16.45270
751.5784, 17.34213
752.0605, 19.08679
752.5426, 21.23773
753.0247, 24.28894
753.5068, 27.15375
753.9890, 30.13211
754.4711, 32.41324
754.9532, 31.54520
755.4353, 24.74323
755.9174, 18.90851
756.3995, 18.69266
756.8817, 20.91162
757.3638, 22.83374
757.8459, 23.50446
758.3280, 20.73236
758.8101, 12.67758
759.2922, 3.127014
759.7744, 1.165710
760.2565, 7.742493
760.7386, 12.24213
761.2207, 13.99432
761.7028, 12.80469
762.1849, 4.803406
762.6671, 5.268768
763.1492, 5.886688
763.6313, 8.726624
764.1134, 19.90823
764.5955, 22.89044
765.0776, 21.38559
765.5598, 15.34698
766.0419, 7.476807
766.5240, 3.118286
767.0061, 4.596436
767.4882, 9.113892
767.9703, 14.01895
768.4525, 19.04022
768.9346, 22.84451
769.4167, 25.11511
769.8988, 24.50024
770.3809, 18.03397
770.8630, 9.762909
771.3452, 8.277008
771.8273, 17.48935
772.3094, 22.10718
772.7915, 18.48029
773.2736, 14.54440
773.7557, 13.75204
774.2379, 14.44885
774.7200, 14.46317
775.2021, 13.24008
775.6842, 10.90891
776.1663, 5.704651
776.6484, 0.4384770
777.1306, 4.0801998E-02
777.6127, 3.935364
778.0948, 9.681519
778.5769, 16.62399
779.0590, 21.26489
779.5411, 18.02707
780.0233, 6.555389
780.5054, 3.046844
780.9875, 13.06158
781.4696, 22.26901
781.9517, 27.33969
782.4338, 29.36053
782.9160, 28.97952
783.3981, 26.38107
783.8802, 22.52490
784.3623, 16.52933
784.8444, 10.65524
785.3265, 3.891327
785.8087, 0.7902830
786.2908, 3.684967
786.7729, 16.79831
787.2550, 28.24081
787.7371, 29.68823
788.2192, 24.06030
788.7014, 17.83652
789.1835, 10.21976
789.6656, 11.49625
790.1477, 28.35938
790.6298, 43.74118
791.1119, 43.40118
791.5941, 30.39920
792.0762, 19.61661
792.5583, 9.502777
793.0404, 4.014404
793.5225, 7.678162
794.0046, 12.74805
794.4868, 12.65076
794.9689, 9.592590
795.4510, 10.75632
795.9331, 19.91162
796.4152, 27.91254
796.8973, 23.38748
797.3795, 10.67807
797.8616, 1.245239
798.3437, 11.29709
798.8258, 13.61365
799.3079, 4.192719
799.7900, 10.49368
800.2722, 18.89697
800.7543, 20.43311
801.2364, 18.36124
801.7185, 6.975433
802.2006, 0.5017700
802.6827, 5.827911
803.1649, 15.34323
803.6470, 22.23560
804.1291, 25.80615
804.6112, 26.20346
805.0933, 19.90210
805.5754, 13.93961
806.0576, 15.52716
806.5397, 20.54910
807.0218, 20.37335
807.5039, 13.83469
807.9860, 8.756195
808.4681, 13.15186
808.9503, 23.29611
809.4324, 26.95020
809.9145, 23.75955
810.3966, 20.38354
810.8787, 18.46216
811.3608, 16.00104
811.8430, 9.788879
812.3251, 1.134369
812.8072, 0.1956180
813.2893, 13.53394
813.7714, 23.17789
814.2535, 26.02728
814.7357, 25.45309
815.2178, 22.68848
815.6999, 18.41061
816.1820, 12.96448
816.6641, 6.323608
817.1462, 1.955994
817.6284, 4.035614
818.1105, 9.653717
818.5926, 13.24561
819.0747, 14.59497
819.5568, 15.14441
820.0389, 15.51880
820.5211, 15.89340
821.0032, 18.18143
821.4853, 23.20770
821.9674, 21.60724
822.4495, 9.203796
822.9316, 0.9975590
823.4138, 5.708649
823.8959, 14.76941
824.3780, 16.50467
824.8601, 10.75992
825.3422, 7.621643
825.8243, 9.983307
826.3065, 12.99545
826.7886, 15.82489
827.2707, 17.67874
827.7528, 17.01413
828.2349, 14.33945
828.7170, 12.68597
829.1992, 14.75571
829.6813, 17.24078
830.1633, 13.41324
830.6454, 6.282867
831.1276, 7.279114
831.6097, 17.84494
832.0918, 28.20889
832.5739, 31.89539
833.0560, 30.35471
833.5381, 27.32007
834.0203, 22.45178
834.5024, 16.87091
834.9845, 7.293427
835.4666, 1.812073
835.9487, 9.492615
836.4308, 21.66589
836.9130, 25.31073
837.3951, 18.26758
837.8772, 10.67010
838.3593, 1.847107
838.8414, 3.595886
839.3235, 1.653137
839.8057, 4.946533
840.2878, 13.38669
840.7699, 22.32925
841.2520, 29.05878
841.7341, 30.77304
842.2162, 29.38632
842.6984, 28.09039
843.1805, 26.81647
843.6626, 24.67310
844.1447, 21.51248
844.6268, 20.06766
845.1089, 23.34714
845.5911, 29.68369
846.0732, 31.23410
846.5553, 26.09378
847.0374, 21.17276
847.5195, 15.33600
848.0016, 11.95419
848.4838, 16.01279
848.9659, 23.03497
849.4480, 23.52942
849.9301, 13.72565
850.4122, 6.937988
850.8943, 7.390625
851.3765, 11.43570
851.8586, 19.83578
852.3407, 28.90466
852.8228, 32.09116
853.3049, 27.95566
853.7870, 22.62250
854.2692, 22.25122
854.7513, 23.85947
855.2334, 21.34174
855.7155, 15.46436
856.1976, 9.541077
856.6797, 5.071564
857.1619, 3.673492
857.6440, 6.685791
858.1261, 12.22018
858.6082, 10.71310
859.0903, 1.726044
859.5724, 8.596405
860.0546, 6.017548
860.5367, 2.0750000E-03
861.0188, 6.611908
861.5009, 13.53973
861.9830, 20.59894
862.4651, 29.99915
862.9473, 34.04593
863.4294, 25.56042
863.9115, 17.16458
864.3936, 18.32300
864.8757, 23.94974
865.3578, 24.12802
865.8400, 16.75986
866.3221, 11.31039
866.8042, 19.58499
867.2863, 30.47031
867.7684, 24.30017
868.2505, 7.875641
868.7327, 3.600525
869.2148, 16.28986
869.6969, 32.01730
870.1790, 39.17255
870.6611, 39.10248
871.1432, 36.31033
871.6254, 30.41263
872.1075, 24.10187
872.5896, 17.66449
873.0717, 10.66061
873.5538, 0.7961430
874.0359, 8.930634
874.5181, 9.751923
875.0002, 4.649780
875.4823, 13.97607
875.9644, 14.30807
876.4465, 13.84583
876.9286, 15.53775
877.4108, 18.55206
877.8929, 22.15524
878.3750, 26.10443
878.8571, 28.65668
879.3392, 26.49881
879.8214, 25.11002
880.3035, 32.13431
880.7856, 41.49197
881.2677, 42.04105
881.7498, 33.40536
882.2319, 24.52832
882.7141, 21.17957
883.1962, 22.09735
883.6783, 27.74680
884.1604, 36.51498
884.6425, 36.13663
885.1246, 24.72345
885.6068, 14.70969
886.0889, 12.97971
886.5710, 15.88675
887.0531, 16.50394
887.5352, 14.02429
888.0173, 13.90878
888.4995, 16.97522
888.9816, 21.07352
889.4637, 28.90979
889.9458, 34.94675
890.4279, 32.32458
890.9100, 21.77899
891.3922, 13.18637
891.8743, 8.167969
892.3564, 4.938995
892.8385, 1.862396
893.3206, 1.187622
893.8027, 7.159454
894.2849, 17.16220
894.7670, 24.08563
895.2491, 24.88559
895.7312, 23.05606
896.2133, 19.65814
896.6954, 16.28558
897.1776, 18.32245
897.6597, 23.73279
898.1418, 23.50415
898.6239, 14.55499
899.1060, 4.545929
899.5881, 2.378052
900.0703, 6.679138
900.5524, 11.89398
901.0345, 18.26501
901.5166, 20.40732
901.9987, 15.98273
902.4808, 11.84763
902.9630, 14.10950
903.4451, 20.88431
903.9272, 24.36014
904.4093, 23.32663
904.8914, 21.50476
905.3735, 17.41013
905.8557, 14.41724
906.3378, 14.36899
906.8199, 16.04095
907.3020, 17.92880
907.7841, 19.97772
908.2662, 21.60147
908.7484, 22.53595
909.2305, 23.17126
909.7126, 23.92218
910.1947, 24.33508
910.6768, 24.32889
911.1589, 23.72000
911.6411, 20.94601
912.1232, 13.19870
912.6053, 6.771149
913.0874, 10.97665
913.5695, 19.90128
914.0516, 20.70749
914.5338, 14.57187
915.0159, 13.19092
915.4980, 22.06030
915.9801, 34.02472
916.4622, 40.60715
916.9443, 41.60333
917.4265, 33.43265
917.9086, 16.07483
918.3907, 7.887543
918.8728, 15.80295
919.3549, 25.63824
919.8370, 22.70593
920.3192, 9.752899
920.8013, 5.849396
921.2834, 16.63901
921.7655, 22.80496
922.2476, 20.36899
922.7297, 16.05447
923.2119, 11.45938
923.6940, 8.153992
924.1761, 10.23492
924.6582, 20.30753
925.1403, 24.72449
925.6224, 17.03452
926.1046, 8.742126
926.5867, 4.122681
927.0688, 2.155548
927.5509, 1.775146
928.0330, 2.665985
928.5151, 4.395752
928.9973, 6.766113
929.4794, 9.924072
929.9615, 15.63144
930.4436, 21.14572
930.9257, 22.35077
931.4078, 20.03116
931.8900, 17.26007
932.3721, 16.13879
932.8542, 15.84018
933.3363, 13.95062
933.8184, 10.93283
934.3005, 6.915619
934.7827, 2.535553
935.2648, 2.816223
935.7469, 9.217651
936.2290, 14.75879
936.7111, 12.93768
937.1932, 6.282532
937.6754, 4.105927
938.1575, 7.089447
938.6396, 8.488403
939.1217, 6.690063
939.6038, 6.494568
940.0859, 11.57382
940.5681, 18.48404
941.0502, 20.89423
941.5323, 17.37100
942.0144, 14.68909
942.4965, 11.64301
942.9786, 11.28796
943.4608, 17.15961
943.9429, 23.19284
944.4250, 26.60760
944.9071, 27.37363
945.3892, 25.88586
945.8713, 20.63095
946.3535, 15.89279
946.8356, 12.72763
947.3177, 10.46634
947.7998, 7.861084
948.2819, 6.137451
948.7640, 8.556122
949.2462, 15.65988
949.7283, 20.54593
950.2104, 15.95493
950.6925, 10.52875
951.1746, 13.41977
951.6567, 20.09793
952.1389, 23.06754
952.6210, 21.70346
953.1031, 19.83405
953.5852, 19.92230
954.0673, 19.27765
954.5494, 12.57053
955.0316, 2.743774
955.5137, 2.618988
955.9958, 3.383759
956.4779, 0.4795530
956.9600, 5.930115
957.4421, 10.95596
957.9243, 7.809387
958.4064, 0.4240720
958.8885, 2.908386
959.3706, 18.82486
959.8527, 25.91592
960.3348, 19.00793
960.8170, 10.49536
961.2991, 8.273499
961.7812, 10.23618
962.2633, 11.70148
962.7454, 12.76166
963.2275, 12.86618
963.7097, 11.50290
964.1918, 10.09021
964.6739, 7.931519
965.1560, 7.050720
965.6381, 11.44870
966.1202, 20.26331
966.6024, 22.73978
967.0845, 13.68866
967.5666, 5.977356
968.0487, 1.025055
968.5308, 2.479218
969.0129, 6.292175
969.4951, 8.719452
969.9772, 5.988159
970.4593, 2.939728
970.9414, 9.915588
971.4235, 11.16046
971.9056, 11.07638
972.3878, 12.11560
972.8699, 12.91785
973.3520, 10.39255
973.8341, 5.985535
974.3162, 5.560486
974.7983, 12.49579
975.2805, 20.52145
975.7626, 26.70978
976.2447, 29.97946
976.7268, 26.77112
977.2089, 20.07428
977.6910, 17.40527
978.1732, 20.30261
978.6553, 22.55966
979.1374, 18.08167
979.6195, 11.58383
980.1016, 11.69778
980.5837, 15.92047
981.0659, 17.26053
981.5480, 14.96533
982.0301, 10.28592
982.5122, 3.674194
982.9943, 1.554077
983.4764, 1.069244
983.9586, 9.625793
984.4407, 12.12848
984.9228, 8.695587
985.4049, 5.558197
985.8870, 4.086578
986.3691, 5.661346
986.8513, 12.28159
987.3334, 21.27164
987.8155, 24.09702
988.2976, 19.72946
988.7797, 16.01602
989.2618, 13.18289
989.7440, 11.35895
990.2261, 10.98441
990.7082, 10.95859
991.1903, 9.948975
991.6724, 7.968842
992.1545, 5.434937
992.6367, 0.5310970
993.1188, 1.011627
993.6009, 4.862579
994.0830, 9.871368
994.5651, 6.820343
995.0472, 0.3872070
995.5294, 0.9336240
996.0115, 10.85898
996.4936, 17.16809
996.9757, 19.45316
997.4578, 17.95203
997.9399, 7.086243
998.4221, 2.862030
998.9042, 0.1263120
999.3863, 11.80811
999.8684, 14.70145
1000.351, 1.101074
1000.833, 9.601685
1001.315, 3.188416
1001.797, 17.97528
1002.279, 25.56757
1002.761, 26.77576
1003.243, 21.27948
1003.725, 10.49597
1004.207, 3.170624
1004.690, 4.781738
1005.172, 8.376648
1005.654, 11.13742
1006.136, 12.93848
1006.618, 12.06976
1007.100, 10.47870
1007.582, 13.56891
1008.064, 22.74612
1008.547, 29.69589
1009.029, 26.00107
1009.511, 19.26892
1009.993, 17.67270
1010.475, 18.36383
1010.957, 16.37091
1011.439, 11.51166
1011.921, 6.096313
1012.403, 1.112000
1012.886, 2.039795
1013.368, 2.074554
1013.850, 0.7814330
1014.332, 9.229156
1014.814, 19.93250
1015.296, 21.54431
1015.778, 12.51132
1016.260, 3.006927
1016.742, 0.6507260
1017.225, 2.632751
1017.707, 5.138336
1018.189, 7.817108
1018.671, 9.484589
1019.153, 10.04849
1019.635, 9.385834
1020.117, 7.447540
1020.599, 5.513031
1021.082, 5.006348
1021.564, 5.253754
1022.046, 7.366913
1022.528, 11.36124
1023.010, 15.72946
1023.492, 20.34790
1023.974, 22.20120
1024.456, 19.46497
1024.938, 14.72217
1025.421, 11.22754
1025.903, 9.173981
1026.385, 11.91171
1026.867, 20.33469
1027.349, 24.03912
1027.831, 20.47229
1028.313, 16.22809
1028.795, 14.92523
1029.278, 15.93726
1029.760, 18.22742
1030.242, 22.18539
1030.724, 24.06775
1031.206, 23.20844
1031.688, 22.73340
1032.170, 24.19235
1032.652, 24.42267
1033.135, 19.12643
1033.617, 11.16931
1034.099, 12.81219
1034.581, 31.79578
1035.063, 36.67087
1035.545, 18.01126
1036.027, 4.028015
1036.509, 6.412964
1036.991, 15.99783
1037.474, 24.35800
1037.956, 31.27936
1038.438, 34.60794
1038.920, 32.55109
1039.402, 30.35410
1039.884, 28.34201
1040.366, 26.04156
1040.848, 21.10803
1041.330, 17.22729
1041.813, 21.36804
1042.295, 34.35547
1042.777, 37.40222
1043.259, 18.86990
1043.741, 7.616882
1044.223, 10.88705
1044.705, 17.25067
1045.187, 22.27493
1045.670, 25.56589
1046.152, 26.38126
1046.634, 24.43958
1047.116, 22.02356
1047.598, 14.88956
1048.080, 13.36169
1048.562, 28.17422
1049.044, 41.40533
1049.526, 38.23758
1050.009, 24.29892
1050.491, 12.50409
1050.973, 3.188385
1051.455, 0.3619380
1051.937, 10.89764
1052.419, 19.81122
1052.901, 20.81427
1053.383, 18.82892
1053.865, 17.00592
1054.348, 16.10037
1054.830, 17.65817
1055.312, 23.19742
1055.794, 27.20972
1056.276, 29.11548
1056.758, 28.25540
1057.240, 19.36978
1057.722, 10.65384
1058.205, 13.49414
1058.687, 24.52094
1059.169, 29.03705
1059.651, 18.37183
1060.133, 10.42075
1060.615, 13.19946
1061.097, 17.66483
1061.579, 20.53949
1062.062, 20.75870
1062.544, 15.58978
1063.026, 6.257294
1063.508, 0.4265140
1063.990, 1.778595
1064.472, 4.594818
1064.954, 8.264221
1065.436, 11.05106
1065.918, 11.76315
1066.401, 10.81494
1066.883, 8.104736
1067.365, 4.076141
1067.847, 1.720337
1068.329, 2.180145
1068.811, 4.427734
1069.293, 10.88251
1069.775, 16.17249
1070.257, 13.96567
1070.740, 8.527527
1071.222, 8.553131
1071.704, 15.04208
1072.186, 18.55304
1072.668, 12.13824
1073.150, 5.913879
1073.632, 4.731445
1074.114, 5.663025
1074.597, 6.543121
1075.079, 7.538635
1075.561, 10.15048
1076.043, 14.50784
1076.525, 16.37134
1077.007, 13.18875
1077.489, 8.001099
1077.971, 2.485565
1078.453, 10.10376
1078.936, 4.097809
1079.418, 9.469604
1079.900, 17.80176
1080.382, 17.98718
1080.864, 16.38745
1081.346, 13.86502
1081.828, 11.82794
1082.310, 12.64502
1082.792, 13.75476
1083.275, 12.07416
1083.757, 8.875427
1084.239, 7.508820
1084.721, 8.877472
1085.203, 10.11090
1085.685, 10.32431
1086.167, 9.719879
1086.649, 7.825378
1087.131, 5.648834
1087.614, 2.837036
1088.096, 1.327148
1088.578, 4.346100
1089.060, 13.60431
1089.542, 19.98203
1090.024, 17.30145
1090.506, 13.78098
1090.988, 14.81226
1091.471, 16.61984
1091.953, 12.57382
1092.435, 5.718048
1092.917, 4.898926
1093.399, 12.98813
1093.881, 18.64267
1094.363, 14.41507
1094.845, 10.78207
1095.328, 14.05078
1095.810, 19.24332
1096.292, 22.65173
1096.774, 23.84378
1097.256, 22.17880
1097.738, 17.23407
1098.220, 14.55475
1098.702, 20.13992
1099.184, 24.96664
1099.667, 24.67694
1100.149, 22.32751
1100.631, 20.55469
1101.113, 19.05939
1101.595, 15.88287
1102.077, 9.793610
1102.559, 7.349060
1103.041, 14.51895
1103.523, 19.95917
1104.006, 17.41953
1104.488, 13.29495
1104.970, 13.43170
1105.452, 16.21457
1105.934, 16.86151
1106.416, 14.28061
1106.898, 12.04074
1107.380, 9.621277
1107.863, 9.190094
1108.345, 14.86646
1108.827, 19.55685
1109.309, 16.23102
1109.791, 8.097107
1110.273, 2.805878
1110.755, 1.038605
1111.237, 1.585846
1111.719, 7.206116
1112.202, 11.20816
1112.684, 9.761200
1113.166, 8.407318
1113.648, 11.77533
1114.130, 17.94223
1114.612, 22.97885
1115.094, 27.46454
1115.576, 27.75604
1116.058, 20.22977
1116.541, 13.96237
1117.023, 9.073242
1117.505, 7.596741
1117.987, 14.25766
1118.469, 23.32861
1118.951, 22.21237
1119.433, 8.579254
1119.915, 2.110565
1120.398, 6.167542
1120.880, 10.41071
1121.362, 13.40088
1121.844, 15.83755
1122.326, 17.85843
1122.808, 19.87061
1123.290, 22.81180
1123.772, 26.78125
1124.255, 29.28769
1124.737, 31.18723
1125.219, 28.17325
1125.701, 17.24646
1126.183, 7.636719
1126.665, 4.250183
1127.147, 5.360626
1127.629, 8.744812
1128.111, 14.28555
1128.594, 20.29276
1129.076, 27.60645
1129.558, 29.19543
1130.040, 23.20386
1130.522, 16.54794
1131.004, 12.40747
1131.486, 10.34396
1131.968, 10.24069
1132.450, 11.47665
1132.933, 9.179626
1133.415, 3.415863
1133.897, 7.063477
1134.379, 21.76941
1134.861, 28.78549
1135.343, 19.59244
1135.825, 6.623596
1136.307, 3.523590
1136.790, 7.207642
1137.272, 5.700562
1137.754, 6.7993000E-02
1138.236, 3.673798
1138.718, 4.610779
1139.200, 1.286011
1139.682, 14.99777
1140.164, 27.03729
1140.646, 28.95642
1141.129, 23.84760
1141.611, 12.58344
1142.093, 0.2527470
1142.575, 3.644257
1143.057, 18.69214
1143.539, 27.47424
1144.021, 25.31909
1144.503, 16.96552
1144.985, 3.448395
1145.468, 7.128143
1145.950, 1.516876
1146.432, 10.69937
1146.914, 17.33832
1147.396, 17.99030
1147.878, 10.79523
1148.360, 1.905243
1148.842, 8.852844
1149.325, 3.057373
1149.807, 4.808868
1150.289, 6.091766
1150.771, 4.834412
1151.253, 1.920227
1151.735, 0.5262450
1152.217, 7.690247
1152.699, 20.54089
1153.182, 27.14020
1153.664, 22.99997
1154.146, 15.24387
1154.628, 2.4750000E-02
1155.110, 9.216675
1155.592, 2.446106
1156.074, 18.01907
1156.556, 19.74020
1157.038, 11.42609
1157.521, 5.975250
1158.003, 5.837769
1158.485, 6.828766
1158.967, 9.435669
1159.449, 11.15942
1159.931, 9.197845
1160.413, 8.223969
1160.895, 13.55838
1161.377, 21.18427
1161.860, 23.35703
1162.342, 19.53345
1162.824, 14.92682
1163.306, 4.748138
1163.788, 2.904022
1164.270, 16.41434
1164.752, 29.33759
1165.234, 35.53131
1165.717, 35.47137
1166.199, 28.21884
1166.681, 15.01108
1167.163, 7.354462
1167.645, 6.423584
1168.127, 5.897339
1168.609, 5.556366
1169.091, 4.410828
1169.573, 1.504974
1170.056, 0.4790650
1170.538, 5.639740
1171.020, 13.99161
1171.502, 16.19604
1171.984, 12.64417
1172.466, 9.205017
1172.948, 6.275146
1173.430, 8.644958
1173.912, 17.26822
1174.395, 22.12213
1174.877, 15.45233
1175.359, 5.608276
1175.841, 6.420715
1176.323, 14.12619
1176.805, 19.82584
1177.287, 23.62317
1177.769, 26.97586
1178.252, 29.55420
1178.734, 27.84689
1179.216, 20.09888
1179.698, 11.89899
1180.180, 6.687164
1180.662, 5.466003
1181.144, 12.80692
1181.626, 22.55133
1182.109, 25.39352
1182.591, 22.93332
1183.073, 22.18719
1183.555, 24.79288
1184.037, 24.41061
1184.519, 13.74774
1185.001, 4.571716
1185.483, 0.7062380
1185.965, 2.833923
1186.448, 17.22482
1186.930, 34.70312
1187.412, 42.31482
1187.894, 39.35696
1188.376, 33.17133
1188.858, 21.78595
1189.340, 13.41537
1189.822, 9.886017
1190.304, 8.603790
1190.787, 10.54840
1191.269, 12.53833
1191.751, 11.43042
1192.233, 8.271576
1192.715, 6.112762
1193.197, 4.024780
1193.679, 8.156097
1194.161, 23.09866
1194.644, 29.13391
1195.126, 18.29279
1195.608, 10.67191
1196.090, 20.72037
1196.572, 35.82925
1197.054, 33.67834
1197.536, 17.10907
1198.018, 11.97125
1198.500, 17.62231
1198.983, 17.56879
1199.465, 10.07001
1199.947, 2.725769
1200.429, 1.273560
1200.911, 6.1951000E-02
1201.393, 9.572693
1201.875, 22.47952
1202.357, 30.43143
1202.839, 34.36737
1203.322, 36.06467
1203.804, 35.89539
1204.286, 29.74936
1204.768, 18.29675
1205.250, 11.83344
1205.732, 18.11896
1206.214, 23.04312
1206.696, 9.726440
1207.179, 3.510345
1207.661, 0.7356570
1208.143, 12.61938
1208.625, 21.44919
1209.107, 25.80432
1209.589, 26.02496
1210.071, 21.66675
1210.553, 17.70645
1211.036, 15.31647
1211.518, 14.04199
1212.000, 11.73840
1212.482, 12.44846
1212.964, 24.03195
1213.446, 37.67474
1213.928, 35.61606
1214.410, 18.78580
1214.892, 9.244934
1215.375, 9.749359
1215.857, 10.10052
1216.339, 9.501404
1216.821, 9.797394
1217.303, 11.92331
1217.785, 14.26743
1218.267, 15.60056
1218.749, 15.63806
1219.231, 12.23123
1219.714, 6.008575
1220.196, 7.699524
1220.678, 16.51889
1221.160, 23.93848
1221.642, 27.65005
1222.124, 24.90475
1222.606, 13.92175
1223.088, 4.534760
1223.571, 9.870270
1224.053, 21.63644
1224.535, 28.59491
1225.017, 31.45151
1225.499, 29.91006
1225.981, 25.63919
1226.463, 22.84140
1226.945, 22.24478
1227.427, 20.07782
1227.910, 10.29434
1228.392, 7.402649
1228.874, 30.22351
1229.356, 50.18271
1229.838, 40.51746
1230.320, 23.44934
1230.802, 30.61728
1231.284, 53.98615
1231.766, 56.24399
1232.249, 24.19519
1232.731, 5.502289
1233.213, 9.970367
1233.695, 12.93747
1234.177, 8.567444
1234.659, 5.459961
1235.141, 9.464539
1235.623, 15.36160
1236.106, 15.05746
1236.588, 9.787201
1237.070, 8.104065
1237.552, 10.07162
1238.034, 13.78644
1238.516, 19.00400
1238.998, 19.02087
1239.480, 12.03976
1239.963, 6.671875
1240.445, 9.821289
1240.927, 16.00378
1241.409, 17.49652
1241.891, 16.10065
1242.373, 14.31445
1242.855, 12.37808
1243.337, 12.16901
1243.819, 12.71503
1244.302, 10.41138
1244.784, 4.095398
1245.266, 1.078217
1245.748, 9.645233
1246.230, 16.75696
1246.712, 15.50372
1247.194, 12.08832
1247.676, 10.73263
1248.158, 10.80893
1248.641, 10.43146
1249.123, 9.962036
1249.605, 13.26257
1250.087, 24.68381
1250.569, 29.38300
1251.051, 24.21600
1251.533, 18.58820
1252.015, 13.04974
1252.498, 12.50348
1252.980, 22.42276
1253.462, 33.58099
1253.944, 28.51892
1254.426, 11.32681
1254.908, 9.051941
1255.390, 19.91193
1255.872, 28.82269
1256.354, 33.74716
1256.837, 31.33099
1257.319, 21.12711
1257.801, 10.04587
1258.283, 2.405396
1258.765, 0.8563840
1259.247, 5.190277
1259.729, 12.77753
1260.211, 12.11804
1260.693, 6.890656
1261.176, 1.661438
1261.658, 2.103027
1262.140, 2.722321
1262.622, 0.3906560
1263.104, 4.153076
1263.586, 6.760071
1264.068, 11.08871
1264.550, 22.71463
1265.033, 30.35944
1265.515, 26.46945
1265.997, 17.48550
1266.479, 9.029785
1266.961, 2.006531
1267.443, 1.453400
1267.925, 9.288116
1268.407, 10.64780
1268.890, 4.090546
1269.372, 7.338715
1269.854, 24.80115
1270.336, 36.63379
1270.818, 31.29785
1271.300, 20.73557
1271.782, 19.22577
1272.264, 22.73889
1272.746, 20.69751
1273.229, 14.64114
1273.711, 9.462006
1274.193, 7.610321
1274.675, 9.208221
1275.157, 13.70282
1275.639, 18.02695
1276.121, 20.49658
1276.603, 22.32645
1277.085, 24.26364
1277.568, 23.16019
1278.050, 9.621063
1278.532, 1.076202
1279.014, 10.04620
1279.496, 30.27759
1279.978, 32.38214
1280.460, 16.65366
1280.942, 11.14737
1281.425, 20.50107
1281.907, 18.05621
1282.389, 6.063660
1282.871, 3.0365000E-02
1283.353, 6.908997
1283.835, 9.062988
1284.317, 0.0000000E+00
##END=



