##NAMES=Vastmanlandite-(Ce)
##RRUFFID=R110171
##IDEAL CHEMISTRY=Ce^3+^_3_CaMg_2_Al_2_Si_5_O_19_(OH)_2_F
##LOCALITY=Bastnas, Riddarhyttan, Sweden
##OWNER=RRUFF
##SOURCE=Bob Jenkins 
##DESCRIPTION=Pink transparent gemmy massive associated with cerite-(Ce) R060708
##STATUS=The identification of this mineral has been confirmed by single-crystal X-ray diffraction.
##URL=rruff.info/R110171
181.7593, 559.5372
182.2415, 561.2297
182.7236, 562.4957
183.2057, 563.2379
183.6878, 563.9510
184.1699, 565.3869
184.6520, 567.8912
185.1342, 570.5792
185.6163, 574.3767
186.0984, 577.9582
186.5805, 579.5108
187.0626, 578.4016
187.5447, 576.3251
188.0269, 576.2379
188.5090, 578.5224
188.9911, 580.7422
189.4732, 582.3040
189.9553, 583.4652
190.4374, 584.6060
190.9196, 585.7958
191.4017, 587.1090
191.8838, 588.7711
192.3659, 590.8131
192.8480, 592.6541
193.3301, 593.7728
193.8123, 594.4050
194.2944, 595.4484
194.7765, 597.2068
195.2586, 599.3844
195.7407, 601.6749
196.2228, 604.0755
196.7050, 606.4094
197.1871, 608.5444
197.6692, 610.4868
198.1513, 612.3663
198.6334, 614.3285
199.1155, 616.1124
199.5977, 617.3609
200.0798, 618.1088
200.5619, 618.9940
201.0440, 620.7772
201.5261, 623.6449
202.0082, 626.2589
202.4904, 628.3085
202.9725, 630.1746
203.4546, 632.0266
203.9367, 633.8909
204.4188, 635.7170
204.9009, 637.3849
205.3831, 638.7607
205.8652, 640.3904
206.3473, 642.5009
206.8294, 644.6832
207.3115, 646.7042
207.7936, 648.5197
208.2758, 650.2376
208.7579, 652.0052
209.2400, 653.9129
209.7221, 655.6478
210.2042, 657.2166
210.6863, 658.6366
211.1685, 659.9037
211.6506, 661.0263
212.1327, 662.0318
212.6148, 662.9221
213.0969, 663.3300
213.5790, 664.4808
214.0612, 666.9286
214.5433, 669.7092
215.0254, 672.2188
215.5075, 674.2634
215.9896, 675.8451
216.4717, 676.8914
216.9539, 677.0527
217.4360, 677.5036
217.9181, 678.5319
218.4002, 679.7249
218.8823, 680.6576
219.3644, 681.2234
219.8466, 681.6716
220.3287, 682.3557
220.8108, 683.3370
221.2929, 684.2214
221.7750, 684.7721
222.2571, 685.2709
222.7393, 686.1551
223.2214, 687.5655
223.7035, 689.0558
224.1856, 689.9963
224.6677, 690.4354
225.1498, 690.9122
225.6320, 691.7438
226.1141, 692.6555
226.5962, 693.1093
227.0783, 692.8904
227.5604, 692.5926
228.0425, 692.9347
228.5247, 693.7566
229.0068, 694.4147
229.4889, 694.3795
229.9710, 694.0276
230.4531, 694.3071
230.9352, 695.5928
231.4174, 696.9103
231.8995, 697.5535
232.3816, 697.6542
232.8637, 697.5039
233.3458, 697.1077
233.8279, 696.5546
234.3101, 696.0547
234.7922, 695.3694
235.2743, 695.2123
235.7564, 696.2988
236.2385, 698.1259
236.7206, 699.6849
237.2028, 700.3168
237.6849, 700.2145
238.1670, 700.1389
238.6491, 699.7489
239.1312, 699.9690
239.6133, 701.8018
240.0955, 704.3368
240.5776, 705.9803
241.0597, 705.4855
241.5418, 703.4277
242.0239, 702.6683
242.5060, 704.3134
242.9882, 705.8044
243.4703, 706.1914
243.9524, 705.9985
244.4345, 705.9919
244.9166, 706.6057
245.3987, 707.7474
245.8809, 709.0009
246.3630, 710.6719
246.8451, 712.0320
247.3272, 712.8086
247.8093, 713.2438
248.2914, 713.6644
248.7736, 714.2590
249.2557, 714.9265
249.7378, 715.2327
250.2199, 714.5952
250.7020, 714.3223
251.1841, 714.6339
251.6663, 715.3745
252.1484, 716.3831
252.6305, 717.5911
253.1126, 718.9582
253.5947, 720.3954
254.0768, 722.1350
254.5590, 723.6391
255.0411, 725.1903
255.5232, 726.3812
256.0053, 726.3967
256.4874, 724.9078
256.9695, 722.9145
257.4517, 722.8344
257.9338, 727.1046
258.4159, 730.5029
258.8980, 732.6848
259.3801, 734.1155
259.8622, 735.1904
260.3444, 736.0555
260.8265, 736.8155
261.3086, 737.6573
261.7907, 738.4760
262.2728, 739.5865
262.7549, 741.1628
263.2371, 742.9506
263.7192, 744.7741
264.2013, 746.5779
264.6834, 748.2402
265.1655, 749.5949
265.6476, 750.6337
266.1298, 751.2618
266.6119, 750.8671
267.0940, 750.4045
267.5761, 750.8392
268.0582, 752.3478
268.5403, 754.3195
269.0225, 756.0944
269.5046, 757.6361
269.9867, 759.0876
270.4688, 760.4628
270.9509, 761.7426
271.4330, 762.8559
271.9152, 763.8058
272.3973, 764.7650
272.8794, 765.8855
273.3615, 767.1893
273.8436, 768.5490
274.3257, 769.8930
274.8079, 771.3453
275.2900, 773.2175
275.7721, 775.4637
276.2542, 777.2665
276.7363, 777.7408
277.2184, 777.1148
277.7006, 777.5289
278.1827, 779.8442
278.6648, 782.5131
279.1469, 784.6766
279.6290, 786.2995
280.1111, 787.2073
280.5933, 786.7831
281.0754, 785.7440
281.5575, 786.4030
282.0396, 789.9593
282.5217, 793.7324
283.0038, 796.2695
283.4860, 797.6644
283.9681, 798.3570
284.4502, 798.2924
284.9323, 797.8289
285.4144, 797.6522
285.8965, 797.6179
286.3787, 798.1649
286.8608, 800.0784
287.3429, 802.9005
287.8250, 804.8577
288.3071, 804.9727
288.7892, 804.5180
289.2714, 805.4626
289.7535, 807.9496
290.2356, 810.3613
290.7177, 811.9511
291.1998, 812.8949
291.6819, 813.6190
292.1641, 814.1097
292.6462, 814.6068
293.1283, 815.4705
293.6104, 816.6463
294.0925, 817.6625
294.5746, 818.0105
295.0568, 818.1231
295.5389, 818.9904
296.0210, 820.9417
296.5031, 823.0022
296.9852, 824.2281
297.4673, 824.8809
297.9495, 825.6407
298.4316, 826.7224
298.9137, 828.0342
299.3958, 829.4545
299.8779, 830.9854
300.3600, 832.6046
300.8422, 834.3873
301.3243, 836.2350
301.8064, 837.9294
302.2885, 839.2812
302.7706, 840.6204
303.2527, 842.5159
303.7349, 845.0425
304.2170, 847.1509
304.6991, 848.0865
305.1812, 848.4180
305.6633, 848.8450
306.1454, 849.3547
306.6276, 850.2044
307.1097, 851.8663
307.5918, 854.2768
308.0739, 856.3068
308.5560, 857.1536
309.0381, 857.8396
309.5203, 859.7546
310.0024, 863.0940
310.4845, 866.0322
310.9666, 866.9142
311.4487, 866.1845
311.9308, 866.0008
312.4130, 866.7614
312.8951, 868.2351
313.3772, 870.3856
313.8593, 873.0984
314.3414, 875.5732
314.8235, 877.3692
315.3057, 878.6374
315.7878, 879.6960
316.2699, 880.3988
316.7520, 881.2975
317.2341, 883.2035
317.7162, 885.6188
318.1984, 887.4111
318.6805, 887.6980
319.1626, 887.3475
319.6447, 887.6115
320.1268, 888.4877
320.6089, 890.0208
321.0911, 893.1307
321.5732, 896.6907
322.0553, 899.0349
322.5374, 899.5065
323.0195, 899.2315
323.5016, 899.3159
323.9838, 899.7635
324.4659, 900.0598
324.9480, 899.6599
325.4301, 899.2816
325.9122, 899.7952
326.3943, 901.3467
326.8765, 903.2814
327.3586, 905.3152
327.8407, 907.4017
328.3228, 909.2404
328.8049, 910.7589
329.2870, 911.9882
329.7692, 912.9354
330.2513, 913.6191
330.7334, 914.2388
331.2155, 914.7652
331.6976, 915.3033
332.1797, 916.1643
332.6619, 917.4915
333.1440, 918.8261
333.6261, 919.6058
334.1082, 920.0798
334.5903, 920.8849
335.0724, 922.5311
335.5546, 924.4432
336.0367, 925.8285
336.5188, 926.6335
337.0009, 927.4196
337.4830, 928.7189
337.9651, 930.1311
338.4473, 930.7776
338.9294, 929.8572
339.4115, 929.2808
339.8936, 931.2841
340.3757, 935.4315
340.8578, 938.3269
341.3400, 938.4532
341.8221, 936.9199
342.3042, 935.3019
342.7863, 933.4056
343.2684, 932.3459
343.7505, 933.3650
344.2327, 935.5978
344.7148, 936.8604
345.1969, 936.4918
345.6790, 935.6127
346.1611, 935.5464
346.6432, 936.1531
347.1254, 936.6145
347.6075, 936.5858
348.0896, 936.3624
348.5717, 936.3484
349.0538, 936.5875
349.5359, 936.7636
350.0181, 936.6338
350.5002, 936.2344
350.9823, 935.8007
351.4644, 935.1480
351.9465, 934.6359
352.4286, 934.6689
352.9108, 935.1192
353.3929, 935.3609
353.8750, 935.0510
354.3571, 934.3802
354.8392, 933.8439
355.3214, 933.5331
355.8035, 933.1377
356.2856, 932.3019
356.7677, 931.3535
357.2498, 931.0414
357.7319, 931.6751
358.2141, 932.4428
358.6962, 932.0750
359.1783, 930.3147
359.6604, 929.0881
360.1425, 929.2932
360.6246, 929.7045
361.1068, 928.8369
361.5889, 926.6700
362.0710, 924.9026
362.5531, 925.1917
363.0352, 927.4824
363.5173, 928.3179
363.9995, 926.3584
364.4816, 924.4223
364.9637, 924.1798
365.4458, 925.0570
365.9279, 925.4258
366.4100, 924.3779
366.8922, 922.3945
367.3743, 921.0493
367.8564, 920.3945
368.3385, 920.2328
368.8206, 921.0711
369.3027, 922.1619
369.7849, 922.6083
370.2670, 922.1673
370.7491, 921.2736
371.2312, 920.5455
371.7133, 920.1985
372.1954, 919.3028
372.6776, 917.2742
373.1597, 915.2339
373.6418, 913.8230
374.1239, 913.0521
374.6060, 912.6435
375.0881, 912.4147
375.5703, 912.3586
376.0524, 912.1230
376.5345, 911.5447
377.0166, 910.9860
377.4987, 910.5384
377.9808, 910.1597
378.4630, 909.7313
378.9451, 909.1971
379.4272, 908.7031
379.9093, 908.6556
380.3914, 909.7726
380.8735, 910.0983
381.3557, 908.8721
381.8378, 907.4035
382.3199, 906.7763
382.8020, 907.0595
383.2841, 907.4377
383.7662, 906.8635
384.2484, 905.0675
384.7305, 904.1746
385.2126, 904.9844
385.6947, 905.9597
386.1768, 906.8661
386.6589, 907.5535
387.1411, 907.8011
387.6232, 907.4122
388.1053, 906.5860
388.5874, 906.1232
389.0695, 906.5248
389.5516, 906.3109
390.0338, 904.3419
390.5159, 902.1266
390.9980, 901.2596
391.4801, 902.1652
391.9622, 903.5410
392.4443, 903.6737
392.9265, 902.4013
393.4086, 901.4908
393.8907, 901.3026
394.3728, 901.4290
394.8549, 901.7654
395.3370, 902.2380
395.8192, 902.6312
396.3013, 902.7728
396.7834, 902.7330
397.2655, 902.7961
397.7476, 903.1016
398.2297, 903.1443
398.7119, 902.1999
399.1940, 900.9684
399.6761, 900.4681
400.1582, 901.2310
400.6403, 902.1600
401.1224, 901.9728
401.6046, 900.7438
402.0867, 899.8284
402.5688, 899.7482
403.0509, 900.0250
403.5330, 899.9874
404.0151, 899.6181
404.4973, 899.5365
404.9794, 900.7007
405.4615, 902.1359
405.9436, 901.9092
406.4257, 899.6514
406.9078, 896.9568
407.3900, 894.9075
407.8721, 893.5216
408.3542, 892.6457
408.8363, 892.7414
409.3184, 892.9367
409.8005, 892.7010
410.2827, 892.1034
410.7648, 891.3879
411.2469, 890.6555
411.7290, 889.8815
412.2111, 888.9508
412.6932, 887.6344
413.1754, 886.7333
413.6575, 886.5557
414.1396, 886.7636
414.6217, 887.1139
415.1038, 887.5261
415.5859, 887.8379
416.0681, 887.9092
416.5502, 887.7392
417.0323, 887.2037
417.5144, 886.1112
417.9965, 884.9158
418.4786, 883.5358
418.9608, 882.2186
419.4429, 881.4743
419.9250, 881.5955
420.4071, 882.2150
420.8892, 882.3055
421.3713, 881.4296
421.8535, 880.6653
422.3356, 879.9789
422.8177, 879.4534
423.2998, 879.1669
423.7819, 879.1202
424.2640, 879.2531
424.7462, 879.5144
425.2283, 879.9085
425.7104, 880.3712
426.1925, 880.9617
426.6746, 881.5582
427.1567, 882.4572
427.6389, 883.2645
428.1210, 883.2565
428.6031, 881.9828
429.0852, 880.1565
429.5673, 879.2224
430.0494, 879.3484
430.5316, 879.7498
431.0137, 880.9003
431.4958, 881.8212
431.9779, 881.7846
432.4600, 880.7817
432.9421, 879.4255
433.4243, 877.7855
433.9064, 876.0957
434.3885, 875.5422
434.8706, 876.6750
435.3527, 877.7860
435.8348, 877.7540
436.3170, 876.9661
436.7991, 875.9676
437.2812, 874.8065
437.7633, 873.5906
438.2454, 872.4598
438.7275, 871.3810
439.2097, 870.0767
439.6918, 868.2321
440.1739, 866.4578
440.6560, 865.9072
441.1381, 866.6790
441.6202, 867.0370
442.1024, 866.4823
442.5845, 865.2766
443.0666, 863.5205
443.5487, 861.2795
444.0308, 859.0644
444.5129, 857.2332
444.9951, 855.7794
445.4772, 854.4945
445.9593, 853.5870
446.4414, 852.5920
446.9235, 851.2006
447.4056, 849.6837
447.8878, 848.4797
448.3699, 847.7340
448.8520, 847.2053
449.3341, 846.5350
449.8162, 845.7247
450.2983, 844.7493
450.7805, 843.4719
451.2626, 842.1848
451.7447, 840.9636
452.2268, 839.8572
452.7089, 838.9885
453.1910, 838.5018
453.6732, 838.2040
454.1553, 837.2004
454.6374, 834.6859
455.1195, 832.8538
455.6016, 832.8076
456.0837, 833.0138
456.5659, 831.9260
457.0480, 829.3658
457.5301, 826.7770
458.0122, 825.9404
458.4943, 826.8036
458.9764, 826.7556
459.4586, 825.2570
459.9407, 823.5039
460.4228, 822.1373
460.9049, 820.9780
461.3870, 819.6778
461.8691, 818.0103
462.3513, 816.3300
462.8334, 815.2289
463.3155, 814.6747
463.7976, 813.7314
464.2797, 811.8251
464.7618, 809.7535
465.2440, 808.6283
465.7261, 808.4584
466.2082, 808.1474
466.6903, 807.2302
467.1724, 806.0253
467.6545, 804.8769
468.1367, 803.8211
468.6188, 802.8603
469.1009, 802.1015
469.5830, 801.4181
470.0651, 800.1415
470.5472, 797.2286
471.0294, 795.1232
471.5115, 795.0277
471.9936, 795.8350
472.4757, 796.2266
472.9578, 795.8450
473.4399, 794.9902
473.9221, 793.9662
474.4042, 792.6972
474.8863, 791.7018
475.3684, 791.3126
475.8505, 790.8007
476.3326, 789.8033
476.8148, 788.5179
477.2969, 787.3248
477.7790, 786.4209
478.2611, 785.6159
478.7432, 784.4615
479.2253, 782.7415
479.7075, 781.3083
480.1896, 780.3969
480.6717, 779.6918
481.1538, 779.1351
481.6359, 778.6635
482.1180, 778.1027
482.6002, 777.2190
483.0823, 776.2014
483.5644, 775.5915
484.0465, 775.4588
484.5286, 775.5084
485.0107, 775.8678
485.4929, 776.2057
485.9750, 776.0918
486.4571, 775.4225
486.9392, 774.6149
487.4213, 773.6506
487.9034, 772.7658
488.3856, 772.8561
488.8677, 774.2517
489.3498, 775.0553
489.8319, 773.2687
490.3140, 769.1081
490.7961, 766.2254
491.2783, 764.9597
491.7604, 764.5699
492.2425, 765.5409
492.7246, 766.9977
493.2067, 767.2391
493.6888, 765.6716
494.1710, 763.1674
494.6531, 760.9678
495.1352, 758.8134
495.6173, 757.9191
496.0994, 759.2234
496.5815, 760.6846
497.0637, 761.6456
497.5458, 761.9577
498.0279, 761.3797
498.5100, 759.6829
498.9921, 757.4906
499.4742, 756.5135
499.9564, 757.5015
500.4385, 757.7896
500.9206, 756.0446
501.4027, 754.2420
501.8848, 753.7584
502.3669, 754.4741
502.8491, 755.2057
503.3312, 755.0551
503.8133, 754.3538
504.2954, 754.2143
504.7775, 754.9219
505.2596, 754.8078
505.7418, 752.3762
506.2239, 749.0683
506.7060, 746.9415
507.1881, 746.2750
507.6702, 746.0795
508.1523, 746.1879
508.6345, 746.3428
509.1166, 746.0403
509.5987, 745.2027
510.0808, 744.2961
510.5629, 743.7441
511.0450, 743.4872
511.5272, 742.8339
512.0093, 741.0671
512.4914, 739.7967
512.9735, 739.8870
513.4556, 740.5748
513.9377, 740.8552
514.4199, 740.4612
514.9020, 739.8014
515.3841, 739.3916
515.8662, 739.2848
516.3483, 739.0781
516.8304, 738.8732
517.3126, 738.4555
517.7947, 737.6696
518.2768, 736.6602
518.7589, 735.5566
519.2410, 734.3931
519.7231, 733.3994
520.2053, 733.1171
520.6874, 733.6378
521.1695, 733.4623
521.6516, 732.0091
522.1337, 730.2885
522.6158, 728.8734
523.0980, 727.7475
523.5801, 726.8660
524.0622, 726.1545
524.5443, 725.7451
525.0264, 726.0295
525.5085, 726.8574
525.9907, 727.2768
526.4728, 726.8818
526.9549, 726.1208
527.4370, 725.6808
527.9191, 725.6472
528.4012, 725.3743
528.8834, 724.2651
529.3655, 723.3580
529.8476, 723.6354
530.3297, 724.7533
530.8118, 725.5911
531.2939, 725.5205
531.7761, 724.9559
532.2582, 725.0085
532.7403, 726.4079
533.2224, 727.0421
533.7045, 726.2863
534.1866, 725.3618
534.6688, 724.8207
535.1509, 724.7438
535.6330, 725.1439
536.1151, 726.1826
536.5972, 727.5031
537.0793, 728.0994
537.5615, 727.8046
538.0436, 727.4755
538.5257, 727.4053
539.0078, 727.3678
539.4899, 727.1437
539.9720, 726.7413
540.4542, 726.3741
540.9363, 725.9327
541.4184, 725.7015
541.9005, 726.5233
542.3826, 728.3180
542.8647, 729.1435
543.3469, 727.6891
543.8290, 724.9233
544.3111, 723.3943
544.7932, 723.6741
545.2753, 723.6412
545.7574, 722.5615
546.2396, 721.3553
546.7217, 720.7314
547.2038, 720.7454
547.6859, 721.2706
548.1680, 722.2994
548.6501, 723.6080
549.1323, 724.1984
549.6144, 723.8184
550.0965, 723.1063
550.5786, 721.5127
551.0607, 720.1317
551.5428, 720.0240
552.0250, 721.0491
552.5071, 722.0092
552.9892, 721.9816
553.4713, 721.2643
553.9534, 720.8036
554.4355, 720.7299
554.9177, 720.1954
555.3998, 718.3316
555.8819, 716.2219
556.3640, 715.5010
556.8461, 716.4075
557.3282, 716.9005
557.8104, 715.6926
558.2925, 713.9426
558.7746, 713.2401
559.2567, 713.5148
559.7388, 713.3177
560.2209, 711.6121
560.7031, 709.0676
561.1852, 707.8223
561.6673, 709.4568
562.1494, 710.1705
562.6315, 709.2927
563.1136, 707.9680
563.5958, 706.8478
564.0779, 706.0474
564.5600, 705.5797
565.0421, 705.5142
565.5242, 705.6722
566.0063, 705.4081
566.4885, 704.5423
566.9706, 703.7811
567.4527, 703.5525
567.9348, 703.2823
568.4169, 702.3884
568.8990, 700.9738
569.3812, 699.8624
569.8633, 699.9835
570.3454, 700.4080
570.8275, 699.5297
571.3096, 697.4525
571.7917, 695.8012
572.2739, 695.3174
572.7560, 695.5056
573.2381, 695.4557
573.7202, 695.0045
574.2023, 694.9798
574.6844, 696.1597
575.1666, 697.1857
575.6487, 696.9581
576.1308, 695.7897
576.6129, 694.6742
577.0950, 694.1353
577.5771, 693.8129
578.0593, 692.8300
578.5414, 690.7795
579.0235, 689.1734
579.5056, 688.0897
579.9877, 687.4662
580.4698, 687.5988
580.9520, 688.1621
581.4341, 688.4482
581.9162, 688.0888
582.3983, 687.4222
582.8804, 686.8144
583.3625, 686.2729
583.8447, 685.9763
584.3268, 686.1075
584.8089, 686.1669
585.2910, 685.3996
585.7731, 683.9394
586.2552, 683.1960
586.7374, 683.9997
587.2195, 684.8125
587.7016, 684.8596
588.1837, 684.3701
588.6658, 683.7649
589.1479, 683.1721
589.6301, 682.4258
590.1122, 681.2018
590.5943, 679.3568
591.0764, 678.4405
591.5585, 679.7651
592.0406, 680.4814
592.5228, 679.2874
593.0049, 677.4237
593.4870, 676.3735
593.9691, 676.5079
594.4512, 677.0930
594.9333, 677.6186
595.4155, 678.0381
595.8976, 678.1519
596.3797, 677.9470
596.8618, 677.4613
597.3439, 676.8012
597.8260, 675.8153
598.3082, 674.0599
598.7903, 670.8091
599.2724, 668.6329
599.7545, 669.4437
600.2366, 671.0675
600.7188, 671.0146
601.2009, 669.2888
601.6830, 667.5553
602.1651, 666.9617
602.6472, 667.1437
603.1293, 666.7147
603.6115, 665.0842
604.0936, 663.9287
604.5757, 663.5433
605.0578, 663.4478
605.5399, 663.5927
606.0220, 663.7897
606.5042, 663.6068
606.9863, 662.7574
607.4684, 661.4725
607.9505, 659.9868
608.4326, 658.3093
608.9147, 656.9008
609.3969, 655.9485
609.8790, 655.1855
610.3611, 654.4428
610.8432, 653.6982
611.3253, 652.6020
611.8074, 650.3058
612.2896, 648.4981
612.7717, 648.5558
613.2538, 649.5648
613.7359, 650.0507
614.2180, 649.5526
614.7001, 648.3190
615.1823, 646.4348
615.6644, 643.8061
616.1465, 642.5155
616.6286, 643.8702
617.1107, 644.7806
617.5928, 644.4057
618.0750, 643.2690
618.5571, 641.6555
619.0392, 639.6780
619.5213, 638.0680
620.0034, 637.7690
620.4855, 638.1416
620.9677, 637.6604
621.4498, 636.2416
621.9319, 634.7482
622.4140, 633.5466
622.8961, 632.5953
623.3782, 631.8546
623.8604, 631.4454
624.3425, 630.8497
624.8246, 630.0310
625.3067, 628.9950
625.7888, 627.4432
626.2709, 625.6935
626.7531, 624.4861
627.2352, 624.1992
627.7173, 624.3693
628.1994, 624.1364
628.6815, 623.3905
629.1636, 622.8274
629.6458, 622.5085
630.1279, 622.3499
630.6100, 622.7428
631.0921, 623.1455
631.5742, 622.5092
632.0563, 620.3387
632.5385, 617.8164
633.0206, 615.5188
633.5027, 613.5486
633.9848, 612.1456
634.4669, 611.3430
634.9490, 610.9570
635.4312, 611.0054
635.9133, 611.2677
636.3954, 610.6749
636.8775, 607.8995
637.3596, 606.0637
637.8417, 605.9310
638.3239, 606.2307
638.8060, 606.3558
639.2881, 606.1016
639.7702, 605.1064
640.2523, 602.8898
640.7344, 600.4984
641.2166, 600.5251
641.6987, 603.1402
642.1808, 604.0568
642.6629, 601.7174
643.1450, 598.6503
643.6271, 597.1721
644.1093, 596.8633
644.5914, 596.2845
645.0735, 595.2680
645.5556, 593.9210
646.0377, 591.9691
646.5198, 589.8519
647.0020, 588.1107
647.4841, 586.8986
647.9662, 586.3376
648.4483, 586.6906
648.9304, 587.7203
649.4125, 587.6575
649.8947, 585.7678
650.3768, 584.1586
650.8589, 583.4291
651.3410, 582.9044
651.8231, 582.1257
652.3052, 581.1053
652.7874, 580.1198
653.2695, 579.4403
653.7516, 578.7330
654.2337, 577.4704
654.7158, 575.7849
655.1979, 574.2236
655.6801, 572.9006
656.1622, 572.0200
656.6443, 571.9783
657.1264, 572.8655
657.6085, 572.8241
658.0906, 570.7766
658.5728, 569.2860
659.0549, 569.5863
659.5370, 570.3582
660.0191, 570.3164
660.5012, 569.2288
660.9833, 567.4752
661.4655, 565.0699
661.9476, 562.3984
662.4297, 560.8393
662.9118, 560.5258
663.3939, 560.2977
663.8760, 559.8175
664.3582, 559.2617
664.8403, 558.8725
665.3224, 558.6325
665.8045, 558.2908
666.2866, 557.8870
666.7687, 557.2897
667.2509, 556.3646
667.7330, 555.2192
668.2151, 554.0365
668.6972, 552.8577
669.1793, 551.5420
669.6614, 549.7670
670.1436, 547.6459
670.6257, 546.9296
671.1078, 548.5818
671.5899, 549.6393
672.0720, 548.8879
672.5541, 547.4922
673.0363, 546.2208
673.5184, 545.1347
674.0005, 544.1544
674.4826, 543.1365
674.9647, 542.2819
675.4468, 541.9899
675.9290, 542.0314
676.4111, 541.6785
676.8932, 540.7014
677.3753, 539.5001
677.8574, 538.5768
678.3395, 537.9578
678.8217, 536.9429
679.3038, 534.5955
679.7859, 533.0774
680.2680, 533.8290
680.7501, 534.8436
681.2322, 533.9633
681.7144, 531.2474
682.1965, 528.8194
682.6786, 528.2686
683.1607, 528.7191
683.6428, 528.9056
684.1249, 528.8261
684.6071, 528.4027
685.0892, 527.5417
685.5713, 526.5891
686.0534, 526.0164
686.5355, 525.8770
687.0176, 525.0841
687.4998, 522.6815
687.9819, 520.8831
688.4640, 520.7067
688.9461, 521.1082
689.4282, 521.0546
689.9103, 520.4144
690.3925, 519.6699
690.8746, 519.2666
691.3567, 518.9413
691.8388, 517.8860
692.3209, 516.0585
692.8030, 514.7507
693.2852, 514.5785
693.7673, 514.5132
694.2494, 513.3176
694.7315, 511.0931
695.2136, 509.5026
695.6957, 509.0962
696.1779, 508.7335
696.6600, 508.0331
697.1421, 507.1677
697.6242, 506.2595
698.1063, 505.3783
698.5884, 504.6607
699.0706, 504.2396
699.5527, 504.0044
700.0348, 503.6132
700.5169, 503.0255
700.9990, 502.5597
701.4811, 502.4054
701.9633, 502.2051
702.4454, 501.7461
702.9275, 501.0069
703.4096, 499.8120
703.8917, 497.4352
704.3738, 495.5666
704.8560, 495.3068
705.3381, 495.6958
705.8202, 495.6328
706.3023, 494.9985
706.7844, 494.1633
707.2665, 493.3513
707.7487, 492.6257
708.2308, 492.2661
708.7129, 492.4258
709.1950, 492.2114
709.6771, 491.3091
710.1592, 490.2886
710.6414, 489.4878
711.1235, 488.8449
711.6056, 488.2846
712.0877, 487.9889
712.5698, 487.3211
713.0519, 485.3818
713.5341, 483.2723
714.0162, 482.6295
714.4983, 483.2222
714.9804, 483.3806
715.4625, 482.1193
715.9446, 480.1034
716.4268, 478.7438
716.9089, 478.1844
717.3910, 477.6190
717.8731, 476.9819
718.3552, 476.3882
718.8373, 475.8983
719.3195, 475.4756
719.8016, 475.1383
720.2837, 474.9504
720.7658, 474.4642
721.2479, 473.0276
721.7300, 471.4958
722.2122, 470.9464
722.6943, 471.1676
723.1764, 471.2651
723.6585, 470.8515
724.1406, 470.0716
724.6227, 469.0781
725.1049, 467.8057
725.5870, 466.9257
726.0691, 466.8531
726.5512, 466.5008
727.0333, 464.9810
727.5154, 463.3312
727.9976, 462.8596
728.4797, 463.6314
728.9618, 463.9114
729.4439, 462.4799
729.9260, 460.6669
730.4081, 459.6608
730.8903, 459.2368
731.3724, 458.8481
731.8545, 458.3209
732.3366, 457.6345
732.8187, 456.7285
733.3008, 455.6353
733.7830, 454.7046
734.2651, 453.8883
734.7472, 453.3475
735.2293, 453.5818
735.7114, 453.7240
736.1935, 452.9725
736.6757, 451.5340
737.1578, 450.4092
737.6399, 450.2358
738.1220, 450.0268
738.6041, 449.0766
739.0862, 447.6820
739.5684, 446.1248
740.0505, 444.5597
740.5326, 443.4804
741.0147, 443.3138
741.4968, 443.6952
741.9789, 443.4714
742.4611, 442.4356
742.9432, 441.5428
743.4253, 440.8033
743.9074, 440.3305
744.3895, 440.5240
744.8716, 440.9279
745.3538, 440.6098
745.8359, 439.1809
746.3180, 437.8380
746.8001, 437.1454
747.2822, 436.7905
747.7643, 436.6620
748.2465, 436.5868
748.7286, 436.0401
749.2107, 434.7841
749.6928, 433.4335
750.1749, 433.0944
750.6570, 433.8562
751.1392, 433.6404
751.6213, 432.0464
752.1034, 430.3763
752.5855, 428.9181
753.0676, 427.8032
753.5497, 427.2683
754.0319, 427.3288
754.5140, 427.3893
754.9961, 427.3333
755.4782, 427.2069
755.9603, 427.2502
756.4424, 427.1512
756.9246, 426.2711
757.4067, 424.5830
757.8888, 422.8625
758.3709, 421.7817
758.8530, 421.1479
759.3351, 420.3147
759.8173, 419.2643
760.2994, 418.1612
760.7815, 416.9158
761.2636, 415.8779
761.7457, 415.6015
762.2278, 415.8379
762.7100, 415.3641
763.1921, 413.5483
763.6742, 411.9740
764.1563, 411.0632
764.6384, 410.4959
765.1205, 410.1764
765.6027, 409.9574
766.0848, 409.5706
766.5669, 408.8882
767.0490, 408.0415
767.5311, 407.2135
768.0132, 406.3769
768.4954, 405.2569
768.9775, 403.7578
769.4596, 402.7253
769.9417, 402.7885
770.4238, 403.2050
770.9059, 402.5641
771.3881, 400.3807
771.8702, 399.1149
772.3523, 399.5410
772.8344, 399.9199
773.3165, 399.5348
773.7986, 398.8603
774.2808, 398.5646
774.7629, 398.6617
775.2450, 398.4620
775.7271, 397.3011
776.2092, 395.7821
776.6913, 394.7340
777.1735, 394.1083
777.6556, 393.8673
778.1377, 394.0257
778.6198, 393.8805
779.1019, 392.7154
779.5840, 390.8246
780.0662, 389.7809
780.5483, 390.3515
781.0304, 390.3068
781.5125, 388.9367
781.9946, 387.5181
782.4767, 386.8373
782.9589, 386.5054
783.4410, 385.6487
783.9231, 383.8994
784.4052, 382.4016
784.8873, 382.2383
785.3694, 382.4379
785.8516, 381.5285
786.3337, 379.8656
786.8158, 379.0253
787.2979, 379.6279
787.7800, 380.6498
788.2621, 380.7744
788.7443, 380.0236
789.2264, 379.0233
789.7085, 377.5323
790.1906, 376.4829
790.6727, 376.3986
791.1548, 376.6152
791.6370, 376.5820
792.1191, 376.2923
792.6012, 375.6595
793.0833, 374.2964
793.5654, 373.0479
794.0475, 372.2296
794.5297, 371.6839
795.0118, 371.3571
795.4939, 371.1484
795.9760, 370.8068
796.4581, 370.1712
796.9402, 369.4814
797.4224, 369.1992
797.9045, 369.2270
798.3866, 368.9346
798.8687, 368.2664
799.3508, 367.2368
799.8329, 365.6355
800.3151, 364.0218
800.7972, 363.5598
801.2793, 364.7410
801.7614, 365.1246
802.2435, 364.3072
802.7256, 363.2729
803.2078, 362.1176
803.6899, 361.0117
804.1720, 359.9474
804.6541, 359.0299
805.1362, 358.7520
805.6183, 360.0160
806.1005, 361.2966
806.5826, 360.5714
807.0647, 358.7407
807.5468, 357.9090
808.0289, 358.3734
808.5110, 359.1340
808.9932, 359.5338
809.4753, 359.5772
809.9574, 359.2048
810.4395, 358.2757
810.9216, 357.5899
811.4037, 357.4542
811.8859, 357.1187
812.3680, 355.9207
812.8501, 354.4300
813.3322, 353.3944
813.8143, 352.8328
814.2964, 352.8297
814.7786, 354.2251
815.2607, 355.3083
815.7428, 354.7660
816.2249, 353.4343
816.7070, 352.4360
817.1891, 352.0256
817.6713, 351.9731
818.1534, 352.2392
818.6355, 352.5507
819.1176, 352.2101
819.5997, 351.3386
820.0818, 351.0432
820.5640, 351.6014
821.0461, 351.9528
821.5282, 351.2910
822.0103, 349.9369
822.4924, 348.8654
822.9745, 348.1212
823.4567, 347.5448
823.9388, 347.1838
824.4209, 346.9341
824.9030, 346.9046
825.3851, 346.8926
825.8672, 346.6053
826.3494, 346.0087
826.8315, 345.4451
827.3136, 344.9260
827.7957, 344.6497
828.2778, 345.2274
828.7599, 346.0263
829.2421, 345.6654
829.7242, 344.0557
830.2063, 342.5110
830.6884, 342.0463
831.1705, 342.2708
831.6526, 342.1728
832.1348, 341.7299
832.6169, 341.7619
833.0990, 342.6801
833.5811, 342.9417
834.0632, 341.1239
834.5453, 338.4289
835.0275, 337.6092
835.5096, 339.5680
835.9917, 340.7311
836.4738, 340.5774
836.9559, 340.2173
837.4380, 339.9221
837.9202, 339.7201
838.4023, 339.7138
838.8844, 339.8513
839.3665, 339.7757
839.8486, 339.1541
840.3307, 338.4170
840.8129, 337.9026
841.2950, 337.6279
841.7771, 337.7778
842.2592, 338.2838
842.7413, 338.5796
843.2234, 338.2899
843.7056, 337.6934
844.1877, 337.2939
844.6698, 337.0816
845.1519, 337.2514
845.6340, 337.9632
846.1161, 338.6263
846.5983, 339.0715
847.0804, 339.2664
847.5625, 339.0723
848.0446, 338.4533
848.5267, 338.0333
849.0089, 337.8209
849.4910, 337.8278
849.9731, 338.3752
850.4552, 338.8977
850.9373, 338.9209
851.4194, 338.4543
851.9016, 337.6137
852.3837, 336.2580
852.8658, 335.2393
853.3479, 335.6072
853.8300, 336.7094
854.3121, 337.5843
854.7943, 338.0970
855.2764, 338.0007
855.7585, 337.1804
856.2406, 336.2340
856.7227, 336.0320
857.2048, 335.3889
857.6870, 334.7790
858.1691, 334.8431
858.6512, 333.9415
859.1333, 334.0443
859.6154, 334.3583
860.0975, 334.2505
860.5797, 333.7568
861.0618, 333.1158
861.5439, 332.2212
862.0260, 331.3654
862.5081, 330.5044
862.9902, 329.7646
863.4724, 329.1983
863.9545, 328.8157
864.4366, 328.7139
864.9187, 328.9012
865.4008, 328.9341
865.8829, 328.4720
866.3651, 327.7433
866.8472, 326.9098
867.3293, 326.0353
867.8114, 325.2404
868.2935, 324.5528
868.7756, 323.9102
869.2578, 323.2389
869.7399, 322.6654
870.2220, 322.6847
870.7041, 323.3526
871.1862, 323.2496
871.6683, 322.0168
872.1505, 320.8807
872.6326, 320.4596
873.1147, 320.5106
873.5968, 320.6801
874.0789, 321.0260
874.5610, 321.1671
875.0432, 321.2838
875.5253, 320.9710
876.0074, 319.7132
876.4895, 318.3293
876.9716, 317.4795
877.4537, 317.1285
877.9359, 316.8984
878.4180, 316.6603
878.9001, 316.5269
879.3822, 316.7131
879.8643, 316.9356
880.3464, 317.0545
880.8286, 316.9064
881.3107, 315.9288
881.7928, 313.9992
882.2749, 312.2238
882.7570, 311.9786
883.2391, 312.7458
883.7213, 312.8290
884.2034, 312.2801
884.6855, 312.0006
885.1676, 312.2259
885.6497, 312.5766
886.1318, 312.8098
886.6140, 312.8799
887.0961, 312.6430
887.5782, 312.1361
888.0603, 311.1888
888.5424, 309.2972
889.0245, 307.6596
889.5067, 306.9317
889.9888, 306.5966
890.4709, 306.0752
890.9530, 305.3407
891.4351, 304.6697
891.9172, 304.2675
892.3994, 303.7478
892.8815, 302.7443
893.3636, 301.7077
893.8457, 301.1864
894.3278, 301.0361
894.8099, 300.7435
895.2921, 300.1032
895.7742, 299.1730
896.2563, 297.8945
896.7384, 296.4250
897.2205, 294.9753
897.7026, 293.5947
898.1848, 292.4414
898.6669, 291.5566
899.1490, 290.8638
899.6311, 290.3392
900.1132, 289.8683
900.5953, 288.9149
901.0775, 287.4063
901.5596, 286.3237
902.0417, 285.9538
902.5238, 285.4982
903.0059, 284.3713
903.4880, 282.9698
903.9702, 282.1349
904.4523, 282.0586
904.9344, 281.7762
905.4165, 281.2602
905.8986, 280.5691
906.3807, 279.7565
906.8629, 278.7323
907.3450, 277.0804
907.8271, 275.0962
908.3092, 273.9815
908.7913, 274.3777
909.2734, 274.9658
909.7556, 275.6179
910.2377, 275.8102
910.7198, 274.7603
911.2019, 272.9787
911.6840, 271.4376
912.1661, 270.4438
912.6483, 269.7718
913.1304, 269.3834
913.6125, 269.0708
914.0946, 268.4426
914.5767, 267.6057
915.0588, 266.8948
915.5410, 266.3662
916.0231, 265.9750
916.5052, 265.7076
916.9873, 265.4578
917.4694, 265.0187
917.9515, 264.3853
918.4337, 263.6386
918.9158, 262.7465
919.3979, 261.8873
919.8800, 261.1474
920.3621, 260.4113
920.8442, 259.5229
921.3264, 258.5124
921.8085, 257.7337
922.2906, 257.3206
922.7727, 256.9198
923.2548, 256.3606
923.7369, 255.9800
924.2191, 256.2325
924.7012, 256.6326
925.1833, 256.2926
925.6654, 255.0692
926.1475, 254.2979
926.6296, 254.9238
927.1118, 255.4536
927.5939, 254.9850
928.0760, 254.1292
928.5581, 253.4990
929.0402, 253.1420
929.5223, 252.8860
930.0045, 252.6608
930.4866, 252.4619
930.9687, 252.2868
931.4508, 252.1310
931.9329, 252.0911
932.4150, 252.0612
932.8972, 251.6132
933.3793, 250.6840
933.8614, 249.8791
934.3435, 249.8039
934.8256, 250.0474
935.3077, 249.3812
935.7899, 247.9136
936.2720, 247.4322
936.7541, 248.2447
937.2362, 248.5747
937.7183, 247.3837
938.2004, 245.8105
938.6826, 245.7205
939.1647, 247.1728
939.6468, 247.1931
940.1289, 244.8842
940.6110, 243.3480
941.0931, 243.5338
941.5753, 244.1666
942.0574, 244.5661
942.5395, 244.7018
943.0216, 244.4772
943.5037, 243.7466
943.9858, 243.1053
944.4680, 242.4753
944.9501, 242.0967
945.4322, 242.4134
945.9143, 242.7711
946.3964, 242.3892
946.8785, 241.3752
947.3607, 240.5136
947.8428, 240.0139
948.3249, 239.8032
948.8070, 240.0842
949.2891, 240.4278
949.7712, 240.4720
950.2534, 240.2440
950.7355, 239.7654
951.2176, 239.0973
951.6997, 238.5683
952.1818, 238.3789
952.6639, 238.5275
953.1461, 239.3443
953.6282, 240.4120
954.1103, 240.6421
954.5924, 240.0268
955.0745, 239.3392
955.5566, 238.9577
956.0388, 238.7050
956.5209, 238.2427
957.0030, 237.7011
957.4851, 237.9029
957.9672, 238.8434
958.4493, 239.3826
958.9315, 239.2300
959.4136, 238.9413
959.8957, 238.9410
960.3778, 239.0592
960.8599, 238.7872
961.3420, 237.9476
961.8242, 237.6900
962.3063, 238.3405
962.7884, 238.7609
963.2705, 238.4858
963.7526, 237.9600
964.2347, 237.5942
964.7169, 237.3701
965.1990, 237.1481
965.6811, 236.8997
966.1632, 236.6991
966.6453, 236.7821
967.1274, 236.6436
967.6096, 235.6013
968.0917, 234.4927
968.5738, 234.6619
969.0559, 236.0870
969.5380, 236.7643
970.0201, 235.7215
970.5023, 234.5146
970.9844, 233.3324
971.4665, 232.5270
971.9486, 232.5660
972.4307, 233.1374
972.9128, 233.7819
973.3950, 234.3561
973.8771, 234.2881
974.3592, 232.5477
974.8413, 230.7146
975.3234, 230.2008
975.8055, 230.4707
976.2877, 230.9854
976.7698, 231.4785
977.2519, 231.4131
977.7340, 230.5162
978.2161, 229.6210
978.6982, 229.9440
979.1804, 230.7204
979.6625, 230.2790
980.1446, 228.9948
980.6267, 228.2082
981.1088, 228.1956
981.5909, 228.5751
982.0731, 229.1544
982.5552, 229.5636
983.0373, 228.8760
983.5194, 227.3157
984.0015, 226.5530
984.4836, 226.6353
984.9658, 226.9900
985.4479, 227.4945
985.9300, 227.6679
986.4121, 226.9845
986.8942, 225.7459
987.3763, 224.9970
987.8585, 224.7343
988.3406, 225.1068
988.8227, 226.3939
989.3048, 227.3790
989.7869, 227.5335
990.2690, 227.1989
990.7512, 226.6812
991.2333, 226.0153
991.7154, 225.6844
992.1975, 225.9617
992.6796, 225.9748
993.1617, 225.3091
993.6439, 224.8686
994.1260, 225.2979
994.6081, 226.0718
995.0902, 226.4585
995.5723, 226.4494
996.0544, 226.3495
996.5366, 225.9387
997.0187, 225.7712
997.5008, 226.0850
997.9829, 226.5158
998.4650, 227.0210
998.9471, 227.4200
999.4293, 227.3624
999.9114, 226.7811
1000.393, 226.2558
1000.876, 225.9577
1001.358, 225.7320
1001.840, 225.4850
1002.322, 225.3115
1002.804, 225.4623
1003.286, 225.7189
1003.768, 225.4851
1004.250, 224.5603
1004.733, 223.8936
1005.215, 224.2234
1005.697, 224.7549
1006.179, 224.9847
1006.661, 225.0038
1007.143, 224.9264
1007.625, 224.7756
1008.107, 224.5081
1008.589, 224.0908
1009.072, 223.7635
1009.554, 223.8003
1010.036, 223.9761
1010.518, 223.9835
1011.000, 223.9347
1011.482, 224.0783
1011.964, 224.4305
1012.446, 224.8784
1012.929, 225.3845
1013.411, 225.7588
1013.893, 225.6565
1014.375, 225.3189
1014.857, 225.1264
1015.339, 225.1441
1015.821, 225.7057
1016.303, 226.7827
1016.785, 227.5664
1017.268, 227.4780
1017.750, 226.9855
1018.232, 226.8448
1018.714, 226.9630
1019.196, 226.9049
1019.678, 226.6947
1020.160, 226.7545
1020.642, 227.1956
1021.125, 227.3963
1021.607, 226.7894
1022.089, 227.0878
1022.571, 226.9257
1023.053, 226.7083
1023.535, 226.8382
1024.017, 226.1440
1024.499, 226.0280
1024.981, 227.0027
1025.464, 228.1519
1025.946, 228.6615
1026.428, 228.6727
1026.910, 228.6286
1027.392, 228.5473
1027.874, 228.1661
1028.356, 227.3628
1028.838, 226.8010
1029.321, 226.7003
1029.803, 226.9670
1030.285, 227.5967
1030.767, 228.4625
1031.249, 228.9727
1031.731, 229.0113
1032.213, 229.1880
1032.695, 229.7299
1033.177, 229.7775
1033.660, 228.5657
1034.142, 227.5088
1034.624, 228.3439
1035.106, 230.6401
1035.588, 231.6325
1036.070, 230.6060
1036.552, 230.0042
1037.034, 230.1162
1037.516, 230.2202
1037.999, 229.8504
1038.481, 229.5650
1038.963, 230.0606
1039.445, 231.2213
1039.927, 232.1549
1040.409, 233.0313
1040.891, 233.3757
1041.373, 232.6573
1041.855, 232.0848
1042.338, 232.1542
1042.820, 232.5435
1043.302, 233.1167
1043.784, 233.7883
1044.266, 233.9248
1044.748, 233.1227
1045.230, 232.4363
1045.712, 231.6614
1046.195, 231.3238
1046.677, 232.0104
1047.159, 232.9688
1047.641, 233.3927
1048.123, 233.3165
1048.605, 233.2115
1049.087, 232.8785
1049.569, 232.9724
1050.052, 234.1581
1050.534, 235.1136
1051.016, 234.8559
1051.498, 234.3172
1051.980, 234.7046
1052.462, 235.8723
1052.944, 236.5340
1053.426, 236.1488
1053.908, 235.8902
1054.391, 236.2297
1054.873, 236.5146
1055.355, 236.3238
1055.837, 235.9646
1056.319, 235.5529
1056.801, 235.2758
1057.283, 235.9346
1057.765, 238.5292
1058.248, 240.1243
1058.730, 238.9929
1059.212, 237.6379
1059.694, 237.3368
1060.176, 237.6532
1060.658, 238.1681
1061.140, 238.7493
1061.622, 239.1741
1062.104, 239.3674
1062.587, 239.4404
1063.069, 239.1900
1063.551, 239.1048
1064.033, 239.8375
1064.515, 240.6318
1064.997, 240.3383
1065.479, 239.2620
1065.961, 238.9332
1066.443, 240.0929
1066.926, 240.9220
1067.408, 240.3421
1067.890, 239.6011
1068.372, 239.1287
1068.854, 239.1266
1069.336, 240.0810
1069.818, 241.6597
1070.300, 242.8445
1070.782, 243.3565
1071.265, 243.4165
1071.747, 242.6912
1072.229, 242.0461
1072.711, 242.0903
1073.193, 242.4238
1073.675, 242.7022
1074.157, 242.8500
1074.639, 242.7961
1075.122, 242.4888
1075.604, 242.2372
1076.086, 242.1320
1076.568, 242.1844
1077.050, 242.3583
1077.532, 242.7272
1078.014, 243.6732
1078.496, 244.8168
1078.979, 245.0786
1079.461, 244.1188
1079.943, 243.5858
1080.425, 244.7902
1080.907, 245.9392
1081.389, 245.9257
1081.871, 245.4910
1082.353, 245.1149
1082.835, 244.9748
1083.318, 245.3232
1083.800, 246.2091
1084.282, 247.1533
1084.764, 248.1512
1085.246, 248.9007
1085.728, 249.0405
1086.210, 249.0628
1086.692, 249.4146
1087.175, 249.9579
1087.657, 250.3743
1088.139, 250.6143
1088.621, 250.8930
1089.103, 251.4485
1089.585, 251.8426
1090.067, 251.4729
1090.549, 251.2787
1091.031, 252.3175
1091.514, 253.8343
1091.996, 254.5626
1092.478, 254.4336
1092.960, 254.4769
1093.442, 255.1968
1093.924, 255.8326
1094.406, 255.8529
1094.888, 255.9725
1095.370, 256.6831
1095.853, 257.7570
1096.335, 259.2358
1096.817, 260.8407
1097.299, 261.3368
1097.781, 259.8422
1098.263, 258.6708
1098.745, 258.5956
1099.227, 258.9824
1099.709, 259.8544
1100.192, 260.7506
1100.674, 261.0153
1101.156, 260.8914
1101.638, 261.3752
1102.120, 262.9315
1102.602, 264.0262
1103.084, 263.9306
1103.566, 263.7602
1104.049, 263.8658
1104.531, 264.1538
1105.013, 264.5127
1105.495, 264.9814
1105.977, 265.6823
1106.459, 266.6540
1106.941, 267.6976
1107.423, 269.2569
1107.906, 270.2215
1108.388, 269.6620
1108.870, 269.0651
1109.352, 269.5934
1109.834, 270.6679
1110.316, 271.2736
1110.798, 271.3472
1111.280, 271.2268
1111.762, 270.3120
1112.245, 270.1584
1112.727, 271.7255
1113.209, 273.2133
1113.691, 273.5919
1114.173, 273.5052
1114.655, 273.7277
1115.137, 274.2442
1115.619, 274.8307
1116.102, 275.3023
1116.584, 276.1810
1117.066, 277.9477
1117.548, 279.4058
1118.030, 280.0016
1118.512, 280.2688
1118.994, 280.6114
1119.476, 281.0676
1119.958, 281.8286
1120.441, 283.0935
1120.923, 284.0098
1121.405, 284.3878
1121.887, 284.8209
1122.369, 285.4192
1122.851, 286.1978
1123.333, 287.2609
1123.815, 288.4234
1124.297, 289.2895
1124.780, 289.8546
1125.262, 290.0528
1125.744, 289.5404
1126.226, 290.0924
1126.708, 292.3922
1127.190, 294.5204
1127.672, 295.4217
1128.154, 295.5429
1128.636, 295.3817
1129.119, 295.0625
1129.601, 295.8345
1130.083, 297.8704
1130.565, 298.9863
1131.047, 298.8422
1131.529, 298.9095
1132.011, 299.7978
1132.493, 300.9532
1132.976, 301.8643
1133.458, 302.5108
1133.940, 302.6920
1134.422, 302.4781
1134.904, 302.8583
1135.386, 303.8397
1135.868, 304.6079
1136.350, 304.9479
1136.833, 305.3120
1137.315, 306.0350
1137.797, 306.8906
1138.279, 307.3746
1138.761, 307.6978
1139.243, 308.7682
1139.725, 310.3568
1140.207, 311.3551
1140.689, 311.6982
1141.172, 312.2496
1141.654, 313.4221
1142.136, 314.8893
1142.618, 316.4502
1143.100, 317.9088
1143.582, 318.9646
1144.064, 319.6441
1144.546, 319.8569
1145.029, 319.7640
1145.511, 319.7217
1145.993, 319.8846
1146.475, 320.4669
1146.957, 321.6745
1147.439, 323.1998
1147.921, 325.2086
1148.403, 326.9744
1148.885, 327.1823
1149.368, 326.6838
1149.850, 327.1700
1150.332, 328.6048
1150.814, 329.5693
1151.296, 329.3859
1151.778, 329.2452
1152.260, 329.7285
1152.742, 330.6495
1153.224, 332.4767
1153.707, 334.2023
1154.189, 334.5218
1154.671, 333.9425
1155.153, 333.6469
1155.635, 333.8688
1156.117, 334.8262
1156.599, 337.2534
1157.081, 339.4767
1157.563, 341.1479
1158.046, 342.2731
1158.528, 342.4310
1159.010, 342.3069
1159.492, 342.9092
1159.974, 344.1574
1160.456, 344.9482
1160.938, 344.5927
1161.420, 344.9487
1161.903, 346.6726
1162.385, 348.2777
1162.867, 349.4120
1163.349, 350.2201
1163.831, 350.6906
1164.313, 350.9795
1164.795, 351.3934
1165.277, 351.8595
1165.760, 353.2195
1166.242, 356.0460
1166.724, 357.8708
1167.206, 358.0823
1167.688, 357.9286
1168.170, 357.8844
1168.652, 358.2727
1169.134, 359.6443
1169.616, 360.1576
1170.099, 361.2649
1170.581, 362.6411
1171.063, 363.6045
1171.545, 365.7160
1172.027, 367.3387
1172.509, 367.9784
1172.991, 368.4979
1173.473, 369.5781
1173.956, 370.0771
1174.438, 371.3332
1174.920, 371.4348
1175.402, 371.8778
1175.884, 372.6011
1176.366, 373.4628
1176.848, 374.3625
1177.330, 379.1613
1177.813, 379.9211
1178.295, 380.3870
1178.777, 380.5827
1179.259, 379.2133
1179.741, 380.2364
1180.223, 380.5279
1180.705, 380.9447
1181.187, 382.7682
1181.669, 382.4607
1182.151, 384.5888
1182.634, 385.9745
1183.116, 387.9349
1183.598, 389.1584
1184.080, 390.8214
1184.562, 390.3139
1185.044, 387.6992
1185.526, 389.1205
1186.008, 389.8037
1186.490, 390.2442
1186.973, 391.9874
1187.455, 395.4131
1187.937, 397.5417
1188.419, 396.4175
1188.901, 396.0109
1189.383, 397.5509
1189.865, 399.4414
1190.347, 401.2848
1190.830, 402.7424
1191.312, 403.2602
1191.794, 403.0645
1192.276, 403.2920
1192.758, 404.0818
1193.240, 404.7817
1193.722, 405.1943
1194.204, 406.2268
1194.687, 408.4055
1195.169, 410.1577
1195.651, 410.3565
1196.133, 409.9565
1196.615, 410.5218
1197.097, 411.8517
1197.579, 412.6841
1198.061, 413.0555
1198.543, 413.5175
1199.026, 414.1432
1199.508, 415.2454
1199.990, 416.8963
1200.472, 418.4925
1200.954, 419.5206
1201.436, 420.3395
1201.918, 421.5006
1202.400, 422.8471
1202.883, 424.1144
1203.365, 425.2819
1203.847, 426.3567
1204.329, 427.3099
1204.811, 427.9471
1205.293, 428.2207
1205.775, 428.7929
1206.257, 430.5544
1206.740, 432.1674
1207.222, 432.4677
1207.704, 432.3739
1208.186, 432.3850
1208.668, 432.7671
1209.150, 434.0630
1209.632, 436.0531
1210.114, 437.5476
1210.596, 438.1383
1211.078, 438.6994
1211.561, 439.1045
1212.043, 439.9225
1212.525, 441.5393
1213.007, 443.4019
1213.489, 445.5225
1213.971, 447.3841
1214.453, 447.9540
1214.935, 447.3431
1215.417, 447.6683
1215.900, 449.1143
1216.382, 450.9396
1216.864, 453.3911
1217.346, 454.7456
1217.828, 454.2339
1218.310, 453.7630
1218.792, 454.8425
1219.274, 456.6570
1219.757, 457.7552
1220.239, 458.2583
1220.721, 458.5976
1221.203, 458.8751
1221.685, 459.5182
1222.167, 460.6075
1222.649, 462.3761
1223.131, 464.8237
1223.614, 467.0324
1224.096, 468.2334
1224.578, 469.1346
1225.060, 470.2516
1225.542, 471.7391
1226.024, 474.5504
1226.506, 477.3807
1226.988, 477.7213
1227.470, 476.2602
1227.953, 475.8211
1228.435, 477.2163
1228.917, 478.5484
1229.399, 478.7637
1229.881, 479.2600
1230.363, 480.9897
1230.845, 482.5716
1231.327, 482.9992
1231.810, 482.9825
1232.292, 483.1855
1232.774, 483.6962
1233.256, 484.8824
1233.738, 486.9484
1234.220, 488.8439
1234.702, 490.6386
1235.184, 491.9443
1235.667, 492.5430
1236.149, 493.2216
1236.631, 494.3997
1237.113, 495.7696
1237.595, 496.9941
1238.077, 498.0817
1238.559, 499.0638
1239.041, 499.9483
1239.523, 500.8106
1240.005, 501.6247
1240.488, 502.0724
1240.970, 502.2129
1241.452, 502.8145
1241.934, 504.2676
1242.416, 505.7452
1242.898, 506.2650
1243.380, 506.6964
1243.862, 507.8391
1244.344, 509.4378
1244.827, 511.6203
1245.309, 513.8275
1245.791, 515.1417
1246.273, 515.5740
1246.755, 515.8326
1247.237, 515.9722
1247.719, 516.3777
1248.201, 517.2499
1248.684, 518.2416
1249.166, 519.4379
1249.648, 520.4935
1250.130, 520.9072
1250.612, 521.3764
1251.094, 522.8758
1251.576, 525.2814
1252.058, 527.9891
1252.541, 531.2824
1253.023, 532.5150
1253.505, 531.4081
1253.987, 530.8228
1254.469, 531.4243
1254.951, 532.5525
1255.433, 533.8320
1255.915, 535.4383
1256.397, 537.9929
1256.880, 540.4492
1257.362, 539.6654
1257.844, 542.6647
1258.326, 540.3037
1258.808, 545.2155
1259.290, 547.3115
1259.772, 546.2059
1260.254, 545.3552
1260.737, 546.1664
1261.219, 547.2411
1261.701, 547.7802
1262.183, 548.4882
1262.665, 549.6103
1263.147, 551.1337
1263.629, 553.3111
1264.111, 555.7093
1264.594, 557.9060
1265.076, 559.7994
1265.558, 560.9207
1266.040, 561.0000
1266.522, 561.2493
1267.004, 561.6405
1267.486, 562.3229
1267.968, 563.3762
1268.450, 564.4986
1268.932, 565.5526
1269.415, 566.4986
1269.897, 567.2648
1270.379, 567.9799
1270.861, 568.9710
1271.343, 570.1720
1271.825, 571.5699
1272.307, 572.9576
1272.789, 573.3759
1273.271, 573.1144
1273.754, 574.0571
1274.236, 576.8660
1274.718, 579.4250
1275.200, 579.9335
1275.682, 580.4445
1276.164, 582.4016
1276.646, 584.5397
1277.128, 586.0544
1277.611, 587.1629
1278.093, 587.9571
1278.575, 588.6300
1279.057, 589.7435
1279.539, 591.4115
1280.021, 592.9389
1280.503, 594.2347
1280.985, 595.2484
1281.468, 596.0018
1281.950, 597.0617
1282.432, 598.6243
1282.914, 600.5505
1283.396, 602.8079
1283.878, 605.1126
1284.360, 606.8947
1284.842, 608.0536
1285.324, 608.3988
##END=



