##NAMES=Veszelyite
##RRUFFID=R150144
##IDEAL CHEMISTRY=Cu^2+^_3_PO_4_(OH)_3_&#183;2H_2_O
##LOCALITY=Hisaichi Mine, Nakagawa, Akita Prefecture, Japan
##OWNER=RRUFF
##SOURCE=Leor Goldberg
##DESCRIPTION=A fragment of dark blue crystal
##STATUS=The identification of this mineral has been confirmed by single-crystal X-ray diffraction.
##URL=rruff.info/R150144
142.5436, 0.0000000E+00
143.0258, 2.9680000E-03
143.5079, 8.4533997E-02
143.9900, 0.2110750
144.4721, 0.2623140
144.9542, 0.1917760
145.4363, 0.1827070
145.9185, 0.2725300
146.4006, 0.4045680
146.8827, 0.5451720
147.3648, 0.6355800
147.8469, 0.6906870
148.3290, 0.8094940
148.8112, 1.052732
149.2933, 1.184595
149.7754, 1.025759
150.2575, 0.6975540
150.7396, 0.5887030
151.2217, 0.4184590
151.7039, 0.3420770
152.1860, 0.3278240
152.6681, 0.3699680
153.1502, 0.4844700
153.6323, 0.8330970
154.1144, 1.463051
154.5966, 1.755459
155.0787, 1.419432
155.5608, 0.9327300
156.0429, 0.6588340
156.5250, 0.6862340
157.0071, 0.8058870
157.4893, 0.6814590
157.9714, 0.1508390
158.4535, 0.1614950
158.9356, 2.1814000E-02
159.4177, 0.2667640
159.8998, 0.5029390
160.3820, 0.6265390
160.8641, 0.6394350
161.3462, 0.6502950
161.8283, 0.6487350
162.3104, 0.6518000
162.7925, 0.7366430
163.2747, 0.8166750
163.7568, 0.7563460
164.2389, 0.4778230
164.7210, 5.4701000E-02
165.2031, 0.1507150
165.6852, 0.1037350
166.1674, 0.3108310
166.6495, 0.3417570
167.1316, 0.2767450
167.6137, 0.2597220
168.0958, 0.3881970
168.5779, 0.6452770
169.0601, 0.8237360
169.5422, 0.8920210
170.0243, 0.9454210
170.5064, 0.9868550
170.9885, 1.035999
171.4706, 1.149628
171.9528, 1.152248
172.4349, 1.108789
172.9170, 1.024769
173.3991, 0.8595280
173.8812, 0.6894110
174.3633, 0.5602610
174.8455, 0.4832060
175.3276, 0.4969560
175.8097, 0.5831380
176.2918, 0.6426450
176.7739, 0.6189190
177.2560, 0.4390870
177.7382, 0.2326340
178.2203, 0.2118890
178.7024, 0.3679580
179.1845, 0.4837470
179.6666, 0.4144540
180.1487, 0.2732560
180.6309, 0.1936910
181.1130, 0.2250520
181.5951, 0.3333570
182.0772, 0.4399510
182.5593, 0.5726700
183.0414, 0.6638010
183.5236, 0.6630100
184.0057, 0.6101090
184.4878, 0.5650140
184.9699, 0.5594770
185.4520, 0.5917470
185.9341, 0.6863480
186.4163, 1.019037
186.8984, 1.224630
187.3805, 1.141012
187.8626, 0.8755110
188.3447, 0.6105120
188.8268, 0.4725990
189.3090, 0.4599780
189.7911, 0.4209250
190.2732, 0.2996230
190.7553, 0.2083380
191.2374, 0.1690580
191.7195, 0.1841810
192.2017, 0.2621730
192.6838, 0.4224190
193.1659, 0.6743970
193.6480, 0.7830430
194.1301, 0.6483420
194.6122, 0.5022560
195.0944, 0.4608400
195.5765, 0.5038850
196.0586, 0.5240270
196.5407, 0.4184280
197.0228, 0.1826710
197.5049, 8.3283998E-02
197.9871, 0.2899190
198.4692, 0.4825380
198.9513, 0.3895840
199.4334, 3.2286000E-02
199.9155, 0.2843740
200.3976, 0.2607820
200.8798, 5.8455002E-02
201.3619, 0.3034210
201.8440, 0.4507390
202.3261, 0.5259000
202.8082, 0.5281830
203.2903, 0.4554520
203.7725, 0.3748260
204.2546, 0.3228150
204.7367, 0.3047660
205.2188, 0.3405490
205.7009, 0.5512310
206.1830, 0.7687800
206.6652, 0.7192130
207.1473, 0.3297710
207.6294, 5.1506002E-02
208.1115, 0.2012520
208.5936, 0.1859230
209.0757, 7.1488999E-02
209.5579, 0.1825080
210.0400, 0.4965740
210.5221, 0.7268260
211.0042, 0.8883590
211.4863, 0.9227200
211.9685, 0.7194730
212.4506, 0.3981320
212.9327, 0.1217040
213.4148, 5.7172999E-02
213.8969, 0.1287170
214.3790, 3.3996999E-02
214.8612, 0.3496740
215.3433, 0.7029060
215.8254, 0.9765850
216.3075, 1.127743
216.7896, 1.113520
217.2717, 0.8581850
217.7539, 0.4302650
218.2360, 0.1665500
218.7181, 0.1595310
219.2002, 0.2113440
219.6823, 0.2967090
220.1644, 0.4020020
220.6466, 0.5225510
221.1287, 0.6615350
221.6108, 0.8009660
222.0929, 0.8418500
222.5750, 0.6474480
223.0571, 0.4852910
223.5393, 0.4159640
224.0214, 0.4237960
224.5035, 0.5180740
224.9856, 0.7158970
225.4677, 0.9808940
225.9498, 1.076626
226.4320, 0.7846660
226.9141, 0.5574460
227.3962, 0.4533730
227.8783, 0.4627380
228.3604, 0.5914380
228.8425, 0.8584510
229.3247, 1.214092
229.8068, 1.365335
230.2889, 1.116377
230.7710, 0.9009020
231.2531, 0.8187270
231.7352, 0.8283950
232.2174, 0.8470790
232.6995, 0.8278240
233.1816, 0.7901310
233.6637, 0.8246270
234.1458, 0.9845480
234.6279, 1.136632
235.1101, 1.236566
235.5922, 1.303513
236.0743, 1.387694
236.5564, 1.524368
237.0385, 1.680340
237.5206, 1.736514
238.0028, 1.612158
238.4849, 1.531222
238.9670, 1.634013
239.4491, 1.841162
239.9312, 1.959380
240.4133, 1.888397
240.8955, 1.710098
241.3776, 1.597295
241.8597, 1.544103
242.3418, 1.541538
242.8239, 1.612442
243.3060, 1.735828
243.7882, 1.858369
244.2703, 1.974008
244.7524, 2.060738
245.2345, 2.085291
245.7166, 2.044290
246.1987, 1.973222
246.6809, 1.874124
247.1630, 1.758364
247.6451, 1.654813
248.1272, 1.544777
248.6093, 1.471832
249.0914, 1.510164
249.5736, 1.665822
250.0557, 1.772901
250.5378, 1.677765
251.0199, 1.440722
251.5020, 1.330329
251.9841, 1.492094
252.4663, 1.656511
252.9484, 1.535676
253.4305, 1.166046
253.9126, 0.8468580
254.3947, 0.7776840
254.8768, 0.9123620
255.3590, 1.056980
255.8411, 1.244928
256.3232, 1.368431
256.8053, 1.332033
257.2874, 1.166353
257.7695, 0.9843420
258.2516, 0.8831700
258.7338, 0.8693150
259.2159, 0.8715420
259.6980, 0.8756720
260.1801, 0.9111740
260.6622, 1.001304
261.1443, 1.129229
261.6265, 1.260010
262.1086, 1.386513
262.5907, 1.500601
263.0728, 1.566726
263.5549, 1.605968
264.0370, 1.557143
264.5192, 1.349500
265.0013, 1.057227
265.4834, 0.7908660
265.9655, 0.6072540
266.4476, 0.5083570
266.9297, 0.4773260
267.4119, 0.5742650
267.8940, 0.6410780
268.3761, 0.6123270
268.8582, 0.5358890
269.3403, 0.4671970
269.8224, 0.4313160
270.3046, 0.4205540
270.7867, 0.4183030
271.2688, 0.4363080
271.7509, 0.4308640
272.2330, 0.3918310
272.7151, 0.3450800
273.1973, 0.3077270
273.6794, 0.2883850
274.1615, 0.2800680
274.6436, 0.2577740
275.1257, 0.1702520
275.6078, 0.1848530
276.0900, 0.4195410
276.5721, 0.6797330
277.0542, 0.7844190
277.5363, 0.6868330
278.0184, 0.5057800
278.5005, 0.4538290
278.9827, 0.6208600
279.4648, 0.7174550
279.9469, 0.6917190
280.4290, 0.6290680
280.9111, 0.5797800
281.3932, 0.5561800
281.8754, 0.5469320
282.3575, 0.5418830
282.8396, 0.5543030
283.3217, 0.5321440
283.8038, 0.4209990
284.2859, 0.3211290
284.7681, 0.3098400
285.2502, 0.3763350
285.7323, 0.4412420
286.2144, 0.4162680
286.6965, 0.2815470
287.1786, 0.2036930
287.6608, 0.2495470
288.1429, 0.3025420
288.6250, 0.3323840
289.1071, 0.3317930
289.5892, 0.2917900
290.0714, 0.1936660
290.5535, 3.5395999E-02
291.0356, 3.2873999E-02
291.5177, 6.9512002E-02
291.9998, 0.1779930
292.4819, 0.2571600
292.9641, 0.3085730
293.4462, 0.3379130
293.9283, 0.3453250
294.4104, 0.3404030
294.8925, 0.3889010
295.3746, 0.6364240
295.8568, 0.7744460
296.3389, 0.7027120
296.8210, 0.5098650
297.3031, 0.2920870
297.7852, 9.2802003E-02
298.2673, 5.5760000E-02
298.7495, 5.5856001E-02
299.2316, 0.3203020
299.7137, 0.5649050
300.1958, 0.5689770
300.6779, 0.4753140
301.1600, 0.4251520
301.6422, 0.4658690
302.1243, 0.5541880
302.6064, 0.6179170
303.0885, 0.7073880
303.5706, 0.6668980
304.0527, 0.3330760
304.5349, 9.9320002E-03
305.0170, 0.1179140
305.4991, 3.4471001E-02
305.9812, 0.2714900
306.4633, 0.3735040
306.9454, 0.2819820
307.4276, 0.2574920
307.9097, 0.3352680
308.3918, 0.4376410
308.8739, 0.5603080
309.3560, 0.6791830
309.8381, 0.7294780
310.3203, 0.6417460
310.8024, 0.4025320
311.2845, 0.2481130
311.7666, 0.2179140
312.2487, 0.2164820
312.7308, 0.2118450
313.2130, 0.2105380
313.6951, 0.2403650
314.1772, 0.3243020
314.6593, 0.4477150
315.1414, 0.5051490
315.6235, 0.4076740
316.1057, 0.3428600
316.5878, 0.3714370
317.0699, 0.4437230
317.5520, 0.4898290
318.0341, 0.4782530
318.5162, 0.4308830
318.9984, 0.4024960
319.4805, 0.3878080
319.9626, 0.4034510
320.4447, 0.5249550
320.9268, 0.6357330
321.4089, 0.5867690
321.8911, 0.3536620
322.3732, 9.0616003E-02
322.8553, 3.5186999E-02
323.3374, 0.3250590
323.8195, 0.4842130
324.3016, 0.4591500
324.7838, 0.3652690
325.2659, 0.2346140
325.7480, 9.3042001E-02
326.2301, 1.4980000E-03
326.7122, 1.9677000E-02
327.1943, 0.1814140
327.6765, 0.2490100
328.1586, 0.1107760
328.6407, 2.6189999E-03
329.1228, 3.2754999E-02
329.6049, 0.1644170
330.0870, 0.3145970
330.5692, 0.4346440
331.0513, 0.5131240
331.5334, 0.4747500
332.0155, 0.1380060
332.4976, 0.1145550
332.9797, 0.1963120
333.4619, 0.1729880
333.9440, 0.1286310
334.4261, 0.1011280
334.9082, 7.4455999E-02
335.3904, 7.8490004E-03
335.8725, 0.1302160
336.3546, 0.2622060
336.8367, 0.4206890
337.3188, 0.5508480
337.8009, 0.5976360
338.2831, 0.5549010
338.7652, 0.4693120
339.2473, 0.3993870
339.7294, 0.3431080
340.2115, 0.3100990
340.6936, 0.2947520
341.1758, 0.3035220
341.6579, 0.3896740
342.1400, 0.5142630
342.6221, 0.5525400
343.1042, 0.3660980
343.5863, 4.4404998E-02
344.0685, 0.2326220
344.5506, 7.4078001E-02
345.0327, 0.3407530
345.5148, 0.4511020
345.9969, 0.4454440
346.4790, 0.3897890
346.9612, 0.3147560
347.4433, 0.2340690
347.9254, 0.1910980
348.4075, 0.2088660
348.8896, 0.2292940
349.3717, 0.2193740
349.8539, 0.2236120
350.3360, 0.3037300
350.8181, 0.4721590
351.3002, 0.6523570
351.7823, 0.7329320
352.2644, 0.6991760
352.7466, 0.6096320
353.2287, 0.3426110
353.7108, 0.1243240
354.1929, 0.1153300
354.6750, 0.2872780
355.1571, 0.4722980
355.6393, 0.5225020
356.1214, 0.4374430
356.6035, 0.3377380
357.0856, 0.1508070
357.5677, 4.8663002E-02
358.0498, 0.1269040
358.5320, 0.3204770
359.0141, 0.5340470
359.4962, 0.7389750
359.9783, 0.8971220
360.4604, 0.8767450
360.9425, 0.5693770
361.4247, 0.3381260
361.9068, 0.2898350
362.3889, 0.3393960
362.8710, 0.4635840
363.3531, 0.6742190
363.8352, 0.8504710
364.3174, 0.7998450
364.7995, 0.4882410
365.2816, 0.3032260
365.7637, 0.4271540
366.2458, 0.5983960
366.7279, 0.6255670
367.2101, 0.5261330
367.6922, 0.4623810
368.1743, 0.5798440
368.6564, 0.8282980
369.1385, 0.9606000
369.6206, 0.9336660
370.1028, 0.8576970
370.5849, 0.8041740
371.0670, 0.7514400
371.5491, 0.6483750
372.0312, 0.4117790
372.5133, 0.1826300
372.9955, 0.1986460
373.4776, 0.4877380
373.9597, 0.7481920
374.4418, 0.8453920
374.9239, 0.8505690
375.4060, 0.8463510
375.8882, 0.8333230
376.3703, 0.8320470
376.8524, 0.8851760
377.3345, 0.9696040
377.8166, 0.9734180
378.2987, 0.8299240
378.7809, 0.6793720
379.2630, 0.6985020
379.7451, 0.8646370
380.2272, 1.018357
380.7093, 1.130018
381.1914, 1.192247
381.6736, 1.173481
382.1557, 1.078570
382.6378, 0.9664340
383.1199, 0.8920970
383.6020, 0.8610650
384.0841, 0.8592890
384.5663, 0.9274640
385.0484, 0.9858510
385.5305, 1.013017
386.0126, 0.9944190
386.4947, 0.8570410
386.9768, 0.5322690
387.4590, 0.1549710
387.9411, 3.9669000E-02
388.4232, 0.2699170
388.9053, 0.4837280
389.3874, 0.6359390
389.8695, 0.7328940
390.3517, 0.7550800
390.8338, 0.7031070
391.3159, 0.6312080
391.7980, 0.5932240
392.2801, 0.5956910
392.7622, 0.5481750
393.2444, 0.3521860
393.7265, 0.2045060
394.2086, 0.2390630
394.6907, 0.4081240
395.1728, 0.5865330
395.6549, 0.7063270
396.1371, 0.7665470
396.6192, 0.7585340
397.1013, 0.5258690
397.5834, 0.4254830
398.0655, 0.6257090
398.5476, 0.8969680
399.0298, 0.9731970
399.5119, 0.7982140
399.9940, 0.5608070
400.4761, 0.5324580
400.9582, 0.8208480
401.4403, 0.9316030
401.9225, 0.7296860
402.4046, 0.5111280
402.8867, 0.3529330
403.3688, 0.2697640
403.8509, 0.2669970
404.3330, 0.3625250
404.8152, 0.5286800
405.2973, 0.6051820
405.7794, 0.5333930
406.2615, 0.4553010
406.7436, 0.3990020
407.2257, 0.3494170
407.7079, 0.2818640
408.1900, 0.1902130
408.6721, 0.1110210
409.1542, 9.7854003E-02
409.6363, 0.1607470
410.1184, 0.2336430
410.6006, 0.3562840
411.0827, 0.4437260
411.5648, 0.4228950
412.0469, 0.3228430
412.5290, 0.2433260
413.0111, 0.2529200
413.4933, 0.3299100
413.9754, 0.4237900
414.4575, 0.5663950
414.9396, 0.6384360
415.4217, 0.5259320
415.9038, 0.3332500
416.3860, 0.1754460
416.8681, 8.2448997E-02
417.3502, 1.0085000E-02
417.8323, 0.1077250
418.3144, 0.2574240
418.7965, 0.3127560
419.2787, 0.2228530
419.7608, 5.4926999E-02
420.2429, 0.1665230
420.7250, 0.4324580
421.2071, 0.5764030
421.6892, 0.4139640
422.1714, 0.1573040
422.6535, 0.1406070
423.1356, 0.3880070
423.6177, 0.5790300
424.0998, 0.4585180
424.5819, 0.1104730
425.0641, 7.1080998E-02
425.5462, 8.3750002E-03
426.0283, 0.1294660
426.5104, 0.2095990
426.9925, 0.2637850
427.4746, 0.3328230
427.9568, 0.4352430
428.4389, 0.5174540
428.9210, 0.4864620
429.4031, 0.2647070
429.8852, 0.1544200
430.3673, 0.2754140
430.8495, 0.4121240
431.3316, 0.3894730
431.8137, 0.2309560
432.2958, 9.2606999E-02
432.7779, 9.2049003E-02
433.2600, 0.2074000
433.7422, 0.2605130
434.2243, 0.1268070
434.7064, 7.9567999E-02
435.1885, 0.2616810
435.6706, 0.4957160
436.1527, 0.5651110
436.6349, 0.4148340
437.1170, 0.1913710
437.5991, 0.1195810
438.0812, 0.2716750
438.5633, 0.3090220
439.0454, 1.3061000E-02
439.5276, 0.1920030
440.0097, 3.2310002E-02
440.4918, 0.3540110
440.9739, 0.6337130
441.4560, 0.5778380
441.9381, 0.3055390
442.4203, 0.1542430
442.9024, 0.1410630
443.3845, 0.2071600
443.8666, 0.5147380
444.3487, 0.7863520
444.8308, 0.7010800
445.3130, 0.2056080
445.7951, 0.2320090
446.2772, 0.1036200
446.7593, 0.4603780
447.2414, 0.7583970
447.7235, 0.6276110
448.2057, 0.4017060
448.6878, 0.3125690
449.1699, 0.3225540
449.6520, 0.3594700
450.1341, 0.4385360
450.6162, 0.5064600
451.0984, 0.4832380
451.5805, 0.3886000
452.0626, 0.3702550
452.5447, 0.5345430
453.0268, 0.7399370
453.5089, 0.6644650
453.9911, 0.2317090
454.4732, 5.9220001E-02
454.9553, 5.2057002E-02
455.4374, 0.1246290
455.9195, 0.3912270
456.4016, 0.7176110
456.8838, 1.001249
457.3659, 1.164625
457.8480, 1.209871
458.3301, 1.177805
458.8122, 0.9004640
459.2943, 0.7560110
459.7765, 1.021776
460.2586, 1.405519
460.7407, 1.467701
461.2228, 1.078184
461.7049, 0.5418200
462.1870, 0.3171140
462.6692, 0.5073080
463.1513, 0.6876690
463.6334, 0.8799650
464.1155, 1.041511
464.5976, 1.159541
465.0797, 1.231446
465.5619, 1.254683
466.0440, 1.222566
466.5261, 1.150939
467.0082, 1.083334
467.4903, 1.022535
467.9724, 0.9587630
468.4546, 0.8561930
468.9367, 0.7725880
469.4188, 0.7613080
469.9009, 0.8238740
470.3830, 0.9033320
470.8651, 0.9683610
471.3473, 1.017076
471.8294, 1.038634
472.3115, 1.027004
472.7936, 1.002964
473.2757, 0.9502500
473.7578, 0.9001570
474.2400, 0.9196390
474.7221, 1.053319
475.2042, 1.201536
475.6863, 1.334137
476.1684, 1.422621
476.6505, 1.356155
477.1327, 1.076551
477.6148, 0.7930150
478.0969, 0.7890500
478.5790, 1.115636
479.0611, 1.311914
479.5432, 1.264548
480.0254, 1.159396
480.5075, 1.099607
480.9896, 1.084797
481.4717, 1.086974
481.9538, 1.093331
482.4359, 1.097165
482.9181, 1.076498
483.4002, 1.011927
483.8823, 0.9744750
484.3644, 0.9681920
484.8465, 0.9833110
485.3286, 1.025651
485.8108, 1.086563
486.2929, 1.137507
486.7750, 1.151947
487.2571, 1.134071
487.7392, 1.120842
488.2213, 1.110713
488.7035, 1.110857
489.1856, 1.107160
489.6677, 1.120921
490.1498, 1.206717
490.6319, 1.378555
491.1140, 1.495288
491.5962, 1.367618
492.0783, 1.038501
492.5604, 0.7827760
493.0425, 0.6441240
493.5246, 0.5687260
494.0067, 0.5291810
494.4889, 0.5195940
494.9710, 0.5326860
495.4531, 0.5879830
495.9352, 0.6426010
496.4173, 0.6379500
496.8994, 0.5961340
497.3816, 0.6180730
497.8637, 0.7887330
498.3458, 0.9682020
498.8279, 0.9410290
499.3100, 0.6550070
499.7921, 0.4200280
500.2743, 0.2608970
500.7564, 0.1522160
501.2385, 8.1712000E-02
501.7206, 4.7525998E-02
502.2027, 5.7425000E-02
502.6848, 0.1193760
503.1670, 0.2106640
503.6491, 0.2475920
504.1312, 0.2119780
504.6133, 0.2143110
505.0954, 0.2968740
505.5775, 0.3703300
506.0597, 0.3508530
506.5418, 0.2557850
507.0239, 0.1809100
507.5060, 0.2102920
507.9881, 0.3177450
508.4702, 0.3815240
508.9524, 0.4018390
509.4345, 0.3773380
509.9166, 0.2246690
510.3987, 7.4689999E-02
510.8808, 7.7342004E-02
511.3629, 0.2569770
511.8451, 0.4289500
512.3271, 0.4210070
512.8093, 0.3015200
513.2914, 0.2582040
513.7735, 0.3145230
514.2556, 0.3915430
514.7377, 0.4610290
515.2198, 0.5050230
515.7020, 0.4706220
516.1841, 0.2735890
516.6662, 0.1225120
517.1483, 0.1521900
517.6304, 0.2626290
518.1125, 0.2950330
518.5947, 0.2137730
519.0768, 0.1248350
519.5589, 0.1501860
520.0410, 0.3080710
520.5231, 0.4058660
521.0052, 0.3709210
521.4874, 0.3760680
521.9695, 0.5442610
522.4516, 0.7536030
522.9337, 0.8134090
523.4158, 0.6652750
523.8979, 0.4426970
524.3801, 0.3556890
524.8622, 0.4419700
525.3443, 0.4676870
525.8264, 0.3628340
526.3085, 0.2660670
526.7906, 0.2509830
527.2728, 0.2870430
527.7549, 0.3089700
528.2370, 0.2860980
528.7191, 0.2484980
529.2012, 0.2383880
529.6833, 0.2532470
530.1655, 0.2534670
530.6476, 0.2216720
531.1297, 0.1847680
531.6118, 0.1829700
532.0939, 0.2086700
532.5760, 0.2086850
533.0582, 0.1405910
533.5403, 7.0960999E-02
534.0224, 4.4837002E-02
534.5045, 5.9847999E-02
534.9866, 0.1163450
535.4688, 0.2205520
535.9509, 0.3265590
536.4330, 0.3418100
536.9151, 0.1929990
537.3972, 0.1304240
537.8793, 0.2064930
538.3615, 0.3113380
538.8436, 0.4159960
539.3257, 0.4981270
539.8078, 0.5176210
540.2899, 0.4467650
540.7720, 0.3293050
541.2542, 0.2740420
541.7363, 0.3108660
542.2184, 0.3083410
542.7005, 0.1748360
543.1826, 6.6808999E-02
543.6647, 7.0790999E-02
544.1469, 0.1562410
544.6290, 0.2845960
545.1111, 0.5102820
545.5932, 0.7079480
546.0753, 0.6167470
546.5574, 0.2501550
547.0396, 1.2300000E-02
547.5217, 0.1037490
548.0038, 0.3169670
548.4859, 0.2901810
548.9680, 7.0520001E-03
549.4501, 0.1773340
549.9323, 7.5484000E-02
550.4144, 0.1193230
550.8965, 0.3106670
551.3786, 0.4741480
551.8607, 0.5730650
552.3428, 0.5853310
552.8250, 0.5340860
553.3071, 0.4725460
553.7892, 0.3695950
554.2713, 0.3145720
554.7534, 0.3221560
555.2355, 0.3572480
555.7177, 0.4409400
556.1998, 0.5359940
556.6819, 0.5473040
557.1640, 0.3927830
557.6461, 0.1709720
558.1282, 0.1137110
558.6104, 0.2504540
559.0925, 0.3603900
559.5746, 0.3902110
560.0567, 0.3736850
560.5388, 0.3318320
561.0209, 0.2694160
561.5031, 0.2197230
561.9852, 0.1942250
562.4673, 0.1881390
562.9494, 0.1941650
563.4315, 0.2143220
563.9136, 0.2727170
564.3958, 0.3936160
564.8779, 0.5112520
565.3600, 0.5049940
565.8421, 0.3100280
566.3242, 0.1730110
566.8063, 9.4953999E-02
567.2885, 7.1826003E-02
567.7706, 0.1461730
568.2527, 0.2685440
568.7348, 0.3415540
569.2169, 0.3172330
569.6990, 0.2326550
570.1812, 0.1499170
570.6633, 5.9131999E-02
571.1454, 1.2925000E-02
571.6275, 6.0194001E-02
572.1096, 0.1072500
572.5917, 0.1079840
573.0739, 7.2599001E-02
573.5560, 2.0209000E-02
574.0381, 6.8765998E-02
574.5202, 0.1239420
575.0023, 2.3831001E-02
575.4844, 0.1972730
575.9666, 0.3476920
576.4487, 0.3799970
576.9308, 0.3341860
577.4129, 0.2253920
577.8950, 5.3528000E-02
578.3771, 6.8250000E-02
578.8593, 0.1404460
579.3414, 0.1598700
579.8235, 8.9753002E-02
580.3056, 2.3508999E-02
580.7877, 0.1153850
581.2698, 0.1641170
581.7520, 0.1696350
582.2341, 0.1206070
582.7162, 4.4809999E-03
583.1984, 4.9297001E-02
583.6805, 2.4107000E-02
584.1626, 4.8356999E-02
584.6447, 0.2169750
585.1268, 0.3989500
585.6089, 0.4799840
586.0911, 0.4284770
586.5732, 0.3526990
587.0553, 0.3797830
587.5374, 0.4698310
588.0195, 0.4307470
588.5016, 0.2093480
588.9838, 5.0321002E-02
589.4659, 0.1620320
589.9480, 0.4359450
590.4301, 0.5351810
590.9122, 0.3676530
591.3943, 0.2132930
591.8765, 0.1528010
592.3586, 0.1505020
592.8407, 0.1892240
593.3228, 0.2538620
593.8049, 0.2949230
594.2870, 0.2680180
594.7692, 0.2004320
595.2513, 0.2295910
595.7334, 0.4659540
596.2155, 0.6011070
596.6976, 0.5295600
597.1797, 0.4195680
597.6619, 0.3880360
598.1440, 0.4298210
598.6261, 0.4636770
599.1082, 0.4582070
599.5903, 0.4049040
600.0724, 0.2260680
600.5546, 7.9678997E-02
601.0367, 0.1980400
601.5188, 4.3968000E-02
602.0009, 0.4036430
602.4830, 0.5940780
602.9651, 0.6249070
603.4473, 0.5588800
603.9294, 0.2555430
604.4115, 3.5580001E-03
604.8936, 3.5932001E-02
605.3757, 0.2434430
605.8578, 0.3917110
606.3400, 0.3943190
606.8221, 0.3320350
607.3042, 0.3085640
607.7863, 0.3460190
608.2684, 0.3976880
608.7505, 0.5051960
609.2327, 0.5672380
609.7148, 0.5135420
610.1969, 0.4171130
610.6790, 0.3649040
611.1611, 0.3805090
611.6432, 0.4410160
612.1254, 0.5953890
612.6075, 0.7780690
613.0896, 0.7189600
613.5717, 0.3557400
614.0538, 9.8563999E-02
614.5359, 0.2577140
615.0181, 0.6687000
615.5002, 0.8345750
615.9823, 0.6349330
616.4644, 0.4952350
616.9465, 0.5579150
617.4286, 0.6714880
617.9108, 0.7102420
618.3929, 0.6757800
618.8750, 0.6299100
619.3571, 0.6121370
619.8392, 0.6058650
620.3214, 0.5477960
620.8035, 0.3787880
621.2856, 0.3168780
621.7677, 0.5045160
622.2498, 0.6991090
622.7319, 0.7594910
623.2141, 0.7265720
623.6962, 0.7232010
624.1783, 0.8311450
624.6604, 0.9198970
625.1425, 0.7987850
625.6246, 0.5487310
626.1068, 0.4867670
626.5889, 0.6767170
627.0710, 0.8711250
627.5531, 0.8806590
628.0352, 0.7178540
628.5173, 0.5971600
628.9995, 0.5157380
629.4816, 0.4749290
629.9637, 0.4993830
630.4458, 0.5489290
630.9279, 0.5932720
631.4100, 0.6232160
631.8922, 0.6331400
632.3743, 0.6291100
632.8564, 0.6105360
633.3385, 0.4980010
633.8206, 0.2273870
634.3027, 0.1234140
634.7849, 0.4192940
635.2670, 0.7878790
635.7491, 0.9020050
636.2312, 0.7792750
636.7133, 0.6476680
637.1954, 0.5693940
637.6776, 0.5271430
638.1597, 0.5013030
638.6418, 0.4929460
639.1239, 0.5467390
639.6060, 0.6767030
640.0881, 0.7716870
640.5703, 0.6675120
641.0524, 0.3306230
641.5345, 0.1490640
642.0166, 0.2631000
642.4987, 0.3859790
642.9808, 0.4895240
643.4630, 0.5254570
643.9451, 0.4474680
644.4272, 0.2646550
644.9093, 0.1100790
645.3914, 9.9834003E-02
645.8735, 0.1922360
646.3557, 0.3068030
646.8378, 0.4452430
647.3199, 0.5282470
647.8020, 0.5047670
648.2841, 0.4340170
648.7662, 0.4154350
649.2484, 0.4623560
649.7305, 0.4841760
650.2126, 0.4609640
650.6947, 0.4194670
651.1768, 0.3431910
651.6589, 0.2677640
652.1411, 0.2697560
652.6232, 0.3689890
653.1053, 0.4862400
653.5874, 0.5207340
654.0695, 0.4719260
654.5516, 0.3786760
655.0338, 0.1839600
655.5159, 6.0500000E-02
655.9980, 0.1380710
656.4801, 0.3012820
656.9622, 0.4384200
657.4443, 0.5394420
657.9265, 0.6092880
658.4086, 0.6237540
658.8907, 0.6131830
659.3728, 0.6657750
659.8549, 0.7423610
660.3370, 0.6847880
660.8192, 0.4051480
661.3013, 8.5653998E-02
661.7834, 6.5049998E-02
662.2655, 0.4629440
662.7476, 0.7011080
663.2297, 0.6137770
663.7119, 0.5475960
664.1940, 0.6747060
664.6761, 0.8564930
665.1582, 0.8910970
665.6403, 0.7250360
666.1224, 0.5124380
666.6046, 0.3282360
667.0867, 0.2030940
667.5688, 0.2621090
668.0509, 0.5130460
668.5330, 0.6824530
669.0151, 0.6052990
669.4973, 0.4113550
669.9794, 0.3664970
670.4615, 0.5579310
670.9436, 0.6623860
671.4257, 0.6023380
671.9078, 0.5274510
672.3900, 0.5329240
672.8721, 0.5733220
673.3542, 0.5531620
673.8363, 0.4408790
674.3184, 0.3167170
674.8005, 0.2939650
675.2827, 0.3579870
675.7648, 0.3562200
676.2469, 0.2690340
676.7290, 0.1702440
677.2111, 6.2164001E-02
677.6932, 1.4783000E-02
678.1754, 1.9073000E-02
678.6575, 0.1887760
679.1396, 0.3286440
679.6217, 0.4146040
680.1038, 0.4457070
680.5859, 0.3876150
681.0681, 0.2782310
681.5502, 0.2138710
682.0323, 0.2303680
682.5144, 0.2454120
682.9965, 8.2327001E-02
683.4786, 0.2815550
683.9608, 0.3573140
684.4429, 1.6031999E-02
684.9250, 0.3884650
685.4071, 0.6133020
685.8892, 0.7241310
686.3713, 0.7213750
686.8535, 0.5996490
687.3356, 0.4935560
687.8177, 0.5023780
688.2998, 0.5317210
688.7819, 0.4323560
689.2640, 0.2450960
689.7462, 0.1500360
690.2283, 0.2194660
690.7104, 0.3476360
691.1925, 0.3790310
691.6746, 0.2976840
692.1567, 0.2640950
692.6389, 0.3436300
693.1210, 0.3845310
693.6031, 0.3111210
694.0852, 0.2059220
694.5673, 0.1540300
695.0494, 0.1643980
695.5316, 0.1845650
696.0137, 0.1953450
696.4958, 0.1912190
696.9779, 0.1435430
697.4600, 6.8617001E-02
697.9421, 5.9733000E-02
698.4243, 0.1588180
698.9064, 0.2490120
699.3885, 0.1610650
699.8706, 0.1309040
700.3527, 0.2496120
700.8348, 2.6449999E-03
701.3170, 0.1860910
701.7991, 0.1858950
702.2812, 0.1326520
702.7633, 0.1572620
703.2454, 0.2659560
703.7275, 0.3664760
704.2097, 0.3977080
704.6918, 0.3867700
705.1739, 0.3815750
705.6560, 0.3759230
706.1381, 0.3120100
706.6202, 0.1594830
707.1024, 2.9039999E-02
707.5845, 5.2161999E-02
708.0666, 0.2251570
708.5487, 0.2939610
709.0308, 0.1383810
709.5129, 4.4709999E-02
709.9951, 8.5055001E-02
710.4772, 0.1805110
710.9593, 0.2989150
711.4414, 0.4130080
711.9235, 0.4633910
712.4056, 0.4034300
712.8878, 0.2869650
713.3699, 0.1678250
713.8520, 5.9583001E-02
714.3341, 5.3415000E-02
714.8162, 0.1864940
715.2983, 0.3142040
715.7805, 0.3149090
716.2626, 0.2108460
716.7447, 0.1293350
717.2268, 7.6569999E-03
717.7089, 4.6170000E-03
718.1910, 0.2211590
718.6732, 0.4601050
719.1553, 0.5703170
719.6374, 0.5552150
720.1195, 0.4528430
720.6016, 0.2689020
721.0837, 9.9931002E-02
721.5659, 0.1175390
722.0480, 0.2765770
722.5301, 0.3066120
723.0122, 0.1527990
723.4943, 5.7812002E-02
723.9764, 0.2081510
724.4586, 0.4819850
724.9407, 0.5545960
725.4228, 0.3004380
725.9049, 0.1604020
726.3870, 0.2681910
726.8691, 0.3843740
727.3513, 0.3323620
727.8334, 0.2118040
728.3155, 0.2274850
728.7976, 0.4404490
729.2797, 0.6667700
729.7618, 0.7034730
730.2440, 0.5944190
730.7261, 0.4926930
731.2082, 0.4020850
731.6903, 0.3094680
732.1724, 0.2016020
732.6545, 0.1038400
733.1367, 5.4781999E-02
733.6188, 6.2945999E-02
734.1009, 7.9903997E-02
734.5830, 0.1214210
735.0651, 0.1511700
735.5472, 0.1311890
736.0294, 0.1106100
736.5115, 0.1555510
736.9936, 0.2606030
737.4757, 0.3538340
737.9578, 0.3924470
738.4399, 0.3739250
738.9221, 0.2423750
739.4042, 1.2993000E-02
739.8863, 5.8447000E-02
740.3684, 0.1256010
740.8505, 0.3448920
741.3326, 0.3678460
741.8148, 0.2294710
742.2969, 0.1734630
742.7790, 0.2068710
743.2611, 0.2568820
743.7432, 0.3983930
744.2253, 0.4845280
744.7075, 0.3390590
745.1896, 4.5311999E-02
745.6717, 0.1620320
746.1538, 0.1704290
746.6359, 6.1677001E-02
747.1180, 0.1324760
747.6002, 0.3646470
748.0823, 0.4428820
748.5644, 0.3402230
749.0465, 0.2184080
749.5286, 0.1710660
750.0107, 0.1678880
750.4929, 0.1350830
750.9750, 4.5777000E-02
751.4571, 6.1750002E-03
751.9392, 4.7660000E-03
752.4213, 1.2893000E-02
752.9034, 3.8865000E-02
753.3856, 6.9132999E-02
753.8677, 9.7804002E-02
754.3498, 0.1240940
754.8319, 0.1584560
755.3140, 0.2364310
755.7961, 0.3123020
756.2783, 0.2985000
756.7604, 0.2062010
757.2425, 0.1010290
757.7246, 1.0945000E-02
758.2067, 9.4315998E-02
758.6888, 8.3765998E-02
759.1710, 8.7550003E-03
759.6531, 9.1913000E-02
760.1352, 0.1822610
760.6173, 0.2362090
761.0994, 0.2145740
761.5815, 0.1843810
762.0637, 0.1947540
762.5458, 0.2407410
763.0279, 0.2981320
763.5100, 0.3906820
763.9921, 0.4294500
764.4742, 0.2507000
764.9564, 2.8410000E-03
765.4385, 2.9081000E-02
765.9206, 0.1824940
766.4027, 0.4122150
766.8848, 0.5273080
767.3669, 0.5414600
767.8491, 0.4622780
768.3312, 0.2254430
768.8133, 0.1408260
769.2954, 0.3269210
769.7775, 0.5076830
770.2596, 0.5895520
770.7418, 0.5839080
771.2239, 0.4702440
771.7060, 0.2304530
772.1881, 5.7149999E-02
772.6702, 7.0970997E-02
773.1523, 0.1365970
773.6345, 0.1511340
774.1166, 0.1318040
774.5987, 0.1363910
775.0808, 0.1736070
775.5629, 0.1762560
776.0450, 5.2485999E-02
776.5272, 0.1482630
777.0093, 0.1414070
777.4914, 0.1319740
777.9735, 0.2787300
778.4556, 0.1208340
778.9377, 5.1103000E-02
779.4199, 6.8975002E-02
779.9020, 0.4080290
780.3841, 0.6013270
780.8662, 0.5455150
781.3483, 0.4771920
781.8304, 0.4701060
782.3126, 0.4573090
782.7947, 0.3511770
783.2768, 0.1940280
783.7589, 9.9748999E-02
784.2410, 0.1196480
784.7231, 0.2048820
785.2053, 0.3399100
785.6874, 0.4926710
786.1695, 0.5199550
786.6516, 0.4098200
787.1337, 0.2748580
787.6158, 0.1492590
788.0980, 5.9744000E-02
788.5801, 4.9865998E-02
789.0622, 0.1281540
789.5443, 0.2328890
790.0264, 0.4486690
790.5085, 0.5813560
790.9907, 0.5505170
791.4728, 0.4461180
791.9549, 0.3098730
792.4370, 0.1726800
792.9191, 0.1152070
793.4012, 0.2029570
793.8834, 0.3473200
794.3655, 0.4753980
794.8476, 0.5916950
795.3297, 0.7390490
795.8118, 0.9075040
796.2939, 0.9461820
796.7761, 0.7380420
797.2582, 0.4161110
797.7403, 0.3242240
798.2224, 0.5562420
798.7045, 0.6413880
799.1866, 0.4718510
799.6688, 0.3097510
800.1509, 0.2934190
800.6330, 0.3401970
801.1151, 0.3555760
801.5972, 0.3322410
802.0793, 0.3030150
802.5615, 0.2798740
803.0436, 0.2506580
803.5257, 0.1676360
804.0078, 8.8097997E-02
804.4899, 0.1265060
804.9720, 0.2730870
805.4542, 0.3701620
805.9363, 0.2774290
806.4184, 8.9879997E-02
806.9005, 1.8115999E-02
807.3826, 5.8208998E-02
807.8647, 0.1296420
808.3469, 0.2286060
808.8290, 0.3179010
809.3111, 0.3817620
809.7932, 0.4096920
810.2753, 0.3612950
810.7574, 0.1322410
811.2396, 4.1747998E-02
811.7217, 0.2218770
812.2038, 0.3891830
812.6859, 0.3895850
813.1680, 0.3211260
813.6501, 0.3412380
814.1323, 0.4736670
814.6144, 0.5653130
815.0965, 0.4676640
815.5786, 0.3222530
816.0607, 0.2768520
816.5428, 0.3201490
817.0250, 0.4375200
817.5071, 0.6132430
817.9892, 0.7676250
818.4713, 0.8390930
818.9534, 0.8275850
819.4355, 0.6942410
819.9177, 0.3685820
820.3998, 0.2695870
820.8819, 0.6044100
821.3640, 0.8982720
821.8461, 0.8033970
822.3282, 0.4927850
822.8104, 0.3045960
823.2925, 0.2650590
823.7746, 0.2721470
824.2567, 0.3440030
824.7388, 0.4160260
825.2209, 0.4484180
825.7031, 0.4588010
826.1852, 0.4719780
826.6673, 0.4943550
827.1494, 0.5253660
827.6315, 0.5858410
828.1136, 0.6305350
828.5958, 0.5384850
829.0779, 0.3509760
829.5600, 0.2954690
830.0421, 0.4197960
830.5242, 0.5290750
831.0063, 0.4701510
831.4885, 0.3086730
831.9706, 0.2483530
832.4527, 0.3199750
832.9348, 0.4130000
833.4169, 0.5724970
833.8990, 0.6937480
834.3812, 0.7202990
834.8633, 0.6953180
835.3454, 0.6498390
835.8275, 0.5814460
836.3096, 0.5764430
836.7917, 0.7887030
837.2739, 0.9381420
837.7560, 0.7211940
838.2381, 0.3950300
838.7202, 0.3851760
839.2023, 0.6896200
839.6844, 0.9179500
840.1666, 0.7836660
840.6487, 0.5168610
841.1308, 0.5541250
841.6129, 0.8426120
842.0950, 1.015290
842.5771, 1.031290
843.0593, 0.9490560
843.5414, 0.7704500
844.0235, 0.5779190
844.5056, 0.5552450
844.9877, 0.7593690
845.4698, 0.8459940
845.9520, 0.7186980
846.4341, 0.5992630
846.9162, 0.4986500
847.3983, 0.4559580
847.8804, 0.5439790
848.3625, 0.7336030
848.8447, 0.8665000
849.3268, 0.8570420
849.8089, 0.8359970
850.2910, 0.8897410
850.7731, 0.9626410
851.2552, 0.9749950
851.7374, 0.9438490
852.2195, 0.9608680
852.7016, 1.068263
853.1837, 1.166846
853.6658, 1.090394
854.1479, 0.8887660
854.6301, 0.8244510
855.1122, 0.9080920
855.5943, 0.9471340
856.0764, 0.8556420
856.5585, 0.7377800
857.0406, 0.7065840
857.5228, 0.7550560
858.0049, 0.8035530
858.4870, 0.8896480
858.9691, 0.9102600
859.4512, 0.7845330
859.9333, 0.6670170
860.4155, 0.6213400
860.8976, 0.6462620
861.3797, 0.7600300
861.8618, 0.9950350
862.3439, 1.141037
862.8260, 1.026865
863.3082, 0.8697360
863.7903, 0.8452100
864.2724, 0.8993110
864.7545, 0.9228100
865.2366, 0.8931300
865.7188, 0.8809050
866.2009, 0.9656710
866.6830, 1.054954
867.1651, 0.9185090
867.6472, 0.6047130
868.1293, 0.4114090
868.6115, 0.3850130
869.0936, 0.4796920
869.5757, 0.6940440
870.0578, 0.9612260
870.5399, 1.151655
871.0220, 1.273150
871.5042, 1.305560
871.9863, 1.192502
872.4684, 1.045698
872.9505, 0.8628220
873.4326, 0.7029320
873.9147, 0.6357940
874.3969, 0.6450950
874.8790, 0.6209640
875.3611, 0.5042320
875.8432, 0.4057400
876.3253, 0.3700660
876.8074, 0.3634450
877.2896, 0.3476260
877.7717, 0.3372130
878.2538, 0.3885610
878.7359, 0.5209670
879.2180, 0.6346860
879.7001, 0.6119490
880.1823, 0.5212610
880.6644, 0.4913240
881.1465, 0.5103660
881.6286, 0.5043810
882.1107, 0.4559670
882.5928, 0.4555820
883.0750, 0.5992740
883.5571, 0.8239190
884.0392, 0.8748310
884.5213, 0.7250960
885.0034, 0.5854930
885.4855, 0.4556790
885.9677, 0.3789580
886.4498, 0.3826940
886.9319, 0.4495530
887.4140, 0.5738810
887.8961, 0.7785830
888.3782, 0.8851390
888.8604, 0.8550390
889.3425, 0.7697590
889.8246, 0.6227450
890.3067, 0.4688290
890.7888, 0.3077820
891.2709, 0.1711330
891.7531, 0.1285990
892.2352, 0.2340500
892.7173, 0.3325120
893.1994, 0.2887250
893.6815, 0.2033180
894.1636, 0.2233240
894.6458, 0.3004080
895.1279, 0.2791820
895.6100, 0.1340950
896.0921, 2.4250001E-03
896.5742, 1.8549001E-02
897.0563, 0.1424900
897.5385, 0.3031000
898.0206, 0.4907880
898.5027, 0.5732730
898.9848, 0.5238400
899.4669, 0.3958710
899.9490, 0.1997710
900.4312, 6.3100001E-03
900.9133, 8.4700003E-02
901.3954, 6.1599999E-03
901.8775, 6.8150997E-02
902.3596, 0.1535740
902.8417, 0.2089620
903.3239, 0.2125280
903.8060, 0.1877500
904.2881, 0.1371030
904.7702, 7.1162999E-02
905.2523, 5.6846000E-02
905.7344, 0.1700380
906.2166, 0.2347650
906.6987, 0.1342030
907.1808, 4.2034999E-02
907.6629, 0.1309260
908.1450, 0.3046410
908.6271, 0.3638540
909.1093, 0.2602220
909.5914, 0.1452330
910.0735, 0.1388220
910.5556, 0.1604290
911.0377, 0.1241360
911.5198, 4.6709999E-02
912.0020, 6.8131000E-02
912.4841, 0.1970010
912.9662, 0.2286520
913.4483, 8.4224001E-02
913.9304, 0.1327460
914.4125, 0.2525040
914.8947, 0.2841500
915.3768, 0.2922690
915.8589, 0.2773450
916.3410, 0.2962180
916.8231, 0.3832110
917.3052, 0.4487080
917.7874, 0.3654980
918.2695, 0.1658530
918.7516, 0.1900880
919.2337, 0.6195240
919.7158, 0.8329430
920.1979, 0.6529580
920.6801, 0.4001340
921.1622, 0.1978400
921.6443, 5.6186002E-02
922.1264, 1.2260000E-03
922.6085, 3.0630000E-02
923.0906, 0.1143870
923.5728, 0.3563000
924.0549, 0.5104320
924.5370, 0.4255370
925.0191, 0.2563960
925.5012, 9.8552004E-02
925.9833, 6.0970001E-03
926.4655, 3.8297001E-02
926.9476, 0.3194310
927.4297, 0.5091790
927.9118, 0.2896240
928.3939, 4.4686999E-02
928.8760, 0.1989760
929.3582, 0.1875920
929.8403, 4.0116999E-02
930.3224, 0.2040870
930.8045, 0.3741960
931.2866, 0.3094440
931.7687, 0.1369420
932.2509, 7.6526999E-02
932.7330, 0.1177130
933.2151, 0.2481200
933.6972, 0.4582120
934.1793, 0.6007380
934.6614, 0.6010790
935.1436, 0.5053700
935.6257, 0.3543620
936.1078, 0.1580250
936.5899, 0.1635560
937.0720, 0.4531550
937.5541, 0.5962910
938.0363, 0.4398130
938.5184, 0.2681200
939.0005, 0.2985320
939.4826, 0.4325510
939.9647, 0.4056920
940.4468, 9.0423003E-02
940.9290, 1.7704001E-02
941.4111, 0.2530040
941.8932, 0.5047770
942.3753, 0.6791570
942.8574, 0.7448660
943.3395, 0.5994260
943.8217, 0.3038330
944.3038, 0.1469270
944.7859, 0.2577150
945.2680, 0.3864490
945.7501, 0.5355460
946.2322, 0.5816480
946.7144, 0.2978790
947.1965, 9.9211998E-02
947.6786, 0.2213590
948.1607, 1.1353000E-02
948.6428, 0.2078110
949.1249, 0.2246780
949.6071, 0.1682390
950.0892, 0.1739450
950.5713, 0.1939990
951.0534, 9.3032002E-02
951.5355, 8.3268002E-02
952.0176, 8.8427998E-02
952.4998, 0.1841700
952.9819, 0.4990540
953.4640, 0.5766610
953.9461, 0.4792680
954.4282, 0.3428370
954.9103, 0.1896240
955.3925, 0.2354830
955.8746, 0.5133260
956.3567, 0.8150220
956.8388, 1.020747
957.3209, 1.114758
957.8030, 1.015814
958.2852, 0.6893040
958.7673, 0.5890540
959.2494, 0.7815260
959.7315, 0.9697230
960.2136, 1.060012
960.6957, 1.126496
961.1779, 1.247495
961.6600, 1.404857
962.1421, 1.492923
962.6242, 1.415893
963.1063, 1.461462
963.5884, 1.740311
964.0706, 2.005544
964.5527, 2.207898
965.0348, 2.323006
965.5169, 2.284704
965.9990, 2.106553
966.4811, 1.983929
966.9633, 1.947546
967.4454, 1.963879
967.9275, 2.153201
968.4096, 2.266734
968.8917, 2.037681
969.3738, 1.658003
969.8560, 1.488695
970.3381, 1.587057
970.8202, 1.599575
971.3023, 1.285414
971.7844, 0.9294300
972.2665, 0.6563860
972.7487, 0.4855660
973.2308, 0.5053490
973.7129, 0.6423200
974.1950, 0.6773820
974.6771, 0.5267180
975.1592, 0.3953360
975.6414, 0.5478270
976.1235, 0.7689290
976.6056, 0.7264760
977.0877, 0.5121130
977.5698, 0.3136510
978.0519, 0.1833990
978.5341, 0.1904130
979.0162, 0.3877660
979.4983, 0.6018610
979.9804, 0.5179280
980.4625, 0.2403890
980.9446, 0.1886260
981.4268, 0.3461890
981.9089, 0.4823530
982.3910, 0.5366650
982.8731, 0.4795890
983.3552, 0.2642880
983.8373, 1.0490000E-02
984.3195, 6.1209001E-02
984.8016, 0.1242020
985.2837, 0.2120410
985.7658, 0.1668670
986.2479, 0.1770040
986.7300, 0.3350420
987.2122, 0.4841850
987.6943, 0.4478890
988.1764, 0.2674100
988.6585, 0.1880770
989.1406, 0.2334920
989.6227, 0.3173490
990.1049, 0.4814890
990.5870, 0.6027460
991.0691, 0.6342550
991.5512, 0.5945030
992.0333, 0.4756720
992.5154, 0.2829940
992.9976, 0.1737980
993.4797, 0.2139250
993.9618, 0.2367750
994.4439, 0.2595890
994.9260, 0.2351190
995.4081, 6.9045998E-02
995.8903, 0.1180210
996.3724, 0.1558630
996.8545, 3.5422999E-02
997.3366, 0.1033310
997.8187, 0.2626110
998.3008, 0.3971850
998.7830, 0.5126770
999.2651, 0.5835030
999.7472, 0.5691250
1000.229, 0.4904880
1000.711, 0.3554450
1001.194, 0.1706430
1001.676, 7.0560999E-02
1002.158, 0.1648770
1002.640, 0.2989980
1003.122, 0.4456890
1003.604, 0.5385770
1004.086, 0.4498890
1004.568, 0.2617470
1005.050, 0.1679130
1005.533, 0.2345270
1006.015, 0.3546920
1006.497, 0.5003120
1006.979, 0.5785370
1007.461, 0.4266020
1007.943, 0.1921960
1008.425, 0.1157480
1008.907, 0.1855450
1009.390, 0.2234880
1009.872, 0.1683220
1010.354, 0.1879590
1010.836, 0.6143840
1011.318, 1.082230
1011.800, 0.8509290
1012.282, 0.2110340
1012.764, 0.1410240
1013.246, 0.1073410
1013.729, 0.1485210
1014.211, 0.5491640
1014.693, 0.8908390
1015.175, 0.8418780
1015.657, 0.5415150
1016.139, 0.3913510
1016.621, 0.3619260
1017.103, 0.3498540
1017.586, 0.3368030
1018.068, 0.4026270
1018.550, 0.6059200
1019.032, 0.8232070
1019.514, 0.8181890
1019.996, 0.6301890
1020.478, 0.5393770
1020.960, 0.5437840
1021.442, 0.6029230
1021.925, 0.7144280
1022.407, 0.7449990
1022.889, 0.5817090
1023.371, 0.3572610
1023.853, 0.3692210
1024.335, 0.6210110
1024.817, 0.6982630
1025.299, 0.5742910
1025.781, 0.4741330
1026.264, 0.4542140
1026.746, 0.4620010
1027.228, 0.4676530
1027.710, 0.4564550
1028.192, 0.3679100
1028.674, 0.1674320
1029.156, 0.2090250
1029.638, 0.5985930
1030.120, 0.8400130
1030.603, 0.7743570
1031.085, 0.5940110
1031.567, 0.4028800
1032.049, 0.2457490
1032.531, 0.2538800
1033.013, 0.4751760
1033.495, 0.6486610
1033.977, 0.7728430
1034.460, 0.8551000
1034.942, 0.8893710
1035.424, 0.8815060
1035.906, 0.8178270
1036.388, 0.7192060
1036.870, 0.6393760
1037.352, 0.5611450
1037.834, 0.5623280
1038.317, 0.7093340
1038.799, 0.8342470
1039.281, 0.9043540
1039.763, 0.9341310
1040.245, 0.9215710
1040.727, 0.8787950
1041.209, 0.8393130
1041.691, 0.7983800
1042.173, 0.7586870
1042.656, 0.7449630
1043.138, 0.7165380
1043.620, 0.6088030
1044.102, 0.5352220
1044.584, 0.6000230
1045.066, 0.7613730
1045.548, 0.9314480
1046.030, 1.148825
1046.512, 1.195409
1046.995, 0.7965840
1047.477, 0.5571700
1047.959, 0.8929810
1048.441, 1.238937
1048.923, 1.047527
1049.405, 0.5375190
1049.887, 0.2664250
1050.369, 0.3289070
1050.852, 0.4797340
1051.334, 0.8550240
1051.816, 1.072101
1052.298, 0.8513370
1052.780, 0.5557620
1053.262, 0.4662190
1053.744, 0.5284080
1054.226, 0.6293670
1054.708, 0.7778220
1055.191, 0.8217540
1055.673, 0.6202210
1056.155, 0.4284220
1056.637, 0.3397510
1057.119, 0.3055850
1057.601, 0.3026990
1058.083, 0.3148810
1058.565, 0.3251970
1059.047, 0.3320590
1059.530, 0.3055890
1060.012, 0.1848850
1060.494, 9.6348003E-02
1060.976, 9.3091004E-02
1061.458, 0.1452900
1061.940, 0.2782940
1062.422, 0.4283030
1062.904, 0.4596660
1063.387, 0.3481860
1063.869, 0.2868960
1064.351, 0.4018630
1064.833, 0.5112840
1065.315, 0.5796550
1065.797, 0.5666430
1066.279, 0.3559300
1066.761, 7.4841999E-02
1067.244, 5.1520001E-02
1067.726, 1.2483000E-02
1068.208, 0.1220700
1068.690, 0.2733950
1069.172, 0.3853990
1069.654, 0.4292380
1070.136, 0.4109430
1070.618, 0.2644880
1071.100, 9.0480000E-02
1071.583, 6.4768001E-02
1072.065, 0.1842380
1072.547, 0.2298650
1073.029, 8.5220002E-03
1073.511, 0.1208520
1073.993, 0.1672710
1074.475, 0.4608920
1074.957, 0.3715080
1075.439, 0.1146310
1075.922, 4.3469999E-02
1076.404, 0.1806200
1076.886, 0.2937080
1077.368, 0.2962300
1077.850, 0.2567490
1078.332, 0.1660210
1078.814, 8.8473998E-02
1079.297, 8.1655003E-02
1079.779, 0.1096160
1080.261, 0.1339800
1080.743, 0.1441700
1081.225, 0.1207070
1081.707, 3.2607999E-02
1082.189, 6.3470001E-03
1082.671, 0.1077350
1083.153, 0.2299740
1083.635, 0.2492240
1084.118, 0.2362280
1084.600, 0.3164970
1085.082, 0.4437000
1085.564, 0.4102320
1086.046, 0.1065860
1086.528, 7.4161001E-02
1087.010, 0.1724890
1087.492, 0.4214950
1087.975, 0.4257190
1088.457, 0.3241850
1088.939, 0.2339060
1089.421, 0.1722340
1089.903, 0.1518500
1090.385, 0.1820880
1090.867, 0.1789890
1091.349, 3.6991000E-02
1091.832, 5.0251000E-02
1092.314, 8.7895997E-02
1092.796, 0.2448620
1093.278, 0.2091590
1093.760, 7.1755998E-02
1094.242, 1.9007999E-02
1094.724, 8.2955003E-02
1095.206, 0.1979090
1095.688, 0.4714930
1096.171, 0.6142870
1096.653, 0.4042610
1097.135, 0.1550150
1097.617, 8.4486000E-02
1098.099, 0.1137860
1098.581, 9.8084003E-02
1099.063, 3.1206001E-02
1099.545, 3.6722001E-02
1100.027, 0.2459320
1100.510, 0.3559130
1100.992, 0.1684570
1101.474, 5.6960001E-03
1101.956, 8.9957997E-02
1102.438, 0.2502370
1102.920, 0.3080800
1103.402, 0.2663380
1103.884, 0.2136680
1104.367, 0.1374750
1104.849, 0.1171610
1105.331, 0.2061680
1105.813, 0.3034250
1106.295, 0.4169690
1106.777, 0.4821320
1107.259, 0.3829650
1107.741, 0.1950050
1108.224, 0.1589570
1108.706, 0.3606020
1109.188, 0.4428610
1109.670, 0.2429440
1110.152, 0.1041050
1110.634, 0.1628350
1111.116, 0.2483090
1111.598, 0.2535440
1112.080, 0.2050970
1112.563, 0.1394560
1113.045, 4.8822001E-02
1113.527, 3.7278000E-02
1114.009, 0.1454450
1114.491, 0.2579330
1114.973, 0.4180560
1115.455, 0.5067650
1115.937, 0.4104780
1116.419, 0.2597270
1116.902, 0.2502190
1117.384, 0.3630220
1117.866, 0.3553760
1118.348, 0.1166050
1118.830, 2.3151999E-02
1119.312, 0.1715000
1119.794, 0.2955730
1120.276, 0.2846980
1120.759, 0.2410350
1121.241, 0.2563530
1121.723, 0.3187720
1122.205, 0.3943330
1122.687, 0.5043890
1123.169, 0.5221710
1123.651, 0.4196790
1124.133, 0.3031690
1124.615, 0.1612540
1125.098, 0.1329760
1125.580, 0.3597730
1126.062, 0.6809820
1126.544, 0.7816350
1127.026, 0.6658800
1127.508, 0.5332710
1127.990, 0.3760550
1128.472, 0.2656090
1128.954, 0.2108730
1129.437, 0.2355620
1129.919, 0.3707240
1130.401, 0.4834420
1130.883, 0.3985710
1131.365, 0.1618910
1131.847, 4.2277999E-02
1132.329, 0.2142600
1132.811, 0.2362130
1133.294, 0.1022980
1133.776, 0.1087780
1134.258, 0.3722420
1134.740, 0.5310740
1135.222, 0.4371540
1135.704, 0.2271190
1136.186, 0.1512970
1136.668, 0.1909340
1137.151, 0.3155850
1137.633, 0.4911620
1138.115, 0.5525830
1138.597, 0.4758300
1139.079, 0.3552310
1139.561, 0.2412470
1140.043, 0.1611300
1140.525, 0.1293450
1141.007, 0.1684000
1141.490, 0.3948400
1141.972, 0.6988020
1142.454, 0.8345830
1142.936, 0.8010760
1143.418, 0.6780030
1143.900, 0.5101140
1144.382, 0.4220580
1144.864, 0.5741130
1145.346, 0.7391560
1145.829, 0.6774150
1146.311, 0.4879800
1146.793, 0.2175740
1147.275, 4.8177000E-02
1147.757, 0.1647360
1148.239, 0.1236320
1148.721, 1.1174000E-02
1149.203, 0.1529500
1149.686, 0.2912050
1150.168, 0.3115660
1150.650, 0.3450010
1151.132, 0.5559270
1151.614, 0.7837750
1152.096, 0.8435840
1152.578, 0.7606390
1153.060, 0.6272430
1153.542, 0.4624210
1154.025, 0.3165830
1154.507, 0.1712220
1154.989, 9.8650001E-02
1155.471, 0.2094990
1155.953, 0.3096460
1156.435, 0.2250210
1156.917, 8.0862999E-02
1157.399, 8.5426003E-02
1157.881, 0.2258320
1158.364, 0.2570430
1158.846, 8.6869998E-03
1159.328, 7.1938999E-02
1159.810, 0.3283860
1160.292, 0.6309530
1160.774, 0.6279220
1161.256, 0.5213220
1161.738, 0.4296650
1162.221, 0.3695030
1162.703, 0.3998030
1163.185, 0.5488140
1163.667, 0.5335410
1164.149, 0.2376280
1164.631, 0.1366530
1165.113, 0.3719450
1165.595, 0.6095540
1166.078, 0.7031290
1166.560, 0.6662850
1167.042, 0.4891020
1167.524, 0.2487400
1168.006, 0.3882580
1168.488, 0.9350750
1168.970, 1.038498
1169.452, 0.6413080
1169.934, 0.2520980
1170.417, 1.3682000E-02
1170.899, 1.8490000E-02
1171.381, 0.2251600
1171.863, 0.5191730
1172.345, 0.4118120
1172.827, 5.3969000E-02
1173.309, 1.1700000E-04
1173.791, 0.1786370
1174.273, 0.3145960
1174.756, 0.3814860
1175.238, 0.5132550
1175.720, 0.7514980
1176.202, 0.8903510
1176.684, 0.6988650
1177.166, 0.4262320
1177.648, 0.4029510
1178.130, 0.4832190
1178.613, 0.4373180
1179.095, 0.3328270
1179.577, 0.3728170
1180.059, 0.5419240
1180.541, 0.5960530
1181.023, 0.3878710
1181.505, 0.2350850
1181.987, 0.4570270
1182.469, 0.6688090
1182.952, 0.5120710
1183.434, 0.3100290
1183.916, 0.4645940
1184.398, 0.7928760
1184.880, 0.8693240
1185.362, 0.6386140
1185.844, 0.4542960
1186.326, 0.3865060
1186.808, 0.3888030
1187.291, 0.5641860
1187.773, 0.6726780
1188.255, 0.5193800
1188.737, 0.3283100
1189.219, 0.3435920
1189.701, 0.4838800
1190.183, 0.5086300
1190.665, 0.3797930
1191.148, 0.2529060
1191.630, 6.9298998E-02
1192.112, 6.4314999E-02
1192.594, 0.3529120
1193.076, 0.6044900
1193.558, 0.6509490
1194.040, 0.5599530
1194.522, 0.3871790
1195.005, 0.1835590
1195.487, 0.1956660
1195.969, 0.4123790
1196.451, 0.5288580
1196.933, 0.5338290
1197.415, 0.5492070
1197.897, 0.6052040
1198.379, 0.6447960
1198.861, 0.6325560
1199.344, 0.5813570
1199.826, 0.4641800
1200.308, 0.3499910
1200.790, 0.4062220
1201.272, 0.5661130
1201.754, 0.7280000
1202.236, 0.8461030
1202.718, 0.8119730
1203.200, 0.6190790
1203.683, 0.4553830
1204.165, 0.4448320
1204.647, 0.4627180
1205.129, 0.4034650
1205.611, 0.3323170
1206.093, 0.3084290
1206.575, 0.3277000
1207.057, 0.4134040
1207.540, 0.5145830
1208.022, 0.4858800
1208.504, 0.2819580
1208.986, 0.1708790
1209.468, 0.2884920
1209.950, 0.3961520
1210.432, 0.4699910
1210.914, 0.4884430
1211.396, 0.3717580
1211.879, 0.2542000
1212.361, 0.3069550
1212.843, 0.4702150
1213.325, 0.4963190
1213.807, 0.3455720
1214.289, 0.2501700
1214.771, 0.2289820
1215.253, 0.1705780
1215.735, 3.0530000E-02
1216.218, 2.0267000E-02
1216.700, 0.1219140
1217.182, 0.3154410
1217.664, 0.3948080
1218.146, 0.3971980
1218.628, 0.4635610
1219.110, 0.5783180
1219.592, 0.7065830
1220.075, 0.8158640
1220.557, 0.7069970
1221.039, 0.3807670
1221.521, 0.1695600
1222.003, 0.2636300
1222.485, 0.3853540
1222.967, 0.1779610
1223.449, 7.0139997E-02
1223.932, 1.8900000E-04
1224.414, 0.2066760
1224.896, 0.3217550
1225.378, 0.3767610
1225.860, 0.5097420
1226.342, 0.7075490
1226.824, 0.7150740
1227.306, 0.3613090
1227.788, 9.0594999E-02
1228.271, 8.0854997E-02
1228.753, 0.1525510
1229.235, 0.2965070
1229.717, 0.4182720
1230.199, 0.4032410
1230.681, 0.3367640
1231.163, 0.3968070
1231.645, 0.5783250
1232.127, 0.6369140
1232.610, 0.5040590
1233.092, 0.4813340
1233.574, 0.6539530
1234.056, 0.6458770
1234.538, 0.2846360
1235.020, 6.7940000E-03
1235.502, 0.1592970
1235.984, 0.4799110
1236.467, 0.5167480
1236.949, 0.3299290
1237.431, 0.1073190
1237.913, 0.1070000
1238.395, 9.3622997E-02
1238.877, 0.1196720
1239.359, 0.3072490
1239.841, 0.4016360
1240.323, 0.4867840
1240.806, 0.6330570
1241.288, 0.6987390
1241.770, 0.4019120
1242.252, 0.1116880
1242.734, 0.2968140
1243.216, 0.6222920
1243.698, 0.6696820
1244.180, 0.5048630
1244.662, 0.3153730
1245.145, 0.1479290
1245.627, 0.1132310
1246.109, 0.4155320
1246.591, 0.5297470
1247.073, 9.9494003E-02
1247.555, 0.1667930
1248.037, 0.1307630
1248.519, 0.4682320
1249.002, 0.4414730
1249.484, 0.2453080
1249.966, 0.2641770
1250.448, 0.4789210
1250.930, 0.6599640
1251.412, 0.8144150
1251.894, 0.8383390
1252.376, 0.7185800
1252.859, 0.6004410
1253.341, 0.5138130
1253.823, 0.4747250
1254.305, 0.4600050
1254.787, 0.4813480
1255.269, 0.6045470
1255.751, 0.7355510
1256.233, 0.6581920
1256.715, 0.4841800
1257.198, 0.4326160
1257.680, 0.4719890
1258.162, 0.4614670
1258.644, 0.3839360
1259.126, 0.3352760
1259.608, 0.3712720
1260.090, 0.4248050
1260.572, 0.4839370
1261.054, 0.5220900
1261.537, 0.3606080
1262.019, 0.2102500
1262.501, 0.2488650
1262.983, 0.3962140
1263.465, 0.5276030
1263.947, 0.6365540
1264.429, 0.6972470
1264.911, 0.6971920
1265.394, 0.6532500
1265.876, 0.6579380
1266.358, 0.6173130
1266.840, 0.5128630
1267.322, 0.4160930
1267.804, 0.3665060
1268.286, 0.3401790
1268.768, 0.3042990
1269.250, 0.2761790
1269.733, 0.3040260
1270.215, 0.3666470
1270.697, 0.4255090
1271.179, 0.4689150
1271.661, 0.4850530
1272.143, 0.4652150
1272.625, 0.3668220
1273.107, 0.1771430
1273.589, 4.2971998E-02
1274.072, 0.1162530
1274.554, 0.1820070
1275.036, 8.6811997E-02
1275.518, 1.1060000E-03
1276.000, 1.1700000E-04
1276.482, 9.2097998E-02
1276.964, 0.3573130
1277.446, 0.6958460
1277.929, 0.7860360
1278.411, 0.5855170
1278.893, 0.4520940
1279.375, 0.3717600
1279.857, 0.2590410
1280.339, 4.2134002E-02
1280.821, 3.7760001E-03
1281.303, 0.2562920
1281.786, 0.2420190
1282.268, 0.0000000E+00
##END=



