##NAMES=Veszelyite
##RRUFFID=R150144
##IDEAL CHEMISTRY=Cu^2+^_3_PO_4_(OH)_3_&#183;2H_2_O
##LOCALITY=Hisaichi Mine, Nakagawa, Akita Prefecture, Japan
##OWNER=RRUFF
##SOURCE=Leor Goldberg
##DESCRIPTION=A fragment of dark blue crystal
##STATUS=The identification of this mineral has been confirmed by single-crystal X-ray diffraction.
##URL=rruff.info/R150144
8.806445e+001, 1.195392e+002
8.854657e+001, 1.200991e+002
8.902869e+001, 1.202996e+002
8.951080e+001, 1.199927e+002
8.999292e+001, 1.193945e+002
9.047504e+001, 1.186893e+002
9.095715e+001, 1.179047e+002
9.143927e+001, 1.170926e+002
9.192139e+001, 1.163507e+002
9.240350e+001, 1.156913e+002
9.288562e+001, 1.149407e+002
9.336774e+001, 1.131753e+002
9.384985e+001, 1.097994e+002
9.433197e+001, 1.053976e+002
9.481409e+001, 1.017533e+002
9.529620e+001, 9.823518e+001
9.577832e+001, 9.489281e+001
9.626044e+001, 9.173293e+001
9.674255e+001, 8.889454e+001
9.722467e+001, 8.660058e+001
9.770679e+001, 8.500351e+001
9.818890e+001, 8.336483e+001
9.867102e+001, 8.145184e+001
9.915314e+001, 7.946797e+001
9.963525e+001, 7.753468e+001
1.001174e+002, 7.569444e+001
1.005995e+002, 7.395066e+001
1.010816e+002, 7.232070e+001
1.015637e+002, 7.073406e+001
1.020458e+002, 6.932377e+001
1.025280e+002, 6.809869e+001
1.030101e+002, 6.704006e+001
1.034922e+002, 6.611353e+001
1.039743e+002, 6.529786e+001
1.044564e+002, 6.459014e+001
1.049385e+002, 6.407594e+001
1.054207e+002, 6.387934e+001
1.059028e+002, 6.370932e+001
1.063849e+002, 6.355155e+001
1.068670e+002, 6.336154e+001
1.073491e+002, 6.284850e+001
1.078312e+002, 6.156295e+001
1.083134e+002, 5.955387e+001
1.087955e+002, 5.784646e+001
1.092776e+002, 5.666231e+001
1.097597e+002, 5.581861e+001
1.102418e+002, 5.506715e+001
1.107239e+002, 5.437825e+001
1.112061e+002, 5.377831e+001
1.116882e+002, 5.330685e+001
1.121703e+002, 5.293871e+001
1.126524e+002, 5.260579e+001
1.131345e+002, 5.224964e+001
1.136166e+002, 5.187492e+001
1.140988e+002, 5.158262e+001
1.145809e+002, 5.152945e+001
1.150630e+002, 5.143956e+001
1.155451e+002, 5.115777e+001
1.160272e+002, 5.067763e+001
1.165093e+002, 5.010078e+001
1.169915e+002, 4.953106e+001
1.174736e+002, 4.894417e+001
1.179557e+002, 4.843682e+001
1.184378e+002, 4.806939e+001
1.189199e+002, 4.773591e+001
1.194020e+002, 4.734082e+001
1.198842e+002, 4.685781e+001
1.203663e+002, 4.635674e+001
1.208484e+002, 4.599377e+001
1.213305e+002, 4.580518e+001
1.218126e+002, 4.574549e+001
1.222947e+002, 4.602087e+001
1.227769e+002, 4.637611e+001
1.232590e+002, 4.646890e+001
1.237411e+002, 4.610730e+001
1.242232e+002, 4.538787e+001
1.247053e+002, 4.474133e+001
1.251874e+002, 4.408841e+001
1.256696e+002, 4.356461e+001
1.261517e+002, 4.328631e+001
1.266338e+002, 4.320560e+001
1.271159e+002, 4.311457e+001
1.275980e+002, 4.288599e+001
1.280801e+002, 4.254514e+001
1.285623e+002, 4.221214e+001
1.290444e+002, 4.188098e+001
1.295265e+002, 4.156615e+001
1.300086e+002, 4.133713e+001
1.304907e+002, 4.123965e+001
1.309728e+002, 4.099686e+001
1.314550e+002, 4.024862e+001
1.319371e+002, 3.926863e+001
1.324192e+002, 3.842913e+001
1.329013e+002, 3.792528e+001
1.333834e+002, 3.765960e+001
1.338655e+002, 3.734404e+001
1.343477e+002, 3.694068e+001
1.348298e+002, 3.654058e+001
1.353119e+002, 3.612439e+001
1.357940e+002, 3.573893e+001
1.362761e+002, 3.547929e+001
1.367582e+002, 3.546210e+001
1.372404e+002, 3.569854e+001
1.377225e+002, 3.576163e+001
1.382046e+002, 3.556186e+001
1.386867e+002, 3.525702e+001
1.391688e+002, 3.482221e+001
1.396509e+002, 3.430463e+001
1.401331e+002, 3.381036e+001
1.406152e+002, 3.345071e+001
1.410973e+002, 3.327911e+001
1.415794e+002, 3.306458e+001
1.420615e+002, 3.274709e+001
1.425436e+002, 3.243895e+001
1.430258e+002, 3.222475e+001
1.435079e+002, 3.211289e+001
1.439900e+002, 3.202831e+001
1.444721e+002, 3.186516e+001
1.449542e+002, 3.156962e+001
1.454363e+002, 3.133367e+001
1.459185e+002, 3.120386e+001
1.464006e+002, 3.112023e+001
1.468827e+002, 3.100784e+001
1.473648e+002, 3.084060e+001
1.478469e+002, 3.066099e+001
1.483290e+002, 3.057830e+001
1.488112e+002, 3.062238e+001
1.492933e+002, 3.055188e+001
1.497754e+002, 3.019725e+001
1.502575e+002, 2.964881e+001
1.507396e+002, 2.916121e+001
1.512217e+002, 2.880211e+001
1.517039e+002, 2.855731e+001
1.521860e+002, 2.837699e+001
1.526681e+002, 2.825772e+001
1.531502e+002, 2.821916e+001
1.536323e+002, 2.837690e+001
1.541144e+002, 2.874467e+001
1.545966e+002, 2.887696e+001
1.550787e+002, 2.837913e+001
1.555608e+002, 2.775122e+001
1.560429e+002, 2.735347e+001
1.565250e+002, 2.726224e+001
1.570071e+002, 2.726589e+001
1.574893e+002, 2.702539e+001
1.579714e+002, 2.637515e+001
1.584535e+002, 2.593595e+001
1.589356e+002, 2.594394e+001
1.594177e+002, 2.610487e+001
1.598998e+002, 2.621233e+001
1.603820e+002, 2.618711e+001
1.608641e+002, 2.606865e+001
1.613462e+002, 2.594658e+001
1.618283e+002, 2.580428e+001
1.623104e+002, 2.568379e+001
1.627925e+002, 2.565882e+001
1.632747e+002, 2.563210e+001
1.637568e+002, 2.546474e+001
1.642389e+002, 2.508373e+001
1.647210e+002, 2.457059e+001
1.652031e+002, 2.427420e+001
1.656852e+002, 2.442860e+001
1.661674e+002, 2.453412e+001
1.666495e+002, 2.445705e+001
1.671316e+002, 2.428154e+001
1.676137e+002, 2.416557e+001
1.680958e+002, 2.420844e+001
1.685779e+002, 2.437830e+001
1.690601e+002, 2.446885e+001
1.695422e+002, 2.445041e+001
1.700243e+002, 2.440312e+001
1.705064e+002, 2.435830e+001
1.709885e+002, 2.431197e+001
1.714706e+002, 2.424718e+001
1.719528e+002, 2.415800e+001
1.724349e+002, 2.403594e+001
1.729170e+002, 2.387342e+001
1.733991e+002, 2.362559e+001
1.738812e+002, 2.337236e+001
1.743633e+002, 2.316813e+001
1.748455e+002, 2.301293e+001
1.753276e+002, 2.289519e+001
1.758097e+002, 2.285148e+001
1.762918e+002, 2.283129e+001
1.767739e+002, 2.273757e+001
1.772560e+002, 2.248818e+001
1.777382e+002, 2.220082e+001
1.782203e+002, 2.206497e+001
1.787024e+002, 2.213235e+001
1.791845e+002, 2.218112e+001
1.796666e+002, 2.204934e+001
1.801487e+002, 2.183990e+001
1.806309e+002, 2.168250e+001
1.811130e+002, 2.163959e+001
1.815951e+002, 2.167883e+001
1.820772e+002, 2.172028e+001
1.825593e+002, 2.178852e+001
1.830414e+002, 2.181263e+001
1.835236e+002, 2.174565e+001
1.840057e+002, 2.163149e+001
1.844878e+002, 2.152651e+001
1.849699e+002, 2.145662e+001
1.854520e+002, 2.142522e+001
1.859341e+002, 2.146221e+001
1.864163e+002, 2.173960e+001
1.868984e+002, 2.188628e+001
1.873805e+002, 2.174391e+001
1.878626e+002, 2.141977e+001
1.883447e+002, 2.109753e+001
1.888268e+002, 2.090571e+001
1.893090e+002, 2.084063e+001
1.897911e+002, 2.074944e+001
1.902732e+002, 2.057632e+001
1.907553e+002, 2.043360e+001
1.912374e+002, 2.034322e+001
1.917195e+002, 2.030749e+001
1.922017e+002, 2.033484e+001
1.926838e+002, 2.044473e+001
1.931659e+002, 2.064663e+001
1.936480e+002, 2.070544e+001
1.941301e+002, 2.052115e+001
1.946122e+002, 2.032575e+001
1.950944e+002, 2.023525e+001
1.955765e+002, 2.022947e+001
1.960586e+002, 2.020111e+001
1.965407e+002, 2.004730e+001
1.970228e+002, 1.976359e+001
1.975049e+002, 1.961651e+001
1.979871e+002, 1.977572e+001
1.984692e+002, 1.991842e+001
1.989513e+002, 1.977744e+001
1.994334e+002, 1.937355e+001
1.999155e+002, 1.901057e+001
2.003976e+002, 1.895576e+001
2.008798e+002, 1.919723e+001
2.013619e+002, 1.936497e+001
2.018440e+002, 1.943583e+001
2.023261e+002, 1.943532e+001
2.028082e+002, 1.936290e+001
2.032903e+002, 1.921667e+001
2.037725e+002, 1.906343e+001
2.042546e+002, 1.893958e+001
2.047367e+002, 1.885063e+001
2.052188e+002, 1.881647e+001
2.057009e+002, 1.895807e+001
2.061830e+002, 1.910726e+001
2.066652e+002, 1.899004e+001
2.071473e+002, 1.853366e+001
2.076294e+002, 1.808615e+001
2.081115e+002, 1.787024e+001
2.085936e+002, 1.782073e+001
2.090757e+002, 1.787155e+001
2.095579e+002, 1.806289e+001
2.100400e+002, 1.831550e+001
2.105221e+002, 1.848498e+001
2.110042e+002, 1.858574e+001
2.114863e+002, 1.855846e+001
2.119685e+002, 1.829428e+001
2.124506e+002, 1.791242e+001
2.129327e+002, 1.757601e+001
2.134148e+002, 1.733775e+001
2.138969e+002, 1.720857e+001
2.143790e+002, 1.724607e+001
2.148612e+002, 1.757235e+001
2.153433e+002, 1.786896e+001
2.158254e+002, 1.809031e+001
2.163075e+002, 1.820422e+001
2.167896e+002, 1.814446e+001
2.172717e+002, 1.783652e+001
2.177539e+002, 1.735433e+001
2.182360e+002, 1.703645e+001
2.187181e+002, 1.697666e+001
2.192002e+002, 1.697725e+001
2.196823e+002, 1.701241e+001
2.201644e+002, 1.706754e+001
2.206466e+002, 1.713721e+001
2.211287e+002, 1.722515e+001
2.216108e+002, 1.731487e+001
2.220929e+002, 1.730800e+001
2.225750e+002, 1.707165e+001
2.230571e+002, 1.687947e+001
2.235393e+002, 1.676711e+001
2.240214e+002, 1.672928e+001
2.245035e+002, 1.677802e+001
2.249856e+002, 1.693128e+001
2.254677e+002, 1.715234e+001
2.259498e+002, 1.720317e+001
2.264320e+002, 1.686463e+001
2.269141e+002, 1.658996e+001
2.273962e+002, 1.643840e+001
2.278783e+002, 1.640073e+001
2.283604e+002, 1.648279e+001
2.288425e+002, 1.670320e+001
2.293247e+002, 1.701212e+001
2.298068e+002, 1.711663e+001
2.302889e+002, 1.682155e+001
2.307710e+002, 1.656077e+001
2.312531e+002, 1.643438e+001
2.317352e+002, 1.640082e+001
2.322174e+002, 1.637688e+001
2.326995e+002, 1.631546e+001
2.331816e+002, 1.623563e+001
2.336637e+002, 1.622709e+001
2.341458e+002, 1.634494e+001
2.346279e+002, 1.645571e+001
2.351101e+002, 1.651634e+001
2.355922e+002, 1.654686e+001
2.360743e+002, 1.659587e+001
2.365564e+002, 1.669555e+001
2.370385e+002, 1.681362e+001
2.375206e+002, 1.683283e+001
2.380028e+002, 1.667436e+001
2.384849e+002, 1.656115e+001
2.389670e+002, 1.663128e+001
2.394491e+002, 1.680362e+001
2.399312e+002, 1.688523e+001
2.404133e+002, 1.677586e+001
2.408955e+002, 1.655682e+001
2.413776e+002, 1.640347e+001
2.418597e+002, 1.631306e+001
2.423418e+002, 1.627479e+001
2.428239e+002, 1.631021e+001
2.433060e+002, 1.639761e+001
2.437882e+002, 1.648371e+001
2.442703e+002, 1.656183e+001
2.447524e+002, 1.661071e+001
2.452345e+002, 1.659819e+001
2.457166e+002, 1.652154e+001
2.461987e+002, 1.641607e+001
2.466809e+002, 1.628235e+001
2.471630e+002, 1.613059e+001
2.476451e+002, 1.598708e+001
2.481272e+002, 1.584304e+001
2.486093e+002, 1.573834e+001
2.490914e+002, 1.574609e+001
2.495736e+002, 1.587062e+001
2.500557e+002, 1.594550e+001
2.505378e+002, 1.581707e+001
2.510199e+002, 1.554573e+001
2.515020e+002, 1.540122e+001
2.519841e+002, 1.552979e+001
2.524663e+002, 1.566184e+001
2.529484e+002, 1.550908e+001
2.534305e+002, 1.510640e+001
2.539126e+002, 1.475347e+001
2.543947e+002, 1.465140e+001
2.548768e+002, 1.475566e+001
2.553590e+002, 1.487181e+001
2.558411e+002, 1.502822e+001
2.563232e+002, 1.511881e+001
2.568053e+002, 1.505073e+001
2.572874e+002, 1.485938e+001
2.577695e+002, 1.467145e+001
2.582516e+002, 1.456273e+001
2.587338e+002, 1.452247e+001
2.592159e+002, 1.449494e+001
2.596980e+002, 1.446865e+001
2.601801e+002, 1.447369e+001
2.606622e+002, 1.453356e+001
2.611443e+002, 1.463175e+001
2.616265e+002, 1.473360e+001
2.621086e+002, 1.483179e+001
2.625907e+002, 1.491802e+001
2.630728e+002, 1.495673e+001
2.635549e+002, 1.496738e+001
2.640370e+002, 1.488927e+001
2.645192e+002, 1.465194e+001
2.650013e+002, 1.433142e+001
2.654834e+002, 1.404632e+001
2.659655e+002, 1.385478e+001
2.664476e+002, 1.374784e+001
2.669297e+002, 1.370165e+001
2.674119e+002, 1.377405e+001
2.678940e+002, 1.381308e+001
2.683761e+002, 1.375518e+001
2.688582e+002, 1.364864e+001
2.693403e+002, 1.355006e+001
2.698224e+002, 1.348601e+001
2.703046e+002, 1.344924e+001
2.707867e+002, 1.342351e+001
2.712688e+002, 1.342491e+001
2.717509e+002, 1.340764e+001
2.722330e+002, 1.335152e+001
2.727151e+002, 1.328030e+001
2.731973e+002, 1.321716e+001
2.736794e+002, 1.317136e+001
2.741615e+002, 1.313582e+001
2.746436e+002, 1.308505e+001
2.751257e+002, 1.296484e+001
2.756078e+002, 1.294377e+001
2.760900e+002, 1.314677e+001
2.765721e+002, 1.337819e+001
2.770542e+002, 1.345507e+001
2.775363e+002, 1.333040e+001
2.780184e+002, 1.312418e+001
2.785005e+002, 1.304741e+001
2.789827e+002, 1.318974e+001
2.794648e+002, 1.326185e+001
2.799469e+002, 1.321190e+001
2.804290e+002, 1.312593e+001
2.809111e+002, 1.305399e+001
2.813932e+002, 1.300804e+001
2.818754e+002, 1.297624e+001
2.823575e+002, 1.294813e+001
2.828396e+002, 1.293664e+001
2.833217e+002, 1.288951e+001
2.838038e+002, 1.275315e+001
2.842859e+002, 1.262978e+001
2.847681e+002, 1.259645e+001
2.852502e+002, 1.264147e+001
2.857323e+002, 1.268453e+001
2.862144e+002, 1.263401e+001
2.866965e+002, 1.246201e+001
2.871786e+002, 1.235834e+001
2.876608e+002, 1.237917e+001
2.881429e+002, 1.240860e+001
2.886250e+002, 1.241588e+001
2.891071e+002, 1.239296e+001
2.895892e+002, 1.233039e+001
2.900714e+002, 1.220940e+001
2.905535e+002, 1.202828e+001
2.910356e+002, 1.193751e+001
2.915177e+002, 1.201747e+001
2.919998e+002, 1.210293e+001
2.924819e+002, 1.215857e+001
2.929641e+002, 1.218647e+001
2.934462e+002, 1.219279e+001
2.939283e+002, 1.217727e+001
2.944104e+002, 1.214951e+001
2.948925e+002, 1.217527e+001
2.953746e+002, 1.240015e+001
2.958568e+002, 1.251518e+001
2.963389e+002, 1.241962e+001
2.968210e+002, 1.220299e+001
2.973031e+002, 1.196224e+001
2.977852e+002, 1.174073e+001
2.982673e+002, 1.157005e+001
2.987495e+002, 1.154797e+001
2.992316e+002, 1.190187e+001
2.997137e+002, 1.212354e+001
3.001958e+002, 1.210435e+001
3.006779e+002, 1.198785e+001
3.011600e+002, 1.191576e+001
3.016422e+002, 1.193510e+001
3.021243e+002, 1.200214e+001
3.026064e+002, 1.204468e+001
3.030885e+002, 1.211302e+001
3.035706e+002, 1.205141e+001
3.040527e+002, 1.169592e+001
3.045349e+002, 1.133101e+001
3.050170e+002, 1.120140e+001
3.054991e+002, 1.133284e+001
3.059812e+002, 1.154907e+001
3.064633e+002, 1.163038e+001
3.069454e+002, 1.151823e+001
3.074276e+002, 1.147319e+001
3.079097e+002, 1.152979e+001
3.083918e+002, 1.161160e+001
3.088739e+002, 1.171398e+001
3.093560e+002, 1.181266e+001
3.098381e+002, 1.184284e+001
3.103203e+002, 1.173500e+001
3.108024e+002, 1.147579e+001
3.112845e+002, 1.130146e+001
3.117666e+002, 1.125264e+001
3.122487e+002, 1.123295e+001
3.127308e+002, 1.120955e+001
3.132130e+002, 1.118892e+001
3.136951e+002, 1.119926e+001
3.141772e+002, 1.126380e+001
3.146593e+002, 1.136768e+001
3.151414e+002, 1.140468e+001
3.156235e+002, 1.128718e+001
3.161057e+002, 1.120375e+001
3.165878e+002, 1.121380e+001
3.170699e+002, 1.126761e+001
3.175520e+002, 1.129528e+001
3.180341e+002, 1.126518e+001
3.185162e+002, 1.119897e+001
3.189984e+002, 1.115172e+001
3.194805e+002, 1.111824e+001
3.199626e+002, 1.111516e+001
3.204447e+002, 1.121801e+001
3.209268e+002, 1.131020e+001
3.214089e+002, 1.124272e+001
3.218911e+002, 1.099117e+001
3.223732e+002, 1.070976e+001
3.228553e+002, 1.063604e+001
3.233374e+002, 1.090843e+001
3.238195e+002, 1.105077e+001
3.243016e+002, 1.100920e+001
3.247838e+002, 1.089884e+001
3.252659e+002, 1.075132e+001
3.257480e+002, 1.059266e+001
3.262301e+002, 1.048122e+001
3.267122e+002, 1.048589e+001
3.271943e+002, 1.063148e+001
3.276765e+002, 1.068314e+001
3.281586e+002, 1.052906e+001
3.286407e+002, 1.040510e+001
3.291228e+002, 1.041934e+001
3.296049e+002, 1.053507e+001
3.300870e+002, 1.066823e+001
3.305692e+002, 1.077082e+001
3.310513e+002, 1.083308e+001
3.315334e+002, 1.077939e+001
3.320155e+002, 1.042742e+001
3.324976e+002, 1.015979e+001
3.329797e+002, 1.006346e+001
3.334619e+002, 1.007233e+001
3.339440e+002, 1.010140e+001
3.344261e+002, 1.011264e+001
3.349082e+002, 1.012271e+001
3.353904e+002, 1.017321e+001
3.358725e+002, 1.029567e+001
3.363546e+002, 1.041171e+001
3.368367e+002, 1.055374e+001
3.373188e+002, 1.066780e+001
3.378009e+002, 1.069871e+001
3.382831e+002, 1.064040e+001
3.387652e+002, 1.053948e+001
3.392473e+002, 1.045436e+001
3.397294e+002, 1.038294e+001
3.402115e+002, 1.033483e+001
3.406936e+002, 1.030438e+001
3.411758e+002, 1.029819e+001
3.416579e+002, 1.036990e+001
3.421400e+002, 1.048051e+001
3.426221e+002, 1.050489e+001
3.431042e+002, 1.030431e+001
3.435863e+002, 9.879434e+000
3.440685e+002, 9.677026e+000
3.445506e+002, 9.970313e+000
3.450327e+002, 1.022396e+001
3.455148e+002, 1.032093e+001
3.459969e+002, 1.030137e+001
3.464790e+002, 1.023172e+001
3.469612e+002, 1.014314e+001
3.474433e+002, 1.004928e+001
3.479254e+002, 9.993592e+000
3.484075e+002, 9.999353e+000
3.488896e+002, 1.000879e+001
3.493717e+002, 9.986810e+000
3.498539e+002, 9.978385e+000
3.503360e+002, 1.004528e+001
3.508181e+002, 1.019994e+001
3.513002e+002, 1.036596e+001
3.517823e+002, 1.043232e+001
3.522644e+002, 1.038468e+001
3.527466e+002, 1.028140e+001
3.532287e+002, 1.000017e+001
3.537108e+002, 9.767573e+000
3.541929e+002, 9.744340e+000
3.546750e+002, 9.902634e+000
3.551571e+002, 1.007463e+001
3.556393e+002, 1.011273e+001
3.561214e+002, 1.001793e+001
3.566035e+002, 9.908759e+000
3.570856e+002, 9.709462e+000
3.575677e+002, 9.593979e+000
3.580498e+002, 9.658919e+000
3.585320e+002, 9.839433e+000
3.590141e+002, 1.003954e+001
3.594962e+002, 1.023049e+001
3.599783e+002, 1.037311e+001
3.604604e+002, 1.032993e+001
3.609425e+002, 9.990251e+000
3.614247e+002, 9.723277e+000
3.619068e+002, 9.646298e+000
3.623889e+002, 9.679377e+000
3.628710e+002, 9.796833e+000
3.633531e+002, 9.996898e+000
3.638352e+002, 1.016163e+001
3.643174e+002, 1.009910e+001
3.647995e+002, 9.775141e+000
3.652816e+002, 9.577849e+000
3.657637e+002, 9.690170e+000
3.662458e+002, 9.849421e+000
3.667279e+002, 9.864130e+000
3.672101e+002, 9.750993e+000
3.676922e+002, 9.667642e+000
3.681743e+002, 9.770221e+000
3.686564e+002, 1.000609e+001
3.691385e+002, 1.012684e+001
3.696206e+002, 1.008875e+001
3.701028e+002, 1.000196e+001
3.705849e+002, 9.937758e+000
3.710670e+002, 9.874392e+000
3.715491e+002, 9.760611e+000
3.720312e+002, 9.512644e+000
3.725133e+002, 9.271193e+000
3.729955e+002, 9.275232e+000
3.734776e+002, 9.553095e+000
3.739597e+002, 9.802629e+000
3.744418e+002, 9.888373e+000
3.749239e+002, 9.881257e+000
3.754060e+002, 9.864594e+000
3.758882e+002, 9.839701e+000
3.763703e+002, 9.827026e+000
3.768524e+002, 9.868362e+000
3.773345e+002, 9.940911e+000
3.778166e+002, 9.933587e+000
3.782987e+002, 9.778779e+000
3.787809e+002, 9.616832e+000
3.792630e+002, 9.624616e+000
3.797451e+002, 9.779715e+000
3.802272e+002, 9.923244e+000
3.807093e+002, 1.002563e+001
3.811914e+002, 1.007757e+001
3.816736e+002, 1.004628e+001
3.821557e+002, 9.926654e+000
3.826378e+002, 9.800171e+000
3.831199e+002, 9.716123e+000
3.836020e+002, 9.676008e+000
3.840841e+002, 9.665660e+000
3.845663e+002, 9.725103e+000
3.850484e+002, 9.773494e+000
3.855305e+002, 9.790363e+000
3.860126e+002, 9.762364e+000
3.864947e+002, 9.616523e+000
3.869768e+002, 9.283168e+000
3.874590e+002, 8.896770e+000
3.879411e+002, 8.771377e+000
3.884232e+002, 8.975318e+000
3.889053e+002, 9.170621e+000
3.893874e+002, 9.312607e+000
3.898695e+002, 9.400782e+000
3.903517e+002, 9.419656e+000
3.908338e+002, 9.369383e+000
3.913159e+002, 9.297771e+000
3.917980e+002, 9.257419e+000
3.922801e+002, 9.256100e+000
3.927622e+002, 9.203530e+000
3.932444e+002, 8.999862e+000
3.937265e+002, 8.843716e+000
3.942086e+002, 8.869295e+000
3.946907e+002, 9.028757e+000
3.951728e+002, 9.197296e+000
3.956549e+002, 9.307265e+000
3.961371e+002, 9.357701e+000
3.966192e+002, 9.339842e+000
3.971013e+002, 9.092951e+000
3.975834e+002, 8.979052e+000
3.980655e+002, 9.169768e+000
3.985476e+002, 9.432239e+000
3.990298e+002, 9.499677e+000
3.995119e+002, 9.315574e+000
3.999940e+002, 9.068704e+000
4.004761e+002, 9.030928e+000
4.009582e+002, 9.310389e+000
4.014403e+002, 9.415540e+000
4.019225e+002, 9.218794e+000
4.024046e+002, 8.992621e+000
4.028867e+002, 8.825721e+000
4.033688e+002, 8.733413e+000
4.038509e+002, 8.721563e+000
4.043330e+002, 8.808275e+000
4.048152e+002, 8.965957e+000
4.052973e+002, 9.034349e+000
4.057794e+002, 8.954657e+000
4.062615e+002, 8.868609e+000
4.067436e+002, 8.804284e+000
4.072257e+002, 8.746737e+000
4.077079e+002, 8.671229e+000
4.081900e+002, 8.571319e+000
4.086721e+002, 8.483277e+000
4.091542e+002, 8.461304e+000
4.096363e+002, 8.515432e+000
4.101184e+002, 8.579604e+000
4.106006e+002, 8.693561e+000
4.110827e+002, 8.772785e+000
4.115648e+002, 8.744685e+000
4.120469e+002, 8.637433e+000
4.125290e+002, 8.550028e+000
4.130111e+002, 8.551123e+000
4.134933e+002, 8.619643e+000
4.139754e+002, 8.705072e+000
4.144575e+002, 8.839648e+000
4.149396e+002, 8.904467e+000
4.154217e+002, 8.785197e+000
4.159038e+002, 8.585452e+000
4.163860e+002, 8.419802e+000
4.168681e+002, 8.318543e+000
4.173502e+002, 8.237959e+000
4.178323e+002, 8.111986e+000
4.183144e+002, 7.954241e+000
4.187965e+002, 7.891061e+000
4.192787e+002, 7.973878e+000
4.197608e+002, 8.135144e+000
4.202429e+002, 8.349817e+000
4.207250e+002, 8.608444e+000
4.212071e+002, 8.745043e+000
4.216892e+002, 8.575286e+000
4.221714e+002, 8.311337e+000
4.226535e+002, 8.287386e+000
4.231356e+002, 8.528274e+000
4.236177e+002, 8.712290e+000
4.240998e+002, 8.584614e+000
4.245819e+002, 8.229438e+000
4.250641e+002, 8.040792e+000
4.255462e+002, 8.113296e+000
4.260283e+002, 8.227445e+000
4.265104e+002, 8.300671e+000
4.269925e+002, 8.347982e+000
4.274746e+002, 8.410172e+000
4.279568e+002, 8.505770e+000
4.284389e+002, 8.581182e+000
4.289210e+002, 8.543410e+000
4.294031e+002, 8.314901e+000
4.298852e+002, 8.198110e+000
4.303673e+002, 8.313586e+000
4.308495e+002, 8.444739e+000
4.313316e+002, 8.415454e+000
4.318137e+002, 8.250326e+000
4.322958e+002, 8.105392e+000
4.327779e+002, 8.098284e+000
4.332600e+002, 8.207121e+000
4.337422e+002, 8.253750e+000
4.342243e+002, 8.113585e+000
4.347064e+002, 8.059874e+000
4.351885e+002, 8.235528e+000
4.356706e+002, 8.463131e+000
4.361527e+002, 8.526121e+000
4.366349e+002, 8.369464e+000
4.371170e+002, 8.139650e+000
4.375991e+002, 8.061537e+000
4.380812e+002, 8.207333e+000
4.385633e+002, 8.238402e+000
4.390454e+002, 7.936185e+000
4.395276e+002, 7.724907e+000
4.400097e+002, 7.878532e+000
4.404918e+002, 8.258842e+000
4.409739e+002, 8.532557e+000
4.414560e+002, 8.470710e+000
4.419381e+002, 8.192454e+000
4.424203e+002, 8.035218e+000
4.429024e+002, 8.016123e+000
4.433845e+002, 8.076328e+000
4.438666e+002, 8.377894e+000
4.443487e+002, 8.643369e+000
4.448308e+002, 8.552015e+000
4.453130e+002, 8.051958e+000
4.457951e+002, 7.610452e+000
4.462772e+002, 7.734011e+000
4.467593e+002, 8.292466e+000
4.472414e+002, 8.584967e+000
4.477235e+002, 8.448678e+000
4.482057e+002, 8.217261e+000
4.486878e+002, 8.122583e+000
4.491699e+002, 8.127006e+000
4.496520e+002, 8.158346e+000
4.501341e+002, 8.231831e+000
4.506162e+002, 8.294173e+000
4.510984e+002, 8.265697e+000
4.515805e+002, 8.166434e+000
4.520626e+002, 8.143332e+000
4.525447e+002, 8.302167e+000
4.530268e+002, 8.501998e+000
4.535089e+002, 8.420997e+000
4.539911e+002, 7.982780e+000
4.544732e+002, 7.686414e+000
4.549553e+002, 7.688203e+000
4.554374e+002, 7.859576e+000
4.559195e+002, 8.120878e+000
4.564016e+002, 8.441978e+000
4.568838e+002, 8.720346e+000
4.573659e+002, 8.878469e+000
4.578480e+002, 8.918481e+000
4.583301e+002, 8.881196e+000
4.588122e+002, 8.598651e+000
4.592943e+002, 8.448972e+000
4.597765e+002, 8.709429e+000
4.602586e+002, 9.087864e+000
4.607407e+002, 9.144968e+000
4.612228e+002, 8.750735e+000
4.617049e+002, 8.209682e+000
4.621870e+002, 7.979902e+000
4.626692e+002, 8.164872e+000
4.631513e+002, 8.340021e+000
4.636334e+002, 8.527094e+000
4.641155e+002, 8.683385e+000
4.645976e+002, 8.796124e+000
4.650797e+002, 8.862919e+000
4.655619e+002, 8.881333e+000
4.660440e+002, 8.844786e+000
4.665261e+002, 8.769073e+000
4.670082e+002, 8.697451e+000
4.674903e+002, 8.632381e+000
4.679724e+002, 8.564041e+000
4.684546e+002, 8.456381e+000
4.689367e+002, 8.367541e+000
4.694188e+002, 8.351034e+000
4.699009e+002, 8.408657e+000
4.703830e+002, 8.483515e+000
4.708651e+002, 8.543917e+000
4.713473e+002, 8.587693e+000
4.718294e+002, 8.604096e+000
4.723115e+002, 8.587325e+000
4.727936e+002, 8.558154e+000
4.732757e+002, 8.500319e+000
4.737578e+002, 8.445317e+000
4.742400e+002, 8.460556e+000
4.747221e+002, 8.590393e+000
4.752042e+002, 8.736001e+000
4.756863e+002, 8.873058e+000
4.761684e+002, 8.975150e+000
4.766505e+002, 8.925662e+000
4.771327e+002, 8.657450e+000
4.776148e+002, 8.374990e+000
4.780969e+002, 8.366877e+000
4.785790e+002, 8.688459e+000
4.790611e+002, 8.879745e+000
4.795432e+002, 8.827395e+000
4.800254e+002, 8.718126e+000
4.805075e+002, 8.654316e+000
4.809896e+002, 8.634548e+000
4.814717e+002, 8.631777e+000
4.819538e+002, 8.633194e+000
4.824359e+002, 8.633146e+000
4.829181e+002, 8.614559e+000
4.834002e+002, 8.547415e+000
4.838823e+002, 8.506011e+000
4.843644e+002, 8.495442e+000
4.848465e+002, 8.506053e+000
4.853286e+002, 8.543596e+000
4.858108e+002, 8.599255e+000
4.862929e+002, 8.644846e+000
4.867750e+002, 8.654286e+000
4.872571e+002, 8.631802e+000
4.877392e+002, 8.614426e+000
4.882213e+002, 8.599640e+000
4.887035e+002, 8.594843e+000
4.891856e+002, 8.586209e+000
4.896677e+002, 8.594825e+000
4.901498e+002, 8.676423e+000
4.906319e+002, 8.844356e+000
4.911140e+002, 8.956700e+000
4.915962e+002, 8.823557e+000
4.920783e+002, 8.479818e+000
4.925604e+002, 8.216038e+000
4.930425e+002, 8.072538e+000
4.935246e+002, 7.992249e+000
4.940067e+002, 7.947819e+000
4.944889e+002, 7.933356e+000
4.949710e+002, 7.942142e+000
4.954531e+002, 7.993436e+000
4.959352e+002, 8.043415e+000
4.964173e+002, 8.033972e+000
4.968994e+002, 7.988974e+000
4.973816e+002, 8.020071e+000
4.978637e+002, 8.189954e+000
4.983458e+002, 8.364600e+000
4.988279e+002, 8.332610e+000
4.993100e+002, 8.041775e+000
4.997921e+002, 7.802018e+000
5.002743e+002, 7.638677e+000
5.007564e+002, 7.525598e+000
5.012385e+002, 7.450727e+000
5.017206e+002, 7.411757e+000
5.022027e+002, 7.416880e+000
5.026848e+002, 7.474062e+000
5.031670e+002, 7.560989e+000
5.036491e+002, 7.609320e+000
5.041312e+002, 7.577024e+000
5.046133e+002, 7.574590e+000
5.050954e+002, 7.652365e+000
5.055775e+002, 7.721060e+000
5.060597e+002, 7.696829e+000
5.065418e+002, 7.597009e+000
5.070239e+002, 7.517387e+000
5.075060e+002, 7.542027e+000
5.079881e+002, 7.644743e+000
5.084702e+002, 7.703788e+000
5.089524e+002, 7.719256e+000
5.094345e+002, 7.689578e+000
5.099166e+002, 7.531632e+000
5.103987e+002, 7.376688e+000
5.108808e+002, 7.374621e+000
5.113629e+002, 7.549541e+000
5.118451e+002, 7.716992e+000
5.123271e+002, 7.709236e+000
5.128093e+002, 7.589249e+000
5.132914e+002, 7.541220e+000
5.137735e+002, 7.592011e+000
5.142556e+002, 7.663699e+000
5.147377e+002, 7.728048e+000
5.152198e+002, 7.766907e+000
5.157020e+002, 7.727221e+000
5.161841e+002, 7.524682e+000
5.166662e+002, 7.363532e+000
5.171483e+002, 7.379637e+000
5.176304e+002, 7.482751e+000
5.181125e+002, 7.510388e+000
5.185947e+002, 7.424462e+000
5.190768e+002, 7.330859e+000
5.195589e+002, 7.351542e+000
5.200410e+002, 7.504763e+000
5.205231e+002, 7.597177e+000
5.210052e+002, 7.551867e+000
5.214874e+002, 7.542085e+000
5.219695e+002, 7.694102e+000
5.224516e+002, 7.891640e+000
5.229337e+002, 7.945831e+000
5.234158e+002, 7.792584e+000
5.238979e+002, 7.565097e+000
5.243801e+002, 7.473201e+000
5.248622e+002, 7.554388e+000
5.253443e+002, 7.574014e+000
5.258264e+002, 7.459704e+000
5.263085e+002, 7.355036e+000
5.267906e+002, 7.334563e+000
5.272728e+002, 7.365943e+000
5.277549e+002, 7.383279e+000
5.282370e+002, 7.355818e+000
5.287191e+002, 7.313636e+000
5.292012e+002, 7.298948e+000
5.296833e+002, 7.309236e+000
5.301655e+002, 7.304885e+000
5.306476e+002, 7.268519e+000
5.311297e+002, 7.226906e+000
5.316118e+002, 7.219667e+000
5.320939e+002, 7.240463e+000
5.325760e+002, 7.235924e+000
5.330582e+002, 7.163270e+000
5.335403e+002, 7.089047e+000
5.340224e+002, 7.058111e+000
5.345045e+002, 7.067970e+000
5.349866e+002, 7.119239e+000
5.354688e+002, 7.218358e+000
5.359509e+002, 7.319536e+000
5.364330e+002, 7.329965e+000
5.369151e+002, 7.176340e+000
5.373972e+002, 7.108737e+000
5.378793e+002, 7.179902e+000
5.383615e+002, 7.279948e+000
5.388436e+002, 7.379814e+000
5.393257e+002, 7.457161e+000
5.398078e+002, 7.471877e+000
5.402899e+002, 7.396247e+000
5.407720e+002, 7.273977e+000
5.412542e+002, 7.213897e+000
5.417363e+002, 7.245908e+000
5.422184e+002, 7.238575e+000
5.427005e+002, 7.100118e+000
5.431826e+002, 6.979348e+000
5.436647e+002, 6.963140e+000
5.441469e+002, 7.042401e+000
5.446290e+002, 7.165998e+000
5.451111e+002, 7.386933e+000
5.455932e+002, 7.579855e+000
5.460753e+002, 7.483918e+000
5.465574e+002, 7.112549e+000
5.470396e+002, 6.867001e+000
5.475217e+002, 6.951995e+000
5.480038e+002, 7.160398e+000
5.484859e+002, 7.128909e+000
5.489680e+002, 6.826981e+000
5.494501e+002, 6.652024e+000
5.499323e+002, 6.749295e+000
5.504144e+002, 6.939569e+000
5.508965e+002, 7.126392e+000
5.513786e+002, 7.285362e+000
5.518607e+002, 7.379780e+000
5.523428e+002, 7.387558e+000
5.528250e+002, 7.331833e+000
5.533071e+002, 7.265821e+000
5.537892e+002, 7.158408e+000
5.542713e+002, 7.098935e+000
5.547534e+002, 7.102073e+000
5.552355e+002, 7.132669e+000
5.557177e+002, 7.211859e+000
5.561998e+002, 7.302423e+000
5.566819e+002, 7.308538e+000
5.571640e+002, 7.149538e+000
5.576461e+002, 6.923272e+000
5.581282e+002, 6.861567e+000
5.586104e+002, 6.993878e+000
5.590925e+002, 7.099534e+000
5.595746e+002, 7.125230e+000
5.600567e+002, 7.104548e+000
5.605388e+002, 7.058311e+000
5.610209e+002, 6.991522e+000
5.615031e+002, 6.937399e+000
5.619852e+002, 6.907448e+000
5.624673e+002, 6.896914e+000
5.629494e+002, 6.898481e+000
5.634315e+002, 6.914177e+000
5.639136e+002, 6.968125e+000
5.643958e+002, 7.084589e+000
5.648779e+002, 7.197804e+000
5.653600e+002, 7.187139e+000
5.658421e+002, 6.987779e+000
5.663242e+002, 6.846383e+000
5.668063e+002, 6.763961e+000
5.672885e+002, 6.736487e+000
5.677706e+002, 6.806505e+000
5.682527e+002, 6.924621e+000
5.687348e+002, 6.993284e+000
5.692169e+002, 6.964467e+000
5.696990e+002, 6.875391e+000
5.701812e+002, 6.788149e+000
5.706633e+002, 6.692855e+000
5.711454e+002, 6.642157e+000
5.716275e+002, 6.684958e+000
5.721096e+002, 6.727566e+000
5.725917e+002, 6.723870e+000
5.730739e+002, 6.684075e+000
5.735560e+002, 6.627295e+000
5.740381e+002, 6.533953e+000
5.745202e+002, 6.474473e+000
5.750023e+002, 6.570372e+000
5.754844e+002, 6.787305e+000
5.759666e+002, 6.933570e+000
5.764487e+002, 6.961435e+000
5.769308e+002, 6.910385e+000
5.774129e+002, 6.797486e+000
5.778950e+002, 6.621531e+000
5.783771e+002, 6.495685e+000
5.788593e+002, 6.419489e+000
5.793414e+002, 6.396169e+000
5.798235e+002, 6.462507e+000
5.803056e+002, 6.572069e+000
5.807877e+002, 6.660271e+000
5.812698e+002, 6.705350e+000
5.817520e+002, 6.707235e+000
5.822341e+002, 6.654593e+000
5.827162e+002, 6.534869e+000
5.831984e+002, 6.477520e+000
5.836805e+002, 6.499200e+000
5.841626e+002, 6.567746e+000
5.846447e+002, 6.732926e+000
5.851268e+002, 6.911430e+000
5.856089e+002, 6.988928e+000
5.860911e+002, 6.933885e+000
5.865732e+002, 6.854589e+000
5.870553e+002, 6.878081e+000
5.875374e+002, 6.963270e+000
5.880195e+002, 6.919131e+000
5.885016e+002, 6.693901e+000
5.889838e+002, 6.531449e+000
5.894659e+002, 6.639762e+000
5.899480e+002, 6.910298e+000
5.904301e+002, 7.006177e+000
5.909122e+002, 6.835312e+000
5.913943e+002, 6.677889e+000
5.918765e+002, 6.614465e+000
5.923586e+002, 6.609190e+000
5.928407e+002, 6.644722e+000
5.933228e+002, 6.706122e+000
5.938049e+002, 6.743966e+000
5.942870e+002, 6.713830e+000
5.947692e+002, 6.643040e+000
5.952513e+002, 6.669067e+000
5.957334e+002, 6.902297e+000
5.962155e+002, 7.034338e+000
5.966976e+002, 6.959702e+000
5.971797e+002, 6.846642e+000
5.976619e+002, 6.811706e+000
5.981440e+002, 6.847805e+000
5.986261e+002, 6.877792e+000
5.991082e+002, 6.869341e+000
5.995903e+002, 6.813080e+000
6.000724e+002, 6.631308e+000
6.005546e+002, 6.322649e+000
6.010367e+002, 6.201815e+000
6.015188e+002, 6.441547e+000
6.020009e+002, 6.798628e+000
6.024830e+002, 6.986449e+000
6.029651e+002, 7.014676e+000
6.034473e+002, 6.946069e+000
6.039294e+002, 6.638625e+000
6.044115e+002, 6.382015e+000
6.048936e+002, 6.412572e+000
6.053757e+002, 6.617928e+000
6.058578e+002, 6.763778e+000
6.063400e+002, 6.763993e+000
6.068221e+002, 6.700204e+000
6.073042e+002, 6.684962e+000
6.077863e+002, 6.724302e+000
6.082684e+002, 6.773911e+000
6.087505e+002, 6.879144e+000
6.092327e+002, 6.938934e+000
6.097148e+002, 6.882950e+000
6.101969e+002, 6.784316e+000
6.106790e+002, 6.729925e+000
6.111611e+002, 6.743373e+000
6.116432e+002, 6.801745e+000
6.121254e+002, 6.954008e+000
6.126075e+002, 7.134601e+000
6.130896e+002, 7.073430e+000
6.135717e+002, 6.708172e+000
6.140538e+002, 6.448983e+000
6.145359e+002, 6.606150e+000
6.150181e+002, 7.015178e+000
6.155002e+002, 7.179184e+000
6.159823e+002, 6.977941e+000
6.164644e+002, 6.836359e+000
6.169465e+002, 6.897178e+000
6.174286e+002, 7.008915e+000
6.179108e+002, 7.045857e+000
6.183929e+002, 7.009607e+000
6.188750e+002, 6.961975e+000
6.193571e+002, 6.942410e+000
6.198392e+002, 6.932666e+000
6.203214e+002, 6.867440e+000
6.208035e+002, 6.693316e+000
6.212856e+002, 6.629772e+000
6.217677e+002, 6.815802e+000
6.222498e+002, 7.008814e+000
6.227319e+002, 7.067642e+000
6.232141e+002, 7.033194e+000
6.236962e+002, 7.028322e+000
6.241783e+002, 7.134908e+000
6.246604e+002, 7.222658e+000
6.251425e+002, 7.100655e+000
6.256246e+002, 6.848379e+000
6.261068e+002, 6.762901e+000
6.265889e+002, 6.924637e+000
6.270710e+002, 7.114259e+000
6.275531e+002, 7.122493e+000
6.280352e+002, 6.958665e+000
6.285173e+002, 6.837362e+000
6.289995e+002, 6.755560e+000
6.294816e+002, 6.714206e+000
6.299637e+002, 6.737954e+000
6.304458e+002, 6.786825e+000
6.309279e+002, 6.830643e+000
6.314100e+002, 6.860280e+000
6.318922e+002, 6.874487e+000
6.323743e+002, 6.878273e+000
6.328564e+002, 6.861299e+000
6.333385e+002, 6.747841e+000
6.338206e+002, 6.476234e+000
6.343027e+002, 6.371298e+000
6.347849e+002, 6.666256e+000
6.352670e+002, 7.033947e+000
6.357491e+002, 7.147930e+000
6.362312e+002, 7.030075e+000
6.367133e+002, 6.907937e+000
6.371954e+002, 6.840413e+000
6.376776e+002, 6.804573e+000
6.381597e+002, 6.778987e+000
6.386418e+002, 6.770414e+000
6.391239e+002, 6.823817e+000
6.396060e+002, 6.953399e+000
6.400881e+002, 7.047369e+000
6.405703e+002, 6.942953e+000
6.410524e+002, 6.610341e+000
6.415345e+002, 6.431534e+000
6.420166e+002, 6.545848e+000
6.424987e+002, 6.656302e+000
6.429808e+002, 6.739951e+000
6.434630e+002, 6.771430e+000
6.439451e+002, 6.693019e+000
6.444272e+002, 6.509813e+000
6.449093e+002, 6.354873e+000
6.453914e+002, 6.344305e+000
6.458735e+002, 6.436426e+000
6.463557e+002, 6.550888e+000
6.468378e+002, 6.689988e+000
6.473199e+002, 6.773149e+000
6.478020e+002, 6.749506e+000
6.482841e+002, 6.678620e+000
6.487662e+002, 6.659930e+000
6.492484e+002, 6.706918e+000
6.497305e+002, 6.727462e+000
6.502126e+002, 6.703947e+000
6.506947e+002, 6.662706e+000
6.511768e+002, 6.586457e+000
6.516589e+002, 6.511085e+000
6.521411e+002, 6.512360e+000
6.526232e+002, 6.611926e+000
6.531053e+002, 6.729419e+000
6.535874e+002, 6.764082e+000
6.540695e+002, 6.715471e+000
6.545516e+002, 6.622446e+000
6.550338e+002, 6.427984e+000
6.555159e+002, 6.304807e+000
6.559980e+002, 6.382714e+000
6.564801e+002, 6.546166e+000
6.569622e+002, 6.683465e+000
6.574443e+002, 6.784914e+000
6.579265e+002, 6.855366e+000
6.584086e+002, 6.878265e+000
6.588907e+002, 6.883611e+000
6.593728e+002, 6.938157e+000
6.598549e+002, 7.013575e+000
6.603370e+002, 6.954240e+000
6.608192e+002, 6.675213e+000
6.613013e+002, 6.356357e+000
6.617834e+002, 6.336459e+000
6.622655e+002, 6.738002e+000
6.627476e+002, 6.978617e+000
6.632297e+002, 6.892129e+000
6.637119e+002, 6.826711e+000
6.641940e+002, 6.954604e+000
6.646761e+002, 7.137197e+000
6.651582e+002, 7.172586e+000
6.656403e+002, 7.007316e+000
6.661224e+002, 6.795534e+000
6.666046e+002, 6.612173e+000
6.670867e+002, 6.487897e+000
6.675688e+002, 6.547804e+000
6.680509e+002, 6.799658e+000
6.685330e+002, 6.970007e+000
6.690151e+002, 6.893820e+000
6.694973e+002, 6.700866e+000
6.699794e+002, 6.657025e+000
6.704615e+002, 6.849500e+000
6.709436e+002, 6.955020e+000
6.714257e+002, 6.896062e+000
6.719078e+002, 6.823005e+000
6.723900e+002, 6.829628e+000
6.728721e+002, 6.871189e+000
6.733542e+002, 6.852215e+000
6.738363e+002, 6.741141e+000
6.743184e+002, 6.618210e+000
6.748005e+002, 6.596715e+000
6.752827e+002, 6.662017e+000
6.757648e+002, 6.661553e+000
6.762469e+002, 6.575693e+000
6.767290e+002, 6.478253e+000
6.772111e+002, 6.371547e+000
6.776932e+002, 6.296013e+000
6.781754e+002, 6.331354e+000
6.786575e+002, 6.502596e+000
6.791396e+002, 6.644025e+000
6.796217e+002, 6.731570e+000
6.801038e+002, 6.764280e+000
6.805859e+002, 6.707816e+000
6.810681e+002, 6.600084e+000
6.815502e+002, 6.537398e+000
6.820323e+002, 6.555352e+000
6.825144e+002, 6.568593e+000
6.829965e+002, 6.407243e+000
6.834786e+002, 6.045126e+000
6.839608e+002, 5.971342e+000
6.844429e+002, 6.346913e+000
6.849250e+002, 6.721623e+000
6.854071e+002, 6.948758e+000
6.858892e+002, 7.061905e+000
6.863713e+002, 7.061486e+000
6.868535e+002, 6.942114e+000
6.873356e+002, 6.838393e+000
6.878177e+002, 6.849606e+000
6.882998e+002, 6.873782e+000
6.887819e+002, 6.768863e+000
6.892640e+002, 6.581626e+000
6.897462e+002, 6.489007e+000
6.902283e+002, 6.560860e+000
6.907104e+002, 6.691461e+000
6.911925e+002, 6.725307e+000
6.916746e+002, 6.646734e+000
6.921567e+002, 6.616752e+000
6.926389e+002, 6.698797e+000
6.931210e+002, 6.742229e+000
6.936031e+002, 6.671365e+000
6.940852e+002, 6.568495e+000
6.945673e+002, 6.518949e+000
6.950494e+002, 6.531801e+000
6.955316e+002, 6.554440e+000
6.960137e+002, 6.567705e+000
6.964958e+002, 6.566082e+000
6.969779e+002, 6.520925e+000
6.974600e+002, 6.448535e+000
6.979421e+002, 6.442211e+000
6.984243e+002, 6.543877e+000
6.989064e+002, 6.636649e+000
6.993885e+002, 6.551737e+000
6.998706e+002, 6.262362e+000
7.003527e+002, 6.146150e+000
7.008348e+002, 6.393215e+000
7.013170e+002, 6.582553e+000
7.017991e+002, 6.585322e+000
7.022812e+002, 6.535154e+000
7.027633e+002, 6.564138e+000
7.032454e+002, 6.677439e+000
7.037275e+002, 6.781374e+000
7.042097e+002, 6.815651e+000
7.046918e+002, 6.807769e+000
7.051739e+002, 6.805642e+000
7.056560e+002, 6.803074e+000
7.061381e+002, 6.742259e+000
7.066202e+002, 6.592845e+000
7.071024e+002, 6.465528e+000
7.075845e+002, 6.491755e+000
7.080666e+002, 6.667456e+000
7.085487e+002, 6.739445e+000
7.090308e+002, 6.587065e+000
7.095129e+002, 6.496641e+000
7.099951e+002, 6.540246e+000
7.104772e+002, 6.638947e+000
7.109593e+002, 6.760608e+000
7.114414e+002, 6.877970e+000
7.119235e+002, 6.931634e+000
7.124056e+002, 6.874966e+000
7.128878e+002, 6.762163e+000
7.133699e+002, 6.649000e+000
7.138520e+002, 6.544953e+000
7.143341e+002, 6.542124e+000
7.148162e+002, 6.678555e+000
7.152983e+002, 6.809627e+000
7.157805e+002, 6.813702e+000
7.162626e+002, 6.712986e+000
7.167447e+002, 6.634765e+000
7.172268e+002, 6.516379e+000
7.177089e+002, 6.507424e+000
7.181910e+002, 6.736550e+000
7.186732e+002, 6.978853e+000
7.191553e+002, 7.090004e+000
7.196374e+002, 7.076668e+000
7.201195e+002, 6.977664e+000
7.206016e+002, 6.797091e+000
7.210837e+002, 6.631495e+000
7.215659e+002, 6.651701e+000
7.220480e+002, 6.814128e+000
7.225301e+002, 6.847559e+000
7.230122e+002, 6.697149e+000
7.234943e+002, 6.605571e+000
7.239764e+002, 6.759326e+000
7.244586e+002, 7.036582e+000
7.249407e+002, 7.112680e+000
7.254228e+002, 6.861955e+000
7.259049e+002, 6.725358e+000
7.263870e+002, 6.836591e+000
7.268691e+002, 6.956222e+000
7.273513e+002, 6.907664e+000
7.278334e+002, 6.790563e+000
7.283155e+002, 6.809706e+000
7.287976e+002, 7.026135e+000
7.292797e+002, 7.255924e+000
7.297618e+002, 7.296097e+000
7.302440e+002, 7.190515e+000
7.307261e+002, 7.092264e+000
7.312082e+002, 7.005133e+000
7.316903e+002, 6.915995e+000
7.321724e+002, 6.811611e+000
7.326545e+002, 6.717332e+000
7.331367e+002, 6.671758e+000
7.336188e+002, 6.683408e+000
7.341009e+002, 6.703852e+000
7.345830e+002, 6.748911e+000
7.350651e+002, 6.783908e+000
7.355472e+002, 6.772910e+000
7.360294e+002, 6.759278e+000
7.365115e+002, 6.807706e+000
7.369936e+002, 6.916242e+000
7.374757e+002, 7.012957e+000
7.379578e+002, 7.055052e+000
7.384399e+002, 7.040009e+000
7.389221e+002, 6.911937e+000
7.394042e+002, 6.686030e+000
7.398863e+002, 6.618066e+000
7.403684e+002, 6.805618e+000
7.408505e+002, 7.029459e+000
7.413326e+002, 7.078038e+000
7.418148e+002, 6.970007e+000
7.422969e+002, 6.920940e+000
7.427790e+002, 6.957823e+000
7.432611e+002, 7.011300e+000
7.437432e+002, 7.156270e+000
7.442253e+002, 7.245855e+000
7.447075e+002, 7.103827e+000
7.451896e+002, 6.813512e+000
7.456717e+002, 6.609589e+000
7.461538e+002, 6.604671e+000
7.466359e+002, 6.716962e+000
7.471180e+002, 6.914666e+000
7.476002e+002, 7.150377e+000
7.480823e+002, 7.232142e+000
7.485644e+002, 7.133002e+000
7.490465e+002, 7.014695e+000
7.495286e+002, 6.970849e+000
7.500107e+002, 6.971151e+000
7.504929e+002, 6.941814e+000
7.509750e+002, 6.855963e+000
7.514571e+002, 6.807455e+000
7.519392e+002, 6.812298e+000
7.524213e+002, 6.833380e+000
7.529034e+002, 6.862763e+000
7.533856e+002, 6.896430e+000
7.538677e+002, 6.928487e+000
7.543498e+002, 6.958149e+000
7.548319e+002, 6.995870e+000
7.553140e+002, 7.078056e+000
7.557961e+002, 7.158377e+000
7.562783e+002, 7.147892e+000
7.567604e+002, 7.058894e+000
7.572425e+002, 6.957007e+000
7.577246e+002, 6.860327e+000
7.582067e+002, 6.799652e+000
7.586888e+002, 6.817478e+000
7.591710e+002, 6.913265e+000
7.596531e+002, 6.999669e+000
7.601352e+002, 7.093245e+000
7.606173e+002, 7.150395e+000
7.610994e+002, 7.131935e+000
7.615815e+002, 7.104895e+000
7.620637e+002, 7.118402e+000
7.625458e+002, 7.167503e+000
7.630279e+002, 7.227987e+000
7.635100e+002, 7.323609e+000
7.639921e+002, 7.365428e+000
7.644742e+002, 7.189708e+000
7.649564e+002, 6.940801e+000
7.654385e+002, 6.918239e+000
7.659206e+002, 7.132785e+000
7.664027e+002, 7.365454e+000
7.668848e+002, 7.483473e+000
7.673669e+002, 7.501328e+000
7.678491e+002, 7.425026e+000
7.683312e+002, 7.191047e+000
7.688133e+002, 7.109262e+000
7.692954e+002, 7.298164e+000
7.697775e+002, 7.481711e+000
7.702596e+002, 7.566340e+000
7.707418e+002, 7.563428e+000
7.712239e+002, 7.452461e+000
7.717060e+002, 7.215468e+000
7.721881e+002, 7.045045e+000
7.726702e+002, 7.061482e+000
7.731523e+002, 7.129698e+000
7.736345e+002, 7.146798e+000
7.741166e+002, 7.130007e+000
7.745987e+002, 7.137105e+000
7.750808e+002, 7.178533e+000
7.755629e+002, 7.185987e+000
7.760450e+002, 7.064647e+000
7.765272e+002, 6.866300e+000
7.770093e+002, 6.875560e+000
7.774914e+002, 7.151338e+000
7.779735e+002, 7.300463e+000
7.784556e+002, 7.144908e+000
7.789377e+002, 6.975282e+000
7.794199e+002, 7.097651e+000
7.799020e+002, 7.438964e+000
7.803841e+002, 7.634493e+000
7.808662e+002, 7.580880e+000
7.813483e+002, 7.514727e+000
7.818304e+002, 7.509780e+000
7.823126e+002, 7.499090e+000
7.827947e+002, 7.395035e+000
7.832768e+002, 7.239931e+000
7.837589e+002, 7.147666e+000
7.842410e+002, 7.169547e+000
7.847231e+002, 7.256731e+000
7.852053e+002, 7.393677e+000
7.856874e+002, 7.548323e+000
7.861695e+002, 7.577442e+000
7.866516e+002, 7.469108e+000
7.871337e+002, 7.335915e+000
7.876158e+002, 7.212052e+000
7.880980e+002, 7.124239e+000
7.885801e+002, 7.116030e+000
7.890622e+002, 7.195954e+000
7.895443e+002, 7.302290e+000
7.900264e+002, 7.519638e+000
7.905085e+002, 7.653859e+000
7.909907e+002, 7.624520e+000
7.914728e+002, 7.521586e+000
7.919549e+002, 7.386771e+000
7.924370e+002, 7.250974e+000
7.929191e+002, 7.194853e+000
7.934012e+002, 7.283896e+000
7.938834e+002, 7.429501e+000
7.943655e+002, 7.558786e+000
7.948476e+002, 7.676255e+000
7.953297e+002, 7.824744e+000
7.958118e+002, 7.994298e+000
7.962939e+002, 8.034040e+000
7.967761e+002, 7.826928e+000
7.972582e+002, 7.506205e+000
7.977403e+002, 7.418722e+000
7.982224e+002, 7.651526e+000
7.987045e+002, 7.737394e+000
7.991866e+002, 7.568447e+000
7.996688e+002, 7.406786e+000
8.001509e+002, 7.390841e+000
8.006330e+002, 7.437967e+000
8.011151e+002, 7.453657e+000
8.015972e+002, 7.430596e+000
8.020793e+002, 7.401606e+000
8.025615e+002, 7.378663e+000
8.030436e+002, 7.349607e+000
8.035257e+002, 7.274282e+000
8.040078e+002, 7.202808e+000
8.044899e+002, 7.243683e+000
8.049720e+002, 7.390269e+000
8.054542e+002, 7.487309e+000
8.059363e+002, 7.394502e+000
8.064184e+002, 7.206841e+000
8.069005e+002, 7.134923e+000
8.073826e+002, 7.174816e+000
8.078647e+002, 7.246009e+000
8.083469e+002, 7.344691e+000
8.088290e+002, 7.433665e+000
8.093111e+002, 7.497376e+000
8.097932e+002, 7.525074e+000
8.102753e+002, 7.476235e+000
8.107574e+002, 7.246699e+000
8.112396e+002, 7.155674e+000
8.117217e+002, 7.335228e+000
8.122038e+002, 7.501919e+000
8.126859e+002, 7.501664e+000
8.131680e+002, 7.432505e+000
8.136501e+002, 7.451846e+000
8.141323e+002, 7.583401e+000
8.146144e+002, 7.674073e+000
8.150965e+002, 7.575385e+000
8.155786e+002, 7.429060e+000
8.160607e+002, 7.385202e+000
8.165428e+002, 7.429533e+000
8.170250e+002, 7.545549e+000
8.175071e+002, 7.719874e+000
8.179892e+002, 7.872818e+000
8.184713e+002, 7.942806e+000
8.189534e+002, 7.929777e+000
8.194355e+002, 7.794870e+000
8.199177e+002, 7.467607e+000
8.203998e+002, 7.366967e+000
8.208819e+002, 7.700104e+000
8.213640e+002, 7.992238e+000
8.218461e+002, 7.895594e+000
8.223282e+002, 7.583172e+000
8.228104e+002, 7.393171e+000
8.232925e+002, 7.352197e+000
8.237746e+002, 7.357339e+000
8.242567e+002, 7.427208e+000
8.247388e+002, 7.497201e+000
8.252209e+002, 7.527518e+000
8.257031e+002, 7.535782e+000
8.261852e+002, 7.546775e+000
8.266673e+002, 7.566926e+000
8.271494e+002, 7.595670e+000
8.276315e+002, 7.653836e+000
8.281136e+002, 7.696179e+000
8.285958e+002, 7.601737e+000
8.290779e+002, 7.411796e+000
8.295600e+002, 7.353813e+000
8.300421e+002, 7.475622e+000
8.305242e+002, 7.582342e+000
8.310063e+002, 7.520818e+000
8.314885e+002, 7.356699e+000
8.319706e+002, 7.293696e+000
8.324527e+002, 7.362548e+000
8.329348e+002, 7.452674e+000
8.334169e+002, 7.609198e+000
8.338990e+002, 7.727433e+000
8.343812e+002, 7.754907e+000
8.348633e+002, 7.730530e+000
8.353454e+002, 7.681915e+000
8.358275e+002, 7.610343e+000
8.363096e+002, 7.602118e+000
8.367917e+002, 7.811856e+000
8.372739e+002, 7.957902e+000
8.377560e+002, 7.737521e+000
8.382381e+002, 7.407884e+000
8.387202e+002, 7.394504e+000
8.392023e+002, 7.695394e+000
8.396844e+002, 7.920131e+000
8.401666e+002, 7.782214e+000
8.406487e+002, 7.511736e+000
8.411308e+002, 7.545288e+000
8.416129e+002, 7.830023e+000
8.420950e+002, 7.998909e+000
8.425771e+002, 8.011077e+000
8.430593e+002, 7.924817e+000
8.435414e+002, 7.738633e+000
8.440235e+002, 7.541986e+000
8.445056e+002, 7.515326e+000
8.449877e+002, 7.715424e+000
8.454698e+002, 7.797985e+000
8.459520e+002, 7.666586e+000
8.464341e+002, 7.543011e+000
8.469162e+002, 7.438220e+000
8.473983e+002, 7.391311e+000
8.478804e+002, 7.475078e+000
8.483625e+002, 7.660411e+000
8.488447e+002, 7.788980e+000
8.493268e+002, 7.775156e+000
8.498089e+002, 7.749708e+000
8.502910e+002, 7.799013e+000
8.507731e+002, 7.867437e+000
8.512552e+002, 7.875279e+000
8.517374e+002, 7.839583e+000
8.522195e+002, 7.852018e+000
8.527016e+002, 7.954792e+000
8.531837e+002, 8.048718e+000
8.536658e+002, 7.967575e+000
8.541479e+002, 7.761220e+000
8.546301e+002, 7.688054e+000
8.551122e+002, 7.754976e+000
8.555943e+002, 7.775183e+000
8.560764e+002, 7.673589e+000
8.565585e+002, 7.550813e+000
8.570406e+002, 7.514672e+000
8.575228e+002, 7.558167e+000
8.580049e+002, 7.601657e+000
8.584870e+002, 7.682714e+000
8.589691e+002, 7.698257e+000
8.594512e+002, 7.567431e+000
8.599333e+002, 7.444787e+000
8.604155e+002, 7.393951e+000
8.608976e+002, 7.413685e+000
8.613797e+002, 7.522202e+000
8.618618e+002, 7.751892e+000
8.623439e+002, 7.892539e+000
8.628260e+002, 7.772983e+000
8.633082e+002, 7.610441e+000
8.637903e+002, 7.580474e+000
8.642724e+002, 7.629105e+000
8.647545e+002, 7.645719e+000
8.652366e+002, 7.610352e+000
8.657188e+002, 7.592574e+000
8.662009e+002, 7.671762e+000
8.666830e+002, 7.755437e+000
8.671651e+002, 7.613357e+000
8.676472e+002, 7.293899e+000
8.681293e+002, 7.094906e+000
8.686115e+002, 7.060704e+000
8.690936e+002, 7.149334e+000
8.695757e+002, 7.357863e+000
8.700578e+002, 7.619196e+000
8.705399e+002, 7.803750e+000
8.710220e+002, 7.914425e+000
8.715042e+002, 7.926245e+000
8.719863e+002, 7.793231e+000
8.724684e+002, 7.635649e+000
8.729505e+002, 7.446783e+000
8.734326e+002, 7.280881e+000
8.739147e+002, 7.207697e+000
8.743969e+002, 7.210922e+000
8.748790e+002, 7.180661e+000
8.753611e+002, 7.057813e+000
8.758432e+002, 6.953184e+000
8.763253e+002, 6.911355e+000
8.768074e+002, 6.898560e+000
8.772896e+002, 6.876548e+000
8.777717e+002, 6.859923e+000
8.782538e+002, 6.905041e+000
8.787359e+002, 7.031200e+000
8.792180e+002, 7.138653e+000
8.797001e+002, 7.109633e+000
8.801823e+002, 7.012645e+000
8.806644e+002, 6.976388e+000
8.811465e+002, 6.989047e+000
8.816286e+002, 6.976609e+000
8.821107e+002, 6.921704e+000
8.825928e+002, 6.914811e+000
8.830750e+002, 7.051569e+000
8.835571e+002, 7.264486e+000
8.840392e+002, 7.308844e+000
8.845213e+002, 7.152542e+000
8.850034e+002, 7.006357e+000
8.854855e+002, 6.869948e+000
8.859677e+002, 6.786618e+000
8.864498e+002, 6.783731e+000
8.869319e+002, 6.843953e+000
8.874140e+002, 6.961631e+000
8.878961e+002, 7.159670e+000
8.883782e+002, 7.259551e+000
8.888604e+002, 7.222763e+000
8.893425e+002, 7.130784e+000
8.898246e+002, 6.966250e+000
8.903067e+002, 6.787104e+000
8.907888e+002, 6.613970e+000
8.912709e+002, 6.470581e+000
8.917531e+002, 6.421300e+000
8.922352e+002, 6.519978e+000
8.927173e+002, 6.611642e+000
8.931994e+002, 6.561049e+000
8.936815e+002, 6.467940e+000
8.941636e+002, 6.471079e+000
8.946458e+002, 6.530941e+000
8.951279e+002, 6.502879e+000
8.956100e+002, 6.350951e+000
8.960921e+002, 6.212436e+000
8.965742e+002, 6.221710e+000
8.970563e+002, 6.338797e+000
8.975385e+002, 6.492549e+000
8.980206e+002, 6.673335e+000
8.985027e+002, 6.748884e+000
8.989848e+002, 6.692513e+000
8.994669e+002, 6.557602e+000
8.999490e+002, 6.354558e+000
9.004312e+002, 6.141530e+000
9.009133e+002, 6.056193e+000
9.013954e+002, 6.127818e+000
9.018775e+002, 6.195215e+000
9.023596e+002, 6.273724e+000
9.028417e+002, 6.322196e+000
9.033239e+002, 6.318845e+000
9.038060e+002, 6.287149e+000
9.042881e+002, 6.229584e+000
9.047702e+002, 6.156726e+000
9.052523e+002, 6.135491e+000
9.057344e+002, 6.241765e+000
9.062166e+002, 6.299575e+000
9.066987e+002, 6.192097e+000
9.071808e+002, 6.093013e+000
9.076629e+002, 6.174991e+000
9.081450e+002, 6.341794e+000
9.086271e+002, 6.394097e+000
9.091093e+002, 6.283556e+000
9.095914e+002, 6.161662e+000
9.100735e+002, 6.148348e+000
9.105556e+002, 6.163054e+000
9.110377e+002, 6.119865e+000
9.115198e+002, 6.035545e+000
9.120020e+002, 5.913814e+000
9.124841e+002, 5.778095e+000
9.129662e+002, 5.739703e+000
9.134483e+002, 5.877516e+000
9.139304e+002, 6.087923e+000
9.144125e+002, 6.201123e+000
9.148947e+002, 6.226216e+000
9.153768e+002, 6.227787e+000
9.158589e+002, 6.206320e+000
9.163410e+002, 6.218656e+000
9.168231e+002, 6.299118e+000
9.173052e+002, 6.358091e+000
9.177874e+002, 6.268362e+000
9.182695e+002, 6.062205e+000
9.187516e+002, 6.079935e+000
9.192337e+002, 6.502873e+000
9.197158e+002, 6.709802e+000
9.201979e+002, 6.523335e+000
9.206801e+002, 6.264036e+000
9.211622e+002, 6.055276e+000
9.216443e+002, 5.907164e+000
9.221264e+002, 5.843302e+000
9.226085e+002, 5.868732e+000
9.230906e+002, 5.946074e+000
9.235728e+002, 6.181583e+000
9.240549e+002, 6.329319e+000
9.245370e+002, 6.238038e+000
9.250191e+002, 6.062520e+000
9.255012e+002, 5.898310e+000
9.259833e+002, 5.787304e+000
9.264655e+002, 5.820557e+000
9.269476e+002, 6.087396e+000
9.274297e+002, 6.270601e+000
9.279118e+002, 6.044759e+000
9.283939e+002, 5.704172e+000
9.288760e+002, 5.543664e+000
9.293582e+002, 5.548968e+000
9.298403e+002, 5.690496e+000
9.303224e+002, 5.928809e+000
9.308045e+002, 6.093040e+000
9.312866e+002, 6.022423e+000
9.317687e+002, 5.844068e+000
9.322509e+002, 5.777814e+000
9.327330e+002, 5.813176e+000
9.332151e+002, 5.937772e+000
9.336972e+002, 6.142067e+000
9.341793e+002, 6.278810e+000
9.346614e+002, 6.273381e+000
9.351436e+002, 6.171917e+000
9.356257e+002, 6.015169e+000
9.361078e+002, 5.813106e+000
9.365899e+002, 5.812925e+000
9.370720e+002, 6.096827e+000
9.375541e+002, 6.234281e+000
9.380363e+002, 6.071687e+000
9.385184e+002, 5.884252e+000
9.390005e+002, 5.896585e+000
9.394826e+002, 6.020126e+000
9.399647e+002, 5.987576e+000
9.404468e+002, 5.666723e+000
9.409290e+002, 5.553033e+000
9.414111e+002, 5.818242e+000
9.418932e+002, 6.064535e+000
9.423753e+002, 6.233451e+000
9.428574e+002, 6.293715e+000
9.433395e+002, 6.142848e+000
9.438217e+002, 5.841845e+000
9.443038e+002, 5.679288e+000
9.447859e+002, 5.784703e+000
9.452680e+002, 5.908083e+000
9.457501e+002, 6.051844e+000
9.462322e+002, 6.092629e+000
9.467144e+002, 5.803562e+000
9.471965e+002, 5.401191e+000
9.476786e+002, 5.273877e+000
9.481607e+002, 5.478894e+000
9.486428e+002, 5.693136e+000
9.491249e+002, 5.705099e+000
9.496071e+002, 5.643776e+000
9.500892e+002, 5.644618e+000
9.505713e+002, 5.659828e+000
9.510534e+002, 5.554036e+000
9.515355e+002, 5.372939e+000
9.520176e+002, 5.363090e+000
9.524998e+002, 5.631101e+000
9.529819e+002, 5.941420e+000
9.534640e+002, 6.014480e+000
9.539461e+002, 5.912575e+000
9.544282e+002, 5.771637e+000
9.549103e+002, 5.613939e+000
9.553925e+002, 5.646213e+000
9.558746e+002, 5.912640e+000
9.563567e+002, 6.209912e+000
9.568388e+002, 6.411235e+000
9.573209e+002, 6.500864e+000
9.578030e+002, 6.397560e+000
9.582852e+002, 6.066867e+000
9.587673e+002, 5.965945e+000
9.592494e+002, 6.154266e+000
9.597315e+002, 6.338165e+000
9.602136e+002, 6.424177e+000
9.606957e+002, 6.486405e+000
9.611779e+002, 6.603168e+000
9.616600e+002, 6.756315e+000
9.621421e+002, 6.840186e+000
9.626242e+002, 6.758982e+000
9.631063e+002, 6.800398e+000
9.635884e+002, 7.075114e+000
9.640706e+002, 7.336234e+000
9.645527e+002, 7.534497e+000
9.650348e+002, 7.645534e+000
9.655169e+002, 7.603181e+000
9.659990e+002, 7.421000e+000
9.664811e+002, 7.294368e+000
9.669633e+002, 7.253995e+000
9.674454e+002, 7.266359e+000
9.679275e+002, 7.451731e+000
9.684096e+002, 7.561336e+000
9.688917e+002, 7.328375e+000
9.693738e+002, 6.944810e+000
9.698560e+002, 6.775723e+000
9.703381e+002, 6.882160e+000
9.708202e+002, 6.904838e+000
9.713023e+002, 6.592091e+000
9.717844e+002, 6.232303e+000
9.722665e+002, 5.955473e+000
9.727487e+002, 5.780886e+000
9.732308e+002, 5.796920e+000
9.737129e+002, 5.930161e+000
9.741950e+002, 5.961511e+000
9.746771e+002, 5.807155e+000
9.751592e+002, 5.672099e+000
9.756414e+002, 5.820934e+000
9.761235e+002, 6.038398e+000
9.766056e+002, 5.992324e+000
9.770877e+002, 5.774345e+000
9.775698e+002, 5.572285e+000
9.780519e+002, 5.438453e+000
9.785341e+002, 5.441905e+000
9.790162e+002, 5.635713e+000
9.794983e+002, 5.846280e+000
9.799804e+002, 5.760224e+000
9.804625e+002, 5.479355e+000
9.809446e+002, 5.424116e+000
9.814268e+002, 5.578221e+000
9.819089e+002, 5.710945e+000
9.823910e+002, 5.761835e+000
9.828731e+002, 5.701353e+000
9.833552e+002, 5.482664e+000
9.838373e+002, 5.206605e+000
9.843195e+002, 5.152861e+000
9.848016e+002, 5.335047e+000
9.852837e+002, 5.419680e+000
9.857658e+002, 5.371318e+000
9.862479e+002, 5.383204e+000
9.867300e+002, 5.552751e+000
9.872122e+002, 5.712762e+000
9.876943e+002, 5.678147e+000
9.881764e+002, 5.494555e+000
9.886585e+002, 5.412123e+000
9.891406e+002, 5.454453e+000
9.896227e+002, 5.535240e+000
9.901049e+002, 5.696355e+000
9.905870e+002, 5.814570e+000
9.910691e+002, 5.843051e+000
9.915512e+002, 5.800284e+000
9.920333e+002, 5.678452e+000
9.925154e+002, 5.482787e+000
9.929976e+002, 5.370618e+000
9.934797e+002, 5.407786e+000
9.939618e+002, 5.427690e+000
9.944439e+002, 5.447571e+000
9.949260e+002, 5.420182e+000
9.954081e+002, 5.251203e+000
9.958903e+002, 5.061247e+000
9.963724e+002, 5.020618e+000
9.968545e+002, 5.138391e+000
9.973366e+002, 5.274534e+000
9.978187e+002, 5.431218e+000
9.983008e+002, 5.563617e+000
9.987830e+002, 5.681726e+000
9.992651e+002, 5.749990e+000
9.997472e+002, 5.733062e+000
1.000229e+003, 5.651888e+000
1.000711e+003, 5.514320e+000
1.001194e+003, 5.327004e+000
1.001676e+003, 5.224420e+000
1.002158e+003, 5.316249e+000
1.002640e+003, 5.447893e+000
1.003122e+003, 5.592119e+000
1.003604e+003, 5.682554e+000
1.004086e+003, 5.591421e+000
1.004568e+003, 5.400846e+000
1.005050e+003, 5.315399e+000
1.005533e+003, 5.398110e+000
1.006015e+003, 5.521229e+000
1.006497e+003, 5.664456e+000
1.006979e+003, 5.740295e+000
1.007461e+003, 5.585984e+000
1.007943e+003, 5.349210e+000
1.008425e+003, 5.270402e+000
1.008907e+003, 5.338737e+000
1.009390e+003, 5.384384e+000
1.009872e+003, 5.335886e+000
1.010354e+003, 5.353194e+000
1.010836e+003, 5.777296e+000
1.011318e+003, 6.242826e+000
1.011800e+003, 6.009216e+000
1.012282e+003, 5.367018e+000
1.012764e+003, 5.012664e+000
1.013246e+003, 5.044135e+000
1.013729e+003, 5.297854e+000
1.014211e+003, 5.696360e+000
1.014693e+003, 6.035903e+000
1.015175e+003, 5.984817e+000
1.015657e+003, 5.682335e+000
1.016139e+003, 5.525149e+000
1.016621e+003, 5.493597e+000
1.017103e+003, 5.479385e+000
1.017586e+003, 5.464137e+000
1.018068e+003, 5.527702e+000
1.018550e+003, 5.728707e+000
1.019032e+003, 5.943710e+000
1.019514e+003, 5.936414e+000
1.019996e+003, 5.746140e+000
1.020478e+003, 5.653059e+000
1.020960e+003, 5.655202e+000
1.021442e+003, 5.712082e+000
1.021925e+003, 5.821332e+000
1.022407e+003, 5.849653e+000
1.022889e+003, 5.684117e+000
1.023371e+003, 5.457427e+000
1.023853e+003, 5.467149e+000
1.024335e+003, 5.716655e+000
1.024817e+003, 5.791359e+000
1.025299e+003, 5.665161e+000
1.025781e+003, 5.562781e+000
1.026264e+003, 5.540641e+000
1.026746e+003, 5.546212e+000
1.027228e+003, 5.549651e+000
1.027710e+003, 5.536226e+000
1.028192e+003, 5.445405e+000
1.028674e+003, 5.242594e+000
1.029156e+003, 5.278486e+000
1.029638e+003, 5.665703e+000
1.030120e+003, 5.904775e+000
1.030603e+003, 5.836776e+000
1.031085e+003, 5.654089e+000
1.031567e+003, 5.460619e+000
1.032049e+003, 5.301153e+000
1.032531e+003, 5.306931e+000
1.033013e+003, 5.525825e+000
1.033495e+003, 5.696870e+000
1.033977e+003, 5.818412e+000
1.034460e+003, 5.895538e+000
1.034942e+003, 5.927364e+000
1.035424e+003, 5.917056e+000
1.035906e+003, 5.850937e+000
1.036388e+003, 5.749817e+000
1.036870e+003, 5.667266e+000
1.037352e+003, 5.586581e+000
1.037834e+003, 5.585326e+000
1.038317e+003, 5.729895e+000
1.038799e+003, 5.852372e+000
1.039281e+003, 5.920046e+000
1.039763e+003, 5.947390e+000
1.040245e+003, 5.932364e+000
1.040727e+003, 5.887157e+000
1.041209e+003, 5.845246e+000
1.041691e+003, 5.806423e+000
1.042173e+003, 5.772026e+000
1.042656e+003, 5.756103e+000
1.043138e+003, 5.725237e+000
1.043620e+003, 5.615061e+000
1.044102e+003, 5.538606e+000
1.044584e+003, 5.600771e+000
1.045066e+003, 5.759495e+000
1.045548e+003, 5.926923e+000
1.046030e+003, 6.141652e+000
1.046512e+003, 6.185590e+000
1.046995e+003, 5.784118e+000
1.047477e+003, 5.542058e+000
1.047959e+003, 5.875222e+000
1.048441e+003, 6.218532e+000
1.048923e+003, 6.024475e+000
1.049405e+003, 5.511821e+000
1.049887e+003, 5.238078e+000
1.050369e+003, 5.297912e+000
1.050852e+003, 5.446090e+000
1.051334e+003, 5.818731e+000
1.051816e+003, 6.033158e+000
1.052298e+003, 5.809744e+000
1.052780e+003, 5.511440e+000
1.053262e+003, 5.419695e+000
1.053744e+003, 5.489322e+000
1.054226e+003, 5.600072e+000
1.054708e+003, 5.750731e+000
1.055191e+003, 5.792093e+000
1.055673e+003, 5.587555e+000
1.056155e+003, 5.392668e+000
1.056637e+003, 5.301284e+000
1.057119e+003, 5.264403e+000
1.057601e+003, 5.258798e+000
1.058083e+003, 5.268256e+000
1.058565e+003, 5.275835e+000
1.059047e+003, 5.279955e+000
1.059530e+003, 5.251002e+000
1.060012e+003, 5.127551e+000
1.060494e+003, 5.036265e+000
1.060976e+003, 5.030134e+000
1.061458e+003, 5.079062e+000
1.061940e+003, 5.209308e+000
1.062422e+003, 5.356557e+000
1.062904e+003, 5.385111e+000
1.063387e+003, 5.270739e+000
1.063869e+003, 5.206531e+000
1.064351e+003, 5.318576e+000
1.064833e+003, 5.425073e+000
1.065315e+003, 5.490518e+000
1.065797e+003, 5.474576e+000
1.066279e+003, 5.260931e+000
1.066761e+003, 4.976902e+000
1.067244e+003, 4.847552e+000
1.067726e+003, 4.908417e+000
1.068208e+003, 5.014978e+000
1.068690e+003, 5.163275e+000
1.069172e+003, 5.272247e+000
1.069654e+003, 5.313051e+000
1.070136e+003, 5.291717e+000
1.070618e+003, 5.151340e+000
1.071100e+003, 4.981258e+000
1.071583e+003, 4.952497e+000
1.072065e+003, 5.068914e+000
1.072547e+003, 5.111484e+000
1.073029e+003, 4.887080e+000
1.073511e+003, 4.754642e+000
1.073993e+003, 5.039697e+000
1.074475e+003, 5.326448e+000
1.074957e+003, 5.219371e+000
1.075439e+003, 4.943396e+000
1.075922e+003, 4.861520e+000
1.076404e+003, 4.995341e+000
1.076886e+003, 5.105385e+000
1.077368e+003, 5.104857e+000
1.077850e+003, 5.062325e+000
1.078332e+003, 4.968544e+000
1.078814e+003, 4.887809e+000
1.079297e+003, 4.877934e+000
1.079779e+003, 4.902837e+000
1.080261e+003, 4.924140e+000
1.080743e+003, 4.931267e+000
1.081225e+003, 4.904739e+000
1.081707e+003, 4.813573e+000
1.082189e+003, 4.771551e+000
1.082671e+003, 4.882444e+000
1.083153e+003, 5.001355e+000
1.083635e+003, 5.017435e+000
1.084118e+003, 5.001368e+000
1.084600e+003, 5.078567e+000
1.085082e+003, 5.202698e+000
1.085564e+003, 5.166156e+000
1.086046e+003, 4.859435e+000
1.086528e+003, 4.675613e+000
1.087010e+003, 4.919219e+000
1.087492e+003, 5.165179e+000
1.087975e+003, 5.166357e+000
1.088457e+003, 5.061777e+000
1.088939e+003, 4.968452e+000
1.089421e+003, 4.903733e+000
1.089903e+003, 4.875606e+000
1.090385e+003, 4.890768e+000
1.090867e+003, 4.875159e+000
1.091349e+003, 4.727698e+000
1.091832e+003, 4.637192e+000
1.092314e+003, 4.772323e+000
1.092796e+003, 4.926275e+000
1.093278e+003, 4.887560e+000
1.093760e+003, 4.747146e+000
1.094242e+003, 4.691388e+000
1.094724e+003, 4.752329e+000
1.095206e+003, 4.864279e+000
1.095688e+003, 5.134861e+000
1.096171e+003, 5.274654e+000
1.096653e+003, 5.061630e+000
1.097135e+003, 4.809215e+000
1.097617e+003, 4.735213e+000
1.098099e+003, 4.761503e+000
1.098581e+003, 4.742811e+000
1.099063e+003, 4.672946e+000
1.099545e+003, 4.674891e+000
1.100027e+003, 4.880516e+000
1.100510e+003, 4.987461e+000
1.100992e+003, 4.796967e+000
1.101474e+003, 4.628685e+000
1.101956e+003, 4.703449e+000
1.102438e+003, 4.860687e+000
1.102920e+003, 4.915494e+000
1.103402e+003, 4.870719e+000
1.103884e+003, 4.815020e+000
1.104367e+003, 4.735802e+000
1.104849e+003, 4.712468e+000
1.105331e+003, 4.798459e+000
1.105813e+003, 4.892704e+000
1.106295e+003, 5.003240e+000
1.106777e+003, 5.065399e+000
1.107259e+003, 4.962846e+000
1.107741e+003, 4.771890e+000
1.108224e+003, 4.732850e+000
1.108706e+003, 4.931482e+000
1.109188e+003, 5.010724e+000
1.109670e+003, 4.807794e+000
1.110152e+003, 4.665948e+000
1.110634e+003, 4.721676e+000
1.111116e+003, 4.804150e+000
1.111598e+003, 4.806348e+000
1.112080e+003, 4.754813e+000
1.112563e+003, 4.686069e+000
1.113045e+003, 4.590818e+000
1.113527e+003, 4.572724e+000
1.114009e+003, 4.677730e+000
1.114491e+003, 4.787135e+000
1.114973e+003, 4.944181e+000
1.115455e+003, 5.028917e+000
1.115937e+003, 4.927241e+000
1.116419e+003, 4.773152e+000
1.116902e+003, 4.760591e+000
1.117384e+003, 4.870347e+000
1.117866e+003, 4.859659e+000
1.118348e+003, 4.617853e+000
1.118830e+003, 4.521373e+000
1.119312e+003, 4.666703e+000
1.119794e+003, 4.787767e+000
1.120276e+003, 4.773883e+000
1.120759e+003, 4.727215e+000
1.121241e+003, 4.739537e+000
1.121723e+003, 4.798966e+000
1.122205e+003, 4.871546e+000
1.122687e+003, 4.978625e+000
1.123169e+003, 4.993403e+000
1.123651e+003, 4.887881e+000
1.124133e+003, 4.768212e+000
1.124615e+003, 4.623281e+000
1.125098e+003, 4.593384e+000
1.125580e+003, 4.817182e+000
1.126062e+003, 5.135400e+000
1.126544e+003, 5.233072e+000
1.127026e+003, 5.114343e+000
1.127508e+003, 4.978767e+000
1.127990e+003, 4.818593e+000
1.128472e+003, 4.705157e+000
1.128954e+003, 4.647410e+000
1.129437e+003, 4.669096e+000
1.129919e+003, 4.801265e+000
1.130401e+003, 4.910996e+000
1.130883e+003, 4.823144e+000
1.131365e+003, 4.588400e+000
1.131847e+003, 4.381269e+000
1.132329e+003, 4.206366e+000
1.132811e+003, 4.181573e+000
1.133294e+003, 4.312792e+000
1.133776e+003, 4.521247e+000
1.134258e+003, 4.781292e+000
1.134740e+003, 4.936667e+000
1.135222e+003, 4.840156e+000
1.135704e+003, 4.627540e+000
1.136186e+003, 4.549147e+000
1.136668e+003, 4.586222e+000
1.137151e+003, 4.708322e+000
1.137633e+003, 4.881058e+000
1.138115e+003, 4.939695e+000
1.138597e+003, 4.860420e+000
1.139079e+003, 4.737309e+000
1.139561e+003, 4.620875e+000
1.140043e+003, 4.538584e+000
1.140525e+003, 4.504319e+000
1.141007e+003, 4.540906e+000
1.141490e+003, 4.764889e+000
1.141972e+003, 5.066403e+000
1.142454e+003, 5.199748e+000
1.142936e+003, 5.163816e+000
1.143418e+003, 5.038327e+000
1.143900e+003, 4.868033e+000
1.144382e+003, 4.780930e+000
1.144864e+003, 4.930601e+000
1.145346e+003, 5.093271e+000
1.145829e+003, 5.029167e+000
1.146311e+003, 4.837381e+000
1.146793e+003, 4.564635e+000
1.147275e+003, 4.296556e+000
1.147757e+003, 4.177721e+000
1.148239e+003, 4.216664e+000
1.148721e+003, 4.327054e+000
1.149203e+003, 4.489336e+000
1.149686e+003, 4.628255e+000
1.150168e+003, 4.646607e+000
1.150650e+003, 4.678046e+000
1.151132e+003, 4.886989e+000
1.151614e+003, 5.112625e+000
1.152096e+003, 5.170762e+000
1.152578e+003, 5.085892e+000
1.153060e+003, 4.950564e+000
1.153542e+003, 4.783823e+000
1.154025e+003, 4.636077e+000
1.154507e+003, 4.488823e+000
1.154989e+003, 4.414371e+000
1.155471e+003, 4.523393e+000
1.155953e+003, 4.621691e+000
1.156435e+003, 4.535231e+000
1.156917e+003, 4.389519e+000
1.157399e+003, 4.392457e+000
1.157881e+003, 4.530764e+000
1.158364e+003, 4.559121e+000
1.158846e+003, 4.288678e+000
1.159328e+003, 4.223586e+000
1.159810e+003, 4.622328e+000
1.160292e+003, 4.923253e+000
1.160774e+003, 4.918587e+000
1.161256e+003, 4.810364e+000
1.161738e+003, 4.717095e+000
1.162221e+003, 4.655336e+000
1.162703e+003, 4.684052e+000
1.163185e+003, 4.831494e+000
1.163667e+003, 4.814667e+000
1.164149e+003, 4.516913e+000
1.164631e+003, 4.414414e+000
1.165113e+003, 4.648200e+000
1.165595e+003, 4.884046e+000
1.166078e+003, 4.970179e+000
1.166560e+003, 4.930314e+000
1.167042e+003, 4.751528e+000
1.167524e+003, 4.509745e+000
1.168006e+003, 4.647930e+000
1.168488e+003, 5.193347e+000
1.168970e+003, 5.295379e+000
1.169452e+003, 4.896832e+000
1.169934e+003, 4.506275e+000
1.170417e+003, 4.265888e+000
1.170899e+003, 4.232076e+000
1.171381e+003, 4.474475e+000
1.171863e+003, 4.767226e+000
1.172345e+003, 4.658614e+000
1.172827e+003, 4.299531e+000
1.173309e+003, 4.244454e+000
1.173791e+003, 4.421771e+000
1.174273e+003, 4.556540e+000
1.174756e+003, 4.622253e+000
1.175238e+003, 4.752856e+000
1.175720e+003, 4.989947e+000
1.176202e+003, 5.127780e+000
1.176684e+003, 4.935682e+000
1.177166e+003, 4.661933e+000
1.177648e+003, 4.636158e+000
1.178130e+003, 4.714962e+000
1.178613e+003, 4.667983e+000
1.179095e+003, 4.562426e+000
1.179577e+003, 4.601361e+000
1.180059e+003, 4.768837e+000
1.180541e+003, 4.813545e+000
1.181023e+003, 4.596781e+000
1.181505e+003, 4.442446e+000
1.181987e+003, 4.663405e+000
1.182469e+003, 4.874216e+000
1.182952e+003, 4.716627e+000
1.183434e+003, 4.513632e+000
1.183916e+003, 4.667256e+000
1.184398e+003, 4.994608e+000
1.184880e+003, 5.069537e+000
1.185362e+003, 4.837922e+000
1.185844e+003, 4.652711e+000
1.186326e+003, 4.584040e+000
1.186808e+003, 4.585469e+000
1.187291e+003, 4.759994e+000
1.187773e+003, 4.867172e+000
1.188255e+003, 4.712423e+000
1.188737e+003, 4.520530e+000
1.189219e+003, 4.535019e+000
1.189701e+003, 4.677640e+000
1.190183e+003, 4.703738e+000
1.190665e+003, 4.589598e+000
1.191148e+003, 4.469594e+000
1.191630e+003, 4.285492e+000
1.192112e+003, 4.279689e+000
1.192594e+003, 4.567557e+000
1.193076e+003, 4.818419e+000
1.193558e+003, 4.864172e+000
1.194040e+003, 4.772609e+000
1.194522e+003, 4.599144e+000
1.195005e+003, 4.394844e+000
1.195487e+003, 4.406282e+000
1.195969e+003, 4.622401e+000
1.196451e+003, 4.738296e+000
1.196933e+003, 4.742691e+000
1.197415e+003, 4.757501e+000
1.197897e+003, 4.813067e+000
1.198379e+003, 4.852381e+000
1.198861e+003, 4.839712e+000
1.199344e+003, 4.787989e+000
1.199826e+003, 4.670298e+000
1.200308e+003, 4.555601e+000
1.200790e+003, 4.611333e+000
1.201272e+003, 4.770731e+000
1.201754e+003, 4.932152e+000
1.202236e+003, 5.049780e+000
1.202718e+003, 5.015190e+000
1.203200e+003, 4.822024e+000
1.203683e+003, 4.658073e+000
1.204165e+003, 4.647277e+000
1.204647e+003, 4.664764e+000
1.205129e+003, 4.609985e+000
1.205611e+003, 4.550665e+000
1.206093e+003, 4.536050e+000
1.206575e+003, 4.557566e+000
1.207057e+003, 4.643340e+000
1.207540e+003, 4.744375e+000
1.208022e+003, 4.715728e+000
1.208504e+003, 4.511880e+000
1.208986e+003, 4.400895e+000
1.209468e+003, 4.518621e+000
1.209950e+003, 4.626414e+000
1.210432e+003, 4.700406e+000
1.210914e+003, 4.719031e+000
1.211396e+003, 4.602539e+000
1.211879e+003, 4.485195e+000
1.212361e+003, 4.538358e+000
1.212843e+003, 4.702357e+000
1.213325e+003, 4.728765e+000
1.213807e+003, 4.578328e+000
1.214289e+003, 4.483262e+000
1.214771e+003, 4.462994e+000
1.215253e+003, 4.405519e+000
1.215735e+003, 4.265747e+000
1.216218e+003, 4.214637e+000
1.216700e+003, 4.359379e+000
1.217182e+003, 4.559732e+000
1.217664e+003, 4.639083e+000
1.218146e+003, 4.640774e+000
1.218628e+003, 4.706452e+000
1.219110e+003, 4.821233e+000
1.219592e+003, 4.950033e+000
1.220075e+003, 5.059855e+000
1.220557e+003, 4.951539e+000
1.221039e+003, 4.625926e+000
1.221521e+003, 4.415384e+000
1.222003e+003, 4.510318e+000
1.222485e+003, 4.633384e+000
1.222967e+003, 4.425973e+000
1.223449e+003, 4.176665e+000
1.223932e+003, 4.248229e+000
1.224414e+003, 4.457165e+000
1.224896e+003, 4.575881e+000
1.225378e+003, 4.630323e+000
1.225860e+003, 4.762756e+000
1.226342e+003, 4.960030e+000
1.226824e+003, 4.972188e+000
1.227306e+003, 4.618052e+000
1.227788e+003, 4.347857e+000
1.228271e+003, 4.340477e+000
1.228753e+003, 4.411808e+000
1.229235e+003, 4.555415e+000
1.229717e+003, 4.676845e+000
1.230199e+003, 4.661500e+000
1.230681e+003, 4.594735e+000
1.231163e+003, 4.654507e+000
1.231645e+003, 4.835817e+000
1.232127e+003, 4.894489e+000
1.232610e+003, 4.761586e+000
1.233092e+003, 4.738832e+000
1.233574e+003, 4.911443e+000
1.234056e+003, 4.903386e+000
1.234538e+003, 4.542185e+000
1.235020e+003, 4.264404e+000
1.235502e+003, 4.416997e+000
1.235984e+003, 4.737726e+000
1.236467e+003, 4.774652e+000
1.236949e+003, 4.587723e+000
1.237431e+003, 4.367105e+000
1.237913e+003, 4.152686e+000
1.238395e+003, 4.165980e+000
1.238877e+003, 4.379603e+000
1.239359e+003, 4.567468e+000
1.239841e+003, 4.661828e+000
1.240323e+003, 4.746963e+000
1.240806e+003, 4.893234e+000
1.241288e+003, 4.958930e+000
1.241770e+003, 4.662132e+000
1.242252e+003, 4.371953e+000
1.242734e+003, 4.557141e+000
1.243216e+003, 4.882694e+000
1.243698e+003, 4.930172e+000
1.244180e+003, 4.765312e+000
1.244662e+003, 4.575571e+000
1.245145e+003, 4.407856e+000
1.245627e+003, 4.372884e+000
1.246109e+003, 4.675386e+000
1.246591e+003, 4.789322e+000
1.247073e+003, 4.358783e+000
1.247555e+003, 4.092199e+000
1.248037e+003, 4.389440e+000
1.248519e+003, 4.726580e+000
1.249002e+003, 4.700126e+000
1.249484e+003, 4.510640e+000
1.249966e+003, 4.530067e+000
1.250448e+003, 4.744421e+000
1.250930e+003, 4.925085e+000
1.251412e+003, 5.079139e+000
1.251894e+003, 5.102643e+000
1.252376e+003, 4.983011e+000
1.252859e+003, 4.864922e+000
1.253341e+003, 4.792656e+000
1.253823e+003, 4.753580e+000
1.254305e+003, 4.738544e+000
1.254787e+003, 4.759535e+000
1.255269e+003, 4.883684e+000
1.255751e+003, 5.016527e+000
1.256233e+003, 4.938779e+000
1.256715e+003, 4.764381e+000
1.257198e+003, 4.712434e+000
1.257680e+003, 4.751418e+000
1.258162e+003, 4.740499e+000
1.258644e+003, 4.662563e+000
1.259126e+003, 4.617832e+000
1.259608e+003, 4.653489e+000
1.260090e+003, 4.708192e+000
1.260572e+003, 4.808913e+000
1.261054e+003, 4.849118e+000
1.261537e+003, 4.688274e+000
1.262019e+003, 4.538594e+000
1.262501e+003, 4.579660e+000
1.262983e+003, 4.727816e+000
1.263465e+003, 4.860060e+000
1.263947e+003, 4.971384e+000
1.264429e+003, 5.035072e+000
1.264911e+003, 5.038424e+000
1.265394e+003, 5.039773e+000
1.265876e+003, 5.047165e+000
1.266358e+003, 5.009500e+000
1.266840e+003, 4.907907e+000
1.267322e+003, 4.814218e+000
1.267804e+003, 4.767934e+000
1.268286e+003, 4.744637e+000
1.268768e+003, 4.712036e+000
1.269250e+003, 4.687393e+000
1.269733e+003, 4.718989e+000
1.270215e+003, 4.785707e+000
1.270697e+003, 4.849059e+000
1.271179e+003, 4.897210e+000
1.271661e+003, 4.917553e+000
1.272143e+003, 4.901242e+000
1.272625e+003, 4.807669e+000
1.273107e+003, 4.622134e+000
1.273589e+003, 4.492362e+000
1.274072e+003, 4.568994e+000
1.274554e+003, 4.636905e+000
1.275036e+003, 4.543813e+000
1.275518e+003, 4.457902e+000
1.276000e+003, 4.461008e+000
1.276482e+003, 4.554640e+000
1.276964e+003, 4.821095e+000
1.277446e+003, 5.160405e+000
1.277929e+003, 5.252344e+000
1.278411e+003, 5.067141e+000
1.278893e+003, 4.944546e+000
1.279375e+003, 4.910920e+000
1.279857e+003, 4.820308e+000
1.280339e+003, 4.621948e+000
1.280821e+003, 4.599659e+000
1.281303e+003, 4.877867e+000
1.281786e+003, 5.150954e+000
1.282268e+003, 5.192471e+000
##END=



