##NAMES=Veszelyite
##RRUFFID=R150143
##IDEAL CHEMISTRY=Cu^2+^_3_PO_4_(OH)_3_&#183;2H_2_O
##LOCALITY=Katanga, Democratic Republic of the Congo
##OWNER=University of Arizona Mineral Museum
##SOURCE=University of Arizona Mineral Museum
##DESCRIPTION=Blue single crystals scattered in matrix
##STATUS=The identification of this mineral has been confirmed by single-crystal X-ray diffraction.
##URL=rruff.info/R150143
110.7236, 0.0000000E+00
111.2058, 0.1288450
111.6879, 9.8082997E-02
112.1700, 1.287292
112.6521, 4.761719
113.1342, 9.499451
113.6163, 12.88818
114.0985, 15.04755
114.5806, 16.37201
115.0627, 15.68988
115.5448, 11.72894
116.0269, 7.873962
116.5090, 7.081360
116.9912, 9.619202
117.4733, 10.28357
117.9554, 5.435242
118.4375, 1.063721
118.9196, 0.7470090
119.4017, 3.2715000E-02
119.8839, 2.252197
120.3660, 4.738403
120.8481, 7.142517
121.3302, 11.38727
121.8123, 21.18542
122.2944, 29.66278
122.7766, 31.29517
123.2587, 24.80847
123.7408, 13.92682
124.2229, 6.247070
124.7050, 4.284485
125.1871, 3.396698
125.6693, 3.420135
126.1514, 4.530975
126.6335, 7.311279
127.1156, 12.10843
127.5977, 17.81851
128.0798, 21.48959
128.5620, 23.03751
129.0441, 23.64957
129.5262, 23.93738
130.0083, 23.81116
130.4904, 22.50894
130.9725, 19.05316
131.4547, 14.63394
131.9368, 11.47147
132.4189, 9.692047
132.9010, 8.679230
133.3831, 7.828400
133.8652, 7.291962
134.3474, 7.598236
134.8295, 8.070587
135.3116, 8.550171
135.7937, 9.755402
136.2758, 12.31506
136.7579, 16.13614
137.2401, 21.20706
137.7222, 29.92493
138.2043, 36.16763
138.6864, 38.27155
139.1685, 37.20520
139.6507, 33.84473
140.1328, 29.25583
140.6149, 24.00516
141.0970, 19.88690
141.5791, 17.25684
142.0612, 15.32245
142.5434, 14.26218
143.0255, 14.06699
143.5076, 14.30563
143.9897, 15.05933
144.4718, 16.55673
144.9539, 18.04605
145.4361, 19.98450
145.9182, 21.54138
146.4003, 22.10709
146.8824, 21.58426
147.3645, 20.37830
147.8466, 18.68579
148.3288, 16.20242
148.8109, 14.51251
149.2930, 14.02634
149.7751, 14.16852
150.2572, 14.48871
150.7393, 14.93216
151.2215, 15.13165
151.7036, 13.88318
152.1857, 11.13214
152.6678, 9.669037
153.1499, 11.69934
153.6320, 15.77161
154.1142, 18.30392
154.5963, 18.30969
155.0784, 16.59418
155.5605, 13.84665
156.0426, 10.08023
156.5247, 6.410645
157.0069, 3.485382
157.4890, 1.297089
157.9711, 0.1316530
158.4532, 0.4717100
158.9353, 0.1796880
159.4174, 0.6584470
159.8996, 2.001617
160.3817, 3.392395
160.8638, 4.344757
161.3459, 4.886810
161.8280, 4.911011
162.3102, 4.262207
162.7923, 3.221436
163.2744, 1.733429
163.7565, 0.1881710
164.2386, 2.113556
164.7207, 3.241943
165.2029, 2.869080
165.6850, 2.771515
166.1671, 3.531616
166.6492, 4.366577
167.1313, 4.504913
167.6134, 3.606964
168.0956, 2.045258
168.5777, 5.3314000E-02
169.0598, 1.740601
169.5419, 2.910156
170.0240, 3.238342
170.5061, 3.102966
170.9883, 2.973541
171.4704, 3.067749
171.9525, 3.389038
172.4346, 3.988281
172.9167, 5.730011
173.3988, 6.743866
173.8810, 5.699036
174.3631, 3.382172
174.8452, 1.902649
175.3273, 2.568878
175.8094, 4.869934
176.2915, 6.745483
176.7737, 8.317352
177.2558, 9.423157
177.7379, 9.585022
178.2200, 8.894653
178.7021, 8.447723
179.1842, 9.161682
179.6664, 10.41629
180.1485, 10.93484
180.6306, 9.987823
181.1127, 8.903656
181.5948, 9.378387
182.0769, 11.69165
182.5591, 13.83582
183.0412, 14.30759
183.5233, 14.15155
184.0054, 14.51410
184.4875, 16.04022
184.9696, 17.98468
185.4518, 18.96895
185.9339, 18.73016
186.4160, 18.02086
186.8981, 16.79935
187.3802, 15.42809
187.8623, 14.21147
188.3445, 13.17201
188.8266, 12.53767
189.3087, 13.28947
189.7908, 16.97311
190.2729, 19.91245
190.7550, 21.16992
191.2372, 21.23468
191.7193, 20.62840
192.2014, 19.55627
192.6835, 18.18314
193.1656, 17.66866
193.6477, 19.25681
194.1299, 20.55907
194.6120, 21.05299
195.0941, 20.99294
195.5762, 20.82187
196.0583, 20.80283
196.5404, 20.91420
197.0226, 21.13322
197.5047, 21.79704
197.9868, 22.21060
198.4689, 21.67694
198.9510, 20.69637
199.4331, 20.47481
199.9153, 21.98352
200.3974, 25.15656
200.8795, 27.25648
201.3616, 28.10925
201.8437, 28.34630
202.3258, 27.93309
202.8080, 27.05186
203.2901, 26.24997
203.7722, 25.91864
204.2543, 26.04260
204.7364, 26.06572
205.2185, 25.95445
205.7007, 25.76039
206.1828, 25.41835
206.6649, 24.96982
207.1470, 24.70862
207.6291, 24.91273
208.1112, 25.49960
208.5934, 25.95702
209.0755, 26.25452
209.5576, 26.40953
210.0397, 26.47551
210.5218, 26.46729
211.0039, 26.23207
211.4861, 25.20560
211.9682, 23.93620
212.4503, 23.60551
212.9324, 25.16617
213.4145, 27.22803
213.8967, 28.01349
214.3788, 27.28856
214.8609, 26.32747
215.3430, 25.82513
215.8251, 25.51030
216.3072, 25.12334
216.7894, 24.53508
217.2715, 23.94830
217.7536, 23.67628
218.2357, 23.76335
218.7178, 23.96571
219.1999, 24.27655
219.6821, 24.59708
220.1642, 24.81096
220.6463, 24.86540
221.1284, 24.74962
221.6105, 24.38370
222.0926, 23.55542
222.5748, 22.88728
223.0569, 22.78749
223.5390, 22.93828
224.0211, 22.95737
224.5032, 22.68527
224.9853, 22.23277
225.4675, 21.82324
225.9496, 21.35249
226.4317, 21.26941
226.9138, 21.73514
227.3959, 22.44737
227.8780, 23.12296
228.3602, 23.62880
228.8423, 23.98726
229.3244, 24.27020
229.8065, 24.40121
230.2886, 24.55646
230.7707, 24.97580
231.2529, 25.36298
231.7350, 25.29582
232.2171, 24.55214
232.6992, 23.37306
233.1813, 22.59230
233.6634, 22.60136
234.1456, 22.61484
234.6277, 22.55374
235.1098, 22.45757
235.5919, 22.36163
236.0740, 22.26585
236.5561, 22.19209
237.0383, 22.21069
237.5204, 22.10956
238.0025, 22.40479
238.4846, 23.70857
238.9667, 25.22192
239.4488, 25.86211
239.9310, 25.16911
240.4131, 23.73296
240.8952, 23.03333
241.3773, 23.90222
241.8594, 24.35652
242.3415, 23.65483
242.8237, 22.62254
243.3058, 22.45552
243.7879, 23.64120
244.2700, 25.44312
244.7521, 26.27261
245.2342, 25.71530
245.7164, 25.09341
246.1985, 24.52623
246.6806, 24.02493
247.1627, 23.65033
247.6448, 23.43808
248.1269, 23.28102
248.6091, 23.04192
249.0912, 22.85013
249.5733, 22.17542
250.0554, 20.44899
250.5375, 18.28178
251.0196, 16.57974
251.5018, 15.60651
251.9839, 15.09381
252.4660, 14.73103
252.9481, 14.49782
253.4302, 14.41075
253.9123, 14.68069
254.3945, 15.04489
254.8766, 15.08249
255.3587, 14.67917
255.8408, 14.06010
256.3229, 13.30437
256.8051, 12.43446
257.2872, 11.96449
257.7693, 12.26453
258.2514, 13.00412
258.7335, 13.68057
259.2156, 14.24124
259.6978, 14.65958
260.1799, 14.97395
260.6620, 15.15276
261.1441, 14.94347
261.6262, 13.74590
262.1083, 12.27121
262.5905, 11.86823
263.0726, 12.93169
263.5547, 13.93686
264.0368, 13.43069
264.5189, 11.98517
265.0010, 10.66544
265.4832, 9.861160
265.9653, 9.365601
266.4474, 8.844986
266.9295, 8.269440
267.4116, 7.826660
267.8937, 7.828857
268.3759, 8.001846
268.8580, 7.932938
269.3401, 7.372604
269.8222, 6.619858
270.3043, 6.194275
270.7864, 6.222931
271.2686, 6.077286
271.7507, 5.074799
272.2328, 3.839035
272.7149, 3.049103
273.1970, 2.941818
273.6791, 3.218124
274.1613, 3.539810
274.6434, 3.931717
275.1255, 4.266815
275.6076, 4.781860
276.0897, 5.074890
276.5718, 4.630325
277.0540, 3.238495
277.5361, 1.685776
278.0182, 0.9037320
278.5003, 0.9871220
278.9824, 1.212784
279.4645, 1.678818
279.9467, 2.050400
280.4288, 1.961761
280.9109, 1.376968
281.3930, 0.8574070
281.8751, 1.091248
282.3572, 2.156265
282.8394, 3.020187
283.3215, 3.639969
283.8036, 3.936493
284.2857, 3.757858
284.7678, 3.153793
285.2499, 2.426529
285.7321, 1.720154
286.2142, 1.028229
286.6963, 0.7714080
287.1784, 1.447250
287.6605, 2.096954
288.1426, 2.152542
288.6248, 1.760300
289.1069, 1.448212
289.5890, 1.733673
290.0711, 2.543564
290.5532, 2.901245
291.0353, 2.590271
291.5175, 2.040512
291.9996, 1.108292
292.4817, 9.5427997E-02
292.9638, 0.3852840
293.4459, 0.2429200
293.9280, 1.620056
294.4102, 2.057953
294.8923, 0.8675690
295.3744, 0.2069400
295.8565, 0.6970830
296.3386, 0.7532500
296.8207, 0.5163270
297.3029, 8.2860002E-03
297.7850, 0.6406100
298.2671, 1.121338
298.7492, 1.445175
299.2313, 1.560944
299.7134, 1.193420
300.1956, 0.7873540
300.6777, 0.8119200
301.1598, 1.419189
301.6419, 2.297989
302.1240, 2.969620
302.6061, 3.433212
303.0883, 3.586426
303.5704, 3.332062
304.0525, 2.895935
304.5346, 2.363144
305.0167, 1.767426
305.4988, 1.187149
305.9810, 0.6333310
306.4631, 2.1510001E-03
306.9452, 0.1036830
307.4273, 1.147537
307.9094, 2.300293
308.3915, 2.619751
308.8737, 2.141846
309.3558, 1.381683
309.8379, 0.7527310
310.3200, 0.2510680
310.8021, 8.9615002E-02
311.2842, 0.1738130
311.7664, 0.1760860
312.2485, 0.1143340
312.7306, 1.7960001E-02
313.2127, 3.7170000E-02
313.6948, 6.0410000E-02
314.1769, 0.2313390
314.6591, 6.8007998E-02
315.1412, 1.449814
315.6233, 2.451859
316.1054, 2.541138
316.5875, 2.080475
317.0696, 1.477036
317.5518, 0.8665620
318.0339, 0.3890990
318.5160, 0.5087740
318.9981, 1.632355
319.4802, 2.523422
319.9623, 2.899078
320.4445, 2.977676
320.9266, 2.948944
321.4087, 2.870529
321.8908, 2.675323
322.3729, 2.248184
322.8550, 1.470856
323.3372, 0.7077790
323.8193, 0.3314210
324.3014, 1.079834
324.7835, 1.093475
325.2656, 0.3799900
325.7477, 0.6045230
326.2299, 1.535004
326.7120, 2.445557
327.1941, 2.886856
327.6762, 2.421356
328.1583, 1.874557
328.6404, 1.507141
329.1226, 1.327332
329.6047, 1.279419
330.0868, 1.285568
330.5689, 1.374939
331.0510, 1.788712
331.5331, 3.091125
332.0153, 3.853210
332.4974, 3.277374
332.9795, 1.960251
333.4616, 0.8695220
333.9437, 0.5342250
334.4258, 0.6703190
334.9080, 0.5834350
335.3901, 5.6747001E-02
335.8722, 0.1506500
336.3543, 0.5741420
336.8365, 1.504349
337.3186, 2.031006
337.8007, 1.985886
338.2828, 1.597443
338.7649, 0.9065250
339.2470, 0.2781070
339.7292, 0.7560270
340.2113, 0.5875400
340.6934, 2.046600
341.1755, 2.438889
341.6576, 1.770264
342.1397, 0.9617460
342.6219, 0.7888180
343.1040, 1.177780
343.5861, 1.433640
344.0682, 1.425659
344.5503, 1.392792
345.0324, 1.599686
345.5146, 1.905533
345.9967, 1.944733
346.4788, 1.333054
346.9609, 0.3939060
347.4430, 9.2285000E-02
347.9251, 5.5739999E-02
348.4073, 0.2002870
348.8894, 0.7027130
349.3715, 1.276062
349.8536, 1.673492
350.3357, 1.741150
350.8178, 1.794922
351.3000, 2.429428
351.7821, 3.699524
352.2642, 4.401413
352.7463, 3.687592
353.2284, 2.526138
353.7105, 1.968643
354.1927, 2.138489
354.6748, 2.372421
355.1569, 2.206467
355.6390, 1.709442
356.1211, 1.217346
356.6032, 0.8046720
357.0854, 0.4101410
357.5675, 0.1292570
358.0496, 0.7828370
358.5317, 1.242477
359.0138, 1.423752
359.4959, 1.325592
359.9781, 0.8169860
360.4602, 0.1899870
360.9423, 1.045700
361.4244, 1.068756
361.9065, 0.6407320
362.3886, 0.6958620
362.8708, 1.762802
363.3529, 2.930038
363.8350, 3.392044
364.3171, 3.198364
364.7992, 2.849747
365.2813, 2.516327
365.7635, 2.308929
366.2456, 2.413925
366.7277, 2.891724
367.2098, 3.437256
367.6919, 4.249146
368.1740, 5.013947
368.6562, 4.897186
369.1383, 3.551697
369.6204, 1.964249
370.1025, 1.411240
370.5846, 1.964203
371.0667, 2.424469
371.5489, 2.596909
372.0310, 2.652924
372.5131, 2.808334
372.9952, 3.052429
373.4773, 3.070862
373.9594, 2.493637
374.4416, 1.443039
374.9237, 1.200348
375.4058, 2.752228
375.8879, 3.977692
376.3700, 3.595718
376.8521, 2.297211
377.3343, 1.636887
377.8164, 2.388458
378.2985, 3.769821
378.7806, 3.897308
379.2627, 1.439484
379.7448, 2.7023001E-02
380.2270, 0.3268430
380.7091, 1.445389
381.1912, 2.499573
381.6733, 3.261810
382.1554, 3.706863
382.6375, 3.842377
383.1197, 3.672058
383.6018, 3.222992
384.0839, 2.230713
384.5660, 1.259720
385.0481, 0.4790190
385.5302, 7.7529997E-02
386.0124, 0.4220730
386.4945, 0.5821530
386.9766, 0.5010380
387.4587, 0.1499180
387.9408, 2.902435
388.4229, 4.325287
388.9051, 2.931427
389.3872, 0.6056210
389.8693, 0.6598660
390.3514, 0.2298890
390.8335, 0.9761810
391.3156, 1.449799
391.7978, 0.7357790
392.2799, 0.5565190
392.7620, 1.475281
393.2441, 2.424423
393.7262, 2.979736
394.2083, 3.091019
394.6905, 2.769455
395.1726, 1.825821
395.6547, 0.3899540
396.1368, 9.8846003E-02
396.6189, 1.131866
397.1010, 2.219604
397.5832, 2.637939
398.0653, 2.611816
398.5474, 2.285980
399.0295, 1.667450
399.5116, 1.011932
399.9937, 0.7786870
400.4759, 1.053070
400.9580, 1.327423
401.4401, 1.480286
401.9222, 1.591980
402.4043, 1.776535
402.8864, 2.022614
403.3686, 2.109222
403.8507, 1.629974
404.3328, 0.7936250
404.8149, 0.5979160
405.2970, 1.334686
405.7791, 2.247604
406.2613, 3.024139
406.7434, 3.590149
407.2255, 3.731537
407.7076, 3.125961
408.1897, 2.304855
408.6718, 1.818314
409.1540, 1.661179
409.6361, 1.758514
410.1182, 2.285141
410.6003, 2.872482
411.0824, 2.850891
411.5645, 2.063538
412.0467, 1.320221
412.5288, 1.047287
413.0109, 1.030594
413.4930, 0.8524320
413.9751, 0.4115450
414.4572, 1.4114000E-02
414.9394, 0.1401210
415.4215, 4.6631001E-02
415.9036, 0.2921140
416.3857, 0.7579190
416.8678, 1.154785
417.3499, 1.344498
417.8321, 1.332825
418.3142, 1.104828
418.7963, 0.5850370
419.2784, 0.1453550
419.7605, 0.8012850
420.2426, 1.752029
420.7248, 2.131485
421.2069, 1.559006
421.6890, 0.5245970
422.1711, 0.6436000
422.6532, 1.802948
423.1353, 2.702835
423.6175, 3.027420
424.0996, 2.694397
424.5817, 2.194824
425.0638, 1.115921
425.5459, 0.3060150
426.0280, 0.2849730
426.5102, 0.7776030
426.9923, 1.176163
427.4744, 1.102783
427.9565, 0.7659910
428.4386, 0.9108120
428.9207, 1.975861
429.4029, 2.724670
429.8850, 2.970047
430.3671, 2.903931
430.8492, 2.593399
431.3313, 2.085602
431.8134, 1.531860
432.2956, 0.9707790
432.7777, 0.3914180
433.2598, 0.3411410
433.7419, 1.145767
434.2241, 2.082047
434.7062, 2.964890
435.1883, 3.702774
435.6704, 4.128342
436.1525, 4.124771
436.6346, 3.825653
437.1168, 3.355377
437.5989, 2.667892
438.0810, 2.102844
438.5631, 1.645950
439.0452, 1.470093
439.5273, 1.908310
440.0095, 3.044388
440.4916, 3.887115
440.9737, 3.672501
441.4558, 2.837601
441.9379, 2.281097
442.4200, 2.132645
442.9022, 2.122269
443.3843, 2.010193
443.8664, 1.837585
444.3485, 1.809921
444.8306, 2.217545
445.3127, 2.556793
445.7949, 2.411835
446.2770, 1.920013
446.7591, 1.498505
447.2412, 1.299973
447.7233, 1.219437
448.2054, 1.244125
448.6876, 1.452698
449.1697, 1.604782
449.6518, 1.618942
450.1339, 1.617493
450.6160, 1.741104
451.0981, 1.965195
451.5803, 2.134155
452.0624, 2.102707
452.5445, 1.899185
453.0266, 1.900375
453.5087, 2.532089
453.9908, 2.839584
454.4730, 2.464386
454.9551, 1.849808
455.4372, 1.490936
455.9193, 1.550018
456.4014, 1.899979
456.8835, 2.471695
457.3657, 3.402451
457.8478, 3.906693
458.3299, 3.496124
458.8120, 3.095291
459.2941, 3.143295
459.7762, 3.503723
460.2584, 3.808655
460.7405, 3.854172
461.2226, 3.723343
461.7047, 3.520096
462.1868, 3.172791
462.6689, 3.080505
463.1511, 3.695587
463.6332, 4.445267
464.1153, 4.748505
464.5974, 4.544830
465.0795, 4.248672
465.5616, 4.030807
466.0438, 3.911682
466.5259, 3.950027
467.0080, 4.167587
467.4901, 4.475372
467.9722, 4.885330
468.4543, 5.336700
468.9365, 5.571945
469.4186, 5.483795
469.9007, 5.271759
470.3828, 4.915161
470.8649, 4.522461
471.3470, 4.360550
471.8292, 4.529526
472.3113, 4.804459
472.7934, 4.850510
473.2755, 4.547363
473.7576, 4.433960
474.2397, 4.902847
474.7219, 5.211113
475.2040, 4.592941
475.6861, 3.390259
476.1682, 2.646439
476.6503, 3.064636
477.1324, 4.285294
477.6146, 4.977509
478.0967, 4.901863
478.5788, 4.642014
479.0609, 4.129791
479.5430, 3.682510
480.0251, 3.518250
480.5073, 3.622574
480.9894, 3.869186
481.4715, 4.246902
481.9536, 4.725502
482.4357, 4.840111
482.9178, 4.355217
483.4000, 3.883141
483.8821, 3.750229
484.3642, 3.814461
484.8463, 3.887444
485.3284, 3.931129
485.8105, 3.893837
486.2927, 3.715614
486.7748, 3.419106
487.2569, 3.054596
487.7390, 2.506287
488.2211, 2.151711
488.7032, 2.634674
489.1854, 3.786835
489.6675, 4.625244
490.1496, 4.836700
490.6317, 4.753159
491.1138, 4.699547
491.5959, 4.633408
492.0781, 4.131477
492.5602, 2.873161
493.0423, 1.432091
493.5244, 1.136253
494.0065, 3.042747
494.4886, 4.069145
494.9708, 3.233833
495.4529, 2.150558
495.9350, 2.129700
496.4171, 3.083611
496.8992, 4.063148
497.3813, 4.354912
497.8635, 4.047798
498.3456, 3.705536
498.8277, 3.279510
499.3098, 2.884216
499.7919, 2.372169
500.2740, 1.993484
500.7562, 2.042404
501.2383, 2.607101
501.7204, 3.289230
502.2025, 3.682312
502.6846, 3.883072
503.1667, 3.907303
503.6489, 3.652657
504.1310, 3.424057
504.6131, 3.507675
505.0952, 3.692429
505.5773, 3.642487
506.0594, 3.253693
506.5416, 2.714569
507.0237, 1.929008
507.5058, 1.085327
507.9879, 0.9702450
508.4700, 1.914833
508.9521, 3.062859
509.4343, 3.494232
509.9164, 3.198471
510.3985, 2.966438
510.8806, 3.017761
511.3627, 2.972939
511.8448, 2.406448
512.3270, 1.593346
512.8091, 1.219177
513.2912, 1.594872
513.7733, 2.295120
514.2554, 2.512436
514.7375, 1.865685
515.2197, 1.638870
515.7018, 2.166214
516.1839, 2.738426
516.6660, 3.039024
517.1481, 3.075874
517.6302, 2.942818
518.1124, 2.673111
518.5945, 2.333473
519.0766, 2.081108
519.5587, 1.892303
520.0408, 1.856506
520.5229, 2.013252
521.0051, 2.323380
521.4872, 2.917084
521.9693, 3.715347
522.4514, 4.269562
522.9335, 4.028542
523.4156, 3.467491
523.8978, 3.706093
524.3799, 4.824463
524.8620, 5.357925
525.3441, 4.308357
525.8262, 2.443260
526.3083, 1.354630
526.7905, 1.129662
527.2726, 1.282066
527.7547, 1.991257
528.2368, 2.841133
528.7189, 3.472420
529.2010, 3.726288
529.6832, 3.606277
530.1653, 3.163353
530.6474, 2.451836
531.1295, 1.826828
531.6116, 0.9894560
532.0938, 0.6314160
532.5759, 1.140663
533.0580, 1.946175
533.5401, 2.672562
534.0222, 3.182320
534.5043, 3.346107
534.9865, 2.900352
535.4686, 1.931320
535.9507, 1.509048
536.4328, 1.971237
536.9149, 2.345932
537.3970, 2.170883
537.8792, 1.787254
538.3613, 1.579674
538.8434, 1.643059
539.3255, 1.650795
539.8076, 1.260376
540.2897, 0.6357040
540.7719, 0.1650850
541.2540, 0.1031490
541.7361, 6.5254003E-02
542.2182, 0.3700410
542.7003, 1.175758
543.1824, 2.187958
543.6646, 4.202980
544.1467, 5.406296
544.6288, 4.647247
545.1109, 2.944145
545.5930, 1.376137
546.0751, 0.2607420
546.5573, 1.7738000E-02
547.0394, 1.123192
547.5215, 3.746376
548.0036, 5.187981
548.4857, 4.277306
548.9678, 3.453926
549.4500, 3.229309
549.9321, 3.275322
550.4142, 3.240768
550.8963, 3.024353
551.3784, 2.696259
551.8605, 2.173706
552.3427, 1.502785
552.8248, 1.504005
553.3069, 2.659149
553.7890, 3.547508
554.2711, 2.840118
554.7532, 1.504646
555.2354, 0.9810180
555.7175, 1.705711
556.1996, 2.717018
556.6817, 3.975571
557.1638, 4.969139
557.6459, 4.184845
558.1281, 1.312958
558.6102, 1.338730
559.0923, 1.641594
559.5744, 0.2733690
560.0565, 1.517761
560.5386, 2.025574
561.0208, 2.069092
561.5029, 1.194229
561.9850, 0.1524960
562.4671, 0.1447300
562.9492, 0.4489140
563.4313, 1.357468
563.9135, 2.047646
564.3956, 2.519020
564.8777, 2.617393
565.3598, 2.130493
565.8419, 1.595490
566.3240, 1.109596
566.8062, 0.6988140
567.2883, 0.3570330
567.7704, 8.1665002E-02
568.2525, 2.0485001E-02
568.7346, 0.5295030
569.2167, 1.327736
569.6989, 1.563385
570.1810, 1.106834
570.6631, 0.5461810
571.1452, 0.2019350
571.6273, 5.2680999E-02
572.1094, 2.7160000E-03
572.5916, 2.0324999E-02
573.0737, 0.1837160
573.5558, 0.7548070
574.0379, 1.342094
574.5200, 1.431877
575.0021, 1.032646
575.4843, 0.5985570
575.9664, 0.4908370
576.4485, 0.6643300
576.9306, 0.8506470
577.4127, 1.047195
577.8948, 1.260277
578.3770, 1.620583
578.8591, 1.898361
579.3412, 1.716988
579.8233, 1.184784
580.3054, 1.006081
580.7875, 2.093765
581.2697, 3.749741
581.7518, 4.046600
582.2339, 2.836403
582.7161, 1.623543
583.1982, 0.9129710
583.6803, 0.5910260
584.1624, 0.6061860
584.6445, 1.037544
585.1266, 1.077782
585.6088, 0.1798930
586.0909, 1.379112
586.5730, 0.9605100
587.0551, 0.6598280
587.5372, 1.770370
588.0193, 1.519066
588.5015, 0.5691910
588.9836, 0.4179080
589.4657, 1.642670
589.9478, 2.242203
590.4299, 1.899742
590.9120, 1.430222
591.3942, 1.165039
591.8763, 1.085098
592.3584, 1.050804
592.8405, 0.9693300
593.3226, 1.006714
593.8047, 1.636108
594.2869, 2.837944
594.7690, 3.248787
595.2511, 2.215958
595.7332, 1.074051
596.2153, 1.328667
596.6974, 2.502708
597.1796, 2.935455
597.6617, 1.739426
598.1438, 0.4423220
598.6259, 0.2231140
599.1080, 0.4057770
599.5901, 0.3095400
600.0723, 2.6630000E-03
600.5544, 0.4902110
601.0365, 1.186333
601.5186, 2.112114
602.0007, 2.408707
602.4828, 1.131966
602.9650, 0.3794330
603.4471, 1.083153
603.9292, 2.133286
604.4113, 2.277603
604.8934, 1.370354
605.3755, 0.4489140
605.8577, 0.5403370
606.3398, 1.357124
606.8219, 1.827019
607.3040, 1.898727
607.7861, 1.879631
608.2682, 1.776146
608.7504, 1.759460
609.2325, 2.257889
609.7146, 3.474609
610.1967, 4.100540
610.6788, 3.265373
611.1609, 2.095314
611.6431, 1.554054
612.1252, 1.593559
612.6073, 1.801697
613.0894, 1.974960
613.5715, 2.111313
614.0536, 2.225166
614.5358, 2.403610
615.0179, 2.343262
615.5000, 1.636124
615.9821, 1.101486
616.4642, 1.176697
616.9464, 1.626511
617.4285, 1.951164
617.9106, 1.761429
618.3927, 1.527809
618.8748, 1.866089
619.3569, 2.661957
619.8391, 3.361740
620.3212, 3.927925
620.8033, 4.150414
621.2854, 3.680923
621.7675, 2.674240
622.2496, 2.088554
622.7318, 2.142876
623.2139, 2.314400
623.6960, 2.672424
624.1781, 2.954056
624.6602, 2.621292
625.1423, 1.798454
625.6245, 1.441193
626.1066, 2.469063
626.5887, 4.395699
627.0708, 4.869308
627.5529, 3.108116
628.0350, 1.782585
628.5172, 1.792442
628.9993, 2.134903
629.4814, 2.147247
629.9635, 1.886124
630.4456, 1.838028
630.9277, 2.462791
631.4099, 3.197556
631.8920, 3.435509
632.3741, 3.245300
632.8562, 2.843231
633.3383, 2.259171
633.8204, 1.677811
634.3026, 1.315964
634.7847, 1.190994
635.2668, 1.134430
635.7489, 0.8765490
636.2310, 0.9929500
636.7131, 2.086182
637.1953, 3.420013
637.6774, 4.191566
638.1595, 4.212273
638.6416, 3.717178
639.1237, 2.613976
639.6058, 1.162430
640.0880, 0.8527680
640.5701, 2.005661
641.0522, 3.064377
641.5343, 3.394707
642.0164, 3.260368
642.4985, 3.124969
642.9807, 3.018768
643.4628, 2.776321
643.9449, 2.420456
644.4270, 1.847633
644.9091, 0.5170520
645.3912, 1.186981
645.8734, 2.134132
646.3555, 1.859146
646.8376, 0.7110980
647.3197, 0.9783630
647.8018, 3.521255
648.2839, 4.846420
648.7661, 4.126595
649.2482, 3.153358
649.7303, 2.151619
650.2124, 1.354889
650.6945, 1.094833
651.1766, 1.451172
651.6588, 1.969902
652.1409, 2.438232
652.6230, 2.789261
653.1051, 2.815491
653.5872, 2.516304
654.0693, 2.213165
654.5515, 2.030830
655.0336, 2.014702
655.5157, 2.276855
655.9978, 2.964951
656.4799, 3.560028
656.9620, 4.554817
657.4442, 5.012215
657.9263, 3.878349
658.4084, 1.984764
658.8905, 0.8682480
659.3726, 1.152336
659.8547, 1.961327
660.3369, 2.145432
660.8190, 1.747772
661.3011, 1.473763
661.7832, 1.278107
662.2653, 1.440086
662.7474, 2.505554
663.2296, 3.854774
663.7117, 4.235390
664.1938, 3.336281
664.6759, 2.459473
665.1580, 1.750229
665.6401, 1.431305
666.1223, 2.040581
666.6044, 3.256477
667.0865, 4.098892
667.5686, 4.062202
668.0507, 3.431824
668.5328, 2.599571
669.0150, 1.341728
669.4971, 0.8986050
669.9792, 2.140091
670.4613, 3.114685
670.9434, 2.583603
671.4255, 1.417038
671.9077, 1.044487
672.3898, 1.935249
672.8719, 2.716637
673.3540, 2.067627
673.8361, 0.9655990
674.3182, 1.248466
674.8004, 2.838829
675.2825, 3.883415
675.7646, 3.244507
676.2467, 1.676331
676.7288, 0.9206770
677.2109, 1.390457
677.6931, 1.714432
678.1752, 1.702385
678.6573, 1.756165
679.1394, 2.219658
679.6215, 2.810883
680.1036, 2.977623
680.5858, 2.501892
681.0679, 2.043182
681.5500, 2.535393
682.0321, 3.519890
682.5142, 3.516136
682.9963, 2.356323
683.4785, 1.189835
683.9606, 0.5261690
684.4427, 0.4032210
684.9248, 1.028984
685.4069, 3.185249
685.8890, 4.213249
686.3712, 3.075676
686.8533, 1.774826
687.3354, 1.434219
687.8175, 1.696144
688.2996, 1.774612
688.7817, 1.376099
689.2639, 0.8461150
689.7460, 0.4540630
690.2281, 0.2498020
690.7102, 0.7680590
691.1923, 2.247917
691.6744, 3.434509
692.1566, 3.589684
692.6387, 3.144165
693.1208, 2.991920
693.6029, 3.305153
694.0850, 3.201477
694.5671, 2.073257
695.0493, 0.9451680
695.5314, 0.4742200
696.0135, 0.4961850
696.4956, 0.7040480
696.9777, 0.9935840
697.4598, 1.098404
697.9420, 0.6324540
698.4241, 0.3572690
698.9062, 0.7015460
699.3883, 0.2052760
699.8704, 0.3839190
700.3525, 0.6452330
700.8347, 0.9165650
701.3168, 1.915993
701.7989, 3.779137
702.2810, 4.628983
702.7631, 3.017494
703.2452, 1.006546
703.7274, 5.0864998E-02
704.2095, 1.2115000E-02
704.6916, 0.4359440
705.1737, 1.186012
705.6558, 1.764885
706.1379, 1.552635
706.6201, 0.6261370
707.1022, 0.5462110
707.5843, 1.859947
708.0664, 2.714760
708.5485, 1.892715
709.0306, 0.8335570
709.5128, 1.080154
709.9949, 2.547630
710.4770, 3.543472
710.9591, 3.263824
711.4412, 2.598114
711.9233, 2.020355
712.4055, 1.596085
712.8876, 1.426666
713.3697, 1.528236
713.8518, 1.813805
714.3339, 2.243889
714.8160, 2.767357
715.2982, 2.972847
715.7803, 2.723816
716.2624, 2.474983
716.7445, 2.287178
717.2266, 2.157249
717.7087, 2.210243
718.1909, 2.342827
718.6730, 2.123718
719.1551, 0.9843600
719.6372, 4.9431000E-02
720.1193, 0.3741760
720.6014, 1.277985
721.0836, 1.555267
721.5657, 1.085358
722.0478, 0.6846620
722.5299, 1.008621
723.0120, 1.787155
723.4941, 2.103462
723.9763, 1.777046
724.4584, 1.535950
724.9405, 1.449432
725.4226, 1.326561
725.9047, 1.079559
726.3868, 0.8476410
726.8690, 0.9611970
727.3511, 1.618286
727.8332, 2.276886
728.3153, 2.794182
728.7974, 3.020340
729.2795, 2.418594
729.7617, 1.208939
730.2438, 0.6633380
730.7259, 1.535820
731.2080, 2.987183
731.6901, 3.170952
732.1722, 1.571579
732.6544, 0.9217760
733.1365, 2.098549
733.6186, 3.012810
734.1007, 2.503143
734.5828, 1.421524
735.0649, 0.8438800
735.5471, 0.8675230
736.0292, 1.064667
736.5113, 1.312180
736.9934, 1.582390
737.4755, 2.021660
737.9576, 2.457321
738.4398, 2.255646
738.9219, 1.216148
739.4040, 0.1862410
739.8861, 0.2951890
740.3682, 1.517914
740.8503, 2.305107
741.3325, 2.581894
741.8146, 2.571068
742.2967, 2.018471
742.7788, 1.445435
743.2609, 1.287132
743.7430, 1.523712
744.2252, 1.868881
744.7073, 2.408417
745.1894, 2.849548
745.6715, 3.057343
746.1536, 3.019836
746.6357, 2.494797
747.1179, 1.579247
747.6000, 1.077049
748.0821, 1.700905
748.5642, 3.008331
749.0463, 3.543053
749.5284, 3.208244
750.0106, 2.479729
750.4927, 0.9065860
750.9748, 0.3447570
751.4569, 0.1741940
751.9390, 0.8463520
752.4211, 1.543282
752.9033, 1.815765
753.3854, 1.699883
753.8675, 0.4915850
754.3496, 0.5438230
754.8317, 0.2569350
755.3138, 2.276299
755.7960, 3.551865
756.2781, 3.154884
756.7602, 2.005188
757.2423, 1.356438
757.7244, 1.194824
758.2065, 1.414803
758.6887, 2.203918
759.1708, 2.716728
759.6529, 2.486313
760.1350, 1.890167
760.6171, 1.410255
761.0992, 1.018456
761.5814, 0.7983630
762.0635, 0.9232560
762.5456, 1.052094
763.0277, 0.9472960
763.5098, 0.7916950
763.9919, 0.8757930
764.4741, 1.209564
764.9562, 1.507057
765.4383, 1.511162
765.9204, 1.373863
766.4025, 1.570160
766.8846, 2.072556
767.3668, 1.929237
767.8489, 0.7173160
768.3310, 0.3658910
768.8131, 0.2503510
769.2952, 0.8445970
769.7773, 1.662521
770.2595, 2.145058
770.7416, 2.452240
771.2237, 2.193306
771.7058, 2.130577
772.1879, 3.221024
772.6700, 4.780777
773.1522, 5.314407
773.6343, 4.211136
774.1164, 2.705055
774.5985, 1.936081
775.0806, 1.639389
775.5627, 1.209938
776.0449, 0.6315990
776.5270, 0.1289220
777.0091, 0.2164920
777.4912, 0.3527530
777.9733, 0.1368870
778.4554, 0.5214160
778.9376, 0.7829970
779.4197, 0.1706240
779.9019, 0.1843870
780.3840, 0.3466800
780.8661, 0.9329830
781.3482, 0.5094220
781.8303, 0.7093430
782.3124, 1.130669
782.7946, 0.5355610
783.2767, 2.465355
783.7588, 3.214478
784.2409, 3.181091
784.7230, 2.865585
785.2051, 2.456467
785.6873, 2.448441
786.1694, 3.266708
786.6515, 4.397057
787.1336, 4.420494
787.6157, 3.103111
788.0978, 1.946968
788.5800, 0.8993610
789.0621, 0.2909850
789.5442, 0.6658710
790.0263, 1.443214
790.5084, 1.687386
790.9905, 1.277367
791.4727, 0.7706150
791.9548, 8.1290998E-02
792.4369, 0.5987550
792.9190, 0.1139140
793.4011, 0.9107670
793.8832, 1.726181
794.3654, 2.142075
794.8475, 2.446083
795.3296, 2.979889
795.8117, 3.518196
796.2938, 3.249886
796.7759, 2.197281
797.2581, 1.665367
797.7402, 2.010658
798.2223, 2.800453
798.7044, 3.930542
799.1865, 5.177238
799.6686, 5.218124
800.1508, 2.465721
800.6329, 0.7864000
801.1150, 0.9627150
801.5971, 1.512199
802.0792, 1.625542
802.5613, 1.493912
803.0435, 1.592010
803.5256, 2.070793
804.0077, 2.633537
804.4898, 3.325645
804.9719, 3.813866
805.4540, 3.283440
805.9362, 2.043869
806.4183, 1.490456
806.9004, 2.116661
807.3825, 3.119812
807.8646, 3.586540
808.3467, 3.555870
808.8289, 3.475388
809.3110, 3.321953
809.7931, 3.318810
810.2752, 3.769478
810.7573, 4.080406
811.2394, 3.583221
811.7216, 2.552902
812.2037, 1.882103
812.6858, 1.958908
813.1679, 2.058807
813.6500, 1.860161
814.1321, 1.662819
814.6143, 1.895142
815.0964, 2.326614
815.5785, 2.338165
816.0606, 1.683388
816.5427, 0.8300020
817.0248, 0.2155380
817.5070, 0.1545870
817.9891, 0.2174300
818.4712, 2.5955001E-02
818.9533, 0.3825070
819.4354, 0.8118820
819.9175, 1.231453
820.3997, 1.578911
820.8818, 1.849525
821.3639, 1.801247
821.8460, 0.9902190
822.3281, 0.5282060
822.8102, 0.7196730
823.2924, 1.099121
823.7745, 1.476326
824.2566, 1.794563
824.7387, 1.979004
825.2208, 2.025436
825.7029, 1.892090
826.1851, 1.155128
826.6672, 0.5659410
827.1493, 1.231796
827.6314, 2.685867
828.1135, 3.484543
828.5956, 3.123901
829.0778, 2.354668
829.5599, 1.998993
830.0420, 1.991074
830.5241, 1.779617
831.0062, 1.254105
831.4883, 1.362671
831.9705, 2.678642
832.4526, 4.068893
832.9347, 4.433365
833.4168, 3.870949
833.8989, 3.343872
834.3810, 2.768692
834.8632, 2.330635
835.3453, 2.100510
835.8274, 1.985344
836.3095, 1.866577
836.7916, 1.806091
837.2737, 1.978516
837.7559, 2.439018
838.2380, 2.958412
838.7201, 3.430275
839.2022, 3.666367
839.6843, 3.353333
840.1664, 2.625153
840.6486, 1.781349
841.1307, 0.8583370
841.6128, 0.4826430
842.0949, 1.460800
842.5770, 3.324013
843.0591, 3.696648
843.5413, 2.152916
844.0234, 1.336494
844.5055, 1.916992
844.9876, 2.824501
845.4697, 3.581070
845.9518, 4.061882
846.4340, 3.810097
846.9161, 2.254784
847.3982, 1.524963
847.8803, 2.805496
848.3624, 3.938026
848.8445, 3.468651
849.3267, 2.306206
849.8088, 1.814896
850.2909, 2.165955
850.7730, 2.597862
851.2551, 2.519432
851.7372, 2.254250
852.2194, 2.126892
852.7015, 2.140694
853.1836, 2.324104
853.6657, 2.672523
854.1478, 3.195763
854.6299, 3.970978
855.1121, 4.610924
855.5942, 3.992912
856.0763, 1.850143
856.5584, 0.7867200
857.0405, 1.255547
857.5226, 1.824463
858.0048, 1.887390
858.4869, 1.721603
858.9690, 1.725288
859.4511, 1.910446
859.9332, 2.041618
860.4153, 2.173149
860.8975, 2.167496
861.3796, 1.952332
861.8617, 1.612663
862.3438, 0.9183810
862.8259, 0.1706540
863.3080, 0.3343890
863.7902, 2.015915
864.2723, 3.612671
864.7544, 3.541702
865.2365, 2.656540
865.7186, 2.247421
866.2007, 2.279137
866.6829, 2.176239
867.1650, 1.729202
867.6471, 1.298607
868.1292, 1.353600
868.6113, 1.791855
869.0934, 2.000587
869.5756, 1.955772
870.0577, 1.818451
870.5398, 1.524300
871.0219, 1.423187
871.5040, 1.730148
871.9861, 2.373901
872.4683, 2.975182
872.9504, 3.851563
873.4325, 4.063889
873.9146, 3.057175
874.3967, 2.006218
874.8788, 1.271286
875.3610, 0.8424300
875.8431, 0.8196950
876.3252, 1.181503
876.8073, 1.392990
877.2894, 1.001060
877.7715, 0.5770720
878.2537, 0.6827390
878.7358, 0.9824520
879.2179, 0.8090670
879.7000, 0.2526470
880.1821, 0.1758650
880.6642, 1.120476
881.1464, 2.237991
881.6285, 2.048691
882.1106, 0.8293690
882.5927, 0.2480850
883.0748, 0.4016880
883.5569, 0.2189870
884.0391, 0.8398280
884.5212, 1.869324
885.0033, 1.801788
885.4854, 0.6775970
885.9675, 0.7853090
886.4496, 3.343857
886.9318, 4.722160
887.4139, 3.901535
887.8960, 2.589661
888.3781, 1.300247
888.8602, 0.3204800
889.3423, 0.3408740
889.8245, 1.730324
890.3066, 2.789391
890.7887, 2.996986
891.2708, 2.804756
891.7529, 2.034546
892.2350, 1.269829
892.7172, 1.519562
893.1993, 2.696953
893.6814, 3.525932
894.1635, 3.193199
894.6456, 2.258377
895.1277, 0.9248200
895.6099, 0.3648910
896.0920, 0.3551100
896.5741, 0.8752750
897.0562, 2.112007
897.5383, 2.788055
898.0204, 2.914925
898.5026, 2.322319
898.9847, 1.114708
899.4668, 0.7008210
899.9489, 1.178345
900.4310, 2.010483
900.9131, 3.381844
901.3953, 4.310303
901.8774, 3.680054
902.3595, 1.946312
902.8416, 1.216476
903.3237, 2.335175
903.8058, 2.925903
904.2880, 2.897583
904.7701, 2.473045
905.2522, 1.134056
905.7343, 0.2049480
906.2164, 0.1916810
906.6985, 1.205963
907.1807, 2.269424
907.6628, 2.107681
908.1449, 1.787567
908.6270, 2.024017
909.1091, 2.325752
909.5912, 1.962044
910.0734, 1.134995
910.5555, 0.6521300
911.0376, 0.8756640
911.5197, 1.382759
912.0018, 1.960052
912.4839, 2.401245
912.9661, 1.941940
913.4482, 0.8662800
913.9303, 0.8341220
914.4124, 2.257385
914.8945, 3.359291
915.3766, 2.392387
915.8588, 0.3004230
916.3409, 0.3213650
916.8230, 2.772247
917.3051, 4.227753
917.7872, 4.155518
918.2693, 3.935555
918.7515, 4.419281
919.2336, 4.856171
919.7157, 3.789818
920.1978, 0.8826750
920.6799, 0.2041780
921.1620, 2.430634
921.6442, 4.272186
922.1263, 4.238045
922.6084, 3.677879
923.0905, 3.333961
923.5726, 3.200485
924.0547, 3.173851
924.5369, 3.282379
925.0190, 3.305862
925.5011, 3.159454
925.9832, 2.912148
926.4653, 2.695572
926.9474, 2.350456
927.4296, 1.442009
927.9117, 0.1313710
928.3938, 0.5342100
928.8759, 0.2680050
929.3580, 1.448181
929.8401, 1.710777
930.3223, 1.530495
930.8044, 1.913589
931.2865, 2.770958
931.7686, 3.305374
932.2507, 3.201195
932.7328, 2.905098
933.2150, 2.956009
933.6971, 3.216118
934.1792, 3.076157
934.6613, 2.537369
935.1434, 2.222641
935.6255, 2.258171
936.1077, 2.478287
936.5898, 2.851715
937.0719, 3.192856
937.5540, 3.035515
938.0361, 2.229324
938.5182, 1.754570
939.0004, 1.597870
939.4825, 1.817101
939.9646, 2.987892
940.4467, 3.985336
940.9288, 3.295471
941.4109, 1.474174
941.8931, 0.9115520
942.3752, 2.891800
942.8573, 3.870514
943.3394, 2.484337
943.8215, 1.171326
944.3036, 1.246231
944.7858, 1.999718
945.2679, 2.503220
945.7500, 2.621727
946.2321, 2.590347
946.7142, 2.448624
947.1964, 2.220085
947.6785, 1.722229
948.1606, 1.279015
948.6427, 1.309052
949.1248, 1.716103
949.6069, 2.220291
950.0891, 2.691345
950.5712, 2.977692
951.0533, 2.754639
951.5354, 2.366226
952.0175, 2.481438
952.4996, 2.895958
952.9818, 2.926582
953.4639, 2.483940
953.9460, 2.268860
954.4281, 2.767067
954.9102, 3.411652
955.3923, 3.061867
955.8745, 1.891945
956.3566, 1.675789
956.8387, 2.480499
957.3208, 3.353355
957.8029, 4.049026
958.2850, 4.514076
958.7672, 4.636017
959.2493, 4.548622
959.7314, 4.858765
960.2135, 5.805626
960.6956, 6.246483
961.1777, 5.815506
961.6599, 5.502525
962.1420, 5.910912
962.6241, 6.474892
963.1062, 6.408218
963.5883, 5.691025
964.0704, 5.332787
964.5526, 5.709549
965.0347, 5.901299
965.5168, 5.480865
965.9989, 5.227036
966.4810, 5.919357
966.9631, 6.888588
967.4453, 7.007866
967.9274, 6.119980
968.4095, 5.278427
968.8916, 4.706528
969.3737, 4.335876
969.8558, 4.370178
970.3380, 4.401115
970.8201, 3.963539
971.3022, 3.204292
971.7843, 2.479736
972.2664, 1.887283
972.7485, 1.708557
973.2307, 2.495789
973.7128, 3.455498
974.1949, 3.846642
974.6770, 3.835335
975.1591, 3.728592
975.6412, 3.565216
976.1234, 3.166046
976.6055, 2.390327
977.0876, 1.672287
977.5698, 1.745781
978.0519, 2.174507
978.5340, 1.817650
979.0161, 0.9191820
979.4982, 0.4388350
979.9803, 0.6349030
980.4625, 1.337158
980.9446, 2.531517
981.4267, 3.711037
981.9088, 3.635048
982.3909, 2.434372
982.8730, 1.190559
983.3552, 4.5876000E-02
983.8373, 0.3972780
984.3194, 0.5665360
984.8015, 1.837616
985.2836, 2.398445
985.7657, 2.320091
986.2479, 1.835693
986.7300, 0.8932270
987.2121, 0.2851560
987.6942, 0.1132430
988.1763, 0.1750110
988.6584, 0.4325640
989.1406, 0.7945180
989.6227, 1.135025
990.1048, 1.457146
990.5869, 1.863785
991.0690, 2.622444
991.5511, 2.933846
992.0333, 2.415550
992.5154, 1.809433
992.9975, 1.422920
993.4796, 1.229462
993.9617, 1.262772
994.4438, 1.563370
994.9260, 1.623283
995.4081, 1.038429
995.8902, 0.7280430
996.3723, 1.290108
996.8544, 1.790855
997.3365, 1.497551
997.8187, 0.7126160
998.3008, 9.7730001E-03
998.7829, 0.6153340
999.2650, 0.8247990
999.7471, 0.1164170
1000.229, 0.4680940
1000.711, 0.2224350
1001.193, 0.1918560
1001.676, 1.5884001E-02
1002.158, 0.5352630
1002.640, 0.6224060
1003.122, 8.9752004E-02
1003.604, 0.3339610
1004.086, 1.359833
1004.568, 3.023132
1005.050, 2.931168
1005.533, 1.901062
1006.015, 0.7693100
1006.497, 0.1220020
1006.979, 0.2518160
1007.461, 0.6728520
1007.943, 1.745049
1008.425, 2.213425
1008.907, 2.336182
1009.389, 2.393135
1009.872, 2.377991
1010.354, 2.192284
1010.836, 1.869904
1011.318, 1.663025
1011.800, 1.739159
1012.282, 1.804504
1012.764, 1.395729
1013.246, 0.7499920
1013.729, 0.2282410
1014.211, 6.3147999E-02
1014.693, 0.4067610
1015.175, 1.644867
1015.657, 2.698814
1016.139, 2.919174
1016.621, 2.511078
1017.103, 1.557411
1017.585, 0.2760310
1018.068, 0.3671570
1018.550, 0.3722760
1019.032, 4.1747998E-02
1019.514, 0.5366060
1019.996, 0.9493410
1020.478, 0.8146970
1020.960, 0.4517440
1021.442, 0.6336520
1021.924, 1.339470
1022.407, 2.245346
1022.889, 3.220116
1023.371, 3.514870
1023.853, 2.883446
1024.335, 1.938705
1024.817, 1.129799
1025.299, 0.5972750
1025.781, 0.9223250
1026.264, 2.266747
1026.746, 3.132782
1027.228, 3.453796
1027.710, 3.380966
1028.192, 2.896049
1028.674, 2.205994
1029.156, 1.372971
1029.638, 0.5410610
1030.120, 0.3903120
1030.603, 1.214828
1031.085, 1.578812
1031.567, 1.184303
1032.049, 1.029289
1032.531, 1.579231
1033.013, 2.306984
1033.495, 2.748749
1033.977, 2.908958
1034.459, 2.779930
1034.942, 2.103470
1035.424, 1.810295
1035.906, 2.115601
1036.388, 2.255272
1036.870, 1.712250
1037.352, 1.161331
1037.834, 1.388245
1038.316, 2.225273
1038.799, 2.668945
1039.281, 2.501442
1039.763, 2.368256
1040.245, 2.054688
1040.727, 2.050667
1041.209, 2.858932
1041.691, 3.759407
1042.173, 4.204948
1042.656, 4.188622
1043.138, 3.725433
1043.620, 2.421707
1044.102, 1.465790
1044.584, 0.7895740
1045.066, 0.6373750
1045.548, 1.403259
1046.030, 2.505524
1046.512, 3.714226
1046.995, 4.802917
1047.477, 4.810890
1047.959, 2.792725
1048.441, 1.645241
1048.923, 2.662209
1049.405, 3.575325
1049.887, 3.168625
1050.369, 2.435936
1050.851, 2.452644
1051.334, 3.081955
1051.816, 3.513390
1052.298, 3.575066
1052.780, 3.540031
1053.262, 3.619926
1053.744, 3.434494
1054.226, 2.400627
1054.708, 1.329369
1055.191, 1.064011
1055.673, 1.543030
1056.155, 2.207199
1056.637, 3.180580
1057.119, 3.560875
1057.601, 2.468826
1058.083, 1.511154
1058.565, 1.528633
1059.047, 2.050247
1059.530, 2.969681
1060.012, 3.916687
1060.494, 3.929314
1060.976, 2.547180
1061.458, 1.322861
1061.940, 0.6228560
1062.422, 0.4592060
1062.904, 1.257843
1063.386, 2.262283
1063.869, 2.823593
1064.351, 2.929169
1064.833, 2.709686
1065.315, 2.160637
1065.797, 1.719360
1066.279, 1.647789
1066.761, 1.587608
1067.243, 1.213013
1067.726, 0.8669660
1068.208, 0.9247440
1068.690, 1.303169
1069.172, 1.736206
1069.654, 2.158600
1070.136, 2.608246
1070.618, 3.559662
1071.100, 3.997520
1071.583, 2.733818
1072.065, 1.223022
1072.547, 0.9860920
1073.029, 1.536850
1073.511, 1.578072
1073.993, 0.8209460
1074.475, 0.1725460
1074.957, 7.0152000E-02
1075.439, 5.4085001E-02
1075.922, 0.6441420
1076.404, 1.375534
1076.886, 2.367760
1077.368, 3.330513
1077.850, 3.860748
1078.332, 3.854141
1078.814, 3.097275
1079.296, 0.3701170
1079.779, 1.542671
1080.261, 0.7466890
1080.743, 0.8639300
1081.225, 2.138771
1081.707, 2.958435
1082.189, 3.344765
1082.671, 3.314865
1083.153, 2.896172
1083.635, 1.748085
1084.118, 0.9111630
1084.600, 1.279701
1085.082, 1.688828
1085.564, 0.9352870
1086.046, 9.7274996E-02
1086.528, 3.1158000E-02
1087.010, 1.088501
1087.492, 2.085098
1087.974, 2.580017
1088.457, 2.916557
1088.939, 3.241402
1089.421, 3.454239
1089.903, 3.448883
1090.385, 3.345589
1090.867, 3.477768
1091.349, 3.647995
1091.831, 2.985634
1092.314, 0.9004290
1092.796, 0.5164490
1093.278, 5.8745999E-02
1093.760, 0.8217540
1094.242, 0.8343810
1094.724, 0.5978470
1095.206, 0.4383390
1095.688, 0.5085300
1096.171, 1.147903
1096.653, 2.525436
1097.135, 3.624603
1097.617, 4.229889
1098.099, 4.392395
1098.581, 3.561684
1099.063, 2.839775
1099.545, 3.678162
1100.027, 5.051613
1100.510, 4.699661
1100.992, 2.273262
1101.474, 0.5611950
1101.956, 0.4060210
1102.438, 0.7423020
1102.920, 1.911102
1103.402, 2.838654
1103.884, 2.562469
1104.366, 1.798363
1104.849, 1.677910
1105.331, 2.222260
1105.813, 2.459610
1106.295, 1.989845
1106.777, 1.608597
1107.259, 1.424103
1107.741, 1.371498
1108.223, 1.355255
1108.706, 1.431007
1109.188, 1.748695
1109.670, 2.229256
1110.152, 2.449158
1110.634, 2.234894
1111.116, 2.097160
1111.598, 2.426857
1112.080, 2.357986
1112.563, 0.8649600
1113.045, 0.4182740
1113.527, 0.1133420
1114.009, 1.787903
1114.491, 2.859299
1114.973, 3.306862
1115.455, 3.218681
1115.937, 2.076500
1116.419, 1.319145
1116.901, 1.493896
1117.384, 1.688766
1117.866, 1.267776
1118.348, 0.6039430
1118.830, 0.3180540
1119.312, 0.4168850
1119.794, 0.5913090
1120.276, 0.6897200
1120.758, 1.378006
1121.241, 3.409187
1121.723, 4.411705
1122.205, 2.842957
1122.687, 0.6023560
1123.169, 2.7550001E-02
1123.651, 0.6491550
1124.133, 0.7759250
1124.615, 8.8173002E-02
1125.098, 0.2504350
1125.580, 1.602905
1126.062, 2.664253
1126.544, 3.007217
1127.026, 2.665138
1127.508, 1.472588
1127.990, 9.1019999E-03
1128.472, 0.1633530
1128.954, 1.001762
1129.437, 1.821365
1129.919, 2.293556
1130.401, 2.334877
1130.883, 1.899529
1131.365, 1.361008
1131.847, 0.9419630
1132.329, 0.5041660
1132.811, 0.3706740
1133.293, 1.333572
1133.776, 0.2547450
1134.258, 2.511116
1134.740, 3.484299
1135.222, 2.383904
1135.704, 1.271713
1136.186, 0.9897540
1136.668, 1.139610
1137.150, 1.404678
1137.633, 1.564140
1138.115, 1.562019
1138.597, 1.467316
1139.079, 0.9191130
1139.561, 0.1333690
1140.043, 2.8091000E-02
1140.525, 0.5616990
1141.007, 1.193703
1141.490, 1.413910
1141.972, 1.501457
1142.454, 1.882263
1142.936, 2.287788
1143.418, 2.071457
1143.900, 1.607338
1144.382, 2.021515
1144.864, 3.059624
1145.346, 3.072540
1145.828, 1.462097
1146.311, 0.1732030
1146.793, 1.245972
1147.275, 2.686630
1147.757, 2.453255
1148.239, 1.711838
1148.721, 2.020073
1149.203, 2.857498
1149.685, 2.872910
1150.168, 1.912758
1150.650, 1.024025
1151.132, 0.6516490
1151.614, 0.7331470
1152.096, 1.769257
1152.578, 2.666618
1153.060, 2.445641
1153.542, 1.836311
1154.025, 1.808105
1154.507, 2.201286
1154.989, 2.114372
1155.471, 1.198112
1155.953, 0.6739500
1156.435, 0.9245830
1156.917, 1.475822
1157.399, 2.710396
1157.881, 3.649803
1158.364, 3.462799
1158.846, 2.624138
1159.328, 1.875938
1159.810, 1.248505
1160.292, 0.7225800
1160.774, 0.1499940
1161.256, 4.0436000E-02
1161.738, 0.4529570
1162.220, 0.8647000
1162.703, 0.8735350
1163.185, 0.7569120
1163.667, 0.8056950
1164.149, 0.9168780
1164.631, 0.6375500
1165.113, 0.2673650
1165.595, 9.0714000E-02
1166.077, 2.210915
1166.560, 3.308083
1167.042, 2.612877
1167.524, 1.742599
1168.006, 1.678192
1168.488, 1.822739
1168.970, 1.198898
1169.452, 8.9538999E-02
1169.934, 4.4411000E-02
1170.417, 0.9898910
1170.899, 2.010521
1171.381, 3.045227
1171.863, 3.447723
1172.345, 3.035805
1172.827, 2.332108
1173.309, 1.692680
1173.791, 1.506348
1174.273, 3.011406
1174.755, 5.190414
1175.238, 5.407951
1175.720, 4.242966
1176.202, 3.475380
1176.684, 3.317726
1177.166, 3.061516
1177.648, 2.399666
1178.130, 1.774857
1178.612, 1.688042
1179.095, 1.668999
1179.577, 0.7969210
1180.059, 7.5859003E-02
1180.541, 1.191078
1181.023, 3.234055
1181.505, 4.353912
1181.987, 4.286499
1182.469, 4.003380
1182.952, 3.895180
1183.434, 3.635506
1183.916, 2.667496
1184.398, 1.996017
1184.880, 2.777359
1185.362, 3.602798
1185.844, 2.596786
1186.326, 0.6496350
1186.808, 0.2641830
1187.291, 1.896133
1187.773, 2.915161
1188.255, 2.620628
1188.737, 2.400238
1189.219, 2.382309
1189.701, 2.501701
1190.183, 2.813728
1190.665, 3.136780
1191.147, 3.389496
1191.630, 3.580696
1192.112, 3.033684
1192.594, 1.388039
1193.076, 0.7931590
1193.558, 1.398308
1194.040, 2.001411
1194.522, 2.463470
1195.004, 2.162842
1195.487, 0.5380170
1195.969, 1.009705
1196.451, 0.2695770
1196.933, 1.944511
1197.415, 2.320641
1197.897, 1.254112
1198.379, 1.152039
1198.861, 1.995926
1199.344, 2.267990
1199.826, 1.585510
1200.308, 0.8356550
1200.790, 0.5854800
1201.272, 0.7496110
1201.754, 1.543274
1202.236, 2.423607
1202.718, 2.359573
1203.200, 1.971680
1203.682, 2.615669
1204.165, 3.897499
1204.647, 4.210968
1205.129, 3.176613
1205.611, 2.392311
1206.093, 3.015709
1206.575, 3.563072
1207.057, 3.027168
1207.539, 2.427719
1208.022, 2.623337
1208.504, 3.028152
1208.986, 2.721313
1209.468, 1.974373
1209.950, 2.005219
1210.432, 3.297699
1210.914, 3.917595
1211.396, 3.375877
1211.879, 2.651749
1212.361, 1.229691
1212.843, 0.7385180
1213.325, 2.695358
1213.807, 5.011612
1214.289, 5.085571
1214.771, 3.361069
1215.253, 1.927711
1215.735, 0.7609020
1216.218, 0.3365550
1216.700, 0.6984250
1217.182, 1.576408
1217.664, 2.944847
1218.146, 3.790382
1218.628, 3.490753
1219.110, 2.661613
1219.592, 1.995445
1220.074, 1.553162
1220.557, 1.670860
1221.039, 2.091911
1221.521, 2.156189
1222.003, 1.883614
1222.485, 1.463966
1222.967, 0.9757460
1223.449, 0.6672290
1223.931, 0.6632770
1224.414, 0.6815340
1224.896, 0.2839510
1225.378, 9.4810002E-02
1225.860, 0.9020160
1226.342, 1.881828
1226.824, 1.978798
1227.306, 1.677803
1227.788, 2.430740
1228.271, 4.264450
1228.753, 4.673943
1229.235, 1.615089
1229.717, 0.1293870
1230.199, 0.7916260
1230.681, 2.179924
1231.163, 4.140930
1231.645, 5.287285
1232.127, 4.020836
1232.609, 1.848679
1233.092, 1.954994
1233.574, 4.248055
1234.056, 4.323082
1234.538, 1.738876
1235.020, 0.8441540
1235.502, 2.177711
1235.984, 3.087585
1236.466, 2.654617
1236.949, 1.889168
1237.431, 1.535736
1237.913, 1.558693
1238.395, 2.166054
1238.877, 2.979683
1239.359, 2.912148
1239.841, 2.414230
1240.323, 2.117348
1240.806, 2.033226
1241.288, 1.993752
1241.770, 1.930237
1242.252, 1.742615
1242.734, 1.150520
1243.216, 1.015099
1243.698, 2.805466
1244.180, 4.186852
1244.662, 2.700790
1245.145, 0.7005000
1245.627, 0.8246460
1246.109, 2.344406
1246.591, 3.266426
1247.073, 3.367538
1247.555, 3.391899
1248.037, 3.464607
1248.519, 3.309212
1249.001, 2.961609
1249.484, 2.189575
1249.966, 0.5897830
1250.448, 0.6155620
1250.930, 0.3627780
1251.412, 0.6690440
1251.894, 1.188835
1252.376, 1.268539
1252.858, 1.363655
1253.341, 1.492645
1253.823, 2.019203
1254.305, 2.870331
1254.787, 3.278870
1255.269, 3.020187
1255.751, 2.474052
1256.233, 1.789520
1256.715, 1.418541
1257.198, 2.132851
1257.680, 2.980148
1258.162, 2.741852
1258.644, 2.096741
1259.126, 1.909058
1259.608, 2.061020
1260.090, 2.018486
1260.572, 1.754448
1261.054, 1.901802
1261.536, 2.898376
1262.019, 3.713440
1262.501, 4.321892
1262.983, 4.471695
1263.465, 3.936966
1263.947, 3.089973
1264.429, 1.930252
1264.911, 0.8762510
1265.393, 0.6291500
1265.876, 1.042274
1266.358, 0.9473270
1266.840, 1.1290000E-03
1267.322, 0.5468830
1267.804, 2.386124
1268.286, 3.421219
1268.768, 3.185051
1269.250, 2.522217
1269.733, 1.898727
1270.215, 1.300056
1270.697, 0.6388550
1271.179, 9.4214998E-02
1271.661, 0.1350330
1272.143, 4.3540999E-02
1272.625, 0.7415770
1273.107, 1.662170
1273.589, 1.414734
1274.072, 0.2912140
1274.554, 0.2037730
1275.036, 1.785454
1275.518, 3.045471
1276.000, 3.015999
1276.482, 2.875023
1276.964, 2.953072
1277.446, 2.621201
1277.929, 1.979614
1278.411, 1.295837
1278.893, 1.234665
1279.375, 1.563232
1279.857, 1.358940
1280.339, 0.6720500
1280.821, 0.2118840
1281.303, 4.4630002E-03
1281.786, 0.1690220
1282.268, 0.0000000E+00
##END=



