##NAMES=Villiaumite
##RRUFFID=R060916
##IDEAL CHEMISTRY=NaF
##LOCALITY=St. Hilaire, Quebec, Canada
##OWNER=RRUFF
##SOURCE=Royal Ontario Museum
##DESCRIPTION=Reddish transparent single cleavage
##STATUS=The identification of this mineral has been confirmed by X-ray diffraction and chemical analysis
##URL=rruff.info/R060916
##MEASURED CHEMISTRY=Na_1.00_F_1.00_
148.0438, 0.0000000E+00
148.5260, 122.5488
149.0081, 235.3179
149.4902, 332.5215
149.9723, 403.0205
150.4544, 449.1035
150.9365, 499.5630
151.4187, 548.9868
151.9008, 597.5981
152.3829, 611.9956
152.8650, 589.2393
153.3471, 588.9614
153.8292, 572.3164
154.3114, 472.2769
154.7935, 351.4160
155.2756, 255.8906
155.7577, 189.1577
156.2398, 131.9888
156.7219, 85.31152
157.2041, 46.21045
157.6862, 11.05762
158.1683, 19.60791
158.6504, 40.98975
159.1325, 51.16895
159.6146, 48.98633
160.0968, 18.84766
160.5789, 58.98047
161.0610, 149.8398
161.5431, 226.2432
162.0252, 286.0078
162.5073, 346.6973
162.9895, 426.6260
163.4716, 528.9229
163.9537, 622.5840
164.4358, 699.8125
164.9179, 772.2744
165.4000, 853.7461
165.8822, 945.5781
166.3643, 1032.849
166.8464, 1102.298
167.3285, 1152.746
167.8106, 1189.900
168.2927, 1209.170
168.7749, 1217.703
169.2570, 1224.880
169.7391, 1232.413
170.2212, 1230.658
170.7033, 1203.234
171.1854, 1151.355
171.6676, 1111.648
172.1497, 1104.593
172.6318, 1106.297
173.1139, 1086.607
173.5960, 1039.793
174.0781, 985.3828
174.5603, 941.9160
175.0424, 908.4092
175.5245, 878.0742
176.0066, 852.3984
176.4887, 828.1514
176.9708, 800.5205
177.4530, 768.4414
177.9351, 735.1582
178.4172, 700.0732
178.8993, 664.0107
179.3814, 639.5879
179.8635, 640.7412
180.3457, 651.6680
180.8278, 645.6660
181.3099, 614.9023
181.7920, 584.5967
182.2741, 585.2041
182.7562, 610.0371
183.2384, 632.4541
183.7205, 641.7959
184.2026, 644.9629
184.6847, 654.3896
185.1668, 672.9854
185.6489, 691.2695
186.1311, 698.7432
186.6132, 697.7891
187.0953, 695.8633
187.5774, 691.2500
188.0595, 688.1797
188.5416, 697.0303
189.0238, 723.3535
189.5059, 747.0273
189.9880, 744.8633
190.4701, 723.9707
190.9522, 706.3301
191.4343, 699.5215
191.9165, 700.2422
192.3986, 704.3330
192.8807, 712.9365
193.3628, 720.8379
193.8449, 721.0156
194.3270, 716.4111
194.8092, 715.6650
195.2913, 725.1846
195.7734, 739.5117
196.2555, 748.1846
196.7376, 748.8242
197.2197, 750.5791
197.7019, 769.0908
198.1840, 796.4893
198.6661, 808.7920
199.1482, 788.3818
199.6303, 752.0684
200.1124, 725.4238
200.5946, 710.5254
201.0767, 701.2734
201.5588, 694.0557
202.0409, 688.8750
202.5230, 687.0791
203.0051, 692.7168
203.4873, 700.3408
203.9694, 703.1221
204.4515, 701.1426
204.9336, 692.3877
205.4157, 671.4756
205.8978, 643.4834
206.3800, 615.0605
206.8621, 581.9326
207.3442, 551.7979
207.8263, 537.5107
208.3084, 541.2725
208.7906, 546.7236
209.2727, 546.7842
209.7548, 540.3750
210.2369, 523.8906
210.7190, 483.1299
211.2011, 439.8369
211.6833, 420.6104
212.1654, 427.3232
212.6475, 442.6299
213.1296, 461.7031
213.6117, 480.9482
214.0938, 493.2451
214.5760, 499.0605
215.0581, 496.2842
215.5402, 471.9268
216.0223, 424.1074
216.5044, 398.1914
216.9865, 441.1191
217.4687, 517.5508
217.9508, 554.7764
218.4329, 522.1543
218.9150, 474.3975
219.3971, 458.4111
219.8792, 472.7998
220.3614, 490.4844
220.8435, 501.5010
221.3256, 505.9912
221.8077, 506.3027
222.2898, 502.9053
222.7719, 494.9268
223.2541, 480.8096
223.7362, 460.9932
224.2183, 436.9746
224.7004, 403.5117
225.1825, 371.0469
225.6646, 359.8115
226.1468, 379.2520
226.6289, 398.9609
227.1110, 401.1689
227.5931, 389.0801
228.0752, 373.8096
228.5573, 357.6455
229.0395, 342.1738
229.5216, 330.9365
230.0037, 325.9912
230.4858, 318.4199
230.9679, 303.0918
231.4500, 282.0957
231.9322, 258.1006
232.4143, 228.4482
232.8964, 203.0957
233.3785, 201.5244
233.8606, 226.5537
234.3427, 251.9229
234.8249, 275.1211
235.3070, 292.3291
235.7891, 292.3359
236.2712, 269.1406
236.7533, 242.1943
237.2354, 242.8750
237.7176, 275.4951
238.1997, 299.2402
238.6818, 294.3486
239.1639, 280.9541
239.6460, 291.0342
240.1281, 333.3057
240.6103, 371.3730
241.0924, 354.6104
241.5745, 272.3955
242.0566, 223.6387
242.5387, 242.7910
243.0208, 282.1602
243.5030, 301.8379
243.9851, 297.2227
244.4672, 280.6865
244.9493, 261.8770
245.4314, 240.6055
245.9135, 219.1797
246.3957, 194.5615
246.8778, 172.3584
247.3599, 157.2539
247.8420, 148.6377
248.3241, 142.4170
248.8062, 136.6387
249.2884, 130.9492
249.7705, 117.7471
250.2526, 74.05273
250.7347, 45.86328
251.2168, 71.12695
251.6989, 130.4355
252.1811, 169.6855
252.6632, 151.7275
253.1453, 87.33789
253.6274, 53.04199
254.1095, 58.67969
254.5916, 78.20898
255.0738, 115.6924
255.5559, 161.2861
256.0380, 203.3340
256.5201, 237.1426
257.0022, 258.2031
257.4843, 252.3867
257.9665, 176.2900
258.4486, 124.4951
258.9307, 113.1016
259.4128, 124.5869
259.8949, 143.6748
260.3770, 164.1172
260.8592, 183.4160
261.3413, 199.4219
261.8234, 216.6094
262.3055, 223.4160
262.7876, 215.5625
263.2697, 201.5996
263.7519, 188.7910
264.2340, 177.4307
264.7161, 164.1602
265.1982, 147.3857
265.6803, 124.8779
266.1624, 105.6260
266.6446, 91.39160
267.1267, 78.52734
267.6088, 59.49219
268.0909, 37.99805
268.5730, 29.16406
269.0551, 54.72363
269.5373, 120.7471
270.0194, 149.2842
270.5015, 99.57715
270.9836, 47.40625
271.4657, 12.03320
271.9478, 7.660156
272.4300, 19.20703
272.9121, 27.37598
273.3942, 31.92480
273.8763, 30.44922
274.3584, 22.52734
274.8405, 8.680664
275.3227, 20.05273
275.8048, 51.12207
276.2869, 65.31543
276.7690, 48.81152
277.2511, 18.57715
277.7332, 15.53320
278.2154, 52.87988
278.6975, 81.32812
279.1796, 72.16699
279.6617, 53.45312
280.1438, 51.05957
280.6259, 72.99609
281.1081, 107.1318
281.5902, 147.4492
282.0723, 197.2207
282.5544, 222.9238
283.0365, 192.6914
283.5186, 148.0225
284.0008, 126.6152
284.4829, 133.0381
284.9650, 147.9336
285.4471, 161.1709
285.9292, 170.9805
286.4113, 171.3154
286.8935, 157.0674
287.3756, 139.5439
287.8577, 133.8857
288.3398, 137.9443
288.8219, 130.8174
289.3040, 89.48535
289.7862, 36.27832
290.2683, 12.66602
290.7504, 27.31055
291.2325, 47.34766
291.7146, 43.92090
292.1967, 22.33008
292.6789, 8.233398
293.1610, 13.76562
293.6431, 21.95312
294.1252, 19.37598
294.6073, 6.042969
295.0894, 15.88379
295.5716, 52.34668
296.0537, 94.47852
296.5358, 104.0088
297.0179, 56.38477
297.5000, 6.240234
297.9821, 28.37695
298.4643, 48.78711
298.9464, 54.64062
299.4285, 43.03516
299.9106, 24.73145
300.3927, 27.07910
300.8748, 70.82715
301.3570, 100.5059
301.8391, 93.66504
302.3212, 78.11523
302.8033, 88.09473
303.2854, 131.0742
303.7675, 180.9600
304.2497, 201.7354
304.7318, 173.9180
305.2139, 165.2695
305.6960, 194.1738
306.1781, 230.7979
306.6602, 254.7285
307.1424, 259.3848
307.6245, 254.9688
308.1066, 251.8027
308.5887, 250.3877
309.0708, 237.5010
309.5529, 196.7324
310.0351, 162.6855
310.5172, 143.1904
310.9993, 133.7373
311.4814, 128.7783
311.9635, 125.6670
312.4456, 121.6455
312.9278, 105.7441
313.4099, 64.87012
313.8920, 37.79199
314.3741, 43.44824
314.8562, 59.06934
315.3383, 64.54492
315.8205, 54.02539
316.3026, 34.67969
316.7847, 11.37891
317.2668, 17.72754
317.7489, 33.75000
318.2310, 24.83203
318.7132, 8.330078
319.1953, 8.298828
319.6774, 23.35156
320.1595, 29.87891
320.6416, 10.61621
321.1237, 23.04199
321.6059, 25.52832
322.0880, 18.72461
322.5701, 68.01074
323.0522, 83.64746
323.5343, 77.98730
324.0164, 85.30859
324.4986, 130.1641
324.9807, 183.9219
325.4628, 212.5088
325.9449, 215.8672
326.4270, 213.5469
326.9091, 213.4062
327.3913, 216.5371
327.8734, 225.5830
328.3555, 250.6074
328.8376, 268.2031
329.3197, 259.5166
329.8018, 235.6855
330.2840, 222.9355
330.7661, 232.6270
331.2482, 249.7939
331.7303, 246.1504
332.2125, 205.9336
332.6946, 181.3408
333.1767, 193.0293
333.6588, 210.7500
334.1409, 203.2598
334.6230, 169.1797
335.1052, 136.0586
335.5873, 135.0996
336.0694, 174.9121
336.5515, 178.7891
337.0336, 114.0859
337.5157, 52.52539
337.9979, 22.32617
338.4800, 15.25000
338.9621, 9.279297
339.4442, 9.646484
339.9263, 35.43750
340.4084, 42.90625
340.8906, 15.88281
341.3727, 3.751953
341.8548, 0.9921880
342.3369, 10.18945
342.8190, 3.003906
343.3011, 26.33008
343.7833, 61.93359
344.2654, 82.66016
344.7475, 86.21484
345.2296, 92.45508
345.7117, 103.5703
346.1938, 118.3008
346.6760, 141.1074
347.1581, 168.9688
347.6402, 186.3438
348.1223, 177.4492
348.6044, 152.4160
349.0865, 134.5195
349.5687, 124.9961
350.0508, 124.3945
350.5329, 141.9492
351.0150, 169.2266
351.4971, 184.4004
351.9792, 177.0664
352.4614, 167.4922
352.9435, 174.5215
353.4256, 194.0566
353.9077, 209.9473
354.3898, 217.8086
354.8719, 222.9160
355.3541, 226.4512
355.8362, 227.2695
356.3183, 224.7949
356.8004, 226.9199
357.2825, 222.1328
357.7646, 183.6055
358.2468, 109.7402
358.7289, 48.14844
359.2110, 58.28711
359.6931, 162.9980
360.1752, 200.0176
360.6573, 111.8574
361.1395, 23.79883
361.6216, 0.9316410
362.1037, 18.58203
362.5858, 27.18359
363.0679, 11.35156
363.5500, 78.09961
364.0322, 96.10742
364.5143, 21.34961
364.9964, 34.73242
365.4785, 53.10352
365.9606, 50.67383
366.4427, 34.70508
366.9249, 8.986328
367.4070, 9.062500
367.8891, 10.16016
368.3712, 70.84766
368.8533, 105.2871
369.3354, 81.84375
369.8176, 59.95117
370.2997, 77.21094
370.7818, 126.1133
371.2639, 178.8633
371.7460, 232.4648
372.2281, 277.1484
372.7103, 288.7891
373.1924, 262.3750
373.6745, 240.0371
374.1566, 253.0898
374.6387, 282.0254
375.1208, 281.4492
375.6030, 230.3848
376.0851, 184.9121
376.5672, 180.0801
377.0493, 201.2070
377.5314, 217.5938
378.0135, 220.7363
378.4957, 216.0625
378.9778, 210.3496
379.4599, 206.7305
379.9420, 195.5254
380.4241, 169.8262
380.9063, 139.6016
381.3884, 102.4648
381.8705, 65.03320
382.3526, 49.11914
382.8347, 74.66016
383.3168, 134.1973
383.7990, 162.3887
384.2811, 134.1562
384.7632, 102.9238
385.2453, 66.66602
385.7274, 35.54492
386.2095, 23.55664
386.6917, 34.64844
387.1738, 53.44727
387.6559, 57.27539
388.1380, 43.55273
388.6201, 31.42773
389.1022, 17.40430
389.5844, 10.77930
390.0665, 17.73047
390.5486, 36.65625
391.0307, 60.57422
391.5128, 94.79688
391.9949, 128.6113
392.4771, 130.6426
392.9592, 92.99219
393.4413, 76.44141
393.9234, 127.6094
394.4055, 216.4609
394.8876, 278.5098
395.3698, 302.7402
395.8519, 316.3262
396.3340, 334.1602
396.8161, 350.3555
397.2982, 349.8145
397.7803, 327.0469
398.2625, 296.6309
398.7446, 277.7383
399.2267, 273.5488
399.7088, 264.3184
400.1909, 249.5898
400.6730, 230.9375
401.1552, 202.9082
401.6373, 170.3086
402.1194, 148.2852
402.6015, 147.2305
403.0836, 161.8008
403.5657, 171.6680
404.0479, 190.9473
404.5300, 182.1094
405.0121, 108.6328
405.4942, 28.81250
405.9763, 0.2558590
406.4584, 28.82422
406.9406, 67.92383
407.4227, 59.55273
407.9048, 6.720703
408.3869, 14.06055
408.8690, 24.22461
409.3511, 57.11328
409.8333, 31.52734
410.3154, 26.41016
410.7975, 59.31836
411.2796, 36.40625
411.7617, 5.800781
412.2438, 26.72266
412.7260, 29.80273
413.2081, 45.04883
413.6902, 88.39648
414.1723, 142.7949
414.6544, 172.8750
415.1365, 170.3965
415.6187, 179.3457
416.1008, 226.0430
416.5829, 275.9043
417.0650, 290.3164
417.5471, 269.5586
418.0292, 247.3086
418.5114, 252.7012
418.9935, 283.5547
419.4756, 298.1738
419.9577, 278.4062
420.4398, 267.3047
420.9219, 281.9824
421.4041, 299.9316
421.8862, 299.6602
422.3683, 279.2793
422.8504, 249.6094
423.3325, 222.3027
423.8146, 195.9531
424.2968, 183.1328
424.7789, 199.2285
425.2610, 212.7500
425.7431, 207.7617
426.2252, 187.6719
426.7073, 158.5176
427.1895, 110.0742
427.6716, 63.89844
428.1537, 56.30273
428.6358, 86.66992
429.1179, 120.3203
429.6000, 148.4004
430.0822, 165.8867
430.5643, 159.3652
431.0464, 118.0918
431.5285, 89.16992
432.0106, 99.64453
432.4927, 121.0703
432.9749, 114.3457
433.4570, 78.37109
433.9391, 52.19141
434.4212, 74.26758
434.9033, 143.1348
435.3854, 175.4023
435.8676, 127.8516
436.3497, 93.61523
436.8318, 100.3516
437.3139, 126.3164
437.7960, 147.3945
438.2781, 154.8086
438.7603, 152.0156
439.2424, 138.3164
439.7245, 110.7090
440.2066, 100.0332
440.6887, 116.1484
441.1708, 142.3887
441.6530, 173.2949
442.1351, 205.7324
442.6172, 230.9434
443.0993, 247.2832
443.5814, 252.8496
444.0635, 236.5332
444.5457, 204.4707
445.0278, 192.0117
445.5099, 215.8496
445.9920, 257.4160
446.4741, 287.0586
446.9562, 311.6484
447.4384, 313.1641
447.9205, 263.2207
448.4026, 207.9766
448.8847, 194.3750
449.3668, 218.9238
449.8489, 241.9258
450.3311, 233.2266
450.8132, 198.0352
451.2953, 172.9902
451.7774, 164.4531
452.2595, 159.0801
452.7416, 163.6152
453.2238, 166.0938
453.7059, 151.5742
454.1880, 118.7109
454.6701, 86.25977
455.1522, 74.94727
455.6343, 82.81250
456.1165, 90.31836
456.5986, 100.0566
457.0807, 102.3184
457.5628, 81.90820
458.0449, 50.70703
458.5270, 30.68359
459.0092, 27.86328
459.4913, 33.64648
459.9734, 49.07031
460.4555, 68.08984
460.9376, 72.26367
461.4197, 54.37891
461.9019, 34.43945
462.3840, 38.79492
462.8661, 73.89844
463.3482, 104.6016
463.8303, 148.8535
464.3124, 172.6680
464.7946, 137.8613
465.2767, 71.73438
465.7588, 25.80859
466.2409, 25.89844
466.7230, 61.58203
467.2051, 110.0742
467.6873, 181.3652
468.1694, 225.8789
468.6515, 221.5391
469.1336, 206.2031
469.6157, 194.9004
470.0978, 187.6445
470.5800, 187.0742
471.0621, 212.5449
471.5442, 236.8066
472.0263, 205.7051
472.5084, 120.3652
472.9905, 47.27930
473.4727, 13.09766
473.9548, 11.08594
474.4369, 37.02930
474.9190, 110.6914
475.4011, 149.7012
475.8832, 111.5508
476.3654, 52.22656
476.8475, 17.91992
477.3296, 11.95117
477.8117, 17.97852
478.2938, 25.20117
478.7759, 33.19727
479.2581, 39.14648
479.7402, 46.03711
480.2223, 46.43750
480.7044, 36.89062
481.1865, 23.06250
481.6686, 3.142578
482.1508, 20.29297
482.6329, 28.79688
483.1150, 7.355469
483.5971, 71.25781
484.0792, 99.56445
484.5613, 81.96484
485.0435, 66.31836
485.5256, 80.46875
486.0077, 116.0059
486.4898, 148.7188
486.9719, 178.8730
487.4540, 204.8535
487.9362, 223.2617
488.4183, 237.7988
488.9004, 254.9844
489.3825, 275.0645
489.8646, 291.4766
490.3467, 298.4961
490.8289, 295.9629
491.3110, 284.9473
491.7931, 254.8574
492.2752, 228.0488
492.7573, 205.4922
493.2394, 189.5645
493.7216, 183.9062
494.2037, 189.1484
494.6858, 200.2285
495.1679, 218.9492
495.6501, 241.9961
496.1322, 244.8516
496.6143, 223.7051
497.0964, 187.7969
497.5785, 126.6406
498.0606, 56.98633
498.5428, 21.55664
499.0249, 44.77734
499.5070, 71.75586
499.9891, 82.73438
500.4712, 77.99609
500.9533, 49.49219
501.4355, 2.626953
501.9176, 51.87891
502.3997, 71.13867
502.8818, 59.87305
503.3639, 31.41016
503.8460, 46.63672
504.3282, 105.2559
504.8103, 118.9902
505.2924, 109.9648
505.7745, 105.3438
506.2566, 113.1816
506.7387, 118.9512
507.2209, 99.86328
507.7030, 60.88477
508.1851, 41.33984
508.6672, 44.72070
509.1493, 67.95312
509.6314, 132.0938
510.1136, 213.3047
510.5957, 243.2480
511.0778, 169.6367
511.5599, 109.0039
512.0420, 132.9277
512.5241, 198.3828
513.0062, 240.0410
513.4883, 243.3711
513.9705, 232.1875
514.4526, 230.5742
514.9347, 238.9844
515.4168, 244.7676
515.8989, 241.3613
516.3810, 242.5156
516.8632, 261.6348
517.3453, 281.9590
517.8274, 282.2422
518.3095, 259.3730
518.7916, 232.6094
519.2737, 215.2012
519.7559, 207.8496
520.2380, 207.0801
520.7201, 214.7344
521.2022, 220.9785
521.6843, 221.7715
522.1664, 214.8457
522.6486, 195.3262
523.1307, 146.1270
523.6128, 110.0547
524.0949, 103.4941
524.5770, 116.6699
525.0591, 140.1465
525.5413, 171.1680
526.0234, 209.7324
526.5055, 259.9219
526.9876, 318.3672
527.4697, 349.0332
527.9518, 345.3672
528.4340, 323.1348
528.9161, 265.5059
529.3982, 206.2969
529.8803, 179.2969
530.3624, 188.4258
530.8445, 203.8848
531.3267, 208.0156
531.8088, 204.8223
532.2909, 199.4277
532.7730, 192.4316
533.2551, 194.0801
533.7372, 212.1055
534.2194, 240.3789
534.7015, 260.3438
535.1836, 261.1504
535.6657, 274.6250
536.1478, 327.8887
536.6299, 376.0332
537.1121, 374.9297
537.5942, 333.2539
538.0763, 293.4512
538.5584, 284.3125
539.0405, 296.2656
539.5226, 305.1387
540.0048, 309.5996
540.4869, 306.5000
540.9690, 288.3848
541.4511, 271.8945
541.9332, 280.8848
542.4153, 309.7168
542.8975, 312.1973
543.3796, 244.2891
543.8617, 165.2402
544.3438, 128.4102
544.8259, 127.9102
545.3080, 142.4043
545.7902, 165.2227
546.2723, 187.8594
546.7544, 197.1875
547.2365, 193.2812
547.7186, 175.8867
548.2007, 118.0859
548.6829, 76.47656
549.1650, 82.77539
549.6471, 117.2441
550.1292, 147.1465
550.6113, 160.0059
551.0934, 165.4219
551.5756, 175.0137
552.0577, 187.7539
552.5398, 196.7363
553.0219, 199.3281
553.5040, 202.2461
553.9861, 211.0918
554.4683, 224.9551
554.9504, 237.9980
555.4325, 255.8496
555.9146, 265.7988
556.3967, 258.9805
556.8788, 248.3398
557.3610, 236.5215
557.8431, 226.7676
558.3252, 233.8613
558.8073, 275.4766
559.2894, 343.6914
559.7715, 376.8672
560.2537, 370.8242
560.7358, 345.6172
561.2179, 283.5820
561.7000, 220.6113
562.1821, 183.5488
562.6642, 174.4961
563.1464, 181.0645
563.6285, 203.4746
564.1106, 234.1172
564.5927, 272.9023
565.0748, 314.2070
565.5569, 328.1582
566.0391, 297.5137
566.5212, 245.7969
567.0033, 221.2930
567.4854, 242.1348
567.9675, 247.2637
568.4496, 230.6309
568.9318, 206.5566
569.4139, 171.3125
569.8960, 135.6719
570.3781, 121.8223
570.8602, 143.6172
571.3423, 168.5684
571.8245, 150.1191
572.3066, 96.96094
572.7887, 61.47266
573.2708, 55.38281
573.7529, 54.81836
574.2350, 41.96094
574.7172, 17.94922
575.1993, 6.552734
575.6814, 61.30469
576.1635, 79.09766
576.6456, 7.261719
577.1278, 87.29492
577.6099, 133.8066
578.0920, 125.8867
578.5742, 106.9961
579.0563, 111.7578
579.5384, 135.5137
580.0205, 165.2988
580.5026, 207.9512
580.9847, 229.6465
581.4669, 201.5195
581.9490, 164.1562
582.4311, 168.8594
582.9132, 215.4141
583.3953, 240.5684
583.8774, 206.7051
584.3596, 162.2109
584.8417, 135.6738
585.3238, 129.2129
585.8059, 151.9609
586.2880, 206.7168
586.7701, 263.4590
587.2523, 274.5078
587.7344, 231.8965
588.2165, 193.4785
588.6986, 141.1992
589.1807, 118.6152
589.6628, 176.9102
590.1450, 257.0781
590.6271, 274.3887
591.1092, 202.4844
591.5913, 119.2617
592.0734, 72.06836
592.5555, 49.62500
593.0377, 34.21875
593.5198, 22.05664
594.0019, 12.90625
594.4840, 7.312500
594.9661, 3.187500
595.4482, 6.994141
595.9304, 32.68945
596.4125, 48.13281
596.8946, 56.93945
597.3767, 53.21094
597.8588, 28.13086
598.3409, 12.01758
598.8231, 52.28906
599.3052, 87.15430
599.7873, 116.7188
600.2694, 141.6094
600.7515, 161.6094
601.2336, 176.4551
601.7158, 185.9922
602.1979, 189.6914
602.6800, 186.5410
603.1621, 177.1094
603.6442, 167.3418
604.1263, 156.2617
604.6085, 146.5176
605.0906, 137.5996
605.5727, 130.6270
606.0548, 122.5508
606.5369, 115.9805
607.0190, 123.7559
607.5012, 165.1270
607.9833, 216.2754
608.4654, 216.0332
608.9475, 162.9551
609.4296, 126.0918
609.9117, 128.6387
610.3939, 146.8867
610.8760, 155.1660
611.3581, 152.3672
611.8402, 152.8086
612.3223, 182.3242
612.8044, 185.9199
613.2866, 110.9590
613.7687, 12.04492
614.2508, 36.79688
614.7329, 20.70312
615.2150, 17.70898
615.6971, 42.58594
616.1793, 54.47852
616.6614, 52.03125
617.1435, 31.35742
617.6256, 16.25195
618.1077, 16.72070
618.5898, 26.36133
619.0720, 36.84961
619.5541, 48.80859
620.0362, 57.25781
620.5183, 54.22070
621.0004, 54.32031
621.4825, 69.08789
621.9647, 92.28711
622.4468, 113.5176
622.9289, 128.7051
623.4110, 137.4062
623.8931, 137.0742
624.3752, 127.8496
624.8574, 123.3809
625.3395, 125.8438
625.8216, 127.0430
626.3037, 120.1172
626.7858, 111.8867
627.2679, 116.1113
627.7501, 138.3125
628.2322, 146.5820
628.7143, 122.0996
629.1964, 90.32031
629.6785, 66.29492
630.1606, 52.14453
630.6428, 50.02539
631.1249, 61.52344
631.6070, 81.45508
632.0891, 99.72461
632.5712, 118.0254
633.0533, 125.8887
633.5355, 113.5430
634.0176, 106.3926
634.4997, 138.7812
634.9818, 179.3594
635.4639, 170.1406
635.9460, 84.01953
636.4282, 28.35742
636.9103, 61.06250
637.3924, 121.1855
637.8745, 161.3828
638.3566, 179.5762
638.8387, 186.1289
639.3209, 185.8281
639.8030, 179.6172
640.2851, 168.4219
640.7672, 151.7246
641.2493, 135.2754
641.7314, 119.3926
642.2136, 103.3164
642.6957, 74.73828
643.1778, 49.72656
643.6599, 65.55273
644.1420, 152.8555
644.6241, 203.1602
645.1063, 144.7695
645.5884, 60.63867
646.0705, 29.37695
646.5526, 43.29688
647.0347, 56.46094
647.5168, 45.37109
647.9990, 22.51172
648.4811, 10.40039
648.9632, 10.56641
649.4453, 4.890625
649.9274, 14.74219
650.4095, 25.26758
650.8917, 4.179688
651.3738, 32.82812
651.8559, 49.53906
652.3380, 29.94141
652.8201, 25.94531
653.3022, 66.08984
653.7844, 115.2734
654.2665, 146.4102
654.7486, 160.4180
655.2307, 165.3594
655.7128, 165.3750
656.1949, 170.1523
656.6771, 199.0820
657.1592, 251.9258
657.6413, 283.3984
658.1234, 283.7109
658.6055, 279.0859
659.0876, 288.9336
659.5698, 303.2500
660.0519, 297.9375
660.5340, 269.6641
661.0161, 231.3633
661.4982, 173.3945
661.9803, 117.1289
662.4625, 79.64453
662.9446, 57.36328
663.4267, 38.55859
663.9088, 17.99609
664.3909, 0.4726560
664.8730, 6.113281
665.3552, 2.457031
665.8373, 1.714844
666.3194, 5.554688
666.8015, 11.83984
667.2836, 24.31250
667.7657, 38.64062
668.2479, 42.70312
668.7300, 29.85938
669.2121, 24.65625
669.6942, 29.84375
670.1763, 42.19922
670.6584, 69.91406
671.1406, 100.7266
671.6227, 109.6602
672.1048, 85.36328
672.5869, 58.96094
673.0690, 62.00000
673.5511, 86.01172
674.0333, 111.3633
674.5154, 137.6992
674.9975, 152.4570
675.4796, 145.8750
675.9617, 131.2266
676.4438, 132.4414
676.9260, 151.6797
677.4081, 181.8633
677.8902, 251.1250
678.3723, 299.0508
678.8544, 290.2461
679.3365, 252.1953
679.8187, 220.9180
680.3008, 205.3594
680.7829, 192.9805
681.2650, 177.5156
681.7471, 157.3984
682.2292, 126.5273
682.7114, 86.79297
683.1935, 49.38281
683.6756, 17.89062
684.1577, 4.000000
684.6398, 9.523438
685.1219, 3.777344
685.6041, 13.95312
686.0862, 18.09766
686.5683, 23.10547
687.0504, 41.17188
687.5325, 54.26562
688.0146, 34.85547
688.4968, 18.61328
688.9789, 47.91016
689.4610, 3.128906
689.9431, 62.99219
690.4252, 52.32422
690.9073, 1.910156
691.3895, 15.22266
691.8716, 20.11328
692.3537, 79.39453
692.8358, 139.6914
693.3179, 196.4336
693.8000, 210.4727
694.2822, 160.3477
694.7643, 132.4609
695.2464, 157.7383
695.7285, 201.9961
696.2106, 237.7109
696.6927, 265.0703
697.1749, 283.6875
697.6570, 300.8789
698.1391, 300.5312
698.6212, 258.8320
699.1033, 206.2344
699.5854, 173.4727
700.0676, 166.0430
700.5497, 183.3086
701.0318, 233.5234
701.5139, 287.4453
701.9960, 271.9492
702.4781, 194.9258
702.9603, 157.7227
703.4424, 175.2812
703.9245, 212.8516
704.4066, 252.4492
704.8887, 287.2695
705.3708, 286.2578
705.8530, 203.9062
706.3351, 153.3164
706.8172, 172.5430
707.2993, 193.3516
707.7814, 162.1406
708.2635, 100.2461
708.7457, 60.29688
709.2278, 61.69141
709.7099, 80.73828
710.1920, 109.6680
710.6741, 136.3828
711.1563, 129.0898
711.6384, 89.64844
712.1205, 53.72266
712.6026, 38.60547
713.0847, 41.17578
713.5668, 57.79297
714.0490, 91.75781
714.5311, 122.2773
715.0132, 149.2109
715.4953, 171.7031
715.9774, 191.2617
716.4595, 205.2344
716.9417, 212.8242
717.4238, 214.4180
717.9059, 200.3828
718.3880, 136.7891
718.8701, 85.66016
719.3522, 108.1133
719.8344, 171.6484
720.3165, 215.0352
720.7986, 222.6836
721.2807, 220.6250
721.7628, 234.0469
722.2449, 257.8906
722.7271, 276.6523
723.2092, 292.1523
723.6913, 281.9805
724.1734, 231.5703
724.6555, 173.9102
725.1376, 144.4766
725.6198, 141.5859
726.1019, 118.9922
726.5840, 37.53906
727.0661, 7.214844
727.5482, 23.54297
728.0303, 76.33984
728.5125, 119.9492
728.9946, 148.9141
729.4767, 163.9922
729.9588, 166.5859
730.4409, 151.5547
730.9230, 94.98828
731.4052, 22.75391
731.8873, 11.56250
732.3694, 3.867188
732.8515, 26.64062
733.3336, 71.36328
733.8157, 118.2227
734.2979, 140.3711
734.7800, 130.9375
735.2621, 124.0391
735.7442, 117.1797
736.2263, 116.6406
736.7084, 131.2852
737.1906, 151.1055
737.6727, 162.9883
738.1548, 166.1445
738.6369, 163.6562
739.1190, 128.9102
739.6011, 117.6484
740.0833, 205.5039
740.5654, 321.3008
741.0475, 343.8789
741.5296, 255.8359
742.0117, 159.7969
742.4938, 147.7148
742.9760, 183.6328
743.4581, 196.4727
743.9402, 186.0625
744.4223, 135.6289
744.9044, 30.99609
745.3865, 40.60938
745.8687, 12.06641
746.3508, 166.6875
746.8329, 265.8242
747.3150, 290.6953
747.7971, 297.0781
748.2792, 265.7461
748.7614, 240.2969
749.2435, 255.2344
749.7256, 293.1094
750.2077, 307.2578
750.6898, 274.1406
751.1719, 253.2773
751.6541, 290.5039
752.1362, 341.7539
752.6183, 365.3164
753.1004, 362.1250
753.5825, 345.3555
754.0646, 320.6602
754.5468, 289.3242
755.0289, 244.4648
755.5110, 192.2617
755.9931, 174.7539
756.4752, 195.5742
756.9573, 216.8164
757.4395, 231.4805
757.9216, 224.4219
758.4037, 170.2461
758.8858, 64.59766
759.3679, 19.93359
759.8500, 115.5547
760.3322, 145.2266
760.8143, 24.85547
761.2964, 107.7109
761.7785, 122.1914
762.2606, 43.39062
762.7427, 12.09375
763.2249, 114.0039
763.7070, 216.4727
764.1891, 208.4023
764.6712, 159.7852
765.1533, 177.9375
765.6354, 255.1758
766.1176, 305.6367
766.5997, 280.3711
767.0818, 223.7266
767.5639, 208.9023
768.0460, 232.0508
768.5281, 246.3672
769.0103, 248.6953
769.4924, 249.7617
769.9745, 254.5703
770.4566, 261.3086
770.9387, 268.8711
771.4208, 281.4414
771.9030, 272.5391
772.3851, 210.2109
772.8672, 168.5117
773.3493, 184.0703
773.8314, 213.7617
774.3135, 217.3750
774.7957, 195.0312
775.2778, 173.1406
775.7599, 163.3945
776.2420, 155.8242
776.7241, 145.9922
777.2062, 132.8750
777.6884, 113.2031
778.1705, 88.26172
778.6526, 64.22656
779.1347, 44.72656
779.6168, 28.55859
780.0989, 10.25391
780.5811, 8.312500
781.0632, 4.800781
781.5453, 26.38672
782.0274, 44.58984
782.5095, 22.24609
782.9916, 8.070313
783.4738, 13.34375
783.9559, 102.8711
784.4380, 156.1406
784.9201, 135.3047
785.4022, 129.0820
785.8843, 163.6484
786.3665, 206.6133
786.8486, 232.0352
787.3307, 241.2031
787.8128, 259.8047
788.2949, 308.3320
788.7770, 352.8984
789.2592, 367.3789
789.7413, 372.0234
790.2234, 404.9766
790.7055, 454.3242
791.1876, 461.7305
791.6697, 391.3281
792.1519, 299.7656
792.6340, 268.3672
793.1161, 282.0117
793.5982, 284.9023
794.0803, 273.7266
794.5624, 252.8086
795.0446, 223.1172
795.5267, 190.1055
796.0088, 159.6367
796.4909, 130.7188
796.9730, 123.1172
797.4551, 155.3633
797.9373, 170.7969
798.4194, 128.9023
798.9015, 87.28516
799.3836, 111.1055
799.8657, 185.0664
800.3478, 222.0859
800.8300, 167.1445
801.3121, 132.6406
801.7942, 169.0469
802.2763, 220.5938
802.7584, 250.2188
803.2405, 253.0820
803.7227, 229.8945
804.2048, 174.3125
804.6869, 135.0312
805.1690, 179.8477
805.6511, 255.3203
806.1332, 273.4805
806.6154, 241.3906
807.0975, 190.7227
807.5796, 134.6875
808.0617, 114.2305
808.5438, 189.7227
809.0259, 329.7930
809.5081, 347.4922
809.9902, 221.4531
810.4723, 128.2930
810.9544, 101.8008
811.4365, 123.7109
811.9186, 200.0078
812.4008, 314.1289
812.8829, 374.8867
813.3650, 345.4961
813.8471, 314.2070
814.3292, 282.6562
814.8113, 258.3477
815.2935, 228.7109
815.7756, 209.1523
816.2577, 231.4336
816.7398, 309.2266
817.2219, 368.3203
817.7040, 362.6445
818.1862, 339.2578
818.6683, 353.8242
819.1504, 365.3242
819.6325, 300.2695
820.1146, 165.0508
820.5967, 49.26562
821.0789, 16.09375
821.5610, 27.43359
822.0431, 30.45312
822.5252, 29.55469
823.0073, 43.71875
823.4894, 73.60156
823.9716, 86.61719
824.4537, 61.74609
824.9358, 30.89062
825.4179, 59.17969
825.9000, 154.7109
826.3821, 192.3047
826.8643, 155.1758
827.3464, 107.0234
827.8285, 55.15625
828.3106, 16.72266
828.7927, 12.55859
829.2748, 41.80078
829.7570, 79.58984
830.2391, 162.5234
830.7212, 201.9922
831.2033, 148.3672
831.6854, 83.80469
832.1675, 53.60938
832.6497, 55.41406
833.1318, 83.26953
833.6139, 143.9609
834.0960, 184.8672
834.5781, 148.9336
835.0602, 109.3984
835.5424, 146.7539
836.0245, 222.7148
836.5066, 264.4336
836.9887, 254.6953
837.4708, 217.0273
837.9529, 158.8750
838.4351, 99.95703
838.9172, 81.94922
839.3993, 93.90625
839.8814, 91.21094
840.3635, 68.17188
840.8456, 53.11328
841.3278, 66.92188
841.8099, 88.16797
842.2920, 60.56250
842.7741, 25.75391
843.2562, 33.73438
843.7383, 62.38281
844.2205, 152.7656
844.7026, 201.8047
845.1847, 218.4453
845.6668, 207.2500
846.1489, 167.4102
846.6310, 137.5000
847.1132, 119.2617
847.5953, 107.2148
848.0774, 79.76562
848.5595, 77.26172
849.0416, 146.1055
849.5237, 254.3281
850.0059, 331.3594
850.4880, 362.1562
850.9701, 369.7539
851.4522, 355.2773
851.9343, 327.5195
852.4164, 277.8789
852.8986, 226.1680
853.3807, 208.6719
853.8628, 226.6602
854.3449, 236.7109
854.8270, 208.0078
855.3091, 162.2773
855.7913, 112.8789
856.2734, 69.33594
856.7555, 44.20703
857.2376, 43.23828
857.7197, 97.59766
858.2018, 228.9297
858.6840, 352.5742
859.1661, 309.1641
859.6482, 131.8086
860.1303, 49.53906
860.6124, 67.48828
861.0945, 98.47266
861.5767, 117.1133
862.0588, 128.4258
862.5409, 139.4375
863.0230, 146.9922
863.5051, 135.3242
863.9872, 97.44141
864.4694, 60.27734
864.9515, 17.48828
865.4336, 8.621094
865.9157, 2.933594
866.3978, 36.12500
866.8799, 59.70703
867.3621, 73.31250
867.8442, 81.31250
868.3263, 101.1016
868.8084, 93.99609
869.2905, 10.66406
869.7726, 76.15625
870.2548, 81.90234
870.7369, 23.21094
871.2190, 0.9687500
871.7011, 64.58203
872.1832, 118.6797
872.6653, 125.8984
873.1475, 90.35938
873.6296, 25.71484
874.1117, 169.4258
874.5938, 227.2422
875.0759, 170.3750
875.5580, 107.9844
876.0402, 147.6562
876.5223, 212.5781
877.0044, 190.9883
877.4865, 119.5664
877.9686, 80.83594
878.4507, 87.53906
878.9329, 117.1719
879.4150, 157.7734
879.8971, 199.8633
880.3792, 228.3164
880.8613, 244.1250
881.3434, 255.2344
881.8256, 261.6328
882.3077, 236.6992
882.7898, 164.5781
883.2719, 112.3438
883.7540, 167.5234
884.2361, 303.7188
884.7183, 336.6055
885.2004, 238.9922
885.6825, 162.8008
886.1646, 125.5508
886.6467, 121.8047
887.1288, 160.9531
887.6110, 221.7266
888.0931, 258.9336
888.5752, 271.0703
889.0573, 275.8125
889.5394, 255.3594
890.0215, 239.1133
890.5037, 243.7422
890.9858, 250.9531
891.4679, 238.5078
891.9500, 212.7578
892.4321, 204.9961
892.9142, 247.3633
893.3964, 257.0234
893.8785, 165.9961
894.3606, 90.33203
894.8427, 122.6953
895.3248, 205.7656
895.8069, 246.0430
896.2891, 228.9922
896.7712, 221.2109
897.2533, 281.3125
897.7354, 330.5625
898.2175, 306.3711
898.6996, 249.2930
899.1818, 191.8086
899.6639, 148.6836
900.1460, 148.8477
900.6281, 205.4180
901.1102, 257.0586
901.5923, 228.9883
902.0745, 172.2734
902.5566, 165.5664
903.0387, 199.3047
903.5208, 254.5859
904.0029, 318.8281
904.4850, 345.4570
904.9672, 286.1211
905.4493, 209.7266
905.9314, 278.9922
906.4136, 445.0781
906.8957, 476.3242
907.3778, 363.0781
907.8599, 249.2969
908.3420, 193.1680
908.8242, 184.0234
909.3063, 218.3984
909.7884, 284.8867
910.2705, 306.7500
910.7526, 277.0508
911.2347, 292.8906
911.7169, 383.7578
912.1990, 457.8672
912.6811, 452.5742
913.1632, 401.3203
913.6453, 378.6250
914.1274, 397.3359
914.6096, 353.9336
915.0917, 204.7656
915.5738, 100.6758
916.0559, 95.82031
916.5380, 131.9648
917.0201, 169.0234
917.5023, 203.9844
917.9844, 218.2578
918.4665, 209.4141
918.9486, 187.0039
919.4307, 107.8320
919.9128, 66.44922
920.3950, 133.5469
920.8771, 234.0586
921.3592, 276.6953
921.8413, 259.8867
922.3234, 250.4922
922.8055, 286.8281
923.2877, 289.0859
923.7698, 190.7930
924.2519, 103.6211
924.7340, 122.8203
925.2161, 200.8125
925.6982, 243.5156
926.1804, 230.7031
926.6625, 212.1562
927.1446, 198.3242
927.6267, 186.5820
928.1088, 175.4375
928.5909, 180.7266
929.0731, 220.2695
929.5552, 280.0195
930.0373, 335.3633
930.5194, 383.3828
931.0015, 410.3828
931.4836, 389.1172
931.9658, 357.9766
932.4479, 357.5391
932.9300, 379.9805
933.4121, 418.2461
933.8942, 462.7344
934.3763, 477.7617
934.8585, 429.4727
935.3406, 371.0312
935.8227, 383.3750
936.3048, 419.0000
936.7869, 377.8242
937.2690, 284.8242
937.7512, 247.2812
938.2333, 295.1836
938.7154, 340.6602
939.1975, 297.9414
939.6796, 214.8984
940.1617, 171.9336
940.6439, 162.3555
941.1260, 172.3867
941.6081, 196.5586
942.0902, 213.9844
942.5723, 215.1680
943.0544, 206.1016
943.5366, 194.9609
944.0187, 179.5820
944.5008, 152.9609
944.9829, 115.4102
945.4650, 58.97266
945.9471, 17.54688
946.4293, 55.50000
946.9114, 13.58984
947.3935, 61.79688
947.8756, 75.94531
948.3577, 33.69531
948.8398, 55.69141
949.3220, 146.9375
949.8041, 223.5156
950.2862, 262.3203
950.7683, 287.1211
951.2504, 316.9648
951.7325, 346.2461
952.2147, 362.0508
952.6968, 366.4766
953.1789, 333.1523
953.6610, 241.9336
954.1431, 197.8906
954.6252, 251.8359
955.1074, 329.2070
955.5895, 358.8086
956.0716, 346.2734
956.5537, 318.0703
957.0358, 261.9219
957.5179, 235.7656
958.0001, 262.2070
958.4822, 273.1875
958.9643, 224.2852
959.4464, 168.7969
959.9285, 184.6641
960.4106, 266.8672
960.8928, 283.6172
961.3749, 178.3281
961.8570, 128.2344
962.3391, 175.7031
962.8212, 241.2383
963.3033, 293.6719
963.7855, 333.4414
964.2676, 362.3867
964.7497, 380.2969
965.2318, 380.4844
965.7139, 374.9492
966.1960, 332.7578
966.6782, 175.1523
967.1603, 55.14062
967.6424, 94.54688
968.1245, 218.3984
968.6066, 286.4766
969.0887, 285.9258
969.5709, 289.2070
970.0530, 316.9453
970.5351, 326.4375
971.0172, 283.7852
971.4993, 243.6562
971.9814, 268.0273
972.4636, 320.4141
972.9457, 302.6367
973.4278, 178.7773
973.9099, 97.57812
974.3920, 92.08984
974.8741, 115.6133
975.3563, 177.8359
975.8384, 240.9297
976.3205, 277.1211
976.8026, 286.1758
977.2847, 268.6758
977.7668, 202.3789
978.2490, 179.5742
978.7311, 276.9414
979.2132, 351.9141
979.6953, 305.2266
980.1774, 232.9609
980.6595, 244.6367
981.1417, 323.6445
981.6238, 376.1836
982.1059, 391.6836
982.5880, 354.1250
983.0701, 189.5625
983.5522, 50.16406
984.0344, 32.67969
984.5165, 76.49219
984.9986, 128.1602
985.4807, 171.9453
985.9628, 170.5039
986.4449, 73.32031
986.9271, 21.96875
987.4092, 129.3125
987.8913, 230.6992
988.3734, 207.3242
988.8555, 122.5430
989.3376, 56.67188
989.8198, 19.64453
990.3019, 8.566406
990.7840, 29.92969
991.2661, 52.44141
991.7482, 97.47266
992.2303, 125.9531
992.7125, 91.20312
993.1946, 31.96484
993.6767, 9.066406
994.1588, 25.06250
994.6409, 30.22656
995.1230, 4.125000
995.6052, 33.35938
996.0873, 81.35156
996.5694, 128.7500
997.0515, 183.3594
997.5336, 223.2930
998.0157, 194.9688
998.4979, 103.7578
998.9800, 61.51172
999.4621, 135.0820
999.9442, 229.3164
1000.426, 320.8750
1000.908, 392.6914
1001.391, 424.7539
1001.873, 429.9453
1002.355, 431.6016
1002.837, 432.3008
1003.319, 413.4258
1003.801, 336.5547
1004.283, 279.2031
1004.765, 314.3555
1005.247, 359.9609
1005.730, 334.1055
1006.212, 275.2422
1006.694, 268.0391
1007.176, 319.5234
1007.658, 333.3398
1008.140, 222.1914
1008.622, 133.5234
1009.104, 161.4648
1009.587, 218.4219
1010.069, 252.6562
1010.551, 254.8750
1011.033, 191.8477
1011.515, 69.15625
1011.997, 2.191406
1012.479, 90.40234
1012.961, 169.8750
1013.443, 137.7773
1013.926, 99.10547
1014.408, 156.5898
1014.890, 255.6914
1015.372, 293.3789
1015.854, 257.5859
1016.336, 234.3672
1016.818, 278.7930
1017.300, 307.8633
1017.783, 277.5508
1018.265, 231.7734
1018.747, 189.6758
1019.229, 161.0508
1019.711, 166.4727
1020.193, 204.4492
1020.675, 222.3672
1021.157, 192.9609
1021.639, 156.1562
1022.122, 121.8359
1022.604, 88.30078
1023.086, 36.00000
1023.568, 6.074219
1024.050, 5.800781
1024.532, 74.61328
1025.014, 165.7305
1025.496, 329.5234
1025.979, 427.3047
1026.461, 386.0742
1026.943, 306.4023
1027.425, 217.5742
1027.907, 144.8242
1028.389, 126.5977
1028.871, 159.2734
1029.353, 183.3164
1029.835, 181.0156
1030.318, 189.2148
1030.800, 241.8633
1031.282, 275.0625
1031.764, 217.9023
1032.246, 151.1719
1032.728, 202.6523
1033.210, 358.5234
1033.692, 432.3906
1034.174, 355.1914
1034.657, 283.8906
1035.139, 223.4023
1035.621, 185.1055
1036.103, 191.1133
1036.585, 210.5859
1037.067, 202.5938
1037.549, 173.8594
1038.031, 177.3008
1038.514, 238.3594
1038.996, 289.3398
1039.478, 322.8125
1039.960, 355.2383
1040.442, 417.8281
1040.924, 456.2695
1041.406, 391.7969
1041.888, 256.5312
1042.370, 206.2344
1042.853, 299.6484
1043.335, 327.2305
1043.817, 230.4375
1044.299, 177.4023
1044.781, 255.7383
1045.263, 337.8086
1045.745, 297.3047
1046.227, 182.9961
1046.709, 161.0430
1047.192, 274.5195
1047.674, 294.2539
1048.156, 171.9727
1048.638, 91.37891
1049.120, 112.3477
1049.602, 157.8906
1050.084, 181.2227
1050.566, 183.5430
1051.049, 151.7461
1051.531, 73.91797
1052.013, 71.69531
1052.495, 170.0938
1052.977, 219.3633
1053.459, 176.0898
1053.941, 129.7656
1054.423, 140.1016
1054.906, 174.3984
1055.388, 172.8438
1055.870, 138.6094
1056.352, 114.0547
1056.834, 97.57812
1057.316, 163.9883
1057.798, 332.1016
1058.280, 426.3945
1058.762, 348.1914
1059.245, 203.2539
1059.727, 125.9023
1060.209, 105.9258
1060.691, 116.8398
1061.173, 151.4102
1061.655, 148.1484
1062.137, 105.8672
1062.619, 95.39844
1063.101, 146.2305
1063.584, 182.2109
1064.066, 109.4453
1064.548, 3.500000
1065.030, 8.453125
1065.512, 91.41406
1065.994, 64.25781
1066.476, 48.12109
1066.958, 68.06250
1067.441, 48.99609
1067.923, 161.4336
1068.405, 158.5312
1068.887, 109.2148
1069.369, 100.5898
1069.851, 106.3086
1070.333, 57.80859
1070.815, 3.644531
1071.297, 47.98828
1071.780, 212.2812
1072.262, 340.3984
1072.744, 351.4531
1073.226, 310.5977
1073.708, 229.3828
1074.190, 162.0742
1074.672, 172.0039
1075.154, 225.7852
1075.637, 286.8398
1076.119, 340.5664
1076.601, 368.0664
1077.083, 359.7617
1077.565, 341.6055
1078.047, 332.2852
1078.529, 309.4922
1079.011, 241.4336
1079.494, 168.9531
1079.976, 134.0859
1080.458, 126.6602
1080.940, 114.2852
1081.422, 89.14844
1081.904, 78.30078
1082.386, 99.53516
1082.868, 118.8086
1083.350, 136.5508
1083.833, 140.3359
1084.315, 122.5938
1084.797, 87.21875
1085.279, 24.58984
1085.761, 66.10938
1086.243, 87.50000
1086.725, 36.17188
1087.207, 93.15625
1087.689, 14.12891
1088.172, 36.10547
1088.654, 40.70703
1089.136, 129.1758
1089.618, 87.26172
1090.100, 46.04297
1090.582, 64.26172
1091.064, 76.00781
1091.546, 136.2734
1092.029, 85.76953
1092.511, 60.08984
1092.993, 96.73828
1093.475, 181.4258
1093.957, 317.9062
1094.439, 453.9023
1094.921, 453.2695
1095.403, 328.0898
1095.885, 311.3008
1096.368, 396.7578
1096.850, 413.1094
1097.332, 331.2773
1097.814, 250.7656
1098.296, 225.4219
1098.778, 217.9062
1099.260, 168.8633
1099.742, 113.6367
1100.224, 164.6758
1100.707, 276.0391
1101.189, 310.8477
1101.671, 270.2266
1102.153, 218.6758
1102.635, 179.9062
1103.117, 146.7539
1103.599, 114.0234
1104.081, 85.10156
1104.564, 55.85547
1105.046, 39.35938
1105.528, 68.16406
1106.010, 115.8359
1106.492, 135.8750
1106.974, 120.6562
1107.456, 79.74219
1107.938, 3.281250
1108.421, 47.66016
1108.903, 59.48047
1109.385, 14.88672
1109.867, 164.9961
1110.349, 349.5820
1110.831, 389.9102
1111.313, 325.0898
1111.795, 286.9570
1112.277, 300.0117
1112.760, 304.3398
1113.242, 267.6875
1113.724, 253.0703
1114.206, 286.2383
1114.688, 331.9648
1115.170, 399.0898
1115.652, 447.4062
1116.134, 410.1367
1116.616, 294.6445
1117.099, 205.0625
1117.581, 128.0625
1118.063, 131.0820
1118.545, 249.6406
1119.027, 352.6562
1119.509, 398.9453
1119.991, 401.5391
1120.473, 365.2227
1120.956, 308.9062
1121.438, 280.4180
1121.920, 280.5078
1122.402, 277.6406
1122.884, 273.4570
1123.366, 325.0391
1123.848, 436.3359
1124.330, 504.0195
1124.813, 473.2773
1125.295, 404.6328
1125.777, 351.2266
1126.259, 314.2422
1126.741, 302.0352
1127.223, 305.4258
1127.705, 300.3555
1128.187, 293.4492
1128.669, 321.5117
1129.151, 386.7422
1129.634, 428.4297
1130.116, 409.1406
1130.598, 353.4453
1131.080, 254.7422
1131.562, 154.3281
1132.044, 65.11328
1132.526, 13.41406
1133.008, 57.32031
1133.491, 169.0820
1133.973, 240.2422
1134.455, 239.4766
1134.937, 227.7812
1135.419, 216.5703
1135.901, 201.1406
1136.383, 165.1016
1136.865, 138.9453
1137.348, 134.7930
1137.830, 158.1875
1138.312, 236.1250
1138.794, 364.5859
1139.276, 405.2695
1139.758, 325.9805
1140.240, 254.9375
1140.722, 201.8750
1141.204, 143.9062
1141.687, 62.68359
1142.169, 19.39062
1142.651, 78.96875
1143.133, 187.7656
1143.615, 209.6016
1144.097, 159.2969
1144.579, 170.0234
1145.061, 224.8359
1145.543, 198.3203
1146.026, 82.17188
1146.508, 15.53906
1146.990, 62.36719
1147.472, 133.7266
1147.954, 134.0312
1148.436, 113.1562
1148.918, 138.0078
1149.400, 189.6016
1149.883, 278.3047
1150.365, 360.7422
1150.847, 329.7109
1151.329, 188.9453
1151.811, 84.75000
1152.293, 86.10938
1152.775, 109.5703
1153.257, 136.7734
1153.740, 151.5000
1154.222, 134.5234
1154.704, 110.7500
1155.186, 88.19531
1155.668, 81.11719
1156.150, 131.2344
1156.632, 253.4297
1157.114, 323.1562
1157.596, 318.8047
1158.078, 303.9219
1158.561, 281.7891
1159.043, 249.9219
1159.525, 198.0078
1160.007, 156.7500
1160.489, 159.0938
1160.971, 195.3516
1161.453, 250.3359
1161.935, 320.0547
1162.418, 311.6719
1162.900, 232.6641
1163.382, 192.2188
1163.864, 211.3594
1164.346, 261.6172
1164.828, 329.6719
1165.310, 369.2500
1165.792, 313.8281
1166.275, 219.3672
1166.757, 157.4141
1167.239, 122.0469
1167.721, 101.3828
1168.203, 93.65625
1168.685, 88.95312
1169.167, 93.50781
1169.649, 159.7422
1170.131, 353.8594
1170.614, 472.7812
1171.096, 368.1328
1171.578, 250.6562
1172.060, 237.3281
1172.542, 240.7266
1173.024, 168.5547
1173.506, 61.96875
1173.988, 13.97656
1174.470, 27.03906
1174.953, 51.69531
1175.435, 101.8438
1175.917, 118.8906
1176.399, 84.81250
1176.881, 73.24219
1177.363, 119.8750
1177.845, 149.8984
1178.327, 92.99219
1178.810, 7.390625
1179.292, 62.75000
1179.774, 79.41406
1180.256, 82.17969
1180.738, 70.88281
1181.220, 35.34375
1181.702, 18.33594
1182.184, 59.51562
1182.667, 76.91406
1183.149, 85.05469
1183.631, 98.90625
1184.113, 100.9922
1184.595, 64.08594
1185.077, 21.30469
1185.559, 14.68750
1186.041, 23.71875
1186.523, 41.13281
1187.005, 154.5469
1187.488, 219.5391
1187.970, 209.6406
1188.452, 190.9531
1188.934, 172.0391
1189.416, 142.1250
1189.898, 87.64062
1190.380, 38.60938
1190.862, 4.257813
1191.345, 9.429688
1191.827, 7.656250
1192.309, 48.73438
1192.791, 88.10938
1193.273, 126.4531
1193.755, 165.7656
1194.237, 205.9609
1194.719, 242.2578
1195.202, 272.6875
1195.684, 279.4141
1196.166, 253.4531
1196.648, 250.0547
1197.130, 353.7500
1197.612, 468.7812
1198.094, 468.8750
1198.576, 416.6406
1199.058, 371.5859
1199.541, 342.1016
1200.023, 372.3438
1200.505, 448.1719
1200.987, 456.2578
1201.469, 329.9297
1201.951, 271.2656
1202.433, 432.3203
1202.915, 522.0234
1203.397, 392.6406
1203.880, 247.2891
1204.362, 165.5938
1204.844, 157.2812
1205.326, 270.1562
1205.808, 455.9453
1206.290, 425.8047
1206.772, 162.5312
1207.254, 49.67969
1207.737, 97.17188
1208.219, 180.2109
1208.701, 266.4844
1209.183, 311.0078
1209.665, 289.0859
1210.147, 239.8047
1210.629, 182.9219
1211.111, 151.6094
1211.594, 215.1719
1212.076, 304.2031
1212.558, 323.4922
1213.040, 296.9453
1213.522, 283.7109
1214.004, 282.7891
1214.486, 233.3750
1214.968, 84.03906
1215.450, 35.96875
1215.932, 218.3828
1216.415, 389.6797
1216.897, 540.3906
1217.379, 596.5312
1217.861, 473.5312
1218.343, 306.9375
1218.825, 258.9219
1219.307, 296.7344
1219.789, 290.9766
1220.272, 242.6250
1220.754, 239.0469
1221.236, 277.8203
1221.718, 303.2969
1222.200, 309.7734
1222.682, 352.6641
1223.164, 454.6797
1223.646, 528.7266
1224.129, 465.3750
1224.611, 387.6172
1225.093, 451.0703
1225.575, 538.8516
1226.057, 539.5234
1226.539, 482.6484
1227.021, 398.4297
1227.503, 306.4141
1227.985, 244.5469
1228.468, 218.8047
1228.950, 221.7891
1229.432, 297.5000
1229.914, 318.0938
1230.396, 245.0000
1230.878, 177.0938
1231.360, 144.1562
1231.842, 157.4219
1232.324, 233.2891
1232.807, 343.1797
1233.289, 443.1875
1233.771, 521.6328
1234.253, 500.1328
1234.735, 410.6875
1235.217, 365.3906
1235.699, 364.8828
1236.181, 349.0547
1236.664, 304.5312
1237.146, 284.2656
1237.628, 328.2109
1238.110, 367.9453
1238.592, 344.6094
1239.074, 326.3359
1239.556, 361.2266
1240.038, 410.6953
1240.521, 449.9219
1241.003, 474.5859
1241.485, 492.6016
1241.967, 498.6719
1242.449, 410.9453
1242.931, 183.3828
1243.413, 115.7344
1243.895, 236.4453
1244.377, 317.5000
1244.859, 305.5312
1245.342, 269.4453
1245.824, 246.8203
1246.306, 240.6172
1246.788, 263.5547
1247.270, 289.7422
1247.752, 271.6250
1248.234, 241.9922
1248.716, 248.2891
1249.199, 273.8672
1249.681, 288.2266
1250.163, 290.1172
1250.645, 292.8359
1251.127, 298.9141
1251.609, 306.6797
1252.091, 340.0312
1252.573, 333.3203
1253.056, 264.7266
1253.538, 183.3438
1254.020, 93.24219
1254.502, 41.21875
1254.984, 80.54688
1255.466, 143.2891
1255.948, 62.87500
1256.430, 94.89062
1256.912, 31.50781
1257.395, 170.7344
1257.877, 250.1172
1258.359, 218.9531
1258.841, 209.7500
1259.323, 251.5938
1259.805, 293.2891
1260.287, 314.6406
1260.769, 314.0781
1261.251, 228.3203
1261.734, 177.3750
1262.216, 284.6562
1262.698, 268.2109
1263.180, 354.0703
1263.662, 382.1406
1264.144, 326.2891
1264.626, 207.6797
1265.108, 101.6406
1265.591, 50.84375
1266.073, 43.09375
1266.555, 64.71094
1267.037, 63.46094
1267.519, 29.99219
1268.001, 0.0000000E+00
##END=



