##NAMES=Vlodavetsite
##RRUFFID=R070736
##IDEAL CHEMISTRY=Ca_2_Al(S^6+^O_4_)_2_F_2_Cl&#183;4H_2_O
##LOCALITY=Tolbachik volcano, Kamchatka Oblast', Far-Eastern Region, Russia
##OWNER=RRUFF
##SOURCE=Michael Scott
##DESCRIPTION=Colorless vitreous massive, rarely in irregular plates associated with calcite
##STATUS=The identification of this mineral is not yet confirmed.
##URL=rruff.info/R070736
172.0741, 0.0000000E+00
172.5563, 46.97852
173.0384, 149.3359
173.5205, 204.8574
174.0026, 175.5840
174.4847, 120.0781
174.9668, 90.49805
175.4490, 79.43359
175.9311, 70.63086
176.4132, 43.53516
176.8953, 18.26172
177.3774, 4.841797
177.8595, 51.76367
178.3417, 105.4102
178.8238, 139.2949
179.3059, 150.8789
179.7880, 142.6523
180.2701, 108.7656
180.7522, 37.62500
181.2344, 11.05273
181.7165, 12.06641
182.1986, 8.777344
182.6807, 22.47852
183.1628, 32.00391
183.6449, 42.17578
184.1271, 64.03906
184.6092, 109.7090
185.0913, 143.8887
185.5734, 166.4023
186.0555, 182.7422
186.5376, 194.6836
187.0198, 183.5391
187.5019, 163.8633
187.9840, 146.4785
188.4661, 126.7070
188.9482, 110.6191
189.4303, 108.6855
189.9125, 114.6191
190.3946, 101.9824
190.8767, 68.24805
191.3588, 19.34375
191.8409, 3.150391
192.3230, 25.52734
192.8052, 52.92578
193.2873, 70.19727
193.7694, 80.18555
194.2515, 90.71289
194.7336, 105.7559
195.2157, 123.8574
195.6979, 134.6973
196.1800, 135.7812
196.6621, 134.7852
197.1442, 138.2812
197.6263, 142.8906
198.1084, 138.2109
198.5906, 129.1816
199.0727, 106.7031
199.5548, 73.77148
200.0369, 38.64844
200.5190, 7.572266
201.0011, 22.18164
201.4833, 79.65039
201.9654, 129.7383
202.4475, 130.8125
202.9296, 88.75977
203.4117, 68.41797
203.8938, 85.37109
204.3760, 126.9980
204.8581, 170.0000
205.3402, 194.2285
205.8223, 201.1621
206.3044, 170.3379
206.7865, 103.4375
207.2687, 32.50977
207.7508, 64.35352
208.2329, 83.53711
208.7150, 90.14844
209.1971, 46.38867
209.6792, 67.04297
210.1614, 62.42969
210.6435, 57.15039
211.1256, 87.25000
211.6077, 51.35938
212.0898, 80.50586
212.5719, 83.43359
213.0541, 100.8613
213.5362, 90.69922
214.0183, 88.31836
214.5004, 111.0977
214.9825, 119.4531
215.4646, 105.1621
215.9468, 120.5664
216.4289, 82.83984
216.9110, 91.71094
217.3931, 120.6875
217.8752, 118.6504
218.3573, 152.2598
218.8395, 181.7129
219.3216, 189.8516
219.8037, 178.4609
220.2858, 168.2617
220.7679, 154.3555
221.2500, 148.3105
221.7322, 166.1289
222.2143, 198.7773
222.6964, 219.2012
223.1785, 201.7637
223.6606, 144.7617
224.1427, 87.62695
224.6249, 7.763672
225.1070, 50.58984
225.5891, 57.93945
226.0712, 24.03711
226.5533, 15.05469
227.0354, 20.04297
227.5176, 18.42773
227.9997, 26.53320
228.4818, 40.26562
228.9639, 100.4727
229.4460, 115.3848
229.9281, 92.09375
230.4103, 58.72852
230.8924, 46.87109
231.3745, 61.43164
231.8566, 75.28711
232.3387, 96.42969
232.8208, 110.3945
233.3030, 104.7402
233.7851, 82.54688
234.2672, 60.28906
234.7493, 59.91797
235.2314, 97.39844
235.7135, 97.65430
236.1957, 13.45312
236.6778, 63.35352
237.1599, 73.86914
237.6420, 19.89062
238.1241, 52.00781
238.6062, 88.87500
239.0884, 81.37500
239.5705, 63.90234
240.0526, 3.734375
240.5347, 39.05469
241.0168, 8.724609
241.4989, 89.52930
241.9811, 192.0645
242.4632, 222.7539
242.9453, 150.1328
243.4274, 97.58789
243.9095, 66.09766
244.3916, 50.39648
244.8738, 53.26172
245.3559, 72.15625
245.8380, 94.50391
246.3201, 106.3691
246.8022, 106.1367
247.2843, 97.27539
247.7665, 67.30469
248.2486, 38.12891
248.7307, 28.01953
249.2128, 37.75586
249.6949, 51.93359
250.1770, 53.82031
250.6592, 35.08203
251.1413, 32.44531
251.6234, 69.12305
252.1055, 105.2891
252.5876, 104.7090
253.0697, 65.27344
253.5519, 18.46484
254.0340, 0.8574220
254.5161, 15.67188
254.9982, 32.51367
255.4803, 13.97461
255.9624, 74.92969
256.4445, 116.6660
256.9267, 140.0488
257.4088, 90.93750
257.8909, 134.4902
258.3730, 139.6836
258.8551, 143.8965
259.3372, 201.1250
259.8194, 162.6953
260.3015, 219.3652
260.7836, 237.8809
261.2657, 273.5957
261.7478, 271.8184
262.2299, 281.7734
262.7121, 329.4219
263.1942, 297.2754
263.6763, 281.8926
264.1584, 268.0586
264.6405, 258.1660
265.1227, 256.1641
265.6048, 271.7930
266.0869, 306.1367
266.5690, 328.9551
267.0511, 320.1836
267.5332, 312.6289
268.0154, 346.9883
268.4975, 422.7461
268.9796, 478.9219
269.4617, 452.4258
269.9438, 344.2754
270.4259, 276.5840
270.9081, 270.6152
271.3902, 293.0098
271.8723, 322.6367
272.3544, 357.9863
272.8365, 399.4883
273.3186, 456.2539
273.8008, 522.3223
274.2829, 551.2383
274.7650, 515.6406
275.2471, 463.2715
275.7292, 427.3809
276.2113, 408.6270
276.6935, 392.0742
277.1756, 361.7148
277.6577, 325.5645
278.1398, 323.3848
278.6219, 397.3242
279.1040, 471.4648
279.5862, 488.0156
280.0683, 452.2188
280.5504, 410.2324
281.0325, 389.7148
281.5146, 385.4609
281.9967, 372.0859
282.4789, 336.1758
282.9610, 298.6719
283.4431, 271.9316
283.9252, 259.5547
284.4073, 272.7461
284.8894, 330.7676
285.3716, 405.6230
285.8537, 422.0156
286.3358, 334.4941
286.8179, 253.3711
287.3000, 255.3770
287.7821, 321.2422
288.2643, 375.2461
288.7464, 384.8887
289.2285, 358.6641
289.7106, 319.6992
290.1927, 254.4160
290.6748, 201.5977
291.1570, 185.6719
291.6391, 197.8574
292.1212, 210.5273
292.6033, 211.3848
293.0854, 211.1816
293.5675, 232.3789
294.0497, 284.2129
294.5318, 323.4785
295.0139, 336.4805
295.4960, 333.9668
295.9781, 326.0996
296.4602, 308.9473
296.9424, 293.5547
297.4245, 305.0332
297.9066, 346.9980
298.3887, 383.5742
298.8708, 409.3281
299.3529, 427.2520
299.8351, 441.4238
300.3172, 454.4844
300.7993, 459.5781
301.2814, 437.8672
301.7635, 383.9766
302.2456, 352.5410
302.7278, 369.7227
303.2099, 411.6621
303.6920, 451.5586
304.1741, 485.3105
304.6562, 505.1230
305.1383, 493.6562
305.6205, 448.2461
306.1026, 421.0508
306.5847, 442.1621
307.0668, 472.5996
307.5489, 464.4551
308.0310, 411.8223
308.5132, 358.2559
308.9953, 344.2871
309.4774, 373.1465
309.9595, 398.6094
310.4416, 424.3457
310.9237, 442.2578
311.4059, 443.8145
311.8880, 429.0293
312.3701, 406.7910
312.8522, 376.9316
313.3343, 341.4355
313.8164, 328.6797
314.2986, 354.8008
314.7807, 387.0059
315.2628, 406.9863
315.7449, 416.2910
316.2270, 426.1387
316.7091, 445.7559
317.1913, 470.6035
317.6734, 475.4473
318.1555, 438.5684
318.6376, 408.0781
319.1197, 408.6035
319.6018, 429.4121
320.0840, 445.3027
320.5661, 443.9648
321.0482, 429.6621
321.5303, 415.7676
322.0124, 396.9414
322.4945, 385.4336
322.9767, 394.2070
323.4588, 409.5156
323.9409, 411.0703
324.4230, 391.1035
324.9051, 355.0098
325.3872, 310.8750
325.8694, 239.1348
326.3515, 195.2734
326.8336, 205.4258
327.3157, 235.1934
327.7978, 244.9297
328.2799, 225.4297
328.7621, 203.9258
329.2442, 222.3066
329.7263, 317.6055
330.2084, 355.4570
330.6905, 282.1270
331.1726, 192.5996
331.6548, 163.5527
332.1369, 198.1758
332.6190, 237.8496
333.1011, 217.3262
333.5832, 116.3105
334.0653, 72.35547
334.5475, 140.8086
335.0296, 204.4141
335.5117, 190.1914
335.9938, 116.9258
336.4759, 55.31250
336.9580, 62.26172
337.4402, 136.4453
337.9223, 193.6543
338.4044, 239.0898
338.8865, 262.6914
339.3686, 252.6484
339.8507, 219.9004
340.3329, 180.3086
340.8150, 141.7891
341.2971, 106.3672
341.7792, 32.61914
342.2613, 73.78906
342.7434, 95.85156
343.2256, 99.85156
343.7077, 31.61914
344.1898, 56.70703
344.6719, 44.41797
345.1540, 30.60156
345.6361, 68.86523
346.1183, 11.19336
346.6004, 48.65234
347.0825, 48.16797
347.5646, 65.05273
348.0467, 44.33984
348.5288, 35.25195
349.0110, 33.44336
349.4931, 14.57031
349.9752, 12.97070
350.4573, 27.87695
350.9394, 13.81641
351.4215, 0.4218750
351.9037, 4.765625
352.3858, 23.90234
352.8679, 42.10547
353.3500, 47.86523
353.8321, 41.24609
354.3142, 20.66406
354.7964, 34.57031
355.2785, 78.14062
355.7606, 89.67969
356.2427, 77.29297
356.7248, 57.08594
357.2069, 35.82227
357.6891, 14.45117
358.1712, 5.253906
358.6533, 26.44336
359.1354, 38.74414
359.6175, 32.75977
360.0996, 18.25195
360.5818, 7.134766
361.0639, 5.486328
361.5460, 2.687500
362.0281, 19.56836
362.5102, 64.27148
362.9923, 102.3926
363.4745, 132.7734
363.9566, 145.4648
364.4387, 122.5586
364.9208, 56.88477
365.4029, 3.888672
365.8850, 17.75391
366.3672, 6.994141
366.8493, 23.01367
367.3314, 15.12109
367.8135, 3.751953
368.2956, 13.44141
368.7777, 42.39648
369.2599, 65.87109
369.7420, 73.74805
370.2241, 69.78320
370.7062, 55.31055
371.1883, 27.49414
371.6704, 6.828125
372.1526, 19.64844
372.6347, 58.19141
373.1168, 77.12695
373.5989, 43.36719
374.0810, 8.222656
374.5631, 20.53711
375.0453, 76.02930
375.5274, 131.8223
376.0095, 164.7656
376.4916, 177.1094
376.9737, 182.3887
377.4558, 180.8359
377.9380, 172.9531
378.4201, 152.1543
378.9022, 125.7695
379.3843, 107.1504
379.8664, 101.2188
380.3485, 107.4785
380.8307, 126.7051
381.3128, 173.4883
381.7949, 206.0332
382.2770, 214.9238
382.7591, 212.2129
383.2412, 210.7988
383.7234, 212.4883
384.2055, 206.6836
384.6876, 176.3086
385.1697, 104.6055
385.6518, 83.67773
386.1339, 150.1113
386.6161, 224.0312
387.0982, 274.7109
387.5803, 299.5742
388.0624, 302.6191
388.5445, 284.4707
389.0266, 247.5215
389.5088, 218.0879
389.9909, 184.5762
390.4730, 174.0781
390.9551, 214.7715
391.4372, 273.0293
391.9193, 303.0977
392.4015, 284.3477
392.8836, 242.9141
393.3657, 233.8711
393.8478, 272.4961
394.3299, 306.3750
394.8120, 325.6777
395.2942, 339.8633
395.7763, 354.5098
396.2584, 370.6680
396.7405, 386.7090
397.2226, 402.2090
397.7047, 417.1758
398.1869, 428.6406
398.6690, 447.4727
399.1511, 447.8047
399.6332, 400.2520
400.1153, 322.3223
400.5974, 263.6113
401.0796, 255.7402
401.5617, 283.3652
402.0438, 318.4355
402.5259, 366.4414
403.0080, 400.5117
403.4901, 394.2324
403.9723, 367.7031
404.4544, 350.9883
404.9365, 353.3105
405.4186, 359.3555
405.9007, 354.9453
406.3828, 342.3125
406.8650, 334.4629
407.3471, 337.5098
407.8292, 344.9668
408.3113, 344.9883
408.7934, 336.1074
409.2755, 333.1602
409.7577, 345.8672
410.2398, 363.9746
410.7219, 338.5703
411.2040, 379.7754
411.6861, 402.1602
412.1682, 407.2617
412.6504, 340.6855
413.1325, 367.4375
413.6146, 356.8105
414.0967, 344.6523
414.5788, 384.5645
415.0609, 328.5547
415.5431, 367.6660
416.0252, 368.7051
416.5073, 386.4570
416.9894, 366.1211
417.4715, 357.6484
417.9536, 387.3574
418.4358, 396.5703
418.9179, 373.0879
419.4000, 393.0215
419.8821, 338.9277
420.3642, 352.8574
420.8463, 394.4219
421.3285, 372.9863
421.8106, 393.4199
422.2927, 397.9336
422.7748, 330.0059
423.2569, 388.0137
423.7390, 391.1426
424.2212, 338.8008
424.7033, 392.5820
425.1854, 347.9629
425.6675, 338.4766
426.1496, 355.4375
426.6317, 344.9609
427.1139, 352.5547
427.5960, 365.4102
428.0781, 368.9297
428.5602, 360.4590
429.0423, 347.6855
429.5244, 337.4688
430.0066, 329.7617
430.4887, 329.4180
430.9708, 345.5117
431.4529, 362.2090
431.9350, 363.3516
432.4171, 348.6973
432.8993, 327.1855
433.3814, 287.5957
433.8635, 244.5566
434.3456, 231.3906
434.8277, 256.2363
435.3098, 290.5781
435.7920, 314.6836
436.2741, 327.0996
436.7562, 324.2617
437.2383, 295.5098
437.7204, 263.0625
438.2025, 231.8555
438.6847, 203.0293
439.1668, 188.2910
439.6489, 193.9766
440.1310, 214.7637
440.6131, 236.6836
441.0952, 271.2578
441.5774, 290.4648
442.0595, 286.5938
442.5416, 270.6484
443.0237, 250.1523
443.5058, 227.6426
443.9879, 204.7754
444.4701, 182.1270
444.9522, 158.2832
445.4343, 145.7969
445.9164, 155.7246
446.3985, 166.0645
446.8806, 166.0215
447.3628, 161.7617
447.8449, 169.1582
448.3270, 201.0527
448.8091, 239.1035
449.2912, 229.4922
449.7733, 146.1992
450.2555, 88.35352
450.7376, 108.6953
451.2197, 147.4844
451.7018, 160.1973
452.1839, 141.1738
452.6660, 120.8906
453.1482, 129.0156
453.6303, 158.3477
454.1124, 176.8672
454.5945, 179.8359
455.0766, 167.9668
455.5587, 135.6172
456.0409, 90.75586
456.5230, 57.22461
457.0051, 40.87695
457.4872, 36.40234
457.9693, 38.06836
458.4514, 46.86328
458.9336, 73.59961
459.4156, 131.8652
459.8978, 200.9902
460.3799, 220.3496
460.8620, 155.4062
461.3441, 114.1914
461.8262, 139.9336
462.3083, 185.3926
462.7905, 196.3574
463.2726, 165.1660
463.7547, 126.9258
464.2368, 119.2070
464.7189, 146.4375
465.2010, 164.6133
465.6832, 174.4688
466.1653, 175.0059
466.6474, 155.3809
467.1295, 128.2930
467.6116, 117.2383
468.0938, 135.5586
468.5759, 163.9336
469.0580, 153.4043
469.5401, 81.23828
470.0222, 34.90430
470.5043, 52.34375
470.9865, 83.98242
471.4686, 99.77539
471.9507, 97.52539
472.4328, 93.08203
472.9149, 100.9043
473.3970, 116.3516
473.8792, 122.2227
474.3613, 116.4492
474.8434, 105.4551
475.3255, 94.95312
475.8076, 81.50781
476.2897, 56.06445
476.7719, 0.3457030
477.2540, 45.92188
477.7361, 53.51367
478.2182, 29.29297
478.7003, 13.11719
479.1824, 75.08594
479.6646, 133.5234
480.1467, 141.4688
480.6288, 73.45312
481.1109, 37.11719
481.5930, 69.81250
482.0751, 110.8965
482.5573, 117.7402
483.0394, 91.58398
483.5215, 51.84961
484.0036, 8.099609
484.4857, 34.53516
484.9678, 46.57617
485.4500, 1.054688
485.9321, 40.76367
486.4142, 75.41016
486.8963, 99.82031
487.3784, 112.2344
487.8605, 112.3223
488.3427, 102.4453
488.8248, 82.76562
489.3069, 52.87305
489.7890, 22.10156
490.2711, 19.95312
490.7532, 47.01367
491.2354, 39.14648
491.7175, 7.697266
492.1996, 21.67188
492.6817, 43.19922
493.1638, 54.31250
493.6459, 46.73438
494.1281, 21.96094
494.6102, 1.093750
495.0923, 21.95508
495.5744, 29.37695
496.0565, 7.833984
496.5386, 105.9531
497.0208, 170.0488
497.5029, 155.7441
497.9850, 110.1406
498.4671, 73.90039
498.9492, 53.14844
499.4313, 43.82031
499.9135, 43.12109
500.3956, 50.73242
500.8777, 63.96484
501.3598, 100.0195
501.8419, 120.9453
502.3240, 111.5820
502.8062, 88.11914
503.2883, 64.60547
503.7704, 46.55469
504.2525, 38.56055
504.7346, 51.03711
505.2167, 88.45703
505.6989, 115.4746
506.1810, 138.8535
506.6631, 141.2949
507.1452, 96.15234
507.6273, 26.22852
508.1094, 17.59180
508.5916, 5.152344
509.0737, 32.80469
509.5558, 62.07227
510.0379, 82.45508
510.5200, 80.95703
511.0021, 40.38672
511.4843, 9.531250
511.9664, 18.70898
512.4485, 18.36523
512.9306, 46.01758
513.4127, 38.04883
513.8948, 22.47461
514.3770, 33.44727
514.8591, 68.40039
515.3412, 92.02930
515.8233, 77.24023
516.3054, 31.64453
516.7875, 4.183594
517.2697, 0.7207030
517.7518, 8.130859
518.2339, 49.25391
518.7160, 92.91602
519.1981, 107.0781
519.6802, 87.32422
520.1624, 57.64258
520.6445, 43.02930
521.1266, 43.82227
521.6087, 48.94727
522.0908, 60.49609
522.5729, 73.46680
523.0551, 93.72070
523.5372, 111.9805
524.0193, 109.7637
524.5014, 71.25000
524.9835, 34.04102
525.4656, 43.39844
525.9478, 89.63281
526.4299, 123.9902
526.9120, 132.6270
527.3941, 127.0078
527.8762, 113.8203
528.3583, 92.18359
528.8405, 88.12500
529.3226, 125.1211
529.8047, 161.5762
530.2868, 171.6895
530.7689, 158.4062
531.2510, 130.8398
531.7332, 91.99219
532.2153, 50.24414
532.6974, 26.32227
533.1795, 27.61328
533.6616, 34.57617
534.1437, 54.64062
534.6259, 73.22461
535.1080, 79.91797
535.5901, 76.20117
536.0722, 62.23828
536.5543, 27.24609
537.0364, 14.44922
537.5186, 0.1699220
538.0007, 90.82031
538.4828, 158.8809
538.9649, 154.1699
539.4470, 114.0840
539.9291, 70.11914
540.4113, 18.02930
540.8934, 6.099609
541.3755, 115.1250
541.8576, 257.0957
542.3397, 278.3262
542.8218, 168.5488
543.3040, 50.40234
543.7861, 6.781250
544.2682, 29.69141
544.7503, 59.27539
545.2324, 112.5781
545.7145, 150.5684
546.1967, 163.1621
546.6788, 157.6738
547.1609, 133.5371
547.6430, 95.16016
548.1251, 61.99609
548.6072, 62.44531
549.0894, 100.4961
549.5715, 123.3789
550.0536, 118.5859
550.5357, 113.5098
551.0178, 119.4395
551.4999, 131.1875
551.9821, 144.8945
552.4642, 162.3750
552.9463, 165.6504
553.4284, 119.8730
553.9105, 45.77930
554.3926, 24.61328
554.8748, 83.71484
555.3569, 149.4844
555.8390, 146.1914
556.3211, 74.89551
556.8032, 37.42969
557.2853, 51.14453
557.7675, 82.33496
558.2496, 131.1133
558.7317, 182.8584
559.2138, 213.5225
559.6959, 214.5312
560.1780, 195.7197
560.6602, 169.4072
561.1423, 130.3008
561.6244, 105.5361
562.1065, 111.2324
562.5886, 116.5234
563.0707, 109.8701
563.5529, 95.45703
564.0350, 80.18164
564.5171, 64.88379
564.9992, 56.59570
565.4813, 74.30469
565.9634, 113.2041
566.4456, 123.7295
566.9277, 81.42285
567.4098, 30.30664
567.8919, 27.37402
568.3740, 66.36816
568.8561, 84.80859
569.3383, 39.32910
569.8204, 0.1132810
570.3025, 28.58984
570.7846, 99.41797
571.2667, 151.4863
571.7488, 159.4854
572.2310, 139.0205
572.7131, 113.8477
573.1952, 76.21484
573.6773, 59.68359
574.1594, 78.16406
574.6415, 96.90625
575.1237, 103.7695
575.6058, 101.0146
576.0879, 93.15723
576.5700, 79.27637
577.0521, 66.53125
577.5342, 70.61328
578.0164, 91.58984
578.4985, 100.8096
578.9806, 85.86133
579.4627, 68.52832
579.9448, 99.93945
580.4269, 113.5645
580.9091, 110.4375
581.3912, 36.32031
581.8733, 56.79980
582.3554, 41.19629
582.8375, 25.24805
583.3196, 62.86133
583.8018, 5.838867
584.2839, 45.02246
584.7660, 47.51465
585.2481, 68.66211
585.7302, 53.46973
586.2123, 51.17480
586.6945, 87.76953
587.1766, 104.8320
587.6587, 90.42188
588.1408, 120.3623
588.6229, 59.41992
589.1050, 80.81641
589.5872, 100.7490
590.0693, 118.5225
590.5514, 111.5439
591.0335, 63.70996
591.5156, 11.65918
591.9977, 7.258789
592.4799, 3.384766
592.9620, 20.72070
593.4441, 51.46680
593.9262, 77.19922
594.4083, 81.18164
594.8904, 71.65625
595.3726, 71.90234
595.8547, 87.86523
596.3368, 108.4609
596.8189, 120.7920
597.3010, 128.1338
597.7831, 111.6074
598.2653, 23.95410
598.7474, 38.19043
599.2295, 27.20703
599.7116, 24.64941
600.1937, 70.50781
600.6758, 94.41797
601.1580, 105.0332
601.6401, 111.2188
602.1222, 113.0596
602.6043, 99.53027
603.0864, 62.57910
603.5685, 34.64844
604.0507, 50.84961
604.5328, 107.2744
605.0149, 139.4531
605.4970, 125.5088
605.9791, 112.9971
606.4612, 121.1162
606.9434, 140.3398
607.4255, 158.8574
607.9076, 169.9160
608.3897, 168.7012
608.8718, 145.8105
609.3539, 102.2432
609.8361, 77.28223
610.3182, 76.71777
610.8003, 85.65820
611.2824, 106.4258
611.7645, 130.0781
612.2466, 145.2539
612.7288, 151.2793
613.2109, 152.0723
613.6930, 145.6768
614.1751, 137.3232
614.6572, 141.9131
615.1393, 160.1680
615.6215, 163.9814
616.1036, 128.7236
616.5857, 70.94434
617.0678, 50.42578
617.5499, 112.4844
618.0320, 148.8115
618.5142, 129.5010
618.9963, 102.5293
619.4784, 109.2363
619.9605, 144.6152
620.4426, 176.3125
620.9247, 183.8223
621.4069, 169.6807
621.8890, 132.6133
622.3711, 65.15039
622.8532, 18.94238
623.3353, 12.76660
623.8174, 28.34570
624.2996, 53.05273
624.7817, 85.59766
625.2638, 103.4473
625.7459, 84.60742
626.2280, 63.25293
626.7101, 69.78223
627.1923, 95.29395
627.6744, 117.5723
628.1565, 128.7598
628.6386, 126.2588
629.1207, 103.2119
629.6028, 51.61230
630.0850, 11.55176
630.5671, 26.68750
631.0492, 41.59668
631.5313, 6.532227
632.0134, 50.85938
632.4955, 86.96094
632.9777, 85.54590
633.4598, 74.02344
633.9419, 76.56543
634.4240, 90.33691
634.9061, 109.3389
635.3882, 134.4482
635.8704, 150.6748
636.3525, 142.0869
636.8346, 114.6650
637.3167, 106.7119
637.7988, 144.5713
638.2809, 163.9072
638.7631, 143.8037
639.2452, 107.3779
639.7273, 65.55762
640.2094, 26.75293
640.6915, 11.84668
641.1736, 43.33203
641.6558, 105.2930
642.1379, 142.2139
642.6200, 147.8770
643.1021, 154.9502
643.5842, 178.6221
644.0663, 201.3057
644.5485, 204.4131
645.0306, 188.2334
645.5127, 166.8643
645.9948, 140.6074
646.4769, 113.4834
646.9590, 86.91113
647.4412, 62.48828
647.9233, 45.02832
648.4054, 36.47070
648.8875, 31.56641
649.3696, 20.41895
649.8517, 1.688477
650.3339, 5.199219
650.8160, 36.13086
651.2981, 64.23535
651.7802, 43.80078
652.2623, 5.054688
652.7444, 6.806641
653.2266, 22.60156
653.7087, 59.36719
654.1908, 81.46387
654.6729, 90.89453
655.1550, 87.99609
655.6371, 73.15820
656.1193, 61.14844
656.6014, 59.42773
657.0835, 69.05078
657.5656, 83.00684
658.0477, 119.8066
658.5298, 130.5586
659.0120, 91.09277
659.4941, 45.43359
659.9762, 26.33887
660.4583, 28.35352
660.9404, 23.15234
661.4225, 11.46680
661.9047, 49.02637
662.3868, 30.80469
662.8689, 40.36035
663.3510, 72.05664
663.8331, 30.88672
664.3152, 23.97266
664.7974, 37.70508
665.2795, 10.85742
665.7616, 21.59082
666.2437, 81.92188
666.7258, 121.0244
667.2079, 108.8604
667.6901, 71.08301
668.1722, 31.17676
668.6543, 1.350586
669.1364, 14.22852
669.6185, 10.19727
670.1006, 63.85840
670.5828, 97.82422
671.0649, 109.5312
671.5470, 109.3818
672.0291, 90.32617
672.5112, 68.75586
672.9933, 64.19824
673.4755, 77.33496
673.9576, 90.50488
674.4397, 101.8047
674.9218, 108.3008
675.4039, 102.5010
675.8860, 90.61230
676.3682, 88.87695
676.8503, 103.5371
677.3324, 124.1895
677.8145, 135.1729
678.2966, 134.8984
678.7787, 139.6787
679.2609, 163.5938
679.7430, 171.4707
680.2251, 137.8594
680.7072, 87.10156
681.1893, 49.98047
681.6714, 32.53320
682.1536, 22.36328
682.6357, 8.360352
683.1178, 0.1445310
683.5999, 18.60254
684.0820, 59.20410
684.5641, 91.49707
685.0463, 99.19043
685.5284, 87.97656
686.0105, 68.31934
686.4926, 26.62695
686.9747, 8.741211
687.4568, 34.96484
687.9390, 64.24219
688.4211, 83.69727
688.9032, 92.35254
689.3853, 89.98633
689.8674, 71.43457
690.3495, 49.91797
690.8317, 36.02148
691.3138, 27.79102
691.7959, 22.17285
692.2780, 18.68457
692.7601, 14.05078
693.2422, 5.289063
693.7244, 5.449219
694.2065, 9.987305
694.6886, 10.65527
695.1707, 0.5146480
695.6528, 27.68945
696.1349, 59.61621
696.6171, 91.15039
697.0992, 119.1816
697.5813, 136.5498
698.0634, 136.8516
698.5455, 132.7188
699.0276, 143.8037
699.5098, 163.5537
699.9919, 165.0303
700.4740, 142.0527
700.9561, 113.9805
701.4382, 93.53320
701.9203, 82.03809
702.4025, 89.75195
702.8846, 156.8174
703.3667, 188.9326
703.8488, 151.5410
704.3309, 99.21777
704.8130, 62.16797
705.2952, 47.22363
705.7773, 58.98145
706.2594, 109.0908
706.7415, 172.7568
707.2236, 218.1221
707.7057, 245.7656
708.1879, 259.2998
708.6700, 258.5791
709.1521, 254.4785
709.6342, 259.2295
710.1163, 271.6240
710.5984, 267.2969
711.0806, 230.4150
711.5627, 200.9922
712.0448, 182.6494
712.5269, 175.6309
713.0090, 186.9072
713.4911, 211.4893
713.9733, 229.5684
714.4554, 226.9082
714.9375, 212.9727
715.4196, 201.6123
715.9017, 192.6709
716.3839, 183.0156
716.8660, 171.4229
717.3481, 161.9229
717.8302, 159.3594
718.3123, 163.8408
718.7944, 165.6982
719.2766, 164.9980
719.7587, 158.3613
720.2408, 150.5859
720.7229, 140.1152
721.2050, 114.8662
721.6871, 79.58203
722.1693, 57.94531
722.6514, 75.55762
723.1335, 110.5371
723.6156, 119.2344
724.0977, 104.8828
724.5798, 96.64844
725.0620, 103.1221
725.5441, 113.3418
726.0262, 117.4014
726.5083, 115.2236
726.9904, 103.8740
727.4725, 64.10547
727.9547, 42.36816
728.4368, 56.76270
728.9189, 86.00488
729.4010, 121.9053
729.8831, 157.1318
730.3652, 168.8896
730.8474, 128.5850
731.3295, 74.53418
731.8116, 68.60156
732.2937, 101.0068
732.7758, 119.8613
733.2579, 110.3438
733.7401, 100.4229
734.2222, 122.9756
734.7043, 175.4346
735.1864, 191.2510
735.6685, 124.0820
736.1506, 76.17969
736.6328, 74.28516
737.1149, 88.60938
737.5970, 99.96973
738.0791, 105.4287
738.5612, 105.8633
739.0433, 100.6592
739.5255, 93.85156
740.0076, 85.96680
740.4897, 78.60254
740.9718, 84.09570
741.4539, 105.2197
741.9360, 129.0244
742.4182, 143.8604
742.9003, 151.5098
743.3824, 167.8789
743.8645, 216.5605
744.3466, 238.3223
744.8287, 201.5527
745.3109, 157.8936
745.7930, 143.0234
746.2751, 152.8877
746.7572, 162.5430
747.2393, 163.7949
747.7214, 159.3477
748.2036, 142.4053
748.6857, 124.0439
749.1678, 136.0146
749.6499, 178.9922
750.1320, 206.7822
750.6141, 181.1221
751.0963, 116.8623
751.5784, 71.84766
752.0605, 47.39941
752.5426, 38.99805
753.0247, 62.05371
753.5068, 84.80176
753.9890, 87.25781
754.4711, 73.59180
754.9532, 59.52344
755.4353, 42.44434
755.9174, 36.10254
756.3995, 56.83789
756.8817, 86.63379
757.3638, 108.7881
757.8459, 118.9092
758.3280, 109.1182
758.8101, 72.18652
759.2922, 25.98145
759.7744, 10.33398
760.2565, 28.10352
760.7386, 50.61230
761.2207, 81.41602
761.7028, 104.2588
762.1849, 101.7051
762.6671, 85.20410
763.1492, 85.37109
763.6313, 112.5654
764.1134, 133.5811
764.5955, 147.9951
765.0776, 147.2666
765.5598, 109.9219
766.0419, 53.96875
766.5240, 20.34375
767.0061, 27.04688
767.4882, 51.47852
767.9703, 70.36035
768.4525, 82.88672
768.9346, 79.94043
769.4167, 58.53320
769.8988, 44.42480
770.3809, 52.86426
770.8630, 73.43164
771.3452, 87.07812
771.8273, 96.29199
772.3094, 90.38574
772.7915, 42.71680
773.2736, 10.17578
773.7557, 31.53223
774.2379, 74.59766
774.7200, 93.60156
775.2021, 78.64258
775.6842, 59.97266
776.1663, 57.90332
776.6484, 67.32227
777.1306, 86.95410
777.6127, 112.5303
778.0948, 120.8438
778.5769, 102.4062
779.0590, 77.51758
779.5411, 69.65625
780.0233, 78.78223
780.5054, 110.0391
780.9875, 203.0684
781.4696, 251.9072
781.9517, 198.2236
782.4338, 116.4697
782.9160, 61.35449
783.3981, 34.36621
783.8802, 16.83789
784.3623, 4.490234
784.8444, 10.97070
785.3265, 31.34277
785.8087, 87.30371
786.2908, 89.38379
786.7729, 35.64160
787.2550, 3.762695
787.7371, 30.78906
788.2192, 110.1572
788.7014, 152.4443
789.1835, 155.4492
789.6656, 140.0439
790.1477, 101.8564
790.6298, 62.54785
791.1119, 39.75879
791.5941, 30.04688
792.0762, 15.58301
792.5583, 22.32715
793.0404, 35.32129
793.5225, 9.721680
794.0046, 59.21289
794.4868, 78.60352
794.9689, 70.80859
795.4510, 47.31055
795.9331, 10.50977
796.4152, 21.96191
796.8973, 32.29004
797.3795, 23.91699
797.8616, 4.491211
798.3437, 50.30664
798.8258, 70.38379
799.3079, 38.94043
799.7900, 13.21582
800.2722, 27.29980
800.7543, 9.675781
801.2364, 22.80078
801.7185, 12.06738
802.2006, 37.96387
802.6827, 29.88281
803.1649, 8.500977
803.6470, 2.943359
804.1291, 2.184570
804.6112, 6.123047
805.0933, 28.74902
805.5754, 50.95312
806.0576, 53.54492
806.5397, 47.22754
807.0218, 55.44824
807.5039, 80.94824
807.9860, 99.64746
808.4681, 85.68750
808.9503, 52.90527
809.4324, 52.76562
809.9145, 88.52734
810.3966, 93.83887
810.8787, 40.07324
811.3608, 9.415039
811.8430, 9.569336
812.3251, 83.78223
812.8072, 115.0137
813.2893, 53.40332
813.7714, 21.96777
814.2535, 61.31543
814.7357, 105.4131
815.2178, 103.2002
815.6999, 72.05566
816.1820, 60.46973
816.6641, 89.38477
817.1462, 124.8125
817.6284, 150.4434
818.1105, 159.6797
818.5926, 126.5605
819.0747, 61.33203
819.5568, 21.85059
820.0389, 36.16895
820.5211, 71.72754
821.0032, 73.28418
821.4853, 37.29102
821.9674, 31.47656
822.4495, 70.16211
822.9316, 102.4326
823.4138, 106.4551
823.8959, 97.38770
824.3780, 90.76660
824.8601, 86.24414
825.3422, 94.42578
825.8243, 142.0283
826.3065, 171.6680
826.7886, 144.2363
827.2707, 98.41309
827.7528, 72.50000
828.2349, 71.67676
828.7170, 85.87109
829.1992, 116.3555
829.6813, 145.6504
830.1633, 143.6025
830.6454, 120.7451
831.1276, 114.4746
831.6097, 130.1230
832.0918, 143.2832
832.5739, 137.5420
833.0560, 117.5508
833.5381, 94.04004
834.0203, 62.33594
834.5024, 42.96387
834.9845, 37.03906
835.4666, 42.66309
835.9487, 71.74707
836.4308, 106.6299
836.9130, 118.4824
837.3951, 100.1943
837.8772, 89.39453
838.3593, 95.92383
838.8414, 111.8311
839.3235, 143.1494
839.8057, 175.9346
840.2878, 187.3613
840.7699, 174.4150
841.2520, 158.8867
841.7341, 159.7197
842.2162, 167.5732
842.6984, 162.7998
843.1805, 150.3232
843.6626, 150.1221
844.1447, 167.4287
844.6268, 188.1748
845.1089, 201.0215
845.5911, 207.0039
846.0732, 206.4170
846.5553, 197.1592
847.0374, 186.7900
847.5195, 172.5010
848.0016, 161.3037
848.4838, 153.9297
848.9659, 154.6387
849.4480, 171.9062
849.9301, 213.4150
850.4122, 239.7627
850.8943, 232.3174
851.3765, 221.7783
851.8586, 227.7236
852.3407, 241.9736
852.8228, 245.1885
853.3049, 231.0879
853.7870, 214.0117
854.2692, 203.4170
854.7513, 197.3721
855.2334, 195.3975
855.7155, 196.1699
856.1976, 184.9375
856.6797, 157.7627
857.1619, 137.0664
857.6440, 146.1279
858.1261, 175.3916
858.6082, 170.9355
859.0903, 111.3555
859.5724, 81.11133
860.0546, 114.5879
860.5367, 146.9619
861.0188, 119.1152
861.5009, 60.06152
861.9830, 45.00879
862.4651, 103.1816
862.9473, 138.3203
863.4294, 116.7275
863.9115, 83.33008
864.3936, 52.01660
864.8757, 32.23340
865.3578, 45.00195
865.8400, 92.61816
866.3221, 127.8242
866.8042, 98.08691
867.2863, 48.12012
867.7684, 45.58301
868.2505, 74.88867
868.7327, 85.89355
869.2148, 66.16602
869.6969, 38.70898
870.1790, 18.80469
870.6611, 9.379883
871.1432, 27.43555
871.6254, 78.88379
872.1075, 108.8086
872.5896, 106.2861
873.0717, 89.44629
873.5538, 62.67578
874.0359, 33.28320
874.5181, 21.92188
875.0002, 37.04883
875.4823, 51.74805
875.9644, 67.44629
876.4465, 81.04102
876.9286, 90.38672
877.4108, 97.19043
877.8929, 109.0410
878.3750, 125.6123
878.8571, 122.8037
879.3392, 59.67383
879.8214, 1.761719
880.3035, 20.13965
880.7856, 71.44629
881.2677, 79.47363
881.7498, 38.71094
882.2319, 5.1757999E-02
882.7141, 1.836914
883.1962, 16.59473
883.6783, 28.43652
884.1604, 33.97461
884.6425, 31.84961
885.1246, 20.96484
885.6068, 18.38086
886.0889, 34.69434
886.5710, 60.42871
887.0531, 77.66895
887.5352, 84.46875
888.0173, 94.82715
888.4995, 118.3740
888.9816, 128.9395
889.4637, 107.4551
889.9458, 77.58789
890.4279, 61.74512
890.9100, 59.38477
891.3922, 60.13379
891.8743, 70.09961
892.3564, 73.08398
892.8385, 53.82715
893.3206, 33.73926
893.8027, 32.24023
894.2849, 46.41797
894.7670, 64.65527
895.2491, 83.57129
895.7312, 98.09570
896.2133, 103.0576
896.6954, 101.4785
897.1776, 92.96777
897.6597, 81.79688
898.1418, 87.37500
898.6239, 115.2607
899.1060, 134.4141
899.5881, 102.3164
900.0703, 35.36816
900.5524, 13.94238
901.0345, 40.49316
901.5166, 54.78320
901.9987, 38.29980
902.4808, 27.82520
902.9630, 59.55078
903.4451, 118.2246
903.9272, 139.8682
904.4093, 107.7090
904.8914, 73.48633
905.3735, 30.78223
905.8557, 4.323242
906.3378, 30.55469
906.8199, 42.66699
907.3020, 24.21191
907.7841, 31.30859
908.2662, 61.68457
908.7484, 31.26270
909.2305, 3.308594
909.7126, 24.49414
910.1947, 28.22852
910.6768, 3.311523
911.1589, 58.89551
911.6411, 86.77441
912.1232, 44.75977
912.6053, 2.540039
913.0874, 26.05273
913.5695, 85.97266
914.0516, 92.02930
914.5338, 48.32422
915.0159, 14.15625
915.4980, 17.31836
915.9801, 36.97266
916.4622, 47.16992
916.9443, 48.93750
917.4265, 44.43164
917.9086, 32.54492
918.3907, 35.05566
918.8728, 62.79102
919.3549, 91.09863
919.8370, 95.72754
920.3192, 80.16504
920.8013, 66.59863
921.2834, 54.65332
921.7655, 46.04590
922.2476, 43.18750
922.7297, 45.23926
923.2119, 56.20312
923.6940, 69.98047
924.1761, 76.40820
924.6582, 73.29492
925.1403, 69.63867
925.6224, 45.36523
926.1046, 44.59961
926.5867, 120.7344
927.0688, 208.5293
927.5509, 229.2510
928.0330, 184.4414
928.5151, 139.0947
928.9973, 118.3242
929.4794, 113.0605
929.9615, 124.5342
930.4436, 143.4238
930.9257, 169.9346
931.4078, 196.7393
931.8900, 194.6836
932.3721, 151.2031
932.8542, 97.13281
933.3363, 61.41309
933.8184, 43.02930
934.3005, 45.82227
934.7827, 65.90430
935.2648, 78.55273
935.7469, 76.71582
936.2290, 72.82129
936.7111, 83.72070
937.1932, 103.7910
937.6754, 110.4375
938.1575, 101.0918
938.6396, 102.8379
939.1217, 123.1025
939.6038, 139.4697
940.0859, 140.9863
940.5681, 130.1221
941.0502, 107.5986
941.5323, 66.31934
942.0144, 50.16504
942.4965, 84.91504
942.9786, 108.1709
943.4608, 69.50293
943.9429, 113.3418
944.4250, 137.9639
944.9071, 144.4951
945.3892, 78.74121
945.8713, 106.3125
946.3535, 96.47656
946.8356, 85.09668
947.3177, 125.7812
947.7998, 70.51758
948.2819, 110.3594
948.7640, 112.2363
949.2462, 131.4766
949.7283, 113.1514
950.2104, 106.4336
950.6925, 137.2969
951.1746, 147.3037
951.6567, 124.6104
952.1389, 145.1572
952.6210, 88.65039
953.1031, 99.52246
953.5852, 139.5205
954.0673, 118.6416
954.5494, 139.7178
955.0316, 144.9326
955.5137, 77.69336
955.9958, 136.2793
956.4779, 140.3398
956.9600, 88.43262
957.4421, 84.83008
957.9243, 105.9756
958.4064, 146.6768
958.8885, 150.9062
959.3706, 115.9883
959.8527, 93.32422
960.3348, 93.19141
960.8170, 98.13379
961.2991, 96.43555
961.7812, 92.10547
962.2633, 96.62988
962.7454, 115.2363
963.2275, 118.1729
963.7097, 96.41016
964.1918, 74.31543
964.6739, 60.14062
965.1560, 52.13770
965.6381, 47.28320
966.1202, 44.27148
966.6024, 43.60547
967.0845, 50.59668
967.5666, 50.63379
968.0487, 30.10938
968.5308, 18.88184
969.0129, 39.09180
969.4951, 74.20508
969.9772, 96.55176
970.4593, 100.7236
970.9414, 105.1709
971.4235, 129.5078
971.9056, 139.0791
972.3878, 102.1221
972.8699, 50.30859
973.3520, 15.58008
973.8341, 0.4208980
974.3162, 5.940430
974.7983, 7.917969
975.2805, 2.501953
975.7626, 19.56348
976.2447, 45.08984
976.7268, 65.38379
977.2089, 74.51270
977.6910, 50.30273
978.1732, 6.753906
978.6553, 44.41797
979.1374, 8.747070
979.6195, 53.68555
980.1016, 69.30078
980.5837, 49.48730
981.0659, 19.28125
981.5480, 14.54492
982.0301, 34.32910
982.5122, 30.86523
982.9943, 15.69141
983.4764, 3.034180
983.9586, 6.754883
984.4407, 9.067383
984.9228, 4.100586
985.4049, 8.584961
985.8870, 28.70020
986.3691, 37.57910
986.8513, 7.475586
987.3334, 40.40625
987.8155, 34.11328
988.2976, 39.76172
988.7797, 73.73438
989.2618, 51.32324
989.7440, 29.32715
990.2261, 31.47461
990.7082, 43.76758
991.1903, 51.04785
991.6724, 53.05273
992.1545, 40.11523
992.6367, 10.40137
993.1188, 27.91504
993.6009, 24.07422
994.0830, 74.56934
994.5651, 78.45020
995.0472, 53.49512
995.5294, 32.96387
996.0115, 13.66602
996.4936, 12.64941
996.9757, 51.38281
997.4578, 81.66113
997.9399, 77.78320
998.4221, 71.05273
998.9042, 100.1367
999.3863, 150.4912
999.8684, 163.3809
1000.351, 105.7725
1000.833, 64.59766
1001.315, 63.99414
1001.797, 86.22559
1002.279, 143.0088
1002.761, 203.5166
1003.243, 224.7686
1003.725, 204.7930
1004.207, 180.4414
1004.690, 166.2715
1005.172, 153.8633
1005.654, 139.6826
1006.136, 123.6797
1006.618, 98.99805
1007.100, 74.06152
1007.582, 73.03613
1008.064, 102.1328
1008.547, 121.0703
1009.029, 77.71191
1009.511, 31.05371
1009.993, 59.38672
1010.475, 118.7119
1010.957, 132.3574
1011.439, 99.08594
1011.921, 62.31641
1012.403, 42.54883
1012.886, 42.22168
1013.368, 84.85254
1013.850, 137.7686
1014.332, 127.5352
1014.814, 75.58691
1015.296, 60.27832
1015.778, 95.63086
1016.260, 129.4668
1016.742, 122.6738
1017.225, 92.93359
1017.707, 59.90625
1018.189, 30.80762
1018.671, 41.57129
1019.153, 88.25488
1019.635, 119.4102
1020.117, 116.0088
1020.599, 104.0996
1021.082, 112.3721
1021.564, 131.4082
1022.046, 123.0566
1022.528, 90.62695
1023.010, 87.54590
1023.492, 121.5469
1023.974, 159.1240
1024.456, 184.6416
1024.938, 198.1602
1025.421, 196.3320
1025.903, 181.4609
1026.385, 187.3662
1026.867, 218.0576
1027.349, 232.9961
1027.831, 222.7002
1028.313, 200.8779
1028.795, 173.5176
1029.278, 147.1094
1029.760, 138.4346
1030.242, 150.9111
1030.724, 149.4092
1031.206, 126.7451
1031.688, 116.3564
1032.170, 133.5469
1032.652, 151.1133
1033.135, 140.4609
1033.617, 114.1113
1034.099, 121.8877
1034.581, 183.2695
1035.063, 221.7031
1035.545, 231.0957
1036.027, 226.9434
1036.509, 207.2412
1036.991, 187.6426
1037.474, 180.0684
1037.956, 181.9561
1038.438, 176.5420
1038.920, 158.0186
1039.402, 141.8115
1039.884, 130.0586
1040.366, 120.3242
1040.848, 108.8926
1041.330, 101.1172
1041.813, 108.7412
1042.295, 132.3027
1042.777, 135.4902
1043.259, 86.16797
1043.741, 64.70117
1044.223, 101.0449
1044.705, 142.9473
1045.187, 166.2715
1045.670, 174.9180
1046.152, 171.3057
1046.634, 141.7148
1047.116, 129.2881
1047.598, 155.6836
1048.080, 180.4854
1048.562, 199.8965
1049.044, 206.8945
1049.526, 185.4287
1050.009, 151.0752
1050.491, 140.6650
1050.973, 164.6416
1051.455, 186.6045
1051.937, 195.8027
1052.419, 202.2451
1052.901, 206.6914
1053.383, 212.7969
1053.865, 229.7061
1054.348, 250.7910
1054.830, 254.0400
1055.312, 228.6016
1055.794, 207.2100
1056.276, 197.7617
1056.758, 195.0879
1057.240, 200.6904
1057.722, 207.6973
1058.205, 207.2637
1058.687, 201.2080
1059.169, 201.1709
1059.651, 218.5205
1060.133, 221.2100
1060.615, 172.4326
1061.097, 135.7041
1061.579, 170.7852
1062.062, 225.2080
1062.544, 221.2568
1063.026, 164.1172
1063.508, 138.0596
1063.990, 193.7637
1064.472, 238.0205
1064.954, 218.8281
1065.436, 193.2842
1065.918, 208.5869
1066.401, 238.4297
1066.883, 236.8594
1067.365, 201.7852
1067.847, 178.4209
1068.329, 191.0420
1068.811, 206.0137
1069.293, 207.4102
1069.775, 206.7930
1070.257, 216.2158
1070.740, 228.8291
1071.222, 229.7715
1071.704, 217.7168
1072.186, 212.5332
1072.668, 240.5928
1073.150, 253.5898
1073.632, 198.8525
1074.114, 146.9473
1074.597, 174.3652
1075.079, 243.7754
1075.561, 275.5381
1076.043, 254.7832
1076.525, 246.2246
1077.007, 295.1123
1077.489, 341.4131
1077.971, 355.1045
1078.453, 353.0000
1078.936, 339.9268
1079.418, 326.8740
1079.900, 335.0459
1080.382, 369.2178
1080.864, 399.3877
1081.346, 411.6260
1081.828, 417.1377
1082.310, 413.3818
1082.792, 412.7988
1083.275, 421.0186
1083.757, 443.5498
1084.239, 499.2148
1084.721, 594.3525
1085.203, 661.1816
1085.685, 653.6445
1086.167, 630.5283
1086.649, 629.0439
1087.131, 621.9619
1087.614, 579.9316
1088.096, 510.6455
1088.578, 431.7002
1089.060, 345.0186
1089.542, 280.6426
1090.024, 262.4424
1090.506, 254.9805
1090.988, 250.8535
1091.471, 239.5723
1091.953, 203.9121
1092.435, 154.8535
1092.917, 121.5088
1093.399, 112.5479
1093.881, 101.0225
1094.363, 69.09375
1094.845, 42.07031
1095.328, 28.85742
1095.810, 28.75586
1096.292, 49.52441
1096.774, 80.85449
1097.256, 101.2031
1097.738, 106.8066
1098.220, 95.56250
1098.702, 39.27734
1099.184, 0.9082030
1099.667, 23.74512
1100.149, 62.64355
1100.631, 77.73633
1101.113, 75.39160
1101.595, 85.11621
1102.077, 121.0088
1102.559, 116.5947
1103.041, 2.036133
1103.523, 86.36133
1104.006, 77.53809
1104.488, 40.97949
1104.970, 33.22461
1105.452, 45.29004
1105.934, 46.07324
1106.416, 29.60352
1106.898, 12.43066
1107.380, 10.13086
1107.863, 22.90332
1108.345, 12.59863
1108.827, 1.094727
1109.309, 3.250977
1109.791, 2.845703
1110.273, 8.652344
1110.755, 14.21875
1111.237, 16.15527
1111.719, 11.34277
1112.202, 6.730469
1112.684, 3.837891
1113.166, 1.704102
1113.648, 4.661133
1114.130, 9.680664
1114.612, 3.031250
1115.094, 42.23438
1115.576, 59.06738
1116.058, 32.70312
1116.541, 16.05176
1117.023, 22.43066
1117.505, 35.46094
1117.987, 46.73242
1118.469, 56.84570
1118.951, 66.66895
1119.433, 75.99805
1119.915, 87.21680
1120.398, 103.7314
1120.880, 115.0391
1121.362, 118.0996
1121.844, 117.0547
1122.326, 109.7441
1122.808, 104.9668
1123.290, 122.8037
1123.772, 165.6543
1124.255, 173.3184
1124.737, 125.4170
1125.219, 110.6709
1125.701, 156.6230
1126.183, 196.9893
1126.665, 193.0684
1127.147, 167.5820
1127.629, 153.7598
1128.111, 151.4023
1128.594, 159.6592
1129.076, 182.8516
1129.558, 183.4971
1130.040, 150.2891
1130.522, 133.7539
1131.004, 163.5020
1131.486, 201.3740
1131.968, 191.4404
1132.450, 147.9424
1132.933, 159.8955
1133.415, 226.6436
1133.897, 252.2266
1134.379, 225.2422
1134.861, 210.3311
1135.343, 236.0947
1135.825, 269.7422
1136.307, 274.0205
1136.790, 260.3320
1137.272, 262.6865
1137.754, 277.4922
1138.236, 281.7793
1138.718, 275.5576
1139.200, 275.0107
1139.682, 285.9170
1140.164, 307.0381
1140.646, 341.0137
1141.129, 375.2529
1141.611, 389.6562
1142.093, 385.7236
1142.575, 360.0264
1143.057, 319.6328
1143.539, 282.8438
1144.021, 257.3076
1144.503, 258.2295
1144.985, 303.1914
1145.468, 354.8896
1145.950, 369.2012
1146.432, 361.5420
1146.914, 348.6523
1147.396, 334.5381
1147.878, 319.3330
1148.360, 306.7070
1148.842, 315.0811
1149.325, 360.5244
1149.807, 398.3799
1150.289, 379.8418
1150.771, 350.8379
1151.253, 352.1123
1151.735, 372.2354
1152.217, 397.9014
1152.699, 423.6191
1153.182, 442.3965
1153.664, 452.9561
1154.146, 452.0283
1154.628, 428.8203
1155.110, 404.7412
1155.592, 378.8242
1156.074, 368.3984
1156.556, 406.3320
1157.038, 469.6699
1157.521, 501.2100
1158.003, 487.1445
1158.485, 467.8848
1158.967, 438.3525
1159.449, 423.8926
1159.931, 449.5010
1160.413, 474.3545
1160.895, 467.0889
1161.377, 435.9053
1161.860, 412.2783
1162.342, 399.3271
1162.824, 383.1494
1163.306, 347.9072
1163.788, 337.0156
1164.270, 370.9062
1164.752, 406.0352
1165.234, 421.8770
1165.717, 430.3096
1166.199, 445.9785
1166.681, 466.0254
1167.163, 445.5303
1167.645, 367.8652
1168.127, 330.0625
1168.609, 348.2422
1169.091, 362.2246
1169.573, 349.1025
1170.056, 324.8496
1170.538, 301.6406
1171.020, 285.3008
1171.502, 299.1670
1171.984, 340.5205
1172.466, 361.1621
1172.948, 359.8945
1173.430, 371.8457
1173.912, 405.0898
1174.395, 423.3408
1174.877, 398.8984
1175.359, 359.6191
1175.841, 351.4746
1176.323, 362.2676
1176.805, 359.8555
1177.287, 348.4668
1177.769, 346.8975
1178.252, 354.0498
1178.734, 347.9688
1179.216, 318.1328
1179.698, 281.1953
1180.180, 242.4004
1180.662, 214.7256
1181.144, 225.1787
1181.626, 247.7090
1182.109, 240.6592
1182.591, 215.9941
1183.073, 207.9395
1183.555, 226.4258
1184.037, 233.0195
1184.519, 188.9951
1185.001, 152.2627
1185.483, 152.6045
1185.965, 171.2832
1186.448, 208.3682
1186.930, 245.9639
1187.412, 254.5928
1187.894, 236.4238
1188.376, 233.5908
1188.858, 276.8057
1189.340, 293.2598
1189.822, 246.7119
1190.304, 205.1406
1190.787, 199.0264
1191.269, 204.5273
1191.751, 206.7686
1192.233, 202.7598
1192.715, 179.2686
1193.197, 124.6045
1193.679, 104.6396
1194.161, 132.1035
1194.644, 158.8213
1195.126, 178.8018
1195.608, 180.8887
1196.090, 152.9326
1196.572, 117.5020
1197.054, 110.9248
1197.536, 129.3008
1198.018, 145.2510
1198.500, 158.2744
1198.983, 154.9404
1199.465, 134.6182
1199.947, 120.3584
1200.429, 121.5215
1200.911, 120.0977
1201.393, 94.79395
1201.875, 22.85449
1202.357, 65.08789
1202.839, 88.19238
1203.322, 93.20312
1203.804, 25.95215
1204.286, 52.00781
1204.768, 40.66602
1205.250, 27.78613
1205.732, 66.96973
1206.214, 10.19727
1206.696, 48.54785
1207.179, 48.90820
1207.661, 66.67969
1208.143, 46.93262
1208.625, 38.85840
1209.107, 68.50293
1209.589, 77.32812
1210.071, 53.39746
1210.553, 72.53320
1211.036, 14.75098
1211.518, 24.48828
1212.000, 63.36523
1212.482, 41.38379
1212.964, 61.27344
1213.446, 65.23438
1213.928, 3.249023
1214.410, 54.27441
1214.892, 57.31348
1215.375, 4.410156
1215.857, 57.63672
1216.339, 12.44434
1216.821, 2.382813
1217.303, 18.75293
1217.785, 7.577148
1218.267, 39.82324
1218.749, 30.19141
1219.231, 33.78418
1219.714, 72.66992
1220.196, 68.23730
1220.678, 25.81934
1221.160, 19.07617
1221.642, 57.14746
1222.124, 70.25488
1222.606, 20.48145
1223.088, 28.83008
1223.571, 6.168945
1224.053, 73.43262
1224.535, 95.48828
1225.017, 87.78809
1225.499, 64.97168
1225.981, 39.05566
1226.463, 35.90234
1226.945, 58.22070
1227.427, 74.58496
1227.910, 68.31934
1228.392, 54.04102
1228.874, 28.89551
1229.356, 9.490234
1229.838, 10.13672
1230.320, 19.29004
1230.802, 24.90137
1231.284, 26.93066
1231.766, 31.07520
1232.249, 39.23535
1232.731, 43.97559
1233.213, 45.70703
1233.695, 45.60449
1234.177, 41.71680
1234.659, 38.82324
1235.141, 38.84473
1235.623, 40.00000
1236.106, 41.08008
1236.588, 42.65234
1237.070, 50.66406
1237.552, 64.08301
1238.034, 83.32129
1238.516, 99.17969
1238.998, 82.22461
1239.480, 14.66113
1239.963, 32.24902
1240.445, 0.1279300
1240.927, 61.93262
1241.409, 84.35938
1241.891, 81.12598
1242.373, 81.50293
1242.855, 80.29004
1243.337, 54.63086
1243.819, 16.55762
1244.302, 18.84766
1244.784, 79.28809
1245.266, 124.8604
1245.748, 100.3623
1246.230, 69.19434
1246.712, 56.92578
1247.194, 26.97754
1247.676, 33.36523
1248.158, 41.36133
1248.641, 41.04395
1249.123, 25.95508
1249.605, 17.28711
1250.087, 2.310547
1250.569, 6.3477002E-02
1251.051, 19.32617
1251.533, 41.72949
1252.015, 62.69043
1252.498, 65.15039
1252.980, 41.72070
1253.462, 0.0000000E+00
##END=



