##NAMES=Vonsenite
##RRUFFID=R050477
##IDEAL CHEMISTRY=Fe^2+^_2_Fe^3+^O_2_(BO_3_)
##LOCALITY=North Hill, Riverside, California, USA
##OWNER=RRUFF
##SOURCE=California Institute of Technology
##DESCRIPTION=Aggregate of black granules
##STATUS=The identification of this mineral has been confirmed by X-ray diffraction and chemical analysis
##URL=rruff.info/R050477
##MEASURED CHEMISTRY=(Fe^2+^_0.63_Mg_0.37_)_2_Fe^3+^_1.00_BO_5_
140.5486, 0.0000000E+00
141.0307, 9.5183998E-02
141.5128, 6.8474002E-02
141.9949, 0.1425090
142.4770, 0.3759610
142.9591, 0.6072690
143.4413, 0.6600040
143.9234, 0.5660170
144.4055, 0.4532240
144.8876, 0.4550860
145.3697, 0.4437030
145.8518, 0.3397060
146.3340, 0.3385540
146.8161, 0.3376770
147.2982, 0.3103560
147.7803, 0.2617490
148.2624, 0.1894680
148.7445, 9.4962999E-02
149.2267, 4.4479001E-02
149.7088, 4.2130001E-02
150.1909, 0.1957630
150.6730, 0.4673540
151.1551, 0.6901630
151.6372, 0.9029460
152.1194, 1.129669
152.6015, 1.176430
153.0836, 1.104721
153.5657, 1.015053
154.0478, 0.8836060
154.5299, 0.7770610
155.0121, 0.7597050
155.4942, 1.003151
155.9763, 1.162270
156.4584, 1.184486
156.9405, 1.100159
157.4227, 1.035828
157.9048, 1.037643
158.3869, 1.081276
158.8690, 1.119598
159.3511, 1.151276
159.8332, 1.165276
160.3154, 1.189087
160.7975, 1.216560
161.2796, 1.158974
161.7617, 0.8793490
162.2438, 0.4033510
162.7259, 7.4890003E-02
163.2081, -6.4283848E-02
163.6902, 0.1108312
164.1723, 0.2153494
164.6544, 0.2530641
165.1365, 2.3892185E-02
165.6186, 0.1393491
166.1008, 0.1166970
166.5829, 8.8378906E-02
167.0650, 0.2523408
167.5471, 6.1986879E-02
168.0292, 0.2228995
168.5113, 0.2435929
168.9935, 0.3284637
169.4756, 0.2743674
169.9577, 0.2631928
170.4398, 0.3910273
170.9219, 0.4418913
171.4040, 0.9854280
171.8862, 1.542587
172.3683, 1.703377
172.8504, 1.474617
173.3325, 1.339882
173.8146, 1.416122
174.2967, 1.361689
174.7789, 1.532819
175.2610, 1.630049
175.7431, 1.657351
176.2252, 1.405280
176.7073, 1.513960
177.1894, 1.478068
177.6716, 1.436248
178.1537, 1.595703
178.6358, 1.384266
179.1179, 1.540529
179.6000, 1.550012
180.0821, 1.275833
180.5643, 1.245522
181.0464, 1.207619
181.5285, 1.146011
182.0106, 1.099266
182.4927, 1.121277
182.9749, 1.187912
183.4570, 1.175789
183.9391, 0.9647060
184.4212, 0.6773380
184.9033, 0.5776520
185.3854, 0.7551650
185.8676, 0.9793930
186.3497, 1.066048
186.8318, 1.012161
187.3139, 0.9234920
187.7960, 0.8046950
188.2781, 0.6951680
188.7603, 0.6468050
189.2424, 0.6832050
189.7245, 0.7511220
190.2066, 0.7973940
190.6887, 0.8342670
191.1708, 0.7992710
191.6530, 0.4896770
192.1351, 0.1812290
192.6172, 0.1863940
193.0993, 0.5272029
193.5814, 0.6523540
194.0635, 0.7036058
194.5457, 0.6849210
195.0278, 0.3868726
195.5099, 0.4495756
195.9920, 0.7484130
196.4741, 0.9403230
196.9562, 0.8777850
197.4384, 0.6350400
197.9205, 0.4310990
198.4026, 0.2990570
198.8847, 0.2220420
199.3668, 0.2085190
199.8489, 0.2448580
200.3311, 0.3478850
200.8132, 0.5292660
201.2953, 0.7305490
201.7774, 0.7262150
202.2595, 0.2080840
202.7416, 0.1818430
203.2238, 0.4245610
203.7059, 0.4910620
204.1880, 0.2900280
204.6701, 0.2512400
205.1522, 1.000866
205.6344, 1.366459
206.1165, 0.9738690
206.5986, 0.6781390
207.0807, 0.6988560
207.5628, 0.9392620
208.0449, 1.225788
208.5271, 1.474876
209.0092, 1.677906
209.4913, 1.800858
209.9734, 1.811989
210.4555, 1.819248
210.9376, 1.860447
211.4198, 1.896252
211.9019, 1.885197
212.3840, 1.811241
212.8661, 1.743240
213.3482, 1.867874
213.8303, 2.347836
214.3125, 2.755566
214.7946, 2.760406
215.2767, 2.437603
215.7588, 2.225471
216.2409, 2.411713
216.7230, 2.754345
217.2052, 2.771893
217.6873, 2.293949
218.1694, 1.843765
218.6515, 1.896515
219.1336, 2.431599
219.6157, 2.897095
220.0979, 3.044117
220.5800, 3.033489
221.0621, 3.043865
221.5442, 3.109066
222.0263, 3.193108
222.5084, 3.265087
222.9906, 3.325100
223.4727, 3.328526
223.9548, 3.179520
224.4369, 3.014572
224.9190, 2.909565
225.4011, 2.874577
225.8833, 2.951550
226.3654, 3.260868
226.8475, 3.892685
227.3296, 4.331223
227.8117, 4.366833
228.2938, 4.219250
228.7760, 3.997910
229.2581, 3.713169
229.7402, 3.433868
230.2223, 3.273693
230.7044, 3.294109
231.1866, 3.232876
231.6687, 2.913418
232.1508, 2.614498
232.6329, 2.546997
233.1150, 2.733643
233.5971, 3.004425
234.0793, 3.105499
234.5614, 2.921665
235.0435, 2.860161
235.5256, 3.079117
236.0077, 3.293488
236.4898, 3.290516
236.9720, 3.054394
237.4541, 2.751335
237.9362, 2.608707
238.4183, 2.682571
238.9004, 2.798023
239.3825, 3.015648
239.8647, 3.223957
240.3468, 3.346535
240.8289, 3.375423
241.3110, 3.361221
241.7931, 3.377094
242.2752, 3.489872
242.7574, 3.410419
243.2395, 2.991192
243.7216, 2.526062
244.2037, 2.154961
244.6858, 1.915962
245.1679, 1.822227
245.6501, 1.906082
246.1322, 2.231598
246.6143, 2.484783
247.0964, 2.725780
247.5785, 2.862461
248.0606, 2.794613
248.5428, 2.533924
249.0249, 2.201546
249.5070, 1.892490
249.9891, 1.598839
250.4712, 1.445869
250.9533, 1.574997
251.4355, 1.733326
251.9176, 1.727135
252.3997, 1.555439
252.8818, 1.373383
253.3639, 1.334927
253.8460, 1.441982
254.3282, 1.439781
254.8103, 1.256748
255.2924, 1.018326
255.7745, 0.7824710
256.2566, 0.5592310
256.7387, 0.3825230
257.2209, 0.2584150
257.7030, 0.2155230
258.1851, 0.3151470
258.6672, 0.7328910
259.1493, 1.150570
259.6314, 1.358631
260.1136, 1.358330
260.5957, 1.209473
261.0778, 0.8528290
261.5599, 0.4306140
262.0420, 0.3266410
262.5241, 0.8322220
263.0063, 1.328545
263.4884, 1.317009
263.9705, 0.8511120
264.4526, 0.4237020
264.9347, 0.2573970
265.4168, 0.2914730
265.8990, 0.3992350
266.3811, 0.6743740
266.8632, 0.8364410
267.3453, 0.5339090
267.8275, 0.1436350
268.3096, 0.5625040
268.7917, 0.3998870
269.2738, 6.7207001E-02
269.7559, 0.4830250
270.2380, 0.8615230
270.7202, 1.083454
271.2023, 0.9551350
271.6844, 0.5407330
272.1665, 0.2842140
272.6486, 0.3834880
273.1307, 0.5990450
273.6129, 0.6751860
274.0950, 0.6146620
274.5771, 0.5569690
275.0592, 0.6150700
275.5413, 0.7634540
276.0234, 0.8346180
276.5056, 0.7717930
276.9877, 0.6765590
277.4698, 0.6368520
277.9519, 0.6457980
278.4340, 0.6408270
278.9161, 0.5314900
279.3983, 0.3623390
279.8804, 0.3388370
280.3625, 0.3769239
280.8446, 0.5644163
281.3267, 0.6767451
281.8088, 0.7179511
282.2910, 0.4750120
282.7731, 0.5989880
283.2552, 0.5759193
283.7373, 4.8076998E-02
284.2194, 7.3990002E-02
284.7015, 6.8706997E-02
285.1837, 6.6344999E-02
285.6658, 5.5606999E-02
286.1479, 1.4671000E-02
286.6300, 7.9425998E-02
287.1121, 0.1983220
287.5942, 0.2651600
288.0764, 0.2396240
288.5585, 0.2675020
289.0406, 0.4322470
289.5227, 0.6456680
290.0048, 0.8499300
290.4869, 1.041103
290.9691, 1.161251
291.4512, 1.065056
291.9333, 0.6488990
292.4154, 0.3507350
292.8975, 0.4163970
293.3796, 0.5662000
293.8618, 0.5663190
294.3439, 0.3577040
294.8260, 0.1143460
295.3081, 9.4044000E-02
295.7902, 0.3634490
296.2723, 0.5388830
296.7545, 0.4251820
297.2366, 0.2924000
297.7187, 0.3052750
298.2008, 0.4719430
298.6829, 0.6754190
299.1650, 0.8139150
299.6472, 0.8891640
300.1293, 0.8812790
300.6114, 0.6920390
301.0935, 0.5006520
301.5756, 0.3713110
302.0577, 0.3076060
302.5399, 0.2937890
303.0220, 0.3354340
303.5041, 0.4295040
303.9862, 0.4895860
304.4683, 0.5232200
304.9504, 0.5068700
305.4326, 0.3867300
305.9147, 0.2177430
306.3968, 8.6796001E-02
306.8789, 2.7615000E-02
307.3610, 5.8067001E-02
307.8431, 0.1557041
308.3253, 0.3807871
308.8074, 0.5307007
309.2895, 0.6094873
309.7716, 0.4041300
310.2537, 0.5656865
310.7358, 0.5802026
311.2180, 0.2190700
311.7001, 6.8020001E-02
312.1822, 0.2678790
312.6643, 0.4722670
313.1464, 0.6671980
313.6285, 0.8080830
314.1107, 0.8447460
314.5928, 0.7652440
315.0749, 0.6235160
315.5570, 0.4869350
316.0392, 0.3499720
316.5213, 0.2482570
317.0034, 0.1177250
317.4855, 7.1429998E-02
317.9676, 0.2659720
318.4497, 0.6626890
318.9319, 1.004223
319.4140, 0.9657670
319.8961, 0.4903340
320.3782, 0.2185170
320.8603, 0.3641510
321.3424, 0.5246090
321.8246, 0.5670550
322.3067, 0.4990390
322.7888, 0.3533480
323.2709, 9.4498001E-02
323.7530, 0.2289050
324.2351, 0.2164650
324.7173, 0.4833180
325.1994, 1.026890
325.6815, 1.094654
326.1636, 0.8522150
326.6457, 0.5683670
327.1278, 0.3602600
327.6100, 0.2062840
328.0921, 9.9876001E-02
328.5742, 2.5899999E-04
329.0563, 4.4289000E-02
329.5384, 0.4843900
330.0205, 0.9426120
330.5027, 1.032383
330.9848, 0.6454890
331.4669, 0.1112860
331.9490, 7.5893000E-02
332.4311, 0.1910860
332.9132, 0.3345600
333.3954, 5.8727000E-02
333.8775, 0.2065960
334.3596, 0.1771470
334.8417, 0.1359560
335.3238, 0.4737740
335.8059, 0.5620000
336.2881, 0.3958210
336.7702, 0.3496630
337.2523, 0.5764690
337.7344, 0.7615320
338.2165, 0.7224770
338.6986, 0.5324100
339.1808, 0.3703960
339.6629, 0.3575210
340.1450, 0.4506260
340.6271, 0.4900440
341.1092, 0.4561460
341.5913, 0.3942180
342.0735, 0.2629170
342.5556, 0.1382260
343.0377, 0.1317480
343.5198, 0.3171840
344.0019, 0.5424840
344.4840, 0.5248640
344.9662, 0.1910590
345.4483, 7.6389000E-02
345.9304, 0.2070660
346.4125, 0.1953240
346.8946, 6.2080000E-02
347.3767, 0.5776330
347.8589, 1.048325
348.3410, 1.132042
348.8231, 0.8397370
349.3052, 0.6112520
349.7873, 0.4939120
350.2694, 0.4746130
350.7516, 0.5669860
351.2337, 0.7495880
351.7158, 0.9342800
352.1979, 1.119789
352.6800, 1.270195
353.1621, 1.235016
353.6443, 0.9213030
354.1264, 0.6288990
354.6085, 0.5409390
355.0906, 0.5845220
355.5727, 0.6620100
356.0548, 0.7495000
356.5370, 0.8488920
357.0191, 0.9925460
357.5012, 1.192062
357.9833, 1.295609
358.4654, 1.142002
358.9475, 0.9150620
359.4297, 0.8514750
359.9118, 1.002613
360.3939, 1.169506
360.8760, 1.187256
361.3581, 1.086868
361.8402, 1.023415
362.3224, 1.031273
362.8045, 1.089249
363.2866, 1.200039
363.7687, 1.355103
364.2508, 1.462376
364.7329, 1.449829
365.2151, 1.378353
365.6972, 1.364529
366.1793, 1.432552
366.6614, 1.472305
367.1436, 1.169948
367.6257, 1.366701
368.1078, 1.489553
368.5899, 1.542478
369.0720, 1.316030
369.5541, 1.450334
370.0363, 1.440069
370.5184, 1.423872
371.0005, 1.608949
371.4826, 1.423137
371.9647, 1.605021
372.4468, 1.640129
372.9290, 1.742418
373.4111, 1.699237
373.8932, 1.700984
374.3753, 1.848245
374.8574, 1.914933
375.3395, 1.855007
375.8217, 1.961566
376.3038, 1.565441
376.7859, 1.479977
377.2680, 1.790150
377.7501, 2.131912
378.2322, 2.132633
378.7144, 1.809883
379.1965, 1.510765
379.6786, 1.497265
380.1607, 1.746632
380.6428, 1.948643
381.1249, 2.252506
381.6071, 2.345379
382.0892, 1.815738
382.5713, 1.953446
383.0534, 2.017253
383.5355, 2.011133
384.0176, 1.725640
384.4998, 1.800893
384.9819, 1.731578
385.4640, 1.656337
385.9461, 1.782369
386.4282, 1.722084
386.9103, 1.728970
387.3925, 1.723480
387.8746, 1.714130
388.3567, 1.719528
388.8388, 1.621288
389.3209, 1.770940
389.8030, 1.846691
390.2852, 1.852512
390.7673, 1.578962
391.2494, 1.666166
391.7315, 1.608795
392.2136, 1.545497
392.6957, 1.683473
393.1779, 1.654907
393.6600, 1.498905
394.1421, 1.377331
394.6242, 1.314991
395.1063, 1.293198
395.5884, 1.323788
396.0706, 1.397312
396.5527, 1.307880
397.0348, 1.448656
397.5169, 1.515532
397.9990, 1.512480
398.4811, 1.230054
398.9633, 1.308376
399.4454, 1.242129
399.9275, 1.169955
400.4096, 1.299055
400.8917, 1.057265
401.3738, 1.183172
401.8560, 1.191893
402.3381, 0.9409415
402.8202, 1.050741
403.3023, 1.015968
403.7844, 0.9752671
404.2665, 1.135841
404.7487, 0.9255243
405.2308, 1.082906
405.7129, 1.093509
406.1950, 0.9884680
406.6771, 0.9242670
407.1592, 0.8802600
407.6414, 0.8681600
408.1235, 0.9594350
408.6056, 0.9807797
409.0877, 1.111383
409.5698, 1.168089
410.0519, 1.154865
410.5341, 0.8622630
411.0162, 0.9304174
411.4983, 0.8540015
411.9804, 0.7716549
412.4625, 0.8905859
412.9446, 0.6386232
413.4268, 0.6944580
413.9089, 0.6268310
414.3910, 0.6369930
414.8731, 0.7000920
415.3553, 0.6752470
415.8374, 0.4714510
416.3195, 0.2387350
416.8016, 0.2194900
417.2837, 0.4245070
417.7658, 0.6384320
418.2480, 0.8405380
418.7301, 1.006203
419.2122, 1.097919
419.6943, 1.112648
420.1764, 1.078651
420.6585, 1.014786
421.1407, 0.9191020
421.6228, 0.7953450
422.1049, 0.5279350
422.5870, 0.3585430
423.0691, 0.5054470
423.5512, 0.7932130
424.0334, 0.8946950
424.5155, 0.6748960
424.9976, 0.2728880
425.4797, 6.5769002E-02
425.9618, 0.4146800
426.4439, 0.5165330
426.9261, 0.1308330
427.4082, 0.3069460
427.8903, 0.4678990
428.3724, 0.3646050
428.8545, 0.2314990
429.3366, 0.2678490
429.8188, 0.4627000
430.3009, 0.5687260
430.7830, 0.5157390
431.2651, 0.4439700
431.7472, 0.3369600
432.2293, 0.2375530
432.7115, 0.1925010
433.1936, 0.2191090
433.6757, 0.3070720
434.1578, 0.4618990
434.6399, 0.7259030
435.1220, 0.9053920
435.6042, 1.002941
436.0863, 0.9899900
436.5684, 0.7500720
437.0505, 0.3719940
437.5326, 0.1290780
438.0147, 0.2414890
438.4969, 0.5460930
438.9790, 0.5726360
439.4611, 0.1839940
439.9432, 0.1266330
440.4253, 0.1327100
440.9074, 3.0494999E-02
441.3896, 0.3016550
441.8717, 0.7114030
442.3538, 1.022831
442.8359, 0.9141920
443.3180, 0.4723470
443.8001, 0.2563970
444.2823, 0.4665220
444.7644, 0.7539180
445.2465, 0.7133640
445.7286, 0.4281810
446.2107, 0.2843890
446.6928, 0.5223270
447.1750, 0.8584590
447.6571, 0.9819640
448.1392, 0.9099920
448.6213, 0.8762860
449.1034, 1.038151
449.5855, 1.285511
450.0677, 1.295246
450.5498, 0.9677010
451.0319, 0.6647990
451.5140, 0.4198110
451.9961, 0.2757840
452.4782, 0.3339270
452.9604, 0.5972100
453.4425, 0.8987960
453.9246, 1.075039
454.4067, 1.119888
454.8888, 1.088055
455.3709, 0.8736690
455.8531, 0.7121010
456.3352, 0.7475050
456.8173, 0.8812980
457.2994, 0.9349520
457.7815, 0.8252560
458.2636, 0.6319580
458.7458, 0.5189290
459.2279, 0.5049290
459.7100, 0.5397610
460.1921, 0.7304610
460.6742, 0.8708760
461.1563, 0.7825850
461.6385, 0.5155450
462.1206, 0.2799910
462.6027, 0.2368350
463.0848, 0.3596530
463.5669, 0.5218580
464.0491, 0.7599110
464.5312, 0.9569470
465.0133, 1.077255
465.4954, 1.138668
465.9775, 1.134178
466.4597, 1.055367
466.9418, 0.9902650
467.4239, 1.069244
467.9060, 1.257938
468.3881, 1.311184
468.8702, 1.156960
469.3524, 0.9350850
469.8345, 0.7102390
470.3166, 0.5053900
470.7987, 0.4106220
471.2808, 0.5255890
471.7629, 0.6991650
472.2451, 0.8557890
472.7272, 0.9768450
473.2093, 0.9128490
473.6914, 0.5454750
474.1735, 6.7524001E-02
474.6556, 0.1525120
475.1378, 0.1007730
475.6199, 0.1069600
476.1020, 0.6842730
476.5841, 1.252895
477.0662, 1.431023
477.5483, 1.229435
478.0305, 0.9549750
478.5126, 0.8442480
478.9947, 0.8688350
479.4768, 0.7874620
479.9589, 0.2922230
480.4410, 6.4676002E-02
480.9232, 0.4429660
481.4053, 1.001965
481.8874, 1.295574
482.3695, 1.222448
482.8516, 0.9984820
483.3337, 0.8785550
483.8159, 0.8648620
484.2980, 0.8080960
484.7801, 0.7036590
485.2622, 0.6049500
485.7443, 0.5207630
486.2264, 0.4548400
486.7086, 0.4018900
487.1907, 0.3519210
487.6728, 0.3421360
488.1549, 0.4725700
488.6370, 0.7589170
489.1191, 0.9093440
489.6013, 0.7508640
490.0834, 0.5589260
490.5655, 0.6547720
491.0476, 0.9802130
491.5297, 1.129995
492.0118, 0.7633690
492.4940, 0.2334290
492.9761, 3.4664001E-02
493.4582, 0.1582970
493.9403, 0.2169170
494.4224, 4.7003001E-02
494.9045, 0.4476680
495.3867, 0.4652730
495.8688, 9.8826997E-02
496.3509, 0.4813440
496.8330, 0.3515570
497.3151, 4.0846001E-02
497.7972, 0.1094340
498.2794, 5.5052001E-02
498.7615, 5.8908001E-02
499.2436, 9.6135996E-02
499.7257, 6.2625997E-02
500.2078, 8.6802997E-02
500.6899, 0.2566010
501.1721, 0.3772890
501.6542, 0.3768060
502.1363, 0.3336320
502.6184, 0.3308030
503.1005, 0.3905320
503.5826, 0.4801060
504.0648, 0.5840110
504.5469, 0.7169400
505.0290, 0.7118050
505.5111, 0.4008200
505.9932, 0.1574500
506.4753, 0.1725900
506.9575, 0.3379590
507.4396, 0.4865020
507.9217, 0.5645310
508.4038, 0.5882280
508.8859, 0.5279690
509.3680, 0.3951970
509.8502, 0.4117490
510.3323, 0.7264160
510.8144, 1.047556
511.2965, 1.081766
511.7786, 0.8812690
512.2607, 0.6890390
512.7429, 0.5444010
513.2250, 0.4482500
513.7071, 0.4095900
514.1892, 0.4217340
514.6713, 0.4671100
515.1534, 0.5487290
515.6356, 0.6273730
516.1177, 0.6161350
516.5998, 0.4281140
517.0819, 0.3488560
517.5640, 0.4870410
518.0461, 0.6538390
518.5283, 0.7393360
519.0104, 0.7377780
519.4925, 0.6635280
519.9746, 0.5142060
520.4567, 0.3323440
520.9388, 0.2954220
521.4210, 0.5480940
521.9031, 0.6723120
522.3852, 0.5067650
522.8673, 0.2972530
523.3494, 0.2298090
523.8315, 0.3026600
524.3137, 0.3807370
524.7958, 0.3362580
525.2779, 0.2185690
525.7600, 0.2248880
526.2421, 0.4009460
526.7242, 0.5317250
527.2064, 0.4736500
527.6885, 0.3423860
528.1706, 0.3016870
528.6527, 0.3865600
529.1348, 0.4311350
529.6169, 0.2484130
530.0991, 7.8410003E-03
530.5812, 5.8350001E-02
531.0633, 0.4378170
531.5454, 0.7534470
532.0275, 0.6799240
532.5096, 0.2766760
532.9918, 1.5224000E-02
533.4739, 4.1553002E-02
533.9560, 5.6347001E-02
534.4381, 2.7796000E-02
534.9202, 7.7269999E-03
535.4023, 3.5230001E-03
535.8845, 6.2559001E-02
536.3666, 0.1084460
536.8487, 7.4424997E-02
537.3308, 3.8238999E-02
537.8129, 0.1185230
538.2951, 0.1289020
538.7772, 0.1596280
539.2593, 0.2434830
539.7415, 0.3401970
540.2236, 0.4690460
540.7057, 0.6301560
541.1878, 0.7351820
541.6699, 0.6118530
542.1520, 0.3080730
542.6342, 0.1166435
543.1163, 0.3234623
543.5984, 0.4536653
544.0805, 0.5113657
544.5626, 0.2794101
545.0447, 0.4214808
545.5269, 0.4136692
546.0090, 0.3996989
546.4911, 0.4517357
546.9732, 0.6097975
547.4553, 0.6912394
547.9374, 0.7001808
548.4196, 0.4194600
548.9017, 0.5127759
549.3838, 0.4561952
549.8659, 0.3934679
550.3480, 0.5394247
550.8301, 0.3008398
551.3123, 0.4434827
551.7944, 0.4339502
552.2765, 0.4940653
552.7586, 0.2666530
553.2407, 0.1425060
553.7228, 8.4700003E-02
554.2050, 6.1423998E-02
554.6871, 9.9244997E-02
555.1692, 0.2429560
555.6513, 0.3759370
556.1334, 0.4775140
556.6155, 0.5567780
557.0977, 0.6335320
557.5798, 0.7225880
558.0619, 0.7434440
558.5440, 0.5476250
559.0261, 0.2119870
559.5082, 4.4043999E-02
559.9904, 0.1113280
560.4725, 0.2330890
560.9546, 0.2904640
561.4367, 0.2869890
561.9188, 0.2593900
562.4009, 7.3540002E-02
562.8831, 2.8767001E-02
563.3652, 0.4521450
563.8473, 0.9939210
564.3294, 1.098394
564.8115, 0.6827960
565.2936, 0.1850170
565.7758, 5.7921998E-02
566.2579, 0.3024920
566.7400, 0.3779220
567.2221, 2.0718001E-02
567.7042, 0.1887950
568.1863, 5.0216999E-02
568.6685, 0.2237780
569.1506, 0.4086480
569.6327, 0.4601190
570.1148, 0.5086750
570.5969, 0.7483100
571.0790, 1.121340
571.5612, 1.213797
572.0433, 0.9053990
572.5254, 0.6549430
573.0075, 0.8240950
573.4896, 1.136967
573.9717, 1.141954
574.4539, 0.6981450
574.9360, 0.3315980
575.4181, 0.4027330
575.9002, 0.6489090
576.3823, 0.6749940
576.8644, 0.4532070
577.3466, 0.2363700
577.8287, 0.2084350
578.3108, 0.3277030
578.7929, 0.3916000
579.2750, 0.3160920
579.7571, 0.2976880
580.2393, 0.3484040
580.7214, 0.4561100
581.2035, 0.6940690
581.6856, 1.002256
582.1677, 1.162485
582.6498, 0.9731040
583.1320, 0.5478270
583.6141, 0.2721200
584.0962, 0.1538960
584.5783, 0.1627920
585.0604, 0.4293960
585.5425, 0.7107300
586.0247, 0.8006840
586.5068, 0.7029510
586.9889, 0.5462230
587.4710, 0.3214280
587.9531, 0.1054060
588.4352, 3.5287999E-02
588.9174, 8.7320000E-02
589.3995, 5.0788999E-02
589.8816, 0.4744820
590.3637, 0.9543060
590.8458, 1.077885
591.3279, 0.6681920
591.8101, 0.3889290
592.2922, 0.3223780
592.7743, 0.3074110
593.2564, 0.2261280
593.7385, 0.1316380
594.2206, 0.1912210
594.7028, 0.4883040
595.1849, 0.8114090
595.6670, 0.7182670
596.1491, 0.1167450
596.6312, 0.2108350
597.1133, 2.7826000E-02
597.5955, 0.1942330
598.0776, 0.1593820
598.5597, 1.2287000E-02
599.0418, 8.7393001E-02
599.5239, 2.3130000E-02
600.0060, 0.1781650
600.4882, 0.2957340
600.9703, 0.3730950
601.4524, 0.3772960
601.9345, 0.2981530
602.4166, 0.2377830
602.8987, 0.3032570
603.3809, 0.4798910
603.8630, 0.5465680
604.3451, 0.4050010
604.8272, 0.2968620
605.3093, 0.2692660
605.7914, 0.2921920
606.2736, 0.3696040
606.7557, 0.4782980
607.2378, 0.5267940
607.7199, 0.4044490
608.2020, 0.1709590
608.6841, 0.1547660
609.1663, 0.4614720
609.6484, 0.6807310
610.1305, 0.6078930
610.6126, 0.4581790
611.0947, 0.4072880
611.5768, 0.4610940
612.0590, 0.5475940
612.5411, 0.6669520
613.0232, 0.7838210
613.5053, 0.8878690
613.9874, 0.9614850
614.4695, 0.8998990
614.9517, 0.6330910
615.4338, 0.3230880
615.9159, 0.2385650
616.3980, 0.4522550
616.8801, 0.6531260
617.3622, 0.9882240
617.8444, 1.160603
618.3265, 0.8691710
618.8086, 0.3869210
619.2907, 0.1677510
619.7728, 0.3740960
620.2549, 0.7220020
620.7371, 0.8198740
621.2192, 0.6822150
621.7013, 0.6831090
622.1834, 0.9117790
622.6655, 1.118258
623.1476, 1.157618
623.6298, 1.078684
624.1119, 0.9394040
624.5940, 0.7127170
625.0761, 0.5493030
625.5582, 0.5337560
626.0403, 0.5968650
626.5225, 0.6282940
627.0046, 0.6305070
627.4867, 0.6624970
627.9688, 0.7687780
628.4509, 0.9136180
628.9330, 0.9768220
629.4152, 0.8828750
629.8973, 0.8448790
630.3794, 0.9064870
630.8615, 0.9834940
631.3436, 1.032806
631.8257, 1.058056
632.3079, 1.085171
632.7900, 1.134649
633.2721, 1.169542
633.7542, 1.100683
634.2363, 0.9412380
634.7184, 0.8751640
635.2006, 0.9657960
635.6827, 1.084665
636.1648, 1.127510
636.6469, 1.110151
637.1291, 1.090597
637.6112, 1.015314
638.0933, 0.9496730
638.5754, 0.9585480
639.0576, 0.9917770
639.5397, 0.9641110
640.0218, 0.8829250
640.5039, 0.8739780
640.9860, 1.071913
641.4681, 1.395388
641.9503, 1.409683
642.4324, 0.9117160
642.9145, 0.6176610
643.3966, 0.9028050
643.8787, 1.265057
644.3608, 1.373426
644.8430, 1.243004
645.3251, 1.080971
645.8072, 0.8715420
646.2893, 0.7584210
646.7714, 1.027597
647.2535, 1.538158
647.7357, 1.764320
648.2178, 1.540234
648.6999, 1.154089
649.1820, 0.9193340
649.6641, 0.8415570
650.1462, 0.7758710
650.6284, 0.6774790
651.1105, 0.6460570
651.5926, 0.7517450
652.0747, 0.9045940
652.5568, 1.035337
653.0389, 1.121716
653.5211, 1.146414
654.0032, 1.060976
654.4853, 0.9051800
654.9674, 0.8723700
655.4495, 0.9685900
655.9316, 0.9974610
656.4138, 0.8616280
656.8959, 0.6733800
657.3780, 0.5744360
657.8601, 0.5527900
658.3422, 0.6432290
658.8243, 1.014389
659.3065, 1.338463
659.7886, 1.461035
660.2707, 1.405981
660.7528, 1.162628
661.2349, 0.7546730
661.7170, 0.3665500
662.1992, 0.2189560
662.6813, 0.3017770
663.1634, 0.3774410
663.6455, 0.4265380
664.1276, 0.5142150
664.6097, 0.7727340
665.0919, 0.9921990
665.5740, 0.8921200
666.0561, 0.4761940
666.5382, 0.2189480
667.0203, 0.5286660
667.5024, 0.9567600
667.9846, 0.9841960
668.4667, 0.7070830
668.9488, 0.4914510
669.4309, 0.4711700
669.9130, 0.5624620
670.3951, 0.6669690
670.8773, 0.7944660
671.3594, 0.8563210
671.8415, 0.8021260
672.3236, 0.7430780
672.8057, 0.7080630
673.2878, 0.6697030
673.7700, 0.5719070
674.2521, 0.4185600
674.7342, 0.3088380
675.2163, 0.3837870
675.6984, 0.5314620
676.1805, 0.4879250
676.6627, 0.2624260
677.1448, 8.0164000E-02
677.6269, 1.5679999E-03
678.1090, 4.7260001E-02
678.5911, 0.2885610
679.0732, 0.7999440
679.5554, 1.058203
680.0375, 0.9310340
680.5196, 0.7118800
681.0017, 0.4437270
681.4838, 0.1790160
681.9659, 4.4916000E-02
682.4481, 0.2089310
682.9302, 0.2729680
683.4123, 0.1633950
683.8944, 7.0169002E-02
684.3765, 0.2252430
684.8586, 0.2876260
685.3408, 0.3536470
685.8229, 0.4692690
686.3050, 0.5874790
686.7871, 0.6514720
687.2692, 0.6638110
687.7513, 0.6403220
688.2335, 0.5662770
688.7156, 0.4751010
689.1977, 0.3764880
689.6798, 0.2759910
690.1619, 0.1668990
690.6440, 5.4311998E-02
691.1262, 1.9928001E-02
691.6083, 2.7960001E-03
692.0904, 8.8926002E-02
692.5725, 0.1398330
693.0546, 0.1543600
693.5367, 0.1086310
694.0189, 0.1353150
694.5010, 0.3256280
694.9831, 0.1667690
695.4652, 0.2905790
695.9473, 0.6355650
696.4294, 0.7209870
696.9116, 0.6723610
697.3937, 0.5016080
697.8758, 0.2931060
698.3579, 0.1780700
698.8400, 0.1840480
699.3221, 0.2542000
699.8043, 0.3503700
700.2864, 0.4567390
700.7685, 0.4339200
701.2506, 0.1747040
701.7327, 3.5162002E-02
702.2148, 0.1663320
702.6970, 0.3597180
703.1791, 0.5309730
703.6612, 0.6542110
704.1433, 0.6632540
704.6254, 0.4383430
705.1075, 0.2104260
705.5897, 0.2130740
706.0718, 0.3477210
706.5539, 0.3924500
707.0360, 0.3118060
707.5181, 0.2502690
708.0002, 0.3308730
708.4824, 0.5235900
708.9645, 0.6824000
709.4466, 0.8374940
709.9287, 0.8999270
710.4108, 0.7682090
710.8929, 0.6337660
711.3751, 0.6572910
711.8572, 0.7613930
712.3393, 0.7273770
712.8214, 0.4267960
713.3035, 9.9840000E-02
713.7856, 5.5617999E-02
714.2678, 8.2525000E-02
714.7499, 6.8630002E-02
715.2320, 2.6323000E-02
715.7141, 6.4249001E-02
716.1962, 0.2241990
716.6783, 0.4251800
717.1605, 0.5850120
717.6426, 0.7142110
718.1247, 0.7781070
718.6068, 0.7438980
719.0889, 0.6825180
719.5710, 0.6350100
720.0532, 0.5782930
720.5353, 0.4343240
721.0174, 0.1583810
721.4995, 1.9091001E-02
721.9816, 0.2084620
722.4637, 0.6232430
722.9459, 0.7846430
723.4280, 0.6763360
723.9101, 0.4886110
724.3922, 0.2877660
724.8743, 0.1482470
725.3564, 0.2262920
725.8386, 0.6281870
726.3207, 0.8644140
726.8028, 0.8730930
727.2849, 0.7941210
727.7670, 0.6090050
728.2491, 0.3903350
728.7313, 0.1956790
729.2134, 4.1494001E-02
729.6955, 1.4050000E-02
730.1776, 0.1512580
730.6597, 0.3954540
731.1418, 0.4924760
731.6240, 0.4575310
732.1061, 0.3959500
732.5882, 0.3428250
733.0703, 0.2794510
733.5524, 0.1678660
734.0345, 8.9099997E-04
734.5167, 4.7809999E-02
734.9988, 0.1570890
735.4809, 0.3006520
735.9631, 0.3124410
736.4452, 0.2742730
736.9273, 0.2361790
737.4094, 0.2070240
737.8915, 0.1781880
738.3737, 8.3619997E-02
738.8558, 7.1094997E-02
739.3379, 0.3128169
739.8200, 0.4699372
740.3021, 0.5531579
740.7842, 0.5664514
741.2664, 0.3003682
741.7485, 0.3950406
742.2306, 0.2514040
742.7127, 0.2275610
743.1948, 0.4134512
743.6769, 0.5254396
744.1591, 0.5675061
744.6412, 0.3301939
745.1233, 0.1655310
745.6054, 0.1251050
746.0875, 0.2566030
746.5696, 0.5935210
747.0518, 0.8846440
747.5339, 0.9260310
748.0160, 0.7963370
748.4981, 0.5448400
748.9802, 0.2171380
749.4623, 7.0073999E-02
749.9445, 0.2498090
750.4266, 0.5895710
750.9087, 0.8006040
751.3908, 0.8846700
751.8729, 0.8090000
752.3550, 0.4532720
752.8372, 0.1169890
753.3193, 0.2052190
753.8014, 0.4167940
754.2835, 0.3201560
754.7656, 9.4169997E-02
755.2477, 0.4205720
755.7299, 0.3745480
756.2120, 0.2355190
756.6941, 0.3328840
757.1762, 0.5433650
757.6583, 0.5037350
758.1404, 0.1315080
758.6226, 0.2477020
759.1047, 0.3011570
759.5868, 8.6585999E-02
760.0689, 3.3636000E-02
760.5510, 2.2087000E-02
761.0331, 3.3630000E-03
761.5153, 8.4045000E-02
761.9974, 0.1058180
762.4795, 9.2127003E-02
762.9616, 0.4173490
763.4437, 0.5604360
763.9258, 0.3275030
764.4080, 0.1381210
764.8901, 0.2768150
765.3722, 0.5130390
765.8543, 0.5890690
766.3364, 0.5013240
766.8185, 0.3389610
767.3007, 0.1427150
767.7828, 4.5969998E-03
768.2649, 8.3238997E-02
768.7470, 0.4176880
769.2291, 0.6646710
769.7112, 0.8174950
770.1934, 0.8635120
770.6755, 0.7418060
771.1576, 0.5428830
771.6397, 0.4166370
772.1218, 0.3782180
772.6039, 0.3427910
773.0861, 0.2556420
773.5682, 0.2182830
774.0503, 0.3404200
774.5324, 0.5123210
775.0145, 0.5663800
775.4966, 0.4801500
775.9788, 0.3761010
776.4609, 0.3406940
776.9430, 0.3727990
777.4251, 0.5343720
777.9072, 0.8174570
778.3893, 0.8699970
778.8715, 0.5589660
779.3536, 0.1843150
779.8357, 9.9370005E-03
780.3178, 3.2988001E-02
780.7999, 8.9410998E-02
781.2820, 0.5539680
781.7642, 0.8774800
782.2463, 0.9657550
782.7284, 0.9739880
783.2105, 0.9929220
783.6926, 1.007809
784.1747, 0.9421520
784.6569, 0.7530610
785.1390, 0.6253320
785.6211, 0.8388000
786.1032, 1.183825
786.5853, 1.194553
787.0674, 0.8958630
787.5496, 0.6790280
788.0317, 0.7285800
788.5138, 0.8627430
788.9959, 0.8033140
789.4780, 0.5208470
789.9601, 0.4825400
790.4423, 0.9145640
790.9244, 1.226791
791.4065, 1.160259
791.8886, 1.017376
792.3707, 1.090490
792.8528, 1.339445
793.3350, 1.427395
793.8171, 1.103249
794.2992, 0.7823680
794.7813, 0.7851220
795.2634, 0.9144120
795.7455, 0.8640250
796.2277, 0.6398330
796.7098, 0.4789850
797.1919, 0.5298880
797.6740, 0.6884730
798.1561, 0.7664450
798.6382, 0.7629660
799.1204, 0.6783370
799.6025, 0.4610750
800.0846, 0.3085610
800.5667, 0.3175300
801.0488, 0.4485570
801.5309, 0.6851600
802.0131, 1.080824
802.4952, 1.253159
802.9773, 1.004810
803.4594, 0.7159960
803.9415, 0.4775470
804.4236, 0.3295820
804.9058, 0.3351480
805.3879, 0.4844590
805.8700, 0.6876050
806.3521, 0.9237670
806.8342, 1.124697
807.3163, 1.155777
807.7985, 1.054283
808.2806, 0.9670660
808.7627, 0.9204940
809.2448, 0.9153880
809.7269, 0.9612350
810.2090, 1.035255
810.6912, 1.066124
811.1733, 1.031656
811.6554, 0.9777810
812.1375, 0.8917980
812.6196, 0.8446810
813.1017, 0.8568480
813.5839, 0.9034560
814.0660, 0.9701350
814.5481, 1.057095
815.0302, 1.081835
815.5123, 0.9184280
815.9944, 0.7653450
816.4766, 0.8062630
816.9587, 0.9587860
817.4408, 1.062496
817.9229, 1.077551
818.4050, 1.096994
818.8871, 1.212788
819.3693, 1.363127
819.8514, 1.357656
820.3335, 1.189528
820.8156, 1.117102
821.2977, 1.200197
821.7798, 1.331543
822.2620, 1.496866
822.7441, 1.631994
823.2262, 1.520874
823.7083, 0.9313830
824.1904, 0.6361770
824.6725, 0.9034880
825.1547, 1.193823
825.6368, 1.207445
826.1189, 1.125359
826.6010, 1.240950
827.0831, 1.589264
827.5652, 1.881968
828.0474, 1.914869
828.5295, 1.807796
829.0116, 1.665323
829.4937, 1.503843
829.9758, 1.363581
830.4579, 1.253252
830.9401, 1.157187
831.4222, 1.058928
831.9043, 0.9755190
832.3864, 0.9653020
832.8685, 1.044054
833.3506, 1.125795
833.8328, 1.242126
834.3149, 1.284937
834.7971, 1.079397
835.2792, 0.8189030
835.7613, 0.9017520
836.2434, 1.425848
836.7255, 1.737974
837.2076, 1.566320
837.6898, 1.348541
838.1719, 1.289379
838.6540, 1.308157
839.1361, 1.284800
839.6182, 1.212143
840.1003, 1.179686
840.5825, 1.264849
841.0646, 1.383345
841.5467, 1.402233
842.0288, 1.358732
842.5109, 1.397127
842.9930, 1.530340
843.4752, 1.606836
843.9573, 1.531263
844.4394, 1.353834
844.9215, 1.167381
845.4036, 0.9494480
845.8857, 0.8344570
846.3679, 0.8390050
846.8500, 0.9183350
847.3321, 1.166836
847.8142, 1.403929
848.2963, 1.411995
848.7784, 1.200584
849.2606, 1.015102
849.7427, 0.7782590
850.2248, 0.7278420
850.7069, 1.115238
851.1890, 1.620037
851.6711, 1.959408
852.1533, 2.109589
852.6354, 2.124754
853.1175, 2.016573
853.5996, 1.890085
854.0817, 1.861032
854.5638, 1.902733
855.0460, 1.995169
855.5281, 2.125134
856.0102, 2.092037
856.4923, 1.784107
856.9744, 1.440897
857.4565, 1.388670
857.9387, 1.614233
858.4208, 1.698683
858.9029, 1.545610
859.3850, 1.466747
859.8671, 1.602207
860.3492, 1.741842
860.8314, 1.671959
861.3135, 1.488953
861.7956, 1.477295
862.2777, 1.792767
862.7598, 1.976381
863.2419, 1.777016
863.7241, 1.538795
864.2062, 1.563349
864.6883, 1.687286
865.1704, 1.558264
865.6525, 1.115900
866.1346, 0.7334400
866.6168, 0.7353990
867.0989, 0.9469090
867.5810, 1.119783
868.0631, 1.265787
868.5452, 1.489563
869.0273, 1.799938
869.5095, 1.929615
869.9916, 1.642761
870.4737, 1.161154
870.9558, 1.042404
871.4379, 1.384890
871.9200, 1.549397
872.4022, 1.451319
872.8843, 1.312943
873.3664, 1.216547
873.8485, 1.157326
874.3306, 1.123951
874.8127, 1.110693
875.2949, 1.083561
875.7770, 0.9998740
876.2591, 0.9608760
876.7412, 1.025047
877.2233, 1.122833
877.7054, 1.198063
878.1876, 1.251825
878.6697, 1.316454
879.1518, 1.414818
879.6339, 1.478363
880.1160, 1.457169
880.5981, 1.363466
881.0803, 1.148325
881.5624, 0.8754710
882.0445, 0.7808690
882.5266, 0.9357400
883.0087, 1.077682
883.4908, 0.8977430
883.9730, 0.5089050
884.4551, 0.3497510
884.9372, 0.4271870
885.4193, 0.6595440
885.9014, 1.091461
886.3835, 1.469790
886.8657, 1.631716
887.3478, 1.605469
887.8299, 1.425892
888.3120, 0.9689330
888.7941, 0.7107410
889.2762, 0.8504790
889.7584, 0.9444660
890.2405, 0.7868400
890.7226, 0.5713270
891.2047, 0.5291500
891.6868, 0.6495670
892.1689, 0.6888160
892.6511, 0.4795460
893.1332, 0.2943610
893.6153, 0.2666030
894.0974, 0.3350930
894.5795, 0.5171700
895.0616, 0.7297460
895.5438, 0.7489590
896.0259, 0.4825740
896.5080, 0.1813720
896.9901, 0.1110440
897.4722, 0.2060240
897.9543, 0.3751810
898.4365, 0.5851760
898.9186, 0.6333200
899.4007, 0.4639530
899.8828, 0.2900470
900.3649, 0.3028950
900.8470, 0.4474640
901.3292, 0.5256770
901.8113, 0.5263100
902.2934, 0.5165540
902.7755, 0.5169960
903.2576, 0.4919220
903.7397, 0.4172900
904.2219, 0.3185790
904.7040, 0.2031760
905.1861, 5.5039998E-02
905.6682, 2.5009001E-02
906.1503, 0.2962090
906.6324, 0.4509640
907.1146, 0.2478790
907.5967, 5.1440001E-03
908.0788, 1.9502999E-02
908.5609, 0.2170510
909.0430, 0.3317340
909.5251, 0.2707860
910.0073, 0.1652220
910.4894, 4.8266999E-02
910.9715, 4.8525002E-02
911.4536, 4.1420002E-02
911.9357, 1.5951000E-02
912.4178, 2.1748999E-02
912.9000, 0.1715010
913.3821, 0.2603170
913.8642, 0.1109910
914.3463, 0.1245570
914.8284, 0.1282390
915.3105, 4.1281000E-02
915.7927, 0.1055560
916.2748, 2.8313000E-02
916.7569, 7.6560996E-02
917.2390, 0.1494640
917.7211, 0.2047250
918.2032, 0.2746640
918.6854, 0.3666210
919.1675, 0.3987460
919.6496, 0.3478430
920.1317, 0.2817290
920.6138, 0.1930080
921.0959, 0.1293490
921.5781, 0.1421390
922.0602, 0.2060280
922.5423, 0.2998140
923.0244, 0.5440160
923.5065, 0.6025310
923.9886, 0.2926650
924.4708, 1.2949000E-02
924.9529, 0.1957360
925.4350, 0.2551730
925.9171, 0.1281030
926.3992, 0.1592010
926.8813, 0.3105240
927.3635, 4.1466001E-02
927.8456, 0.1930390
928.3277, 5.3061999E-02
928.8098, 0.2012750
929.2919, 0.3005750
929.7740, 0.2446940
930.2562, 0.1057950
930.7383, 8.6245999E-02
931.2204, 0.2247180
931.7025, 0.1698740
932.1846, 7.7610002E-03
932.6667, 0.1076560
933.1489, 0.1872980
933.6310, 0.2898880
934.1132, 0.4245640
934.5953, 0.5333160
935.0774, 0.5762980
935.5595, 0.5508880
936.0416, 0.4213330
936.5237, 0.1867180
937.0059, 5.5686999E-02
937.4880, 3.5434999E-02
937.9701, 4.8813000E-02
938.4522, 7.7251002E-02
938.9343, 9.1417000E-02
939.4164, 4.2174999E-02
939.8986, 6.2737003E-02
940.3807, 7.6840997E-02
940.8628, 1.7487001E-02
941.3449, 0.1721530
941.8270, 0.4777970
942.3091, 0.7308960
942.7913, 0.8489930
943.2734, 0.8376220
943.7555, 0.6406990
944.2376, 0.2086560
944.7197, 3.7779999E-03
945.2018, 0.3591190
945.6840, 0.6313400
946.1661, 0.4298170
946.6482, 0.1588520
947.1303, 0.2825200
947.6124, 0.6678300
948.0945, 0.7933620
948.5767, 0.4229930
949.0588, 8.9500003E-02
949.5409, 0.1419600
950.0230, 0.3721120
950.5051, 0.7235090
950.9872, 1.041651
951.4694, 0.9821830
951.9515, 0.5477430
952.4336, 0.1695000
952.9157, 0.1586570
953.3978, 0.3059560
953.8799, 0.3359450
954.3621, 0.2780340
954.8442, 0.1806280
955.3263, 6.4378999E-02
955.8084, 2.3326000E-02
956.2905, 9.4875999E-02
956.7726, 0.2205360
957.2548, 0.3454970
957.7369, 0.4602210
958.2190, 0.5416180
958.7011, 0.5937690
959.1832, 0.4831310
959.6653, 0.1395650
960.1475, 0.1106910
960.6296, 6.2541999E-02
961.1117, 0.1622990
961.5938, 0.3611560
962.0759, 0.5474960
962.5580, 0.5662500
963.0402, 0.3021560
963.5223, 0.1121600
964.0044, 8.2085997E-02
964.4865, 0.1451090
964.9686, 0.2860980
965.4507, 0.4592950
965.9329, 0.5299110
966.4150, 0.4750520
966.8971, 0.3808850
967.3792, 0.1321900
967.8613, 7.2760000E-03
968.3434, 0.1425880
968.8256, 0.3831010
969.3077, 0.5315930
969.7898, 0.5862480
970.2719, 0.6245680
970.7540, 0.6904300
971.2361, 0.6750490
971.7183, 0.4210010
972.2004, 0.1992820
972.6825, 0.2630970
973.1646, 0.4842020
973.6467, 0.6901480
974.1288, 0.8261220
974.6110, 0.8009220
975.0931, 0.4674590
975.5752, 0.1093890
976.0573, 4.5837000E-02
976.5394, 3.7324999E-02
977.0215, 0.1933940
977.5037, 0.5289750
977.9858, 0.5856810
978.4679, 0.2490350
978.9500, 7.2043002E-02
979.4321, 7.6328002E-02
979.9142, 0.4557730
980.3964, 0.5756650
980.8785, 0.5094260
981.3606, 0.5306420
981.8427, 0.6727610
982.3248, 0.8009490
982.8069, 0.8369080
983.2891, 0.8194480
983.7712, 0.8027670
984.2533, 0.7860540
984.7354, 0.7455690
985.2175, 0.7045350
985.6996, 0.6063960
986.1818, 0.4942560
986.6639, 0.3874470
987.1460, 0.2863940
987.6281, 0.2214240
988.1102, 0.2777630
988.5923, 0.4748930
989.0745, 0.5684300
989.5566, 0.5076650
990.0387, 0.5652220
990.5208, 0.8903350
991.0029, 1.200521
991.4850, 1.244377
991.9672, 1.075305
992.4493, 0.8964120
992.9314, 0.7112860
993.4135, 0.5058310
993.8956, 0.1413340
994.3777, 5.4490998E-02
994.8599, 0.1905970
995.3420, 0.5157630
995.8241, 0.5594980
996.3062, 0.3708280
996.7883, 0.2657610
997.2704, 0.3307730
997.7526, 0.3603480
998.2347, 0.2877280
998.7168, 0.2365140
999.1989, 0.2799470
999.6810, 0.3607330
1000.163, 0.3891540
1000.645, 0.3733440
1001.127, 0.4432160
1001.609, 0.7742810
1002.092, 0.9760980
1002.574, 0.7531010
1003.056, 0.4750760
1003.538, 0.4301370
1004.020, 0.5239310
1004.502, 0.5621570
1004.984, 0.5131520
1005.466, 0.4922240
1005.949, 0.6194900
1006.431, 0.7106190
1006.913, 0.5900270
1007.395, 0.3883910
1007.877, 0.1788490
1008.359, 3.4917999E-02
1008.841, 0.1445800
1009.323, 0.5344380
1009.805, 0.8728130
1010.288, 0.8597220
1010.770, 0.7150800
1011.252, 0.6956180
1011.734, 0.7405020
1012.216, 0.7377520
1012.698, 0.6894590
1013.180, 0.6622000
1013.662, 0.6833430
1014.145, 0.7043690
1014.627, 0.6457770
1015.109, 0.5687010
1015.591, 0.6353630
1016.073, 0.7887740
1016.555, 0.8203030
1017.037, 0.7216600
1017.519, 0.6692840
1018.001, 0.7430230
1018.484, 0.8203680
1018.966, 0.6813750
1019.448, 0.4155040
1019.930, 0.4642110
1020.412, 0.7705090
1020.894, 0.7359590
1021.376, 0.2629310
1021.858, 0.1079300
1022.341, 5.5397000E-02
1022.823, 0.2040270
1023.305, 0.3357320
1023.787, 0.3528410
1024.269, 0.4011200
1024.751, 0.4844710
1025.233, 0.5086530
1025.715, 0.4382450
1026.198, 0.4297990
1026.680, 0.5952640
1027.162, 0.7981590
1027.644, 0.7624250
1028.126, 0.4804080
1028.608, 0.3154660
1029.090, 0.2843550
1029.572, 0.2963020
1030.054, 0.3357050
1030.536, 0.4080440
1031.019, 0.5420130
1031.501, 0.6754340
1031.983, 0.6590730
1032.465, 0.4602490
1032.947, 0.3751230
1033.429, 0.4590250
1033.911, 0.4982380
1034.393, 0.4550490
1034.876, 0.3652040
1035.358, 0.1867370
1035.840, 6.2010000E-03
1036.322, 5.0430998E-02
1036.804, 0.3766980
1037.286, 0.6208930
1037.768, 0.8375270
1038.250, 0.8445580
1038.733, 0.3772540
1039.215, 3.6012001E-02
1039.697, 5.0710998E-02
1040.179, 0.4536340
1040.661, 0.7360010
1041.143, 0.9410990
1041.625, 0.8681650
1042.107, 3.8669001E-02
1042.589, 0.4089970
1043.072, 9.2715003E-02
1043.554, 0.7150100
1044.036, 0.8723550
1044.518, 0.7173080
1045.000, 0.6339290
1045.482, 0.6724560
1045.964, 0.6315330
1046.446, 0.3543420
1046.928, 0.1903890
1047.411, 0.3230160
1047.893, 0.5119350
1048.375, 0.5744150
1048.857, 0.5551930
1049.339, 0.5763860
1049.821, 0.6595870
1050.303, 0.7524630
1050.785, 0.9467550
1051.268, 1.007026
1051.750, 0.7235430
1052.232, 0.3937600
1052.714, 0.2337740
1053.196, 0.2263770
1053.678, 0.3659730
1054.160, 0.6958820
1054.642, 0.8633270
1055.125, 0.5952860
1055.607, 0.4029830
1056.089, 0.6055760
1056.571, 0.8393030
1057.053, 0.7635150
1057.535, 0.4953260
1058.017, 0.2996360
1058.499, 0.2182550
1058.981, 0.2835250
1059.464, 0.7038650
1059.946, 1.021585
1060.428, 0.9412560
1060.910, 0.7611750
1061.392, 0.7230630
1061.874, 0.7843760
1062.356, 0.8297410
1062.838, 0.8380660
1063.320, 0.7782340
1063.803, 0.5385320
1064.285, 0.3594400
1064.767, 0.4525260
1065.249, 0.5567050
1065.731, 0.3572370
1066.213, 2.9128000E-02
1066.695, 1.2088000E-02
1067.177, 0.3072250
1067.660, 0.5150010
1068.142, 0.2950820
1068.624, 9.0563998E-02
1069.106, 0.1503550
1069.588, 0.2734000
1070.070, 0.2618370
1070.552, 0.1970240
1071.034, 0.2870120
1071.516, 0.5545440
1071.999, 0.7240880
1072.481, 0.5645520
1072.963, 0.4364150
1073.445, 0.6001930
1073.927, 0.7730030
1074.409, 0.7037260
1074.891, 0.4868500
1075.373, 0.2668580
1075.855, 8.4106997E-02
1076.338, 6.2630000E-03
1076.820, 3.5526998E-02
1077.302, 0.1434360
1077.784, 0.3682260
1078.266, 0.5653370
1078.748, 0.6253200
1079.230, 0.5797670
1079.712, 0.4071120
1080.195, 0.1687570
1080.677, 0.1337430
1081.159, 0.5420010
1081.641, 0.8541170
1082.123, 0.7250690
1082.605, 0.5024000
1083.087, 0.4134790
1083.569, 0.4085350
1084.052, 0.4413220
1084.534, 0.4981370
1085.016, 0.5169740
1085.498, 0.4753720
1085.980, 0.3986140
1086.462, 0.2336140
1086.944, 0.1077590
1087.426, 0.1545280
1087.908, 0.2520420
1088.391, 0.2418260
1088.873, 0.1415740
1089.355, 6.5776996E-02
1089.837, 3.8858000E-02
1090.319, 9.3080997E-02
1090.801, 0.3081430
1091.283, 0.5216540
1091.765, 0.6794790
1092.248, 0.7626430
1092.730, 0.7028300
1093.212, 0.5731600
1093.694, 0.5880150
1094.176, 0.8274300
1094.658, 0.9317900
1095.140, 0.6067190
1095.622, 0.3423610
1096.104, 0.4246610
1096.587, 0.6017380
1097.069, 0.6618010
1097.551, 0.6395360
1098.033, 0.6466180
1098.515, 0.7046410
1098.997, 0.7058480
1099.479, 0.5293920
1099.961, 0.4146600
1100.443, 0.5174720
1100.926, 0.6354460
1101.408, 0.4946120
1101.890, 0.2604810
1102.372, 0.2342650
1102.854, 0.4355790
1103.336, 0.5697010
1103.818, 0.5770240
1104.300, 0.5048050
1104.783, 0.2587810
1105.265, 5.3709000E-02
1105.747, 5.3915001E-02
1106.229, 0.1288010
1106.711, 8.4259003E-02
1107.193, 6.1005000E-02
1107.675, 8.2442999E-02
1108.157, 0.1782610
1108.640, 0.3106080
1109.122, 0.1344130
1109.604, 1.8856000E-02
1110.086, 3.1808000E-02
1110.568, 4.6360999E-02
1111.050, 0.2425480
1111.532, 0.4907310
1112.014, 0.5390830
1112.496, 0.2695720
1112.979, 9.4939001E-02
1113.461, 7.9686999E-02
1113.943, 9.5014997E-02
1114.425, 9.7304001E-02
1114.907, 0.1343290
1115.389, 0.3189760
1115.871, 0.5359360
1116.353, 0.4896040
1116.835, 0.1027160
1117.318, 8.3889000E-02
1117.800, 5.8483001E-02
1118.282, 0.1660540
1118.764, 0.1708580
1119.246, 0.1434560
1119.728, 8.6626001E-02
1120.210, 5.9852000E-02
1120.692, 0.1795180
1121.175, 0.4408250
1121.657, 0.5757920
1122.139, 0.5658260
1122.621, 0.4660260
1123.103, 0.2068230
1123.585, 4.2677999E-02
1124.067, 0.1047550
1124.549, 0.2659920
1125.031, 0.4140420
1125.514, 0.5262000
1125.996, 0.4745060
1126.478, 0.2037650
1126.960, 7.1602002E-02
1127.442, 0.1075590
1127.924, 0.2061370
1128.406, 0.3606160
1128.888, 0.4661170
1129.370, 0.4305740
1129.853, 0.3077730
1130.335, 0.2075370
1130.817, 0.1298050
1131.299, 0.1711050
1131.781, 0.3421080
1132.263, 0.3826890
1132.745, 0.2320590
1133.227, 9.8844998E-02
1133.710, 0.1017870
1134.192, 0.1943950
1134.674, 0.3386200
1135.156, 0.4990630
1135.638, 0.5093800
1136.120, 0.3883740
1136.602, 0.2692470
1137.084, 0.1720370
1137.567, 0.1222150
1138.049, 0.1294880
1138.531, 0.1938480
1139.013, 0.3490470
1139.495, 0.4785640
1139.977, 0.2263610
1140.459, 0.2018650
1140.941, 0.1526610
1141.423, 0.2806830
1141.906, 0.6219920
1142.388, 0.7454500
1142.870, 0.7397070
1143.352, 0.6493320
1143.834, 0.5307150
1144.316, 0.4176170
1144.798, 0.3426430
1145.280, 0.4312630
1145.762, 0.5654610
1146.245, 0.4604980
1146.727, 0.1591420
1147.209, 5.4698002E-02
1147.691, 7.0974998E-02
1148.173, 3.5500000E-04
1148.655, 0.1755620
1149.137, 0.2880100
1149.619, 0.1109340
1150.102, 0.1486030
1150.584, 0.2821290
1151.066, 0.2915950
1151.548, 0.2214380
1152.030, 8.7080002E-02
1152.512, 9.2247002E-02
1152.994, 0.3461750
1153.476, 0.5629740
1153.958, 0.7403550
1154.441, 0.8032530
1154.923, 0.5870040
1155.405, 0.3089370
1155.887, 0.2506320
1156.369, 0.3722080
1156.851, 0.4310230
1157.333, 0.3620200
1157.815, 0.3059330
1158.297, 0.3186130
1158.780, 0.3139990
1159.262, 0.1948380
1159.744, 0.1187850
1160.226, 0.1853170
1160.708, 0.3790490
1161.190, 0.7434450
1161.672, 1.305505
1162.154, 1.522025
1162.637, 1.170465
1163.119, 0.8879950
1163.601, 0.7328110
1164.083, 0.6302130
1164.565, 0.5574090
1165.047, 0.5144660
1165.529, 0.4842410
1166.011, 0.4877770
1166.494, 0.5737090
1166.976, 0.7717270
1167.458, 0.9031780
1167.940, 0.9749470
1168.422, 0.9379200
1168.904, 0.7583690
1169.386, 0.5692000
1169.868, 0.4548950
1170.350, 0.4031440
1170.833, 0.4099130
1171.315, 0.4573940
1171.797, 0.4087830
1172.279, 0.2807360
1172.761, 0.2754480
1173.243, 0.4085550
1173.725, 0.5842680
1174.207, 0.7604120
1174.689, 0.7761820
1175.172, 0.4272570
1175.654, 3.8099999E-03
1176.136, 3.4566998E-02
1176.618, 0.3258250
1177.100, 0.4451800
1177.582, 0.4311950
1178.064, 0.4449210
1178.546, 0.5254460
1179.029, 0.6859670
1179.511, 0.9435440
1179.993, 1.097511
1180.475, 0.8430930
1180.957, 0.5423420
1181.439, 0.6127290
1181.921, 0.8038850
1182.403, 0.7790990
1182.885, 0.6094290
1183.368, 0.5060260
1183.850, 0.5166320
1184.332, 0.5853470
1184.814, 0.7617270
1185.296, 0.8593860
1185.778, 0.7572570
1186.260, 0.6049710
1186.742, 0.4084770
1187.225, 0.2744040
1187.707, 0.3695210
1188.189, 0.6214060
1188.671, 0.7599360
1189.153, 0.7332390
1189.635, 0.7010100
1190.117, 0.6398530
1190.599, 0.6233240
1191.082, 0.6897020
1191.564, 0.7653070
1192.046, 0.8173070
1192.528, 0.8525020
1193.010, 0.8946300
1193.492, 0.9295350
1193.974, 0.8075040
1194.456, 0.4613900
1194.938, 0.3330520
1195.421, 0.4817700
1195.903, 0.6291420
1196.385, 0.6948190
1196.867, 0.7147250
1197.349, 0.7051910
1197.831, 0.7103620
1198.313, 0.8538350
1198.795, 1.077734
1199.277, 0.9174800
1199.760, 0.4779610
1200.242, 0.4435600
1200.724, 0.8208200
1201.206, 1.044010
1201.688, 0.9101430
1202.170, 0.7298070
1202.652, 0.7553170
1203.134, 0.8690300
1203.617, 0.9655410
1204.099, 1.024264
1204.581, 1.029409
1205.063, 0.9568350
1205.545, 0.7273200
1206.027, 0.4054650
1206.509, 0.1982760
1206.991, 0.1804510
1207.474, 0.2844240
1207.956, 0.5984170
1208.438, 0.8428960
1208.920, 0.8343230
1209.402, 0.7890970
1209.884, 0.8276560
1210.366, 0.8575340
1210.848, 0.8233220
1211.330, 0.7251950
1211.813, 0.6421350
1212.295, 0.5577510
1212.777, 0.5401840
1213.259, 0.6238670
1213.741, 0.7196460
1214.223, 0.8132750
1214.705, 0.9035820
1215.187, 1.002213
1215.669, 1.083132
1216.152, 1.106441
1216.634, 1.068991
1217.116, 0.8562790
1217.598, 0.4330720
1218.080, 0.3367890
1218.562, 0.6383660
1219.044, 0.8736010
1219.526, 0.8798280
1220.009, 0.8061290
1220.491, 0.7791780
1220.973, 0.7231890
1221.455, 0.4284140
1221.937, 3.8137998E-02
1222.419, 8.6727999E-02
1222.901, 8.1850002E-03
1223.383, 0.2813660
1223.865, 0.6345830
1224.348, 0.7473800
1224.830, 0.5344990
1225.312, 0.3861810
1225.794, 0.6340410
1226.276, 0.9092240
1226.758, 0.9567790
1227.240, 0.8796280
1227.722, 0.6417430
1228.204, 0.4230970
1228.687, 0.5178150
1229.169, 0.8333990
1229.651, 0.9948000
1230.133, 0.9068190
1230.615, 0.8004090
1231.097, 0.6681800
1231.579, 0.5894950
1232.061, 0.6378100
1232.544, 0.6825620
1233.026, 0.6933200
1233.508, 0.6364140
1233.990, 0.4348070
1234.472, 0.1504430
1234.954, 6.0302999E-02
1235.436, 0.1998830
1235.918, 0.2769580
1236.401, 0.2788580
1236.883, 0.3746210
1237.365, 0.6041560
1237.847, 0.7780070
1238.329, 0.7924260
1238.811, 0.7714700
1239.293, 0.8769110
1239.775, 1.009412
1240.257, 0.9081080
1240.740, 0.6969970
1241.222, 0.6779600
1241.704, 0.8044420
1242.186, 0.9238600
1242.668, 0.9920810
1243.150, 0.9850550
1243.632, 0.8865430
1244.114, 0.7895370
1244.596, 0.7824750
1245.079, 0.7629380
1245.561, 0.6273920
1246.043, 0.4899850
1246.525, 0.4533460
1247.007, 0.4758710
1247.489, 0.4951560
1247.971, 0.5061560
1248.453, 0.5249500
1248.936, 0.5667250
1249.418, 0.5769980
1249.900, 0.4710660
1250.382, 0.5105890
1250.864, 0.8360730
1251.346, 1.131148
1251.828, 1.233212
1252.310, 1.170421
1252.792, 0.9423590
1253.275, 0.6215030
1253.757, 0.5489400
1254.239, 0.6952920
1254.721, 0.6316320
1255.203, 0.4047990
1255.685, 0.3216190
1256.167, 0.4385520
1256.649, 0.6295830
1257.131, 0.8311380
1257.614, 0.9508290
1258.096, 0.8605570
1258.578, 0.6882620
1259.060, 0.5236160
1259.542, 0.4144490
1260.024, 0.5086050
1260.506, 0.6573700
1260.988, 0.5251310
1261.471, 0.1814110
1261.953, 9.0121999E-02
1262.435, 0.4493960
1262.917, 0.7000070
1263.399, 0.5623290
1263.881, 0.5008880
1264.363, 0.7187890
1264.845, 0.9552170
1265.328, 1.215669
1265.810, 1.252879
1266.292, 0.6227040
1266.774, 0.3826320
1267.256, 0.4917500
1267.738, 0.4221540
1268.220, 0.8839660
1268.702, 0.8789850
1269.184, 0.8212920
1269.667, 0.7896050
1270.149, 0.8619970
1270.631, 1.072326
1271.113, 1.210711
1271.595, 1.047211
1272.077, 0.7742720
1272.559, 0.6468770
1273.041, 0.6212400
1273.523, 0.6710150
1274.006, 0.7517770
1274.488, 0.7714330
1274.970, 0.7718690
1275.452, 0.8035900
1275.934, 0.8844390
1276.416, 0.9603360
1276.898, 0.8548630
1277.380, 0.6342330
1277.863, 0.4106940
1278.345, 0.3258790
1278.827, 0.8230730
1279.309, 1.254158
1279.791, 0.9837640
1280.273, 0.3509480
1280.755, 0.1188720
1281.237, 0.2809360
1281.719, 0.4121260
1282.202, 0.5507460
1282.684, 0.4980210
1283.166, 0.2275800
1283.648, 9.8830998E-02
1284.130, 0.2229800
1284.612, 0.3759500
1285.094, 0.4012240
1285.576, 0.3424430
1286.059, 0.1224290
1286.541, 0.0000000E+00
##END=



