##NAMES=Wickenburgite
##RRUFFID=R060048
##IDEAL CHEMISTRY=Pb^2+^_3_CaAl_2_Si_10_O_27_&#183;4H_2_O
##LOCALITY=Rat Tail Claim, Wickenburg, Maricopa County, Arizona, USA
##OWNER=RRUFF
##SOURCE=University of Arizona Mineral Museum
##DESCRIPTION=Colorless thin hexagonal prisms
##STATUS=The identification of this mineral is confirmed by single-crystal X-ray diffraction and chemical analysis.
##URL=rruff.info/R060048
##MEASURED CHEMISTRY=(Pb_2.95_Zn_0.05_)_Σ=3_Ca_1.00_(Al_1.90_Fe^3+^_0.10_)_Σ=2_Si_10.00_O_27_·4H_2_O
148.7878, 0.0000000E+00
149.2699, 29.92188
149.7520, 90.76562
150.2341, 122.9141
150.7162, 90.85156
151.1983, 54.00781
151.6805, 26.35938
152.1626, 1.500000
152.6447, 7.343750
153.1268, 30.46094
153.6089, 85.03906
154.0910, 112.5312
154.5732, 60.94531
155.0553, 23.20312
155.5374, 30.80469
156.0195, 102.7422
156.5016, 183.1562
156.9837, 288.0000
157.4659, 395.6719
157.9480, 461.0312
158.4301, 445.8594
158.9122, 407.8125
159.3943, 367.1797
159.8764, 299.7422
160.3586, 276.2422
160.8407, 343.4922
161.3228, 473.1484
161.8049, 586.0391
162.2870, 645.3594
162.7691, 685.3594
163.2512, 728.3125
163.7334, 786.1641
164.2155, 836.4062
164.6976, 857.6641
165.1797, 858.0234
165.6618, 871.9844
166.1439, 936.8516
166.6261, 1010.586
167.1082, 1055.203
167.5903, 1045.344
168.0724, 1019.422
168.5545, 1006.602
169.0366, 1002.422
169.5188, 975.2891
170.0009, 886.8047
170.4830, 772.7734
170.9651, 674.5234
171.4472, 618.7500
171.9293, 575.2422
172.4115, 517.3203
172.8936, 447.7891
173.3757, 386.0391
173.8578, 339.6797
174.3399, 311.5078
174.8220, 305.7344
175.3042, 342.0625
175.7863, 389.8906
176.2684, 417.4219
176.7505, 424.0781
177.2326, 420.9297
177.7147, 397.2188
178.1969, 368.1016
178.6790, 367.1016
179.1611, 430.7344
179.6432, 519.9141
180.1253, 579.4531
180.6074, 606.9844
181.0896, 611.3125
181.5717, 586.9453
182.0538, 542.6797
182.5359, 508.4219
183.0180, 516.9766
183.5001, 545.7344
183.9823, 523.8047
184.4644, 439.7500
184.9465, 351.8047
185.4286, 394.3125
185.9107, 555.4922
186.3928, 693.3672
186.8750, 721.1250
187.3571, 661.9922
187.8392, 624.3438
188.3213, 616.1719
188.8034, 619.1719
189.2855, 612.6562
189.7677, 596.3984
190.2498, 571.5234
190.7319, 537.4219
191.2140, 494.8906
191.6961, 439.5469
192.1782, 365.1562
192.6603, 299.1641
193.1425, 289.7422
193.6246, 336.6953
194.1067, 392.3281
194.5888, 432.0312
195.0709, 457.6172
195.5530, 503.6875
196.0352, 584.5234
196.5173, 660.0312
196.9994, 647.2109
197.4815, 537.5703
197.9636, 435.5859
198.4457, 386.8672
198.9279, 391.0391
199.4100, 430.3906
199.8921, 514.4141
200.3742, 614.0000
200.8563, 678.2891
201.3384, 706.2344
201.8206, 705.8750
202.3027, 663.0000
202.7848, 570.5000
203.2669, 533.5625
203.7490, 569.1250
204.2311, 646.5625
204.7133, 708.1719
205.1954, 756.2500
205.6775, 787.1250
206.1596, 799.6875
206.6417, 787.4375
207.1238, 755.9375
207.6060, 694.1094
208.0881, 624.6250
208.5702, 605.2812
209.0523, 654.1875
209.5344, 696.3281
210.0165, 689.9219
210.4987, 623.1406
210.9808, 558.7031
211.4629, 494.9062
211.9450, 434.2500
212.4271, 385.1094
212.9092, 350.2031
213.3914, 316.3906
213.8735, 274.6875
214.3556, 218.1875
214.8377, 181.1719
215.3198, 175.1562
215.8019, 184.3125
216.2841, 164.8594
216.7662, 108.0625
217.2483, 46.65625
217.7304, 3.390625
218.2125, 37.96875
218.6946, 73.09375
219.1767, 116.8750
219.6589, 156.4219
220.1410, 151.6562
220.6231, 72.75000
221.1052, 4.109375
221.5873, 11.57812
222.0694, 52.07812
222.5516, 99.40625
223.0337, 130.6094
223.5158, 146.7812
223.9979, 147.8594
224.4800, 137.7969
224.9621, 109.2344
225.4443, 55.34375
225.9264, 45.35938
226.4085, 119.0938
226.8906, 166.4688
227.3727, 186.8594
227.8548, 180.2656
228.3370, 128.8281
228.8191, 79.84375
229.3012, 51.06250
229.7833, 40.40625
230.2654, 61.09375
230.7475, 135.5938
231.2297, 234.5469
231.7118, 287.8281
232.1939, 271.1250
232.6760, 248.3750
233.1581, 246.2344
233.6402, 274.9375
234.1224, 291.1719
234.6045, 284.3281
235.0866, 267.5469
235.5687, 269.9688
236.0508, 299.0156
236.5329, 331.5938
237.0151, 359.0312
237.4972, 382.9844
237.9793, 390.5469
238.4614, 372.7812
238.9435, 342.2188
239.4256, 327.6250
239.9078, 349.3438
240.3899, 355.0000
240.8720, 320.1875
241.3541, 225.3906
241.8362, 170.5781
242.3183, 184.8281
242.8005, 228.3594
243.2826, 226.8281
243.7647, 149.3750
244.2468, 81.68750
244.7289, 54.45312
245.2110, 80.14062
245.6931, 97.39062
246.1753, 103.0781
246.6574, 101.5000
247.1395, 96.56250
247.6216, 69.92188
248.1037, 66.50000
248.5858, 105.3594
249.0680, 195.2344
249.5501, 263.5625
250.0322, 301.4375
250.5143, 322.0781
250.9964, 343.0469
251.4785, 365.1562
251.9607, 384.7188
252.4428, 401.6250
252.9249, 415.0781
253.4070, 430.3594
253.8891, 453.8906
254.3712, 474.6562
254.8534, 478.8750
255.3355, 461.9375
255.8176, 438.1250
256.2997, 405.5781
256.7818, 362.1719
257.2639, 348.7812
257.7461, 375.7656
258.2282, 421.7812
258.7103, 466.9531
259.1924, 520.7500
259.6745, 550.9844
260.1566, 541.6719
260.6388, 494.4062
261.1209, 462.6719
261.6030, 452.0938
262.0851, 449.3438
262.5672, 447.0312
263.0493, 458.1875
263.5315, 436.0625
264.0136, 355.6719
264.4957, 229.5000
264.9778, 168.4688
265.4599, 190.6250
265.9420, 250.9531
266.4242, 316.2344
266.9063, 390.2969
267.3884, 465.7188
267.8705, 546.8281
268.3526, 628.2969
268.8347, 682.7344
269.3169, 695.8281
269.7990, 706.8906
270.2811, 741.3438
270.7632, 799.5312
271.2453, 871.7188
271.7274, 969.5469
272.2096, 1072.953
272.6917, 1117.828
273.1738, 1089.266
273.6559, 1044.859
274.1380, 1019.516
274.6201, 1017.547
275.1023, 1011.859
275.5844, 1001.672
276.0665, 986.2188
276.5486, 968.5312
277.0307, 952.6250
277.5128, 922.9219
277.9950, 865.5000
278.4771, 781.1094
278.9592, 725.5625
279.4413, 704.3750
279.9234, 703.2500
280.4055, 702.0469
280.8877, 701.6562
281.3698, 701.5469
281.8519, 696.7812
282.3340, 687.4219
282.8161, 697.6250
283.2982, 728.4219
283.7804, 775.9375
284.2625, 841.0312
284.7446, 924.8906
285.2267, 981.0469
285.7088, 977.0469
286.1909, 922.5312
286.6730, 894.5938
287.1552, 898.0156
287.6373, 906.0156
288.1194, 880.9844
288.6015, 825.5469
289.0836, 780.7500
289.5657, 763.2500
290.0479, 767.4219
290.5300, 778.9531
291.0121, 799.9688
291.4942, 811.4531
291.9763, 778.7344
292.4584, 712.3594
292.9406, 675.8750
293.4227, 700.1719
293.9048, 754.0312
294.3869, 758.8594
294.8690, 714.1719
295.3511, 677.3594
295.8333, 723.6406
296.3154, 819.6719
296.7975, 855.9844
297.2796, 794.5781
297.7617, 683.4531
298.2438, 592.2969
298.7260, 520.2656
299.2081, 451.7969
299.6902, 370.5000
300.1723, 288.2969
300.6544, 228.5625
301.1365, 198.3281
301.6187, 188.8594
302.1008, 199.5625
302.5829, 225.6406
303.0650, 247.5000
303.5471, 229.4531
304.0292, 207.5312
304.5114, 242.7188
304.9935, 347.9375
305.4756, 461.5156
305.9577, 524.9531
306.4398, 551.9844
306.9219, 577.6719
307.4041, 614.8906
307.8862, 654.0625
308.3683, 697.5938
308.8504, 745.7344
309.3325, 773.9375
309.8146, 741.1250
310.2968, 680.0781
310.7789, 639.7031
311.2610, 672.2344
311.7431, 711.4375
312.2252, 715.9219
312.7073, 686.7812
313.1895, 630.3281
313.6716, 520.6562
314.1537, 399.6406
314.6358, 311.4375
315.1179, 288.9062
315.6000, 283.8438
316.0822, 258.5938
316.5643, 225.9062
317.0464, 237.1875
317.5285, 363.0625
318.0106, 511.6250
318.4927, 613.7500
318.9749, 626.4688
319.4570, 640.9688
319.9391, 695.9375
320.4212, 774.6250
320.9033, 841.1250
321.3854, 905.7812
321.8676, 936.4688
322.3497, 911.9375
322.8318, 813.3906
323.3139, 705.3125
323.7960, 579.3281
324.2781, 457.4375
324.7603, 369.4219
325.2424, 354.0625
325.7245, 344.3125
326.2066, 328.4219
326.6887, 310.8281
327.1708, 270.4062
327.6530, 170.1719
328.1351, 66.59375
328.6172, 11.12500
329.0993, 44.82812
329.5814, 86.42188
330.0635, 135.4844
330.5457, 191.5312
331.0278, 222.2656
331.5099, 204.7812
331.9920, 180.0625
332.4741, 173.4219
332.9562, 193.2656
333.4384, 215.0781
333.9205, 243.1875
334.4026, 270.0000
334.8847, 267.8906
335.3668, 206.7031
335.8489, 157.6094
336.3311, 163.8906
336.8132, 265.3906
337.2953, 296.7500
337.7774, 221.0000
338.2595, 102.1406
338.7416, 70.76562
339.2238, 159.0000
339.7059, 237.2656
340.1880, 251.8281
340.6701, 200.2969
341.1522, 167.6562
341.6343, 155.9062
342.1164, 161.7031
342.5985, 195.2188
343.0807, 265.1250
343.5628, 296.0469
344.0449, 254.0625
344.5270, 161.7656
345.0091, 111.7656
345.4912, 106.3438
345.9734, 129.0000
346.4555, 190.6250
346.9376, 280.5938
347.4197, 310.8594
347.9018, 243.3906
348.3839, 134.9844
348.8661, 83.56250
349.3482, 86.29688
349.8303, 122.2188
350.3124, 204.3125
350.7945, 307.4688
351.2766, 359.5781
351.7588, 343.8906
352.2409, 318.3594
352.7230, 375.2812
353.2051, 483.5938
353.6872, 552.2500
354.1693, 514.7969
354.6515, 424.2031
355.1336, 347.3438
355.6157, 286.7500
356.0978, 232.2188
356.5799, 165.0625
357.0620, 101.5938
357.5442, 63.00000
358.0263, 59.15625
358.5084, 80.70312
358.9905, 151.8906
359.4726, 256.1562
359.9547, 309.2969
360.4369, 217.5938
360.9190, 78.78125
361.4011, 28.73438
361.8832, 88.71875
362.3653, 117.4688
362.8474, 101.9531
363.3296, 60.96875
363.8117, 34.15625
364.2938, 80.34375
364.7759, 107.3125
365.2580, 56.62500
365.7401, 103.2344
366.2223, 225.2500
366.7044, 269.0312
367.1865, 260.5625
367.6686, 230.8438
368.1507, 135.2969
368.6328, 70.20312
369.1150, 71.28125
369.5971, 140.2969
370.0792, 184.0781
370.5613, 182.3125
371.0434, 169.0938
371.5255, 165.3906
372.0077, 185.6875
372.4898, 194.0469
372.9719, 182.2656
373.4540, 159.0156
373.9361, 152.1250
374.4182, 173.5938
374.9004, 192.7031
375.3825, 194.2812
375.8646, 171.0938
376.3467, 156.9531
376.8288, 150.6875
377.3109, 151.8438
377.7931, 159.7500
378.2752, 173.0938
378.7573, 210.7812
379.2394, 281.4688
379.7215, 368.8750
380.2036, 408.3125
380.6858, 393.8438
381.1679, 364.2188
381.6500, 356.6562
382.1321, 369.1719
382.6142, 372.5312
383.0963, 362.9375
383.5785, 341.8906
384.0606, 311.1406
384.5427, 272.7344
385.0248, 230.7812
385.5069, 176.5469
385.9890, 124.8125
386.4712, 113.2344
386.9533, 147.2188
387.4354, 190.6250
387.9175, 201.6875
388.3996, 189.2969
388.8817, 173.3125
389.3639, 150.7812
389.8460, 134.3906
390.3281, 136.5156
390.8102, 156.2969
391.2923, 188.4531
391.7744, 245.2188
392.2566, 304.8906
392.7387, 345.0781
393.2208, 355.7188
393.7029, 353.2656
394.1850, 338.2812
394.6671, 316.7031
395.1493, 303.9531
395.6314, 334.5312
396.1135, 355.1562
396.5956, 325.6875
397.0777, 219.5938
397.5598, 160.0000
398.0419, 203.7500
398.5240, 291.3438
399.0062, 355.2812
399.4883, 378.8906
399.9704, 387.5625
400.4525, 364.6562
400.9346, 309.3906
401.4167, 302.6250
401.8989, 374.4531
402.3810, 462.4375
402.8631, 535.4531
403.3452, 616.9375
403.8273, 633.7344
404.3094, 547.5469
404.7916, 410.4844
405.2737, 350.9375
405.7558, 403.6094
406.2379, 449.7031
406.7200, 433.3906
407.2021, 350.9219
407.6843, 337.1406
408.1664, 418.7969
408.6485, 505.0625
409.1306, 473.8438
409.6127, 325.2500
410.0948, 208.5469
410.5770, 171.6719
411.0591, 181.0938
411.5412, 142.1406
412.0233, 55.46875
412.5054, 21.65625
412.9875, 60.60938
413.4697, 60.04688
413.9518, 1.250000
414.4339, 139.7656
414.9160, 275.6094
415.3981, 298.5469
415.8802, 244.7812
416.3624, 208.6562
416.8445, 254.2500
417.3266, 322.6094
417.8087, 352.5469
418.2908, 346.6719
418.7729, 347.5156
419.2551, 386.5000
419.7372, 436.1250
420.2193, 473.4375
420.7014, 519.0156
421.1835, 524.1094
421.6656, 417.1094
422.1478, 251.0312
422.6299, 153.3125
423.1120, 244.4531
423.5941, 348.3438
424.0762, 385.8906
424.5583, 340.5312
425.0405, 286.5781
425.5226, 210.1719
426.0047, 140.5156
426.4868, 105.2500
426.9689, 143.3750
427.4510, 162.8906
427.9332, 141.2031
428.4153, 87.40625
428.8974, 54.21875
429.3795, 43.39062
429.8616, 50.25000
430.3438, 79.50000
430.8259, 144.9375
431.3080, 182.1719
431.7901, 186.4062
432.2722, 171.7188
432.7543, 160.6406
433.2365, 155.5156
433.7186, 138.0938
434.2007, 103.1406
434.6828, 51.50000
435.1649, 37.67188
435.6470, 169.4688
436.1292, 255.0000
436.6113, 179.4219
437.0934, 4.562500
437.5755, 133.3125
438.0576, 172.5156
438.5397, 162.8281
439.0219, 135.4688
439.5040, 97.68750
439.9861, 72.07812
440.4682, 76.40625
440.9503, 95.42188
441.4324, 126.6406
441.9146, 170.4062
442.3967, 189.3750
442.8788, 118.8906
443.3609, 33.01562
443.8430, 10.67188
444.3251, 127.2031
444.8073, 238.6094
445.2894, 288.7969
445.7715, 295.3281
446.2536, 303.4844
446.7357, 352.0625
447.2178, 376.3281
447.7000, 329.5781
448.1821, 168.6719
448.6642, 85.96875
449.1463, 126.1406
449.6284, 214.9688
450.1105, 289.5625
450.5927, 363.0156
451.0747, 392.3594
451.5569, 354.0781
452.0390, 269.9688
452.5211, 233.6562
453.0032, 273.3906
453.4853, 293.8438
453.9674, 226.5156
454.4496, 64.90625
454.9317, 6.078125
455.4138, 38.62500
455.8959, 115.9688
456.3780, 115.3281
456.8601, 46.42188
457.3423, 14.04688
457.8244, 46.20312
458.3065, 53.34375
458.7886, 42.65625
459.2707, 14.50000
459.7528, 33.09375
460.2350, 106.7969
460.7171, 196.1875
461.1992, 290.2344
461.6813, 386.2500
462.1634, 478.3281
462.6455, 569.6562
463.1277, 651.3594
463.6098, 711.0312
464.0919, 726.5000
464.5740, 732.5156
465.0561, 742.5156
465.5382, 756.3906
466.0204, 773.0312
466.5025, 796.2969
466.9846, 819.1562
467.4667, 842.5469
467.9488, 891.2031
468.4309, 890.0156
468.9131, 805.5625
469.3952, 680.7656
469.8773, 568.5312
470.3594, 458.5000
470.8415, 375.7188
471.3236, 339.0625
471.8058, 345.2812
472.2879, 326.4219
472.7700, 274.7031
473.2521, 220.5312
473.7342, 192.0312
474.2163, 194.0625
474.6985, 158.7500
475.1806, 72.15625
475.6627, 23.59375
476.1448, 77.12500
476.6269, 89.39062
477.1090, 65.00000
477.5912, 21.18750
478.0733, 124.1094
478.5554, 144.9688
479.0375, 91.39062
479.5196, 42.43750
480.0017, 44.31250
480.4839, 85.32812
480.9660, 167.8906
481.4481, 311.0000
481.9302, 414.1719
482.4123, 353.5781
482.8944, 222.7500
483.3766, 159.4375
483.8587, 284.4844
484.3408, 414.6562
484.8229, 473.7812
485.3050, 469.0625
485.7871, 471.5625
486.2693, 510.9219
486.7514, 547.7969
487.2335, 558.1250
487.7156, 520.0781
488.1977, 502.9062
488.6798, 529.0781
489.1620, 558.2812
489.6441, 530.7188
490.1262, 410.1250
490.6083, 323.0625
491.0904, 308.0469
491.5725, 347.8438
492.0547, 363.7500
492.5368, 355.8438
493.0189, 329.0000
493.5010, 287.1719
493.9831, 234.2031
494.4652, 162.6250
494.9474, 72.90625
495.4295, 1.328125
495.9116, 5.125000
496.3937, 66.45312
496.8758, 134.4844
497.3579, 196.2188
497.8401, 250.3594
498.3222, 296.0781
498.8043, 331.2188
499.2864, 354.2188
499.7685, 319.8750
500.2506, 298.1562
500.7328, 355.0000
501.2149, 508.1875
501.6970, 638.9375
502.1791, 698.1719
502.6612, 717.5469
503.1433, 729.4688
503.6255, 761.4062
504.1076, 761.4844
504.5897, 689.4219
505.0718, 582.9531
505.5539, 556.5469
506.0360, 688.4688
506.5181, 788.1875
507.0002, 775.8594
507.4824, 643.4219
507.9645, 574.0312
508.4466, 586.7500
508.9287, 620.2031
509.4108, 604.7656
509.8929, 540.9219
510.3751, 527.1875
510.8572, 587.1094
511.3393, 683.2188
511.8214, 754.9219
512.3035, 803.3594
512.7856, 848.1250
513.2678, 909.1719
513.7499, 970.9375
514.2320, 1006.953
514.7141, 1013.219
515.1962, 1003.375
515.6783, 998.3906
516.1605, 976.3906
516.6426, 902.9688
517.1247, 734.3594
517.6068, 621.9531
518.0889, 719.5938
518.5710, 887.7969
519.0532, 925.4219
519.5353, 635.4844
520.0174, 384.0781
520.4995, 263.9688
520.9816, 263.3125
521.4637, 282.4375
521.9459, 331.7500
522.4280, 386.9375
522.9101, 438.3438
523.3922, 488.6094
523.8743, 512.4844
524.3564, 496.3750
524.8386, 477.4219
525.3207, 508.9531
525.8028, 589.7500
526.2849, 658.9375
526.7670, 704.4531
527.2491, 727.9062
527.7313, 713.6875
528.2134, 670.8750
528.6955, 653.7031
529.1776, 708.6875
529.6597, 799.5000
530.1418, 901.3281
530.6240, 1009.688
531.1061, 1062.000
531.5882, 963.9688
532.0703, 814.7344
532.5524, 708.7500
533.0345, 685.2188
533.5167, 671.6562
533.9988, 648.5781
534.4809, 624.4219
534.9630, 610.8750
535.4451, 617.3594
535.9272, 630.7031
536.4094, 657.0312
536.8915, 692.7344
537.3736, 691.7969
537.8557, 642.2344
538.3378, 585.0625
538.8199, 534.8906
539.3021, 490.5625
539.7842, 463.0469
540.2663, 453.6250
540.7484, 456.3125
541.2305, 474.5156
541.7126, 505.1562
542.1948, 507.5312
542.6769, 463.0000
543.1590, 399.5625
543.6411, 347.9062
544.1232, 312.2031
544.6053, 305.9531
545.0875, 391.1094
545.5696, 476.3594
546.0517, 452.0625
546.5338, 318.4844
547.0159, 216.6406
547.4980, 248.6562
547.9802, 318.3438
548.4623, 345.0156
548.9444, 254.0625
549.4265, 228.2188
549.9086, 330.6719
550.3907, 500.1719
550.8729, 651.0156
551.3550, 779.0000
551.8371, 887.4219
552.3192, 966.0000
552.8013, 1019.203
553.2834, 1092.734
553.7656, 1200.984
554.2477, 1278.328
554.7298, 1274.984
555.2119, 1197.656
555.6940, 1125.391
556.1761, 1057.547
556.6583, 1000.219
557.1404, 977.2969
557.6225, 970.4219
558.1046, 935.5469
558.5867, 860.5000
559.0688, 766.4844
559.5510, 645.9844
560.0331, 525.7344
560.5152, 453.5000
560.9973, 511.5938
561.4794, 567.9844
561.9615, 551.5000
562.4437, 468.8594
562.9258, 392.1250
563.4079, 334.1094
563.8900, 285.0312
564.3721, 239.3438
564.8542, 194.7188
565.3364, 157.5000
565.8185, 132.7812
566.3006, 109.2812
566.7827, 76.10938
567.2648, 33.31250
567.7469, 14.85938
568.2291, 69.06250
568.7112, 123.0938
569.1933, 169.4844
569.6754, 206.0625
570.1575, 227.4844
570.6396, 252.5781
571.1218, 248.2969
571.6039, 126.0469
572.0860, 96.43750
572.5681, 288.8281
573.0502, 310.1875
573.5323, 288.8750
574.0145, 349.9219
574.4966, 527.7344
574.9787, 684.7812
575.4608, 740.8750
575.9429, 757.5938
576.4250, 794.4375
576.9072, 902.2031
577.3893, 970.5938
577.8714, 976.9219
578.3535, 940.2188
578.8356, 906.9375
579.3177, 883.7656
579.7999, 850.6094
580.2820, 798.6562
580.7641, 733.2031
581.2462, 677.3906
581.7283, 632.6094
582.2104, 604.8281
582.6926, 600.5781
583.1747, 618.7344
583.6568, 672.2188
584.1389, 770.0469
584.6210, 830.2969
585.1031, 734.7500
585.5853, 565.6406
586.0674, 444.5625
586.5495, 434.5938
587.0316, 429.3594
587.5137, 354.9531
587.9958, 249.1719
588.4779, 185.1094
588.9600, 195.5938
589.4421, 234.3750
589.9243, 327.5781
590.4064, 459.1250
590.8885, 469.9062
591.3706, 279.8281
591.8527, 96.12500
592.3348, 26.39062
592.8170, 82.79688
593.2991, 120.9219
593.7812, 142.3906
594.2633, 140.1875
594.7454, 83.23438
595.2275, 10.51562
595.7097, 52.62500
596.1918, 19.73438
596.6739, 44.25000
597.1560, 105.0625
597.6381, 156.5938
598.1202, 184.3594
598.6024, 160.2500
599.0845, 130.2656
599.5666, 123.9219
600.0487, 134.2812
600.5308, 135.9688
601.0129, 80.56250
601.4951, 51.39062
601.9772, 108.4375
602.4593, 270.3125
602.9414, 347.1094
603.4235, 303.1406
603.9056, 221.6719
604.3878, 150.7500
604.8699, 89.25000
605.3520, 63.15625
605.8341, 81.40625
606.3162, 119.3750
606.7983, 150.3750
607.2805, 174.6250
607.7626, 189.7500
608.2447, 190.4062
608.7268, 188.2031
609.2089, 180.5156
609.6910, 178.7656
610.1732, 215.9219
610.6553, 356.9219
611.1374, 498.2500
611.6195, 552.8438
612.1016, 530.0312
612.5837, 544.3906
613.0659, 676.5469
613.5480, 811.2500
614.0301, 883.3750
614.5122, 871.7031
614.9943, 886.6719
615.4764, 945.2656
615.9586, 1008.484
616.4407, 1046.234
616.9228, 1058.719
617.4049, 1036.125
617.8870, 966.5156
618.3691, 886.8906
618.8513, 852.6562
619.3334, 857.9375
619.8155, 877.8438
620.2976, 915.7969
620.7797, 950.7500
621.2618, 970.9219
621.7440, 971.0312
622.2261, 934.2656
622.7082, 814.8750
623.1903, 689.9375
623.6724, 602.2969
624.1545, 555.6094
624.6367, 524.2656
625.1188, 527.4844
625.6009, 524.4531
626.0830, 490.5000
626.5651, 409.9375
627.0472, 358.8281
627.5294, 340.3281
628.0115, 347.1406
628.4936, 388.1562
628.9757, 465.4062
629.4578, 492.6250
629.9399, 448.4531
630.4221, 370.4219
630.9042, 303.5625
631.3863, 253.9219
631.8684, 241.9219
632.3505, 293.3594
632.8326, 360.3281
633.3148, 422.1562
633.7969, 470.6250
634.2790, 480.5312
634.7611, 411.3594
635.2432, 332.3438
635.7253, 267.9375
636.2075, 221.4062
636.6896, 196.7812
637.1717, 216.5938
637.6538, 232.2344
638.1359, 216.7188
638.6180, 164.1406
639.1002, 125.1094
639.5823, 99.73438
640.0644, 90.17188
640.5465, 105.0469
641.0286, 139.5312
641.5107, 171.2656
641.9929, 197.0312
642.4750, 214.9688
642.9571, 208.6719
643.4392, 193.8906
643.9213, 199.3750
644.4034, 236.1719
644.8856, 292.9062
645.3677, 380.9688
645.8498, 483.3594
646.3319, 557.9531
646.8140, 566.9375
647.2961, 577.0469
647.7783, 608.8750
648.2604, 658.6562
648.7425, 699.8281
649.2246, 739.2188
649.7067, 754.9062
650.1888, 725.0000
650.6710, 656.4375
651.1531, 619.9062
651.6352, 619.2969
652.1173, 619.0000
652.5994, 583.6719
653.0815, 528.4531
653.5637, 480.0469
654.0458, 445.1875
654.5279, 426.6875
655.0100, 427.0000
655.4921, 443.9688
655.9742, 475.2031
656.4564, 528.1406
656.9385, 583.2500
657.4206, 647.7812
657.9027, 707.9688
658.3848, 741.5156
658.8669, 744.3906
659.3491, 721.4844
659.8312, 663.2500
660.3133, 583.3906
660.7954, 513.2188
661.2775, 450.0781
661.7596, 430.3438
662.2418, 508.5156
662.7239, 624.6562
663.2060, 636.2812
663.6881, 555.3594
664.1702, 455.7031
664.6523, 361.4844
665.1345, 287.6875
665.6166, 257.8125
666.0987, 277.4531
666.5808, 291.5000
667.0629, 276.0625
667.5450, 255.2500
668.0272, 246.3594
668.5093, 255.5781
668.9914, 263.2031
669.4735, 265.0625
669.9556, 269.6250
670.4377, 273.6094
670.9199, 271.9062
671.4020, 334.4688
671.8841, 480.9531
672.3662, 661.6094
672.8483, 839.4844
673.3304, 992.4062
673.8126, 1045.672
674.2947, 907.3750
674.7768, 747.1719
675.2589, 705.2969
675.7410, 746.7188
676.2231, 792.8438
676.7053, 821.7188
677.1874, 841.8750
677.6695, 849.1250
678.1516, 846.8125
678.6337, 865.6406
679.1158, 946.1562
679.5980, 978.4688
680.0801, 903.6250
680.5622, 732.6562
681.0443, 606.1250
681.5264, 530.2969
682.0085, 462.2812
682.4907, 363.8906
682.9728, 255.0156
683.4549, 177.2344
683.9370, 136.8438
684.4191, 120.4062
684.9012, 153.4531
685.3834, 189.5000
685.8655, 174.2031
686.3476, 71.82812
686.8297, 5.890625
687.3118, 2.765625
687.7939, 38.07812
688.2761, 33.89062
688.7582, 41.31250
689.2403, 75.64062
689.7224, 59.76562
690.2045, 9.484375
690.6866, 61.95312
691.1688, 153.8281
691.6509, 252.4062
692.1330, 357.9062
692.6151, 459.7188
693.0972, 550.5625
693.5793, 622.6562
694.0615, 657.3906
694.5436, 608.9375
695.0257, 557.7812
695.5078, 583.0469
695.9899, 657.9688
696.4720, 667.2656
696.9542, 500.6719
697.4363, 340.0938
697.9183, 248.5312
698.4005, 223.8750
698.8826, 222.4375
699.3647, 244.5469
699.8468, 297.4531
700.3289, 406.4844
700.8110, 552.2031
701.2932, 603.6406
701.7753, 561.0781
702.2574, 511.1250
702.7395, 537.4062
703.2216, 592.1875
703.7037, 612.5469
704.1859, 589.2344
704.6680, 543.2969
705.1501, 481.0312
705.6322, 406.3906
706.1143, 316.1406
706.5964, 151.0000
707.0786, 97.35938
707.5607, 228.8594
708.0428, 405.2031
708.5249, 460.5156
709.0070, 373.6094
709.4891, 317.2344
709.9713, 316.8438
710.4534, 341.7344
710.9355, 351.5312
711.4176, 347.7188
711.8997, 333.1094
712.3818, 279.4844
712.8640, 259.3594
713.3461, 389.5938
713.8282, 589.4375
714.3103, 708.5469
714.7924, 620.0625
715.2745, 529.8438
715.7567, 495.1094
716.2388, 502.9688
716.7209, 518.3125
717.2030, 561.2344
717.6851, 563.6719
718.1672, 479.4375
718.6494, 349.3125
719.1315, 348.6875
719.6136, 472.6406
720.0957, 577.0625
720.5778, 541.3594
721.0599, 452.4688
721.5421, 437.8438
722.0242, 487.6094
722.5063, 527.0469
722.9884, 507.8594
723.4705, 469.8594
723.9526, 427.4531
724.4348, 377.2344
724.9169, 361.6719
725.3990, 423.0000
725.8811, 466.6094
726.3632, 431.2031
726.8453, 309.0625
727.3275, 228.9375
727.8096, 200.3438
728.2917, 182.1406
728.7738, 132.0469
729.2559, 67.18750
729.7380, 23.32812
730.2202, 5.031250
730.7023, 18.70312
731.1844, 107.9375
731.6665, 210.9531
732.1486, 258.1406
732.6307, 199.1094
733.1129, 157.1562
733.5950, 164.5156
734.0771, 185.7344
734.5592, 185.1875
735.0413, 143.0469
735.5234, 137.8594
736.0056, 187.2500
736.4877, 249.3281
736.9698, 258.3906
737.4519, 224.6094
737.9340, 199.1875
738.4161, 195.4688
738.8983, 206.8438
739.3804, 261.4688
739.8625, 322.0625
740.3446, 324.6406
740.8267, 163.2188
741.3088, 39.65625
741.7910, 39.75000
742.2731, 116.5938
742.7552, 165.2344
743.2373, 196.0156
743.7194, 168.5000
744.2015, 45.92188
744.6837, 117.2188
745.1658, 155.2500
745.6479, 76.18750
746.1300, 29.26562
746.6121, 115.1406
747.0942, 230.5156
747.5764, 215.1094
748.0585, 104.5000
748.5406, 9.109375
749.0227, 13.64062
749.5048, 15.93750
749.9869, 9.562500
750.4691, 0.7343750
750.9512, 15.20312
751.4333, 86.20312
751.9154, 133.4375
752.3975, 121.4531
752.8796, 60.40625
753.3618, 6.359375
753.8439, 42.48438
754.3260, 42.50000
754.8081, 106.2031
755.2902, 290.4844
755.7723, 289.4219
756.2545, 124.5156
756.7366, 27.21875
757.2187, 78.03125
757.7008, 75.12500
758.1829, 27.06250
758.6650, 71.15625
759.1472, 118.3125
759.6293, 80.54688
760.1114, 32.53125
760.5935, 7.140625
761.0756, 4.312500
761.5577, 14.82812
762.0399, 38.40625
762.5220, 68.12500
763.0041, 109.3125
763.4862, 148.3125
763.9683, 148.6562
764.4504, 107.6094
764.9326, 79.81250
765.4147, 100.1406
765.8968, 148.0469
766.3789, 219.1094
766.8610, 329.3594
767.3431, 392.8906
767.8253, 384.2812
768.3074, 357.0781
768.7895, 343.6562
769.2716, 344.7344
769.7537, 368.5781
770.2358, 420.7812
770.7180, 467.3594
771.2001, 459.3125
771.6822, 424.1250
772.1643, 422.8125
772.6464, 465.9688
773.1285, 506.4062
773.6107, 491.2500
774.0928, 469.4531
774.5749, 485.4688
775.0570, 554.5625
775.5391, 644.8281
776.0212, 797.7344
776.5034, 923.8594
776.9855, 923.7969
777.4676, 783.9375
777.9497, 694.9062
778.4318, 678.5469
778.9139, 685.1562
779.3961, 668.4531
779.8782, 634.5938
780.3603, 588.7500
780.8424, 526.6250
781.3245, 479.0625
781.8066, 473.7969
782.2888, 488.0625
782.7709, 498.4375
783.2530, 506.1719
783.7351, 499.3438
784.2172, 466.9219
784.6993, 431.1406
785.1815, 421.0156
785.6636, 437.3594
786.1457, 443.7500
786.6278, 434.2500
787.1099, 419.8438
787.5920, 395.9219
788.0742, 381.2500
788.5563, 425.1719
789.0384, 583.8750
789.5205, 685.2500
790.0026, 566.5938
790.4847, 379.8906
790.9669, 299.0625
791.4490, 415.4062
791.9311, 496.9062
792.4132, 519.7656
792.8953, 525.0312
793.3774, 573.3125
793.8596, 659.9688
794.3417, 724.7812
794.8238, 754.7812
795.3059, 767.6250
795.7880, 773.3125
796.2701, 778.0781
796.7523, 796.5156
797.2344, 850.3281
797.7165, 881.1406
798.1986, 843.9062
798.6807, 785.2500
799.1628, 764.5781
799.6450, 814.0938
800.1271, 835.5938
800.6092, 821.5625
801.0913, 782.6094
801.5734, 722.4375
802.0555, 646.8281
802.5377, 583.0000
803.0198, 542.8594
803.5019, 535.3906
803.9840, 602.5781
804.4661, 679.1094
804.9482, 680.2656
805.4304, 541.0156
805.9125, 431.1250
806.3946, 387.1406
806.8767, 383.9375
807.3588, 401.2344
807.8409, 435.7031
808.3230, 503.3438
808.8051, 615.5781
809.2872, 734.2656
809.7693, 803.5156
810.2515, 836.0156
810.7336, 877.0781
811.2157, 939.6250
811.6978, 984.7188
812.1799, 1013.547
812.6620, 1003.625
813.1442, 916.0469
813.6263, 625.0625
814.1084, 457.7188
814.5905, 490.8906
815.0726, 585.8281
815.5547, 599.6094
816.0369, 532.1875
816.5190, 473.2031
817.0011, 430.9844
817.4832, 398.6406
817.9653, 373.2656
818.4474, 352.8281
818.9296, 337.4688
819.4117, 333.5312
819.8938, 314.0625
820.3759, 237.9531
820.8580, 155.2188
821.3401, 111.8750
821.8223, 106.9375
822.3044, 145.8438
822.7865, 238.4062
823.2686, 349.7500
823.7507, 456.1250
824.2328, 552.5312
824.7150, 600.2656
825.1971, 590.1562
825.6792, 582.0469
826.1613, 657.6875
826.6434, 738.4062
827.1255, 728.7656
827.6077, 583.1250
828.0898, 479.2188
828.5719, 482.2344
829.0540, 522.8594
829.5361, 567.2500
830.0182, 621.3906
830.5004, 642.4844
830.9825, 629.3125
831.4646, 596.7188
831.9467, 542.3281
832.4288, 472.8125
832.9109, 409.4688
833.3931, 356.6406
833.8752, 342.6719
834.3573, 448.4688
834.8394, 554.9375
835.3215, 571.4688
835.8036, 470.9844
836.2858, 375.0781
836.7679, 268.8594
837.2500, 197.1562
837.7321, 206.7344
838.2142, 286.6875
838.6964, 304.4219
839.1785, 260.2031
839.6606, 215.7344
840.1427, 211.7188
840.6248, 229.9531
841.1069, 242.9844
841.5891, 250.8906
842.0712, 296.5625
842.5533, 458.2812
843.0354, 588.6094
843.5175, 609.8281
843.9996, 531.6094
844.4818, 518.6875
844.9639, 581.7188
845.4460, 634.8281
845.9281, 623.2344
846.4102, 574.6250
846.8923, 553.7656
847.3745, 553.1875
847.8566, 538.2031
848.3387, 480.4844
848.8208, 416.2031
849.3029, 356.6406
849.7850, 307.8750
850.2672, 294.3906
850.7493, 353.8594
851.2314, 369.7031
851.7135, 291.1406
852.1956, 162.1250
852.6777, 117.8281
853.1599, 146.1719
853.6420, 164.4062
854.1241, 118.7188
854.6062, 70.10938
855.0883, 80.96875
855.5704, 129.3750
856.0526, 170.5781
856.5347, 197.5625
857.0168, 208.0312
857.4989, 196.2812
857.9810, 172.1875
858.4631, 153.1875
858.9453, 138.8750
859.4274, 132.6250
859.9095, 134.2344
860.3916, 147.3906
860.8737, 192.2500
861.3558, 248.5469
861.8380, 275.8125
862.3201, 241.9219
862.8022, 217.0938
863.2843, 241.9844
863.7664, 280.7188
864.2485, 288.1250
864.7307, 240.6250
865.2128, 233.2188
865.6949, 277.8906
866.1770, 342.2656
866.6591, 413.3438
867.1412, 474.6094
867.6234, 454.6406
868.1055, 330.8594
868.5876, 255.3750
869.0697, 436.8750
869.5518, 641.2500
870.0339, 649.4688
870.5161, 341.3438
870.9982, 181.7969
871.4803, 229.2656
871.9624, 325.7969
872.4445, 372.3281
872.9266, 372.2969
873.4088, 365.8906
873.8909, 352.4062
874.3730, 330.1875
874.8551, 293.1719
875.3372, 249.8125
875.8193, 202.9844
876.3015, 154.4375
876.7836, 117.8906
877.2657, 120.8438
877.7478, 111.0781
878.2299, 67.00000
878.7120, 2.578125
879.1942, 44.87500
879.6763, 58.23438
880.1584, 58.03125
880.6405, 42.81250
881.1226, 23.98438
881.6047, 13.07812
882.0869, 10.48438
882.5690, 17.76562
883.0511, 70.48438
883.5332, 93.64062
884.0153, 41.00000
884.4974, 45.87500
884.9796, 84.92188
885.4617, 67.87500
885.9438, 42.87500
886.4259, 15.65625
886.9080, 8.281250
887.3901, 14.79688
887.8723, 12.60938
888.3544, 25.07812
888.8365, 80.18750
889.3186, 102.0156
889.8007, 33.31250
890.2828, 72.90625
890.7650, 159.2031
891.2471, 212.4844
891.7292, 290.5781
892.2113, 414.2656
892.6934, 504.2344
893.1755, 448.1875
893.6577, 298.4531
894.1398, 193.6250
894.6219, 146.8125
895.1040, 138.7188
895.5861, 190.7500
896.0682, 250.8750
896.5504, 268.5469
897.0325, 229.4531
897.5146, 265.4688
897.9967, 432.8594
898.4788, 558.7031
898.9609, 530.5469
899.4431, 392.2812
899.9252, 304.8438
900.4073, 268.4844
900.8894, 284.2031
901.3715, 425.0938
901.8536, 553.6094
902.3358, 539.5625
902.8179, 425.2969
903.3000, 386.7188
903.7821, 506.2969
904.2642, 581.3906
904.7463, 557.7500
905.2285, 481.2969
905.7106, 443.1094
906.1927, 440.7812
906.6748, 458.1562
907.1569, 498.0156
907.6390, 537.5625
908.1212, 570.2812
908.6033, 584.7812
909.0854, 564.2188
909.5675, 457.5000
910.0496, 389.7500
910.5317, 362.0938
911.0139, 376.6250
911.4960, 449.7969
911.9781, 575.7812
912.4602, 692.2500
912.9423, 796.8281
913.4244, 866.5312
913.9066, 860.4531
914.3887, 824.9531
914.8708, 807.5938
915.3529, 814.6562
915.8350, 807.2969
916.3171, 760.3125
916.7993, 723.7812
917.2813, 720.1250
917.7634, 744.6406
918.2455, 771.7812
918.7277, 800.5000
919.2098, 828.0312
919.6919, 854.0781
920.1740, 875.8438
920.6561, 910.5156
921.1382, 940.3906
921.6204, 915.8906
922.1025, 756.7031
922.5846, 631.6719
923.0667, 575.7656
923.5488, 560.0312
924.0309, 523.3750
924.5131, 469.2188
924.9952, 469.5000
925.4773, 558.2969
925.9594, 632.5469
926.4415, 552.0625
926.9236, 412.5000
927.4058, 332.9531
927.8879, 356.4062
928.3700, 391.5312
928.8521, 451.2812
929.3342, 486.7656
929.8163, 437.3438
930.2985, 306.2969
930.7806, 293.7031
931.2627, 400.8438
931.7448, 500.6094
932.2269, 470.9219
932.7090, 407.5156
933.1912, 421.5312
933.6733, 504.3438
934.1554, 538.4219
934.6375, 432.9375
935.1196, 355.2344
935.6017, 358.7031
936.0839, 418.5938
936.5660, 463.8594
937.0481, 491.9062
937.5302, 495.8750
938.0123, 466.5312
938.4944, 427.0938
938.9766, 392.1094
939.4587, 362.1562
939.9408, 337.9219
940.4229, 316.0469
940.9050, 301.3281
941.3871, 299.3281
941.8693, 305.9062
942.3514, 313.1875
942.8335, 318.2500
943.3156, 310.8906
943.7977, 289.4844
944.2798, 284.3438
944.7620, 361.2812
945.2441, 435.9062
945.7262, 422.3750
946.2083, 308.6406
946.6904, 205.4062
947.1725, 103.3906
947.6547, 58.76562
948.1368, 109.1406
948.6189, 220.9531
949.1010, 302.6406
949.5831, 349.5625
950.0652, 333.1562
950.5474, 187.8125
951.0295, 34.85938
951.5116, 44.90625
951.9937, 72.82812
952.4758, 85.73438
952.9579, 84.45312
953.4401, 77.89062
953.9222, 72.37500
954.4043, 49.96875
954.8864, 31.37500
955.3685, 147.7656
955.8506, 225.9062
956.3328, 255.5156
956.8149, 271.9219
957.2970, 300.1094
957.7791, 323.0625
958.2612, 321.4062
958.7433, 291.3125
959.2255, 283.8281
959.7076, 306.0156
960.1897, 323.4844
960.6718, 312.8281
961.1539, 287.2812
961.6360, 274.3125
962.1182, 273.9219
962.6003, 289.1250
963.0824, 351.0156
963.5645, 393.3750
964.0466, 367.7188
964.5287, 312.2344
965.0109, 297.3594
965.4930, 341.7500
965.9751, 340.2344
966.4572, 272.0000
966.9393, 193.0469
967.4214, 170.7812
967.9036, 187.7656
968.3857, 229.4844
968.8678, 303.1250
969.3499, 332.5938
969.8320, 214.3906
970.3141, 121.2656
970.7963, 161.9062
971.2784, 324.6250
971.7605, 400.3125
972.2426, 386.3125
972.7247, 338.3906
973.2068, 253.2344
973.6890, 176.3750
974.1711, 167.0938
974.6532, 208.4844
975.1353, 262.7656
975.6174, 347.7656
976.0995, 400.9219
976.5817, 413.6719
977.0638, 390.5156
977.5459, 317.8125
978.0280, 203.6094
978.5101, 148.0938
978.9922, 169.8594
979.4744, 212.7969
979.9565, 234.8281
980.4386, 253.9531
980.9207, 283.6719
981.4028, 325.4688
981.8849, 401.0469
982.3671, 553.4062
982.8492, 645.4375
983.3313, 598.3906
983.8134, 453.3750
984.2955, 308.0312
984.7776, 176.3906
985.2598, 92.45312
985.7419, 115.2031
986.2240, 135.4375
986.7061, 84.09375
987.1882, 5.281250
987.6703, 31.15625
988.1525, 14.09375
988.6346, 26.03125
989.1167, 96.14062
989.5988, 155.7500
990.0809, 151.7656
990.5630, 110.1875
991.0452, 56.10938
991.5273, 8.468750
992.0094, 15.28125
992.4915, 125.8750
992.9736, 264.7031
993.4557, 333.8125
993.9379, 343.9531
994.4200, 348.9531
994.9021, 348.6562
995.3842, 347.2500
995.8663, 325.9531
996.3484, 337.2500
996.8306, 503.3594
997.3127, 722.7500
997.7948, 833.5625
998.2769, 662.8281
998.7590, 582.8438
999.2411, 637.0469
999.7233, 728.3594
1000.205, 758.3438
1000.688, 740.8281
1001.170, 754.3438
1001.652, 800.2500
1002.134, 839.3438
1002.616, 832.4688
1003.098, 819.4688
1003.580, 833.8125
1004.062, 867.4062
1004.544, 867.6250
1005.027, 830.7500
1005.509, 766.6719
1005.991, 664.6719
1006.473, 566.6562
1006.955, 559.0000
1007.437, 599.7188
1007.919, 605.3281
1008.401, 547.0156
1008.883, 472.7656
1009.366, 385.2812
1009.848, 298.4219
1010.330, 222.1406
1010.812, 158.7500
1011.294, 86.64062
1011.776, 5.375000
1012.258, 31.90625
1012.740, 50.09375
1013.223, 157.4531
1013.705, 194.0312
1014.187, 181.8125
1014.669, 203.7969
1015.151, 311.6406
1015.633, 372.5000
1016.115, 345.0469
1016.597, 298.8906
1017.079, 350.3906
1017.562, 468.3594
1018.044, 555.7812
1018.526, 594.2188
1019.008, 612.3125
1019.490, 639.9688
1019.972, 638.6406
1020.454, 564.8594
1020.936, 425.9688
1021.419, 352.6719
1021.901, 353.5781
1022.383, 354.6562
1022.865, 317.4219
1023.347, 272.1719
1023.829, 271.1250
1024.311, 292.7500
1024.793, 293.8906
1025.275, 256.0781
1025.758, 207.7344
1026.240, 140.6094
1026.722, 82.67188
1027.204, 51.73438
1027.686, 51.14062
1028.168, 128.1562
1028.650, 280.3281
1029.132, 421.0156
1029.615, 444.8906
1030.097, 474.1719
1030.579, 622.8281
1031.061, 851.1719
1031.543, 962.1562
1032.025, 925.2812
1032.507, 876.8750
1032.989, 846.5781
1033.471, 824.1562
1033.953, 812.9375
1034.436, 795.6875
1034.918, 737.9531
1035.400, 622.1875
1035.882, 515.7031
1036.364, 413.4844
1036.846, 359.3125
1037.328, 410.5938
1037.810, 547.1719
1038.293, 540.5469
1038.775, 406.5000
1039.257, 267.6562
1039.739, 184.0000
1040.221, 126.8281
1040.703, 89.32812
1041.185, 59.92188
1041.667, 10.79688
1042.150, 80.84375
1042.632, 128.7656
1043.114, 122.5625
1043.596, 93.87500
1044.078, 80.21875
1044.560, 65.56250
1045.042, 13.03125
1045.524, 74.54688
1046.006, 148.8281
1046.489, 211.0781
1046.971, 226.3438
1047.453, 155.5938
1047.935, 49.20312
1048.417, 69.62500
1048.899, 198.4062
1049.381, 279.4062
1049.863, 265.1562
1050.345, 223.0156
1050.828, 164.5156
1051.310, 123.0938
1051.792, 145.8750
1052.274, 248.2188
1052.756, 322.6719
1053.238, 374.2344
1053.720, 375.4531
1054.202, 262.2031
1054.685, 122.2188
1055.167, 120.2344
1055.649, 214.2344
1056.131, 293.1094
1056.613, 327.4062
1057.095, 322.2031
1057.577, 247.2812
1058.059, 176.6250
1058.542, 225.9531
1059.024, 356.9062
1059.506, 439.0469
1059.988, 464.3125
1060.470, 440.3594
1060.952, 307.7812
1061.434, 176.8125
1061.916, 137.2812
1062.398, 171.9531
1062.880, 179.1875
1063.363, 145.3594
1063.845, 160.0938
1064.327, 253.7344
1064.809, 382.2656
1065.291, 519.2969
1065.773, 643.3125
1066.255, 726.8906
1066.737, 762.8750
1067.220, 752.4844
1067.702, 684.7969
1068.184, 594.8281
1068.666, 483.0156
1069.148, 370.5312
1069.630, 349.7188
1070.112, 395.0781
1070.594, 421.4844
1071.077, 357.6562
1071.559, 309.2031
1072.041, 355.3281
1072.523, 413.0781
1073.005, 389.0938
1073.487, 275.0156
1073.969, 200.2188
1074.451, 170.5156
1074.933, 151.2031
1075.416, 114.0625
1075.898, 77.62500
1076.380, 44.67188
1076.862, 25.18750
1077.344, 64.71875
1077.826, 205.3281
1078.308, 292.5156
1078.790, 289.7031
1079.272, 256.7656
1079.755, 287.3438
1080.237, 338.5938
1080.719, 317.7500
1081.201, 204.5781
1081.683, 134.8281
1082.165, 153.4375
1082.647, 228.9531
1083.129, 382.4531
1083.611, 566.8438
1084.094, 606.0781
1084.576, 527.0625
1085.058, 477.8125
1085.540, 510.8438
1086.022, 576.7969
1086.504, 714.2500
1086.986, 820.6719
1087.468, 787.1094
1087.951, 592.2344
1088.433, 488.3438
1088.915, 482.8594
1089.397, 470.3594
1089.879, 357.7500
1090.361, 229.7188
1090.843, 175.3906
1091.325, 173.0781
1091.807, 177.6250
1092.290, 198.1719
1092.772, 186.0156
1093.254, 123.4531
1093.736, 71.15625
1094.218, 108.2656
1094.700, 193.7656
1095.182, 248.8750
1095.664, 270.5469
1096.146, 270.2344
1096.629, 222.6875
1097.111, 190.7344
1097.593, 186.8125
1098.075, 208.5625
1098.557, 248.2656
1099.039, 307.2344
1099.521, 415.4688
1100.003, 578.6094
1100.486, 699.7344
1100.968, 663.4219
1101.450, 605.8281
1101.932, 618.7812
1102.414, 691.4531
1102.896, 775.7344
1103.378, 872.9688
1103.860, 883.7188
1104.343, 745.8125
1104.825, 576.2344
1105.307, 484.1094
1105.789, 439.5625
1106.271, 408.8906
1106.753, 395.5938
1107.235, 373.8906
1107.717, 336.2969
1108.199, 324.6250
1108.682, 394.2188
1109.164, 481.3125
1109.646, 464.0781
1110.128, 371.5781
1110.610, 274.6406
1111.092, 151.5312
1111.574, 94.71875
1112.056, 134.2969
1112.538, 196.6094
1113.021, 204.9844
1113.503, 178.6406
1113.985, 223.0625
1114.467, 326.5938
1114.949, 345.5938
1115.431, 58.53125
1115.913, 143.7188
1116.395, 34.96875
1116.878, 185.8594
1117.360, 168.1562
1117.842, 69.03125
1118.324, 183.1562
1118.806, 126.8125
1119.288, 41.43750
1119.770, 37.07812
1120.252, 43.37500
1120.734, 23.40625
1121.217, 26.01562
1121.699, 143.6719
1122.181, 344.4375
1122.663, 441.7812
1123.145, 361.4375
1123.627, 241.0938
1124.109, 209.6406
1124.591, 236.2031
1125.073, 314.5156
1125.556, 467.5469
1126.038, 462.6875
1126.520, 241.5312
1127.002, 60.53125
1127.484, 42.87500
1127.966, 106.6094
1128.448, 103.6406
1128.930, 80.26562
1129.413, 133.7031
1129.895, 371.6250
1130.377, 478.8438
1130.859, 367.7344
1131.341, 243.3438
1131.823, 244.5000
1132.305, 331.3281
1132.787, 391.6094
1133.270, 423.1719
1133.752, 426.1562
1134.234, 342.4531
1134.716, 305.6094
1135.198, 379.2812
1135.680, 476.8594
1136.162, 519.4219
1136.644, 512.5469
1137.126, 497.9219
1137.609, 478.6719
1138.091, 450.2344
1138.573, 397.9844
1139.055, 351.1406
1139.537, 318.2969
1140.019, 304.8906
1140.501, 324.2812
1140.983, 378.1094
1141.465, 441.7500
1141.948, 515.3906
1142.430, 546.9375
1142.912, 434.8906
1143.394, 315.0156
1143.876, 310.0469
1144.358, 389.5781
1144.840, 404.4062
1145.322, 345.7500
1145.805, 296.1719
1146.287, 276.2969
1146.769, 255.3281
1147.251, 162.6562
1147.733, 80.35938
1148.215, 119.0781
1148.697, 293.3125
1149.179, 399.7344
1149.661, 429.5469
1150.144, 403.6406
1150.626, 302.9531
1151.108, 205.7500
1151.590, 255.4375
1152.072, 369.0781
1152.554, 418.7812
1153.036, 358.2812
1153.518, 342.4844
1154.000, 380.7812
1154.483, 461.2812
1154.965, 605.0938
1155.447, 756.5781
1155.929, 787.4844
1156.411, 736.4844
1156.893, 676.4688
1157.375, 595.0781
1157.857, 599.4062
1158.340, 765.4688
1158.822, 898.5625
1159.304, 855.0938
1159.786, 691.6562
1160.268, 559.4219
1160.750, 459.8125
1161.232, 397.2969
1161.714, 416.5781
1162.197, 410.3750
1162.679, 330.6875
1163.161, 251.4844
1163.643, 236.9531
1164.125, 278.2188
1164.607, 342.9062
1165.089, 423.0938
1165.571, 481.9844
1166.053, 495.5625
1166.536, 487.6094
1167.018, 454.2969
1167.500, 413.8594
1167.982, 400.8281
1168.464, 406.8906
1168.946, 320.1562
1169.428, 143.9062
1169.910, 3.484375
1170.392, 16.53125
1170.875, 45.39062
1171.357, 7.937500
1171.839, 48.40625
1172.321, 41.79688
1172.803, 25.50000
1173.285, 88.03125
1173.767, 128.8750
1174.249, 172.4688
1174.732, 250.2500
1175.214, 297.4375
1175.696, 226.8906
1176.178, 95.18750
1176.660, 83.62500
1177.142, 197.5469
1177.624, 232.0312
1178.106, 141.4688
1178.589, 59.56250
1179.071, 127.5781
1179.553, 215.5625
1180.035, 201.8594
1180.517, 112.8438
1180.999, 118.0312
1181.481, 227.6719
1181.963, 241.5781
1182.445, 81.06250
1182.927, 54.32812
1183.410, 91.35938
1183.892, 305.6250
1184.374, 384.0000
1184.856, 322.0000
1185.338, 242.6562
1185.820, 139.1562
1186.302, 100.5469
1186.784, 178.8594
1187.267, 267.4531
1187.749, 236.3750
1188.231, 175.2656
1188.713, 183.8438
1189.195, 267.7812
1189.677, 300.7656
1190.159, 282.4844
1190.641, 276.8594
1191.124, 316.8594
1191.606, 345.9062
1192.088, 292.5625
1192.570, 197.3125
1193.052, 102.2969
1193.534, 0.2500000
1194.016, 12.00000
1194.498, 85.76562
1194.980, 167.2969
1195.463, 154.0625
1195.945, 115.2344
1196.427, 160.9688
1196.909, 228.8438
1197.391, 208.2344
1197.873, 31.78125
1198.355, 20.25000
1198.837, 75.73438
1199.319, 168.7969
1199.802, 138.5938
1200.284, 81.56250
1200.766, 121.8438
1201.248, 216.2344
1201.730, 286.8125
1202.212, 304.5156
1202.694, 337.3125
1203.176, 387.0938
1203.658, 433.0156
1204.141, 466.9219
1204.623, 482.6406
1205.105, 461.4531
1205.587, 418.6562
1206.069, 388.7031
1206.551, 378.1094
1207.033, 377.9531
1207.515, 388.7031
1207.998, 415.0312
1208.480, 499.7969
1208.962, 573.4531
1209.444, 515.9219
1209.926, 379.0625
1210.408, 310.4531
1210.890, 357.8125
1211.372, 364.5000
1211.854, 312.0781
1212.337, 259.7656
1212.819, 283.7656
1213.301, 314.8906
1213.783, 249.2656
1214.265, 121.9688
1214.747, 58.45312
1215.229, 91.96875
1215.711, 117.8594
1216.193, 130.7969
1216.676, 133.7031
1217.158, 128.2188
1217.640, 118.3594
1218.122, 110.8906
1218.604, 104.2031
1219.086, 85.31250
1219.568, 43.48438
1220.050, 29.04688
1220.533, 48.12500
1221.015, 84.29688
1221.497, 107.4844
1221.979, 147.1719
1222.461, 253.1562
1222.943, 402.7344
1223.425, 501.3281
1223.907, 534.8906
1224.390, 554.6719
1224.872, 565.3594
1225.354, 565.0469
1225.836, 520.6250
1226.318, 490.2188
1226.800, 561.8906
1227.282, 704.7656
1227.764, 754.4219
1228.246, 698.7812
1228.729, 620.6406
1229.211, 531.5781
1229.693, 437.3594
1230.175, 346.9688
1230.657, 265.1562
1231.139, 186.7188
1231.621, 118.1406
1232.103, 79.75000
1232.585, 74.87500
1233.068, 87.95312
1233.550, 120.8906
1234.032, 141.3594
1234.514, 114.1875
1234.996, 69.14062
1235.478, 9.812500
1235.960, 46.00000
1236.442, 19.68750
1236.925, 91.81250
1237.407, 128.6094
1237.889, 53.51562
1238.371, 15.75000
1238.853, 30.68750
1239.335, 101.8438
1239.817, 141.2344
1240.299, 149.6094
1240.781, 118.1250
1241.264, 54.43750
1241.746, 14.29688
1242.228, 8.187500
1242.710, 32.09375
1243.192, 146.1719
1243.674, 224.5312
1244.156, 186.5781
1244.638, 70.26562
1245.120, 55.48438
1245.603, 177.5312
1246.085, 198.0625
1246.567, 86.68750
1247.049, 5.718750
1247.531, 61.46875
1248.013, 113.2812
1248.495, 65.60938
1248.977, 47.92188
1249.460, 143.6406
1249.942, 219.9844
1250.424, 264.5312
1250.906, 274.9844
1251.388, 278.4375
1251.870, 277.6094
1252.352, 280.6562
1252.834, 289.6562
1253.317, 310.5156
1253.799, 384.7031
1254.281, 480.0938
1254.763, 504.0000
1255.245, 437.8125
1255.727, 378.3438
1256.209, 359.5781
1256.691, 347.4062
1257.173, 333.9531
1257.656, 318.8281
1258.138, 309.9688
1258.620, 296.7500
1259.102, 246.0312
1259.584, 150.2344
1260.066, 113.8281
1260.548, 180.4375
1261.030, 239.6562
1261.512, 265.2188
1261.995, 263.3594
1262.477, 211.7969
1262.959, 155.4688
1263.441, 152.5000
1263.923, 212.9062
1264.405, 344.3281
1264.887, 601.5000
1265.369, 695.3750
1265.852, 512.9531
1266.334, 281.0781
1266.816, 273.1250
1267.298, 356.8906
1267.780, 410.0000
1268.262, 416.9844
1268.744, 368.1250
1269.226, 251.2031
1269.708, 187.1094
1270.191, 205.7500
1270.673, 275.3281
1271.155, 424.3906
1271.637, 564.7031
1272.119, 613.3750
1272.601, 581.0938
1273.083, 492.6250
1273.565, 352.7031
1274.047, 268.2500
1274.530, 267.6406
1275.012, 275.7344
1275.494, 206.4375
1275.976, 140.5625
1276.458, 171.0938
1276.940, 282.9531
1277.422, 317.3125
1277.904, 319.1406
1278.387, 325.6250
1278.869, 344.6094
1279.351, 378.8906
1279.833, 426.3750
1280.315, 494.9219
1280.797, 604.7500
1281.279, 708.7500
1281.761, 710.1250
1282.244, 639.1719
1282.726, 561.7656
1283.208, 489.3594
1283.690, 443.6562
1284.172, 447.4531
1284.654, 456.2812
1285.136, 465.3594
1285.618, 469.4844
1286.100, 453.6250
1286.583, 432.0000
1287.065, 424.7031
1287.547, 433.0000
1288.029, 449.7969
1288.511, 477.1719
1288.993, 491.5781
1289.475, 482.6719
1289.957, 478.2500
1290.439, 526.0625
1290.922, 577.9219
1291.404, 588.1719
1291.886, 556.7500
1292.368, 502.3594
1292.850, 417.7344
1293.332, 379.2812
1293.814, 400.9531
1294.296, 441.4219
1294.779, 484.2500
1295.261, 521.4062
1295.743, 561.7812
1296.225, 583.8594
1296.707, 532.9375
1297.189, 419.6562
1297.671, 350.7812
1298.153, 334.6250
1298.635, 323.5156
1299.118, 260.6406
1299.600, 238.0000
1300.082, 302.9531
1300.564, 372.0625
1301.046, 347.7188
1301.528, 274.8438
1302.010, 253.0000
1302.492, 276.9375
1302.974, 261.5000
1303.457, 137.0938
1303.939, 36.03125
1304.421, 8.578125
1304.903, 44.15625
1305.385, 89.54688
1305.867, 0.0000000E+00
##END=



