##NAMES=Willemite
##RRUFFID=R100109
##IDEAL CHEMISTRY=Zn^2+^_2_SiO_4_
##LOCALITY=Franklin, Sussex County, New Jersey, USA
##OWNER=RRUFF
##SOURCE=American Museum of Natural History
##DESCRIPTION=Pale yellow transparent fragments
##STATUS=The identification of this mineral is confirmed by single-crystal X-ray diffraction and chemical analysis.
##URL=rruff.info/R100109
##MEASURED CHEMISTRY=(Zn_1.677_Mn^+2^_0.242_Mg_0.034_Fe^+2^_0.001_)_Î£=1.954_Si_1.023_O_4_
100.1345, 6020.413
100.6166, 6021.398
101.0988, 6003.367
101.5809, 5972.506
102.0630, 5986.514
102.5451, 6061.933
103.0272, 6152.991
103.5093, 6206.204
103.9915, 6203.631
104.4736, 6208.732
104.9557, 6241.937
105.4378, 6310.786
105.9199, 6364.754
106.4020, 6397.871
106.8842, 6419.300
107.3663, 6445.442
107.8484, 6476.757
108.3305, 6512.047
108.8126, 6551.680
109.2947, 6604.708
109.7769, 6646.974
110.2590, 6668.203
110.7411, 6676.999
111.2232, 6699.514
111.7053, 6748.365
112.1874, 6802.478
112.6696, 6852.032
113.1517, 6894.179
113.6338, 6933.817
114.1159, 6972.770
114.5980, 7010.300
115.0801, 7042.472
115.5623, 7056.048
116.0444, 7069.532
116.5265, 7097.102
117.0086, 7151.883
117.4907, 7213.483
117.9728, 7281.479
118.4550, 7356.199
118.9371, 7415.480
119.4192, 7432.272
119.9013, 7431.850
120.3834, 7446.194
120.8655, 7489.914
121.3477, 7552.315
121.8298, 7625.866
122.3119, 7710.208
122.7940, 7805.790
123.2761, 7906.238
123.7582, 8017.570
124.2404, 8153.174
124.7225, 8303.769
125.2046, 8489.218
125.6867, 8733.175
126.1688, 9044.502
126.6509, 9404.733
127.1331, 9770.047
127.6152, 10154.76
128.0973, 10629.98
128.5794, 11246.34
129.0615, 11989.43
129.5436, 12818.36
130.0258, 13707.71
130.5079, 14698.00
130.9900, 15885.60
131.4721, 17260.24
131.9542, 18788.87
132.4363, 20393.41
132.9185, 22097.83
133.4006, 24063.79
133.8827, 26341.23
134.3648, 28896.55
134.8469, 31732.20
135.3290, 34822.38
135.8112, 38323.09
136.2933, 42336.54
136.7754, 46876.26
137.2575, 51952.13
137.7396, 57584.34
138.2217, 63679.20
138.7039, 70505.85
139.1860, 78177.88
139.6681, 86424.82
140.1502, 95150.07
140.6323, 104455.8
141.1144, 113614.1
141.5966, 122386.7
142.0787, 130708.9
142.5608, 138725.3
143.0429, 146434.5
143.5250, 153823.8
144.0071, 160791.5
144.4893, 167180.5
144.9714, 173305.0
145.4535, 179163.5
145.9356, 184507.2
146.4177, 190196.2
146.8998, 196244.3
147.3820, 202657.4
147.8641, 209729.1
148.3462, 217314.6
148.8283, 225603.2
149.3104, 234803.6
149.7925, 245189.8
150.2747, 256082.8
150.7568, 267466.7
151.2389, 279296.9
151.7210, 291065.3
152.2031, 302925.0
152.6852, 314511.3
153.1674, 325729.5
153.6495, 336724.6
154.1316, 347085.5
154.6137, 356824.2
155.0958, 365942.4
155.5779, 374200.2
156.0601, 381269.0
156.5422, 387620.2
157.0243, 393569.6
157.5064, 399052.6
157.9885, 404256.7
158.4706, 409174.9
158.9528, 413783.3
159.4349, 418339.1
159.9170, 422751.2
160.3991, 427192.0
160.8812, 431860.9
161.3633, 436756.4
161.8455, 441939.3
162.3276, 447456.0
162.8097, 453236.3
163.2918, 459356.2
163.7739, 465841.3
164.2560, 469919.8
164.7382, 475186.7
165.2203, 477566.5
165.7024, 480124.1
166.1845, 482769.0
166.6666, 485541.7
167.1487, 488272.9
167.6309, 490964.5
168.1130, 493587.7
168.5951, 496029.2
169.0772, 498320.5
169.5593, 500399.2
170.0414, 502207.9
170.5236, 503731.7
171.0057, 505019.0
171.4878, 506206.6
171.9699, 507229.5
172.4520, 507863.7
172.9341, 507827.0
173.4163, 507403.2
173.8984, 506899.5
174.3805, 506320.1
174.8626, 505764.4
175.3447, 505301.8
175.8268, 504922.2
176.3090, 504598.8
176.7911, 504339.3
177.2732, 504115.3
177.7553, 503878.8
178.2374, 503578.5
178.7195, 503292.4
179.2017, 503136.3
179.6838, 503096.5
180.1659, 503082.8
180.6480, 502897.0
181.1301, 502678.3
181.6122, 502781.7
182.0944, 503516.7
182.5765, 504471.8
183.0586, 504891.8
183.5407, 504776.9
184.0228, 504604.8
184.5049, 504836.3
184.9871, 505375.9
185.4692, 505869.9
185.9513, 506183.6
186.4334, 506389.4
186.9155, 506719.3
187.3976, 507190.2
187.8798, 507575.8
188.3619, 507541.2
188.8440, 507158.6
189.3261, 506895.3
189.8082, 507008.0
190.2903, 507358.0
190.7725, 507428.7
191.2546, 507192.8
191.7367, 506825.3
192.2188, 506533.3
192.7009, 506305.5
193.1830, 505996.7
193.6652, 505518.7
194.1473, 504896.8
194.6294, 504317.3
195.1115, 503778.0
195.5936, 503284.6
196.0757, 502805.3
196.5579, 502334.2
197.0400, 502034.6
197.5221, 502083.7
198.0042, 502445.4
198.4863, 502502.8
198.9684, 502183.5
199.4506, 501727.1
199.9327, 501490.3
200.4148, 501488.6
200.8969, 501544.2
201.3790, 501582.7
201.8611, 501599.4
202.3433, 501665.1
202.8254, 501785.3
203.3075, 501929.0
203.7896, 502077.8
204.2717, 502252.6
204.7538, 502289.7
205.2360, 502042.6
205.7181, 501455.1
206.2002, 501086.8
206.6823, 501020.1
207.1644, 501068.5
207.6465, 500853.7
208.1287, 500301.9
208.6108, 499769.0
209.0929, 499478.1
209.5750, 499529.8
210.0571, 499278.4
210.5392, 498595.9
211.0214, 497744.6
211.5035, 497316.1
211.9856, 497483.9
212.4677, 497635.5
212.9498, 497476.5
213.4319, 496928.7
213.9140, 496408.6
214.3962, 495872.6
214.8783, 495390.3
215.3604, 495158.3
215.8425, 495255.0
216.3246, 495396.0
216.8067, 495483.1
217.2889, 495558.1
217.7710, 495373.8
218.2531, 494800.9
218.7352, 494016.3
219.2173, 493435.9
219.6994, 493089.8
220.1816, 492872.5
220.6637, 492766.5
221.1458, 492863.0
221.6279, 492798.2
222.1100, 492495.6
222.5921, 492068.0
223.0743, 491802.8
223.5564, 491772.4
224.0385, 491806.9
224.5206, 491876.5
225.0027, 492114.5
225.4848, 492036.9
225.9670, 491471.6
226.4491, 490651.5
226.9312, 490191.7
227.4133, 490261.3
227.8954, 490420.0
228.3775, 490441.5
228.8597, 490185.4
229.3418, 490119.8
229.8239, 490330.8
230.3060, 490691.8
230.7881, 490859.3
231.2702, 490751.9
231.7524, 490541.0
232.2345, 490279.1
232.7166, 489871.9
233.1987, 489612.8
233.6808, 489596.8
234.1629, 489705.9
234.6451, 489619.4
235.1272, 489274.3
235.6093, 488851.5
236.0914, 488453.0
236.5735, 488192.5
237.0556, 487721.1
237.5378, 486913.2
238.0199, 485952.8
238.5020, 485309.5
238.9841, 485141.1
239.4662, 485064.0
239.9483, 484921.3
240.4305, 484693.8
240.9126, 484437.6
241.3947, 484108.6
241.8768, 483753.8
242.3589, 483495.2
242.8410, 483345.6
243.3232, 483249.7
243.8053, 483197.8
244.2874, 483246.3
244.7695, 483180.1
245.2516, 482960.1
245.7337, 482639.0
246.2159, 482323.0
246.6980, 481972.9
247.1801, 481698.3
247.6622, 481568.2
248.1443, 481685.6
248.6264, 481671.5
249.1086, 481498.7
249.5907, 481215.8
250.0728, 480907.4
250.5549, 480540.8
251.0370, 480200.7
251.5191, 479901.1
252.0013, 479611.7
252.4834, 479467.0
252.9655, 479554.3
253.4476, 479722.6
253.9297, 479679.8
254.4118, 479315.5
254.8940, 478932.0
255.3761, 478635.9
255.8582, 478448.8
256.3403, 478262.6
256.8224, 478101.3
257.3046, 477928.3
257.7867, 477686.2
258.2688, 477369.4
258.7509, 477010.0
259.2330, 476615.2
259.7151, 476177.2
260.1973, 475791.1
260.6794, 475500.4
261.1615, 475241.4
261.6436, 474894.7
262.1257, 474358.7
262.6078, 473982.2
263.0900, 473935.4
263.5721, 474269.8
264.0542, 474357.9
264.5363, 474059.7
265.0184, 473670.1
265.5005, 473602.3
265.9827, 473992.0
266.4648, 474288.0
266.9469, 474309.1
267.4290, 474045.8
267.9111, 473833.1
268.3932, 473748.4
268.8754, 473589.2
269.3575, 473044.0
269.8396, 471945.2
270.3217, 471073.7
270.8038, 470686.4
271.2859, 470753.1
271.7681, 470700.7
272.2502, 470517.6
272.7323, 470247.3
273.2144, 469919.8
273.6965, 469519.1
274.1786, 469147.0
274.6608, 468822.6
275.1429, 468545.1
275.6250, 468301.4
276.1071, 468106.1
276.5892, 467909.2
277.0714, 467636.8
277.5535, 467268.0
278.0356, 467042.3
278.5177, 467073.2
278.9998, 467268.6
279.4819, 467215.6
279.9641, 466873.4
280.4462, 466471.8
280.9283, 466188.7
281.4104, 466032.7
281.8925, 465898.2
282.3746, 465778.4
282.8568, 465664.8
283.3389, 465524.9
283.8210, 465352.0
284.3031, 465178.3
284.7852, 465001.7
285.2673, 464822.2
285.7495, 464698.0
286.2316, 464619.0
286.7137, 464601.4
287.1958, 464707.8
287.6779, 464935.5
288.1600, 465178.8
288.6422, 465404.4
289.1243, 465599.2
289.6064, 465664.3
290.0885, 465569.6
290.5706, 465406.0
291.0527, 465369.8
291.5349, 465449.3
292.0170, 465414.4
292.4991, 465065.7
292.9812, 464495.7
293.4633, 464046.7
293.9454, 463752.4
294.4276, 463521.7
294.9097, 463227.0
295.3918, 462885.6
295.8739, 462588.5
296.3560, 462392.1
296.8381, 462267.3
297.3203, 462167.6
297.8024, 462092.8
298.2845, 462002.0
298.7666, 461901.3
299.2487, 461757.3
299.7308, 461467.4
300.2130, 460845.3
300.6951, 460105.0
301.1772, 459608.3
301.6593, 459359.3
302.1414, 459193.8
302.6235, 458993.4
303.1057, 458780.7
303.5878, 458603.1
304.0699, 458516.6
304.5520, 458447.6
305.0341, 458302.8
305.5162, 458091.4
305.9984, 457869.9
306.4805, 457687.2
306.9626, 457515.5
307.4447, 457313.8
307.9268, 457029.4
308.4089, 456749.5
308.8911, 456554.7
309.3732, 456426.6
309.8553, 456302.4
310.3374, 456118.8
310.8195, 455927.9
311.3016, 455808.8
311.7838, 455852.0
312.2659, 455814.7
312.7480, 455442.9
313.2301, 454867.3
313.7122, 454398.1
314.1943, 454240.9
314.6765, 454209.0
315.1586, 454181.4
315.6407, 454147.4
316.1228, 454108.5
316.6049, 454057.7
317.0870, 454003.5
317.5692, 453959.6
318.0513, 453998.4
318.5334, 453982.8
319.0155, 453778.6
319.4976, 453321.9
319.9797, 453007.2
320.4619, 453117.6
320.9440, 453372.2
321.4261, 453456.8
321.9082, 453172.8
322.3903, 452820.0
322.8724, 452487.4
323.3546, 452180.8
323.8367, 451840.1
324.3188, 451396.8
324.8009, 450956.2
325.2830, 450605.8
325.7651, 450410.6
326.2473, 450261.3
326.7294, 450222.2
327.2115, 450268.5
327.6936, 450165.0
328.1757, 449691.8
328.6578, 449226.8
329.1400, 448959.7
329.6221, 449170.3
330.1042, 449199.8
330.5863, 448969.5
331.0684, 448545.1
331.5505, 448121.9
332.0327, 447596.5
332.5148, 447173.4
332.9969, 446950.4
333.4790, 447030.3
333.9611, 447011.2
334.4432, 446831.5
334.9254, 446581.9
335.4075, 446435.1
335.8896, 446466.6
336.3717, 446447.9
336.8538, 446292.4
337.3359, 445983.2
337.8180, 445745.1
338.3001, 445602.8
338.7823, 445504.3
339.2644, 445389.7
339.7465, 445249.2
340.2286, 445144.9
340.7107, 445117.0
341.1928, 445141.9
341.6750, 445045.6
342.1571, 444797.0
342.6392, 444524.5
343.1213, 444391.2
343.6034, 444399.9
344.0855, 444156.7
344.5677, 443514.4
345.0498, 442662.3
345.5319, 442059.2
346.0140, 441707.9
346.4961, 441520.1
346.9782, 441595.6
347.4604, 441839.3
347.9425, 441721.0
348.4246, 441125.8
348.9067, 440377.3
349.3888, 439957.0
349.8709, 439816.6
350.3531, 439665.0
350.8352, 439326.8
351.3173, 438891.3
351.7994, 438499.6
352.2815, 438156.2
352.7636, 437900.3
353.2458, 437800.1
353.7279, 437813.1
354.2100, 437848.6
354.6921, 437875.8
355.1742, 437898.8
355.6563, 437952.1
356.1385, 438022.9
356.6206, 438010.9
357.1027, 437747.8
357.5848, 437396.7
358.0669, 437149.4
358.5490, 437094.3
359.0312, 437092.2
359.5133, 437074.5
359.9954, 437038.5
360.4775, 436981.3
360.9596, 436902.4
361.4417, 436797.1
361.9239, 436653.8
362.4060, 436454.8
362.8881, 436260.4
363.3702, 436161.1
363.8523, 436067.5
364.3344, 435843.2
364.8166, 435290.3
365.2987, 434741.9
365.7808, 434355.1
366.2629, 434157.6
366.7450, 433933.1
367.2271, 433666.3
367.7093, 433357.8
368.1914, 433008.6
368.6735, 432611.9
369.1556, 432188.4
369.6377, 431745.5
370.1198, 431282.6
370.6020, 430809.8
371.0841, 430231.7
371.5662, 429730.7
372.0483, 429418.7
372.5304, 429415.8
373.0125, 429372.4
373.4947, 429302.4
373.9768, 429178.9
374.4589, 428912.3
374.9410, 428408.1
375.4231, 427951.1
375.9052, 427658.7
376.3874, 427552.3
376.8695, 427440.5
377.3516, 427322.5
377.8337, 427201.7
378.3158, 427075.5
378.7979, 426942.6
379.2801, 426821.9
379.7622, 426728.4
380.2443, 426649.0
380.7264, 426522.3
381.2085, 426346.1
381.6906, 426127.0
382.1728, 425853.3
382.6549, 425530.3
383.1370, 425212.0
383.6191, 424891.9
384.1012, 424598.0
384.5833, 424386.4
385.0655, 424248.4
385.5476, 424122.0
386.0297, 423952.5
386.5118, 423773.8
386.9939, 423667.1
387.4760, 423654.7
387.9582, 423615.5
388.4403, 423390.2
388.9224, 423054.0
389.4045, 422765.0
389.8866, 422682.7
390.3687, 422607.3
390.8509, 422304.8
391.3330, 421800.9
391.8151, 421388.1
392.2972, 421397.0
392.7793, 421509.2
393.2614, 421409.3
393.7436, 420893.1
394.2257, 420329.9
394.7078, 419820.0
395.1899, 419380.1
395.6720, 419053.6
396.1541, 418964.1
396.6363, 418910.1
397.1184, 418806.0
397.6005, 418647.2
398.0826, 418436.3
398.5647, 418099.8
399.0468, 417739.3
399.5290, 417477.7
400.0111, 417526.9
400.4932, 417454.4
400.9753, 417090.8
401.4574, 416436.2
401.9395, 416063.9
402.4217, 416151.6
402.9038, 416323.5
403.3859, 416323.8
403.8680, 416066.1
404.3501, 415823.9
404.8322, 415591.1
405.3144, 415393.0
405.7965, 415336.8
406.2786, 415478.1
406.7607, 415572.5
407.2428, 415487.3
407.7249, 415214.4
408.2071, 415004.6
408.6892, 414883.1
409.1713, 414743.0
409.6534, 414391.4
410.1355, 413845.5
410.6176, 413417.1
411.0998, 413226.2
411.5819, 413191.2
412.0640, 413119.9
412.5461, 413015.2
413.0282, 412929.4
413.5103, 413019.2
413.9925, 413144.3
414.4746, 412969.2
414.9567, 412362.9
415.4388, 411671.0
415.9209, 411248.6
416.4030, 411019.5
416.8852, 410783.2
417.3673, 410435.8
417.8494, 410045.6
418.3315, 409662.0
418.8136, 409290.5
419.2957, 408909.1
419.7779, 408423.8
420.2600, 407960.1
420.7421, 407653.2
421.2242, 407771.6
421.7063, 407812.4
422.1884, 407577.3
422.6706, 407128.0
423.1527, 406683.3
423.6348, 406312.3
424.1169, 405953.5
424.5990, 405565.6
425.0811, 405094.5
425.5633, 404730.6
426.0454, 404601.2
426.5275, 404534.7
427.0096, 404294.0
427.4917, 403662.3
427.9738, 403192.7
428.4560, 403032.9
428.9381, 403166.8
429.4202, 403288.2
429.9023, 403412.6
430.3844, 403486.2
430.8665, 403473.4
431.3487, 403373.9
431.8308, 403141.6
432.3129, 402705.1
432.7950, 402213.1
433.2771, 402023.3
433.7592, 402145.9
434.2414, 402266.4
434.7235, 402252.6
435.2056, 402116.1
435.6877, 401885.1
436.1698, 401551.6
436.6519, 401204.4
437.1341, 400937.9
437.6162, 400731.8
438.0983, 400525.3
438.5804, 400296.2
439.0625, 400073.5
439.5446, 399921.1
440.0268, 399816.1
440.5089, 399667.7
440.9910, 399427.3
441.4731, 399124.8
441.9552, 398788.3
442.4373, 398433.2
442.9195, 398014.6
443.4016, 397452.7
443.8837, 396836.1
444.3658, 396272.5
444.8479, 395748.2
445.3300, 395328.8
445.8122, 395072.3
446.2943, 394961.3
446.7764, 394830.2
447.2585, 394717.7
447.7406, 394528.2
448.2227, 394189.7
448.7049, 393519.4
449.1870, 393062.4
449.6691, 392925.3
450.1512, 392950.8
450.6333, 392901.9
451.1154, 392767.5
451.5976, 392575.2
452.0797, 392307.8
452.5618, 391973.3
453.0439, 391747.5
453.5260, 391687.8
454.0081, 391571.8
454.4903, 391125.0
454.9724, 390359.3
455.4545, 389877.4
455.9366, 389809.5
456.4187, 389944.8
456.9008, 389958.8
457.3830, 389860.3
457.8651, 389718.1
458.3472, 389549.4
458.8293, 389364.0
459.3114, 389182.8
459.7935, 389008.1
460.2757, 388806.7
460.7578, 388505.7
461.2399, 388177.5
461.7220, 387923.5
462.2041, 387774.9
462.6862, 387688.8
463.1684, 387699.0
463.6505, 387749.7
464.1326, 387712.8
464.6147, 387503.4
465.0968, 387216.1
465.5789, 386861.2
466.0611, 386417.2
466.5432, 386073.5
467.0253, 385996.7
467.5074, 385964.3
467.9895, 385789.7
468.4716, 385255.2
468.9538, 384840.5
469.4359, 384670.5
469.9180, 384644.6
470.4001, 384417.3
470.8822, 383872.3
471.3643, 383349.7
471.8465, 383018.1
472.3286, 382911.8
472.8107, 382688.6
473.2928, 382347.7
473.7749, 381920.8
474.2570, 381381.3
474.7392, 380734.1
475.2213, 380282.5
475.7034, 380157.7
476.1855, 380187.7
476.6676, 379979.6
477.1497, 379558.8
477.6319, 379190.3
478.1140, 379050.8
478.5961, 379050.8
479.0782, 379068.4
479.5603, 379096.3
480.0424, 379075.3
480.5246, 378933.1
481.0067, 378714.7
481.4888, 378483.7
481.9709, 378234.8
482.4530, 378002.6
482.9352, 377814.4
483.4173, 377658.0
483.8994, 377496.5
484.3815, 377357.4
484.8636, 377175.6
485.3457, 376902.0
485.8279, 376495.2
486.3100, 376138.3
486.7921, 375871.4
487.2742, 375649.9
487.7563, 375436.2
488.2384, 375245.1
488.7206, 375040.9
489.2027, 374833.7
489.6848, 374611.3
490.1669, 374324.7
490.6490, 373967.6
491.1311, 373580.9
491.6133, 373167.6
492.0954, 372729.3
492.5775, 372379.3
493.0596, 372129.4
493.5417, 371935.9
494.0238, 371783.6
494.5060, 371656.7
494.9881, 371467.8
495.4702, 371162.5
495.9523, 370839.7
496.4344, 370657.2
496.9165, 370586.4
497.3987, 370522.2
497.8808, 370389.4
498.3629, 370240.8
498.8450, 370132.4
499.3271, 370067.1
499.8092, 369989.7
500.2914, 369893.8
500.7735, 369754.7
501.2556, 369542.8
501.7377, 369092.8
502.2198, 368757.2
502.7019, 368728.3
503.1841, 368873.0
503.6662, 368829.9
504.1483, 368430.5
504.6304, 367987.6
505.1125, 367588.2
505.5946, 367238.3
506.0768, 366877.7
506.5589, 366489.6
507.0410, 366129.0
507.5231, 365835.8
508.0052, 365612.1
508.4873, 365494.8
508.9695, 365550.0
509.4516, 365625.7
509.9337, 365372.8
510.4158, 364810.3
510.8979, 364307.3
511.3800, 364051.2
511.8622, 363949.3
512.3443, 363828.1
512.8264, 363683.0
513.3085, 363453.5
513.7906, 362959.6
514.2728, 362402.5
514.7549, 362087.7
515.2370, 362165.9
515.7191, 362206.3
516.2012, 361864.7
516.6833, 361329.5
517.1655, 360884.5
517.6476, 360708.7
518.1297, 360557.0
518.6118, 360363.9
519.0939, 360129.1
519.5760, 359857.1
520.0582, 359494.6
520.5403, 359145.0
521.0224, 358851.8
521.5045, 358610.3
521.9866, 358432.4
522.4688, 358340.4
522.9509, 358281.4
523.4330, 358199.0
523.9151, 358096.1
524.3972, 357937.6
524.8793, 357705.5
525.3615, 357421.5
525.8436, 357117.2
526.3257, 356792.5
526.8078, 356515.5
527.2899, 356403.8
527.7720, 356354.3
528.2542, 356103.7
528.7363, 355639.0
529.2184, 355148.4
529.7005, 354756.2
530.1826, 354453.9
530.6647, 354241.1
531.1469, 354174.3
531.6290, 354107.3
532.1111, 353956.3
532.5932, 353746.6
533.0753, 353531.7
533.5574, 353341.7
534.0396, 353128.8
534.5217, 352838.6
535.0038, 352462.0
535.4859, 352191.1
535.9680, 352126.8
536.4501, 352069.7
536.9323, 351908.2
537.4144, 351621.3
537.8965, 351263.8
538.3786, 350789.4
538.8607, 350311.4
539.3428, 350060.9
539.8250, 350063.5
540.3071, 349937.5
540.7892, 349518.2
541.2713, 348954.1
541.7534, 348669.5
542.2355, 348637.5
542.7177, 348552.3
543.1998, 348114.3
543.6819, 347537.0
544.1640, 347182.4
544.6461, 347086.3
545.1282, 346992.4
545.6104, 346618.0
546.0925, 346188.7
546.5746, 345971.9
547.0567, 346280.1
547.5388, 346471.9
548.0209, 346228.4
548.5031, 345718.9
548.9852, 345313.2
549.4673, 345155.9
549.9494, 345012.1
550.4315, 344823.7
550.9136, 344591.4
551.3958, 344373.4
551.8779, 344179.9
552.3600, 343985.4
552.8421, 343777.1
553.3242, 343557.6
553.8063, 343291.2
554.2885, 342960.3
554.7706, 342628.2
555.2527, 342403.1
555.7348, 342264.9
556.2169, 342078.8
556.6990, 341774.4
557.1812, 341444.7
557.6633, 341239.7
558.1454, 341130.7
558.6275, 341010.1
559.1096, 340834.2
559.5917, 340611.3
560.0739, 340307.0
560.5560, 339916.4
561.0381, 339631.3
561.5202, 339679.7
562.0023, 339775.9
562.4844, 339700.5
562.9666, 339208.9
563.4487, 338867.3
563.9308, 338816.9
564.4129, 338879.6
564.8950, 338775.3
565.3771, 338420.3
565.8593, 338078.6
566.3414, 337796.6
566.8235, 337570.9
567.3056, 337404.5
567.7877, 337309.1
568.2698, 337177.0
568.7520, 336925.0
569.2341, 336581.1
569.7162, 336227.7
570.1983, 335868.5
570.6804, 335543.4
571.1625, 335348.3
571.6447, 335204.1
572.1268, 334972.9
572.6089, 334579.8
573.0910, 334188.1
573.5731, 333936.4
574.0552, 333754.3
574.5374, 333510.9
575.0195, 333092.2
575.5016, 332687.6
575.9837, 332389.0
576.4658, 332188.0
576.9479, 331916.4
577.4301, 331503.8
577.9122, 331108.1
578.3943, 330793.7
578.8764, 330571.0
579.3585, 330382.2
579.8406, 330225.1
580.3228, 330103.5
580.8049, 330026.5
581.2870, 329990.5
581.7691, 329974.7
582.2512, 329989.3
582.7333, 329977.8
583.2155, 329816.1
583.6975, 329547.6
584.1796, 329309.2
584.6617, 329131.4
585.1439, 329030.4
585.6260, 329064.6
586.1081, 329204.1
586.5902, 329306.7
587.0723, 329426.2
587.5544, 329395.6
588.0366, 329061.0
588.5187, 328310.9
589.0008, 327695.3
589.4829, 327377.7
589.9650, 327158.5
590.4471, 326899.5
590.9293, 326602.9
591.4114, 326259.4
591.8935, 325830.9
592.3756, 325398.4
592.8577, 325135.2
593.3398, 325056.6
593.8220, 324944.3
594.3041, 324738.1
594.7862, 324444.8
595.2683, 324024.3
595.7504, 323502.4
596.2325, 323043.8
596.7147, 322819.4
597.1968, 322681.9
597.6789, 322436.1
598.1610, 322067.0
598.6431, 321752.2
599.1252, 321659.8
599.6074, 321630.9
600.0895, 321537.9
600.5716, 321359.4
601.0537, 321116.6
601.5358, 320742.1
602.0179, 320335.4
602.5001, 320030.9
602.9822, 319892.4
603.4643, 319722.9
603.9464, 319446.8
604.4285, 319127.9
604.9106, 319007.0
605.3928, 319105.3
605.8749, 319182.4
606.3570, 319084.1
606.8391, 318871.7
607.3212, 318782.3
607.8033, 318808.0
608.2855, 318781.8
608.7676, 318546.8
609.2497, 318195.8
609.7318, 317833.8
610.2139, 317462.2
610.6960, 317139.4
611.1782, 316914.6
611.6603, 316748.2
612.1424, 316595.9
612.6245, 316493.9
613.1066, 316354.7
613.5887, 316174.2
614.0709, 315950.3
614.5530, 315660.4
615.0351, 315274.3
615.5172, 314900.3
615.9993, 314557.0
616.4814, 314250.7
616.9636, 314031.7
617.4457, 313915.0
617.9278, 313751.1
618.4099, 313397.3
618.8920, 312932.9
619.3741, 312562.1
619.8563, 312290.1
620.3384, 312067.9
620.8205, 311892.1
621.3026, 311723.3
621.7847, 311510.2
622.2668, 311223.9
622.7490, 310928.8
623.2311, 310620.2
623.7132, 310325.8
624.1953, 310082.1
624.6774, 309909.8
625.1595, 309773.7
625.6417, 309705.8
626.1238, 309665.4
626.6059, 309542.1
627.0880, 309333.0
627.5701, 309048.4
628.0522, 308639.1
628.5344, 308161.1
629.0165, 307926.9
629.4986, 307942.1
629.9807, 307984.2
630.4628, 307893.3
630.9449, 307718.6
631.4271, 307534.3
631.9092, 307342.4
632.3913, 307181.2
632.8734, 307160.0
633.3555, 307140.1
633.8376, 306956.7
634.3198, 306443.8
634.8019, 306021.1
635.2840, 305838.5
635.7661, 305792.6
636.2482, 305746.4
636.7303, 305824.5
637.2125, 305674.1
637.6946, 305154.1
638.1767, 304414.8
638.6588, 303879.1
639.1409, 303567.3
639.6230, 303312.3
640.1052, 303076.3
640.5873, 302840.7
641.0694, 302527.3
641.5515, 302146.1
642.0336, 301792.9
642.5157, 301581.3
642.9979, 301413.6
643.4800, 301144.3
643.9621, 300753.6
644.4442, 300466.8
644.9263, 300489.8
645.4084, 300602.2
645.8906, 300623.3
646.3727, 300458.4
646.8548, 300309.3
647.3369, 300154.5
647.8190, 300028.2
648.3011, 299983.8
648.7833, 300048.0
649.2654, 300081.0
649.7475, 300067.4
650.2296, 299992.9
650.7117, 299794.7
651.1938, 299482.5
651.6760, 299211.7
652.1581, 299055.0
652.6402, 298968.5
653.1223, 298939.1
653.6044, 298940.8
654.0865, 298852.2
654.5687, 298501.2
655.0508, 298128.3
655.5329, 297915.2
656.0150, 297883.7
656.4971, 297794.6
656.9792, 297493.9
657.4614, 297204.2
657.9435, 297058.7
658.4256, 297120.1
658.9077, 297098.3
659.3898, 296979.8
659.8719, 296795.5
660.3541, 296557.2
660.8362, 296266.7
661.3183, 296004.4
661.8004, 295793.9
662.2825, 295587.4
662.7646, 295299.2
663.2468, 294967.8
663.7289, 294691.1
664.2110, 294559.0
664.6931, 294430.2
665.1752, 294183.4
665.6573, 293870.1
666.1395, 293602.1
666.6216, 293502.6
667.1037, 293366.9
667.5858, 293051.4
668.0679, 292605.2
668.5500, 292417.7
669.0322, 292649.7
669.5143, 292815.1
669.9964, 292655.8
670.4785, 292196.4
670.9606, 291872.5
671.4427, 291688.7
671.9249, 291555.8
672.4070, 291385.6
672.8891, 291210.7
673.3712, 291133.8
673.8533, 291174.3
674.3354, 291174.1
674.8176, 290979.5
675.2997, 290703.3
675.7818, 290465.5
676.2639, 290300.0
676.7460, 290160.0
677.2281, 290088.6
677.7103, 290021.1
678.1924, 289879.3
678.6745, 289648.3
679.1566, 289376.9
679.6387, 289038.7
680.1208, 288693.6
680.6030, 288461.3
681.0851, 288343.7
681.5672, 288310.4
682.0493, 288419.1
682.5314, 288536.6
683.0135, 288415.4
683.4957, 288091.0
683.9778, 287714.0
684.4599, 287301.6
684.9420, 286913.6
685.4241, 286557.8
685.9063, 286244.8
686.3884, 286042.7
686.8705, 286114.3
687.3526, 286178.8
687.8347, 286102.5
688.3168, 285862.4
688.7990, 285687.2
689.2811, 285611.9
689.7632, 285529.1
690.2453, 285335.4
690.7274, 285041.5
691.2095, 284795.5
691.6917, 284608.6
692.1738, 284457.2
692.6559, 284358.5
693.1380, 284269.1
693.6201, 284100.6
694.1022, 283789.9
694.5844, 283508.0
695.0665, 283391.5
695.5486, 283345.2
696.0307, 283247.7
696.5128, 283012.8
696.9949, 282801.4
697.4771, 282646.0
697.9592, 282515.7
698.4413, 282345.6
698.9234, 282119.7
699.4055, 281934.1
699.8876, 281846.4
700.3698, 281787.6
700.8519, 281561.3
701.3340, 281190.8
701.8161, 280825.4
702.2982, 280540.1
702.7803, 280307.1
703.2625, 280098.1
703.7446, 279915.8
704.2267, 279771.6
704.7088, 279740.4
705.1909, 279687.2
705.6730, 279506.4
706.1552, 279175.6
706.6373, 278984.9
707.1194, 278995.0
707.6015, 279058.3
708.0836, 279117.1
708.5657, 279172.5
709.0479, 279085.8
709.5300, 278826.8
710.0121, 278572.2
710.4942, 278525.9
710.9763, 278594.7
711.4584, 278558.3
711.9406, 278378.2
712.4227, 278155.4
712.9048, 277939.3
713.3869, 277729.7
713.8690, 277534.7
714.3511, 277419.4
714.8333, 277215.8
715.3154, 276840.5
715.7975, 276403.8
716.2796, 276016.8
716.7617, 275706.6
717.2438, 275409.8
717.7260, 275140.0
718.2081, 274867.6
718.6902, 274520.3
719.1723, 274111.4
719.6544, 273754.3
720.1365, 273485.8
720.6187, 273280.1
721.1008, 273109.3
721.5829, 272972.8
722.0650, 272867.9
722.5471, 272775.8
723.0292, 272724.8
723.5114, 272786.9
723.9935, 272909.7
724.4756, 272875.4
724.9577, 272579.7
725.4398, 272271.0
725.9219, 271996.2
726.4041, 271767.0
726.8862, 271683.5
727.3683, 271760.4
727.8504, 271823.3
728.3325, 271799.0
728.8146, 271688.7
729.2968, 271451.4
729.7789, 271105.3
730.2610, 270794.3
730.7431, 270690.9
731.2252, 270597.6
731.7073, 270308.4
732.1895, 269776.8
732.6716, 269445.1
733.1537, 269586.9
733.6358, 269767.2
734.1179, 269776.6
734.6000, 269587.9
735.0822, 269341.6
735.5643, 269018.8
736.0464, 268687.9
736.5285, 268388.7
737.0106, 268131.2
737.4927, 267980.6
737.9749, 267956.7
738.4570, 267927.7
738.9391, 267780.3
739.4212, 267571.3
739.9033, 267386.8
740.3854, 267329.4
740.8676, 267103.4
741.3497, 266375.4
741.8318, 265587.2
742.3139, 265199.8
742.7960, 265427.6
743.2781, 265511.2
743.7603, 265347.6
744.2424, 265108.8
744.7245, 265050.7
745.2066, 265149.8
745.6887, 265254.3
746.1708, 265349.3
746.6530, 265365.0
747.1351, 265130.6
747.6172, 264773.9
748.0993, 264525.5
748.5814, 264603.0
749.0635, 264646.8
749.5457, 264526.9
750.0278, 264291.1
750.5099, 264044.9
750.9920, 263777.9
751.4741, 263543.3
751.9562, 263389.6
752.4384, 263253.9
752.9205, 262942.3
753.4026, 262461.6
753.8847, 262029.0
754.3668, 261724.5
754.8489, 261523.6
755.3311, 261487.6
755.8132, 261535.8
756.2953, 261432.9
756.7774, 260856.0
757.2595, 260308.6
757.7416, 260067.6
758.2238, 260084.9
758.7059, 260025.6
759.1880, 259819.1
759.6701, 259623.2
760.1522, 259499.2
760.6343, 259422.8
761.1165, 259222.4
761.5986, 258889.3
762.0807, 258623.1
762.5628, 258587.0
763.0449, 258663.4
763.5270, 258690.0
764.0092, 258657.0
764.4913, 258516.5
764.9734, 258083.0
765.4555, 257669.9
765.9376, 257522.7
766.4197, 257649.5
766.9019, 257632.3
767.3840, 257357.9
767.8661, 257075.6
768.3482, 256916.1
768.8303, 256869.6
769.3124, 256674.5
769.7946, 256320.0
770.2767, 255979.8
770.7588, 255772.1
771.2409, 255663.9
771.7230, 255631.2
772.2051, 255664.9
772.6873, 255649.0
773.1694, 255475.3
773.6515, 255255.3
774.1336, 255069.5
774.6157, 254938.3
775.0978, 254736.7
775.5800, 254401.1
776.0621, 254073.5
776.5442, 253841.3
777.0263, 253707.3
777.5084, 253571.9
777.9905, 253433.3
778.4727, 253299.6
778.9548, 253166.3
779.4369, 253047.4
779.9190, 253005.0
780.4011, 253053.7
780.8832, 253004.6
781.3654, 252632.8
781.8475, 252210.1
782.3296, 251964.0
782.8117, 252035.2
783.2938, 251915.2
783.7759, 251469.9
784.2581, 251026.8
784.7402, 250878.8
785.2223, 251028.0
785.7044, 251063.5
786.1865, 250966.5
786.6686, 250778.6
787.1508, 250432.2
787.6329, 250056.1
788.1150, 249882.1
788.5971, 249976.7
789.0792, 250025.2
789.5613, 249772.9
790.0435, 249470.8
790.5256, 249338.2
791.0077, 249495.2
791.4898, 249509.9
791.9719, 249330.9
792.4540, 249090.5
792.9362, 248919.6
793.4183, 248808.7
793.9004, 248671.3
794.3825, 248504.1
794.8646, 248292.3
795.3467, 247984.3
795.8289, 247639.3
796.3110, 247338.3
796.7931, 247096.1
797.2752, 246889.8
797.7573, 246722.2
798.2394, 246582.5
798.7216, 246466.3
799.2037, 246402.1
799.6858, 246280.0
800.1679, 246087.1
800.6500, 245861.4
801.1321, 245635.3
801.6143, 245403.5
802.0964, 245114.3
802.5785, 244747.6
803.0606, 244448.4
803.5427, 244402.4
804.0248, 244465.5
804.5070, 244487.1
804.9891, 244443.0
805.4712, 244343.9
805.9533, 244191.1
806.4354, 243984.1
806.9175, 243706.7
807.3997, 243329.3
807.8818, 243024.0
808.3639, 242807.2
808.8460, 242638.6
809.3281, 242499.5
809.8102, 242376.3
810.2924, 242241.0
810.7745, 242094.5
811.2566, 241896.9
811.7387, 241510.4
812.2208, 241128.6
812.7029, 240950.0
813.1851, 241125.2
813.6672, 241161.3
814.1493, 240967.3
814.6314, 240707.5
815.1135, 240501.5
815.5956, 240347.2
816.0778, 240236.4
816.5599, 240171.5
817.0420, 240113.0
817.5241, 240008.6
818.0062, 239891.2
818.4883, 239827.8
818.9705, 239837.9
819.4526, 239801.0
819.9347, 239601.1
820.4168, 239376.1
820.8989, 239245.7
821.3810, 239265.7
821.8632, 239156.3
822.3453, 238874.9
822.8274, 238556.7
823.3095, 238325.0
823.7916, 238157.6
824.2737, 237939.3
824.7559, 237663.3
825.2380, 237401.3
825.7201, 237215.0
826.2022, 237072.2
826.6843, 236966.8
827.1664, 236909.2
827.6486, 236780.5
828.1307, 236427.4
828.6128, 236117.3
829.0949, 236017.8
829.5770, 236156.2
830.0591, 236062.5
830.5413, 235699.7
831.0234, 235331.6
831.5055, 235162.7
831.9876, 235122.9
832.4697, 235097.0
832.9518, 235074.9
833.4340, 235013.5
833.9161, 234836.7
834.3982, 234651.6
834.8803, 234559.4
835.3624, 234575.0
835.8445, 234420.2
836.3267, 234001.6
836.8088, 233599.3
837.2909, 233376.8
837.7730, 233294.0
838.2551, 233074.5
838.7372, 232731.9
839.2194, 232449.5
839.7015, 232404.3
840.1836, 232438.1
840.6657, 232402.0
841.1478, 232303.2
841.6299, 232209.0
842.1121, 232187.0
842.5942, 232120.0
843.0763, 231948.2
843.5584, 231693.6
844.0405, 231481.8
844.5226, 231308.7
845.0048, 231184.5
845.4869, 231153.2
845.9690, 231133.0
846.4511, 230916.3
846.9332, 230564.7
847.4153, 230289.3
847.8975, 230271.5
848.3796, 230271.8
848.8617, 230188.8
849.3438, 230030.8
849.8259, 229839.1
850.3080, 229592.2
850.7902, 229372.6
851.2723, 229215.7
851.7544, 229087.5
852.2365, 228902.2
852.7186, 228673.3
853.2007, 228465.3
853.6829, 228298.9
854.1650, 228173.5
854.6471, 228131.0
855.1292, 228117.6
855.6113, 228042.2
856.0934, 227840.6
856.5756, 227619.9
857.0577, 227343.7
857.5398, 227091.0
858.0219, 227002.2
858.5040, 227088.7
858.9861, 227080.8
859.4683, 226916.9
859.9504, 226701.1
860.4325, 226556.4
860.9146, 226451.4
861.3967, 226336.3
861.8788, 226193.6
862.3610, 226051.6
862.8431, 225891.9
863.3252, 225758.6
863.8073, 225711.4
864.2894, 225839.2
864.7715, 225752.1
865.2537, 225392.1
865.7358, 224993.9
866.2179, 224835.4
866.7000, 224820.5
867.1821, 224660.1
867.6642, 224319.8
868.1464, 223992.5
868.6285, 223801.6
869.1106, 223677.5
869.5927, 223567.8
870.0748, 223465.8
870.5569, 223393.6
871.0391, 223374.1
871.5212, 223334.9
872.0033, 223191.2
872.4854, 222971.3
872.9675, 222971.8
873.4496, 223170.8
873.9318, 223279.8
874.4139, 222956.7
874.8960, 222561.9
875.3781, 222477.4
875.8602, 222658.5
876.3423, 222676.8
876.8245, 222284.8
877.3066, 221884.8
877.7887, 221577.1
878.2708, 221347.1
878.7529, 221142.0
879.2350, 220965.5
879.7172, 220776.2
880.1993, 220559.1
880.6814, 220329.7
881.1635, 220117.3
881.6456, 219910.5
882.1277, 219679.5
882.6099, 219341.4
883.0920, 219068.0
883.5741, 218966.0
884.0562, 218931.1
884.5383, 218777.1
885.0204, 218476.1
885.5026, 218234.6
885.9847, 218095.9
886.4668, 218005.4
886.9489, 217896.3
887.4310, 217776.4
887.9131, 217664.9
888.3953, 217568.3
888.8774, 217472.9
889.3595, 217351.7
889.8416, 217240.7
890.3237, 217183.1
890.8058, 217230.7
891.2880, 217161.2
891.7701, 216942.6
892.2522, 216702.9
892.7343, 216571.1
893.2164, 216506.9
893.6985, 216401.0
894.1807, 216246.2
894.6628, 216081.7
895.1449, 215911.7
895.6270, 215759.3
896.1091, 215644.0
896.5912, 215570.0
897.0734, 215491.9
897.5555, 215426.2
898.0376, 215312.6
898.5197, 215098.5
899.0018, 214821.6
899.4839, 214614.2
899.9661, 214473.5
900.4482, 214383.3
900.9303, 214413.3
901.4124, 214418.3
901.8945, 214301.9
902.3766, 214084.6
902.8588, 213823.6
903.3409, 213479.9
903.8230, 213192.5
904.3051, 212985.1
904.7872, 212847.3
905.2693, 212778.1
905.7515, 212763.9
906.2336, 212721.3
906.7157, 212620.3
907.1978, 212497.9
907.6799, 212402.7
908.1620, 212295.3
908.6442, 212125.4
909.1263, 211845.5
909.6084, 211563.9
910.0905, 211271.5
910.5726, 210999.4
911.0547, 210756.3
911.5369, 210549.5
912.0190, 210470.0
912.5011, 210530.3
912.9832, 210552.8
913.4653, 210343.7
913.9474, 210060.8
914.4296, 209839.5
914.9117, 209693.6
915.3938, 209605.7
915.8759, 209654.3
916.3580, 209633.6
916.8401, 209407.8
917.3223, 209036.7
917.8044, 208942.2
918.2865, 209101.8
918.7686, 209161.5
919.2507, 208792.7
919.7328, 208356.5
920.2150, 208279.7
920.6971, 208414.6
921.1792, 208391.8
921.6613, 207958.3
922.1434, 207560.1
922.6255, 207227.5
923.1077, 206992.6
923.5898, 206955.0
924.0719, 207102.2
924.5540, 207203.5
925.0361, 207218.3
925.5182, 207150.9
926.0004, 206946.8
926.4825, 206688.5
926.9646, 206471.2
927.4467, 206313.9
927.9288, 206189.3
928.4109, 206107.7
928.8931, 206031.4
929.3752, 205948.6
929.8573, 205859.1
930.3394, 205700.5
930.8215, 205475.7
931.3036, 205206.0
931.7858, 204866.0
932.2679, 204525.5
932.7500, 204239.8
933.2321, 204018.5
933.7142, 203853.1
934.1964, 203823.3
934.6785, 203747.3
935.1606, 203558.4
935.6427, 203305.7
936.1248, 203151.5
936.6069, 203084.2
937.0891, 202997.1
937.5712, 202853.6
938.0533, 202666.8
938.5354, 202381.0
939.0175, 202079.4
939.4996, 201890.7
939.9818, 201976.1
940.4639, 201969.2
940.9460, 201814.7
941.4281, 201620.7
941.9102, 201495.4
942.3923, 201433.6
942.8745, 201410.4
943.3566, 201427.4
943.8387, 201381.6
944.3208, 201087.4
944.8029, 200771.2
945.2850, 200654.4
945.7672, 200764.4
946.2493, 200803.8
946.7314, 200744.4
947.2135, 200623.3
947.6956, 200432.0
948.1777, 200199.0
948.6599, 200042.7
949.1420, 199951.7
949.6241, 199863.8
950.1062, 199729.4
950.5883, 199613.1
951.0704, 199616.9
951.5526, 199657.4
952.0347, 199565.3
952.5168, 199216.5
952.9989, 198971.7
953.4810, 198882.3
953.9631, 198853.3
954.4453, 198782.8
954.9274, 198673.5
955.4095, 198528.0
955.8916, 198345.7
956.3737, 198157.0
956.8558, 197951.4
957.3380, 197769.5
957.8201, 197658.5
958.3022, 197625.0
958.7843, 197518.9
959.2664, 197308.8
959.7485, 197121.9
960.2307, 197060.1
960.7128, 197037.6
961.1949, 196822.3
961.6770, 196462.3
962.1591, 196132.1
962.6412, 195917.6
963.1234, 195744.2
963.6055, 195569.3
964.0876, 195426.8
964.5697, 195406.0
965.0518, 195583.5
965.5339, 195511.2
966.0161, 195089.8
966.4982, 194580.3
966.9803, 194220.2
967.4624, 194009.8
967.9445, 194014.8
968.4266, 194280.5
968.9088, 194425.6
969.3909, 194172.5
969.8730, 193883.8
970.3551, 193746.3
970.8372, 193750.8
971.3193, 193741.5
971.8015, 193716.6
972.2836, 193666.3
972.7657, 193583.3
973.2478, 193472.6
973.7299, 193317.8
974.2120, 193140.5
974.6942, 192993.3
975.1763, 192925.0
975.6584, 192843.9
976.1405, 192720.1
976.6226, 192599.5
977.1047, 192580.1
977.5869, 192645.4
978.0690, 192588.0
978.5511, 192367.7
979.0332, 192141.3
979.5153, 192075.5
979.9974, 192040.6
980.4796, 191910.0
980.9617, 191656.2
981.4438, 191408.2
981.9259, 191129.2
982.4080, 190944.2
982.8901, 190950.6
983.3723, 191070.6
983.8544, 191083.0
984.3365, 190992.4
984.8186, 190819.1
985.3007, 190432.4
985.7828, 190117.5
986.2650, 190081.9
986.7471, 190176.5
987.2292, 190146.1
987.7113, 189955.3
988.1934, 189744.9
988.6755, 189514.8
989.1577, 189304.2
989.6398, 189163.9
990.1219, 189071.7
990.6040, 189020.8
991.0861, 189011.8
991.5682, 188920.4
992.0504, 188625.2
992.5325, 188314.4
993.0146, 188085.1
993.4967, 187802.1
993.9788, 187667.0
994.4609, 187330.3
994.9431, 187043.0
995.4252, 186883.8
995.9073, 186767.5
996.3894, 186600.6
996.8715, 186412.3
997.3536, 186245.7
997.8358, 186104.8
998.3179, 186007.6
998.8000, 185979.3
999.2821, 185950.7
999.7642, 185816.5
1000.246, 185609.1
1000.728, 185563.6
1001.211, 185679.5
1001.693, 185727.6
1002.175, 185440.5
1002.657, 185134.1
1003.139, 185047.6
1003.621, 185147.5
1004.103, 185137.0
1004.585, 184982.3
1005.068, 184847.7
1005.550, 184788.8
1006.032, 184751.4
1006.514, 184625.6
1006.996, 184460.2
1007.478, 184361.6
1007.960, 184413.0
1008.442, 184401.2
1008.924, 184194.8
1009.407, 183958.4
1009.889, 183801.0
1010.371, 183726.9
1010.853, 183623.6
1011.335, 183489.5
1011.817, 183346.6
1012.299, 183210.5
1012.781, 183069.9
1013.263, 182882.5
1013.746, 182677.9
1014.228, 182559.9
1014.710, 182597.9
1015.192, 182628.0
1015.674, 182649.9
1016.156, 182615.4
1016.638, 182408.0
1017.120, 182084.1
1017.603, 181813.7
1018.085, 181622.5
1018.567, 181489.9
1019.049, 181478.4
1019.531, 181453.8
1020.013, 181298.6
1020.495, 181019.5
1020.977, 180851.8
1021.459, 180814.6
1021.942, 180711.6
1022.424, 180404.5
1022.906, 180037.2
1023.388, 179798.5
1023.870, 179648.2
1024.352, 179507.0
1024.834, 179352.1
1025.316, 179207.4
1025.799, 179064.1
1026.281, 178950.8
1026.763, 178914.5
1027.245, 178942.4
1027.727, 178962.0
1028.209, 178965.9
1028.691, 178875.6
1029.173, 178522.9
1029.656, 178158.1
1030.138, 177927.9
1030.620, 177836.3
1031.102, 177867.7
1031.584, 178069.3
1032.066, 178192.8
1032.548, 178173.0
1033.030, 178052.4
1033.512, 177807.5
1033.995, 177533.3
1034.477, 177431.6
1034.959, 177628.4
1035.441, 177682.5
1035.923, 177366.6
1036.405, 177018.5
1036.887, 176830.0
1037.369, 176777.9
1037.851, 176637.1
1038.334, 176415.7
1038.816, 176154.3
1039.298, 175851.8
1039.780, 175546.5
1040.262, 175216.5
1040.744, 174915.2
1041.226, 174757.7
1041.708, 174835.6
1042.191, 174767.4
1042.673, 174487.3
1043.155, 174205.4
1043.637, 174187.3
1044.119, 174293.3
1044.601, 174262.8
1045.083, 174082.2
1045.565, 173951.4
1046.047, 174068.1
1046.530, 174083.3
1047.012, 173852.9
1047.494, 173469.3
1047.976, 173159.4
1048.458, 172923.3
1048.940, 172814.3
1049.422, 172893.2
1049.904, 172944.5
1050.386, 172735.9
1050.869, 172459.5
1051.351, 172320.8
1051.833, 172354.5
1052.315, 172360.2
1052.797, 172331.7
1053.279, 172301.0
1053.761, 172307.1
1054.243, 172306.6
1054.726, 172201.8
1055.208, 172028.5
1055.690, 171882.6
1056.172, 171899.9
1056.654, 171792.2
1057.136, 171448.8
1057.618, 171066.8
1058.100, 170906.8
1058.583, 170928.9
1059.065, 170877.6
1059.547, 170734.2
1060.029, 170525.4
1060.511, 170198.5
1060.993, 169886.2
1061.475, 169669.0
1061.957, 169541.2
1062.439, 169477.1
1062.922, 169487.1
1063.404, 169513.4
1063.886, 169563.1
1064.368, 169558.0
1064.850, 169368.3
1065.332, 169078.8
1065.814, 168782.3
1066.296, 168471.3
1066.778, 168295.3
1067.261, 168350.4
1067.743, 168373.0
1068.225, 168180.4
1068.707, 167876.2
1069.189, 167852.1
1069.671, 168033.2
1070.153, 168151.6
1070.635, 168077.0
1071.118, 167933.1
1071.600, 167743.0
1072.082, 167525.8
1072.564, 167267.3
1073.046, 166951.2
1073.528, 166865.9
1074.010, 167027.2
1074.492, 167179.9
1074.974, 167088.1
1075.457, 166931.3
1075.939, 166855.9
1076.421, 166852.6
1076.903, 166866.9
1077.385, 166930.6
1077.867, 166904.4
1078.349, 166749.5
1078.831, 166541.6
1079.313, 166354.9
1079.796, 166196.6
1080.278, 166089.6
1080.760, 166038.3
1081.242, 165985.5
1081.724, 165939.0
1082.206, 165851.0
1082.688, 165689.0
1083.170, 165483.0
1083.652, 165345.2
1084.135, 165257.7
1084.617, 165128.7
1085.099, 164909.9
1085.581, 164697.0
1086.063, 164561.7
1086.545, 164456.2
1087.027, 164334.7
1087.509, 164198.9
1087.992, 164055.0
1088.474, 163903.4
1088.956, 163766.0
1089.438, 163630.3
1089.920, 163537.9
1090.402, 163577.8
1090.884, 163681.8
1091.366, 163702.5
1091.849, 163555.0
1092.331, 163435.4
1092.813, 163356.3
1093.295, 163281.2
1093.777, 163170.9
1094.259, 163037.3
1094.741, 162909.8
1095.223, 162785.9
1095.705, 162637.5
1096.188, 162415.8
1096.670, 162223.3
1097.152, 162087.0
1097.634, 161998.2
1098.116, 161985.0
1098.598, 162017.2
1099.080, 161884.3
1099.562, 161538.0
1100.044, 161215.9
1100.527, 161065.4
1101.009, 161004.3
1101.491, 161017.8
1101.973, 161076.8
1102.455, 161004.6
1102.937, 160795.4
1103.419, 160578.7
1103.901, 160380.0
1104.384, 160233.9
1104.866, 160199.6
1105.348, 160227.2
1105.830, 160269.0
1106.312, 160333.3
1106.794, 160328.3
1107.276, 160239.3
1107.758, 160125.4
1108.240, 160010.8
1108.723, 159899.8
1109.205, 159816.5
1109.687, 159737.8
1110.169, 159610.5
1110.651, 159334.0
1111.133, 159139.3
1111.615, 159074.2
1112.097, 159041.1
1112.579, 158964.6
1113.062, 158846.4
1113.544, 158667.1
1114.026, 158439.3
1114.508, 158249.2
1114.990, 158188.2
1115.472, 158116.0
1115.954, 157969.1
1116.436, 157794.0
1116.919, 157648.6
1117.401, 157532.6
1117.883, 157492.3
1118.365, 157534.5
1118.847, 157568.7
1119.329, 157523.6
1119.811, 157447.6
1120.293, 157363.2
1120.776, 157274.8
1121.258, 157205.9
1121.740, 157162.9
1122.222, 157072.3
1122.704, 156916.2
1123.186, 156710.1
1123.668, 156430.8
1124.150, 156131.4
1124.632, 155854.2
1125.115, 155604.1
1125.597, 155463.7
1126.079, 155469.9
1126.561, 155469.7
1127.043, 155395.0
1127.525, 155297.5
1128.007, 155272.8
1128.489, 155282.9
1128.971, 155267.2
1129.454, 155223.3
1129.936, 155109.4
1130.418, 154890.5
1130.900, 154666.7
1131.382, 154481.4
1131.864, 154340.0
1132.346, 154268.6
1132.828, 154252.1
1133.311, 154245.3
1133.793, 154248.1
1134.275, 154229.9
1134.757, 154201.5
1135.239, 154129.3
1135.721, 153958.4
1136.203, 153706.8
1136.685, 153523.0
1137.167, 153400.4
1137.650, 153266.7
1138.132, 153074.2
1138.614, 152868.3
1139.096, 152633.2
1139.578, 152416.9
1140.060, 152299.4
1140.542, 152281.0
1141.024, 152277.0
1141.506, 152281.8
1141.989, 152242.6
1142.471, 152045.8
1142.953, 151860.6
1143.435, 151858.0
1143.917, 151964.3
1144.399, 151910.9
1144.881, 151673.6
1145.363, 151469.9
1145.846, 151345.8
1146.328, 151229.2
1146.810, 150996.7
1147.292, 150777.5
1147.774, 150725.6
1148.256, 150847.5
1148.738, 150900.3
1149.220, 150884.5
1149.703, 150765.3
1150.185, 150494.8
1150.667, 150224.2
1151.149, 150170.7
1151.631, 150230.7
1152.113, 150278.7
1152.595, 150300.1
1153.077, 150234.0
1153.559, 150041.7
1154.042, 149856.2
1154.524, 149726.0
1155.006, 149637.7
1155.488, 149582.8
1155.970, 149546.9
1156.452, 149512.1
1156.934, 149496.3
1157.416, 149401.0
1157.898, 149184.7
1158.381, 148956.3
1158.863, 148776.0
1159.345, 148628.0
1159.827, 148472.6
1160.309, 148313.9
1160.791, 148164.5
1161.273, 148058.2
1161.755, 147911.7
1162.238, 147660.6
1162.720, 147438.1
1163.202, 147380.6
1163.684, 147442.6
1164.166, 147352.0
1164.648, 147144.0
1165.130, 146974.3
1165.612, 146927.4
1166.094, 146918.1
1166.577, 146952.8
1167.059, 146975.7
1167.541, 146922.0
1168.023, 146797.4
1168.505, 146679.1
1168.987, 146566.1
1169.469, 146449.3
1169.951, 146318.7
1170.433, 146185.4
1170.916, 146043.5
1171.398, 145907.6
1171.880, 145791.8
1172.362, 145698.0
1172.844, 145683.1
1173.326, 145749.5
1173.808, 145742.1
1174.290, 145463.1
1174.773, 145175.9
1175.255, 145054.4
1175.737, 145028.1
1176.219, 144980.0
1176.701, 144910.8
1177.183, 144791.3
1177.665, 144615.2
1178.147, 144420.3
1178.630, 144209.0
1179.112, 144014.7
1179.594, 143860.7
1180.076, 143741.9
1180.558, 143634.6
1181.040, 143534.6
1181.522, 143514.6
1182.004, 143603.1
1182.486, 143659.9
1182.969, 143507.8
1183.451, 143311.5
1183.933, 143213.0
1184.415, 143199.5
1184.897, 143158.3
1185.379, 143091.8
1185.861, 142935.1
1186.343, 142643.7
1186.825, 142383.8
1187.308, 142374.6
1187.790, 142438.8
1188.272, 142433.1
1188.754, 142345.4
1189.236, 142093.8
1189.718, 141653.3
1190.200, 141326.2
1190.682, 141222.1
1191.165, 141235.7
1191.647, 141355.9
1192.129, 141470.0
1192.611, 141431.2
1193.093, 141215.7
1193.575, 141047.5
1194.057, 140922.7
1194.539, 140864.5
1195.021, 140911.3
1195.504, 140960.2
1195.986, 140879.8
1196.468, 140737.7
1196.950, 140617.3
1197.432, 140525.9
1197.914, 140461.9
1198.396, 140434.8
1198.878, 140360.1
1199.360, 140171.1
1199.843, 139958.6
1200.325, 139844.0
1200.807, 139771.3
1201.289, 139660.7
1201.771, 139499.5
1202.253, 139330.3
1202.735, 139150.8
1203.217, 138989.3
1203.700, 138848.4
1204.182, 138754.7
1204.664, 138807.3
1205.146, 138901.8
1205.628, 138845.0
1206.110, 138520.1
1206.592, 138410.6
1207.074, 138550.3
1207.557, 138670.2
1208.039, 138545.9
1208.521, 138359.1
1209.003, 138323.3
1209.485, 138364.2
1209.967, 138339.4
1210.449, 138171.5
1210.931, 138156.0
1211.413, 138327.8
1211.896, 138423.7
1212.378, 138186.7
1212.860, 137845.5
1213.342, 137620.4
1213.824, 137482.4
1214.306, 137381.3
1214.788, 137328.6
1215.270, 137254.0
1215.752, 137156.6
1216.235, 137039.9
1216.717, 136897.3
1217.199, 136743.8
1217.681, 136588.1
1218.163, 136434.3
1218.645, 136293.1
1219.127, 136157.8
1219.609, 136076.0
1220.092, 136057.2
1220.574, 136016.0
1221.056, 135883.6
1221.538, 135699.1
1222.020, 135416.0
1222.502, 135131.8
1222.984, 135076.4
1223.466, 135333.2
1223.948, 135407.9
1224.431, 135259.7
1224.913, 135081.0
1225.395, 135070.8
1225.877, 135053.2
1226.359, 134824.9
1226.841, 134489.3
1227.323, 134319.5
1227.805, 134353.1
1228.287, 134280.5
1228.770, 134073.3
1229.252, 133894.1
1229.734, 133907.2
1230.216, 133963.8
1230.698, 133983.3
1231.180, 133951.8
1231.662, 133834.1
1232.144, 133615.6
1232.627, 133515.9
1233.109, 133556.1
1233.591, 133564.1
1234.073, 133355.1
1234.555, 133126.7
1235.037, 133027.1
1235.519, 132991.8
1236.001, 132893.1
1236.484, 132733.0
1236.966, 132595.3
1237.448, 132488.8
1237.930, 132367.2
1238.412, 132140.3
1238.894, 131951.6
1239.376, 131946.6
1239.858, 131757.6
1240.340, 131865.1
1240.823, 131574.6
1241.305, 131404.5
1241.787, 131379.5
1242.269, 131387.4
1242.751, 131405.9
1243.233, 131387.7
1243.715, 131320.8
1244.197, 131203.0
1244.679, 130964.7
1245.162, 130657.1
1245.644, 130607.1
1246.126, 130827.0
1246.608, 131021.8
1247.090, 131035.9
1247.572, 130995.0
1248.054, 130934.5
1248.536, 130856.2
1249.019, 130748.5
1249.501, 130626.8
1249.983, 130543.6
1250.465, 130500.6
1250.947, 130469.4
1251.429, 130542.9
1251.911, 130447.4
1252.393, 130040.4
1252.875, 129604.7
1253.358, 129606.4
1253.840, 129842.0
1254.322, 129822.3
1254.804, 129542.5
1255.286, 129336.1
1255.768, 129366.5
1256.250, 129363.6
1256.732, 129293.2
1257.214, 129168.8
1257.697, 128965.6
1258.179, 128742.9
1258.661, 128611.6
1259.143, 128562.7
1259.625, 128486.0
1260.107, 128349.9
1260.589, 128235.0
1261.071, 128155.4
1261.554, 128089.7
1262.036, 128021.3
1262.518, 127949.1
1263.000, 127874.8
1263.482, 127793.6
1263.964, 127682.5
1264.446, 127522.3
1264.928, 127407.0
1265.411, 127348.3
1265.893, 127331.5
1266.375, 127392.0
1266.857, 127443.4
1267.339, 127397.0
1267.821, 127369.0
1268.303, 127285.6
1268.785, 127153.0
1269.267, 127018.4
1269.750, 126774.0
1270.232, 126544.3
1270.714, 126427.6
1271.196, 126349.1
1271.678, 126268.3
1272.160, 126193.8
1272.642, 126162.3
1273.124, 126166.2
1273.606, 126069.8
1274.089, 125870.5
1274.571, 125696.7
1275.053, 125675.1
1275.535, 125633.0
1276.017, 125496.8
1276.499, 125320.0
1276.981, 125157.2
1277.463, 125014.7
1277.946, 124934.6
1278.428, 124906.8
1278.910, 124841.0
1279.392, 124614.4
1279.874, 124476.4
1280.356, 124510.3
1280.838, 124558.9
1281.320, 124419.6
1281.802, 124178.8
1282.285, 124011.7
1282.767, 123910.3
1283.249, 123809.4
1283.731, 123672.2
1284.213, 123581.9
1284.695, 123558.5
1285.177, 123533.5
1285.659, 123427.2
1286.141, 123297.5
1286.624, 123234.4
1287.106, 123209.9
1287.588, 123126.0
1288.070, 122939.0
1288.552, 122874.8
1289.034, 122956.5
1289.516, 123029.2
1289.998, 122991.0
1290.481, 122878.8
1290.963, 122637.2
1291.445, 122382.8
1291.927, 122308.8
1292.409, 122425.6
1292.891, 122527.0
1293.373, 122607.4
1293.855, 122655.9
1294.338, 122682.4
1294.820, 122654.0
1295.302, 122514.2
1295.784, 122347.3
1296.266, 122230.8
1296.748, 122155.3
1297.230, 122013.7
1297.712, 121841.3
1298.194, 121767.8
1298.677, 121911.3
1299.159, 122009.8
1299.641, 122007.6
1300.123, 121979.6
1300.605, 122007.2
1301.087, 122028.6
1301.569, 121809.4
1302.051, 121451.8
1302.533, 121189.6
1303.016, 120986.4
##END=



