##NAMES=Wohlerite
##RRUFFID=R050275
##IDEAL CHEMISTRY=NaCa_2_(Zr^4+^,Nb^5+^)(Si_2_O_7_)(O,F)_2_
##LOCALITY= Langesundsfjord, Norway
##OWNER=RRUFF
##SOURCE=Marcus Origlieri
##DESCRIPTION=Yellowish brown granular
##STATUS=The identification of this mineral has been confirmed by X-ray diffraction.
##URL=rruff.info/R050275
98.94037, 0.0000000E+00
99.42249, 9.645874
99.90460, 15.38269
100.3867, 19.79382
100.8688, 28.58240
101.3510, 30.06885
101.8331, 23.86157
102.3152, 18.15247
102.7973, 14.07996
103.2794, 9.632446
103.7615, 5.344849
104.2437, 1.614136
104.7258, 1.492432
105.2079, 4.056885
105.6900, 6.410156
106.1721, 7.986694
106.6542, 7.576416
107.1364, 5.556152
107.6185, 2.078979
108.1006, 2.480225
108.5827, 8.250732
109.0648, 15.46436
109.5469, 24.37573
110.0291, 34.88354
110.5112, 45.18066
110.9933, 53.85645
111.4754, 63.55493
111.9575, 74.66333
112.4396, 87.31860
112.9218, 101.9421
113.4039, 119.1951
113.8860, 139.9126
114.3681, 159.0679
114.8502, 174.8870
115.3323, 190.4307
115.8144, 207.6851
116.2966, 227.0930
116.7787, 248.2361
117.2608, 271.3730
117.7429, 296.5923
118.2250, 320.8643
118.7071, 342.1843
119.1893, 362.0815
119.6714, 384.3132
120.1535, 410.2268
120.6356, 438.0352
121.1177, 465.3140
121.5998, 491.9519
122.0820, 519.1279
122.5641, 547.5762
123.0462, 577.3135
123.5283, 607.6960
124.0104, 639.1885
124.4925, 670.9043
124.9747, 702.1069
125.4568, 732.6382
125.9389, 763.2319
126.4210, 795.0466
126.9031, 827.9087
127.3852, 862.1023
127.8674, 898.2129
128.3495, 935.1023
128.8316, 972.2124
129.3137, 1009.064
129.7958, 1045.884
130.2780, 1082.760
130.7601, 1119.564
131.2422, 1156.923
131.7243, 1194.580
132.2064, 1232.732
132.6885, 1272.137
133.1707, 1313.173
133.6528, 1355.751
134.1349, 1397.177
134.6170, 1436.886
135.0991, 1476.300
135.5812, 1516.060
136.0633, 1556.057
136.5455, 1596.036
137.0276, 1635.380
137.5097, 1674.361
137.9918, 1714.245
138.4739, 1756.355
138.9560, 1798.634
139.4382, 1838.476
139.9203, 1875.316
140.4024, 1910.938
140.8845, 1946.361
141.3666, 1981.386
141.8487, 2016.294
142.3309, 2051.083
142.8130, 2085.548
143.2951, 2119.471
143.7772, 2153.117
144.2593, 2185.318
144.7414, 2216.346
145.2236, 2245.940
145.7057, 2273.777
146.1878, 2299.087
146.6699, 2321.632
147.1520, 2344.950
147.6341, 2371.322
148.1163, 2396.661
148.5984, 2419.561
149.0805, 2439.921
149.5626, 2458.536
150.0447, 2476.010
150.5268, 2491.840
151.0090, 2508.235
151.4911, 2527.271
151.9732, 2545.206
152.4553, 2559.956
152.9374, 2570.960
153.4195, 2578.834
153.9017, 2584.073
154.3838, 2583.820
154.8659, 2586.481
155.3480, 2595.690
155.8301, 2606.247
156.3122, 2613.028
156.7944, 2613.124
157.2765, 2608.828
157.7586, 2601.156
158.2407, 2589.819
158.7228, 2577.607
159.2049, 2565.525
159.6871, 2553.179
160.1692, 2539.701
160.6513, 2525.015
161.1334, 2508.860
161.6155, 2491.590
162.0976, 2473.623
162.5798, 2453.000
163.0619, 2427.836
163.5440, 2398.384
164.0261, 2368.101
164.5082, 2338.948
164.9903, 2308.792
165.4725, 2275.049
165.9546, 2237.232
166.4367, 2198.189
166.9188, 2162.268
167.4009, 2130.517
167.8830, 2096.961
168.3652, 2058.714
168.8473, 2018.918
169.3294, 1979.352
169.8115, 1940.538
170.2936, 1902.199
170.7757, 1863.383
171.2579, 1822.581
171.7400, 1784.419
172.2221, 1750.745
172.7042, 1718.801
173.1863, 1686.233
173.6684, 1651.993
174.1506, 1616.246
174.6327, 1579.559
175.1148, 1539.386
175.5969, 1500.917
176.0790, 1464.711
176.5611, 1430.422
177.0433, 1397.568
177.5254, 1366.014
178.0075, 1335.427
178.4896, 1304.128
178.9717, 1271.178
179.4538, 1238.751
179.9360, 1207.522
180.4181, 1177.273
180.9002, 1147.701
181.3823, 1118.933
181.8644, 1090.662
182.3465, 1061.902
182.8287, 1031.831
183.3108, 1002.219
183.7929, 973.9141
184.2750, 946.8503
184.7571, 920.2969
185.2392, 893.4648
185.7214, 867.1562
186.2035, 843.0261
186.6856, 822.8298
187.1677, 803.1926
187.6498, 781.0349
188.1319, 756.1763
188.6141, 731.5659
189.0962, 708.5322
189.5783, 686.8125
190.0604, 665.9929
190.5425, 646.2407
191.0246, 627.1084
191.5068, 607.8962
191.9889, 588.6030
192.4710, 569.1597
192.9531, 549.6370
193.4352, 530.0515
193.9173, 510.2488
194.3995, 490.0210
194.8816, 469.7349
195.3637, 449.9363
195.8458, 430.5681
196.3279, 412.0671
196.8100, 394.7959
197.2922, 378.1440
197.7743, 361.3989
198.2564, 344.0938
198.7385, 326.7017
199.2206, 310.9426
199.7027, 298.1753
200.1849, 285.5464
200.6670, 272.0576
201.1491, 258.3879
201.6312, 245.5264
202.1133, 234.3613
202.5954, 224.8811
203.0776, 215.7097
203.5597, 207.4146
204.0418, 198.6721
204.5239, 188.8884
205.0060, 178.3745
205.4881, 167.8047
205.9703, 157.6621
206.4524, 148.0024
206.9345, 139.3030
207.4166, 131.8071
207.8987, 125.1226
208.3808, 119.2759
208.8630, 114.1389
209.3451, 109.6797
209.8272, 106.0442
210.3093, 102.9905
210.7914, 98.70459
211.2735, 91.42383
211.7557, 84.86157
212.2378, 80.97656
212.7199, 79.16235
213.2020, 77.23657
213.6841, 73.66162
214.1662, 69.15234
214.6484, 66.59106
215.1305, 67.81763
215.6126, 68.92065
216.0947, 67.13770
216.5768, 62.80200
217.0589, 58.80347
217.5410, 56.95850
218.0232, 56.73291
218.5053, 56.18896
218.9874, 54.97192
219.4695, 54.06348
219.9516, 54.27612
220.4337, 55.50000
220.9159, 56.70190
221.3980, 57.48145
221.8801, 57.89966
222.3622, 58.01782
222.8443, 57.65601
223.3264, 57.64624
223.8086, 59.03467
224.2907, 61.90552
224.7728, 64.26123
225.2549, 64.64429
225.7370, 64.31641
226.2191, 64.55029
226.7013, 65.82739
227.1834, 67.37451
227.6655, 68.02002
228.1476, 67.51392
228.6297, 67.47900
229.1118, 68.68066
229.5940, 70.19849
230.0761, 71.48486
230.5582, 72.43237
231.0403, 73.15869
231.5224, 73.75830
232.0045, 74.18335
232.4867, 74.47461
232.9688, 74.59448
233.4509, 74.73657
233.9330, 75.08374
234.4151, 75.56470
234.8972, 75.78687
235.3794, 75.08496
235.8615, 72.78979
236.3436, 71.54761
236.8257, 72.77954
237.3078, 74.09814
237.7899, 73.57959
238.2721, 70.84521
238.7542, 67.20776
239.2363, 64.93799
239.7184, 65.33447
240.2005, 64.49463
240.6826, 61.05005
241.1648, 57.38794
241.6469, 55.32764
242.1290, 55.23364
242.6111, 56.13257
243.0932, 56.65161
243.5753, 57.04443
244.0575, 56.38330
244.5396, 53.49951
245.0217, 50.48340
245.5038, 49.03662
245.9859, 49.37793
246.4680, 50.33887
246.9502, 50.39087
247.4323, 49.33936
247.9144, 47.61694
248.3965, 44.44141
248.8786, 41.17578
249.3607, 39.10400
249.8429, 38.28906
250.3250, 37.46216
250.8071, 34.99805
251.2892, 30.11499
251.7713, 26.44336
252.2534, 24.71021
252.7356, 23.61816
253.2177, 22.24829
253.6998, 20.49927
254.1819, 18.86255
254.6640, 18.06006
255.1461, 18.36328
255.6283, 16.98633
256.1104, 12.82837
256.5925, 7.851563
257.0746, 2.913086
257.5567, 1.752441
258.0388, 5.164795
258.5210, 5.981445
259.0031, 4.157959
259.4852, 4.230469
259.9673, 7.827881
260.4494, 12.08911
260.9315, 15.25391
261.4137, 17.20239
261.8958, 17.92480
262.3779, 16.96045
262.8600, 14.62207
263.3421, 13.20605
263.8242, 12.81909
264.3064, 13.33594
264.7885, 15.16528
265.2706, 18.17310
265.7527, 20.91138
266.2348, 22.57812
266.7169, 23.26489
267.1991, 23.57275
267.6812, 23.50024
268.1633, 23.08765
268.6454, 22.20630
269.1275, 20.90991
269.6096, 19.63330
270.0918, 18.39624
270.5739, 17.44092
271.0560, 17.17651
271.5381, 17.89380
272.0202, 18.60522
272.5023, 18.83130
272.9845, 18.52856
273.4666, 17.29834
273.9487, 14.34229
274.4308, 10.90845
274.9129, 8.471680
275.3951, 7.087402
275.8772, 6.554443
276.3593, 7.328857
276.8414, 9.121338
277.3235, 10.02979
277.8056, 9.361572
278.2878, 7.861084
278.7699, 6.164307
279.2520, 4.260010
279.7341, 2.847900
280.2162, 2.894531
280.6983, 3.984619
281.1805, 4.092285
281.6626, 2.769287
282.1447, 0.4553220
282.6268, 2.849121
283.1089, 6.780029
283.5910, 9.894531
284.0732, 11.29028
284.5553, 11.26245
285.0374, 10.55688
285.5195, 8.551270
286.0016, 7.008545
286.4837, 7.256592
286.9659, 8.685547
287.4480, 10.04199
287.9301, 10.53442
288.4122, 10.50171
288.8943, 11.02905
289.3764, 12.48340
289.8586, 13.70874
290.3407, 13.39185
290.8228, 12.71143
291.3049, 13.58911
291.7870, 17.44165
292.2691, 22.38135
292.7513, 24.63623
293.2334, 23.15088
293.7155, 21.93384
294.1976, 22.66138
294.6797, 24.18970
295.1618, 25.67358
295.6440, 26.86914
296.1261, 27.85400
296.6082, 28.60669
297.0903, 28.97461
297.5724, 29.78809
298.0545, 31.50439
298.5367, 33.66406
299.0188, 36.14746
299.5009, 38.92749
299.9830, 41.65649
300.4651, 43.81738
300.9472, 45.30688
301.4294, 47.32495
301.9115, 51.04419
302.3936, 54.55200
302.8757, 56.66138
303.3578, 57.46387
303.8399, 58.00269
304.3221, 58.88403
304.8042, 60.08008
305.2863, 62.62524
305.7684, 67.87744
306.2505, 73.18042
306.7326, 77.13867
307.2148, 80.10156
307.6969, 83.12109
308.1790, 87.12842
308.6611, 91.82666
309.1432, 95.40796
309.6253, 96.94458
310.1075, 98.69751
310.5896, 102.1926
311.0717, 106.2358
311.5538, 108.9512
312.0359, 109.0959
312.5180, 107.6536
313.0002, 107.2156
313.4823, 107.7632
313.9644, 109.3337
314.4465, 112.5842
314.9286, 116.3804
315.4107, 119.6960
315.8929, 122.2849
316.3750, 124.1819
316.8571, 125.4192
317.3392, 126.0120
317.8213, 125.2822
318.3034, 121.0603
318.7856, 116.9062
319.2677, 115.6616
319.7498, 117.7231
320.2319, 120.7537
320.7140, 122.3694
321.1961, 122.4348
321.6783, 121.5867
322.1604, 118.2041
322.6425, 115.1780
323.1246, 114.7344
323.6067, 116.1707
324.0888, 116.6350
324.5710, 113.4314
325.0531, 106.8301
325.5352, 100.9253
326.0173, 95.60132
326.4994, 91.35132
326.9815, 88.61450
327.4637, 86.96777
327.9458, 85.75928
328.4279, 84.89038
328.9100, 83.95093
329.3921, 81.66968
329.8742, 77.52197
330.3564, 73.09985
330.8385, 68.84766
331.3206, 64.77026
331.8027, 61.07935
332.2848, 57.92993
332.7669, 54.68359
333.2491, 50.14355
333.7312, 43.82300
334.2133, 37.81860
334.6954, 32.78735
335.1775, 28.11890
335.6596, 23.21265
336.1418, 18.09668
336.6239, 13.88232
337.1060, 12.67334
337.5881, 14.58594
338.0702, 13.70679
338.5523, 6.983154
339.0345, 0.3698730
339.5165, 6.135498
339.9987, 10.01416
340.4808, 11.65918
340.9629, 9.278320
341.4450, 4.100098
341.9271, 2.829102
342.4092, 7.629639
342.8914, 12.87427
343.3735, 15.62305
343.8556, 17.03198
344.3377, 18.96924
344.8198, 22.68408
345.3019, 26.68921
345.7841, 28.14331
346.2662, 26.55151
346.7483, 24.53271
347.2304, 23.07104
347.7125, 21.67334
348.1946, 19.86597
348.6768, 17.50464
349.1589, 14.96411
349.6410, 12.45361
350.1231, 9.974365
350.6052, 7.802734
351.0873, 6.957031
351.5695, 5.645508
352.0516, 1.884766
352.5337, 4.147705
353.0158, 9.882568
353.4979, 12.72827
353.9800, 13.82227
354.4622, 17.26147
354.9443, 24.04297
355.4264, 31.90723
355.9085, 39.86011
356.3906, 47.68945
356.8727, 54.85181
357.3549, 60.18530
357.8370, 65.30127
358.3191, 72.94116
358.8012, 83.42041
359.2833, 93.66748
359.7654, 101.5557
360.2476, 108.4136
360.7297, 116.1990
361.2118, 125.2595
361.6939, 134.8677
362.1760, 144.3289
362.6581, 153.7720
363.1403, 163.9858
363.6224, 175.9656
364.1045, 187.7861
364.5866, 196.9014
365.0687, 203.2048
365.5508, 209.1870
366.0330, 213.9253
366.5151, 219.3958
366.9972, 230.0359
367.4793, 247.1570
367.9614, 265.6331
368.4435, 280.8003
368.9257, 293.1848
369.4078, 306.1409
369.8899, 320.9983
370.3720, 335.8726
370.8541, 349.2991
371.3362, 361.3582
371.8184, 372.0659
372.3005, 380.9473
372.7826, 388.8855
373.2647, 398.7368
373.7468, 411.9871
374.2289, 424.8530
374.7111, 435.4524
375.1932, 444.7212
375.6753, 454.5977
376.1574, 465.6526
376.6395, 477.4995
377.1216, 489.4810
377.6038, 501.3701
378.0859, 514.1455
378.5680, 529.3928
379.0501, 544.6289
379.5322, 556.4949
380.0143, 565.0706
380.4965, 574.4988
380.9786, 588.7817
381.4607, 608.1548
381.9428, 624.7927
382.4249, 637.9189
382.9070, 649.5989
383.3892, 659.9612
383.8713, 669.5544
384.3534, 679.1799
384.8355, 689.2129
385.3176, 699.5515
385.7997, 709.8164
386.2819, 720.1897
386.7640, 730.2344
387.2461, 739.2053
387.7282, 748.1711
388.2103, 758.6821
388.6924, 770.8347
389.1746, 782.9180
389.6567, 792.9426
390.1388, 800.8008
390.6209, 806.7917
391.1030, 808.6904
391.5851, 811.1101
392.0673, 816.1931
392.5494, 823.5142
393.0315, 831.7632
393.5136, 840.1821
393.9957, 848.6016
394.4778, 855.9238
394.9600, 861.3645
395.4421, 866.7402
395.9242, 872.1631
396.4063, 877.7334
396.8884, 883.5852
397.3705, 889.6895
397.8527, 895.9814
398.3348, 902.4961
398.8169, 909.6785
399.2990, 916.1091
399.7811, 920.2595
400.2632, 924.6809
400.7454, 930.8635
401.2275, 938.5742
401.7096, 946.5383
402.1917, 953.5969
402.6738, 959.9385
403.1559, 967.2332
403.6381, 976.5469
404.1202, 985.1462
404.6023, 989.5361
405.0844, 993.4956
405.5665, 1002.539
406.0486, 1019.481
406.5308, 1038.708
407.0129, 1052.477
407.4950, 1060.345
407.9771, 1069.008
408.4592, 1080.083
408.9413, 1092.756
409.4235, 1106.398
409.9056, 1121.026
410.3877, 1136.000
410.8698, 1150.658
411.3519, 1165.505
411.8340, 1182.447
412.3162, 1202.415
412.7983, 1221.958
413.2804, 1237.456
413.7625, 1250.798
414.2446, 1266.019
414.7267, 1283.987
415.2089, 1303.867
415.6910, 1326.051
416.1731, 1349.944
416.6552, 1372.087
417.1373, 1390.476
417.6194, 1407.298
418.1016, 1426.710
418.5837, 1448.946
419.0658, 1471.627
419.5479, 1494.035
420.0300, 1516.603
420.5121, 1540.052
420.9943, 1564.475
421.4764, 1588.566
421.9585, 1611.057
422.4406, 1631.789
422.9227, 1653.026
423.4048, 1676.135
423.8870, 1698.196
424.3691, 1716.792
424.8512, 1733.312
425.3333, 1750.612
425.8154, 1770.016
426.2975, 1790.860
426.7797, 1811.998
427.2618, 1834.686
427.7439, 1856.025
428.2260, 1877.291
428.7081, 1896.169
429.1902, 1909.249
429.6724, 1917.313
430.1545, 1926.080
430.6366, 1941.842
431.1187, 1965.107
431.6008, 1983.605
432.0829, 1993.576
432.5651, 2001.355
433.0472, 2008.013
433.5293, 2013.812
434.0114, 2019.016
434.4935, 2023.650
434.9756, 2026.662
435.4578, 2025.580
435.9399, 2018.778
436.4220, 2013.277
436.9041, 2013.198
437.3862, 2011.838
437.8683, 2005.154
438.3505, 1993.341
438.8326, 1979.298
439.3147, 1964.927
439.7968, 1950.122
440.2789, 1934.176
440.7610, 1917.044
441.2432, 1898.942
441.7253, 1880.325
442.2074, 1860.823
442.6895, 1839.959
443.1716, 1817.938
443.6537, 1793.797
444.1359, 1766.031
444.6180, 1735.113
445.1001, 1702.810
445.5822, 1668.833
446.0643, 1634.823
446.5464, 1603.267
447.0286, 1573.937
447.5107, 1543.812
447.9928, 1513.850
448.4749, 1481.585
448.9570, 1442.463
449.4391, 1396.917
449.9213, 1352.891
450.4034, 1315.310
450.8855, 1282.669
451.3676, 1249.670
451.8497, 1215.582
452.3318, 1182.315
452.8140, 1151.484
453.2961, 1121.121
453.7782, 1088.497
454.2603, 1052.987
454.7424, 1017.012
455.2245, 983.0818
455.7067, 951.4355
456.1888, 920.5957
456.6709, 889.8936
457.1530, 860.5012
457.6351, 833.5835
458.1172, 808.1470
458.5994, 781.8279
459.0815, 753.2891
459.5636, 723.9971
460.0457, 697.7939
460.5278, 676.9751
461.0099, 654.6860
461.4921, 628.3394
461.9742, 601.9563
462.4563, 578.5166
462.9384, 557.8047
463.4205, 537.1943
463.9026, 514.5950
464.3848, 490.2104
464.8669, 466.1392
465.3490, 441.4419
465.8311, 418.9817
466.3132, 400.5930
466.7953, 384.5305
467.2775, 368.8743
467.7596, 353.1838
468.2417, 337.9609
468.7238, 324.2759
469.2059, 311.7275
469.6880, 298.4448
470.1702, 284.0293
470.6523, 268.8489
471.1344, 252.5408
471.6165, 235.5132
472.0986, 220.1851
472.5807, 207.8215
473.0629, 196.8247
473.5450, 186.1975
474.0271, 175.7939
474.5092, 164.6255
474.9913, 152.0691
475.4734, 138.8335
475.9556, 126.6892
476.4377, 115.7603
476.9198, 105.3679
477.4019, 95.71826
477.8840, 86.42700
478.3661, 76.99438
478.8483, 67.44751
479.3304, 58.62402
479.8125, 51.10547
480.2946, 44.89258
480.7767, 38.88721
481.2589, 32.77197
481.7410, 27.27686
482.2231, 22.87305
482.7052, 18.95703
483.1873, 15.00586
483.6694, 10.77539
484.1516, 6.138184
484.6337, 0.6088870
485.1158, 6.247559
485.5979, 11.67236
486.0800, 15.21973
486.5621, 17.67456
487.0443, 17.80835
487.5264, 17.32715
488.0085, 19.75586
488.4906, 27.70581
488.9727, 36.70117
489.4548, 38.71826
489.9370, 33.16724
490.4191, 29.46655
490.9012, 31.04565
491.3833, 34.39087
491.8654, 36.11670
492.3475, 36.27905
492.8297, 36.11938
493.3118, 36.44067
493.7939, 36.52466
494.2760, 35.43188
494.7581, 33.14795
495.2402, 30.00464
495.7224, 25.98242
496.2045, 21.37158
496.6866, 17.04175
497.1687, 13.01392
497.6508, 9.150391
498.1329, 5.498291
498.6151, 1.952393
499.0972, 1.526367
499.5793, 4.978760
500.0614, 8.608887
500.5435, 12.66797
501.0256, 17.13794
501.5078, 21.08179
501.9899, 23.19043
502.4720, 26.32373
502.9541, 30.64062
503.4362, 36.44897
503.9183, 45.06372
504.4004, 56.53662
504.8825, 67.73340
505.3647, 73.55640
505.8468, 72.83105
506.3289, 75.95483
506.8110, 85.43018
507.2931, 96.03149
507.7752, 105.3740
508.2574, 114.2751
508.7395, 124.3882
509.2216, 136.8606
509.7037, 149.5615
510.1858, 159.7517
510.6679, 167.5366
511.1501, 174.6792
511.6322, 180.8374
512.1143, 187.6245
512.5964, 197.2734
513.0786, 209.3591
513.5607, 221.0784
514.0428, 230.9014
514.5249, 240.6211
515.0070, 251.8394
515.4891, 264.4043
515.9713, 277.5806
516.4534, 291.3228
516.9355, 304.7681
517.4176, 315.8809
517.8997, 323.2424
518.3818, 331.0183
518.8640, 338.4436
519.3461, 347.0278
519.8282, 358.6409
520.3103, 372.5779
520.7924, 386.3425
521.2745, 398.2053
521.7567, 408.5793
522.2388, 418.8779
522.7209, 428.3491
523.2030, 439.2207
523.6851, 453.9644
524.1672, 468.4407
524.6494, 479.0098
525.1315, 485.8020
525.6136, 492.2600
526.0957, 501.0437
526.5778, 511.6506
527.0599, 522.8364
527.5421, 535.2373
528.0242, 545.8528
528.5063, 552.0183
528.9884, 556.2319
529.4705, 561.8474
529.9526, 569.3574
530.4348, 577.1140
530.9169, 584.6924
531.3990, 591.8027
531.8811, 597.7502
532.3632, 602.4541
532.8453, 606.8596
533.3275, 611.6743
533.8096, 616.8162
534.2917, 621.6829
534.7738, 627.0925
535.2559, 631.2446
535.7380, 633.4685
536.2202, 634.3616
536.7023, 633.7468
537.1844, 632.0664
537.6665, 631.5486
538.1486, 635.2280
538.6307, 643.1858
539.1129, 646.7886
539.5950, 642.5266
540.0771, 638.3289
540.5592, 636.1208
541.0413, 635.0010
541.5234, 633.9297
542.0056, 632.6396
542.4877, 631.3501
542.9698, 631.1777
543.4519, 631.6709
543.9340, 628.5879
544.4161, 620.3232
544.8983, 611.9004
545.3804, 606.4968
545.8625, 603.1013
546.3446, 600.0901
546.8267, 598.3682
547.3088, 594.9148
547.7910, 586.8159
548.2731, 576.3320
548.7552, 567.6108
549.2373, 561.5728
549.7194, 556.6294
550.2015, 551.6382
550.6837, 546.7117
551.1658, 539.2996
551.6479, 527.3835
552.1300, 515.9980
552.6121, 505.8604
553.0942, 497.3762
553.5764, 491.5488
554.0585, 488.2949
554.5406, 485.3440
555.0227, 479.9688
555.5048, 471.9658
555.9869, 463.7058
556.4691, 454.6260
556.9512, 446.0532
557.4333, 437.8777
557.9154, 430.5972
558.3975, 425.5525
558.8796, 423.4551
559.3618, 420.4563
559.8439, 411.9873
560.3260, 399.6399
560.8081, 389.2876
561.2902, 381.7964
561.7723, 375.8423
562.2545, 371.1682
562.7366, 367.2834
563.2187, 361.7292
563.7008, 353.3396
564.1829, 344.8079
564.6650, 336.7625
565.1472, 329.4189
565.6293, 323.1406
566.1114, 317.9387
566.5935, 313.1665
567.0756, 308.3298
567.5577, 303.5566
568.0399, 298.0383
568.5220, 290.3228
569.0041, 283.1511
569.4862, 277.9478
569.9683, 273.2183
570.4504, 267.3501
570.9326, 259.8772
571.4147, 251.7234
571.8968, 243.1340
572.3789, 234.4553
572.8610, 227.4189
573.3431, 222.2087
573.8253, 218.0449
574.3074, 215.8535
574.7895, 214.0166
575.2716, 210.0264
575.7537, 203.3284
576.2358, 195.9932
576.7180, 187.9785
577.2001, 180.6423
577.6822, 176.4600
578.1643, 175.3118
578.6464, 174.2256
579.1285, 171.3555
579.6107, 166.9626
580.0928, 162.0254
580.5749, 155.2725
581.0570, 149.4258
581.5391, 145.2842
582.0212, 141.5789
582.5034, 137.2773
582.9855, 132.4304
583.4676, 127.8738
583.9497, 124.2205
584.4318, 121.1963
584.9139, 118.0035
585.3961, 114.5830
585.8782, 111.1733
586.3602, 108.1426
586.8423, 104.8186
587.3245, 100.2931
587.8066, 94.78027
588.2887, 90.22131
588.7708, 88.42603
589.2529, 87.34827
589.7350, 84.39270
590.2172, 79.85840
590.6993, 75.97388
591.1814, 73.80920
591.6635, 72.01672
592.1456, 68.40942
592.6277, 62.40356
593.1099, 56.57568
593.5920, 49.99609
594.0741, 44.55591
594.5562, 41.96021
595.0383, 41.04700
595.5204, 39.62402
596.0026, 36.78796
596.4847, 33.27222
596.9668, 29.79773
597.4489, 26.21033
597.9310, 24.21375
598.4131, 25.16040
598.8953, 26.00220
599.3774, 24.97876
599.8595, 22.89307
600.3416, 21.12537
600.8237, 20.18359
601.3058, 19.15784
601.7880, 17.40857
602.2701, 14.99329
602.7522, 11.22986
603.2343, 5.885986
603.7164, 2.594360
604.1985, 5.158447
604.6807, 12.51379
605.1628, 15.78296
605.6449, 12.04822
606.1270, 8.673706
606.6091, 7.051270
607.0912, 6.194214
607.5734, 5.367432
608.0555, 4.440186
608.5376, 3.567139
609.0197, 2.956665
609.5018, 2.485229
609.9839, 1.438477
610.4661, 0.5345460
610.9482, 1.992554
611.4303, 2.333008
611.9124, 2.160767
612.3945, 1.839233
612.8766, 1.396606
613.3588, 0.9813230
613.8409, 0.5552980
614.3230, 0.2695310
614.8051, 0.5145260
615.2872, 1.121094
615.7693, 1.036743
616.2515, 0.2546390
616.7336, 1.804321
617.2157, 2.259644
617.6978, 1.213379
618.1799, 0.8344730
618.6620, 1.805176
619.1442, 2.590088
619.6263, 2.572510
620.1084, 2.028076
620.5905, 1.344727
621.0726, 0.6434330
621.5547, 6.7261003E-02
622.0369, 0.3688960
622.5190, 0.6419680
623.0011, 8.4716998E-02
623.4832, 2.759521
623.9653, 4.323486
624.4474, 1.857666
624.9296, 1.934570
625.4117, 3.169678
625.8938, 0.9113770
626.3759, 0.8287350
626.8580, 0.4064940
627.3401, 2.747437
627.8223, 3.908569
628.3044, 3.861328
628.7865, 3.760254
629.2686, 4.311646
629.7507, 5.170166
630.2328, 5.309082
630.7150, 4.020386
631.1971, 3.470215
631.6792, 4.569824
632.1613, 5.389771
632.6434, 4.574097
633.1255, 2.813232
633.6077, 1.738525
634.0898, 2.174805
634.5719, 2.936646
635.0540, 1.976929
635.5361, 0.3538820
636.0182, 0.6400150
636.5004, 2.414673
636.9825, 5.016235
637.4646, 3.974609
637.9467, 0.1601560
638.4288, 2.645386
638.9109, 4.280273
639.3931, 5.052612
639.8752, 3.563110
640.3573, 2.129883
640.8394, 4.140991
641.3215, 9.221558
641.8036, 13.69006
642.2858, 14.80688
642.7679, 13.45459
643.2500, 12.69739
643.7321, 12.64001
644.2142, 13.01453
644.6964, 13.70923
645.1785, 14.80762
645.6606, 16.49634
646.1427, 18.72681
646.6248, 21.36487
647.1069, 24.73169
647.5891, 27.96033
648.0712, 29.99951
648.5533, 31.21191
649.0354, 32.86743
649.5175, 35.30066
649.9996, 37.45728
650.4818, 38.06824
650.9639, 37.25354
651.4460, 37.98596
651.9281, 41.90161
652.4102, 45.21777
652.8923, 47.11548
653.3745, 48.50171
653.8566, 49.94250
654.3387, 51.36694
654.8208, 52.77441
655.3029, 54.17188
655.7850, 55.45898
656.2672, 56.12610
656.7493, 56.08765
657.2314, 56.87378
657.7135, 59.67029
658.1956, 62.20728
658.6777, 61.43799
659.1599, 58.03284
659.6420, 55.52100
660.1241, 54.73035
660.6062, 54.57239
661.0883, 54.81116
661.5704, 55.19128
662.0526, 55.44873
662.5347, 55.53088
663.0168, 55.56042
663.4989, 55.70020
663.9810, 55.84180
664.4631, 55.25342
664.9453, 53.55017
665.4274, 51.93274
665.9095, 50.33142
666.3916, 49.16772
666.8737, 48.84070
667.3558, 49.25696
667.8380, 50.05078
668.3201, 51.50488
668.8022, 52.87915
669.2843, 53.83386
669.7664, 54.23511
670.2485, 53.34888
670.7307, 50.94495
671.2128, 47.83667
671.6949, 44.62683
672.1770, 41.35266
672.6591, 39.41040
673.1412, 39.65857
673.6234, 40.23108
674.1055, 41.83325
674.5876, 43.07642
675.0697, 42.27881
675.5518, 39.69482
676.0339, 37.42798
676.5161, 37.17383
676.9982, 37.84448
677.4803, 37.41870
677.9624, 35.93958
678.4445, 34.24878
678.9266, 32.32141
679.4088, 30.85413
679.8909, 30.79736
680.3730, 32.14465
680.8551, 32.66345
681.3372, 31.85181
681.8193, 30.85632
682.3015, 29.43738
682.7836, 28.08203
683.2657, 27.77991
683.7478, 28.66333
684.2299, 29.83008
684.7120, 30.66516
685.1942, 30.77441
685.6763, 28.93848
686.1584, 24.82971
686.6405, 21.59973
687.1226, 20.12305
687.6047, 19.45264
688.0869, 19.10681
688.5690, 19.05762
689.0511, 18.70178
689.5332, 17.90503
690.0153, 16.65540
690.4974, 14.67834
690.9796, 12.59070
691.4617, 10.92920
691.9438, 9.760254
692.4259, 9.187378
692.9080, 9.477295
693.3901, 10.47083
693.8723, 11.24048
694.3544, 11.81604
694.8365, 11.19080
695.3186, 8.297485
695.8007, 5.722412
696.2828, 4.804688
696.7650, 5.201050
697.2471, 6.198730
697.7292, 8.337769
698.2113, 9.621704
698.6934, 8.031494
699.1755, 5.161377
699.6577, 3.691162
700.1398, 3.813477
700.6219, 3.775635
701.1040, 2.239624
701.5861, 6.2500000E-02
702.0682, 0.5585940
702.5504, 1.893188
703.0325, 3.597046
703.5146, 4.268799
703.9967, 4.186401
704.4788, 3.031128
704.9609, 1.290283
705.4431, 0.1384280
705.9252, 0.9725340
706.4073, 1.536377
706.8894, 2.252563
707.3715, 2.821045
707.8536, 2.530640
708.3358, 1.400513
708.8179, 0.3156740
709.3000, 0.2656250
709.7821, 0.3665770
710.2642, 0.1768800
710.7463, 2.471680
711.2285, 2.838135
711.7106, 1.129639
712.1927, 4.359741
712.6748, 4.280945
713.1569, 2.325989
713.6390, 0.5786740
714.1212, 0.3839720
714.6033, 0.5928960
715.0854, 0.3593750
715.5675, 1.910461
716.0496, 2.957214
716.5317, 3.453491
717.0139, 3.724915
717.4960, 3.886414
717.9781, 3.984558
718.4602, 4.031250
718.9423, 3.811523
719.4244, 4.525940
719.9066, 7.730713
720.3887, 9.913940
720.8708, 9.243469
721.3529, 7.462402
721.8350, 6.898743
722.3171, 7.828186
722.7993, 8.091980
723.2814, 5.145935
723.7635, 0.9163820
724.2456, 1.181946
724.7277, 1.275696
725.2098, 5.5542000E-02
725.6920, 2.977234
726.1741, 5.554810
726.6562, 5.186768
727.1383, 1.669312
727.6204, 0.2350460
728.1025, 2.691772
728.5847, 4.819885
729.0668, 6.293274
729.5489, 6.885376
730.0310, 5.782104
730.5131, 3.472656
730.9952, 1.920471
731.4774, 2.375488
731.9595, 3.913513
732.4416, 5.460388
732.9237, 6.970825
733.4058, 8.290344
733.8879, 9.400635
734.3701, 10.23962
734.8522, 10.75665
735.3343, 10.94470
735.8164, 10.80231
736.2985, 9.553955
736.7806, 9.106995
737.2628, 10.09668
737.7449, 11.32751
738.2270, 12.09070
738.7091, 12.51764
739.1912, 13.04395
739.6733, 13.85614
740.1555, 14.68958
740.6376, 14.98688
741.1197, 15.15540
741.6018, 16.46533
742.0839, 18.98956
742.5660, 21.44580
743.0482, 23.10193
743.5303, 24.36633
744.0124, 26.09924
744.4945, 28.56897
744.9766, 30.67773
745.4587, 32.22864
745.9409, 33.68127
746.4230, 35.01727
746.9051, 36.42096
747.3872, 38.03088
747.8693, 39.89655
748.3514, 42.19037
748.8336, 46.01685
749.3157, 49.79108
749.7978, 50.65051
750.2799, 49.12274
750.7620, 47.73651
751.2441, 47.27423
751.7263, 47.35364
752.2084, 47.54443
752.6905, 47.85535
753.1726, 48.79297
753.6547, 51.51544
754.1368, 53.08911
754.6190, 52.18445
755.1011, 50.92072
755.5832, 50.71124
756.0653, 51.47021
756.5474, 52.65387
757.0295, 54.72363
757.5117, 55.77997
757.9938, 53.21796
758.4759, 48.75476
758.9580, 46.02496
759.4401, 45.28082
759.9222, 43.94836
760.4044, 40.31244
760.8865, 35.64581
761.3686, 33.60425
761.8507, 35.82288
762.3328, 35.57520
762.8149, 30.88574
763.2971, 26.08105
763.7792, 22.58862
764.2613, 20.14966
764.7434, 18.62885
765.2255, 18.12341
765.7076, 17.22522
766.1898, 14.49554
766.6719, 11.76526
767.1540, 11.35645
767.6361, 12.29364
768.1182, 11.81781
768.6003, 9.042725
769.0825, 5.707336
769.5646, 3.844971
770.0467, 3.130737
770.5288, 1.772644
771.0109, 0.6623540
771.4930, 2.435669
771.9752, 2.962097
772.4573, 2.863708
772.9394, 2.495911
773.4215, 1.935364
773.9036, 1.449219
774.3857, 1.291870
774.8679, 0.9124760
775.3500, 0.5588990
775.8321, 1.915527
776.3142, 1.280518
776.7963, 0.7383420
777.2784, 1.542297
777.7606, 0.3792110
778.2427, 3.160217
778.7248, 3.450623
779.2069, 1.464233
779.6890, 0.6367190
780.1711, 1.179199
780.6533, 3.012268
781.1354, 6.916443
781.6175, 11.26562
782.0996, 12.78558
782.5817, 10.57379
783.0638, 10.34833
783.5460, 13.95349
784.0281, 17.66180
784.5102, 20.08386
784.9923, 21.72906
785.4744, 23.05072
785.9565, 24.30603
786.4387, 25.92621
786.9208, 28.08240
787.4029, 30.92291
787.8850, 35.11182
788.3671, 40.32031
788.8492, 44.72357
789.3314, 47.88837
789.8135, 51.11096
790.2956, 55.21649
790.7777, 60.35913
791.2598, 67.32037
791.7419, 77.78204
792.2241, 86.81970
792.7062, 92.67767
793.1883, 98.92493
793.6704, 106.6593
794.1525, 116.0039
794.6346, 127.5543
795.1168, 141.7108
795.5989, 155.0098
796.0810, 164.0721
796.5631, 172.1343
797.0452, 183.1040
797.5273, 196.2935
798.0095, 209.1029
798.4916, 220.7240
798.9737, 232.6824
799.4558, 246.7197
799.9379, 262.6000
800.4200, 278.2950
800.9022, 293.8932
801.3843, 308.7123
801.8664, 322.4424
802.3485, 335.5338
802.8306, 347.7427
803.3127, 359.5560
803.7949, 372.8417
804.2770, 388.5491
804.7591, 404.2648
805.2412, 419.2614
805.7233, 433.9104
806.2054, 449.0753
806.6876, 464.1295
807.1697, 477.7670
807.6518, 489.4896
808.1339, 499.7061
808.6160, 508.6176
809.0981, 516.4376
809.5803, 524.0926
810.0624, 531.5611
810.5445, 537.1794
811.0266, 540.3314
811.5087, 541.8871
811.9908, 543.3149
812.4730, 544.6469
812.9551, 540.9007
813.4372, 528.9230
813.9193, 515.9905
814.4014, 503.5120
814.8835, 489.8379
815.3657, 473.3882
815.8478, 454.7821
816.3299, 435.8828
816.8120, 417.2639
817.2941, 398.1053
817.7762, 377.9834
818.2584, 357.1611
818.7405, 335.6235
819.2226, 313.6910
819.7047, 292.2318
820.1868, 271.7480
820.6689, 252.9932
821.1511, 237.3699
821.6332, 224.6690
822.1153, 210.6600
822.5974, 194.4924
823.0795, 180.3199
823.5616, 170.1099
824.0438, 161.4321
824.5259, 151.7724
825.0080, 141.2611
825.4901, 131.3653
825.9722, 121.4793
826.4543, 113.1674
826.9365, 106.9124
827.4186, 102.1638
827.9007, 99.50140
828.3828, 97.85773
828.8649, 94.85516
829.3470, 89.43793
829.8292, 83.66022
830.3113, 79.35107
830.7934, 76.20081
831.2755, 73.79138
831.7576, 71.99152
832.2397, 70.27557
832.7219, 68.45044
833.2040, 66.52563
833.6861, 64.37128
834.1682, 62.03949
834.6503, 60.95996
835.1324, 62.07300
835.6146, 62.30902
836.0967, 60.44897
836.5788, 58.15448
837.0609, 56.39923
837.5430, 55.12909
838.0251, 54.17383
838.5073, 53.61865
838.9894, 53.12836
839.4715, 52.80566
839.9536, 52.30560
840.4357, 51.13800
840.9178, 49.63458
841.4000, 48.47229
841.8821, 47.85150
842.3642, 47.45709
842.8463, 47.11053
843.3284, 46.70557
843.8105, 45.88635
844.2927, 44.69977
844.7748, 43.56360
845.2569, 42.56824
845.7390, 41.74799
846.2211, 41.13141
846.7032, 40.70227
847.1854, 40.44031
847.6675, 40.97638
848.1496, 40.26288
848.6317, 36.13605
849.1138, 33.09607
849.5959, 34.46936
850.0781, 37.49170
850.5602, 37.81818
851.0423, 34.68774
851.5244, 31.82330
852.0065, 31.06238
852.4886, 30.39880
852.9708, 28.50330
853.4529, 25.80688
853.9350, 22.74518
854.4171, 19.58844
854.8992, 16.87988
855.3813, 14.99231
855.8635, 13.78241
856.3456, 13.52386
856.8277, 13.85681
857.3098, 12.04919
857.7919, 7.642395
858.2740, 4.648743
858.7562, 5.661316
859.2383, 8.431702
859.7204, 8.733704
860.2025, 6.007446
860.6846, 3.979858
861.1667, 2.818909
861.6489, 2.126404
862.1310, 2.341980
862.6131, 2.529419
863.0952, 1.512390
863.5773, 0.3580930
864.0594, 1.176941
864.5416, 0.3424070
865.0237, 1.639893
865.5058, 1.528442
865.9879, 0.7022090
866.4700, 0.7477420
866.9521, 2.251770
867.4343, 2.457275
867.9164, 0.8617550
868.3985, 0.9747920
868.8806, 1.380493
869.3627, 0.7722780
869.8448, 4.0771000E-02
870.3270, 0.9716800
870.8091, 1.197449
871.2912, 0.4435420
871.7733, 0.2826540
872.2554, 1.4587000E-02
872.7375, 0.9957890
873.2197, 1.628601
873.7018, 2.047729
874.1839, 1.501770
874.6660, 1.505005
875.1481, 3.533325
875.6302, 1.315002
876.1124, 2.334961
876.5945, 2.934082
877.0766, 0.5145870
877.5587, 3.096436
878.0408, 2.391541
878.5229, 1.822815
879.0051, 3.241089
879.4872, 5.366272
879.9693, 6.917480
880.4514, 7.757935
880.9335, 8.104126
881.4156, 7.846680
881.8978, 7.734741
882.3799, 8.796448
882.8620, 10.52087
883.3441, 11.91077
883.8262, 12.90259
884.3083, 13.75220
884.7905, 14.61145
885.2726, 15.42554
885.7547, 16.01886
886.2368, 16.43719
886.7189, 17.20972
887.2010, 18.50256
887.6832, 19.23578
888.1653, 18.82062
888.6474, 18.51233
889.1295, 19.52325
889.6116, 21.41479
890.0938, 22.47046
890.5759, 22.11371
891.0580, 22.12012
891.5401, 22.18524
892.0222, 23.02258
892.5043, 25.55084
892.9865, 28.67120
893.4686, 31.16107
893.9507, 32.85175
894.4328, 34.02814
894.9149, 34.17340
895.3970, 34.59833
895.8792, 36.62982
896.3613, 39.29535
896.8434, 41.37885
897.3255, 42.76282
897.8076, 43.69037
898.2897, 44.27362
898.7719, 44.78101
899.2540, 45.43054
899.7361, 46.29205
900.2182, 47.83234
900.7003, 50.01270
901.1824, 51.84009
901.6646, 53.00964
902.1467, 53.76196
902.6288, 54.26599
903.1109, 54.59979
903.5930, 55.23547
904.0751, 56.54480
904.5573, 57.01648
905.0394, 55.89136
905.5215, 54.89484
906.0036, 54.98938
906.4857, 55.69421
906.9678, 56.54706
907.4500, 57.67041
907.9321, 57.66803
908.4142, 55.70093
908.8963, 53.42206
909.3784, 51.27673
909.8605, 49.16223
910.3427, 46.63428
910.8248, 44.04010
911.3069, 42.54810
911.7890, 42.91266
912.2711, 42.88324
912.7532, 40.09534
913.2354, 36.44415
913.7175, 34.41919
914.1996, 33.53333
914.6817, 31.99188
915.1638, 29.38519
915.6459, 27.05615
916.1280, 26.32849
916.6101, 26.39136
917.0922, 25.15930
917.5743, 22.79407
918.0565, 20.82269
918.5386, 19.44104
919.0207, 18.63135
919.5028, 18.53705
919.9849, 18.57825
920.4670, 17.80450
920.9492, 16.18170
921.4313, 13.86884
921.9134, 9.715332
922.3955, 7.454773
922.8776, 8.667114
923.3597, 11.12347
923.8419, 13.56970
924.3240, 15.79584
924.8061, 17.17029
925.2882, 17.64703
925.7703, 17.53705
926.2524, 17.07880
926.7346, 15.72571
927.2167, 11.27942
927.6988, 6.917480
928.1809, 7.426453
928.6630, 12.64337
929.1451, 16.71246
929.6273, 16.19818
930.1094, 14.76050
930.5915, 15.26501
931.0736, 16.24365
931.5557, 15.68475
932.0378, 13.88037
932.5200, 12.56763
933.0021, 12.23224
933.4842, 10.85016
933.9663, 5.143188
934.4484, 2.611694
934.9305, 7.201660
935.4127, 9.011169
935.8948, 8.877014
936.3769, 7.024963
936.8590, 5.267090
937.3411, 4.867004
937.8232, 5.221558
938.3054, 5.106323
938.7875, 4.514771
939.2696, 3.474609
939.7517, 1.799133
940.2338, 0.4356080
940.7159, 4.4617001E-02
941.1981, 0.5391240
941.6802, 2.747437
942.1623, 6.292480
942.6444, 8.864075
943.1265, 10.24585
943.6086, 10.99945
944.0908, 9.931152
944.5729, 9.622192
945.0550, 12.00903
945.5371, 15.30743
946.0192, 16.92743
946.5013, 16.70795
946.9835, 17.23657
947.4656, 19.97424
947.9477, 22.54755
948.4298, 23.92401
948.9119, 24.78076
949.3940, 25.55969
949.8762, 26.39319
950.3583, 27.47424
950.8404, 28.87634
951.3225, 30.07349
951.8046, 30.69720
952.2867, 30.92657
952.7689, 30.78217
953.2510, 30.43768
953.7331, 30.25250
954.2152, 30.24939
954.6973, 30.18982
955.1794, 29.93915
955.6616, 29.46509
956.1437, 28.49988
956.6258, 27.28320
957.1079, 26.89349
957.5900, 27.23914
958.0721, 26.92926
958.5543, 25.50873
959.0364, 24.01562
959.5185, 23.44556
960.0006, 23.48291
960.4827, 23.00928
960.9648, 21.95306
961.4470, 21.02203
961.9291, 20.17725
962.4112, 19.80310
962.8933, 20.15582
963.3754, 20.96979
963.8575, 22.12207
964.3397, 23.58411
964.8218, 23.63159
965.3039, 21.15802
965.7860, 19.30981
966.2681, 18.49292
966.7502, 18.26013
967.2324, 18.91132
967.7145, 19.75586
968.1966, 19.50659
968.6787, 17.93866
969.1608, 16.94763
969.6429, 16.92474
970.1251, 17.34326
970.6072, 18.45099
971.0893, 19.56757
971.5714, 20.00726
972.0535, 20.02557
972.5356, 20.35913
973.0178, 21.24915
973.4999, 22.06281
973.9820, 22.53711
974.4641, 22.76447
974.9462, 22.78046
975.4283, 22.61401
975.9105, 22.12079
976.3926, 21.45215
976.8747, 21.19232
977.3568, 21.69678
977.8389, 22.33051
978.3210, 22.65179
978.8032, 22.58466
979.2853, 21.75012
979.7674, 20.44818
980.2495, 19.52808
980.7316, 19.19940
981.2137, 19.08649
981.6959, 18.82263
982.1780, 18.92877
982.6601, 21.11353
983.1422, 24.51019
983.6243, 24.89990
984.1064, 22.33203
984.5886, 20.82910
985.0707, 21.87402
985.5528, 23.64838
986.0349, 24.39862
986.5170, 24.29340
986.9991, 23.60712
987.4813, 22.21362
987.9634, 22.11255
988.4455, 23.76361
988.9276, 25.26068
989.4097, 25.65051
989.8918, 25.68762
990.3740, 26.54669
990.8561, 28.12482
991.3382, 28.05756
991.8203, 25.23615
992.3024, 23.35248
992.7845, 23.15833
993.2667, 23.75714
993.7488, 25.38202
994.2309, 27.19849
994.7130, 27.44629
995.1951, 25.78638
995.6772, 24.71582
996.1594, 24.84180
996.6415, 24.77740
997.1236, 24.13171
997.6057, 23.53699
998.0878, 23.41443
998.5699, 23.48334
999.0521, 23.28748
999.5342, 22.78003
1000.016, 22.50781
1000.498, 22.34985
1000.981, 22.60992
1001.463, 23.93109
1001.945, 25.25977
1002.427, 25.51160
1002.909, 25.10889
1003.391, 25.25287
1003.873, 26.32019
1004.355, 27.06451
1004.837, 26.62909
1005.320, 26.06927
1005.802, 26.05902
1006.284, 26.31073
1006.766, 26.46991
1007.248, 26.53729
1007.730, 26.77344
1008.212, 27.35321
1008.694, 27.64655
1009.177, 26.44061
1009.659, 25.08990
1010.141, 25.60193
1010.623, 27.26166
1011.105, 28.47937
1011.587, 28.87360
1012.069, 28.83331
1012.551, 28.57764
1013.033, 28.54181
1013.516, 29.55713
1013.998, 30.93311
1014.480, 31.25562
1014.962, 30.87646
1015.444, 30.95117
1015.926, 31.68823
1016.408, 32.61023
1016.890, 33.41852
1017.372, 33.74414
1017.855, 32.71545
1018.337, 30.89722
1018.819, 30.15350
1019.301, 30.34186
1019.783, 30.14862
1020.265, 29.29681
1020.747, 28.94818
1021.229, 30.07794
1021.712, 31.69379
1022.194, 31.52722
1022.676, 29.87677
1023.158, 29.47931
1023.640, 30.39557
1024.122, 30.73883
1024.604, 29.90680
1025.086, 29.27649
1025.568, 30.12103
1026.051, 31.65070
1026.533, 31.72699
1027.015, 30.28754
1027.497, 28.85052
1027.979, 27.36987
1028.461, 26.33563
1028.943, 25.99677
1029.425, 25.78687
1029.908, 25.13873
1030.390, 24.30322
1030.872, 24.20038
1031.354, 25.07843
1031.836, 25.40515
1032.318, 24.99982
1032.800, 24.56183
1033.282, 24.41412
1033.765, 24.07843
1034.247, 22.91833
1034.729, 21.30151
1035.211, 20.70685
1035.693, 21.47333
1036.175, 22.28223
1036.657, 23.35504
1037.139, 23.99420
1037.621, 23.83167
1038.104, 23.33466
1038.586, 22.95221
1039.068, 22.59583
1039.550, 21.82190
1040.032, 20.00983
1040.514, 19.32391
1040.996, 20.74377
1041.478, 21.85651
1041.960, 22.16284
1042.443, 21.68213
1042.925, 19.95642
1043.407, 17.41309
1043.889, 15.87946
1044.371, 15.92706
1044.853, 15.67383
1045.335, 14.76654
1045.817, 13.96643
1046.300, 13.55737
1046.782, 13.31488
1047.264, 13.12811
1047.746, 12.93536
1048.228, 12.52014
1048.710, 11.68390
1049.192, 11.11670
1049.674, 10.94379
1050.156, 10.96466
1050.639, 11.40009
1051.121, 11.77606
1051.603, 11.64642
1052.085, 11.10284
1052.567, 10.51196
1053.049, 9.991211
1053.531, 9.163757
1054.013, 7.315063
1054.495, 5.970215
1054.978, 6.337708
1055.460, 6.970398
1055.942, 6.371399
1056.424, 4.938049
1056.906, 4.022400
1057.388, 3.939514
1057.870, 4.028259
1058.352, 4.442322
1058.835, 4.580383
1059.317, 3.954895
1059.799, 3.125488
1060.281, 2.555298
1060.763, 2.217163
1061.245, 1.985535
1061.727, 1.871216
1062.209, 1.576965
1062.692, 0.8236690
1063.174, 7.5805999E-02
1063.656, 0.4422610
1064.138, 0.8621220
1064.620, 1.240662
1065.102, 1.646606
1065.584, 2.370422
1066.066, 3.531311
1066.548, 3.931580
1067.031, 1.699524
1067.513, 0.4005740
1067.995, 3.168213
1068.477, 6.350952
1068.959, 6.515747
1069.441, 4.565674
1069.923, 2.701355
1070.405, 1.401672
1070.887, 0.4537960
1071.370, 0.2125850
1071.852, 0.2541500
1072.334, 2.226013
1072.816, 3.837219
1073.298, 2.388489
1073.780, 0.2090450
1074.262, 4.8096001E-02
1074.744, 3.381836
1075.227, 6.474976
1075.709, 7.443542
1076.191, 8.040833
1076.673, 9.278320
1077.155, 10.31708
1077.637, 9.926208
1078.119, 9.120422
1078.601, 9.746399
1079.083, 11.92230
1079.566, 13.97485
1080.048, 15.15015
1080.530, 16.26941
1081.012, 17.57410
1081.494, 19.18512
1081.976, 21.34845
1082.458, 23.76691
1082.940, 26.24701
1083.422, 28.60773
1083.905, 29.97491
1084.387, 29.22595
1084.869, 29.59680
1085.351, 33.80719
1085.833, 38.32373
1086.315, 40.82019
1086.797, 42.16687
1087.279, 43.31659
1087.761, 44.48022
1088.244, 45.62720
1088.726, 46.48944
1089.208, 48.47083
1089.690, 53.32483
1090.172, 58.10504
1090.654, 60.77612
1091.136, 62.75623
1091.618, 65.47876
1092.101, 68.82825
1092.583, 72.49408
1093.065, 76.60236
1093.547, 80.21368
1094.029, 82.76239
1094.511, 84.90643
1094.993, 86.99518
1095.475, 88.82098
1095.958, 89.48138
1096.440, 89.85846
1096.922, 92.11560
1097.404, 96.72168
1097.886, 100.7714
1098.368, 103.0657
1098.850, 104.6845
1099.332, 105.4824
1099.814, 106.7409
1100.297, 109.2966
1100.779, 112.5380
1101.261, 115.7795
1101.743, 119.0373
1102.225, 122.5112
1102.707, 127.1127
1103.189, 130.5942
1103.671, 131.4636
1104.153, 132.3157
1104.636, 134.7039
1105.118, 137.6120
1105.600, 140.0126
1106.082, 141.8788
1106.564, 143.4417
1107.046, 144.2130
1107.528, 145.7518
1108.010, 149.8220
1108.493, 152.8984
1108.975, 152.2157
1109.457, 151.0379
1109.939, 152.6708
1110.421, 156.3475
1110.903, 159.4784
1111.385, 161.9835
1111.867, 163.4716
1112.349, 163.1973
1112.832, 162.9050
1113.314, 162.9923
1113.796, 163.2691
1114.278, 162.9181
1114.760, 162.8934
1115.242, 165.6198
1115.724, 171.7874
1116.206, 175.7545
1116.688, 176.4332
1117.171, 176.6553
1117.653, 176.6373
1118.135, 176.3003
1118.617, 175.1332
1119.099, 173.9986
1119.581, 174.2854
1120.063, 175.8531
1120.545, 176.4549
1121.028, 175.6660
1121.510, 174.9015
1121.992, 174.5702
1122.474, 173.4799
1122.956, 170.7957
1123.438, 167.7612
1123.920, 165.4944
1124.402, 163.9439
1124.885, 163.0386
1125.367, 163.1495
1125.849, 161.7052
1126.331, 158.5162
1126.813, 154.2621
1127.295, 148.8259
1127.777, 143.5219
1128.259, 139.1205
1128.741, 135.6882
1129.224, 133.7559
1129.706, 133.2628
1130.188, 130.1915
1130.670, 124.1343
1131.152, 118.7479
1131.634, 114.6481
1132.116, 110.5035
1132.598, 105.5833
1133.080, 100.8412
1133.563, 97.71362
1134.045, 95.43921
1134.527, 90.37207
1135.009, 82.73389
1135.491, 77.75427
1135.973, 76.51257
1136.455, 74.84509
1136.937, 71.60895
1137.420, 67.61298
1137.902, 63.48151
1138.384, 59.32794
1138.866, 54.99609
1139.348, 50.82996
1139.830, 48.97302
1140.312, 48.72687
1140.794, 46.27277
1141.276, 41.16541
1141.759, 36.28192
1142.241, 33.11755
1142.723, 30.86731
1143.205, 29.03424
1143.687, 27.13342
1144.169, 23.69867
1144.651, 19.67523
1145.133, 17.61340
1145.615, 17.09473
1146.098, 15.50366
1146.580, 12.10901
1147.062, 8.993408
1147.544, 8.068970
1148.026, 7.323364
1148.508, 3.540039
1148.990, 0.4622800
1149.472, 0.1887210
1149.955, 2.312866
1150.437, 2.651245
1150.919, 0.5444340
1151.401, 1.155518
1151.883, 1.143311
1152.365, 0.9011230
1152.847, 1.464600
1153.329, 2.043945
1153.812, 1.952759
1154.294, 1.669434
1154.776, 1.994263
1155.258, 2.523071
1155.740, 1.862305
1156.222, 0.3101810
1156.704, 1.213745
1157.186, 1.804199
1157.668, 3.821777
1158.151, 2.496582
1158.633, 0.3808590
1159.115, 0.9870610
1159.597, 2.127075
1160.079, 4.495361
1160.561, 7.678223
1161.043, 8.230103
1161.525, 3.211792
1162.007, 0.9753420
1162.490, 4.044922
1162.972, 7.205078
1163.454, 8.323242
1163.936, 9.877930
1164.418, 14.38904
1164.900, 20.26941
1165.382, 24.10852
1165.864, 25.73889
1166.347, 26.77075
1166.829, 26.54773
1167.311, 27.83118
1167.793, 31.56311
1168.275, 34.92102
1168.757, 36.38928
1169.239, 37.28088
1169.721, 39.36365
1170.203, 42.05457
1170.686, 43.34509
1171.168, 42.67896
1171.650, 42.75977
1172.132, 43.83789
1172.614, 44.10095
1173.096, 43.98145
1173.578, 43.76929
1174.060, 44.32153
1174.542, 44.20605
1175.025, 42.30164
1175.507, 37.19714
1175.989, 34.24854
1176.471, 33.68420
1176.953, 34.66821
1177.435, 36.04578
1177.917, 34.96204
1178.399, 31.91919
1178.882, 29.71289
1179.364, 31.61902
1179.846, 34.33594
1180.328, 34.35657
1180.810, 33.06067
1181.292, 31.64954
1181.774, 30.37427
1182.256, 29.68066
1182.739, 29.24280
1183.221, 27.74072
1183.703, 24.52795
1184.185, 21.68762
1184.667, 20.99097
1185.149, 20.21497
1185.631, 17.41736
1186.113, 14.18274
1186.595, 11.83313
1187.078, 10.14673
1187.560, 8.358276
1188.042, 6.477173
1188.524, 5.640991
1189.006, 7.253174
1189.488, 7.817627
1189.970, 5.813721
1190.452, 3.929565
1190.934, 3.848877
1191.417, 3.879639
1191.899, 2.159546
1192.381, 0.1102290
1192.863, 0.0000000E+00
##END=



