##NAMES=Woodwardite
##RRUFFID=R060762
##IDEAL CHEMISTRY=(Cu^2+^,Al)_9_(S^6+^O_4_)_2_(OH)_18_&#183;nH_2_O
##LOCALITY=Cornwall, England
##OWNER=RRUFF
##SOURCE=Michael Scott
##DESCRIPTION=Pale blue granular coating on bull quartz
##STATUS=The identification of this mineral is not yet confirmed.
##URL=rruff.info/R060762
163.9540, 0.0000000E+00
164.4361, 3.681519
164.9182, 4.528687
165.4003, 3.731247
165.8824, 2.932327
166.3645, 1.785599
166.8467, 4.295563
167.3288, 15.34849
167.8109, 26.74879
168.2930, 32.25436
168.7751, 24.59102
169.2572, 9.298309
169.7394, 0.1298680
170.2215, 1.601379
170.7036, 0.7463230
171.1857, 2.947388
171.6678, 6.171158
172.1499, 13.35283
172.6321, 32.02696
173.1142, 56.19724
173.5963, 66.00415
174.0784, 52.60194
174.5605, 38.26239
175.0426, 41.69528
175.5248, 56.67642
176.0069, 66.88516
176.4890, 59.77962
176.9711, 40.27722
177.4532, 26.31987
177.9353, 18.74980
178.4175, 17.14813
178.8996, 28.27408
179.3817, 42.18997
179.8638, 51.86278
180.3459, 53.75372
180.8280, 49.81502
181.3102, 49.40866
181.7923, 56.51282
182.2744, 61.06944
182.7565, 56.38974
183.2386, 45.22150
183.7207, 34.36641
184.2029, 28.24655
184.6850, 24.74980
185.1671, 20.55832
185.6492, 12.36549
186.1313, 8.958435
186.6134, 18.09290
187.0956, 34.47736
187.5777, 47.43620
188.0598, 49.57736
188.5419, 42.83707
189.0240, 36.47476
189.5061, 30.09503
189.9883, 24.65857
190.4704, 19.53381
190.9525, 15.50012
191.4346, 14.39261
191.9167, 20.13791
192.3988, 29.63290
192.8810, 27.78407
193.3631, 1.851059
193.8452, 15.82323
194.3273, 7.500458
194.8094, 16.22997
195.2915, 37.01718
195.7737, 43.66603
196.2558, 39.70288
196.7379, 39.27466
197.2200, 46.07452
197.7021, 50.57611
198.1842, 46.21008
198.6664, 38.04167
199.1485, 34.24135
199.6306, 41.06082
200.1127, 54.10373
200.5948, 58.43336
201.0770, 49.80795
201.5591, 39.10233
202.0412, 28.84094
202.5233, 19.46588
203.0054, 11.35402
203.4875, 4.200790
203.9697, 0.9775240
204.4518, 0.3691100
204.9339, 10.49913
205.4160, 18.94798
205.8981, 18.53894
206.3802, 14.80247
206.8624, 15.02866
207.3445, 23.74350
207.8266, 35.42303
208.3087, 35.63106
208.7908, 15.97072
209.2729, 2.957321
209.7551, 8.560928
210.2372, 21.62817
210.7193, 31.09575
211.2014, 32.64221
211.6835, 29.35390
212.1656, 27.02811
212.6478, 26.45529
213.1299, 24.82291
213.6120, 16.48994
214.0941, 9.351456
214.5762, 12.64771
215.0583, 30.22118
215.5405, 51.40569
216.0226, 57.79361
216.5047, 44.14658
216.9868, 32.36899
217.4689, 29.07483
217.9510, 28.24072
218.4332, 24.08134
218.9153, 15.09229
219.3974, 7.952896
219.8795, 13.96289
220.3616, 37.45068
220.8437, 54.80771
221.3259, 57.48361
221.8080, 55.29358
222.2901, 51.78308
222.7722, 47.91753
223.2543, 46.06088
223.7364, 51.09944
224.2186, 64.77847
224.7007, 71.38913
225.1828, 54.99408
225.6649, 41.48267
226.1470, 51.04222
226.6291, 82.67822
227.1113, 112.7483
227.5934, 117.7420
228.0755, 97.08524
228.5576, 77.76036
229.0397, 62.05763
229.5218, 48.12509
230.0040, 32.64543
230.4861, 16.95561
230.9682, 7.130356
231.4503, 11.31616
231.9324, 27.92700
232.4145, 38.95222
232.8967, 39.93861
233.3788, 39.76807
233.8609, 43.79340
234.3430, 51.71974
234.8251, 59.36209
235.3072, 64.98111
235.7894, 69.47461
236.2715, 74.76505
236.7536, 82.97101
237.2357, 88.18776
237.7178, 87.47295
238.1999, 82.38777
238.6821, 74.90103
239.1642, 63.45367
239.6463, 51.81799
240.1284, 48.38467
240.6105, 55.60689
241.0926, 64.83223
241.5748, 74.94296
242.0569, 83.51053
242.5390, 86.26567
243.0211, 79.82626
243.5032, 69.10876
243.9853, 60.75258
244.4675, 54.94650
244.9496, 50.91469
245.4317, 48.47209
245.9138, 47.92294
246.3959, 50.63733
246.8780, 59.59955
247.3602, 68.95157
247.8423, 72.56726
248.3244, 70.40002
248.8065, 65.44429
249.2886, 55.68561
249.7707, 45.87872
250.2529, 42.60370
250.7350, 48.17859
251.2171, 53.26886
251.6992, 50.28586
252.1813, 41.80302
252.6634, 32.90646
253.1456, 22.30266
253.6277, 13.99271
254.1098, 13.48070
254.5919, 21.35869
255.0740, 29.64264
255.5561, 34.76114
256.0382, 37.37373
256.5204, 38.87315
257.0025, 39.20912
257.4846, 39.26140
257.9667, 39.16582
258.4488, 38.90576
258.9309, 41.60765
259.4131, 53.16174
259.8952, 66.34756
260.3773, 70.06152
260.8594, 62.21373
261.3415, 50.54105
261.8236, 39.26738
262.3058, 29.25470
262.7879, 27.85410
263.2700, 43.58846
263.7521, 62.91287
264.2342, 75.86774
264.7163, 81.76698
265.1985, 79.37750
265.6806, 63.63284
266.1627, 37.81396
266.6448, 27.95471
267.1269, 51.46512
267.6090, 73.72437
268.0912, 72.24310
268.5733, 53.28088
269.0554, 38.12242
269.5375, 38.96230
270.0196, 51.46089
270.5017, 57.90024
270.9839, 52.34912
271.4660, 17.38336
271.9481, 56.46754
272.4302, 78.19247
272.9123, 83.48682
273.3944, 23.10643
273.8766, 47.52892
274.3587, 37.96474
274.8408, 27.00607
275.3229, 63.36124
275.8050, 12.52785
276.2871, 48.13036
276.7693, 49.22766
277.2514, 66.08716
277.7335, 48.77507
278.2156, 42.02734
278.6977, 69.48509
279.1798, 78.00137
279.6620, 56.75156
280.1441, 74.63795
280.6262, 22.61777
281.1083, 31.95230
281.5904, 67.74956
282.0725, 48.22028
282.5547, 66.73129
283.0368, 70.75259
283.5189, 8.935669
284.0010, 61.95917
284.4831, 65.75645
284.9652, 18.11978
285.4474, 66.87573
285.9295, 26.19623
286.4116, 17.43860
286.8937, 32.70355
287.3758, 22.92313
287.8579, 52.62639
288.3401, 44.28949
288.8222, 39.26956
289.3043, 44.66740
289.7864, 43.81421
290.2685, 37.43498
290.7506, 24.65535
291.2328, 1.477005
291.7149, 16.25150
292.1970, 7.230484
292.6791, 7.661484
293.1612, 17.37053
293.6433, 19.48167
294.1255, 16.46136
294.6076, 8.258469
295.0897, 6.116043
295.5718, 13.11542
296.0539, 6.627304
296.5360, 3.309616
297.0182, 12.92032
297.5003, 21.39908
297.9824, 26.90791
298.4645, 26.47507
298.9466, 21.69031
299.4287, 19.40257
299.9109, 20.92802
300.3930, 22.49921
300.8751, 23.49892
301.3572, 22.88158
301.8393, 17.78337
302.3214, 1.810028
302.8036, 14.92334
303.2857, 16.47086
303.7678, 1.511612
304.2499, 12.38861
304.7320, 15.70433
305.2141, 12.92897
305.6963, 12.89354
306.1784, 18.35884
306.6605, 22.30548
307.1426, 16.42116
307.6247, 4.335907
308.1068, 0.2314610
308.5890, 10.78828
309.0711, 27.80440
309.5532, 36.62167
310.0353, 35.64226
310.5174, 37.59888
310.9995, 52.76416
311.4817, 69.96489
311.9638, 71.74373
312.4459, 54.90097
312.9280, 34.73576
313.4101, 27.45885
313.8922, 35.83067
314.3744, 40.89218
314.8565, 39.22804
315.3386, 37.18559
315.8207, 40.24402
316.3028, 46.96252
316.7849, 50.58382
317.2671, 45.54750
317.7492, 33.54407
318.2313, 30.09914
318.7134, 45.90877
319.1955, 57.22755
319.6776, 56.10461
320.1598, 48.43753
320.6419, 42.81467
321.1240, 42.83833
321.6061, 45.57903
322.0882, 43.84439
322.5703, 33.57935
323.0525, 26.33517
323.5346, 22.08745
324.0167, 20.84218
324.4988, 24.64067
324.9809, 32.63292
325.4630, 39.64816
325.9452, 38.91148
326.4273, 29.51787
326.9094, 24.20255
327.3915, 26.47266
327.8736, 30.38531
328.3557, 35.78195
328.8379, 41.19519
329.3200, 43.06845
329.8021, 37.40604
330.2842, 27.74846
330.7663, 24.60205
331.2484, 30.70938
331.7306, 36.63524
332.2127, 38.55434
332.6948, 38.35106
333.1769, 37.73706
333.6590, 36.95833
334.1411, 36.37814
334.6233, 37.13371
335.1054, 39.01352
335.5875, 38.24557
336.0696, 32.72258
336.5517, 25.23314
337.0338, 18.34105
337.5160, 12.07903
337.9981, 8.700073
338.4802, 10.56096
338.9623, 14.87329
339.4444, 17.87576
339.9265, 19.76794
340.4087, 18.95905
340.8908, 11.73483
341.3729, 1.215149
341.8550, 5.963638
342.3371, 5.063553
342.8192, 18.18350
343.3014, 24.71930
343.7835, 25.88396
344.2656, 27.71039
344.7477, 34.12088
345.2298, 42.65248
345.7119, 44.25455
346.1941, 31.62343
346.6762, 21.75008
347.1583, 16.26123
347.6404, 14.63959
348.1225, 17.76302
348.6046, 25.36128
349.0868, 33.28688
349.5689, 35.35321
350.0510, 30.53127
350.5331, 29.22711
351.0152, 31.41937
351.4973, 35.53560
351.9795, 44.29364
352.4616, 54.68770
352.9437, 58.46391
353.4258, 48.58792
353.9079, 28.85971
354.3900, 17.51288
354.8722, 18.18661
355.3543, 20.58412
355.8364, 24.08403
356.3185, 26.51970
356.8006, 24.39960
357.2827, 15.94969
357.7649, 6.759308
358.2470, 3.696533
358.7291, 7.096008
359.2112, 14.20450
359.6933, 30.81430
360.1754, 44.68185
360.6576, 41.46367
361.1397, 23.11200
361.6218, 10.02031
362.1039, 16.21194
362.5860, 32.07181
363.0681, 39.31804
363.5503, 35.71461
364.0324, 28.63188
364.5145, 20.62785
364.9966, 13.33569
365.4787, 13.16631
365.9608, 30.60913
366.4430, 45.88382
366.9251, 42.73186
367.4072, 27.70999
367.8893, 19.19667
368.3714, 25.79485
368.8535, 40.42763
369.3357, 48.19910
369.8178, 46.07362
370.2999, 42.12596
370.7820, 33.76912
371.2641, 25.60333
371.7462, 22.83138
372.2284, 25.25410
372.7105, 27.27779
373.1926, 22.61255
373.6747, 10.37531
374.1568, 5.019562
374.6389, 15.16376
375.1211, 23.22711
375.6032, 23.07318
376.0853, 18.23659
376.5674, 14.98355
377.0495, 16.55702
377.5316, 19.82327
378.0138, 16.78188
378.4959, 3.496933
378.9780, 3.368500
379.4601, 7.466537
379.9422, 20.68190
380.4243, 26.18700
380.9065, 23.31787
381.3886, 18.49551
381.8707, 17.29936
382.3528, 18.09531
382.8349, 13.29318
383.3170, 0.7438350
383.7992, 11.54732
384.2813, 4.241547
384.7634, 13.42253
385.2455, 22.20668
385.7276, 10.35057
386.2097, 3.757828
386.6919, 4.936874
387.1740, 3.924301
387.6561, 11.60172
388.1382, 13.49582
388.6203, 11.96259
389.1024, 11.53679
389.5846, 12.20135
390.0667, 13.90317
390.5488, 18.90195
391.0309, 23.50153
391.5130, 23.52321
391.9951, 19.07449
392.4773, 14.29541
392.9594, 13.33034
393.4415, 16.26988
393.9236, 15.13518
394.4057, 4.751404
394.8878, 4.072510
395.3700, 10.80121
395.8521, 13.99731
396.3342, 11.03691
396.8163, 0.7095950
397.2984, 13.20212
397.7805, 25.26845
398.2627, 36.25269
398.7448, 41.96622
399.2269, 37.19016
399.7090, 30.00572
400.1911, 24.40591
400.6732, 20.54315
401.1554, 19.95526
401.6375, 27.93153
402.1196, 39.10092
402.6017, 38.39787
403.0838, 22.95622
403.5659, 11.17856
404.0481, 17.30702
404.5302, 33.21231
405.0123, 39.55878
405.4944, 31.04172
405.9765, 20.31209
406.4586, 11.25182
406.9408, 4.839005
407.4229, 3.903351
407.9050, 9.444580
408.3871, 17.79742
408.8692, 24.63200
409.3513, 29.76051
409.8335, 33.68228
410.3156, 35.67636
410.7977, 37.19656
411.2798, 40.28917
411.7619, 43.61777
412.2440, 43.57979
412.7262, 36.31551
413.2083, 25.22473
413.6904, 21.06601
414.1725, 31.86252
414.6546, 34.80858
415.1367, 18.30089
415.6189, 0.1366580
416.1010, 4.804169
416.5831, 4.789810
417.0652, 17.47885
417.5473, 24.39832
418.0294, 25.83185
418.5116, 22.77744
418.9937, 11.95168
419.4758, 3.680893
419.9579, 6.728745
420.4400, 15.82909
420.9221, 22.71106
421.4043, 25.47156
421.8864, 25.80377
422.3685, 22.79170
422.8506, 18.05705
423.3327, 18.49919
423.8148, 27.64343
424.2970, 38.57043
424.7791, 40.80568
425.2612, 31.79439
425.7433, 24.44586
426.2254, 18.01477
426.7076, 14.65355
427.1897, 18.03990
427.6718, 26.23442
428.1539, 33.10863
428.6360, 34.75211
429.1181, 32.07657
429.6003, 28.91183
430.0824, 22.76187
430.5645, 20.18323
431.0466, 22.14287
431.5287, 27.34538
432.0108, 36.21762
432.4930, 48.06786
432.9751, 59.13153
433.4572, 66.01938
433.9393, 68.84674
434.4214, 67.86201
434.9035, 60.28711
435.3857, 54.27380
435.8678, 57.95471
436.3499, 65.40703
436.8320, 66.53345
437.3141, 57.74095
437.7962, 45.04283
438.2784, 23.94798
438.7605, 1.536209
439.2426, 9.494125
439.7247, 63.75621
440.2068, 123.8180
440.6889, 133.5016
441.1711, 78.38681
441.6532, 43.46703
442.1353, 41.52501
442.6174, 52.46123
443.0995, 72.51431
443.5816, 95.37076
444.0638, 106.8409
444.5459, 98.29057
445.0280, 78.06241
445.5101, 70.32150
445.9922, 85.89999
446.4743, 93.18524
446.9565, 85.82462
447.4386, 73.47446
447.9207, 57.83792
448.4028, 41.93773
448.8849, 34.91133
449.3670, 48.99890
449.8492, 77.36246
450.3313, 94.98061
450.8134, 100.1859
451.2955, 100.1360
451.7776, 95.43231
452.2597, 88.53384
452.7419, 83.46597
453.2240, 81.79797
453.7061, 77.81665
454.1882, 67.28659
454.6703, 53.49094
455.1524, 40.15091
455.6346, 28.04845
456.1167, 18.90036
456.5988, 13.87648
457.0809, 12.92618
457.5630, 19.33351
458.0451, 41.95105
458.5273, 60.68466
459.0093, 68.93634
459.4915, 69.48795
459.9736, 64.95758
460.4557, 56.61182
460.9378, 47.64253
461.4199, 44.52798
461.9020, 49.99794
462.3842, 46.77881
462.8663, 20.82983
463.3484, 0.8087310
463.8305, 6.068741
464.3126, 27.03616
464.7947, 41.52539
465.2769, 38.56030
465.7590, 27.20972
466.2411, 15.86606
466.7232, 5.003464
467.2053, 1.246506
467.6874, 9.883957
468.1696, 21.06363
468.6517, 17.73099
469.1338, 2.584244
469.6159, 13.07071
470.0980, 0.2945250
470.5801, 16.56268
471.0623, 18.38609
471.5444, 8.704865
472.0265, 0.9538570
472.5086, 3.114502
472.9907, 11.44176
473.4728, 14.28815
473.9550, 6.404053
474.4371, 2.316986
474.9192, 6.676056
475.4013, 11.24832
475.8834, 9.370071
476.3655, 1.938217
476.8477, 4.536560
477.3298, 5.890060
477.8119, 2.717621
478.2940, 4.878464
478.7761, 18.44228
479.2582, 28.43346
479.7404, 29.34575
480.2225, 25.32715
480.7046, 22.50041
481.1867, 20.79477
481.6688, 21.51436
482.1509, 29.22672
482.6331, 37.55431
483.1152, 36.39651
483.5973, 25.86530
484.0794, 16.65459
484.5615, 17.27380
485.0436, 25.83122
485.5258, 29.60965
486.0079, 20.72878
486.4900, 16.74370
486.9721, 22.89900
487.4542, 32.21030
487.9363, 38.74495
488.4185, 41.56139
488.9006, 42.92238
489.3827, 43.56265
489.8648, 44.45624
490.3469, 51.70473
490.8290, 68.40619
491.3112, 80.88226
491.7933, 83.38927
492.2754, 78.83826
492.7575, 68.79532
493.2396, 50.68468
493.7217, 37.34186
494.2039, 38.13390
494.6860, 44.62061
495.1681, 43.82710
495.6502, 33.94279
496.1323, 27.33702
496.6144, 35.85117
497.0966, 56.82152
497.5787, 67.23656
498.0608, 56.94862
498.5429, 49.43727
499.0250, 52.68669
499.5071, 58.65437
499.9893, 57.65259
500.4714, 48.27187
500.9535, 38.07454
501.4356, 35.93103
501.9177, 41.23152
502.3998, 41.42854
502.8820, 32.25137
503.3641, 26.68141
503.8462, 36.83594
504.3283, 52.17133
504.8104, 57.93044
505.2925, 49.05519
505.7747, 39.68263
506.2568, 38.93578
506.7389, 43.17618
507.2210, 46.93591
507.7031, 49.20863
508.1852, 47.47807
508.6674, 38.16589
509.1495, 22.19350
509.6316, 14.96156
510.1137, 26.19365
510.5958, 33.45699
511.0779, 29.13454
511.5601, 21.17682
512.0422, 17.74474
512.5243, 20.37589
513.0064, 25.24611
513.4885, 29.96478
513.9706, 34.07603
514.4528, 31.85382
514.9349, 19.19670
515.4170, 10.06126
515.8991, 16.45433
516.3812, 27.90669
516.8633, 29.15445
517.3455, 14.54500
517.8276, 4.533203
518.3097, 15.02129
518.7918, 34.16081
519.2739, 42.47783
519.7560, 38.61067
520.2382, 38.31082
520.7203, 56.24522
521.2024, 86.82553
521.6845, 93.51947
522.1666, 45.86371
522.6487, 12.57874
523.1309, 6.059860
523.6130, 10.65111
524.0951, 13.88281
524.5772, 14.11459
525.0593, 16.35028
525.5414, 26.43652
526.0236, 41.29672
526.5057, 49.90790
526.9878, 51.28247
527.4699, 50.51154
527.9520, 50.60269
528.4341, 50.24205
528.9163, 48.43958
529.3984, 45.20647
529.8805, 40.55270
530.3626, 30.20258
530.8447, 21.39471
531.3268, 23.61008
531.8090, 34.80417
532.2911, 44.81433
532.7732, 47.76831
533.2553, 44.67882
533.7374, 37.66832
534.2195, 21.65851
534.7017, 12.04079
535.1838, 16.21390
535.6659, 21.12068
536.1480, 17.53233
536.6301, 7.708115
537.1122, 0.7217860
537.5944, 0.4599150
538.0765, 5.178040
538.5586, 13.43141
539.0407, 24.80429
539.5228, 33.31340
540.0049, 37.16043
540.4871, 37.48099
540.9692, 33.58430
541.4513, 23.96455
541.9334, 23.87517
542.4155, 48.51318
542.8976, 68.16077
543.3798, 63.81735
543.8619, 44.42368
544.3440, 25.60167
544.8261, 13.59773
545.3082, 6.083740
545.7903, 0.3332820
546.2725, 3.391998
546.7546, 7.925934
547.2367, 17.27066
547.7188, 21.55847
548.2009, 11.96130
548.6830, 4.461502
549.1652, 16.61018
549.6473, 22.71158
550.1294, 22.24809
550.6115, 6.816711
551.0936, 13.44334
551.5757, 15.14061
552.0579, 4.909302
552.5400, 23.68085
553.0221, 20.15108
553.5042, 2.298264
553.9863, 9.837296
554.4684, 14.47185
554.9506, 33.12611
555.4327, 41.37019
555.9148, 43.59526
556.3969, 42.40575
556.8790, 38.86285
557.3611, 34.57812
557.8433, 29.83708
558.3254, 25.59494
558.8075, 25.04642
559.2896, 28.54112
559.7717, 32.05620
560.2538, 34.91664
560.7360, 36.12439
561.2181, 32.92712
561.7002, 24.45421
562.1823, 18.60020
562.6644, 18.95494
563.1465, 20.19624
563.6287, 17.16864
564.1108, 12.22681
564.5929, 11.87154
565.0750, 19.13237
565.5571, 29.60898
566.0392, 35.83220
566.5214, 37.30809
567.0035, 36.85252
567.4856, 32.32829
567.9677, 28.84378
568.4498, 29.30255
568.9319, 32.50031
569.4141, 36.50175
569.8962, 28.88115
570.3783, 44.70053
570.8604, 53.57076
571.3425, 55.86496
571.8246, 32.17036
572.3068, 42.11949
572.7889, 38.47035
573.2710, 34.26335
573.7531, 48.98180
574.2352, 28.82472
574.7173, 43.24216
575.1995, 43.85745
575.6816, 50.78903
576.1637, 44.04193
576.6458, 41.51907
577.1279, 52.67851
577.6100, 56.26126
578.0922, 47.93806
578.5743, 55.26892
579.0564, 34.62994
579.5385, 38.53400
580.0206, 53.02695
580.5027, 45.38942
580.9849, 40.33412
581.4670, 40.13202
581.9491, 41.15808
582.4312, 37.45293
582.9133, 22.99902
583.3954, 10.20741
583.8776, 4.918747
584.3597, 4.800659
584.8418, 5.864212
585.3239, 6.072922
585.8060, 8.453308
586.2881, 17.50999
586.7703, 32.74867
587.2524, 47.22502
587.7345, 62.47086
588.2166, 72.00482
588.6987, 70.54306
589.1808, 61.76933
589.6630, 52.89557
590.1451, 43.59486
590.6272, 35.59271
591.1093, 26.82854
591.5914, 21.41254
592.0735, 28.56215
592.5557, 43.54887
593.0378, 47.94920
593.5199, 30.12703
594.0020, 2.380264
594.4841, 4.420410
594.9662, 16.66866
595.4484, 30.16383
595.9305, 27.56372
596.4126, 23.17046
596.8947, 26.38774
597.3768, 34.26183
597.8589, 39.47624
598.3411, 39.82202
598.8232, 37.77031
599.3053, 31.41495
599.7874, 24.90315
600.2695, 28.87050
600.7516, 43.85139
601.2338, 53.83884
601.7159, 43.23663
602.1980, 17.13869
602.6801, 11.76453
603.1622, 43.24110
603.6443, 66.94102
604.1265, 78.90674
604.6086, 80.11760
605.0907, 64.00510
605.5728, 35.69427
606.0549, 16.43675
606.5370, 22.13565
607.0192, 35.94884
607.5013, 40.12521
607.9834, 36.63257
608.4655, 31.52136
608.9476, 25.07881
609.4297, 21.95769
609.9119, 28.79883
610.3940, 45.33652
610.8761, 55.47058
611.3582, 55.68698
611.8403, 52.75056
612.3224, 45.72740
612.8046, 38.67665
613.2867, 37.56804
613.7688, 42.60133
614.2509, 46.92857
614.7330, 42.29707
615.2151, 34.71959
615.6973, 40.83867
616.1794, 59.32172
616.6615, 70.76498
617.1436, 65.88565
617.6257, 52.49199
618.1078, 40.37585
618.5900, 28.24623
619.0721, 23.63553
619.5542, 31.73260
620.0363, 41.43784
620.5184, 50.13203
621.0005, 55.82512
621.4827, 55.64037
621.9648, 48.99083
622.4469, 41.28687
622.9290, 37.05667
623.4111, 35.80080
623.8932, 36.24309
624.3754, 38.38715
624.8575, 41.97040
625.3396, 48.19513
625.8217, 53.97618
626.3038, 53.21034
626.7859, 43.39932
627.2681, 33.66603
627.7502, 23.18750
628.2323, 13.82013
628.7144, 2.529343
629.1965, 5.814331
629.6786, 0.1587220
630.1608, 23.37341
630.6429, 46.93042
631.1250, 47.39612
631.6071, 30.17741
632.0892, 21.46199
632.5714, 24.00577
633.0535, 25.07562
633.5356, 15.67101
634.0177, 2.347076
634.4998, 1.795563
634.9819, 22.97913
635.4641, 33.81638
635.9462, 22.37115
636.4283, 9.102768
636.9104, 6.265686
637.3925, 10.55510
637.8746, 13.32304
638.3568, 11.13142
638.8389, 8.988327
639.3210, 14.45976
639.8031, 25.89497
640.2852, 29.59377
640.7673, 23.60115
641.2495, 14.54433
641.7316, 2.753281
642.2137, 6.960114
642.6958, 1.632782
643.1779, 32.85904
643.6600, 50.49387
644.1422, 32.02158
644.6243, 10.16223
645.1064, 5.474030
645.5885, 13.31622
646.0706, 21.05525
646.5527, 23.42624
647.0349, 23.45779
647.5170, 24.69978
647.9991, 26.89696
648.4812, 28.56059
648.9633, 29.48457
649.4454, 30.46112
649.9276, 32.09523
650.4097, 34.01433
650.8918, 35.26697
651.3739, 36.01927
651.8560, 35.73711
652.3381, 34.86560
652.8203, 32.65753
653.3024, 24.69296
653.7845, 14.86278
654.2666, 11.21358
654.7487, 17.35672
655.2308, 26.47443
655.7130, 29.40102
656.1951, 28.45656
656.6772, 35.60770
657.1593, 53.09268
657.6414, 63.54086
658.1235, 54.45906
658.6057, 34.38164
659.0878, 24.59245
659.5699, 31.94586
660.0520, 23.50670
660.5341, 38.03902
661.0162, 45.62289
661.4984, 46.63181
661.9805, 21.37357
662.4626, 30.04018
662.9447, 25.11809
663.4268, 19.64523
663.9089, 33.10271
664.3911, 11.68494
664.8732, 24.84262
665.3553, 24.19908
665.8374, 29.87216
666.3195, 21.86736
666.8016, 18.09206
667.2838, 28.00383
667.7659, 30.34013
668.2480, 20.77095
668.7301, 26.85617
669.2122, 5.290329
669.6943, 8.322601
670.1765, 21.57645
670.6586, 12.70091
671.1407, 19.04225
671.6228, 19.58830
672.1049, 6.202744
672.5870, 17.50455
673.0692, 15.34554
673.5513, 5.3116001E-02
674.0334, 6.700043
674.5155, 6.022614
674.9976, 26.63689
675.4797, 36.30530
675.9619, 33.82112
676.4440, 26.19810
676.9261, 3.820770
677.4082, 10.70688
677.8903, 6.380798
678.3724, 6.874725
678.8546, 18.92198
679.3367, 28.43594
679.8188, 35.95090
680.3009, 43.89462
680.7830, 46.66618
681.2651, 32.83905
681.7473, 9.991989
682.2294, 2.1988001E-02
682.7115, 10.07260
683.1936, 26.91824
683.6757, 34.39767
684.1578, 32.37378
684.6400, 30.28084
685.1221, 27.18108
685.6042, 26.34486
686.0863, 31.51711
686.5684, 37.30859
687.0505, 37.21649
687.5327, 31.88719
688.0148, 27.22603
688.4969, 24.93361
688.9790, 23.34636
689.4611, 19.91959
689.9432, 17.29608
690.4254, 22.50281
690.9075, 35.01779
691.3896, 42.01062
691.8717, 29.29520
692.3538, 5.235931
692.8359, 1.055191
693.3181, 12.08649
693.8002, 22.82643
694.2823, 26.55289
694.7644, 24.50270
695.2465, 14.24112
695.7286, 3.171768
696.2108, 7.744125
696.6929, 12.02417
697.1750, 28.88158
697.6571, 40.96964
698.1392, 45.12222
698.6213, 32.38477
699.1035, 8.273438
699.5856, 7.114029
700.0677, 1.399963
700.5498, 14.61862
701.0319, 28.07674
701.5140, 36.53473
701.9962, 35.53799
702.4783, 23.94447
702.9604, 0.6650540
703.4425, 16.56259
703.9246, 25.51137
704.4067, 27.88460
704.8889, 3.988251
705.3710, 14.01346
705.8531, 10.44441
706.3352, 6.317810
706.8173, 21.11725
707.2994, 1.041412
707.7816, 15.54037
708.2637, 16.23761
708.7458, 23.25146
709.2279, 16.58716
709.7100, 14.14767
710.1921, 25.39276
710.6743, 29.06146
711.1564, 20.82451
711.6385, 28.24170
712.1206, 7.689590
712.6027, 11.68071
713.0848, 26.26128
713.5670, 18.71501
714.0491, 26.57265
714.5312, 28.46570
715.0133, 3.999680
715.4954, 25.33688
715.9775, 26.86568
716.4597, 8.055283
716.9418, 27.82277
717.4239, 11.81613
717.9060, 8.578491
718.3881, 14.95036
718.8702, 11.30450
719.3524, 18.96091
719.8345, 35.80170
720.3166, 50.35913
720.7987, 49.12912
721.2808, 39.16388
721.7629, 33.99136
722.2451, 33.36020
722.7272, 35.42522
723.2093, 39.98222
723.6914, 46.13940
724.1735, 54.84145
724.6556, 64.61374
725.1378, 60.70999
725.6199, 28.96384
726.1020, 6.361526
726.5841, 3.799362
727.0662, 4.603943
727.5483, 9.395126
728.0305, 30.94418
728.5126, 40.18973
728.9947, 24.32634
729.4768, 11.53722
729.9589, 25.95319
730.4410, 50.62990
730.9232, 61.94351
731.4053, 59.71373
731.8874, 54.60899
732.3695, 53.19623
732.8516, 51.14992
733.3337, 39.16742
733.8159, 16.80365
734.2980, 5.132263
734.7801, 7.914505
735.2622, 10.85919
735.7443, 8.645172
736.2264, 3.846817
736.7086, 1.129868
737.1907, 8.273178
737.6728, 5.991119
738.1549, 20.08319
738.6370, 41.01135
739.1191, 42.58447
739.6013, 33.67392
740.0834, 20.05898
740.5655, 5.022263
741.0476, 1.677231
741.5297, 12.46761
742.0118, 33.60820
742.4940, 40.47209
742.9761, 37.77664
743.4582, 44.88167
743.9403, 65.76924
744.4224, 78.98122
744.9045, 63.53085
745.3867, 27.76321
745.8688, 12.19412
746.3509, 23.93700
746.8330, 34.06764
747.3151, 37.54524
747.7972, 40.62181
748.2794, 48.89726
748.7615, 59.57074
749.2436, 65.92061
749.7257, 65.59262
750.2078, 65.10162
750.6899, 69.95219
751.1721, 72.08611
751.6542, 62.57643
752.1363, 45.86661
752.6184, 30.72531
753.1005, 20.64348
753.5826, 15.61658
754.0648, 21.53882
754.5469, 32.72768
755.0290, 26.87286
755.5111, 5.535431
755.9932, 2.296432
756.4753, 16.12263
756.9575, 37.29094
757.4396, 28.74182
757.9217, 9.109100
758.4038, 16.11819
758.8859, 30.81982
759.3680, 67.28822
759.8502, 79.84290
760.3323, 77.75497
760.8144, 59.69168
761.2965, 30.81941
761.7786, 11.38153
762.2607, 10.02690
762.7429, 12.65176
763.2250, 16.06662
763.7071, 18.30775
764.1892, 14.36385
764.6713, 7.253220
765.1534, 7.250580
765.6356, 19.97005
766.1177, 36.29807
766.5998, 45.97417
767.0819, 49.12125
767.5640, 43.22701
768.0461, 28.19582
768.5283, 18.74100
769.0104, 22.85825
769.4925, 31.18956
769.9746, 28.57843
770.4567, 12.93547
770.9388, 3.195068
771.4210, 2.214890
771.9031, 0.7967830
772.3852, 21.95685
772.8673, 45.26311
773.3494, 56.32019
773.8315, 55.96985
774.3137, 55.57069
774.7958, 61.70207
775.2779, 63.98642
775.7600, 52.01823
776.2421, 37.43488
776.7242, 34.89182
777.2064, 42.67410
777.6885, 48.29346
778.1706, 44.73326
778.6527, 37.47774
779.1348, 33.09325
779.6169, 31.25356
780.0991, 31.75948
780.5812, 34.48570
781.0633, 35.90005
781.5454, 34.37349
782.0275, 30.14148
782.5096, 22.35522
782.9918, 9.324341
783.4739, 7.064484
783.9560, 23.22621
784.4381, 37.21208
784.9202, 44.72256
785.4023, 44.78239
785.8845, 33.76817
786.3666, 13.81453
786.8487, 3.919846
787.3308, 9.920135
787.8129, 23.71339
788.2950, 55.42502
788.7772, 83.94260
789.2593, 83.56288
789.7414, 60.17290
790.2235, 39.59219
790.7056, 34.40791
791.1877, 35.17882
791.6699, 32.39018
792.1520, 27.53062
792.6341, 23.86365
793.1162, 21.58051
793.5983, 20.71053
794.0804, 21.51962
794.5626, 20.28648
795.0447, 8.574677
795.5268, 13.14307
796.0089, 13.52529
796.4910, 16.61835
796.9731, 36.80515
797.4553, 28.08406
797.9374, 13.57950
798.4195, 19.53026
798.9016, 44.25168
799.3837, 57.31123
799.8658, 51.10513
800.3480, 42.99319
800.8301, 34.92451
801.3122, 26.77206
801.7943, 15.64015
802.2764, 4.722885
802.7585, 2.631851
803.2407, 14.14111
803.7228, 24.47641
804.2049, 21.01367
804.6870, 12.41808
805.1691, 7.825104
805.6512, 7.647217
806.1334, 11.09090
806.6155, 17.75769
807.0976, 26.96346
807.5797, 40.12053
808.0618, 54.25308
808.5439, 57.41174
809.0261, 49.55919
809.5082, 35.01141
809.9903, 11.39366
810.4724, 2.302078
810.9545, 14.08032
811.4366, 51.62653
811.9188, 66.30392
812.4009, 41.44476
812.8830, 29.49736
813.3651, 43.78058
813.8472, 56.50690
814.3293, 52.93364
814.8115, 41.67346
815.2936, 36.98508
815.7757, 40.54355
816.2578, 31.33345
816.7399, 46.59863
817.2220, 54.91473
817.7042, 56.65504
818.1863, 32.12592
818.6684, 41.51817
819.1505, 37.31601
819.6326, 32.55611
820.1147, 46.72208
820.5969, 26.01254
821.0790, 39.87784
821.5611, 39.94124
822.0432, 46.32108
822.5253, 39.15140
823.0074, 36.58052
823.4896, 47.20676
823.9717, 50.23874
824.4538, 41.36455
824.9359, 48.14435
825.4180, 26.95461
825.9001, 30.30817
826.3823, 44.25044
826.8644, 36.06276
827.3465, 43.09129
827.8286, 44.32413
828.3107, 30.44930
828.7928, 33.21844
829.2749, 45.12924
829.7570, 48.77101
830.2391, 32.14740
830.7213, 15.87102
831.2034, 13.37756
831.6855, 21.83395
832.1676, 34.13896
832.6497, 53.49533
833.1318, 63.32993
833.6140, 50.02173
834.0961, 32.21468
834.5782, 21.18616
835.0603, 16.98938
835.5424, 19.52631
836.0245, 27.96089
836.5067, 36.47090
836.9888, 42.30856
837.4709, 44.18544
837.9530, 36.99088
838.4351, 24.79382
838.9172, 18.52440
839.3994, 19.91565
839.8815, 25.64880
840.3636, 34.66910
840.8457, 40.96095
841.3278, 25.86090
841.8099, 10.23530
842.2921, 22.38851
842.7742, 4.261505
843.2563, 15.32578
843.7384, 24.55049
844.2205, 27.37825
844.7026, 29.16599
845.1848, 29.96954
845.6669, 29.06374
846.1490, 26.23665
846.6311, 21.99791
847.1132, 10.38820
847.5953, 2.895844
848.0775, 12.67635
848.5596, 33.01317
849.0417, 41.66943
849.5238, 27.34445
850.0059, 20.04062
850.4880, 36.27420
850.9702, 52.51323
851.4523, 50.44038
851.9344, 39.57384
852.4165, 37.09795
852.8986, 46.42905
853.3807, 54.61580
853.8629, 58.45010
854.3450, 59.46092
854.8271, 55.93358
855.3092, 49.67943
855.7913, 43.24542
856.2734, 37.34177
856.7556, 32.26489
857.2377, 28.07408
857.7198, 25.38602
858.2019, 27.03891
858.6840, 31.34763
859.1661, 26.89424
859.6483, 14.10999
860.1304, 10.23531
860.6125, 22.72932
861.0946, 41.04645
861.5767, 53.90007
862.0588, 60.67778
862.5410, 51.75063
863.0231, 19.39285
863.5052, 4.986099
863.9873, 23.78990
864.4694, 45.87440
864.9515, 51.71948
865.4337, 44.92430
865.9158, 37.40707
866.3979, 28.69499
866.8800, 20.53145
867.3621, 9.308655
867.8442, 2.985077
868.3264, 10.13888
868.8085, 19.62309
869.2906, 15.53349
869.7727, 1.314163
870.2548, 9.323105
870.7369, 1.820404
871.2191, 13.78035
871.7012, 49.97304
872.1833, 80.33168
872.6654, 73.55112
873.1475, 42.52760
873.6296, 23.17517
874.1118, 28.50842
874.5939, 37.22473
875.0760, 32.38545
875.5581, 23.81071
876.0402, 23.55333
876.5223, 28.50977
877.0045, 31.21315
877.4866, 30.13808
877.9687, 28.83144
878.4508, 30.85403
878.9329, 31.84438
879.4150, 19.92139
879.8972, 0.2323610
880.3793, 5.735268
880.8614, 3.397415
881.3435, 13.76042
881.8256, 18.53270
882.3077, 23.98737
882.7899, 42.30423
883.2720, 70.95633
883.7541, 75.70309
884.2362, 52.46185
884.7183, 32.74605
885.2004, 22.97333
885.6826, 21.02246
886.1647, 27.12601
886.6468, 38.50792
887.1289, 45.23381
887.6110, 44.92152
888.0931, 46.13849
888.5753, 50.37106
889.0574, 53.68323
889.5395, 52.74908
890.0216, 51.31734
890.5037, 54.85834
890.9858, 63.42001
891.4680, 68.88226
891.9501, 72.16765
892.4322, 70.56046
892.9143, 54.74483
893.3964, 42.09280
893.8785, 47.66902
894.3607, 64.69220
894.8428, 79.74080
895.3249, 90.97115
895.8070, 92.50693
896.2891, 72.35759
896.7712, 51.97028
897.2534, 42.91324
897.7355, 43.49593
898.2176, 55.50717
898.6997, 74.89191
899.1818, 86.80322
899.6639, 81.99205
900.1461, 69.16824
900.6282, 52.11838
901.1103, 36.85683
901.5924, 36.32280
902.0745, 45.81566
902.5566, 49.64441
903.0388, 42.71814
903.5209, 32.27090
904.0030, 24.17769
904.4851, 18.10789
904.9672, 11.57220
905.4493, 6.501740
905.9315, 13.83690
906.4136, 33.51741
906.8957, 48.08487
907.3778, 46.88176
907.8599, 50.22748
908.3420, 32.57915
908.8242, 31.74763
909.3063, 19.30821
909.7884, 6.033287
910.2705, 14.58620
910.7526, 4.695099
911.2347, 29.51849
911.7169, 40.32687
912.1990, 40.15584
912.6811, 41.23996
913.1632, 44.49402
913.6453, 44.89281
914.1274, 42.56552
914.6096, 35.65634
915.0917, 20.05508
915.5738, 3.638123
916.0559, 3.103729
916.5380, 4.2699999E-04
917.0201, 7.907959
917.5023, 25.13800
917.9844, 39.39764
918.4665, 49.78221
918.9486, 56.08629
919.4307, 57.63475
919.9128, 55.17361
920.3950, 50.46989
920.8771, 44.34216
921.3592, 32.86995
921.8413, 6.160278
922.3234, 13.82104
922.8055, 17.41689
923.2877, 13.24191
923.7698, 9.867554
924.2519, 6.096184
924.7340, 6.208160
925.2161, 36.19258
925.6982, 57.46103
926.1804, 57.82353
926.6625, 50.34492
927.1446, 34.93573
927.6267, 21.58141
928.1088, 28.53940
928.5909, 55.91290
929.0731, 74.22987
929.5552, 61.81476
930.0373, 46.92912
930.5194, 53.67899
931.0015, 63.31412
931.4836, 47.14867
931.9658, 17.63300
932.4479, 12.60265
932.9300, 43.07784
933.4121, 70.66745
933.8942, 57.21756
934.3763, 32.73950
934.8585, 32.79300
935.3406, 45.95793
935.8227, 53.22040
936.3048, 51.78322
936.7869, 44.04977
937.2690, 30.61668
937.7512, 19.94772
938.2333, 24.02885
938.7154, 37.36610
939.1975, 51.35173
939.6796, 62.37332
940.1617, 53.34518
940.6439, 23.86502
941.1260, 5.266098
941.6081, 23.26328
942.0902, 54.96436
942.5723, 56.41986
943.0544, 35.19711
943.5366, 24.80336
944.0187, 25.99155
944.5008, 22.79468
944.9829, 9.554031
945.4650, 1.524506
945.9471, 3.383713
946.4293, 18.14481
946.9114, 22.11253
947.3935, 15.73964
947.8756, 11.51578
948.3577, 2.401688
948.8398, 15.07172
949.3220, 25.59720
949.8041, 29.54701
950.2862, 7.227707
950.7683, 18.83023
951.2504, 16.83884
951.7325, 14.28999
952.2147, 30.66801
952.6968, 12.17070
953.1789, 28.24875
953.6610, 30.52539
954.1431, 39.11888
954.6252, 34.03435
955.1074, 33.17551
955.5895, 45.99957
956.0716, 51.24878
956.5537, 44.59245
957.0358, 53.59071
957.5179, 34.62280
958.0001, 48.66711
958.4822, 46.19479
958.9643, 47.35318
959.4464, 54.81932
959.9285, 55.71837
960.4106, 42.87743
960.8928, 37.52365
961.3749, 47.94157
961.8570, 66.07939
962.3391, 88.14685
962.8212, 111.9287
963.3033, 125.1535
963.7855, 125.1245
964.2676, 119.6085
964.7497, 101.9053
965.2318, 87.69080
965.7139, 80.21490
966.1960, 80.85312
966.6782, 95.03944
967.1603, 121.5807
967.6424, 139.4174
968.1245, 140.3469
968.6066, 146.0446
969.0887, 164.0523
969.5709, 177.7334
970.0530, 178.9347
970.5351, 171.5554
971.0172, 157.0581
971.4993, 135.4244
971.9814, 126.3011
972.4636, 142.1013
972.9457, 155.5515
973.4278, 166.3167
973.9099, 168.4513
974.3920, 152.1272
974.8741, 128.0250
975.3563, 114.9382
975.8384, 115.5269
976.3205, 114.5590
976.8026, 102.2872
977.2847, 97.55414
977.7668, 119.7252
978.2490, 138.4167
978.7311, 123.8223
979.2132, 92.05154
979.6953, 76.64153
980.1774, 82.86566
980.6595, 83.74184
981.1417, 67.77638
981.6238, 52.73805
982.1059, 42.53065
982.5880, 39.28040
983.0701, 49.88860
983.5522, 66.94730
984.0344, 74.82759
984.5165, 69.27435
984.9986, 59.00070
985.4807, 38.55016
985.9628, 23.99040
986.4449, 25.52237
986.9271, 35.14664
987.4092, 50.63669
987.8913, 66.36392
988.3734, 67.56885
988.8555, 46.62541
989.3376, 26.22339
989.8198, 12.62325
990.3019, 5.411682
990.7840, 8.414001
991.2661, 14.79518
991.7482, 15.32816
992.2303, 11.67119
992.7125, 15.22292
993.1946, 34.84961
993.6767, 45.10335
994.1588, 22.05559
994.6409, 0.2319180
995.1230, 9.037552
995.6052, 27.86333
996.0873, 23.63150
996.5694, 0.7290650
997.0515, 0.9845120
997.5336, 46.13116
998.0157, 79.31221
998.4979, 52.36711
998.9800, 18.96088
999.4621, 17.58945
999.9442, 33.00595
1000.426, 46.60414
1000.908, 53.78429
1001.391, 49.90970
1001.873, 25.36658
1002.355, 7.629913
1002.837, 17.32932
1003.319, 30.56491
1003.801, 27.21962
1004.283, 18.08617
1004.765, 15.76556
1005.247, 23.65045
1005.730, 41.65669
1006.212, 83.71620
1006.694, 109.9706
1007.176, 86.71205
1007.658, 55.41429
1008.140, 48.65300
1008.622, 53.68338
1009.104, 46.25986
1009.587, 26.12953
1010.069, 16.97029
1010.551, 35.58665
1011.033, 52.27277
1011.515, 54.47429
1011.997, 49.02901
1012.479, 33.77319
1012.961, 18.24077
1013.443, 16.11391
1013.926, 27.86331
1014.408, 41.91168
1014.890, 58.84373
1015.372, 69.37642
1015.854, 70.67412
1016.336, 63.13004
1016.818, 35.34956
1017.300, 5.285431
1017.783, 1.909485
1018.265, 25.58916
1018.747, 45.00476
1019.229, 50.46327
1019.711, 49.51460
1020.193, 40.86327
1020.675, 30.80110
1021.157, 23.43124
1021.639, 17.97588
1022.122, 9.905212
1022.604, 0.5341490
1023.086, 4.315323
1023.568, 43.73338
1024.050, 66.76544
1024.532, 44.54128
1025.014, 16.15060
1025.496, 2.947052
1025.979, 1.154892
1026.461, 7.874969
1026.943, 20.74361
1027.425, 25.37465
1027.907, 9.313644
1028.389, 8.5910000E-03
1028.871, 3.990158
1029.353, 15.47600
1029.835, 41.61296
1030.318, 66.86400
1030.800, 69.83807
1031.282, 51.75758
1031.764, 35.56873
1032.246, 23.63106
1032.728, 15.34822
1033.210, 12.23901
1033.692, 10.89455
1034.175, 11.21091
1034.657, 11.49332
1035.139, 10.83003
1035.621, 8.774902
1036.103, 2.136581
1036.585, 20.86971
1037.067, 28.84199
1037.549, 7.764618
1038.031, 13.13470
1038.514, 27.51736
1038.996, 33.36076
1039.478, 23.05473
1039.960, 0.7938390
1040.442, 6.985535
1040.924, 11.24394
1041.406, 20.93344
1041.888, 17.43387
1042.370, 12.38884
1042.853, 6.586845
1043.335, 4.303696
1043.817, 12.95145
1044.299, 28.21373
1044.781, 30.38403
1045.263, 12.21483
1045.745, 1.619049
1046.227, 1.823074
1046.710, 4.875305
1047.192, 30.34782
1047.674, 51.60022
1048.156, 45.39038
1048.638, 22.58423
1049.120, 18.59702
1049.602, 38.92905
1050.084, 48.78369
1050.567, 44.34083
1051.049, 42.42779
1051.531, 35.00148
1052.013, 49.76718
1052.495, 57.58299
1052.977, 58.82446
1053.459, 33.79681
1053.941, 42.69058
1054.423, 37.99046
1054.906, 32.70789
1055.388, 46.37661
1055.870, 25.17004
1056.352, 38.53860
1056.834, 38.10579
1057.316, 43.98958
1057.798, 36.19553
1058.280, 32.62607
1058.762, 42.73965
1059.245, 45.27458
1059.727, 35.90622
1060.209, 42.19252
1060.691, 4.819435
1061.173, 2.092499
1061.655, 12.71692
1062.137, 5.322830
1062.619, 10.24274
1063.102, 0.1040190
1063.584, 19.58115
1064.066, 20.96445
1064.548, 4.779510
1065.030, 3.131706
1065.512, 29.34939
1065.994, 53.46503
1066.476, 38.95984
1066.958, 10.61523
1067.441, 14.52745
1067.923, 36.66885
1068.405, 51.01601
1068.887, 54.15107
1069.369, 42.74786
1069.851, 17.87896
1070.333, 1.901787
1070.815, 1.975960
1071.297, 7.821381
1071.780, 23.80756
1072.262, 38.23230
1072.744, 35.82799
1073.226, 25.32255
1073.708, 27.67986
1074.190, 45.15703
1074.672, 60.54288
1075.154, 66.45589
1075.637, 64.32669
1076.119, 50.94006
1076.601, 34.00000
1077.083, 13.03954
1077.565, 2.942741
1078.047, 2.785759
1078.529, 25.98888
1079.011, 41.18427
1079.493, 38.61959
1079.976, 33.75563
1080.458, 34.71497
1080.940, 31.48913
1081.422, 8.198883
1081.904, 12.73903
1082.386, 3.879440
1082.868, 25.29393
1083.350, 43.95461
1083.833, 46.94250
1084.315, 45.27040
1084.797, 31.57320
1085.279, 25.22246
1085.761, 39.14307
1086.243, 52.96489
1086.725, 49.47005
1087.207, 27.31580
1087.689, 43.41757
1088.172, 52.35495
1088.654, 54.71729
1089.136, 30.81050
1089.618, 40.82549
1090.100, 37.24655
1090.582, 33.11047
1091.064, 47.90057
1091.546, 27.81596
1092.028, 42.30656
1092.511, 42.99575
1092.993, 50.00197
1093.475, 43.33028
1093.957, 40.88370
1094.439, 50.77928
1094.921, 52.59837
1095.403, 43.83513
1095.885, 51.24529
1096.368, 30.68658
1096.850, 34.67188
1097.332, 49.24695
1097.814, 26.01126
1098.296, 16.84957
1098.778, 10.52858
1099.260, 6.564018
1099.742, 5.369537
1100.224, 12.27258
1100.707, 31.93469
1101.189, 50.20850
1101.671, 46.26311
1102.153, 30.60523
1102.635, 16.91367
1103.117, 8.143921
1103.599, 13.32310
1104.081, 28.78688
1104.563, 39.05586
1105.046, 37.82169
1105.528, 33.28587
1106.010, 32.85612
1106.492, 30.14415
1106.974, 12.20996
1107.456, 4.371460
1107.938, 2.906120
1108.420, 24.06978
1108.903, 37.94095
1109.385, 40.46042
1109.867, 40.33281
1110.349, 35.83072
1110.831, 36.80246
1111.313, 54.89674
1111.795, 69.68254
1112.277, 65.42849
1112.760, 54.13196
1113.242, 50.89766
1113.724, 54.63203
1114.206, 54.47791
1114.688, 49.55170
1115.170, 40.86389
1115.652, 20.38689
1116.134, 10.55397
1116.616, 24.37886
1117.099, 38.69316
1117.581, 34.29136
1118.063, 43.69081
1118.545, 45.89518
1119.027, 43.36748
1119.509, 49.83408
1119.991, 40.38049
1120.473, 39.09971
1120.955, 53.35411
1121.438, 59.14267
1121.920, 43.67384
1122.402, 23.31657
1122.884, 17.43288
1123.366, 22.35704
1123.848, 30.71036
1124.330, 40.08076
1124.812, 36.15904
1125.295, 21.24393
1125.777, 11.27534
1126.259, 11.12755
1126.741, 18.01128
1127.223, 31.15436
1127.705, 45.25999
1128.187, 59.35751
1128.669, 66.01971
1129.151, 44.12743
1129.634, 12.78547
1130.116, 7.920448
1130.598, 27.57219
1131.080, 47.99359
1131.562, 61.68289
1132.044, 65.10761
1132.526, 47.77466
1133.008, 30.87610
1133.490, 27.65569
1133.973, 27.82687
1134.455, 19.59825
1134.937, 10.02003
1135.419, 14.37886
1135.901, 34.10909
1136.383, 46.97118
1136.865, 45.54543
1137.347, 45.51945
1137.830, 52.00825
1138.312, 52.98398
1138.794, 37.56805
1139.276, 24.82295
1139.758, 35.58930
1140.240, 60.61876
1140.722, 65.57401
1141.204, 47.64102
1141.687, 31.50421
1142.169, 16.96057
1142.651, 6.312714
1143.133, 0.2252270
1143.615, 4.746689
1144.097, 10.89869
1144.579, 13.62792
1145.061, 6.574135
1145.543, 8.423660
1146.026, 33.63231
1146.508, 61.22336
1146.990, 60.65962
1147.472, 37.55405
1147.954, 24.20325
1148.436, 28.80305
1148.918, 32.68132
1149.400, 21.52045
1149.882, 11.90659
1150.365, 21.28477
1150.847, 37.21602
1151.329, 55.53642
1151.811, 67.07461
1152.293, 53.01452
1152.775, 22.30988
1153.257, 6.677856
1153.739, 15.69297
1154.222, 26.31345
1154.704, 34.20227
1155.186, 39.91988
1155.668, 47.17511
1156.150, 48.45068
1156.632, 28.56535
1157.114, 7.692047
1157.596, 16.34428
1158.078, 50.18707
1158.561, 65.07482
1159.043, 54.50677
1159.525, 49.94022
1160.007, 54.78784
1160.489, 53.64608
1160.971, 40.55707
1161.453, 29.41507
1161.935, 31.20344
1162.417, 38.48419
1162.900, 37.92163
1163.382, 31.37390
1163.864, 25.69997
1164.346, 21.19004
1164.828, 20.08652
1165.310, 21.36720
1165.792, 18.03643
1166.274, 8.280769
1166.757, 6.883629
1167.239, 31.62083
1167.721, 56.09298
1168.203, 51.08506
1168.685, 37.20343
1169.167, 32.88620
1169.649, 35.77716
1170.131, 43.63828
1170.614, 53.25621
1171.096, 55.33432
1171.578, 45.75121
1172.060, 36.91974
1172.542, 31.62798
1173.024, 27.45423
1173.506, 19.55314
1173.988, 18.06690
1174.470, 37.30362
1174.953, 57.68791
1175.435, 48.81627
1175.917, 14.90025
1176.399, 8.539108
1176.881, 22.73866
1177.363, 12.85868
1177.845, 25.23280
1178.327, 46.70720
1178.809, 38.14432
1179.292, 24.31814
1179.774, 22.37874
1180.256, 26.59559
1180.738, 28.80585
1181.220, 30.32940
1181.702, 34.82068
1182.184, 42.25800
1182.666, 48.16067
1183.149, 53.31898
1183.631, 55.25430
1184.113, 53.50177
1184.595, 50.99353
1185.077, 50.31356
1185.559, 47.31311
1186.041, 33.84187
1186.523, 23.91687
1187.005, 30.05938
1187.488, 42.12411
1187.970, 49.90612
1188.452, 53.59630
1188.934, 56.36220
1189.416, 58.19309
1189.898, 59.86089
1190.380, 60.61320
1190.862, 64.13351
1191.344, 74.04803
1191.827, 76.51782
1192.309, 63.99854
1192.791, 47.38142
1193.273, 38.98428
1193.755, 36.60849
1194.237, 33.36965
1194.719, 30.52237
1195.201, 36.53876
1195.684, 49.17253
1196.166, 58.96165
1196.648, 63.77983
1197.130, 63.75739
1197.612, 58.54292
1198.094, 51.22411
1198.576, 42.83079
1199.058, 35.09982
1199.541, 23.77110
1200.023, 19.49304
1200.505, 41.08524
1200.987, 67.47942
1201.469, 61.40098
1201.951, 14.68815
1202.433, 30.35972
1202.915, 39.08497
1203.397, 41.23765
1203.880, 17.12232
1204.362, 26.93196
1204.844, 23.14996
1205.326, 18.81281
1205.808, 33.40431
1206.290, 13.12307
1206.772, 27.41956
1207.254, 27.91703
1207.736, 34.73417
1208.219, 27.87486
1208.701, 25.24424
1209.183, 36.29912
1209.665, 39.78076
1210.147, 31.36187
1210.629, 38.60016
1211.111, 17.87244
1211.593, 21.69117
1212.076, 36.10140
1212.558, 28.38595
1213.040, 32.33865
1213.522, 52.33214
1214.004, 83.07296
1214.486, 108.7535
1214.968, 96.68478
1215.450, 50.69672
1215.932, 26.49088
1216.415, 55.68819
1216.897, 65.19186
1217.379, 36.98190
1217.861, 21.72888
1218.343, 33.70757
1218.825, 52.50212
1219.307, 68.16658
1219.789, 79.15730
1220.271, 83.42612
1220.754, 81.09448
1221.236, 68.01540
1221.718, 48.65398
1222.200, 46.93512
1222.682, 60.11728
1223.164, 70.97694
1223.646, 76.09039
1224.128, 82.50650
1224.611, 94.18338
1225.093, 99.66933
1225.575, 85.08393
1226.057, 67.77836
1226.539, 61.11143
1227.021, 55.50898
1227.503, 34.81026
1227.985, 43.61937
1228.468, 22.47440
1228.950, 55.34128
1229.432, 77.73341
1229.914, 87.04721
1230.396, 92.43999
1230.878, 93.52599
1231.360, 92.53188
1231.842, 90.63380
1232.324, 81.55819
1232.807, 61.24512
1233.289, 38.42498
1233.771, 20.83241
1234.253, 12.25562
1234.735, 29.01743
1235.217, 57.11617
1235.699, 64.73827
1236.181, 56.52624
1236.663, 42.35538
1237.146, 27.90550
1237.628, 26.62203
1238.110, 43.67358
1238.592, 48.87007
1239.074, 0.3082960
1239.556, 21.57990
1240.038, 44.56224
1240.520, 104.3155
1241.003, 93.95068
1241.485, 65.44267
1241.967, 66.29343
1242.449, 84.44610
1242.931, 87.74030
1243.413, 75.97813
1243.895, 65.20005
1244.377, 54.85965
1244.859, 57.11327
1245.342, 71.43317
1245.824, 80.67623
1246.306, 79.03983
1246.788, 72.44968
1247.270, 58.81451
1247.752, 59.05443
1248.234, 56.77080
1248.716, 49.33347
1249.198, 22.91348
1249.681, 1.064499
1250.163, 11.19672
1250.645, 41.83118
1251.127, 50.45909
1251.609, 30.97173
1252.091, 8.259026
1252.573, 3.803223
1253.055, 2.210220
1253.538, 5.888748
1254.020, 0.0000000E+00
##END=



