##NAMES=Wurtzite
##RRUFFID=R130069
##IDEAL CHEMISTRY=Zn^2+^S^2+^
##LOCALITY=Merelani Hills (Mererani), Lelatema Mountains, Arusha Region, Tanzania
##OWNER=RRUFF
##SOURCE=William W. Pinch
##DESCRIPTION=Reddish brown blocky crystals, polytype wurtzite-4H
##STATUS=The identification of this mineral has been confirmed by single-crystal X-ray diffraction.
##URL=rruff.info/R130069
193.9810, 9740.952
194.4631, 9810.729
194.9452, 9883.849
195.4273, 10012.85
195.9094, 10195.63
196.3915, 10343.61
196.8737, 10437.75
197.3558, 10487.58
197.8379, 10518.91
198.3200, 10527.90
198.8021, 10537.02
199.2842, 10564.93
199.7664, 10611.93
200.2485, 10670.41
200.7306, 10744.49
201.2127, 10829.55
201.6948, 10900.96
202.1769, 10958.67
202.6591, 11005.44
203.1412, 11038.67
203.6233, 11055.69
204.1054, 11081.74
204.5875, 11123.80
205.0696, 11180.18
205.5518, 11236.97
206.0339, 11293.83
206.5160, 11351.47
206.9981, 11406.81
207.4802, 11454.60
207.9623, 11522.26
208.4445, 11626.21
208.9266, 11764.02
209.4087, 11859.87
209.8908, 11898.33
210.3729, 11924.47
210.8550, 11991.84
211.3372, 12112.96
211.8193, 12228.63
212.3014, 12328.46
212.7835, 12411.85
213.2656, 12466.00
213.7477, 12474.79
214.2299, 12477.24
214.7120, 12523.79
215.1941, 12633.07
215.6762, 12733.92
216.1583, 12804.69
216.6404, 12842.26
217.1226, 12901.75
217.6047, 13003.81
218.0868, 13103.34
218.5689, 13139.03
219.0510, 13078.01
219.5331, 13031.29
220.0153, 13028.49
220.4974, 13073.67
220.9795, 13120.63
221.4616, 13174.40
221.9437, 13225.74
222.4258, 13262.62
222.9080, 13278.21
223.3901, 13293.93
223.8722, 13314.48
224.3543, 13340.13
224.8364, 13368.02
225.3185, 13392.75
225.8007, 13423.84
226.2828, 13480.10
226.7649, 13587.94
227.2470, 13666.18
227.7291, 13680.85
228.2112, 13619.07
228.6934, 13595.43
229.1755, 13625.65
229.6576, 13679.71
230.1397, 13717.63
230.6218, 13728.87
231.1039, 13744.28
231.5861, 13769.56
232.0682, 13804.25
232.5503, 13859.94
233.0324, 13960.16
233.5145, 14062.20
233.9966, 14107.28
234.4788, 14055.60
234.9609, 14018.38
235.4430, 14027.97
235.9251, 14092.09
236.4072, 14148.74
236.8893, 14194.58
237.3715, 14235.58
237.8536, 14279.78
238.3357, 14333.07
238.8178, 14379.15
239.2999, 14410.50
239.7820, 14423.04
240.2642, 14449.15
240.7463, 14498.24
241.2284, 14552.39
241.7105, 14587.74
242.1926, 14589.04
242.6747, 14598.81
243.1569, 14630.71
243.6390, 14688.90
244.1211, 14735.27
244.6032, 14770.17
245.0853, 14793.46
245.5674, 14802.13
246.0496, 14782.22
246.5317, 14774.33
247.0138, 14792.05
247.4959, 14838.92
247.9780, 14872.67
248.4601, 14886.24
248.9423, 14894.63
249.4244, 14915.01
249.9065, 14954.07
250.3886, 14992.87
250.8707, 15028.65
251.3528, 15061.38
251.8350, 15087.04
252.3171, 15097.01
252.7992, 15108.86
253.2813, 15143.45
253.7634, 15214.68
254.2455, 15277.17
254.7277, 15320.75
255.2098, 15345.11
255.6919, 15364.24
256.1740, 15372.25
256.6561, 15381.71
257.1382, 15406.88
257.6204, 15458.24
258.1025, 15499.28
258.5846, 15518.35
259.0667, 15517.09
259.5488, 15528.41
260.0309, 15551.49
260.5131, 15588.12
260.9952, 15645.70
261.4773, 15741.19
261.9594, 15811.01
262.4415, 15837.94
262.9236, 15826.94
263.4058, 15824.72
263.8879, 15833.22
264.3700, 15847.54
264.8521, 15860.76
265.3342, 15865.76
265.8163, 15896.05
266.2985, 15968.17
266.7806, 16070.46
267.2627, 16134.95
267.7448, 16149.56
268.2269, 16150.43
268.7090, 16164.14
269.1912, 16194.85
269.6733, 16219.73
270.1554, 16233.21
270.6375, 16239.29
271.1196, 16252.38
271.6017, 16271.05
272.0839, 16300.03
272.5660, 16342.45
273.0481, 16399.22
273.5302, 16467.89
274.0123, 16559.30
274.4944, 16656.35
274.9766, 16701.65
275.4587, 16682.46
275.9408, 16661.82
276.4229, 16686.62
276.9050, 16762.82
277.3871, 16806.37
277.8693, 16798.36
278.3514, 16769.74
278.8335, 16794.32
279.3156, 16880.01
279.7977, 16973.59
280.2798, 17054.74
280.7620, 17122.95
281.2441, 17152.08
281.7262, 17127.62
282.2083, 17087.21
282.6904, 17102.56
283.1725, 17176.90
283.6547, 17258.47
284.1368, 17323.95
284.6189, 17373.84
285.1010, 17419.24
285.5831, 17458.20
286.0652, 17498.71
286.5474, 17559.29
287.0295, 17639.30
287.5116, 17706.96
287.9937, 17735.21
288.4758, 17734.80
288.9579, 17773.12
289.4401, 17856.82
289.9222, 17946.87
290.4043, 17984.56
290.8864, 17977.83
291.3685, 17991.61
291.8506, 18072.24
292.3328, 18189.21
292.8149, 18241.21
293.2970, 18224.43
293.7791, 18193.79
294.2612, 18204.02
294.7433, 18248.04
295.2255, 18299.04
295.7076, 18352.95
296.1897, 18405.40
296.6718, 18448.46
297.1539, 18481.96
297.6360, 18503.59
298.1182, 18500.70
298.6003, 18483.74
299.0824, 18479.59
299.5645, 18499.87
300.0466, 18531.66
300.5287, 18560.23
301.0109, 18585.21
301.4930, 18604.55
301.9751, 18601.13
302.4572, 18593.82
302.9393, 18619.58
303.4214, 18701.74
303.9036, 18791.63
304.3857, 18832.70
304.8678, 18835.32
305.3499, 18838.04
305.8320, 18862.07
306.3141, 18900.32
306.7963, 18947.02
307.2784, 19006.31
307.7605, 19060.29
308.2426, 19091.34
308.7247, 19105.23
309.2068, 19115.99
309.6890, 19125.31
310.1711, 19137.21
310.6532, 19153.06
311.1353, 19171.32
311.6174, 19200.43
312.0995, 19253.05
312.5817, 19318.45
313.0638, 19380.07
313.5459, 19430.40
314.0280, 19476.01
314.5101, 19524.25
314.9922, 19576.42
315.4744, 19616.97
315.9565, 19626.45
316.4386, 19624.48
316.9207, 19633.25
317.4028, 19665.94
317.8849, 19705.80
318.3671, 19745.73
318.8492, 19786.35
319.3313, 19833.66
319.8134, 19893.40
320.2955, 19959.04
320.7776, 20024.54
321.2598, 20115.59
321.7419, 20178.08
322.2240, 20172.18
322.7061, 20115.41
323.1882, 20100.06
323.6703, 20189.68
324.1525, 20293.67
324.6346, 20360.29
325.1167, 20335.00
325.5988, 20340.10
326.0809, 20415.15
326.5630, 20531.08
327.0452, 20608.21
327.5273, 20598.60
328.0094, 20586.39
328.4915, 20600.78
328.9736, 20651.10
329.4557, 20707.40
329.9379, 20775.96
330.4200, 20848.74
330.9021, 20912.43
331.3842, 20970.69
331.8663, 21014.70
332.3484, 21033.79
332.8306, 21018.54
333.3127, 21038.29
333.7948, 21112.63
334.2769, 21204.35
334.7590, 21270.87
335.2411, 21302.04
335.7233, 21332.68
336.2054, 21372.53
336.6875, 21420.65
337.1696, 21449.56
337.6517, 21449.58
338.1339, 21449.77
338.6160, 21473.94
339.0981, 21525.19
339.5802, 21586.77
340.0623, 21657.65
340.5444, 21736.57
341.0266, 21817.36
341.5087, 21902.42
341.9908, 21981.53
342.4729, 22048.55
342.9550, 22102.65
343.4371, 22150.39
343.9193, 22190.23
344.4014, 22226.15
344.8835, 22260.36
345.3656, 22292.98
345.8477, 22337.14
346.3298, 22408.53
346.8120, 22499.66
347.2941, 22570.58
347.7762, 22618.26
348.2583, 22662.76
348.7404, 22746.64
349.2225, 22854.81
349.7047, 22921.21
350.1868, 22893.54
350.6689, 22820.60
351.1510, 22779.40
351.6331, 22770.16
352.1152, 22793.21
352.5974, 22886.63
353.0795, 23007.84
353.5616, 23070.88
354.0437, 23010.84
354.5258, 22936.33
355.0079, 22989.39
355.4901, 23138.33
355.9722, 23242.11
356.4543, 23153.08
356.9364, 23003.74
357.4185, 22935.05
357.9006, 22994.50
358.3828, 23076.64
358.8649, 23123.99
359.3470, 23146.42
359.8291, 23164.40
360.3112, 23186.94
360.7933, 23207.52
361.2755, 23218.27
361.7576, 23215.52
362.2397, 23224.01
362.7218, 23259.21
363.2039, 23308.16
363.6860, 23356.40
364.1682, 23387.73
364.6503, 23430.20
365.1324, 23499.24
365.6145, 23593.96
366.0966, 23677.20
366.5787, 23750.60
367.0609, 23805.91
367.5430, 23837.89
368.0251, 23793.58
368.5072, 23788.79
368.9893, 23857.88
369.4714, 23976.13
369.9536, 24060.95
370.4357, 24091.97
370.9178, 24111.29
371.3999, 24134.23
371.8820, 24161.56
372.3641, 24190.76
372.8463, 24220.05
373.3284, 24251.88
373.8105, 24290.84
374.2926, 24339.30
374.7747, 24389.24
375.2568, 24436.69
375.7390, 24481.59
376.2211, 24541.65
376.7032, 24625.72
377.1853, 24707.08
377.6674, 24753.71
378.1495, 24759.55
378.6317, 24789.27
379.1138, 24868.34
379.5959, 24971.76
380.0780, 25011.85
380.5601, 24982.25
381.0422, 24959.62
381.5244, 25020.62
382.0065, 25144.32
382.4886, 25197.33
382.9707, 25149.01
383.4528, 25080.24
383.9349, 25121.95
384.4171, 25255.05
384.8992, 25373.19
385.3813, 25407.92
385.8634, 25400.64
386.3455, 25424.83
386.8276, 25483.40
387.3098, 25547.95
387.7919, 25596.16
388.2740, 25633.29
388.7561, 25668.75
389.2382, 25707.72
389.7203, 25744.00
390.2025, 25771.15
390.6846, 25789.92
391.1667, 25805.37
391.6488, 25795.28
392.1309, 25796.46
392.6130, 25848.46
393.0952, 25988.70
393.5773, 26112.13
394.0594, 26163.39
394.5415, 26167.77
395.0236, 26172.06
395.5057, 26187.13
395.9879, 26208.34
396.4700, 26232.21
396.9521, 26257.10
397.4342, 26295.63
397.9163, 26362.66
398.3984, 26438.29
398.8806, 26504.37
399.3627, 26545.19
399.8448, 26593.17
400.3269, 26656.94
400.8090, 26733.54
401.2911, 26799.64
401.7733, 26859.64
402.2554, 26904.58
402.7375, 26925.35
403.2196, 26902.27
403.7017, 26905.86
404.1838, 26944.62
404.6660, 27004.66
405.1481, 27057.81
405.6302, 27100.70
406.1123, 27151.28
406.5944, 27224.53
407.0765, 27318.13
407.5587, 27367.29
408.0408, 27361.61
408.5229, 27351.60
409.0050, 27395.38
409.4871, 27488.86
409.9692, 27576.88
410.4514, 27646.43
410.9335, 27704.86
411.4156, 27773.07
411.8977, 27848.40
412.3798, 27908.46
412.8619, 27914.65
413.3441, 27898.77
413.8262, 27932.83
414.3083, 28034.80
414.7904, 28138.58
415.2725, 28169.01
415.7546, 28154.46
416.2368, 28154.30
416.7189, 28224.06
417.2010, 28298.28
417.6831, 28307.88
418.1652, 28257.38
418.6473, 28235.00
419.1295, 28316.78
419.6116, 28434.22
420.0937, 28525.55
420.5758, 28566.94
421.0579, 28594.75
421.5400, 28605.02
422.0222, 28610.36
422.5043, 28642.21
422.9864, 28735.95
423.4685, 28832.99
423.9506, 28916.01
424.4327, 28987.25
424.9149, 29030.88
425.3970, 29013.98
425.8791, 28987.49
426.3612, 29002.72
426.8433, 29082.88
427.3254, 29168.68
427.8076, 29260.44
428.2897, 29353.58
428.7718, 29405.64
429.2539, 29395.23
429.7360, 29384.61
430.2181, 29414.40
430.7003, 29491.56
431.1824, 29560.12
431.6645, 29614.54
432.1466, 29664.87
432.6287, 29734.37
433.1108, 29823.43
433.5930, 29894.39
434.0751, 29926.47
434.5572, 29930.87
435.0393, 29933.47
435.5214, 29933.73
436.0035, 29960.01
436.4857, 30064.11
436.9678, 30212.82
437.4499, 30325.60
437.9320, 30376.24
438.4141, 30401.89
438.8962, 30433.99
439.3784, 30472.72
439.8605, 30519.03
440.3426, 30577.24
440.8247, 30640.20
441.3068, 30705.32
441.7889, 30772.30
442.2711, 30832.10
442.7532, 30877.86
443.2353, 30914.65
443.7174, 30947.76
444.1995, 30958.22
444.6816, 30986.49
445.1638, 31062.55
445.6459, 31171.83
446.1280, 31250.73
446.6101, 31247.07
447.0922, 31246.64
447.5743, 31291.89
448.0565, 31412.99
448.5386, 31503.32
449.0207, 31555.43
449.5028, 31580.99
449.9849, 31588.11
450.4670, 31554.92
450.9492, 31555.04
451.4313, 31616.80
451.9134, 31729.10
452.3955, 31808.03
452.8776, 31848.38
453.3597, 31870.44
453.8419, 31880.38
454.3240, 31878.86
454.8061, 31891.39
455.2882, 31919.84
455.7703, 31963.22
456.2524, 32029.72
456.7346, 32115.14
457.2167, 32185.35
457.6988, 32206.23
458.1809, 32212.13
458.6630, 32271.64
459.1451, 32380.93
459.6273, 32491.96
460.1094, 32565.31
460.5915, 32618.26
461.0736, 32675.85
461.5557, 32753.98
462.0378, 32816.18
462.5200, 32821.32
463.0021, 32795.34
463.4842, 32788.48
463.9663, 32821.93
464.4484, 32878.18
464.9305, 32961.38
465.4127, 33074.19
465.8948, 33160.75
466.3769, 33185.47
466.8590, 33194.02
467.3411, 33219.23
467.8232, 33282.19
468.3054, 33336.65
468.7875, 33367.14
469.2696, 33389.87
469.7517, 33451.21
470.2338, 33581.14
470.7159, 33691.90
471.1981, 33744.00
471.6802, 33734.07
472.1623, 33748.18
472.6444, 33785.11
473.1265, 33848.00
473.6086, 33955.79
474.0908, 34107.12
474.5729, 34222.82
475.0550, 34280.79
475.5371, 34307.80
476.0192, 34348.16
476.5013, 34401.38
476.9835, 34463.49
477.4656, 34542.92
477.9477, 34626.36
478.4298, 34691.78
478.9119, 34737.87
479.3940, 34774.16
479.8762, 34798.72
480.3583, 34821.05
480.8404, 34854.13
481.3225, 34907.64
481.8046, 34965.78
482.2867, 35017.81
482.7689, 35068.74
483.2510, 35130.73
483.7331, 35256.73
484.2152, 35354.21
484.6973, 35359.96
485.1794, 35238.82
485.6616, 35190.32
486.1437, 35300.21
486.6258, 35447.77
487.1079, 35539.47
487.5900, 35527.20
488.0721, 35544.94
488.5543, 35617.61
489.0364, 35722.93
489.5185, 35792.63
490.0006, 35812.48
490.4827, 35838.23
490.9648, 35905.77
491.4470, 36010.95
491.9291, 36054.47
492.4112, 36024.78
492.8933, 35988.04
493.3754, 36006.17
493.8575, 36074.29
494.3397, 36178.70
494.8218, 36332.86
495.3039, 36490.21
495.7860, 36575.71
496.2681, 36606.07
496.7502, 36637.30
497.2324, 36713.28
497.7145, 36795.95
498.1966, 36840.48
498.6787, 36844.69
499.1608, 36863.41
499.6429, 36949.47
500.1251, 37049.86
500.6072, 37117.05
501.0893, 37085.86
501.5714, 37093.89
502.0535, 37206.02
502.5356, 37376.45
503.0178, 37501.51
503.4999, 37561.88
503.9820, 37589.07
504.4641, 37569.33
504.9462, 37498.00
505.4283, 37515.13
505.9105, 37674.74
506.3926, 37840.50
506.8747, 37888.60
507.3568, 37790.91
507.8389, 37778.05
508.3210, 37890.22
508.8032, 38062.01
509.2853, 38188.72
509.7674, 38271.26
510.2495, 38325.71
510.7316, 38336.53
511.2137, 38332.93
511.6959, 38396.74
512.1780, 38520.73
512.6601, 38623.66
513.1422, 38611.25
513.6243, 38555.84
514.1064, 38558.11
514.5886, 38652.05
515.0707, 38744.15
515.5528, 38751.23
516.0349, 38726.80
516.5170, 38748.14
516.9991, 38893.45
517.4813, 39035.15
517.9634, 39135.63
518.4455, 39196.87
518.9276, 39240.22
519.4097, 39227.08
519.8918, 39232.88
520.3740, 39291.70
520.8561, 39423.10
521.3382, 39546.60
521.8203, 39673.61
522.3024, 39778.11
522.7845, 39811.26
523.2667, 39748.77
523.7488, 39755.87
524.2309, 39890.52
524.7130, 40089.77
525.1951, 40185.20
525.6772, 40179.36
526.1594, 40176.92
526.6415, 40250.48
527.1236, 40368.46
527.6057, 40461.08
528.0878, 40526.15
528.5699, 40577.75
529.0521, 40612.26
529.5342, 40645.27
530.0163, 40700.17
530.4984, 40797.75
530.9805, 40890.83
531.4626, 40946.83
531.9448, 40979.74
532.4269, 41016.41
532.9090, 41061.25
533.3911, 41113.85
533.8732, 41168.01
534.3553, 41222.13
534.8375, 41309.36
535.3196, 41464.47
535.8017, 41616.14
536.2838, 41722.67
536.7659, 41767.60
537.2480, 41812.39
537.7302, 41854.46
538.2123, 41899.81
538.6944, 41963.05
539.1765, 42047.39
539.6586, 42110.82
540.1407, 42128.88
540.6229, 42130.79
541.1050, 42200.24
541.5871, 42330.18
542.0692, 42443.66
542.5513, 42479.35
543.0334, 42475.43
543.5156, 42487.14
543.9977, 42518.97
544.4798, 42560.57
544.9619, 42599.75
545.4440, 42646.58
545.9261, 42713.46
546.4083, 42823.51
546.8904, 42923.88
547.3725, 42979.62
547.8546, 43012.14
548.3367, 43069.16
548.8188, 43166.16
549.3010, 43278.57
549.7831, 43411.26
550.2652, 43563.17
550.7473, 43677.32
551.2294, 43747.37
551.7115, 43790.63
552.1937, 43806.82
552.6758, 43789.51
553.1579, 43817.94
553.6400, 43905.18
554.1221, 44014.12
554.6042, 44098.54
555.0864, 44161.09
555.5685, 44215.55
556.0506, 44261.48
556.5327, 44306.02
557.0148, 44361.20
557.4969, 44423.69
557.9791, 44482.36
558.4612, 44517.57
558.9433, 44554.02
559.4254, 44616.29
559.9075, 44706.46
560.3896, 44790.17
560.8718, 44848.62
561.3539, 44897.30
561.8360, 44947.52
562.3181, 45003.75
562.8002, 45058.95
563.2823, 45120.81
563.7645, 45179.47
564.2466, 45214.66
564.7287, 45204.72
565.2108, 45222.11
565.6929, 45288.58
566.1750, 45394.48
566.6572, 45502.09
567.1393, 45611.29
567.6214, 45716.99
568.1035, 45815.42
568.5856, 45907.20
569.0677, 46007.19
569.5499, 46116.43
570.0320, 46204.25
570.5141, 46211.23
570.9962, 46183.49
571.4783, 46199.17
571.9604, 46292.70
572.4426, 46401.59
572.9247, 46500.29
573.4068, 46585.01
573.8889, 46651.13
574.3710, 46665.70
574.8531, 46693.09
575.3353, 46764.54
575.8174, 46876.72
576.2995, 46972.83
576.7816, 47038.05
577.2637, 47102.18
577.7458, 47178.21
578.2280, 47266.71
578.7101, 47367.10
579.1922, 47489.15
579.6743, 47601.36
580.1564, 47660.31
580.6385, 47669.19
581.1207, 47692.29
581.6028, 47741.43
582.0849, 47806.97
582.5670, 47881.76
583.0491, 47961.32
583.5313, 48035.22
584.0134, 48078.41
584.4955, 48127.01
584.9776, 48216.00
585.4597, 48341.43
585.9418, 48479.98
586.4240, 48651.02
586.9061, 48807.68
587.3882, 48921.46
587.8703, 48978.04
588.3524, 49031.11
588.8345, 49086.15
589.3167, 49140.43
589.7988, 49191.67
590.2809, 49238.75
590.7630, 49284.55
591.2451, 49326.08
591.7272, 49370.23
592.2094, 49430.44
592.6915, 49506.70
593.1736, 49594.80
593.6557, 49704.08
594.1378, 49817.30
594.6199, 49873.87
595.1021, 49882.92
595.5842, 49922.31
596.0663, 50098.95
596.5484, 50303.91
597.0305, 50386.49
597.5126, 50329.72
597.9948, 50306.96
598.4769, 50466.06
598.9590, 50672.99
599.4411, 50812.25
599.9232, 50818.83
600.4053, 50828.41
600.8875, 50844.67
601.3696, 50880.63
601.8517, 50961.16
602.3338, 51125.24
602.8159, 51254.68
603.2980, 51319.29
603.7802, 51337.01
604.2623, 51373.16
604.7444, 51428.33
605.2265, 51492.10
605.7086, 51558.11
606.1907, 51627.77
606.6729, 51708.94
607.1550, 51800.63
607.6371, 51897.11
608.1192, 52000.70
608.6013, 52102.17
609.0834, 52182.97
609.5656, 52234.09
610.0477, 52294.70
610.5298, 52402.59
611.0119, 52525.61
611.4940, 52629.07
611.9761, 52707.88
612.4583, 52763.82
612.9404, 52769.93
613.4225, 52759.13
613.9046, 52810.08
614.3867, 52957.95
614.8688, 53092.47
615.3510, 53174.33
615.8331, 53215.20
616.3152, 53296.64
616.7973, 53420.88
617.2794, 53550.40
617.7615, 53659.15
618.2437, 53750.45
618.7258, 53837.25
619.2079, 53919.85
619.6900, 53997.28
620.1721, 54070.98
620.6542, 54137.64
621.1364, 54189.15
621.6185, 54209.64
622.1006, 54248.90
622.5827, 54363.99
623.0648, 54502.02
623.5469, 54588.89
624.0291, 54537.76
624.5112, 54528.27
624.9933, 54604.88
625.4754, 54741.94
625.9575, 54847.42
626.4396, 54912.80
626.9218, 54976.76
627.4039, 55055.32
627.8860, 55145.52
628.3681, 55228.18
628.8502, 55302.93
629.3323, 55375.58
629.8145, 55447.80
630.2966, 55520.84
630.7787, 55603.15
631.2608, 55696.50
631.7429, 55778.87
632.2250, 55811.80
632.7072, 55834.20
633.1893, 55890.55
633.6714, 56010.82
634.1535, 56130.66
634.6356, 56239.30
635.1177, 56334.75
635.5999, 56416.30
636.0820, 56480.64
636.5641, 56537.33
637.0462, 56591.09
637.5283, 56637.52
638.0104, 56650.70
638.4926, 56620.90
638.9747, 56623.47
639.4568, 56708.26
639.9389, 56850.17
640.4210, 56966.11
640.9031, 57058.16
641.3853, 57135.49
641.8674, 57205.18
642.3495, 57264.93
642.8316, 57295.75
643.3137, 57289.57
643.7958, 57325.11
644.2780, 57473.17
644.7601, 57663.44
645.2422, 57834.20
645.7243, 57975.99
646.2064, 58093.84
646.6885, 58179.09
647.1707, 58246.16
647.6528, 58313.49
648.1349, 58385.17
648.6170, 58438.03
649.0991, 58452.29
649.5812, 58461.20
650.0634, 58563.40
650.5455, 58752.34
651.0276, 58919.77
651.5097, 58999.42
651.9918, 59039.59
652.4739, 59113.16
652.9561, 59215.36
653.4382, 59326.14
653.9203, 59459.99
654.4024, 59576.77
654.8845, 59631.26
655.3666, 59610.13
655.8488, 59636.41
656.3309, 59802.59
656.8130, 59974.93
657.2951, 60065.19
657.7772, 60017.15
658.2593, 60044.44
658.7415, 60172.41
659.2236, 60335.04
659.7057, 60458.10
660.1878, 60541.92
660.6699, 60621.10
661.1520, 60700.56
661.6342, 60777.03
662.1163, 60847.64
662.5984, 60911.15
663.0805, 60963.16
663.5626, 60969.74
664.0447, 60996.80
664.5269, 61117.40
665.0090, 61298.00
665.4911, 61443.88
665.9732, 61491.52
666.4553, 61533.57
666.9374, 61615.70
667.4196, 61734.02
667.9017, 61801.63
668.3838, 61789.59
668.8659, 61784.31
669.3480, 61833.02
669.8301, 61935.35
670.3123, 62042.49
670.7944, 62157.98
671.2765, 62254.23
671.7586, 62283.35
672.2407, 62279.40
672.7228, 62318.36
673.2050, 62412.54
673.6871, 62534.03
674.1692, 62687.91
674.6513, 62846.41
675.1334, 62974.74
675.6155, 63047.76
676.0977, 63115.38
676.5798, 63183.77
677.0619, 63253.13
677.5440, 63322.34
678.0261, 63385.13
678.5082, 63460.52
678.9904, 63551.34
679.4725, 63658.47
679.9546, 63805.01
680.4367, 63990.13
680.9188, 64131.43
681.4009, 64171.52
681.8831, 64160.25
682.3652, 64173.96
682.8473, 64214.29
683.3294, 64286.77
683.8115, 64411.19
684.2936, 64556.87
684.7758, 64719.10
685.2579, 64894.98
685.7400, 65032.34
686.2221, 65068.23
686.7042, 65100.96
687.1863, 65178.60
687.6685, 65304.74
688.1506, 65468.33
688.6327, 65695.22
689.1148, 65910.65
689.5969, 66044.39
690.0790, 66100.38
690.5612, 66116.23
691.0433, 66081.46
691.5254, 66073.60
692.0075, 66229.92
692.4896, 66467.61
692.9717, 66628.98
693.4539, 66640.35
693.9360, 66625.98
694.4181, 66645.26
694.9002, 66687.66
695.3823, 66737.12
695.8644, 66800.98
696.3466, 66859.28
696.8287, 66896.47
697.3108, 66931.92
697.7929, 67021.67
698.2750, 67185.41
698.7571, 67338.45
699.2393, 67459.95
699.7214, 67550.15
700.2035, 67590.45
700.6856, 67587.52
701.1677, 67596.35
701.6498, 67652.20
702.1320, 67734.23
702.6141, 67818.57
703.0962, 67905.41
703.5783, 68004.45
704.0604, 68112.16
704.5425, 68238.70
705.0247, 68405.87
705.5068, 68634.95
705.9889, 68773.56
706.4710, 68754.91
706.9531, 68730.09
707.4352, 68814.42
707.9174, 69024.06
708.3995, 69136.13
708.8816, 69127.42
709.3637, 69117.95
709.8458, 69264.16
710.3279, 69505.14
710.8101, 69696.69
711.2922, 69814.25
711.7743, 69875.02
712.2564, 69849.09
712.7385, 69793.72
713.2206, 69777.16
713.7028, 69833.60
714.1849, 69909.43
714.6670, 69998.99
715.1491, 70101.28
715.6312, 70222.77
716.1133, 70382.08
716.5955, 70496.95
717.0776, 70527.80
717.5597, 70534.65
718.0418, 70661.59
718.5239, 70896.87
719.0060, 71120.45
719.4882, 71284.32
719.9703, 71411.51
720.4524, 71527.10
720.9345, 71629.05
721.4166, 71716.84
721.8987, 71768.37
722.3809, 71824.50
722.8630, 71921.13
723.3451, 72048.77
723.8272, 72119.88
724.3093, 72067.89
724.7914, 72055.38
725.2736, 72154.64
725.7557, 72355.63
726.2378, 72529.85
726.7199, 72680.16
727.2020, 72804.52
727.6841, 72897.81
728.1663, 72968.69
728.6484, 73027.81
729.1305, 73076.74
729.6126, 73130.18
730.0947, 73185.39
730.5768, 73257.41
731.0590, 73372.96
731.5411, 73552.65
732.0232, 73678.19
732.5053, 73645.27
732.9874, 73617.27
733.4695, 73705.50
733.9517, 73962.22
734.4338, 74142.16
734.9159, 74231.95
735.3980, 74283.82
735.8801, 74347.57
736.3622, 74420.78
736.8444, 74487.41
737.3265, 74540.32
737.8086, 74615.20
738.2907, 74787.09
738.7728, 74986.40
739.2549, 75117.30
739.7371, 75110.41
740.2192, 75111.52
740.7013, 75158.95
741.1834, 75238.89
741.6655, 75332.19
742.1476, 75438.51
742.6298, 75556.27
743.1119, 75686.81
743.5940, 75824.02
744.0761, 75944.73
744.5582, 76052.21
745.0403, 76211.08
745.5225, 76471.40
746.0046, 76735.30
746.4867, 76872.03
746.9688, 76921.17
747.4509, 76967.39
747.9330, 77045.09
748.4152, 77127.03
748.8973, 77215.53
749.3794, 77302.45
749.8615, 77357.70
750.3436, 77359.38
750.8257, 77374.95
751.3079, 77429.44
751.7900, 77508.69
752.2721, 77543.25
752.7542, 77534.12
753.2363, 77564.28
753.7184, 77707.16
754.2006, 77892.88
754.6827, 78021.43
755.1648, 78097.89
755.6469, 78137.08
756.1290, 78070.22
756.6111, 78038.31
757.0933, 78142.74
757.5754, 78376.20
758.0575, 78568.35
758.5396, 78684.84
759.0217, 78793.88
759.5038, 78930.28
759.9860, 79086.33
760.4681, 79165.22
760.9502, 79156.02
761.4323, 79192.59
761.9144, 79409.23
762.3965, 79714.97
762.8787, 79963.47
763.3608, 80147.13
763.8429, 80257.35
764.3250, 80203.72
764.8071, 80137.91
765.2892, 80175.23
765.7714, 80342.16
766.2535, 80476.41
766.7356, 80544.34
767.2177, 80610.55
767.6998, 80718.24
768.1819, 80873.31
768.6641, 80984.02
769.1462, 81045.70
769.6283, 81093.73
770.1104, 81114.03
770.5925, 81153.58
771.0746, 81345.49
771.5568, 81708.96
772.0389, 82012.39
772.5210, 82032.59
773.0031, 81986.22
773.4852, 82055.13
773.9673, 82320.68
774.4495, 82509.06
774.9316, 82588.73
775.4137, 82614.66
775.8958, 82608.64
776.3779, 82563.46
776.8600, 82588.80
777.3422, 82695.02
777.8243, 82833.23
778.3064, 82961.67
778.7885, 83086.23
779.2706, 83230.88
779.7527, 83409.20
780.2349, 83541.69
780.7170, 83535.23
781.1991, 83488.66
781.6812, 83488.77
782.1633, 83567.80
782.6454, 83661.20
783.1276, 83774.48
783.6097, 83896.76
784.0918, 84012.73
784.5739, 84121.29
785.0560, 84258.73
785.5381, 84434.57
786.0203, 84598.81
786.5024, 84687.52
786.9845, 84727.47
787.4666, 84760.55
787.9487, 84786.30
788.4308, 84837.24
788.9130, 84925.78
789.3951, 85048.80
789.8772, 85207.48
790.3593, 85430.21
790.8414, 85633.05
791.3235, 85819.01
791.8057, 85975.54
792.2878, 86060.08
792.7699, 86080.48
793.2520, 86165.08
793.7341, 86344.95
794.2162, 86533.48
794.6984, 86624.70
795.1805, 86667.83
795.6626, 86742.27
796.1447, 86886.09
796.6268, 87023.85
797.1089, 87148.37
797.5911, 87244.60
798.0732, 87294.53
798.5553, 87269.65
799.0374, 87269.63
799.5195, 87299.96
800.0016, 87358.22
800.4838, 87456.14
800.9659, 87585.51
801.4480, 87696.66
801.9301, 87778.35
802.4122, 87851.27
802.8943, 87922.06
803.3765, 88000.38
803.8586, 88100.04
804.3407, 88230.54
804.8228, 88370.00
805.3049, 88528.52
805.7870, 88685.03
806.2692, 88812.77
806.7513, 88895.25
807.2334, 89018.98
807.7155, 89204.03
808.1976, 89388.15
808.6797, 89469.52
809.1619, 89482.51
809.6440, 89532.21
810.1261, 89647.84
810.6082, 89774.30
811.0903, 89854.92
811.5724, 89931.39
812.0546, 90051.97
812.5367, 90289.24
813.0188, 90466.80
813.5009, 90545.48
813.9830, 90597.84
814.4651, 90706.68
814.9473, 90878.48
815.4294, 91033.44
815.9115, 91165.90
816.3936, 91278.27
816.8757, 91356.36
817.3578, 91420.61
817.8400, 91512.19
818.3221, 91649.89
818.8042, 91777.60
819.2863, 91811.81
819.7684, 91852.73
820.2505, 92009.93
820.7327, 92386.77
821.2148, 92633.90
821.6969, 92708.52
822.1790, 92726.25
822.6611, 92811.61
823.1432, 92951.00
823.6254, 93044.66
824.1075, 93074.86
824.5896, 93121.53
825.0717, 93288.45
825.5538, 93497.17
826.0359, 93660.08
826.5181, 93760.16
827.0002, 93824.55
827.4823, 93842.42
827.9644, 93844.67
828.4465, 93841.95
828.9286, 93821.45
829.4108, 93884.05
829.8929, 94047.02
830.3750, 94227.12
830.8571, 94357.97
831.3392, 94446.96
831.8214, 94498.48
832.3035, 94511.16
832.7856, 94533.39
833.2677, 94558.37
833.7498, 94628.92
834.2319, 94798.93
834.7141, 95118.13
835.1962, 95328.80
835.6783, 95371.55
836.1604, 95400.23
836.6425, 95520.82
837.1246, 95725.30
837.6068, 95904.90
838.0889, 96058.69
838.5710, 96199.43
839.0531, 96344.73
839.5352, 96478.10
840.0173, 96561.03
840.4995, 96594.83
840.9816, 96680.23
841.4637, 96938.16
841.9458, 97169.19
842.4279, 97269.09
842.9100, 97240.96
843.3922, 97278.14
843.8743, 97385.89
844.3564, 97525.14
844.8385, 97697.26
845.3206, 97876.53
845.8027, 97991.12
846.2849, 98050.96
846.7670, 98110.92
847.2491, 98212.37
847.7312, 98313.99
848.2133, 98388.25
848.6954, 98439.64
849.1776, 98510.60
849.6597, 98629.42
850.1418, 98714.45
850.6239, 98707.30
851.1060, 98664.43
851.5881, 98812.88
852.0703, 99128.59
852.5524, 99404.22
853.0345, 99497.52
853.5166, 99537.47
853.9987, 99607.51
854.4808, 99716.88
854.9630, 99891.16
855.4451, 100284.4
855.9272, 100549.7
856.4093, 100549.7
856.8914, 100411.9
857.3735, 100441.4
857.8557, 100652.7
858.3378, 100854.5
858.8199, 101000.5
859.3020, 101108.3
859.7841, 101203.6
860.2662, 101280.1
860.7484, 101317.6
861.2305, 101247.8
861.7126, 101232.9
862.1947, 101367.3
862.6768, 101581.0
863.1589, 101774.0
863.6411, 101957.5
864.1232, 102086.7
864.6053, 102142.2
865.0874, 102178.7
865.5695, 102266.1
866.0516, 102394.5
866.5338, 102544.5
867.0159, 102723.7
867.4980, 102871.2
867.9801, 102867.7
868.4622, 102857.1
868.9443, 102998.7
869.4265, 103450.8
869.9086, 103723.4
870.3907, 103752.1
870.8728, 103701.0
871.3549, 103693.4
871.8370, 103726.2
872.3192, 103743.3
872.8013, 103741.4
873.2834, 103789.0
873.7655, 103987.8
874.2476, 104233.5
874.7297, 104427.0
875.2119, 104559.1
875.6940, 104658.6
876.1761, 104672.9
876.6582, 104718.0
877.1403, 104860.3
877.6224, 105087.3
878.1046, 105218.4
878.5867, 105250.0
879.0688, 105271.8
879.5509, 105321.9
880.0330, 105404.0
880.5151, 105535.8
880.9973, 105708.3
881.4794, 105883.4
881.9615, 106084.4
882.4436, 106245.4
882.9257, 106315.8
883.4078, 106331.1
883.8900, 106399.6
884.3721, 106535.3
884.8542, 106643.4
885.3363, 106677.3
885.8184, 106699.6
886.3005, 106826.6
886.7827, 107030.7
887.2648, 107242.5
887.7469, 107454.1
888.2290, 107639.2
888.7111, 107795.5
889.1932, 107911.9
889.6754, 107966.2
890.1575, 107905.6
890.6396, 107927.1
891.1217, 108060.1
891.6038, 108244.7
892.0859, 108412.5
892.5681, 108571.9
893.0502, 108755.1
893.5323, 108971.1
894.0144, 109173.7
894.4965, 109327.2
894.9786, 109452.3
895.4608, 109565.7
895.9429, 109666.1
896.4250, 109761.4
896.9071, 109853.8
897.3892, 109933.4
897.8713, 109960.5
898.3535, 109959.6
898.8356, 110108.7
899.3177, 110397.6
899.7998, 110658.9
900.2819, 110744.3
900.7640, 110790.4
901.2462, 110918.7
901.7283, 111120.4
902.2104, 111257.9
902.6925, 111265.8
903.1746, 111294.1
903.6567, 111386.7
904.1389, 111532.0
904.6210, 111725.1
905.1031, 111954.3
905.5852, 112114.1
906.0673, 112111.5
906.5494, 112091.1
907.0316, 112178.9
907.5137, 112341.3
907.9958, 112521.0
908.4779, 112732.8
908.9600, 112918.5
909.4421, 113075.2
909.9243, 113200.8
910.4064, 113281.4
910.8885, 113320.8
911.3706, 113397.0
911.8527, 113527.2
912.3348, 113662.4
912.8170, 113750.5
913.2991, 113820.9
913.7812, 113904.7
914.2633, 114006.2
914.7454, 114129.9
915.2275, 114311.3
915.7097, 114474.2
916.1918, 114556.9
916.6739, 114561.8
917.1560, 114647.6
917.6381, 114813.9
918.1202, 115004.5
918.6024, 115204.2
919.0845, 115390.1
919.5666, 115524.8
920.0487, 115616.1
920.5308, 115720.5
921.0129, 115868.7
921.4951, 116011.4
921.9772, 116125.5
922.4593, 116228.9
922.9414, 116397.6
923.4235, 116626.9
923.9056, 116794.4
924.3878, 116833.6
924.8699, 116844.1
925.3520, 116951.1
925.8341, 117103.8
926.3162, 117222.9
926.7983, 117258.9
927.2805, 117302.6
927.7626, 117366.3
928.2447, 117444.4
928.7268, 117522.0
929.2089, 117600.0
929.6910, 117763.1
930.1732, 118026.7
930.6553, 118274.4
931.1374, 118397.6
931.6195, 118448.4
932.1016, 118438.9
932.5837, 118363.5
933.0659, 118450.2
933.5480, 118950.5
934.0301, 119379.3
934.5122, 119503.5
934.9943, 119381.5
935.4764, 119433.7
935.9586, 119653.8
936.4407, 119859.6
936.9228, 119933.6
937.4049, 119974.4
937.8870, 120090.3
938.3691, 120253.3
938.8513, 120396.0
939.3334, 120474.7
939.8155, 120574.3
940.2976, 120717.5
940.7797, 120879.2
941.2618, 121025.9
941.7440, 121157.9
942.2261, 121249.3
942.7082, 121291.3
943.1903, 121329.7
943.6724, 121378.7
944.1545, 121462.6
944.6367, 121610.6
945.1188, 121834.5
945.6009, 122088.0
946.0830, 122409.6
946.5651, 122681.7
947.0472, 122822.7
947.5294, 122845.5
948.0115, 122847.7
948.4936, 122830.3
948.9757, 122815.0
949.4578, 122808.2
949.9399, 122817.5
950.4221, 122850.3
950.9042, 122908.1
951.3863, 122990.6
951.8684, 123103.6
952.3505, 123250.1
952.8326, 123465.8
953.3148, 123678.5
953.7969, 123714.8
954.2790, 123619.9
954.7611, 123580.4
955.2432, 123646.5
955.7253, 123762.4
956.2075, 123919.1
956.6896, 124084.6
957.1717, 124224.7
957.6538, 124320.8
958.1359, 124423.5
958.6180, 124515.1
959.1002, 124648.8
959.5823, 124895.5
960.0644, 125208.7
960.5465, 125437.8
961.0286, 125590.0
961.5107, 125740.9
961.9929, 125961.4
962.4750, 126166.8
962.9571, 126317.4
963.4392, 126416.4
963.9213, 126469.1
964.4034, 126444.0
964.8856, 126511.9
965.3677, 126745.8
965.8498, 127028.6
966.3319, 127138.1
966.8140, 127163.2
967.2961, 127303.7
967.7783, 127681.5
968.2604, 127995.0
968.7425, 128068.6
969.2246, 128080.7
969.7067, 128180.2
970.1888, 128385.1
970.6710, 128520.5
971.1531, 128576.2
971.6352, 128643.3
972.1173, 128833.7
972.5994, 129047.2
973.0815, 129112.4
973.5637, 129059.6
974.0458, 129094.8
974.5279, 129402.8
975.0100, 129661.9
975.4921, 129773.8
975.9742, 129800.6
976.4564, 129906.9
976.9385, 130089.0
977.4206, 130224.1
977.9027, 130262.9
978.3848, 130306.0
978.8669, 130489.6
979.3491, 130717.5
979.8312, 130876.4
980.3133, 130938.5
980.7954, 130931.9
981.2775, 130786.5
981.7596, 130698.3
982.2418, 130852.5
982.7239, 131190.1
983.2060, 131390.7
983.6881, 131464.4
984.1702, 131535.9
984.6523, 131680.9
985.1345, 131842.7
985.6166, 131977.6
986.0987, 132100.1
986.5808, 132279.7
987.0629, 132566.0
987.5450, 132736.1
988.0272, 132716.2
988.5093, 132639.8
988.9914, 132705.4
989.4735, 132868.9
989.9556, 133047.2
990.4377, 133231.5
990.9199, 133396.3
991.4020, 133521.7
991.8841, 133633.0
992.3662, 133737.3
992.8483, 133831.3
993.3304, 134021.6
993.8126, 134317.6
994.2947, 134543.7
994.7768, 134510.0
995.2589, 134402.1
995.7410, 134441.2
996.2231, 134591.5
996.7053, 134748.9
997.1874, 134896.8
997.6695, 135023.4
998.1516, 135109.6
998.6337, 135191.8
999.1158, 135326.3
999.5980, 135510.9
1000.080, 135736.9
1000.562, 136015.8
1001.044, 136247.6
1001.526, 136353.7
1002.009, 136387.2
1002.491, 136356.4
1002.973, 136250.0
1003.455, 136300.7
1003.937, 136561.4
1004.419, 136815.0
1004.901, 136947.5
1005.383, 137025.1
1005.865, 137228.2
1006.348, 137501.3
1006.830, 137691.5
1007.312, 137633.0
1007.794, 137599.8
1008.276, 137676.1
1008.758, 137818.5
1009.240, 137988.3
1009.722, 138182.9
1010.205, 138424.7
1010.687, 138724.3
1011.169, 139002.8
1011.651, 139191.8
1012.133, 139325.9
1012.615, 139425.1
1013.097, 139495.5
1013.579, 139603.3
1014.061, 139814.7
1014.544, 139969.3
1015.026, 139996.7
1015.508, 139960.8
1015.990, 140026.1
1016.472, 140170.8
1016.954, 140301.0
1017.436, 140374.1
1017.918, 140465.7
1018.401, 140664.3
1018.883, 140878.3
1019.365, 141007.9
1019.847, 141021.1
1020.329, 141119.8
1020.811, 141325.4
1021.293, 141503.8
1021.775, 141494.1
1022.257, 141432.8
1022.740, 141569.9
1023.222, 141854.7
1023.704, 142083.1
1024.186, 142106.4
1024.668, 142160.7
1025.150, 142296.3
1025.632, 142482.7
1026.114, 142683.9
1026.596, 142892.2
1027.079, 143074.8
1027.561, 143225.5
1028.043, 143351.6
1028.525, 143445.5
1029.007, 143528.0
1029.489, 143622.4
1029.971, 143733.1
1030.453, 143799.3
1030.936, 143801.7
1031.418, 143830.6
1031.900, 143935.1
1032.382, 144079.6
1032.864, 144176.8
1033.346, 144257.3
1033.828, 144395.2
1034.310, 144698.3
1034.792, 144934.4
1035.275, 145013.6
1035.757, 145034.4
1036.239, 145073.3
1036.721, 145130.7
1037.203, 145225.1
1037.685, 145356.4
1038.167, 145451.0
1038.649, 145365.6
1039.132, 145299.3
1039.614, 145451.2
1040.096, 145779.7
1040.578, 146034.0
1041.060, 146176.4
1041.542, 146306.0
1042.024, 146428.4
1042.506, 146576.0
1042.989, 146844.6
1043.471, 147164.6
1043.953, 147373.4
1044.435, 147415.1
1044.917, 147500.6
1045.399, 147834.2
1045.881, 148099.9
1046.363, 148088.2
1046.845, 147854.7
1047.328, 147877.5
1047.810, 148142.6
1048.292, 148381.0
1048.774, 148453.2
1049.256, 148479.1
1049.738, 148530.9
1050.220, 148611.1
1050.702, 148727.1
1051.184, 148901.8
1051.667, 149053.2
1052.149, 149175.6
1052.631, 149285.0
1053.113, 149396.5
1053.595, 149505.0
1054.077, 149595.0
1054.559, 149670.0
1055.041, 149761.1
1055.523, 149908.1
1056.006, 150038.7
1056.488, 150124.0
1056.970, 150192.8
1057.452, 150320.6
1057.934, 150497.2
1058.416, 150605.8
1058.898, 150614.0
1059.380, 150627.8
1059.863, 150739.4
1060.345, 150887.6
1060.827, 151018.1
1061.309, 151125.9
1061.791, 151260.7
1062.273, 151415.8
1062.755, 151630.3
1063.237, 151963.4
1063.719, 152301.8
1064.202, 152463.8
1064.684, 152503.3
1065.166, 152519.0
1065.648, 152472.3
1066.130, 152533.9
1066.612, 152779.0
1067.094, 153042.7
1067.576, 153171.7
1068.059, 153197.4
1068.541, 153294.0
1069.023, 153458.7
1069.505, 153645.2
1069.987, 153887.4
1070.469, 154077.6
1070.951, 154084.9
1071.433, 154022.5
1071.916, 154110.7
1072.398, 154367.4
1072.880, 154611.3
1073.362, 154819.5
1073.844, 154992.8
1074.326, 155131.0
1074.808, 155233.8
1075.290, 155284.5
1075.772, 155283.3
1076.255, 155325.3
1076.737, 155433.7
1077.219, 155542.9
1077.701, 155621.3
1078.183, 155703.9
1078.665, 155879.7
1079.147, 156111.1
1079.629, 156302.7
1080.111, 156400.9
1080.594, 156544.1
1081.076, 156816.1
1081.558, 157112.5
1082.040, 157376.8
1082.522, 157608.9
1083.004, 157808.6
1083.486, 157976.8
1083.968, 158114.0
1084.450, 158171.4
1084.933, 158251.2
1085.415, 158486.8
1085.897, 158756.2
1086.379, 158855.1
1086.861, 158708.3
1087.343, 158694.6
1087.825, 158844.5
1088.307, 159045.2
1088.790, 159241.0
1089.272, 159404.9
1089.754, 159481.3
1090.236, 159489.6
1090.718, 159541.8
1091.200, 159705.1
1091.682, 159823.5
1092.164, 159852.0
1092.646, 159857.8
1093.129, 159953.4
1093.611, 160104.7
1094.093, 160229.8
1094.575, 160313.8
1095.057, 160394.4
1095.539, 160445.4
1096.021, 160546.6
1096.503, 160769.4
1096.986, 161053.8
1097.468, 161125.9
1097.950, 161020.6
1098.432, 161033.3
1098.914, 161284.9
1099.396, 161608.0
1099.878, 162002.6
1100.360, 162327.1
1100.843, 162406.8
1101.325, 162207.8
1101.807, 162153.0
1102.289, 162252.1
1102.771, 162387.9
1103.253, 162508.6
1103.735, 162616.6
1104.217, 162680.8
1104.699, 162740.8
1105.182, 162878.9
1105.664, 163218.2
1106.146, 163424.1
1106.628, 163459.9
1107.110, 163440.5
1107.592, 163435.1
1108.074, 163463.0
1108.556, 163590.6
1109.038, 163798.9
1109.521, 163981.2
1110.003, 164019.2
1110.485, 164140.0
1110.967, 164445.7
1111.449, 164786.8
1111.931, 164895.5
1112.413, 164834.7
1112.895, 164922.8
1113.377, 165201.2
1113.860, 165426.2
1114.342, 165372.4
1114.824, 165304.3
1115.306, 165368.5
1115.788, 165533.1
1116.270, 165693.1
1116.752, 165850.9
1117.234, 166044.7
1117.717, 166292.0
1118.199, 166545.9
1118.681, 166776.4
1119.163, 166983.6
1119.645, 167166.0
1120.127, 167322.9
1120.609, 167442.0
1121.091, 167512.3
1121.573, 167613.1
1122.056, 167826.0
1122.538, 168005.3
1123.020, 167863.0
1123.502, 167599.3
1123.984, 167535.3
1124.466, 167853.2
1124.948, 168122.1
1125.430, 168331.5
1125.913, 168511.2
1126.395, 168704.7
1126.877, 168874.3
1127.359, 168896.0
1127.841, 168822.7
1128.323, 168797.1
1128.805, 168882.0
1129.287, 169017.2
1129.770, 169236.0
1130.252, 169433.9
1130.734, 169445.5
1131.216, 169346.5
1131.698, 169484.6
1132.180, 169841.3
1132.662, 170189.6
1133.144, 170399.1
1133.626, 170583.9
1134.109, 170804.1
1134.591, 170922.9
1135.073, 171118.7
1135.555, 171133.0
1136.037, 171160.4
1136.519, 171214.0
1137.001, 171260.1
1137.483, 171293.5
1137.965, 171230.3
1138.448, 171389.1
1138.930, 171432.3
1139.412, 171527.2
1139.894, 171712.1
1140.376, 171773.2
1140.858, 172003.3
1141.340, 172251.0
1141.822, 172380.1
1142.304, 172459.8
1142.787, 172550.1
1143.269, 172654.3
1143.751, 172754.8
1144.233, 172845.6
1144.715, 172942.2
1145.197, 173037.5
1145.679, 173155.3
1146.161, 173374.2
1146.644, 173605.5
1147.126, 173706.9
1147.608, 173576.0
1148.090, 173661.7
1148.572, 174058.1
1149.054, 174384.6
1149.536, 174393.0
1150.018, 174293.7
1150.500, 174500.3
1150.983, 174872.4
1151.465, 175127.1
1151.947, 175131.8
1152.429, 175128.9
1152.911, 175129.2
1153.393, 175146.9
1153.875, 175203.2
1154.357, 175280.9
1154.840, 175323.7
1155.322, 175346.1
1155.804, 175391.5
1156.286, 175495.3
1156.768, 175596.4
1157.250, 175668.0
1157.732, 175757.8
1158.214, 175923.0
1158.697, 176145.1
1159.179, 176354.1
1159.661, 176545.9
1160.143, 176707.5
1160.625, 176824.8
1161.107, 176913.8
1161.589, 176932.8
1162.071, 176970.4
1162.553, 177188.3
1163.036, 177545.4
1163.518, 177745.9
1164.000, 177776.2
1164.482, 177767.4
1164.964, 177733.9
1165.446, 177756.8
1165.928, 177896.3
1166.410, 178107.2
1166.892, 178331.5
1167.375, 178566.1
1167.857, 178706.6
1168.339, 178737.0
1168.821, 178761.6
1169.303, 178774.8
1169.785, 178883.3
1170.267, 179253.9
1170.749, 179756.9
1171.231, 180018.5
1171.714, 180039.8
1172.196, 180053.0
1172.678, 180096.9
1173.160, 180184.8
1173.642, 180351.9
1174.124, 180547.3
1174.606, 180738.4
1175.088, 180923.7
1175.571, 181091.2
1176.053, 181244.0
1176.535, 181358.3
1177.017, 181415.1
1177.499, 181482.0
1177.981, 181662.8
1178.463, 181858.1
1178.945, 181947.1
1179.427, 182084.1
1179.910, 182211.0
1180.392, 182233.2
1180.874, 182389.1
1181.356, 182380.8
1181.838, 182351.9
1182.320, 182472.8
1182.802, 182649.7
1183.284, 182763.0
1183.767, 182786.5
1184.249, 182899.0
1184.731, 183126.3
1185.213, 183270.3
1185.695, 183170.4
1186.177, 183048.2
1186.659, 183243.7
1187.141, 183550.0
1187.624, 183644.4
1188.106, 183407.9
1188.588, 183280.9
1189.070, 183270.2
1189.552, 183350.1
1190.034, 183535.0
1190.516, 183773.8
1190.998, 184051.2
1191.480, 184320.3
1191.963, 184494.2
1192.445, 184496.4
1192.927, 184558.9
1193.409, 184685.6
1193.891, 184843.6
1194.373, 185011.8
1194.855, 185193.3
1195.337, 185381.7
1195.819, 185587.1
1196.302, 185839.5
1196.784, 186219.4
1197.266, 186440.6
1197.748, 186456.1
1198.230, 186487.6
1198.712, 186769.3
1199.194, 187132.3
1199.676, 187358.2
1200.158, 187474.0
1200.641, 187556.8
1201.123, 187632.9
1201.605, 187643.7
1202.087, 187570.0
1202.569, 187506.5
1203.051, 187524.1
1203.533, 187614.1
1204.015, 187801.7
1204.498, 188053.5
1204.980, 188256.8
1205.462, 188356.0
1205.944, 188517.2
1206.426, 188778.2
1206.908, 189010.1
1207.390, 189020.0
1207.872, 188969.4
1208.354, 189081.5
1208.837, 189330.4
1209.319, 189550.8
1209.801, 189702.1
1210.283, 189883.1
1210.765, 190118.5
1211.247, 190338.7
1211.729, 190431.7
1212.211, 190497.6
1212.694, 190735.4
1213.176, 190735.5
1213.658, 190719.7
1214.140, 190833.9
1214.622, 190794.5
1215.104, 190670.0
1215.586, 190780.3
1216.068, 190769.6
1216.551, 190729.2
1217.033, 190752.3
1217.515, 190852.0
1217.997, 191058.1
1218.479, 191447.8
1218.961, 191643.3
1219.443, 191537.4
1219.925, 191410.5
1220.407, 191595.4
1220.890, 191917.3
1221.372, 192202.6
1221.854, 192428.8
1222.336, 192612.1
1222.818, 192744.4
1223.300, 192845.5
1223.782, 192903.9
1224.264, 192996.4
1224.746, 193293.8
1225.229, 193608.6
1225.711, 193720.0
1226.193, 193631.8
1226.675, 193614.6
1227.157, 193681.5
1227.639, 193777.8
1228.121, 193903.5
1228.603, 194003.4
1229.085, 193925.4
1229.568, 193863.2
1230.050, 194057.7
1230.532, 194482.6
1231.014, 194747.0
1231.496, 194831.9
1231.978, 194933.6
1232.460, 195106.9
1232.942, 195256.1
1233.425, 195256.5
1233.907, 195220.0
1234.389, 195265.3
1234.871, 195373.6
1235.353, 195361.7
1235.835, 195218.4
1236.317, 195279.2
1236.799, 195672.9
1237.281, 196023.0
1237.764, 195910.7
1238.246, 195714.6
1238.728, 195756.0
1239.210, 195981.2
1239.692, 196142.8
1240.174, 196243.3
1240.656, 196446.0
1241.138, 196813.5
1241.621, 197127.6
1242.103, 197124.2
1242.585, 197103.3
1243.067, 197260.6
1243.549, 197559.8
1244.031, 197931.8
1244.513, 198349.8
1244.995, 198554.4
1245.478, 198449.0
1245.960, 198362.0
1246.442, 198555.6
1246.924, 198754.2
1247.406, 198776.0
1247.888, 198970.2
1248.370, 198863.1
1248.852, 199176.2
1249.334, 199370.2
1249.817, 199362.7
1250.299, 199375.5
1250.781, 199606.9
1251.263, 199767.0
1251.745, 199700.5
1252.227, 199531.3
1252.709, 199582.4
1253.191, 199784.4
1253.673, 199921.9
1254.156, 199936.7
1254.638, 200014.7
1255.120, 200253.9
1255.602, 200507.2
1256.084, 200725.2
1256.566, 200927.5
1257.048, 201148.2
1257.530, 201384.2
1258.012, 201643.8
1258.495, 201937.8
1258.977, 202129.8
1259.459, 202120.0
1259.941, 202204.7
1260.423, 202512.8
1260.905, 202883.5
1261.387, 203085.6
1261.869, 203170.3
1262.352, 203200.8
1262.834, 203182.6
1263.316, 203183.0
1263.798, 203210.7
1264.280, 203242.0
1264.762, 203266.7
1265.244, 203306.5
1265.726, 203412.0
1266.208, 203532.4
1266.691, 203581.6
1267.173, 203750.5
1267.655, 203701.8
1268.137, 204030.5
1268.619, 204281.1
1269.101, 204371.1
1269.583, 204411.5
1270.065, 204511.1
1270.548, 204605.2
1271.030, 204598.5
1271.512, 204530.3
1271.994, 204608.9
1272.476, 204829.8
1272.958, 204940.6
1273.440, 204864.1
1273.922, 204845.3
1274.405, 205210.7
1274.887, 205531.1
1275.369, 205487.9
1275.851, 205253.1
1276.333, 205333.2
1276.815, 205668.4
1277.297, 205975.7
1277.779, 206203.7
1278.261, 206341.7
1278.744, 206272.2
1279.226, 206237.7
1279.708, 206321.6
1280.190, 206486.3
1280.672, 206698.3
1281.154, 206927.2
1281.636, 207096.5
1282.118, 207195.4
1282.600, 207275.3
1283.083, 207345.8
1283.565, 207403.3
1284.047, 207437.8
1284.529, 207485.1
1285.011, 207623.6
1285.493, 207797.3
1285.975, 207930.0
1286.457, 208013.8
1286.939, 208021.5
1287.422, 207893.9
1287.904, 207945.9
1288.386, 208281.8
1288.868, 208610.2
1289.350, 208493.6
1289.832, 208307.4
1290.314, 208521.8
1290.796, 209030.1
1291.279, 209176.2
1291.761, 208904.9
1292.243, 208815.3
1292.725, 208995.3
1293.207, 209241.9
1293.689, 209405.9
1294.171, 209561.9
1294.653, 209793.2
1295.135, 210028.2
1295.618, 210121.0
1296.100, 210088.1
1296.582, 210101.4
1297.064, 210195.2
1297.546, 210305.3
1298.028, 210320.5
1298.510, 210355.5
1298.992, 210470.1
1299.475, 210625.7
1299.957, 210737.1
1300.439, 210861.3
1300.921, 211173.1
1301.403, 211655.2
1301.885, 212113.4
##END=



