##NAMES=Xenotime-(Y)
##RRUFFID=R120080
##IDEAL CHEMISTRY=Y^3+^PO_4_
##LOCALITY=Clora May mine, Chaffee County, Colorado, USA
##OWNER=RRUFF
##SOURCE=Rudy Bolona
##DESCRIPTION=Yellow-brown massive
##STATUS=The identification of this mineral has been confirmed only by single crystal X-ray diffraction.
##URL=rruff.info/R120080
101.2458, 0.0000000E+00
101.7280, 28.88184
102.2101, 45.33008
102.6922, 13.62500
103.1743, 10.19043
103.6564, 34.11914
104.1385, 66.26465
104.6207, 91.08984
105.1028, 85.28418
105.5849, 64.32227
106.0670, 37.35449
106.5491, 12.85547
107.0313, 3.441406
107.5134, 11.15625
107.9955, 13.04395
108.4776, 11.85449
108.9597, 7.862305
109.4418, 2.263672
109.9240, 2.607422
110.4061, 8.794922
110.8882, 18.35352
111.3703, 32.32715
111.8524, 47.86719
112.3345, 57.05957
112.8167, 49.95312
113.2988, 50.97070
113.7809, 62.78516
114.2630, 84.75098
114.7451, 118.4346
115.2272, 164.9844
115.7094, 223.5518
116.1915, 265.3018
116.6736, 280.9482
117.1557, 292.1729
117.6378, 301.5645
118.1199, 311.3848
118.6021, 326.4062
119.0842, 350.9922
119.5663, 386.0098
120.0484, 419.9902
120.5305, 452.9062
121.0126, 484.8691
121.4948, 514.6543
121.9769, 541.6875
122.4590, 569.5332
122.9411, 603.8809
123.4232, 643.5566
123.9053, 682.7344
124.3875, 718.1152
124.8696, 752.0059
125.3517, 789.1055
125.8338, 828.9551
126.3159, 872.5547
126.7980, 917.8652
127.2802, 964.5215
127.7623, 1014.100
128.2444, 1072.996
128.7265, 1142.740
129.2086, 1201.900
129.6907, 1241.891
130.1729, 1276.051
130.6550, 1306.898
131.1371, 1336.252
131.6192, 1368.055
132.1013, 1408.496
132.5834, 1465.969
133.0656, 1517.785
133.5477, 1561.910
134.0298, 1602.371
134.5119, 1641.340
134.9940, 1679.625
135.4761, 1718.518
135.9583, 1760.053
136.4404, 1810.805
136.9225, 1855.785
137.4046, 1888.918
137.8867, 1917.285
138.3688, 1951.078
138.8510, 1996.717
139.3331, 2048.453
139.8152, 2086.193
140.2973, 2104.490
140.7794, 2120.574
141.2615, 2138.041
141.7437, 2157.674
142.2258, 2185.820
142.7079, 2229.982
143.1900, 2282.436
143.6721, 2327.949
144.1542, 2367.869
144.6364, 2409.387
145.1185, 2461.039
145.6006, 2530.771
146.0827, 2614.445
146.5648, 2703.879
147.0469, 2805.574
147.5291, 2907.719
148.0112, 3003.973
148.4933, 3106.738
148.9754, 3221.236
149.4575, 3346.422
149.9396, 3475.316
150.4218, 3615.576
150.9039, 3754.236
151.3860, 3870.230
151.8681, 3950.453
152.3502, 3998.494
152.8323, 4035.035
153.3145, 4063.012
153.7966, 4074.893
154.2787, 4085.547
154.7608, 4095.852
155.2429, 4105.246
155.7250, 4113.361
156.2072, 4119.539
156.6893, 4130.174
157.1714, 4151.543
157.6535, 4170.850
158.1356, 4183.691
158.6177, 4189.705
159.0999, 4204.699
159.5820, 4216.543
160.0641, 4225.256
160.5462, 4228.025
161.0283, 4217.695
161.5104, 4206.900
161.9926, 4207.650
162.4747, 4221.049
162.9568, 4233.938
163.4389, 4230.104
163.9210, 4210.562
164.4031, 4190.176
164.8853, 4172.816
165.3674, 4155.514
165.8495, 4131.801
166.3316, 4099.082
166.8137, 4065.994
167.2958, 4047.859
167.7780, 4039.381
168.2601, 4016.326
168.7422, 3958.625
169.2243, 3874.719
169.7064, 3799.207
170.1885, 3741.781
170.6707, 3685.727
171.1528, 3621.062
171.6349, 3548.488
172.1170, 3471.732
172.5991, 3393.426
173.0812, 3313.639
173.5634, 3231.287
174.0455, 3144.758
174.5276, 3056.395
175.0097, 2965.414
175.4918, 2872.715
175.9739, 2781.441
176.4561, 2697.873
176.9382, 2628.688
177.4203, 2542.893
177.9024, 2428.479
178.3845, 2308.771
178.8666, 2195.221
179.3488, 2089.805
179.8309, 1987.764
180.3130, 1884.113
180.7951, 1782.148
181.2772, 1669.512
181.7593, 1531.320
182.2415, 1393.504
182.7236, 1278.176
183.2057, 1189.645
183.6878, 1113.299
184.1699, 1027.486
184.6520, 928.5391
185.1342, 825.9277
185.6163, 713.0898
186.0984, 599.7949
186.5805, 496.6582
187.0626, 407.0020
187.5447, 326.5176
188.0269, 249.8066
188.5090, 177.8457
188.9911, 104.9785
189.4732, 22.74805
189.9553, 60.21484
190.4374, 126.2207
190.9196, 166.0371
191.4017, 196.5898
191.8838, 246.0781
192.3659, 316.9258
192.8480, 378.2324
193.3301, 407.5742
193.8123, 414.0293
194.2944, 432.0723
194.7765, 478.0859
195.2586, 529.4258
195.7407, 563.4707
196.2228, 580.1445
196.7050, 588.3457
197.1871, 590.9434
197.6692, 588.2891
198.1513, 589.4863
198.6334, 601.8496
199.1155, 613.5039
199.5977, 619.4492
200.0798, 618.4355
200.5619, 606.8945
201.0440, 578.4004
201.5261, 529.6895
202.0082, 480.5527
202.4904, 434.6484
202.9725, 387.0781
203.4546, 335.7188
203.9367, 279.9668
204.4188, 218.8066
204.9009, 151.8887
205.3831, 79.97266
205.8652, 5.8594000E-02
206.3473, 92.92383
206.8294, 189.1230
207.3115, 281.4082
207.7936, 368.9609
208.2758, 457.8535
208.7579, 555.0156
209.2400, 660.7012
209.7221, 775.3066
210.2042, 903.7109
210.6863, 1035.186
211.1685, 1160.814
211.6506, 1279.988
212.1327, 1401.166
212.6148, 1538.434
213.0969, 1695.451
213.5790, 1860.486
214.0612, 2039.416
214.5433, 2221.227
215.0254, 2397.783
215.5075, 2565.957
215.9896, 2736.678
216.4717, 2924.170
216.9539, 3141.135
217.4360, 3347.775
217.9181, 3529.309
218.4002, 3707.750
218.8823, 3909.562
219.3644, 4140.484
219.8466, 4382.824
220.3287, 4610.875
220.8108, 4821.928
221.2929, 5043.500
221.7750, 5288.047
222.2571, 5541.953
222.7393, 5785.773
223.2214, 6013.252
223.7035, 6241.246
224.1856, 6492.365
224.6677, 6763.613
225.1498, 7034.881
225.6320, 7300.922
226.1141, 7563.842
226.5962, 7827.715
227.0783, 8094.840
227.5604, 8359.217
228.0425, 8613.850
228.5247, 8859.711
229.0068, 9113.043
229.4889, 9378.988
229.9710, 9654.041
230.4531, 9934.883
230.9352, 10222.82
231.4174, 10509.65
231.8995, 10787.27
232.3816, 11057.66
232.8637, 11325.41
233.3458, 11592.85
233.8279, 11859.36
234.3101, 12130.97
234.7922, 12412.27
235.2743, 12685.27
235.7564, 12937.93
236.2385, 13175.53
236.7206, 13411.55
237.2028, 13655.88
237.6849, 13903.10
238.1670, 14135.93
238.6491, 14352.05
239.1312, 14554.67
239.6133, 14750.66
240.0955, 14937.04
240.5776, 15110.39
241.0597, 15261.96
241.5418, 15399.80
242.0239, 15561.23
242.5060, 15783.35
242.9882, 15977.87
243.4703, 16111.50
243.9524, 16205.53
244.4345, 16291.80
244.9166, 16387.81
245.3987, 16490.90
245.8809, 16586.97
246.3630, 16690.55
246.8451, 16763.33
247.3272, 16793.62
247.8093, 16789.81
248.2914, 16762.66
248.7736, 16718.69
249.2557, 16659.30
249.7378, 16586.23
250.2199, 16489.05
250.7020, 16387.88
251.1841, 16298.89
251.6663, 16207.07
252.1484, 16091.38
252.6305, 15940.07
253.1126, 15760.75
253.5947, 15577.26
254.0768, 15390.65
254.5590, 15202.08
255.0411, 15014.30
255.5232, 14824.50
256.0053, 14627.47
256.4874, 14420.84
256.9695, 14207.68
257.4517, 13995.93
257.9338, 13800.70
258.4159, 13587.99
258.8980, 13343.04
259.3801, 13088.67
259.8622, 12848.64
260.3444, 12630.78
260.8265, 12422.11
261.3086, 12198.24
261.7907, 11938.70
262.2728, 11693.95
262.7549, 11469.91
263.2371, 11258.00
263.7192, 11053.45
264.2013, 10850.70
264.6834, 10644.07
265.1655, 10425.68
265.6476, 10186.63
266.1298, 9959.055
266.6119, 9746.102
267.0940, 9542.898
267.5761, 9345.445
268.0582, 9152.430
268.5403, 8968.383
269.0225, 8801.574
269.5046, 8659.289
269.9867, 8499.918
270.4688, 8302.297
270.9509, 8100.543
271.4330, 7926.910
271.9152, 7784.680
272.3973, 7649.254
272.8794, 7494.883
273.3615, 7319.883
273.8436, 7169.762
274.3257, 7051.906
274.8079, 6953.598
275.2900, 6871.562
275.7721, 6803.742
276.2542, 6736.906
276.7363, 6657.859
277.2184, 6570.113
277.7006, 6498.438
278.1827, 6449.664
278.6648, 6411.762
279.1469, 6377.434
279.6290, 6346.719
280.1111, 6321.168
280.5933, 6299.941
281.0754, 6286.414
281.5575, 6287.816
282.0396, 6320.148
282.5217, 6348.199
283.0038, 6340.207
283.4860, 6304.562
283.9681, 6285.984
284.4502, 6308.281
284.9323, 6358.230
285.4144, 6404.434
285.8965, 6444.781
286.3787, 6486.734
286.8608, 6529.918
287.3429, 6576.832
287.8250, 6638.352
288.3071, 6720.016
288.7892, 6815.793
289.2714, 6916.828
289.7535, 7022.668
290.2356, 7132.047
290.7177, 7254.715
291.1998, 7380.855
291.6819, 7483.375
292.1641, 7549.914
292.6462, 7603.547
293.1283, 7664.035
293.6104, 7730.977
294.0925, 7814.113
294.5746, 7927.402
295.0568, 8057.594
295.5389, 8180.180
296.0210, 8293.629
296.5031, 8395.258
296.9852, 8480.887
297.4673, 8553.348
297.9495, 8617.180
298.4316, 8664.812
298.9137, 8707.855
299.3958, 8765.637
299.8779, 8841.477
300.3600, 8918.020
300.8422, 8976.031
301.3243, 9027.965
301.8064, 9096.383
302.2885, 9199.715
302.7706, 9309.457
303.2527, 9393.672
303.7349, 9451.672
304.2170, 9498.055
304.6991, 9529.715
305.1812, 9558.297
305.6633, 9602.402
306.1454, 9671.449
306.6276, 9738.234
307.1097, 9776.176
307.5918, 9786.789
308.0739, 9796.402
308.5560, 9814.254
309.0381, 9833.625
309.5203, 9848.336
310.0024, 9858.297
310.4845, 9862.141
310.9666, 9857.289
311.4487, 9844.820
311.9308, 9830.117
312.4130, 9813.047
312.8951, 9795.176
313.3772, 9780.742
313.8593, 9768.430
314.3414, 9750.004
314.8235, 9720.645
315.3057, 9683.410
315.7878, 9646.586
316.2699, 9615.699
316.7520, 9572.527
317.2341, 9492.145
317.7162, 9390.090
318.1984, 9298.816
318.6805, 9239.246
319.1626, 9193.844
319.6447, 9134.707
320.1268, 9060.383
320.6089, 8983.488
321.0911, 8911.945
321.5732, 8839.180
322.0553, 8755.961
322.5374, 8657.188
323.0195, 8554.008
323.5016, 8456.805
323.9838, 8363.820
324.4659, 8272.035
324.9480, 8185.957
325.4301, 8097.809
325.9122, 7997.246
326.3943, 7878.645
326.8765, 7759.758
327.3586, 7658.602
327.8407, 7571.922
328.3228, 7476.992
328.8049, 7363.293
329.2870, 7246.809
329.7692, 7151.328
330.2513, 7073.871
330.7334, 6978.828
331.2155, 6839.434
331.6976, 6672.871
332.1797, 6516.945
332.6619, 6376.715
333.1440, 6242.047
333.6261, 6107.281
334.1082, 5972.453
334.5903, 5835.379
335.0724, 5681.965
335.5546, 5534.852
336.0367, 5436.395
336.5188, 5393.277
337.0009, 5332.848
337.4830, 5197.312
337.9651, 5020.523
338.4473, 4868.914
338.9294, 4760.988
339.4115, 4661.664
339.8936, 4542.492
340.3757, 4405.871
340.8578, 4274.922
341.3400, 4156.328
341.8221, 4048.824
342.3042, 3949.012
342.7863, 3856.695
343.2684, 3768.496
343.7505, 3683.887
344.2327, 3601.965
344.7148, 3522.223
345.1969, 3446.562
345.6790, 3367.613
346.1611, 3268.676
346.6432, 3153.648
347.1254, 3053.156
347.6075, 2986.836
348.0896, 2933.836
348.5717, 2871.121
349.0538, 2796.094
349.5359, 2717.125
350.0181, 2638.652
350.5002, 2560.551
350.9823, 2482.473
351.4644, 2403.086
351.9465, 2325.641
352.4286, 2247.816
352.9108, 2172.152
353.3929, 2110.285
353.8750, 2074.066
354.3571, 2049.828
354.8392, 2002.328
355.3214, 1923.285
355.8035, 1844.188
356.2856, 1778.191
356.7677, 1719.758
357.2498, 1659.410
357.7319, 1594.320
358.2141, 1526.887
358.6962, 1458.578
359.1783, 1389.559
359.6604, 1318.848
360.1425, 1238.367
360.6246, 1160.469
361.1068, 1102.020
361.5889, 1062.105
362.0710, 1022.543
362.5531, 968.2500
363.0352, 898.5000
363.5173, 827.1992
363.9995, 746.6738
364.4816, 671.5469
364.9637, 612.3125
365.4458, 564.5586
365.9279, 516.3340
366.4100, 461.1621
366.8922, 401.9316
367.3743, 350.0820
367.8564, 302.0430
368.3385, 265.1855
368.8206, 252.3867
369.3027, 245.9844
369.7849, 226.9688
370.2670, 190.2207
370.7491, 140.1855
371.2312, 81.72070
371.7133, 10.80273
372.1954, 54.04297
372.6776, 115.5195
373.1597, 168.7168
373.6418, 209.3633
374.1239, 238.7148
374.6060, 262.1016
375.0881, 284.1816
375.5703, 304.6367
376.0524, 327.0645
376.5345, 351.8086
377.0166, 378.4121
377.4987, 414.6523
377.9808, 450.9648
378.4630, 472.3730
378.9451, 471.8184
379.4272, 458.1758
379.9093, 453.0039
380.3914, 468.0742
380.8735, 472.1621
381.3557, 456.2324
381.8378, 435.7812
382.3199, 425.5840
382.8020, 426.1465
383.2841, 423.5879
383.7662, 399.4121
384.2484, 348.8438
384.7305, 312.3105
385.2126, 303.7754
385.6947, 297.0684
386.1768, 288.8574
386.6589, 276.0898
387.1411, 253.6934
387.6232, 217.2129
388.1053, 171.6777
388.5874, 135.4297
389.0695, 115.4805
389.5516, 91.66602
390.0338, 57.73633
390.5159, 19.53516
390.9980, 18.93750
391.4801, 56.45117
391.9622, 91.94727
392.4443, 120.0234
392.9265, 138.6621
393.4086, 171.7246
393.8907, 234.3574
394.3728, 301.8262
394.8549, 363.2402
395.3370, 417.9512
395.8192, 466.0723
396.3013, 503.8496
396.7834, 535.1504
397.2655, 573.7695
397.7476, 622.6230
398.2297, 671.8613
398.7119, 715.4395
399.1940, 756.3730
399.6761, 799.6758
400.1582, 849.4355
400.6403, 894.9004
401.1224, 918.0508
401.6046, 920.7695
402.0867, 940.9746
402.5688, 998.1270
403.0509, 1067.898
403.5330, 1119.961
404.0151, 1153.926
404.4973, 1188.736
404.9794, 1240.545
405.4615, 1296.979
405.9436, 1334.822
406.4257, 1350.117
406.9078, 1354.217
407.3900, 1352.383
407.8721, 1348.732
408.3542, 1356.518
408.8363, 1386.514
409.3184, 1418.422
409.8005, 1439.406
410.2827, 1450.908
410.7648, 1461.270
411.2469, 1475.344
411.7290, 1489.891
412.2111, 1496.152
412.6932, 1492.078
413.1754, 1483.887
413.6575, 1470.840
414.1396, 1458.531
414.6217, 1451.965
415.1038, 1450.592
415.5859, 1447.461
416.0681, 1435.111
416.5502, 1411.711
417.0323, 1397.719
417.5144, 1409.178
417.9965, 1416.398
418.4786, 1397.377
418.9608, 1365.572
419.4429, 1350.299
419.9250, 1367.666
420.4071, 1403.682
420.8892, 1419.947
421.3713, 1403.479
421.8535, 1388.156
422.3356, 1372.535
422.8177, 1356.973
423.2998, 1346.537
423.7819, 1340.918
424.2640, 1334.729
424.7462, 1320.885
425.2283, 1297.879
425.7104, 1280.188
426.1925, 1272.217
426.6746, 1264.881
427.1567, 1255.893
427.6389, 1246.154
428.1210, 1235.842
428.6031, 1223.252
429.0852, 1214.703
429.5673, 1230.262
430.0494, 1281.311
430.5316, 1311.754
431.0137, 1288.787
431.4958, 1255.178
431.9779, 1239.363
432.4600, 1241.637
432.9421, 1241.863
433.4243, 1222.914
433.9064, 1189.775
434.3885, 1161.889
434.8706, 1139.873
435.3527, 1123.285
435.8348, 1116.348
436.3170, 1113.129
436.7991, 1103.658
437.2812, 1085.799
437.7633, 1063.029
438.2454, 1035.678
438.7275, 1004.105
439.2097, 973.7402
439.6918, 947.4941
440.1739, 922.1191
440.6560, 891.0879
441.1381, 852.8789
441.6202, 821.4492
442.1024, 807.1680
442.5845, 800.0410
443.0666, 792.0000
443.5487, 780.9492
444.0308, 758.4961
444.5129, 714.8164
444.9951, 654.2715
445.4772, 609.9219
445.9593, 590.3281
446.4414, 575.4980
446.9235, 562.1367
447.4056, 548.3691
447.8878, 530.7402
448.3699, 508.3223
448.8520, 484.8730
449.3341, 465.4883
449.8162, 452.4297
450.2983, 436.1523
450.7805, 416.6582
451.2626, 394.5332
451.7447, 364.9668
452.2268, 331.8359
452.7089, 305.6328
453.1910, 294.4199
453.6732, 294.4746
454.1553, 291.8203
454.6374, 287.9258
455.1195, 278.6113
455.6016, 259.1133
456.0837, 237.4863
456.5659, 220.8340
457.0480, 209.8535
457.5301, 202.4551
458.0122, 200.0195
458.4943, 201.9023
458.9764, 189.7520
459.4586, 151.9629
459.9407, 117.0449
460.4228, 101.0605
460.9049, 97.61523
461.3870, 96.33984
461.8691, 95.99609
462.3513, 92.64258
462.8334, 77.80469
463.3155, 52.27148
463.7976, 37.50195
464.2797, 48.70312
464.7618, 63.23633
465.2440, 48.40039
465.7261, 3.617188
466.2082, 34.33398
466.6903, 53.74023
467.1724, 59.76758
467.6545, 54.71680
468.1367, 39.47656
468.6188, 25.68164
469.1009, 22.03125
469.5830, 25.43555
470.0651, 21.67969
470.5472, 3.609375
471.0294, 17.46973
471.5115, 1.550781
471.9936, 31.14551
472.4757, 43.51367
472.9578, 31.45898
473.4399, 5.308594
473.9221, 26.09277
474.4042, 68.66211
474.8863, 80.46484
475.3684, 33.64551
475.8505, 11.15430
476.3326, 33.02344
476.8148, 37.04688
477.2969, 32.60254
477.7790, 23.58789
478.2611, 13.32129
478.7432, 9.961914
479.2253, 19.10059
479.7075, 18.49023
480.1896, 10.38867
480.6717, 36.71484
481.1538, 40.66602
481.6359, 25.22559
482.1180, 8.099609
482.6002, 0.4912110
483.0823, 0.3398440
483.5644, 1.993164
484.0465, 6.957031
484.5286, 8.981445
485.0107, 1.209961
485.4929, 8.782227
485.9750, 11.57520
486.4571, 4.660156
486.9392, 3.044922
487.4213, 9.499023
487.9034, 12.32715
488.3856, 3.297852
488.8677, 21.08984
489.3498, 43.00977
489.8319, 44.96973
490.3140, 28.48535
490.7961, 19.16504
491.2783, 20.22949
491.7604, 25.22363
492.2425, 36.66113
492.7246, 49.12891
493.2067, 50.99316
493.6888, 37.97559
494.1710, 20.29102
494.6531, 13.83496
495.1352, 24.67480
495.6173, 27.46387
496.0994, 17.00488
496.5815, 4.795898
497.0637, 1.659180
497.5458, 5.748047
498.0279, 16.79004
498.5100, 40.76172
498.9921, 70.89844
499.4742, 87.91895
499.9564, 83.31836
500.4385, 87.13281
500.9206, 111.3926
501.4027, 138.7900
501.8848, 158.4482
502.3669, 170.8076
502.8491, 183.7695
503.3312, 202.1992
503.8133, 225.3213
504.2954, 252.9629
504.7775, 287.1143
505.2596, 316.6465
505.7418, 333.1182
506.2239, 343.8408
506.7060, 359.6230
507.1881, 382.3174
507.6702, 404.8652
508.1523, 423.1133
508.6345, 439.1621
509.1166, 454.8525
509.5987, 470.2520
510.0808, 490.9092
510.5629, 523.4385
511.0450, 566.4922
511.5272, 601.5596
512.0093, 624.9395
512.4914, 645.6494
512.9735, 664.9316
513.4556, 683.2539
513.9377, 700.1660
514.4199, 716.1514
514.9020, 734.1807
515.3841, 760.0107
515.8662, 797.1475
516.3483, 819.3857
516.8304, 807.6680
517.3126, 799.6211
517.7947, 810.1865
518.2768, 830.4795
518.7589, 846.5049
519.2410, 852.5098
519.7231, 854.2627
520.2053, 860.1279
520.6874, 870.1826
521.1695, 875.8691
521.6516, 873.6924
522.1337, 872.1953
522.6158, 878.1436
523.0980, 887.5840
523.5801, 891.0781
524.0622, 882.7754
524.5443, 871.8438
525.0264, 868.9463
525.5085, 873.1523
525.9907, 876.3164
526.4728, 874.6953
526.9549, 871.3105
527.4370, 871.2871
527.9191, 875.6494
528.4012, 881.0186
528.8834, 886.2100
529.3655, 889.6006
529.8476, 891.9023
530.3297, 893.0518
530.8118, 890.9697
531.2939, 884.2676
531.7761, 876.0410
532.2582, 873.0654
532.7403, 870.3906
533.2224, 876.5186
533.7045, 900.2988
534.1866, 923.3027
534.6688, 933.6426
535.1509, 934.0684
535.6330, 935.3047
536.1151, 944.7354
536.5972, 958.5625
537.0793, 966.1699
537.5615, 966.4824
538.0436, 970.2178
538.5257, 979.2754
539.0078, 991.2920
539.4899, 1003.580
539.9720, 1016.316
540.4542, 1033.360
540.9363, 1064.695
541.4184, 1098.172
541.9005, 1112.901
542.3826, 1109.109
542.8647, 1107.121
543.3469, 1116.875
543.8290, 1135.985
544.3111, 1158.931
544.7932, 1187.616
545.2753, 1214.734
545.7574, 1238.396
546.2396, 1260.162
546.7217, 1279.654
547.2038, 1297.678
547.6859, 1317.773
548.1680, 1342.720
548.6501, 1371.372
549.1323, 1400.704
549.6144, 1433.699
550.0965, 1461.226
550.5786, 1473.978
551.0607, 1488.311
551.5428, 1519.535
552.0250, 1566.139
552.5071, 1611.921
552.9892, 1643.383
553.4713, 1665.845
553.9534, 1694.466
554.4355, 1729.869
554.9177, 1768.603
555.3998, 1813.211
555.8819, 1857.645
556.3640, 1893.256
556.8461, 1918.801
557.3282, 1945.061
557.8104, 1975.229
558.2925, 2008.746
558.7746, 2048.331
559.2567, 2092.611
559.7388, 2129.536
560.2209, 2149.980
560.7031, 2161.035
561.1852, 2185.391
561.6673, 2237.386
562.1494, 2283.311
562.6315, 2320.716
563.1136, 2353.342
563.5958, 2378.862
564.0779, 2401.257
564.5600, 2433.159
565.0421, 2486.537
565.5242, 2550.776
566.0063, 2586.105
566.4885, 2578.026
566.9706, 2582.946
567.4527, 2631.784
567.9348, 2684.927
568.4169, 2712.633
568.8990, 2716.700
569.3812, 2722.014
569.8633, 2741.940
570.3454, 2770.301
570.8275, 2798.854
571.3096, 2827.638
571.7917, 2858.103
572.2739, 2890.619
572.7560, 2925.887
573.2381, 2967.243
573.7202, 3019.268
574.2023, 3060.048
574.6844, 3080.725
575.1666, 3095.396
575.6487, 3112.350
576.1308, 3131.654
576.6129, 3150.680
577.0950, 3167.979
577.5771, 3184.694
578.0593, 3203.904
578.5414, 3227.488
579.0235, 3248.092
579.5056, 3267.685
579.9877, 3281.733
580.4698, 3284.371
580.9520, 3279.876
581.4341, 3277.517
581.9162, 3281.363
582.3983, 3289.242
582.8804, 3299.965
583.3625, 3313.011
583.8447, 3322.487
584.3268, 3325.351
584.8089, 3328.209
585.2910, 3338.759
585.7731, 3356.322
586.2552, 3373.608
586.7374, 3392.441
587.2195, 3408.416
587.7016, 3417.581
588.1837, 3422.871
588.6658, 3430.882
589.1479, 3443.207
589.6301, 3452.569
590.1122, 3448.520
590.5943, 3428.849
591.0764, 3416.841
591.5585, 3419.932
592.0406, 3422.151
592.5228, 3420.088
593.0049, 3414.752
593.4870, 3407.360
593.9691, 3398.116
594.4512, 3387.854
594.9333, 3376.880
595.4155, 3365.283
595.8976, 3352.904
596.3797, 3338.616
596.8618, 3329.424
597.3439, 3336.105
597.8260, 3348.095
598.3082, 3339.651
598.7903, 3301.998
599.2724, 3266.409
599.7545, 3247.289
600.2366, 3232.537
600.7188, 3208.924
601.2009, 3176.170
601.6830, 3142.356
602.1651, 3112.551
602.6472, 3085.863
603.1293, 3058.976
603.6115, 3030.409
604.0936, 3004.463
604.5757, 2987.216
605.0578, 2967.624
605.5399, 2936.446
606.0220, 2896.819
606.5042, 2859.395
606.9863, 2831.485
607.4684, 2806.602
607.9505, 2771.754
608.4326, 2727.564
608.9147, 2693.174
609.3969, 2677.758
609.8790, 2664.309
610.3611, 2634.039
610.8432, 2588.278
611.3253, 2542.205
611.8074, 2494.767
612.2896, 2450.431
612.7717, 2414.514
613.2538, 2382.655
613.7359, 2347.259
614.2180, 2305.621
614.7001, 2261.209
615.1823, 2217.634
615.6644, 2175.001
616.1465, 2137.750
616.6286, 2114.415
617.1107, 2084.312
617.5928, 2037.604
618.0750, 1985.107
618.5571, 1936.615
619.0392, 1894.449
619.5213, 1858.076
620.0034, 1831.809
620.4855, 1809.433
620.9677, 1775.798
621.4498, 1730.514
621.9319, 1683.366
622.4140, 1637.316
622.8961, 1595.142
623.3782, 1562.600
623.8604, 1543.016
624.3425, 1518.376
624.8246, 1485.529
625.3067, 1448.762
625.7888, 1407.750
626.2709, 1365.131
626.7531, 1325.093
627.2352, 1290.297
627.7173, 1259.789
628.1994, 1234.013
628.6815, 1214.992
629.1636, 1186.475
629.6458, 1139.538
630.1279, 1094.094
630.6100, 1061.863
631.0921, 1036.686
631.5742, 1007.851
632.0563, 971.3115
632.5385, 935.7134
633.0206, 909.5010
633.5027, 887.6724
633.9848, 859.3120
634.4669, 823.1855
634.9490, 788.5396
635.4312, 762.3657
635.9133, 742.7358
636.3954, 719.5830
636.8775, 686.4453
637.3596, 658.9067
637.8417, 643.9473
638.3239, 629.7837
638.8060, 606.8901
639.2881, 576.8403
639.7702, 547.5659
640.2523, 523.7207
640.7344, 503.4980
641.2166, 484.7661
641.6987, 467.4644
642.1808, 448.8120
642.6629, 428.0332
643.1450, 405.5684
643.6271, 379.4014
644.1093, 351.2046
644.5914, 328.6826
645.0735, 315.9175
645.5556, 305.9009
646.0377, 297.2935
646.5198, 288.6436
647.0020, 278.8989
647.4841, 267.5898
647.9662, 252.1641
648.4483, 229.1938
648.9304, 200.8599
649.4125, 181.2012
649.8947, 176.1758
650.3768, 169.2051
650.8589, 154.4565
651.3410, 139.4058
651.8231, 130.9741
652.3052, 127.8560
652.7874, 121.3975
653.2695, 104.3101
653.7516, 84.49902
654.2337, 71.76514
654.7158, 65.11035
655.1979, 60.47607
655.6801, 56.99316
656.1622, 53.67285
656.6443, 48.94385
657.1264, 42.68018
657.6085, 38.76367
658.0906, 42.43115
658.5728, 41.76660
659.0549, 30.96973
659.5370, 16.02393
660.0191, 2.041992
660.5012, 9.744141
660.9833, 19.54639
661.4655, 26.81250
661.9476, 32.76758
662.4297, 40.64893
662.9118, 50.67627
663.3939, 60.71777
663.8760, 71.84668
664.3582, 80.43457
664.8403, 79.20605
665.3224, 69.19727
665.8045, 64.86963
666.2866, 76.45752
666.7687, 85.88623
667.2509, 79.71582
667.7330, 65.63525
668.2151, 56.25732
668.6972, 54.99121
669.1793, 57.35352
669.6614, 58.88232
670.1436, 59.82715
670.6257, 64.35010
671.1078, 76.41016
671.5899, 84.02734
672.0720, 80.04150
672.5541, 73.23047
673.0363, 71.03467
673.5184, 73.36084
674.0005, 74.45801
674.4826, 70.85498
674.9647, 65.99121
675.4468, 63.29346
675.9290, 62.27148
676.4111, 62.15088
676.8932, 62.73291
677.3753, 60.97119
677.8574, 52.29785
678.3395, 36.22021
678.8217, 25.56738
679.3038, 21.98438
679.7859, 22.08057
680.2680, 30.80518
680.7501, 39.04248
681.2322, 37.20752
681.7144, 25.35449
682.1965, 12.71289
682.6786, 5.553711
683.1607, 0.9125980
683.6428, 6.886230
684.1249, 17.22559
684.6071, 24.61719
685.0892, 26.66748
685.5713, 27.72852
686.0534, 32.94385
686.5355, 42.70996
687.0176, 50.23340
687.4998, 52.92725
687.9819, 56.82861
688.4640, 66.65137
688.9461, 76.42139
689.4282, 77.25244
689.9103, 70.19360
690.3925, 67.03564
690.8746, 78.66797
691.3567, 98.62793
691.8388, 111.7271
692.3209, 117.8032
692.8030, 121.1086
693.2852, 120.9824
693.7673, 121.8440
694.2494, 129.6782
694.7315, 143.8198
695.2136, 153.5542
695.6957, 155.1379
696.1779, 156.2920
696.6600, 159.7390
697.1421, 164.0891
697.6242, 167.4646
698.1063, 169.8945
698.5884, 172.6570
699.0706, 176.1814
699.5527, 181.6660
700.0348, 194.0305
700.5169, 214.9426
700.9990, 231.9331
701.4811, 242.0081
701.9633, 248.3152
702.4454, 251.7646
702.9275, 253.4043
703.4096, 256.6392
703.8917, 263.1848
704.3738, 269.6396
704.8560, 274.2285
705.3381, 278.0608
705.8202, 281.3904
706.3023, 284.9680
706.7844, 291.4333
707.2665, 302.8884
707.7487, 317.1184
708.2308, 328.3357
708.7129, 336.4954
709.1950, 341.3650
709.6771, 340.5657
710.1592, 339.6658
710.6414, 341.6924
711.1235, 346.2310
711.6056, 352.9517
712.0877, 363.1931
712.5698, 372.5007
713.0519, 377.6042
713.5341, 381.3525
714.0162, 388.3770
714.4983, 397.7898
714.9804, 403.8115
715.4625, 402.8987
715.9446, 398.2783
716.4268, 396.6672
716.9089, 398.6689
717.3910, 400.5129
717.8731, 401.2905
718.3552, 402.7551
718.8373, 407.1484
719.3195, 412.0632
719.8016, 413.6489
720.2837, 410.6902
720.7658, 407.3306
721.2479, 402.5115
721.7300, 400.2400
722.2122, 408.5073
722.6943, 424.4094
723.1764, 436.3931
723.6585, 438.8977
724.1406, 434.6260
724.6227, 428.3303
725.1049, 420.3267
725.5870, 416.5325
726.0691, 418.1431
726.5512, 420.9666
727.0333, 424.6550
727.5154, 428.0552
727.9976, 431.0630
728.4797, 433.2825
728.9618, 430.3232
729.4439, 415.6074
729.9260, 400.5090
730.4081, 396.1150
730.8903, 398.8213
731.3724, 400.2812
731.8545, 398.1677
732.3366, 394.7610
732.8187, 392.5513
733.3008, 391.0002
733.7830, 384.1021
734.2651, 367.2488
734.7472, 354.8477
735.2293, 354.8308
735.7114, 357.2385
736.1935, 354.8469
736.6757, 348.3875
737.1578, 343.3289
737.6399, 342.8145
738.1220, 341.3792
738.6041, 334.3315
739.0862, 325.4832
739.5684, 321.6089
740.0505, 322.9434
740.5326, 323.4124
741.0147, 318.4573
741.4968, 310.3589
741.9789, 305.6001
742.4611, 304.6399
742.9432, 304.0181
743.4253, 302.1260
743.9074, 302.3843
744.3895, 310.6738
744.8716, 321.3735
745.3538, 323.1387
745.8359, 311.6428
746.3180, 300.0715
746.8001, 293.9387
747.2822, 290.6121
747.7643, 287.3176
748.2465, 284.4937
748.7286, 284.6294
749.2107, 288.6230
749.6928, 293.5007
750.1749, 295.1587
750.6570, 293.5349
751.1392, 289.2490
751.6213, 279.3809
752.1034, 273.5442
752.5855, 279.5815
753.0676, 288.8877
753.5497, 290.4229
754.0319, 283.7874
754.5140, 277.9026
754.9961, 274.5000
755.4782, 272.8479
755.9603, 273.1501
756.4424, 274.7126
756.9246, 276.6672
757.4067, 278.6736
757.8888, 280.6033
758.3709, 282.4663
758.8530, 283.9834
759.3351, 283.5876
759.8173, 280.7800
760.2994, 280.8230
760.7815, 287.2361
761.2636, 292.5610
761.7457, 287.5723
762.2278, 275.5850
762.7100, 272.8420
763.1921, 287.4785
763.6742, 299.4170
764.1563, 302.5222
764.6384, 302.3921
765.1205, 303.7300
765.6027, 305.9500
766.0848, 305.6013
766.5669, 300.8962
767.0490, 295.1133
767.5311, 292.4019
768.0132, 292.4255
768.4954, 293.6978
768.9775, 296.3103
769.4596, 298.1033
769.9417, 297.3943
770.4238, 296.2842
770.9059, 299.0889
771.3881, 308.0671
771.8702, 311.6821
772.3523, 305.7529
772.8344, 299.5803
773.3165, 294.9187
773.7986, 292.6042
774.2808, 294.5066
774.7629, 300.0752
775.2450, 304.8218
775.7271, 305.3857
776.2092, 303.8206
776.6913, 304.1321
777.1735, 305.2053
777.6556, 301.1328
778.1377, 290.2493
778.6198, 280.1895
779.1019, 277.9868
779.5840, 281.8276
780.0662, 282.1982
780.5483, 275.1426
781.0304, 272.2114
781.5125, 278.7549
781.9946, 284.8909
782.4767, 285.9429
782.9589, 283.1152
783.4410, 278.8113
783.9231, 273.5532
784.4052, 267.0864
784.8873, 257.3665
785.3694, 247.9387
785.8516, 243.6282
786.3337, 243.1616
786.8158, 242.1726
787.2979, 239.0322
787.7800, 235.1177
788.2621, 231.8337
788.7443, 229.2981
789.2264, 229.5330
789.7085, 235.0447
790.1906, 236.8311
790.6727, 230.0872
791.1548, 221.0029
791.6370, 215.4075
792.1191, 212.8279
792.6012, 210.6230
793.0833, 209.7065
793.5654, 207.4412
794.0475, 199.9822
794.5297, 192.8220
795.0118, 194.0591
795.4939, 201.5059
795.9760, 204.7288
796.4581, 197.6416
796.9402, 186.0764
797.4224, 178.2014
797.9045, 173.3765
798.3866, 168.6929
798.8687, 163.9470
799.3508, 159.4421
799.8329, 155.3926
800.3151, 151.4490
800.7972, 147.2285
801.2793, 142.8031
801.7614, 137.5061
802.2435, 129.9937
802.7256, 123.3545
803.2078, 116.7562
803.6899, 112.6482
804.1720, 115.8661
804.6541, 125.1960
805.1362, 130.6416
805.6183, 123.9368
806.1005, 114.3870
806.5826, 113.2355
807.0647, 116.4587
807.5468, 113.7631
808.0289, 104.0493
808.5110, 95.44360
808.9932, 94.04419
809.4753, 96.93054
809.9574, 95.84143
810.4395, 89.35498
810.9216, 85.30273
811.4037, 85.80493
811.8859, 85.96045
812.3680, 83.48511
812.8501, 79.08472
813.3322, 72.86816
813.8143, 64.19226
814.2964, 58.78430
814.7786, 60.93103
815.2607, 63.47900
815.7428, 61.32483
816.2249, 57.40735
816.7070, 57.35217
817.1891, 61.25439
817.6713, 62.63000
818.1534, 55.19824
818.6355, 44.34204
819.1176, 41.78503
819.5997, 46.20813
820.0818, 46.34583
820.5640, 39.66650
821.0461, 33.77881
821.5282, 34.70398
822.0103, 39.56006
822.4924, 39.44495
822.9745, 30.37793
823.4567, 25.15112
823.9388, 27.95911
824.4209, 29.70740
824.9030, 25.09961
825.3851, 18.64905
825.8672, 17.23425
826.3494, 21.66846
826.8315, 24.12427
827.3136, 19.71277
827.7957, 12.98633
828.2778, 5.229492
828.7599, 1.131226
829.2421, 0.3205570
829.7242, 9.296509
830.2063, 15.91785
830.6884, 11.90442
831.1705, 2.354126
831.6526, 0.6475830
832.1348, 7.114624
832.6169, 11.25195
833.0990, 11.54175
833.5811, 10.28601
834.0632, 7.751099
834.5453, 5.324097
835.0275, 6.448364
835.5096, 13.54126
835.9917, 16.85266
836.4738, 13.47607
836.9559, 9.655640
837.4380, 7.808838
837.9202, 6.594849
838.4023, 4.393555
838.8844, 1.047241
839.3665, 2.801636
839.8486, 8.537720
840.3307, 12.44775
840.8129, 7.649048
841.2950, 0.7774660
841.7771, 1.229736
842.2592, 6.784668
842.7413, 14.07727
843.2234, 14.65308
843.7056, 11.43860
844.1877, 10.73999
844.6698, 12.94971
845.1519, 12.37744
845.6340, 7.844971
846.1161, 3.321045
846.5983, 0.5400390
847.0804, 2.622559
847.5625, 6.0424998E-02
848.0446, 7.650513
848.5267, 11.53723
849.0089, 8.584961
849.4910, 5.238525
849.9731, 3.076416
850.4552, 1.477905
850.9373, 0.6962890
851.4194, 2.927734
851.9016, 3.152832
852.3837, 8.9599997E-02
852.8658, 3.673828
853.3479, 4.210083
853.8300, 3.428711
854.3121, 5.317627
854.7943, 9.169922
855.2764, 9.913330
855.7585, 5.265747
856.2406, 0.9493410
856.7227, 3.589233
857.2048, 2.949097
857.6870, 2.838867
858.1691, 3.051636
858.6512, 5.260376
859.1333, 11.81726
859.6154, 17.25659
860.0975, 15.79492
860.5797, 8.812012
861.0618, 4.210083
861.5439, 2.960693
862.0260, 2.504028
862.5081, 2.217529
862.9902, 3.005005
863.4724, 7.223877
863.9545, 12.11877
864.4366, 12.23340
864.9187, 6.423584
865.4008, 2.327637
865.8829, 6.813843
866.3651, 14.14648
866.8472, 18.03906
867.3293, 19.42041
867.8114, 20.68201
868.2935, 22.36804
868.7756, 23.82031
869.2578, 23.95898
869.7399, 23.66235
870.2220, 25.12708
870.7041, 28.53271
871.1862, 30.14526
871.6683, 29.59155
872.1505, 27.24646
872.6326, 22.46057
873.1147, 17.08887
873.5968, 14.08997
874.0789, 13.68201
874.5610, 14.46191
875.0432, 17.89099
875.5253, 20.57019
876.0074, 21.71631
876.4895, 21.77393
876.9716, 20.57471
877.4537, 18.71826
877.9359, 17.54834
878.4180, 17.15710
878.9001, 18.17126
879.3822, 22.73901
879.8643, 27.75537
880.3464, 28.66064
880.8286, 26.62512
881.3107, 26.02441
881.7928, 28.39734
882.2749, 31.58289
882.7570, 33.73523
883.2391, 34.63013
883.7213, 32.71924
884.2034, 28.29688
884.6855, 26.25586
885.1676, 27.94153
885.6497, 30.64172
886.1318, 32.54871
886.6140, 33.41016
887.0961, 32.41296
887.5782, 28.31140
888.0603, 25.62085
888.5424, 23.43591
889.0245, 23.67908
889.5067, 29.71582
889.9888, 37.00037
890.4709, 40.16052
890.9530, 38.97839
891.4351, 36.81421
891.9172, 33.34460
892.3994, 30.29785
892.8815, 28.89014
893.3636, 27.96692
893.8457, 25.56592
894.3278, 22.56616
894.8099, 21.75513
895.2921, 24.44336
895.7742, 28.40387
896.2563, 33.20496
896.7384, 37.00604
897.2205, 35.04175
897.7026, 28.63110
898.1848, 23.64618
898.6669, 22.45428
899.1490, 25.64551
899.6311, 34.43512
900.1132, 45.51251
900.5953, 46.69891
901.0775, 37.42957
901.5596, 29.45398
902.0417, 23.66107
902.5238, 21.07721
903.0059, 24.06293
903.4880, 29.80096
903.9702, 32.02478
904.4523, 29.91565
904.9344, 27.01538
905.4165, 20.99896
905.8986, 16.68079
906.3807, 16.04523
906.8629, 17.55475
907.3450, 20.78516
907.8271, 24.74573
908.3092, 26.20544
908.7913, 22.73895
909.2734, 20.00104
909.7556, 21.46484
910.2377, 23.76129
910.7198, 23.48309
911.2019, 21.88385
911.6840, 22.33533
912.1661, 25.33295
912.6483, 26.62689
913.1304, 20.90039
913.6125, 13.62708
914.0946, 15.37158
914.5767, 22.49121
915.0588, 22.81335
915.5410, 14.99707
916.0231, 8.351990
916.5052, 8.899414
916.9873, 13.37195
917.4694, 15.68396
917.9515, 15.74261
918.4337, 14.28107
918.9158, 10.79761
919.3979, 8.074036
919.8800, 7.227234
920.3621, 7.231873
920.8442, 7.112854
921.3264, 6.933655
921.8085, 6.977661
922.2906, 7.738892
922.7727, 7.825256
923.2548, 6.304504
923.7369, 5.124023
924.2191, 6.243591
924.7012, 7.702820
925.1833, 5.603760
925.6654, 0.7349240
926.1475, 4.057495
926.6296, 1.198792
927.1118, 5.996704
927.5939, 3.201782
928.0760, 0.6444700
928.5581, 3.900513
929.0402, 14.40918
929.5223, 19.92505
930.0045, 15.11237
930.4866, 7.796448
930.9687, 3.983887
931.4508, 2.872925
931.9329, 4.178467
932.4150, 7.053772
932.8972, 9.715332
933.3793, 11.44897
933.8614, 10.74463
934.3435, 5.529114
934.8256, 1.305542
935.3077, 1.327759
935.7899, 4.794983
936.2720, 6.402039
936.7541, 1.936890
937.2362, 1.891968
937.7183, 1.772461
938.2004, 0.6846310
938.6826, 3.460999
939.1647, 6.618896
939.6468, 7.156921
940.1289, 3.199280
940.6110, 1.319946
941.0931, 4.491821
941.5753, 7.769897
942.0574, 7.144775
942.5395, 4.104309
943.0216, 2.853210
943.5037, 4.398560
943.9858, 4.707520
944.4680, 2.881775
944.9501, 0.4721070
945.4322, 3.386047
945.9143, 6.540405
946.3964, 6.138000
946.8785, 2.795593
947.3607, 0.2272340
947.8428, 5.6212999E-02
948.3249, 5.2673001E-02
948.8070, 0.9500120
949.2891, 1.578125
949.7712, 0.7346800
950.2534, 4.178772
950.7355, 4.820374
951.2176, 1.826599
951.6997, 2.121765
952.1818, 5.473877
952.6639, 8.053711
953.1461, 9.854980
953.6282, 10.66302
954.1103, 9.114014
954.5924, 5.663818
955.0745, 3.853271
955.5566, 5.478943
956.0388, 7.675171
956.5209, 5.741394
957.0030, 0.9996340
957.4851, 1.275879
957.9672, 6.525635
958.4493, 7.863586
958.9315, 2.618408
959.4136, 1.500427
959.8957, 1.596313
960.3778, 8.978394
960.8599, 12.97009
961.3420, 12.71612
961.8242, 13.76520
962.3063, 17.78015
962.7884, 18.69073
963.2705, 12.46118
963.7526, 5.017822
964.2347, 2.197266
964.7169, 3.520630
965.1990, 5.386475
965.6811, 8.820313
966.1632, 11.20642
966.6453, 10.91144
967.1274, 11.39502
967.6096, 15.38141
968.0917, 20.25415
968.5738, 22.97028
969.0559, 23.27832
969.5380, 21.82684
970.0201, 16.56451
970.5023, 12.55383
970.9844, 11.48846
971.4665, 12.34894
971.9486, 14.97717
972.4307, 18.72449
972.9128, 23.30402
973.3950, 28.50165
973.8771, 30.84668
974.3592, 25.57452
974.8413, 19.46161
975.3234, 18.32764
975.8055, 20.25598
976.2877, 22.93311
976.7698, 25.66364
977.2519, 28.00256
977.7340, 29.83118
978.2161, 31.58282
978.6982, 31.52332
979.1804, 32.73676
979.6625, 44.80371
980.1446, 63.33783
980.6267, 71.23615
981.1088, 66.22247
981.5909, 63.98767
982.0731, 75.65698
982.5552, 93.39392
983.0373, 102.0275
983.5194, 103.2219
984.0015, 109.6531
984.4836, 122.1144
984.9658, 137.0983
985.4479, 153.8711
985.9300, 169.5870
986.4121, 181.3224
986.8942, 190.7143
987.3763, 203.4825
987.8585, 220.0067
988.3406, 237.6868
988.8227, 257.3210
989.3048, 274.5152
989.7869, 285.2021
990.2690, 296.5824
990.7512, 317.4223
991.2333, 347.0758
991.7154, 376.8102
992.1975, 403.3308
992.6796, 436.9946
993.1617, 479.9690
993.6439, 528.2310
994.1260, 580.5829
994.6081, 637.0547
995.0902, 698.5944
995.5723, 765.4113
996.0544, 832.9741
996.5366, 911.4377
997.0187, 976.1274
997.5008, 1030.638
997.9829, 1062.554
998.4650, 1066.812
998.9471, 1042.670
999.4293, 985.7131
999.9114, 894.3498
1000.393, 792.6044
1000.876, 675.5884
1001.358, 564.5872
1001.840, 466.1120
1002.322, 380.7575
1002.804, 308.4918
1003.286, 249.2994
1003.768, 204.6464
1004.250, 175.9485
1004.733, 151.0225
1005.215, 121.7372
1005.697, 95.40753
1006.179, 77.73096
1006.661, 66.40979
1007.143, 60.55859
1007.625, 57.91595
1008.107, 52.85480
1008.589, 43.00958
1009.072, 33.80048
1009.554, 30.37225
1010.036, 29.20404
1010.518, 25.47223
1011.000, 21.05487
1011.482, 21.04681
1011.964, 25.00281
1012.446, 26.61096
1012.929, 22.18671
1013.411, 16.39868
1013.893, 14.25934
1014.375, 15.06329
1014.857, 18.38843
1015.339, 23.38739
1015.821, 27.32581
1016.303, 29.64941
1016.785, 31.62738
1017.268, 34.08472
1017.750, 36.71808
1018.232, 37.95068
1018.714, 38.79224
1019.196, 44.46466
1019.678, 54.39990
1020.160, 62.51587
1020.642, 67.15204
1021.125, 70.19958
1021.607, 73.20703
1022.089, 75.74341
1022.571, 76.51331
1023.053, 75.62909
1023.535, 75.17889
1024.017, 75.21405
1024.499, 77.37091
1024.981, 82.89081
1025.464, 85.01556
1025.946, 76.98401
1026.428, 62.01453
1026.910, 49.86835
1027.392, 40.64771
1027.874, 33.12451
1028.356, 27.44519
1028.838, 22.68866
1029.321, 18.46002
1029.803, 15.47455
1030.285, 14.93793
1030.767, 15.76489
1031.249, 12.93781
1031.731, 5.074585
1032.213, 1.225037
1032.695, 6.242065
1033.177, 8.322876
1033.660, 5.248047
1034.142, 1.603455
1034.624, 2.514221
1035.106, 7.120789
1035.588, 9.887756
1036.070, 10.15466
1036.552, 10.14850
1037.034, 10.63416
1037.516, 9.556335
1037.999, 5.387695
1038.481, 8.2580999E-02
1038.963, 5.028259
1039.445, 9.645386
1039.927, 11.21387
1040.409, 4.409241
1040.891, 3.977661
1041.373, 14.74133
1041.855, 25.77081
1042.338, 32.49042
1042.820, 37.99957
1043.302, 46.28656
1043.784, 56.61353
1044.266, 63.52881
1044.748, 61.02222
1045.230, 65.06915
1045.712, 81.55023
1046.195, 98.48370
1046.677, 111.2734
1047.159, 122.1674
1047.641, 132.8326
1048.123, 143.6804
1048.605, 156.8530
1049.087, 173.9492
1049.569, 190.9805
1050.052, 204.8531
1050.534, 221.5347
1051.016, 244.7120
1051.498, 271.3578
1051.980, 297.2573
1052.462, 323.0717
1052.944, 354.3649
1053.426, 395.3920
1053.908, 435.4216
1054.391, 476.7139
1054.873, 510.9517
1055.355, 535.8975
1055.837, 550.2817
1056.319, 552.7714
1056.801, 543.6189
1057.283, 524.4054
1057.765, 494.1044
1058.248, 457.3561
1058.730, 410.0572
1059.212, 362.6447
1059.694, 319.8436
1060.176, 280.8287
1060.658, 243.6473
1061.140, 208.6849
1061.622, 178.0049
1062.104, 151.9803
1062.587, 131.1220
1063.069, 117.2634
1063.551, 106.9123
1064.033, 99.05688
1064.515, 92.91437
1064.997, 88.40710
1065.479, 84.92377
1065.961, 80.70972
1066.443, 75.18915
1066.926, 69.19409
1067.408, 61.58588
1067.890, 55.29785
1068.372, 53.09314
1068.854, 52.37683
1069.336, 49.71332
1069.818, 45.77869
1070.300, 43.94336
1070.782, 45.54077
1071.265, 47.29370
1071.747, 48.25049
1072.229, 48.41656
1072.711, 48.01715
1073.193, 46.66473
1073.675, 42.49316
1074.157, 37.17163
1074.639, 35.66956
1075.122, 39.94128
1075.604, 43.54193
1076.086, 42.40076
1076.568, 41.05426
1077.050, 42.65045
1077.532, 44.99493
1078.014, 45.83453
1078.496, 45.39240
1078.979, 44.72784
1079.461, 44.09833
1079.943, 43.78485
1080.425, 44.47205
1080.907, 44.80023
1081.389, 42.74969
1081.871, 41.12903
1082.353, 43.77417
1082.835, 48.79108
1083.318, 51.14612
1083.800, 49.75568
1084.282, 49.16162
1084.764, 53.12701
1085.246, 56.01465
1085.728, 54.30737
1086.210, 50.95453
1086.692, 45.93140
1087.175, 42.27856
1087.657, 46.91846
1088.139, 60.11389
1088.621, 68.90906
1089.103, 64.77222
1089.585, 60.57861
1090.067, 61.89026
1090.549, 64.06299
1091.031, 63.75165
1091.514, 63.29028
1091.996, 66.52209
1092.478, 72.65204
1092.960, 75.53046
1093.442, 71.92566
1093.924, 68.39716
1094.406, 67.15515
1094.888, 66.96240
1095.370, 68.18182
1095.853, 69.48987
1096.335, 68.52087
1096.817, 65.59576
1097.299, 64.20105
1097.781, 65.32324
1098.263, 67.81152
1098.745, 74.03430
1099.227, 78.29944
1099.709, 74.62341
1100.192, 69.93719
1100.674, 73.97455
1101.156, 83.50543
1101.638, 85.12335
1102.120, 73.05115
1102.602, 65.46417
1103.084, 71.42548
1103.566, 76.70917
1104.049, 74.33594
1104.531, 70.18665
1105.013, 68.52655
1105.495, 69.32098
1105.977, 72.89355
1106.459, 80.55194
1106.941, 82.42664
1107.423, 70.55536
1107.906, 61.47388
1108.388, 61.49829
1108.870, 63.69263
1109.352, 62.42804
1109.834, 60.70099
1110.316, 65.67719
1110.798, 78.35663
1111.280, 84.19434
1111.762, 77.56641
1112.245, 70.83655
1112.727, 64.21698
1113.209, 59.24060
1113.691, 57.96094
1114.173, 58.04468
1114.655, 56.00946
1115.137, 52.06494
1115.619, 50.11816
1116.102, 51.36420
1116.584, 52.73389
1117.066, 56.14050
1117.548, 56.63306
1118.030, 50.44299
1118.512, 42.77411
1118.994, 38.19049
1119.476, 36.32074
1119.958, 35.79657
1120.441, 37.39429
1120.923, 37.75647
1121.405, 36.48468
1121.887, 35.05664
1122.369, 33.99042
1122.851, 32.35809
1123.333, 29.07208
1123.815, 25.27631
1124.297, 23.62946
1124.780, 24.36566
1125.262, 23.87677
1125.744, 21.78253
1126.226, 19.65338
1126.708, 17.36505
1127.190, 16.52777
1127.672, 18.75781
1128.154, 21.14117
1128.636, 18.93030
1129.119, 12.94861
1129.601, 10.34448
1130.083, 11.37891
1130.565, 13.16467
1131.047, 15.68524
1131.529, 16.15875
1132.011, 13.16412
1132.493, 9.744324
1132.976, 9.021912
1133.458, 10.12341
1133.940, 10.61475
1134.422, 10.58490
1134.904, 11.00073
1135.386, 11.81317
1135.868, 11.19824
1136.350, 8.692871
1136.833, 5.910034
1137.315, 3.884705
1137.797, 2.840515
1138.279, 4.269104
1138.761, 6.797913
1139.243, 4.426697
1139.725, 1.343201
1140.207, 3.871277
1140.689, 2.421082
1141.172, 0.1683350
1141.654, 1.372498
1142.136, 2.432800
1142.618, 3.265686
1143.100, 3.731506
1143.582, 3.631714
1144.064, 3.016663
1144.546, 1.303162
1145.029, 0.9633180
1145.511, 1.312317
1145.993, 0.5820310
1146.475, 0.5231320
1146.957, 5.862305
1147.439, 11.62030
1147.921, 7.389648
1148.403, 0.6830440
1148.885, 1.916931
1149.368, 6.784729
1149.850, 6.635681
1150.332, 1.345581
1150.814, 3.474976
1151.296, 5.628784
1151.778, 6.085449
1152.260, 4.034485
1152.742, 2.207642
1153.224, 3.127380
1153.707, 5.028137
1154.189, 5.407349
1154.671, 4.787354
1155.153, 4.385986
1155.635, 4.404724
1156.117, 6.685669
1156.599, 16.50769
1157.081, 22.36554
1157.563, 16.47498
1158.046, 10.15149
1158.528, 10.90888
1159.010, 15.46222
1159.492, 19.38489
1159.974, 22.59027
1160.456, 25.30261
1160.938, 28.10236
1161.420, 29.66205
1161.903, 26.92841
1162.385, 26.64160
1162.867, 33.73907
1163.349, 40.67340
1163.831, 40.72131
1164.313, 36.80225
1164.795, 35.83228
1165.277, 38.03198
1165.760, 41.10675
1166.242, 45.31897
1166.724, 49.87811
1167.206, 55.32715
1167.688, 58.71991
1168.170, 57.96552
1168.652, 55.82245
1169.134, 55.56738
1169.616, 57.16730
1170.099, 62.21191
1170.581, 70.85870
1171.063, 69.75012
1171.545, 57.97955
1172.027, 55.33264
1172.509, 68.04449
1172.991, 80.93097
1173.473, 82.29083
1173.956, 77.67505
1174.438, 75.35828
1174.920, 75.32288
1175.402, 78.37836
1175.884, 83.51984
1176.366, 86.67230
1176.848, 87.91193
1177.330, 92.10724
1177.813, 101.1326
1178.295, 106.9235
1178.777, 99.58777
1179.259, 89.47412
1179.741, 91.08563
1180.223, 97.01727
1180.705, 95.74725
1181.187, 90.32642
1181.669, 89.13477
1182.151, 93.07214
1182.634, 96.48871
1183.116, 96.14258
1183.598, 97.34155
1184.080, 106.8372
1184.562, 114.6415
1185.044, 112.5603
1185.526, 106.6420
1186.008, 102.2963
1186.490, 99.78613
1186.973, 98.68286
1187.455, 99.07788
1187.937, 97.74951
1188.419, 91.73291
1188.901, 87.45923
1189.383, 86.04968
1189.865, 86.78650
1190.347, 93.03528
1190.830, 98.28418
1191.312, 94.38269
1191.794, 83.27454
1192.276, 74.60938
1192.758, 68.92346
1193.240, 63.61304
1193.722, 57.48328
1194.204, 55.77991
1194.687, 61.09998
1195.169, 66.75671
1195.651, 68.91711
1196.133, 67.88562
1196.615, 63.47986
1197.097, 56.55334
1197.579, 53.41333
1198.061, 53.68066
1198.543, 48.87854
1199.026, 38.84668
1199.508, 34.27051
1199.990, 38.42542
1200.472, 41.52332
1200.954, 35.13977
1201.436, 26.59363
1201.918, 28.86658
1202.400, 35.75305
1202.883, 34.24609
1203.365, 27.32373
1203.847, 21.85974
1204.329, 18.79712
1204.811, 17.14331
1205.293, 16.53772
1205.775, 14.86755
1206.257, 8.674805
1206.740, 2.768555
1207.222, 0.6610110
1207.704, 0.7336430
1208.186, 1.949219
1208.668, 4.124512
1209.150, 9.130859
1209.632, 15.49988
1210.114, 15.84314
1210.596, 5.654297
1211.078, 0.9844970
1211.561, 2.901489
1212.043, 4.888550
1212.525, 3.009277
1213.007, 9.294800
1213.489, 4.531006
1213.971, 4.864990
1214.453, 9.399170
1214.935, 9.127808
1215.417, 5.543701
1215.900, 3.826660
1216.382, 6.459717
1216.864, 0.4482420
1217.346, 4.329834
1217.828, 0.6911620
1218.310, 4.019897
1218.792, 5.008911
1219.274, 3.069092
1219.757, 1.160645
1220.239, 6.848755
1220.721, 10.35706
1221.203, 11.95581
1221.685, 12.54150
1222.167, 12.35278
1222.649, 11.24536
1223.131, 9.452759
1223.614, 9.344116
1224.096, 13.56616
1224.578, 17.52966
1225.060, 13.64221
1225.542, 8.975586
1226.024, 12.45435
1226.506, 20.66797
1226.988, 29.49353
1227.470, 37.13306
1227.953, 40.27393
1228.435, 39.71497
1228.917, 41.91199
1229.399, 56.49219
1229.881, 65.66455
1230.363, 56.35132
1230.845, 48.35681
1231.327, 54.92419
1231.810, 67.90283
1232.292, 79.08582
1232.774, 87.77271
1233.256, 91.70752
1233.738, 88.18652
1234.220, 91.55420
1234.702, 104.3970
1235.184, 116.0719
1235.667, 125.4078
1236.149, 128.6824
1236.631, 122.9658
1237.113, 115.3523
1237.595, 114.7841
1238.077, 118.2377
1238.559, 114.3633
1239.041, 105.7091
1239.523, 108.7544
1240.005, 121.4061
1240.488, 130.4137
1240.970, 132.8323
1241.452, 130.1191
1241.934, 123.0889
1242.416, 116.7883
1242.898, 114.2588
1243.380, 116.7144
1243.862, 131.2788
1244.344, 146.2458
1244.827, 147.2258
1245.309, 138.5190
1245.791, 126.4082
1246.273, 113.1345
1246.755, 104.3617
1247.237, 103.1521
1247.719, 103.7207
1248.201, 107.1614
1248.684, 106.8892
1249.166, 98.17871
1249.648, 88.62476
1250.130, 87.04614
1250.612, 88.31299
1251.094, 87.28369
1251.576, 86.69727
1252.058, 81.01807
1252.541, 69.47217
1253.023, 61.74854
1253.505, 57.42773
1253.987, 53.31030
1254.469, 48.59302
1254.951, 44.64062
1255.433, 42.26855
1255.915, 41.09131
1256.397, 42.46338
1256.880, 44.82397
1257.362, 46.34985
1257.844, 46.14624
1258.326, 37.97266
1258.808, 26.87866
1259.290, 25.68140
1259.772, 34.28174
1260.254, 42.84985
1260.737, 47.88550
1261.219, 47.86328
1261.701, 38.82642
1262.183, 28.87500
1262.665, 20.22632
1263.147, 13.92847
1263.629, 10.89404
1264.111, 10.48096
1264.594, 12.70801
1265.076, 16.89307
1265.558, 19.43359
1266.040, 19.69238
1266.522, 20.98877
1267.004, 24.37598
1267.486, 24.67261
1267.968, 20.23096
1268.450, 16.26782
1268.932, 15.62207
1269.415, 15.54639
1269.897, 13.39380
1270.379, 9.742676
1270.861, 5.538818
1271.343, 1.501953
1271.825, 1.395752
1272.307, 3.136475
1272.789, 1.530518
1273.271, 3.850098
1273.754, 10.67554
1274.236, 17.58105
1274.718, 21.97363
1275.200, 23.53809
1275.682, 22.23779
1276.164, 13.83423
1276.646, 5.944336
1277.128, 1.614746
1277.611, 1.685303
1278.093, 9.055420
1278.575, 19.77710
1279.057, 21.44507
1279.539, 18.98413
1280.021, 16.49438
1280.503, 9.058105
1280.985, 5.348389
1281.468, 5.162842
1281.950, 7.535889
1282.432, 15.87451
1282.914, 21.14624
1283.396, 13.82495
1283.878, 2.936768
1284.360, 2.108643
1284.842, 5.252686
1285.324, 0.0000000E+00
##END=



