##NAMES=Xenotime-(Y)
##RRUFFID=R060428
##IDEAL CHEMISTRY=Y^3+^PO_4_
##LOCALITY=Zagi Mountain, near Hammedabad, Khaffor Dehri, North-West Frontier Province, Pakistan
##OWNER=RRUFF
##SOURCE=Herb Obodda
##DESCRIPTION=Brown prismatic crystals
##STATUS=The identification of this mineral is confirmed by single-crystal X-ray diffraction and chemical analysis.
##URL=rruff.info/R060428
##MEASURED CHEMISTRY=(Y_0.85_Dy_0.11_Yb_0.04_)_Î£=1_P_1.00_O_4_
140.812, 0.000
141.294, 497.278
141.776, 624.467
142.258, 612.500
142.740, 415.733
143.223, 33.322
143.705, 212.823
144.187, 5.237
144.669, 355.524
145.151, 822.511
145.633, 1376.366
146.115, 1959.851
146.598, 2557.753
147.080, 3156.629
147.562, 3729.965
148.044, 4297.102
148.526, 4790.692
149.008, 5187.367
149.490, 5489.553
149.972, 5717.417
150.454, 5882.042
150.936, 5984.575
151.419, 5987.926
151.901, 5843.723
152.383, 5634.104
152.865, 5430.437
153.347, 5231.034
153.829, 5022.678
154.311, 4788.526
154.793, 4528.822
155.276, 4268.870
155.758, 3962.972
156.240, 3702.439
156.722, 3538.053
157.204, 3472.124
157.686, 3483.622
158.168, 3552.031
158.650, 3677.420
159.133, 3875.390
159.615, 4133.015
160.097, 4484.376
160.579, 4964.979
161.061, 5577.374
161.543, 6259.103
162.025, 6941.390
162.507, 7609.447
162.989, 8372.318
163.472, 9344.644
163.954, 10350.286
164.436, 11302.954
164.918, 12185.383
165.400, 13048.362
165.882, 13952.777
166.364, 14925.744
166.846, 15837.288
167.329, 16661.020
167.811, 17425.477
168.293, 18150.963
168.775, 18836.666
169.257, 19466.764
169.739, 20033.383
170.221, 20545.566
170.703, 20935.078
171.185, 21192.055
171.667, 21344.643
172.150, 21382.027
172.632, 21312.527
173.114, 21190.311
173.596, 21095.750
174.078, 21065.908
174.560, 20964.453
175.042, 20770.488
175.525, 20527.150
176.007, 20248.824
176.489, 19943.172
176.971, 19623.551
177.453, 19311.227
177.935, 19017.725
178.417, 18700.963
178.899, 18347.223
179.381, 17983.520
179.863, 17623.859
180.346, 17271.170
180.828, 16922.176
181.310, 16572.965
181.792, 16226.601
182.274, 15869.151
182.756, 15487.547
183.238, 15104.677
183.721, 14747.002
184.203, 14413.903
184.685, 14072.987
185.167, 13672.719
185.649, 13168.104
186.131, 12700.679
186.613, 12280.683
187.095, 11881.488
187.577, 11495.963
188.059, 11117.352
188.542, 10735.651
189.024, 10331.148
189.506, 9891.719
189.988, 9462.545
190.470, 9048.631
190.952, 8641.906
191.434, 8237.564
191.917, 7836.021
192.399, 7444.758
192.881, 7068.660
193.363, 6698.435
193.845, 6378.575
194.327, 6143.440
194.809, 5925.067
195.291, 5670.639
195.773, 5380.510
196.255, 5103.002
196.738, 4899.393
197.220, 4803.345
197.702, 4686.112
198.184, 4522.393
198.666, 4212.491
199.148, 3925.503
199.630, 3670.120
200.112, 3453.304
200.595, 3296.832
201.077, 3228.199
201.559, 3100.160
202.041, 2901.181
202.523, 2687.282
203.005, 2469.398
203.487, 2262.511
203.969, 2102.459
204.452, 2032.591
204.934, 2077.022
205.416, 2092.769
205.898, 2083.495
206.380, 2047.525
206.862, 1946.444
207.344, 1805.348
207.826, 1705.044
208.308, 1727.772
208.791, 1894.157
209.273, 2031.121
209.755, 2116.782
210.237, 2198.310
210.719, 2270.537
211.201, 2349.892
211.683, 2475.398
212.165, 2684.505
212.648, 2979.878
213.130, 3270.366
213.612, 3522.021
214.094, 3800.136
214.576, 4136.791
215.058, 4519.042
215.540, 4906.472
216.022, 5268.570
216.504, 5606.062
216.986, 6002.941
217.469, 6550.399
217.951, 7060.526
218.433, 7483.733
218.915, 7836.390
219.397, 8152.483
219.879, 8450.763
220.361, 8735.653
220.844, 9038.196
221.326, 9364.712
221.808, 9708.735
222.290, 10110.484
222.772, 10520.268
223.254, 10860.352
223.736, 11081.844
224.218, 11213.480
224.700, 11376.399
225.182, 11642.747
225.665, 11850.903
226.147, 11938.785
226.629, 11971.944
227.111, 12031.410
227.593, 12155.452
228.075, 12315.086
228.557, 12431.014
229.040, 12473.916
229.522, 12507.728
230.004, 12540.413
230.486, 12565.950
230.968, 12580.133
231.450, 12581.110
231.932, 12565.956
232.414, 12525.461
232.896, 12433.533
233.378, 12363.529
233.861, 12333.271
234.343, 12315.445
234.825, 12295.957
235.307, 12273.502
235.789, 12238.996
236.271, 12173.894
236.753, 12051.371
237.236, 11969.945
237.718, 11985.024
238.200, 12005.738
238.682, 11969.554
239.164, 11872.872
239.646, 11766.313
240.128, 11703.519
240.610, 11676.476
241.092, 11674.176
241.574, 11723.381
242.057, 11776.779
242.539, 11836.474
243.021, 11888.489
243.503, 11893.213
243.985, 11796.406
244.467, 11591.951
244.949, 11442.367
245.432, 11420.106
245.914, 11380.810
246.396, 11255.408
246.878, 11067.551
247.360, 10881.864
247.842, 10751.366
248.324, 10667.365
248.806, 10562.017
249.288, 10412.870
249.770, 10269.866
250.253, 10159.836
250.735, 10062.506
251.217, 9946.544
251.699, 9798.746
252.181, 9624.589
252.663, 9434.891
253.145, 9223.872
253.627, 9005.656
254.110, 8754.176
254.592, 8509.270
255.074, 8329.461
255.556, 8253.454
256.038, 8214.637
256.520, 8095.233
257.002, 7874.148
257.484, 7649.845
257.966, 7460.032
258.449, 7280.381
258.931, 7087.240
259.413, 6867.792
259.895, 6624.736
260.377, 6360.014
260.859, 6076.057
261.341, 5817.882
261.823, 5613.971
262.306, 5429.111
262.788, 5230.194
263.270, 5015.369
263.752, 4793.699
264.234, 4576.234
264.716, 4358.903
265.198, 4112.551
265.680, 3803.443
266.163, 3504.905
266.645, 3294.701
267.127, 3164.575
267.609, 3042.570
268.091, 2904.927
268.573, 2749.437
269.055, 2572.635
269.537, 2370.759
270.019, 2151.701
270.501, 1900.817
270.984, 1630.505
271.466, 1395.740
271.948, 1222.893
272.430, 1082.933
272.912, 944.991
273.394, 806.322
273.876, 670.934
274.358, 538.281
274.841, 409.775
275.323, 293.246
275.805, 180.084
276.287, 84.763
276.769, 22.841
277.251, 10.672
277.733, 38.969
278.215, 76.535
278.698, 115.578
279.180, 129.096
279.662, 95.653
280.144, 70.100
280.626, 88.616
281.108, 127.012
281.590, 136.662
282.072, 96.894
282.555, 26.510
283.037, 39.871
283.519, 113.922
284.001, 160.380
284.483, 153.898
284.965, 128.177
285.447, 117.553
285.929, 130.046
286.411, 152.480
286.893, 168.679
287.376, 174.369
287.858, 187.050
288.340, 219.614
288.822, 248.735
289.304, 260.359
289.786, 254.309
290.268, 238.509
290.750, 222.743
291.233, 208.746
291.715, 156.615
292.197, 9.809
292.679, 112.070
293.161, 149.951
293.643, 137.572
294.125, 134.522
294.607, 175.751
295.090, 257.691
295.572, 367.128
296.054, 524.546
296.536, 682.172
297.018, 843.824
297.500, 996.544
297.982, 953.754
298.464, 816.021
298.946, 693.872
299.429, 545.369
299.911, 352.607
300.393, 179.337
300.875, 29.759
301.357, 97.603
301.839, 208.895
302.321, 302.392
302.803, 367.730
303.285, 384.210
303.768, 351.005
304.250, 327.764
304.732, 318.222
305.214, 320.516
305.696, 338.301
306.178, 366.206
306.660, 389.765
307.142, 410.449
307.625, 418.677
308.107, 376.248
308.589, 256.142
309.071, 159.443
309.553, 180.061
310.035, 256.026
310.517, 295.266
310.999, 263.993
311.482, 201.711
311.964, 143.130
312.446, 88.622
312.928, 39.332
313.410, 3.087
313.892, 40.654
314.374, 76.527
314.856, 107.745
315.338, 145.552
315.820, 187.213
316.303, 175.745
316.785, 52.620
317.267, 115.151
317.749, 297.016
318.231, 445.678
318.713, 551.333
319.195, 688.640
319.677, 878.941
320.160, 1097.159
320.642, 1321.503
321.124, 1549.578
321.606, 1792.616
322.088, 2064.116
322.570, 2365.544
323.052, 2636.326
323.534, 2822.018
324.017, 3035.727
324.499, 3335.069
324.981, 3694.220
325.463, 4062.284
325.945, 4414.273
326.427, 4747.930
326.909, 5057.479
327.391, 5321.053
327.874, 5585.862
328.356, 5872.216
328.838, 6151.849
329.320, 6391.917
329.802, 6586.155
330.284, 6763.459
330.766, 6973.664
331.248, 7246.678
331.730, 7458.018
332.212, 7557.259
332.695, 7637.519
333.177, 7748.803
333.659, 7882.349
334.141, 7996.178
334.623, 8060.908
335.105, 8078.964
335.587, 8064.085
336.069, 8006.079
336.552, 7933.125
337.034, 7853.275
337.516, 7770.196
337.998, 7685.891
338.480, 7600.111
338.962, 7514.424
339.444, 7442.653
339.926, 7388.376
340.409, 7303.932
340.891, 7148.590
341.373, 6971.406
341.855, 6830.032
342.337, 6728.978
342.819, 6646.403
343.301, 6578.597
343.783, 6520.227
344.265, 6462.387
344.748, 6401.230
345.230, 6340.550
345.712, 6281.602
346.194, 6224.964
346.676, 6169.345
347.158, 6112.711
347.640, 6060.187
348.122, 6010.815
348.604, 5966.425
349.087, 5940.532
349.569, 5943.586
350.051, 5971.132
350.533, 5986.916
351.015, 6001.455
351.497, 6003.693
351.979, 5981.552
352.461, 5945.959
352.944, 5911.848
353.426, 5882.897
353.908, 5845.267
354.390, 5785.652
354.872, 5700.943
355.354, 5610.360
355.836, 5503.301
356.318, 5420.591
356.801, 5394.799
357.283, 5417.291
357.765, 5450.378
358.247, 5468.417
358.729, 5468.812
359.211, 5421.145
359.693, 5273.288
360.175, 5142.308
360.657, 5079.368
361.140, 5055.637
361.622, 5031.660
362.104, 4991.199
362.586, 4944.064
363.068, 4908.316
363.550, 4887.120
364.032, 4845.219
364.514, 4749.832
364.996, 4647.371
365.479, 4586.252
365.961, 4572.101
366.443, 4564.583
366.925, 4543.472
367.407, 4511.464
367.889, 4470.497
368.371, 4419.042
368.853, 4370.961
369.336, 4338.322
369.818, 4320.775
370.300, 4298.471
370.782, 4277.132
371.264, 4243.141
371.746, 4185.154
372.228, 4107.503
372.710, 4020.367
373.193, 3927.351
373.675, 3833.363
374.157, 3758.247
374.639, 3726.522
375.121, 3702.321
375.603, 3693.797
376.085, 3677.277
376.567, 3626.309
377.049, 3541.585
377.531, 3446.143
378.014, 3366.266
378.496, 3305.022
378.978, 3241.388
379.460, 3183.282
379.942, 3114.902
380.424, 3028.508
380.906, 2929.056
381.388, 2823.316
381.871, 2713.613
382.353, 2601.435
382.835, 2488.708
383.317, 2374.008
383.799, 2262.069
384.281, 2152.242
384.763, 2048.590
385.245, 1956.119
385.728, 1875.888
386.210, 1800.359
386.692, 1731.186
387.174, 1663.802
387.656, 1577.496
388.138, 1460.579
388.620, 1357.882
389.102, 1313.779
389.584, 1317.352
390.067, 1313.766
390.549, 1289.689
391.031, 1262.532
391.513, 1247.586
391.995, 1239.541
392.477, 1219.452
392.959, 1176.451
393.441, 1122.804
393.923, 1089.282
394.406, 1086.936
394.888, 1086.434
395.370, 1095.514
395.852, 1100.375
396.334, 1082.709
396.816, 1044.676
397.298, 1012.589
397.780, 1016.967
398.263, 1058.948
398.745, 1056.039
399.227, 953.517
399.709, 866.966
400.191, 843.958
400.673, 848.788
401.155, 830.506
401.637, 766.423
402.120, 684.319
402.602, 623.304
403.084, 586.337
403.566, 552.975
404.048, 525.462
404.530, 495.058
405.012, 450.470
405.494, 394.250
405.976, 346.591
406.459, 329.802
406.941, 323.645
407.423, 294.173
407.905, 238.671
408.387, 177.155
408.869, 119.209
409.351, 65.876
409.833, 18.932
410.315, 26.842
410.798, 60.714
411.280, 66.202
411.762, 61.630
412.244, 75.321
412.726, 115.082
413.208, 167.735
413.690, 145.420
414.172, 113.737
414.655, 95.152
415.137, 108.340
415.619, 113.861
416.101, 82.665
416.583, 31.292
417.065, 3.195
417.547, 3.414
418.029, 34.638
418.512, 44.920
418.994, 26.437
419.476, 8.521
419.958, 4.584
420.440, 0.709
420.922, 24.577
421.404, 67.192
421.886, 99.312
422.368, 100.072
422.850, 74.018
423.333, 28.357
423.815, 41.595
424.297, 109.272
424.779, 154.694
425.261, 182.881
425.743, 213.021
426.225, 226.981
426.707, 264.593
427.190, 363.880
427.672, 321.021
428.154, 221.329
428.636, 156.083
429.118, 108.574
429.600, 55.200
430.082, 5.552
430.564, 68.511
431.047, 128.920
431.529, 195.648
432.011, 272.273
432.493, 358.968
432.975, 456.456
433.457, 566.271
433.939, 683.878
434.421, 793.798
434.903, 893.327
435.386, 992.348
435.868, 1088.592
436.350, 1188.241
436.832, 1295.817
437.314, 1412.018
437.796, 1534.689
438.278, 1666.030
438.760, 1802.689
439.242, 1936.428
439.725, 2066.528
440.207, 2196.295
440.689, 2331.400
441.171, 2467.298
441.653, 2588.989
442.135, 2680.946
442.617, 2777.970
443.099, 2905.328
443.582, 3045.158
444.064, 3166.418
444.546, 3260.815
445.028, 3342.399
445.510, 3428.525
445.992, 3520.505
446.474, 3608.836
446.956, 3692.991
447.439, 3775.876
447.921, 3863.512
448.403, 3949.182
448.885, 4022.566
449.367, 4078.727
449.849, 4118.899
450.331, 4140.516
450.813, 4137.954
451.295, 4142.714
451.778, 4168.567
452.260, 4197.550
452.742, 4214.436
453.224, 4221.627
453.706, 4235.279
454.188, 4269.653
454.670, 4311.559
455.152, 4342.644
455.634, 4363.366
456.117, 4379.161
456.599, 4390.384
457.081, 4397.344
457.563, 4405.272
458.045, 4419.775
458.527, 4427.173
459.009, 4402.583
459.491, 4381.364
459.974, 4406.494
460.456, 4477.533
460.938, 4556.150
461.420, 4608.506
461.902, 4636.341
462.384, 4667.141
462.866, 4718.621
463.348, 4746.221
463.831, 4716.769
464.313, 4674.643
464.795, 4668.434
465.277, 4709.660
465.759, 4761.108
466.241, 4782.533
466.723, 4778.755
467.205, 4789.333
467.687, 4825.625
468.169, 4856.794
468.652, 4852.826
469.134, 4831.509
469.616, 4832.505
470.098, 4877.574
470.580, 4919.949
471.062, 4931.466
471.544, 4924.664
472.026, 4910.795
472.509, 4892.477
472.991, 4884.422
473.473, 4908.900
473.955, 4977.935
474.437, 5027.378
474.919, 5032.580
475.401, 5046.738
475.883, 5098.800
476.366, 5173.005
476.848, 5239.393
477.330, 5283.584
477.812, 5318.635
478.294, 5369.689
478.776, 5439.362
479.258, 5498.045
479.740, 5536.851
480.222, 5571.484
480.705, 5612.695
481.187, 5661.127
481.669, 5715.227
482.151, 5779.503
482.633, 5842.868
483.115, 5892.356
483.597, 5930.343
484.079, 5968.730
484.561, 6012.025
485.044, 6058.197
485.526, 6111.712
486.008, 6178.762
486.490, 6242.744
486.972, 6308.115
487.454, 6362.354
487.936, 6384.491
488.418, 6385.691
488.901, 6400.148
489.383, 6450.966
489.865, 6520.075
490.347, 6553.031
490.829, 6531.324
491.311, 6528.987
491.793, 6576.423
492.275, 6634.992
492.758, 6682.261
493.240, 6717.346
493.722, 6746.805
494.204, 6785.773
494.686, 6815.161
495.168, 6788.802
495.650, 6711.338
496.132, 6667.507
496.614, 6708.023
497.097, 6792.123
497.579, 6827.205
498.061, 6792.569
498.543, 6759.534
499.025, 6729.857
499.507, 6707.829
499.989, 6697.554
500.471, 6698.184
500.953, 6705.798
501.436, 6717.740
501.918, 6734.531
502.400, 6759.384
502.882, 6797.531
503.364, 6830.798
503.846, 6854.006
504.328, 6872.159
504.810, 6882.030
505.293, 6886.318
505.775, 6904.677
506.257, 6965.412
506.739, 7039.018
507.221, 7071.636
507.703, 7064.592
508.185, 7069.370
508.667, 7118.041
509.150, 7184.359
509.632, 7203.921
510.114, 7145.117
510.596, 7111.745
511.078, 7123.781
511.560, 7154.966
512.042, 7194.924
512.524, 7237.227
513.006, 7272.813
513.489, 7295.718
513.971, 7305.589
514.453, 7298.497
514.935, 7264.517
515.417, 7244.003
515.899, 7261.926
516.381, 7283.779
516.863, 7284.751
517.346, 7264.396
517.828, 7238.589
518.310, 7220.470
518.792, 7197.296
519.274, 7141.602
519.756, 7058.865
520.238, 7001.531
520.720, 7000.452
521.202, 7020.341
521.685, 6992.154
522.167, 6885.523
522.649, 6794.759
523.131, 6729.857
523.613, 6676.137
524.095, 6634.771
524.577, 6597.454
525.059, 6544.327
525.541, 6460.491
526.024, 6363.096
526.506, 6290.908
526.988, 6249.909
527.470, 6187.121
527.952, 6077.879
528.434, 5963.668
528.916, 5883.756
529.398, 5829.375
529.880, 5755.647
530.363, 5619.068
530.845, 5485.565
531.327, 5425.024
531.809, 5412.247
532.291, 5375.314
532.773, 5288.397
533.255, 5178.042
533.737, 5080.960
534.219, 5002.067
534.702, 4920.786
535.184, 4847.008
535.666, 4760.119
536.148, 4635.129
536.630, 4497.929
537.112, 4389.629
537.594, 4327.338
538.076, 4273.401
538.559, 4176.306
539.041, 4042.039
539.523, 3928.299
540.005, 3846.747
540.487, 3771.531
540.969, 3686.410
541.451, 3593.018
541.933, 3497.482
542.416, 3397.077
542.898, 3298.679
543.380, 3204.230
543.862, 3113.450
544.344, 3027.260
544.826, 2944.709
545.308, 2857.736
545.790, 2757.234
546.273, 2645.228
546.755, 2547.825
547.237, 2475.003
547.719, 2400.931
548.201, 2318.875
548.683, 2233.890
549.165, 2147.452
549.647, 2060.329
550.130, 1977.487
550.612, 1899.417
551.094, 1828.610
551.576, 1773.026
552.058, 1731.916
552.540, 1684.196
553.022, 1617.947
553.504, 1540.228
553.986, 1467.964
554.469, 1398.221
554.951, 1338.288
555.433, 1296.674
555.915, 1255.812
556.397, 1205.220
556.879, 1147.042
557.361, 1086.984
557.843, 1026.582
558.325, 970.653
558.808, 933.256
559.290, 916.061
559.772, 886.343
560.254, 833.182
560.736, 773.967
561.218, 726.628
561.700, 687.236
562.182, 638.678
562.664, 563.021
563.147, 493.337
563.629, 451.479
564.111, 425.933
564.593, 399.308
565.075, 366.959
565.557, 333.292
566.039, 304.132
566.521, 279.693
567.003, 245.688
567.486, 191.989
567.968, 144.467
568.450, 115.202
568.932, 91.674
569.414, 57.534
569.896, 10.410
570.378, 27.607
570.860, 35.476
571.343, 28.337
571.825, 28.824
572.307, 38.125
572.789, 54.369
573.271, 79.480
573.753, 106.343
574.235, 119.188
574.717, 110.431
575.200, 101.157
575.682, 94.522
576.164, 84.275
576.646, 67.791
577.128, 45.056
577.610, 12.832
578.092, 34.320
578.574, 75.107
579.057, 76.386
579.539, 40.650
580.021, 5.010
580.503, 58.634
580.985, 115.286
581.467, 176.469
581.949, 238.458
582.431, 276.871
582.913, 270.118
583.396, 266.871
583.878, 246.259
584.360, 203.956
584.842, 171.085
585.324, 150.031
585.806, 134.925
586.288, 120.983
586.770, 108.101
587.252, 94.896
587.735, 80.782
588.217, 68.687
588.699, 62.303
589.181, 55.772
589.663, 43.482
590.145, 25.489
590.627, 5.095
591.109, 27.298
591.591, 52.683
592.074, 48.786
592.556, 26.598
593.038, 13.002
593.520, 17.567
594.002, 31.255
594.484, 42.080
594.966, 50.249
595.448, 54.501
595.930, 53.161
596.413, 49.906
596.895, 47.375
597.377, 42.985
597.859, 30.462
598.341, 7.101
598.823, 7.862
599.305, 1.253
599.787, 24.370
600.270, 52.527
600.752, 82.457
601.234, 97.178
601.716, 85.638
602.198, 58.801
602.680, 42.873
603.162, 42.670
603.644, 43.250
604.127, 40.143
604.609, 42.125
605.091, 61.836
605.573, 87.899
606.055, 96.969
606.537, 76.334
607.019, 51.430
607.501, 52.098
607.984, 69.550
608.466, 74.275
608.948, 61.566
609.430, 48.152
609.912, 46.271
610.394, 53.814
610.876, 60.554
611.358, 75.880
611.840, 77.482
612.323, 70.332
612.805, 108.099
613.287, 128.745
613.769, 133.650
614.251, 133.729
614.733, 132.990
615.215, 134.638
615.697, 144.719
616.179, 162.554
616.662, 180.578
617.144, 196.644
617.626, 215.091
618.108, 240.837
618.590, 273.457
619.072, 303.126
619.554, 335.845
620.036, 358.293
620.518, 362.106
621.001, 358.020
621.483, 351.490
621.965, 346.293
622.447, 350.954
622.929, 375.755
623.411, 410.386
623.893, 427.771
624.375, 427.204
624.857, 437.865
625.340, 471.768
625.822, 511.474
626.304, 539.448
626.786, 555.004
627.268, 565.062
627.750, 556.169
628.232, 557.256
628.714, 590.968
629.197, 634.330
629.679, 659.001
630.161, 660.467
630.643, 653.806
631.125, 648.793
631.607, 646.913
632.089, 656.514
632.571, 680.152
633.054, 701.632
633.536, 713.458
634.018, 724.129
634.500, 747.388
634.982, 784.636
635.464, 810.274
635.946, 813.976
636.428, 813.740
636.911, 813.142
637.393, 815.400
637.875, 825.159
638.357, 841.142
638.839, 856.593
639.321, 867.297
639.803, 871.524
640.285, 862.442
640.768, 841.220
641.250, 821.785
641.732, 807.521
642.214, 802.309
642.696, 815.515
643.178, 849.880
643.660, 864.715
644.142, 834.517
644.624, 808.316
645.107, 812.155
645.589, 833.162
646.071, 855.472
646.553, 873.361
647.035, 882.773
647.517, 876.645
647.999, 858.962
648.481, 846.218
648.963, 838.372
649.446, 831.725
649.928, 826.508
650.410, 824.822
650.892, 828.326
651.374, 837.680
651.856, 847.581
652.338, 867.056
652.820, 876.417
653.302, 856.608
653.785, 826.473
654.267, 810.372
654.749, 814.480
655.231, 829.400
655.713, 849.508
656.195, 872.773
656.677, 895.870
657.159, 919.921
657.641, 929.695
658.124, 916.429
658.606, 889.963
659.088, 863.620
659.570, 838.123
660.052, 817.639
660.534, 812.213
661.016, 798.652
661.498, 759.459
661.981, 712.645
662.463, 678.105
662.945, 660.169
663.427, 653.011
663.909, 659.543
664.391, 672.450
664.873, 672.760
665.355, 660.192
665.838, 639.123
666.320, 608.402
666.802, 580.016
667.284, 569.668
667.766, 579.808
668.248, 582.627
668.730, 581.050
669.212, 568.864
669.695, 530.424
670.177, 491.726
670.659, 482.864
671.141, 502.236
671.623, 519.984
672.105, 514.552
672.587, 498.357
673.069, 489.321
673.551, 486.586
674.034, 484.540
674.516, 481.367
674.998, 477.279
675.480, 472.323
675.962, 466.675
676.444, 464.270
676.926, 468.561
677.408, 469.820
677.890, 466.234
678.373, 459.436
678.855, 446.742
679.337, 430.752
679.819, 423.978
680.301, 441.254
680.783, 459.444
681.265, 454.071
681.747, 434.950
682.229, 422.731
682.712, 421.613
683.194, 425.057
683.676, 427.769
684.158, 430.169
684.640, 434.459
685.122, 443.394
685.604, 445.937
686.086, 432.803
686.568, 420.796
687.051, 423.068
687.533, 435.723
688.015, 446.103
688.497, 454.833
688.979, 455.900
689.461, 435.790
689.943, 412.699
690.425, 411.021
690.908, 429.614
691.390, 451.181
691.872, 465.652
692.354, 472.790
692.836, 470.040
693.318, 456.811
693.800, 443.945
694.282, 430.066
694.765, 422.920
695.247, 430.614
695.729, 448.551
696.211, 462.038
696.693, 470.758
697.175, 475.874
697.657, 474.841
698.139, 472.729
698.622, 472.306
699.104, 473.521
699.586, 477.105
700.068, 483.699
700.550, 487.524
701.032, 477.942
701.514, 460.504
701.996, 456.212
702.478, 466.700
702.961, 472.321
703.443, 459.739
703.925, 442.352
704.407, 448.440
704.889, 492.443
705.371, 510.190
705.853, 475.986
706.335, 444.927
706.817, 438.119
707.300, 439.192
707.782, 426.269
708.264, 397.600
708.746, 376.976
709.228, 386.366
709.710, 404.710
710.192, 409.958
710.674, 404.804
711.157, 396.910
711.639, 388.723
712.121, 381.688
712.603, 378.258
713.085, 377.705
713.567, 369.795
714.049, 350.333
714.531, 334.144
715.013, 323.417
715.496, 318.980
715.978, 327.183
716.460, 344.425
716.942, 347.474
717.424, 315.788
717.906, 292.299
718.388, 303.163
718.870, 322.329
719.352, 318.766
719.835, 294.632
720.317, 275.449
720.799, 276.773
721.281, 286.224
721.763, 278.671
722.245, 257.173
722.727, 250.824
723.209, 264.559
723.692, 278.030
724.174, 279.446
724.656, 270.080
725.138, 254.604
725.620, 222.230
726.102, 203.613
726.584, 212.624
727.066, 219.261
727.549, 207.716
728.031, 186.428
728.513, 168.263
728.995, 156.237
729.477, 149.106
729.959, 148.223
730.441, 149.767
730.923, 150.160
731.406, 148.656
731.888, 142.293
732.370, 130.198
732.852, 119.417
733.334, 119.937
733.816, 130.295
734.298, 132.156
734.780, 122.873
735.262, 114.406
735.745, 110.495
736.227, 108.110
736.709, 104.293
737.191, 98.984
737.673, 93.437
738.155, 88.986
738.637, 82.514
739.119, 65.517
739.601, 51.729
740.084, 61.486
740.566, 87.933
741.048, 101.410
741.530, 82.671
742.012, 54.728
742.494, 45.523
742.976, 49.880
743.458, 53.954
743.940, 55.877
744.423, 56.226
744.905, 55.492
745.387, 52.728
745.869, 44.694
746.351, 28.234
746.833, 17.920
747.315, 17.038
747.797, 17.529
748.279, 15.668
748.762, 13.220
749.244, 12.518
749.726, 13.800
750.208, 15.717
750.690, 17.107
751.172, 19.740
751.654, 28.374
752.136, 37.494
752.619, 36.918
753.101, 25.627
753.583, 14.051
754.065, 11.954
754.547, 14.283
755.029, 8.675
755.511, 3.575
755.993, 11.106
756.476, 11.093
756.958, 8.113
757.440, 5.604
757.922, 3.489
758.404, 1.025
758.886, 4.754
759.368, 5.013
759.850, 8.240
760.333, 19.746
760.815, 19.501
761.297, 13.067
761.779, 11.803
762.261, 19.419
762.743, 25.032
763.225, 22.794
763.707, 24.041
764.189, 16.211
764.672, 6.045
765.154, 6.750
765.636, 21.789
766.118, 5.677
766.600, 2.282
767.082, 1.912
767.564, 2.902
768.046, 11.975
768.528, 17.257
769.011, 16.135
769.493, 11.499
769.975, 5.432
770.457, 1.720
770.939, 5.160
771.421, 2.218
771.903, 0.116
772.385, 1.482
772.867, 1.454
773.350, 5.952
773.832, 14.425
774.314, 7.375
774.796, 10.223
775.278, 11.293
775.760, 0.582
776.242, 10.463
776.724, 11.169
777.206, 3.129
777.689, 10.006
778.171, 1.146
778.653, 14.091
779.135, 12.191
779.617, 0.221
780.099, 10.598
780.581, 3.087
781.063, 1.177
781.546, 8.774
782.028, 3.653
782.510, 8.018
782.992, 5.192
783.474, 13.083
783.956, 6.908
784.438, 3.754
784.920, 11.116
785.403, 17.576
785.885, 12.237
786.367, 0.105
786.849, 2.527
787.331, 12.931
787.813, 24.958
788.295, 21.070
788.777, 15.845
789.260, 21.151
789.742, 33.674
790.224, 48.195
790.706, 62.455
791.188, 69.681
791.670, 57.718
792.152, 36.613
792.634, 27.403
793.117, 28.936
793.599, 29.105
794.081, 24.027
794.563, 21.358
795.045, 29.922
795.527, 46.986
796.009, 53.952
796.491, 47.505
796.973, 42.417
797.456, 42.046
797.938, 42.074
798.420, 39.265
798.902, 34.442
799.384, 29.789
799.866, 21.571
800.348, 21.514
800.830, 41.992
801.312, 59.649
801.795, 56.762
802.277, 44.673
802.759, 42.574
803.241, 54.313
803.723, 65.323
804.205, 64.273
804.687, 59.564
805.169, 59.683
805.651, 63.345
806.134, 70.078
806.616, 78.363
807.098, 78.664
807.580, 61.162
808.062, 36.837
808.544, 36.948
809.026, 60.951
809.508, 67.434
809.990, 47.921
810.473, 29.873
810.955, 29.660
811.437, 40.856
811.919, 49.861
812.401, 56.039
812.883, 62.559
813.365, 70.899
813.847, 77.449
814.330, 82.334
814.812, 84.550
815.294, 82.337
815.776, 76.277
816.258, 72.096
816.740, 73.637
817.222, 74.537
817.704, 70.501
818.187, 64.475
818.669, 60.924
819.151, 60.203
819.633, 59.908
820.115, 58.420
820.597, 56.477
821.079, 55.987
821.561, 55.910
822.044, 53.594
822.526, 49.828
823.008, 49.748
823.490, 54.526
823.972, 59.812
824.454, 58.034
824.936, 50.482
825.418, 45.648
825.900, 43.920
826.383, 40.509
826.865, 32.397
827.347, 27.230
827.829, 33.379
828.311, 47.410
828.793, 53.649
829.275, 47.539
829.757, 41.730
830.239, 33.474
830.722, 28.167
831.204, 29.820
831.686, 35.372
832.168, 41.603
832.650, 47.297
833.132, 50.772
833.614, 51.615
834.096, 50.896
834.578, 48.733
835.061, 45.910
835.543, 42.992
836.025, 40.469
836.507, 35.838
836.989, 27.799
837.471, 21.257
837.953, 23.254
838.435, 30.065
838.917, 30.105
839.400, 22.493
839.882, 14.093
840.364, 7.773
840.846, 3.975
841.328, 1.606
841.810, 0.411
842.292, 2.427
842.774, 1.766
843.257, 1.948
843.739, 3.018
844.221, 13.213
844.703, 13.372
845.185, 5.760
845.667, 0.083
846.149, 3.885
846.631, 3.796
847.114, 6.437
847.596, 18.650
848.078, 26.903
848.560, 30.469
849.042, 26.942
849.524, 14.714
850.006, 4.677
850.488, 4.410
850.971, 2.652
851.453, 11.577
851.935, 34.059
852.417, 41.280
852.899, 33.945
853.381, 27.994
853.863, 32.542
854.345, 38.348
854.827, 37.689
855.310, 32.824
855.792, 24.806
856.274, 15.756
856.756, 11.557
857.238, 14.645
857.720, 21.103
858.202, 28.250
858.684, 34.765
859.166, 33.597
859.649, 25.551
860.131, 22.864
860.613, 29.179
861.095, 34.673
861.577, 30.283
862.059, 19.776
862.541, 16.758
863.023, 22.699
863.505, 30.048
863.988, 40.738
864.470, 47.445
864.952, 45.312
865.434, 38.255
865.916, 32.957
866.398, 29.865
866.880, 26.535
867.362, 19.099
867.844, 16.448
868.327, 23.140
868.809, 32.793
869.291, 44.786
869.773, 55.605
870.255, 54.137
870.737, 30.760
871.219, 14.968
871.701, 2.288
872.184, 9.981
872.666, 120.455
873.148, 256.990
873.630, 294.214
874.112, 213.890
874.594, 119.359
875.076, 68.796
875.558, 43.423
876.041, 28.525
876.523, 22.224
877.005, 26.511
877.487, 38.560
877.969, 45.891
878.451, 41.361
878.933, 33.856
879.415, 36.151
879.898, 45.627
880.380, 54.341
880.862, 61.910
881.344, 66.238
881.826, 66.913
882.308, 66.935
882.790, 69.330
883.272, 73.131
883.755, 74.559
884.237, 73.611
884.719, 71.092
885.201, 66.402
885.683, 60.974
886.165, 54.523
886.647, 49.650
887.129, 51.527
887.611, 62.093
888.094, 62.232
888.576, 40.542
889.058, 28.295
889.540, 40.078
890.022, 55.375
890.504, 56.815
890.986, 48.960
891.468, 47.452
891.950, 56.584
892.433, 64.481
892.915, 73.291
893.397, 75.890
893.879, 61.933
894.361, 43.854
894.843, 38.636
895.325, 46.966
895.807, 52.995
896.289, 47.927
896.772, 43.333
897.254, 45.198
897.736, 49.577
898.218, 54.714
898.700, 59.163
899.182, 58.902
899.664, 52.388
900.146, 45.840
900.628, 44.345
901.111, 45.515
901.593, 48.357
902.075, 50.774
902.557, 47.393
903.039, 38.768
903.521, 31.657
904.003, 30.954
904.485, 33.918
904.968, 38.828
905.450, 44.366
905.932, 46.158
906.414, 44.962
906.896, 47.862
907.378, 57.290
907.860, 65.481
908.342, 62.821
908.825, 52.339
909.307, 44.567
909.789, 39.231
910.271, 38.002
910.753, 41.936
911.235, 43.186
911.717, 36.129
912.199, 25.907
912.682, 22.796
913.164, 27.578
913.646, 31.322
914.128, 34.148
914.610, 35.684
915.092, 36.218
915.574, 34.752
916.056, 29.232
916.538, 21.077
917.021, 16.840
917.503, 20.117
917.985, 19.971
918.467, 11.425
918.949, 5.863
919.431, 9.507
919.913, 16.986
920.395, 24.441
920.877, 31.584
921.360, 30.920
921.842, 11.396
922.324, 1.143
922.806, 1.458
923.288, 8.882
923.770, 17.880
924.252, 25.811
924.734, 28.674
925.216, 25.613
925.699, 20.039
926.181, 9.408
926.663, 0.960
927.145, 0.065
927.627, 1.835
928.109, 0.413
928.591, 1.345
929.073, 1.743
929.555, 4.407
930.038, 10.852
930.520, 11.953
931.002, 9.256
931.484, 2.025
931.966, 1.485
932.448, 9.071
932.930, 13.917
933.412, 12.235
933.895, 1.530
934.377, 8.498
934.859, 3.658
935.341, 2.958
935.823, 8.956
936.305, 8.831
936.787, 7.303
937.269, 5.926
937.752, 3.523
938.234, 1.753
938.716, 1.063
939.198, 2.993
939.680, 2.300
940.162, 2.426
940.644, 3.502
941.126, 3.079
941.609, 0.046
942.091, 3.480
942.573, 2.858
943.055, 3.490
943.537, 0.779
944.019, 5.436
944.501, 6.878
944.983, 2.118
945.465, 1.756
945.948, 0.306
946.430, 4.292
946.912, 1.030
947.394, 0.389
947.876, 3.136
948.358, 1.581
948.840, 3.094
949.322, 1.918
949.804, 3.473
950.287, 0.542
950.769, 5.518
951.251, 2.558
951.733, 1.639
952.215, 4.913
952.697, 3.934
953.179, 3.726
953.661, 0.746
954.144, 4.994
954.626, 4.573
955.108, 1.988
955.590, 1.687
956.072, 4.297
956.554, 1.907
957.036, 2.909
957.518, 5.534
958.000, 0.311
958.483, 5.401
958.965, 9.414
959.447, 11.808
959.929, 8.821
960.411, 5.033
960.893, 0.710
961.375, 5.820
961.857, 2.424
962.339, 8.491
962.822, 11.408
963.304, 8.009
963.786, 4.010
964.268, 4.541
964.750, 2.655
965.232, 3.338
965.714, 6.795
966.196, 8.898
966.679, 9.358
967.161, 9.198
967.643, 11.637
968.125, 18.743
968.607, 21.907
969.089, 15.969
969.571, 12.437
970.053, 15.882
970.536, 21.571
971.018, 26.479
971.500, 30.369
971.982, 32.732
972.464, 32.343
972.946, 33.392
973.428, 39.360
973.910, 43.153
974.393, 38.219
974.875, 32.673
975.357, 35.401
975.839, 45.371
976.321, 55.371
976.803, 67.631
977.285, 73.228
977.767, 63.675
978.249, 54.695
978.732, 54.200
979.214, 58.753
979.696, 63.893
980.178, 69.269
980.660, 77.475
981.142, 91.644
981.624, 104.075
982.106, 111.350
982.588, 117.537
983.071, 125.470
983.553, 133.691
984.035, 138.258
984.517, 139.611
984.999, 146.685
985.481, 168.080
985.963, 187.648
986.445, 195.313
986.927, 203.513
987.410, 220.454
987.892, 244.459
988.374, 273.552
988.856, 307.072
989.338, 339.412
989.820, 358.228
990.302, 388.387
990.784, 436.524
991.266, 504.347
991.749, 589.162
992.231, 696.056
992.713, 839.329
993.195, 1021.042
993.677, 1209.675
994.159, 1385.480
994.641, 1576.250
995.123, 1783.664
995.606, 2020.683
996.088, 2287.659
996.570, 2595.529
997.052, 2974.785
997.534, 3431.735
998.016, 3886.862
998.498, 4457.727
998.980, 4826.935
999.463, 4831.700
999.945, 4555.504
1000.427, 3965.909
1000.909, 3193.327
1001.391, 2463.302
1001.873, 1824.404
1002.355, 1313.492
1002.837, 972.272
1003.319, 728.662
1003.802, 577.096
1004.284, 476.034
1004.766, 395.395
1005.248, 330.343
1005.730, 283.307
1006.212, 255.548
1006.694, 231.138
1007.176, 200.354
1007.659, 174.617
1008.141, 163.638
1008.623, 158.669
1009.105, 150.668
1009.587, 140.778
1010.069, 135.866
1010.551, 138.613
1011.033, 141.161
1011.515, 138.098
1011.998, 134.909
1012.480, 135.666
1012.962, 138.317
1013.444, 138.387
1013.926, 138.504
1014.408, 146.909
1014.890, 166.453
1015.372, 185.954
1015.854, 201.873
1016.337, 217.128
1016.819, 226.459
1017.301, 240.164
1017.783, 269.718
1018.265, 310.311
1018.747, 348.213
1019.229, 379.595
1019.711, 418.778
1020.194, 478.871
1020.676, 535.477
1021.158, 571.944
1021.640, 604.200
1022.122, 654.757
1022.604, 713.217
1023.086, 753.383
1023.568, 772.596
1024.051, 761.674
1024.533, 703.945
1025.015, 633.642
1025.497, 550.914
1025.979, 472.976
1026.461, 415.892
1026.943, 374.043
1027.425, 331.913
1027.907, 286.044
1028.390, 248.055
1028.872, 224.574
1029.354, 203.739
1029.836, 179.173
1030.318, 158.293
1030.800, 148.785
1031.282, 146.794
1031.764, 144.207
1032.246, 140.410
1032.729, 134.681
1033.211, 126.195
1033.693, 116.695
1034.175, 103.067
1034.657, 92.104
1035.139, 90.189
1035.621, 93.627
1036.103, 95.145
1036.586, 94.176
1037.068, 93.031
1037.550, 94.730
1038.032, 92.001
1038.514, 78.483
1038.996, 65.839
1039.478, 59.826
1039.960, 59.339
1040.443, 63.831
1040.925, 74.108
1041.407, 80.503
1041.889, 81.729
1042.371, 81.207
1042.853, 78.053
1043.335, 74.955
1043.817, 72.112
1044.299, 71.244
1044.781, 75.295
1045.264, 84.228
1045.746, 93.336
1046.228, 100.822
1046.710, 113.519
1047.192, 133.424
1047.674, 154.756
1048.156, 171.141
1048.638, 193.783
1049.121, 237.970
1049.603, 302.441
1050.085, 372.693
1050.567, 449.678
1051.049, 526.573
1051.531, 599.272
1052.013, 685.416
1052.495, 792.546
1052.978, 915.118
1053.460, 1045.955
1053.942, 1186.323
1054.424, 1348.891
1054.906, 1535.741
1055.388, 1711.144
1055.870, 1877.465
1056.352, 1969.475
1056.834, 1964.020
1057.317, 1872.529
1057.799, 1697.834
1058.281, 1464.233
1058.763, 1221.835
1059.245, 975.172
1059.727, 782.191
1060.209, 642.824
1060.691, 523.640
1061.173, 415.664
1061.656, 328.704
1062.138, 272.304
1062.620, 234.946
1063.102, 197.059
1063.584, 160.928
1064.066, 136.179
1064.548, 120.530
1065.030, 103.030
1065.513, 81.711
1065.995, 61.863
1066.477, 46.638
1066.959, 33.590
1067.441, 18.233
1067.923, 3.924
1068.405, 2.217
1068.887, 2.471
1069.370, 0.856
1069.852, 1.003
1070.334, 0.091
1070.816, 5.038
1071.298, 9.347
1071.780, 7.292
1072.262, 3.770
1072.744, 1.502
1073.226, 2.421
1073.708, 11.184
1074.191, 5.501
1074.673, 9.302
1075.155, 4.596
1075.637, 5.313
1076.119, 0.378
1076.601, 2.054
1077.083, 6.464
1077.565, 7.042
1078.048, 6.334
1078.530, 4.444
1079.012, 2.721
1079.494, 13.284
1079.976, 19.111
1080.458, 0.226
1080.940, 7.731
1081.422, 8.698
1081.905, 0.538
1082.387, 7.612
1082.869, 12.170
1083.351, 12.543
1083.833, 9.668
1084.315, 9.717
1084.797, 18.132
1085.279, 21.512
1085.761, 11.634
1086.244, 6.779
1086.726, 15.893
1087.208, 28.921
1087.690, 38.331
1088.172, 44.736
1088.654, 49.539
1089.136, 53.906
1089.618, 50.847
1090.101, 34.185
1090.583, 27.504
1091.065, 38.529
1091.547, 54.653
1092.029, 69.389
1092.511, 80.624
1092.993, 83.376
1093.475, 78.121
1093.958, 74.808
1094.440, 73.386
1094.922, 75.594
1095.404, 81.901
1095.886, 88.300
1096.368, 92.918
1096.850, 95.956
1097.332, 97.426
1097.814, 97.482
1098.297, 95.395
1098.779, 92.124
1099.261, 92.277
1099.743, 95.596
1100.225, 98.608
1100.707, 100.129
1101.189, 100.388
1101.671, 98.992
1102.153, 98.212
1102.636, 104.697
1103.118, 111.491
1103.600, 102.975
1104.082, 86.745
1104.564, 80.865
1105.046, 86.685
1105.528, 93.500
1106.010, 96.653
1106.493, 97.976
1106.975, 97.759
1107.457, 97.414
1107.939, 97.211
1108.421, 98.147
1108.903, 103.932
1109.385, 111.204
1109.867, 110.270
1110.349, 98.295
1110.832, 90.207
1111.314, 97.081
1111.796, 99.392
1112.278, 83.136
1112.760, 68.909
1113.242, 73.685
1113.724, 86.771
1114.206, 91.386
1114.688, 87.336
1115.171, 85.574
1115.653, 88.544
1116.135, 88.557
1116.617, 83.395
1117.099, 79.682
1117.581, 81.411
1118.063, 82.036
1118.545, 74.240
1119.028, 62.218
1119.510, 59.335
1119.992, 66.750
1120.474, 70.135
1120.956, 69.110
1121.438, 69.292
1121.920, 72.120
1122.402, 70.854
1122.885, 60.837
1123.367, 49.511
1123.849, 47.594
1124.331, 52.895
1124.813, 61.068
1125.295, 70.363
1125.777, 74.919
1126.259, 74.065
1126.741, 68.298
1127.224, 58.167
1127.706, 45.937
1128.188, 30.882
1128.670, 19.776
1129.152, 25.960
1129.634, 36.240
1130.116, 33.743
1130.598, 22.741
1131.080, 10.103
1131.563, 1.921
1132.045, 3.020
1132.527, 0.829
1133.009, 3.533
1133.491, 0.394
1133.973, 7.913
1134.455, 13.474
1134.937, 13.609
1135.420, 3.472
1135.902, 2.018
1136.384, 8.377
1136.866, 10.824
1137.348, 10.957
1137.830, 7.198
1138.312, 3.621
1138.794, 1.498
1139.276, 4.115
1139.759, 1.179
1140.241, 2.208
1140.723, 0.831
1141.205, 7.139
1141.687, 2.551
1142.169, 1.538
1142.651, 0.105
1143.133, 2.383
1143.615, 1.489
1144.098, 4.124
1144.580, 2.863
1145.062, 13.320
1145.544, 32.915
1146.026, 38.905
1146.508, 35.877
1146.990, 31.212
1147.472, 27.979
1147.955, 38.092
1148.437, 56.853
1148.919, 62.782
1149.401, 50.598
1149.883, 42.464
1150.365, 54.443
1150.847, 71.409
1151.329, 84.761
1151.812, 95.362
1152.294, 109.052
1152.776, 116.682
1153.258, 98.469
1153.740, 62.110
1154.222, 43.797
1154.704, 54.752
1155.186, 66.239
1155.668, 73.538
1156.151, 80.086
1156.633, 87.196
1157.115, 92.917
1157.597, 96.308
1158.079, 97.476
1158.561, 96.051
1159.043, 92.113
1159.525, 90.170
1160.008, 90.127
1160.490, 92.991
1160.972, 98.775
1161.454, 104.990
1161.936, 112.279
1162.418, 117.466
1162.900, 116.296
1163.382, 110.399
1163.865, 109.983
1164.347, 112.974
1164.829, 105.799
1165.311, 87.295
1165.793, 67.870
1166.275, 52.943
1166.757, 47.812
1167.239, 52.040
1167.721, 56.311
1168.203, 54.339
1168.686, 52.623
1169.168, 57.336
1169.650, 62.944
1170.132, 63.482
1170.614, 60.551
1171.096, 61.445
1171.578, 66.215
1172.060, 64.746
1172.543, 51.513
1173.025, 48.514
1173.507, 71.686
1173.989, 83.449
1174.471, 69.447
1174.953, 55.112
1175.435, 54.275
1175.917, 59.927
1176.400, 61.307
1176.882, 59.387
1177.364, 64.611
1177.846, 77.914
1178.328, 81.668
1178.810, 74.666
1179.292, 67.651
1179.774, 63.222
1180.256, 61.716
1180.739, 64.405
1181.221, 69.762
1181.703, 77.529
1182.185, 83.934
1182.667, 78.442
1183.149, 67.897
1183.631, 61.958
1184.113, 62.555
1184.595, 69.284
1185.078, 80.962
1185.560, 83.806
1186.042, 62.582
1186.524, 47.236
1187.006, 62.087
1187.488, 71.293
1187.970, 45.040
1188.452, 11.503
1188.935, 2.048
1189.417, 0.328
1189.899, 18.412
1190.381, 57.958
1190.863, 71.026
1191.345, 49.815
1191.827, 23.952
1192.309, 7.228
1192.792, 0.027
1193.274, 6.479
1193.756, 0.000
##END=



