##NAMES=Xenotime-(Y)
##RRUFFID=R050178
##IDEAL CHEMISTRY=Y^3+^PO_4_
##LOCALITY=Novo Horizonte, Bahia, Brazil
##OWNER=RRUFF
##SOURCE=Marcus Origlieri
##DESCRIPTION=Brown crystal fragments
##STATUS=The identification of this mineral has been confirmed by X-ray diffraction and chemical analysis
##URL=rruff.info/R050178
##MEASURED CHEMISTRY=(Y_0.74_Dy_0.09_Gd_0.06_Er_0.04_Yb_0.02_Ho_0.01_Tb_0.01_Sm_0.01_Eu_0.01_)_Σ=1.00_(P_0.97_As_0.02_Si_0.01_)_Σ=1.00_O_4_
52.866, 0.000
54.266, 22.161
55.666, 10.024
57.065, 51.935
58.464, 28.039
59.863, 37.250
61.262, 7.817
62.661, 16.640
64.059, 50.466
65.458, 79.421
66.856, 50.307
68.253, 54.985
69.651, 76.378
71.048, 164.756
72.445, 219.011
73.842, 339.904
75.239, 770.268
76.635, 661.798
78.031, 687.792
79.427, 700.260
80.823, 461.854
82.218, 547.678
83.614, 488.600
85.009, 405.695
86.404, 401.455
87.798, 404.940
89.193, 470.021
90.587, 549.871
91.981, 484.427
93.375, 453.737
94.768, 387.841
96.161, 335.772
97.554, 315.890
98.947, 297.017
100.340, 287.759
101.732, 318.222
103.124, 336.614
104.516, 385.951
105.908, 459.612
107.300, 354.853
108.691, 270.296
110.082, 255.473
111.473, 249.604
112.864, 257.748
114.254, 367.908
115.644, 393.069
117.034, 359.685
118.424, 512.622
119.813, 318.315
121.203, 262.477
122.592, 269.937
123.981, 237.514
125.369, 183.749
126.758, 179.943
128.146, 211.715
129.534, 193.610
130.922, 172.625
132.309, 135.758
133.696, 167.011
135.083, 127.384
136.470, 184.864
137.857, 147.409
139.243, 151.018
140.630, 161.688
142.016, 100.424
143.401, 138.235
144.787, 128.123
146.172, 138.089
147.557, 146.007
148.942, 199.261
150.327, 155.468
151.711, 162.755
153.096, 181.123
154.480, 138.573
155.863, 60.103
157.247, 26.712
158.630, 12.401
160.013, 29.169
161.396, 68.016
162.779, 0.943
164.161, 3.948
165.544, 21.031
166.926, 113.193
168.308, 172.434
169.689, 231.750
171.070, 246.138
172.452, 362.595
173.833, 375.121
175.213, 285.718
176.594, 228.386
177.974, 109.127
179.354, 21.942
180.734, 31.167
182.114, 82.200
183.493, 142.155
184.872, 145.032
186.251, 90.829
187.630, 124.545
189.008, 120.184
190.387, 113.741
191.765, 90.226
193.143, 62.631
194.520, 71.952
195.898, 13.188
197.275, 40.339
198.652, 9.405
200.029, 30.606
201.405, 76.634
202.782, 93.755
204.158, 122.748
205.534, 133.677
206.909, 151.750
208.285, 173.892
209.660, 173.117
211.035, 255.436
212.410, 301.847
213.784, 360.351
215.159, 476.948
216.533, 653.029
217.907, 859.199
219.281, 1138.846
220.654, 1403.239
222.027, 1765.588
223.400, 2109.007
224.773, 2422.548
226.146, 2573.203
227.518, 2546.245
228.891, 2334.104
230.263, 2009.057
231.634, 1814.097
233.006, 1626.222
234.377, 1404.427
235.748, 1425.710
237.119, 1491.068
238.490, 1630.496
239.860, 1954.991
241.231, 2221.552
242.601, 2553.178
243.970, 2613.868
245.340, 2566.619
246.709, 2457.431
248.079, 2161.304
249.448, 2120.239
250.816, 2008.231
252.185, 1949.277
253.553, 2045.369
254.921, 2121.503
256.289, 2306.681
257.657, 2476.905
259.024, 2406.177
260.391, 2311.497
261.758, 2071.866
263.125, 1776.286
264.492, 1601.757
265.858, 1367.280
267.224, 1247.856
268.590, 1243.484
269.956, 1289.167
271.321, 1387.896
272.687, 1517.679
274.052, 1779.501
275.416, 1985.378
276.781, 2298.311
278.146, 2408.300
279.510, 2717.346
280.874, 2776.449
282.237, 2639.592
283.601, 2553.689
284.964, 2308.740
286.327, 2191.750
287.690, 2250.740
289.053, 2383.749
290.416, 2651.804
291.778, 2846.924
293.140, 2825.114
294.502, 2712.381
295.863, 2332.719
297.225, 2008.129
298.586, 1659.610
299.947, 1367.169
301.308, 1140.806
302.668, 953.515
304.029, 836.308
305.389, 811.171
306.749, 757.111
308.108, 712.114
309.468, 756.195
310.827, 700.345
312.186, 753.569
313.545, 787.879
314.903, 820.253
316.262, 929.716
317.620, 1021.261
318.978, 1172.895
320.336, 1300.607
321.693, 1506.328
323.051, 1775.826
324.408, 2109.764
325.765, 2425.770
327.121, 3060.219
328.478, 3580.884
329.834, 4428.065
331.190, 5209.327
332.546, 5938.651
333.902, 6626.039
335.257, 7275.489
336.612, 7468.002
337.967, 7449.578
339.322, 7073.218
340.677, 6481.920
342.031, 6091.685
343.385, 5479.512
344.739, 5106.082
346.093, 4616.659
347.446, 4250.613
348.799, 4097.557
350.153, 4064.107
351.505, 3930.241
352.858, 3821.904
354.210, 3910.032
355.563, 3944.178
356.915, 3834.834
358.267, 3662.833
359.618, 3473.042
360.969, 3322.460
362.321, 3165.927
363.672, 3071.699
365.022, 2967.533
366.373, 2944.431
367.723, 2907.393
369.073, 2795.417
370.423, 2749.507
371.773, 2453.660
373.122, 2274.877
374.471, 2113.156
375.821, 2040.499
377.169, 1973.906
378.518, 2008.156
379.866, 2116.910
381.215, 2216.507
382.563, 2412.174
383.910, 2630.910
385.258, 2848.716
386.605, 3130.592
387.952, 3398.537
389.299, 3318.551
390.646, 3316.638
391.992, 3152.792
393.339, 2927.014
394.685, 2640.306
396.031, 2229.664
397.376, 2087.091
398.722, 1698.585
400.067, 1450.147
401.412, 1250.775
402.757, 1038.471
404.101, 895.233
405.446, 747.062
406.790, 603.956
408.134, 589.917
409.478, 504.944
410.821, 436.037
412.165, 370.196
413.508, 293.420
414.851, 333.711
416.193, 314.067
417.536, 336.488
418.878, 236.975
420.220, 311.526
421.562, 314.142
422.904, 230.822
424.245, 337.566
425.586, 386.374
426.927, 358.245
428.268, 361.181
429.609, 498.180
430.949, 424.243
432.289, 520.369
433.629, 597.558
434.969, 656.812
436.309, 749.800
437.648, 841.264
438.987, 929.954
440.326, 1036.462
441.665, 1163.032
443.003, 1243.664
444.342, 1510.358
445.680, 1649.113
447.018, 1778.934
448.355, 1898.815
449.693, 1927.017
451.030, 1913.026
452.367, 1839.661
453.704, 1830.294
455.041, 1666.009
456.377, 1621.457
457.713, 1447.872
459.049, 1306.551
460.385, 1210.973
461.721, 1185.389
463.056, 1063.429
464.391, 1029.452
465.726, 1032.410
467.061, 1124.494
468.395, 1093.330
469.730, 1167.250
471.064, 1229.064
472.398, 1323.037
473.731, 1526.105
475.065, 1646.276
476.398, 1824.172
477.731, 2015.255
479.064, 2233.507
480.397, 2532.857
481.729, 2637.654
483.062, 2775.994
484.394, 2739.737
485.725, 2638.521
487.057, 2433.584
488.389, 2114.483
489.720, 1868.464
491.051, 1497.525
492.382, 1390.668
493.712, 1001.889
495.043, 938.188
496.373, 733.565
497.703, 570.023
499.032, 452.555
500.362, 332.893
501.691, 279.838
503.020, 198.591
504.349, 110.415
505.678, 112.318
507.007, 73.310
508.335, 41.400
509.663, 72.590
510.991, 19.865
512.319, 21.770
513.646, 25.314
514.973, 13.774
516.300, 35.149
517.627, 53.551
518.954, 48.331
520.280, 65.182
521.607, 54.104
522.933, 115.092
524.259, 140.144
525.584, 170.339
526.910, 205.666
528.235, 268.817
529.560, 256.121
530.885, 307.482
532.209, 329.152
533.534, 296.407
534.858, 308.950
536.182, 354.565
537.506, 274.450
538.829, 311.320
540.152, 337.270
541.476, 285.167
542.799, 312.068
544.121, 266.978
545.444, 253.933
546.766, 298.047
548.088, 330.089
549.410, 306.169
550.732, 318.287
552.053, 288.441
553.375, 320.840
554.696, 321.067
556.017, 372.592
557.337, 352.883
558.658, 383.303
559.978, 413.654
561.298, 415.314
562.618, 422.722
563.938, 446.156
565.257, 416.699
566.576, 462.651
567.895, 415.962
569.214, 517.571
570.533, 543.350
571.851, 539.966
573.170, 691.920
574.488, 850.655
575.805, 1166.460
577.123, 1352.310
578.440, 1302.069
579.758, 870.887
581.075, 685.644
582.391, 526.435
583.708, 459.253
585.024, 327.092
586.341, 327.964
587.657, 324.891
588.972, 311.823
590.288, 227.786
591.603, 158.906
592.918, 145.027
594.233, 167.245
595.548, 201.610
596.863, 121.780
598.177, 96.999
599.491, 97.192
600.805, 120.288
602.119, 46.481
603.432, 39.594
604.746, 47.029
606.059, 25.137
607.372, 10.416
608.685, 32.025
609.997, 22.728
611.309, 19.604
612.621, 77.333
613.933, 41.399
615.245, 37.849
616.557, 43.108
617.868, 84.068
619.179, 81.368
620.490, 45.145
621.801, 111.078
623.111, 37.854
624.421, 63.227
625.731, 18.448
627.041, 76.458
628.351, 23.315
629.660, 49.881
630.970, 113.187
632.279, 23.958
633.588, 123.564
634.896, 84.362
636.205, 124.413
637.513, 62.624
638.821, 69.127
640.129, 56.101
641.437, 39.977
642.744, 11.120
644.051, 5.221
645.358, 17.714
646.665, 100.423
647.972, 178.235
649.278, 157.198
650.584, 244.576
651.890, 286.425
653.196, 569.783
654.502, 815.006
655.807, 1013.690
657.113, 889.529
658.418, 723.023
659.722, 553.024
661.027, 355.580
662.331, 172.192
663.636, 207.343
664.940, 204.307
666.244, 148.013
667.547, 179.279
668.851, 170.436
670.154, 198.970
671.457, 159.908
672.760, 188.744
674.062, 203.135
675.365, 218.439
676.667, 231.133
677.969, 228.925
679.271, 254.583
680.572, 247.408
681.874, 206.323
683.175, 283.178
684.476, 235.161
685.777, 266.948
687.077, 322.648
688.378, 278.500
689.678, 321.514
690.978, 322.766
692.278, 313.668
693.577, 274.639
694.877, 302.469
696.176, 307.011
697.475, 340.672
698.774, 361.901
700.072, 391.097
701.371, 402.603
702.669, 376.284
703.967, 426.159
705.265, 497.164
706.562, 445.543
707.860, 476.073
709.157, 399.558
710.454, 536.461
711.751, 402.305
713.047, 496.698
714.344, 460.097
715.640, 581.256
716.936, 432.180
718.232, 545.872
719.527, 515.994
720.823, 503.208
722.118, 494.950
723.413, 507.806
724.708, 526.626
726.002, 500.035
727.297, 551.997
728.591, 485.496
729.885, 551.816
731.179, 549.591
732.472, 553.420
733.766, 590.640
735.059, 592.124
736.352, 627.075
737.645, 695.074
738.937, 681.777
740.230, 662.632
741.522, 686.451
742.814, 661.382
744.106, 684.244
745.397, 691.722
746.689, 663.087
747.980, 674.201
749.271, 660.363
750.562, 632.374
751.853, 684.109
753.143, 674.563
754.433, 681.370
755.723, 704.968
757.013, 681.358
758.303, 699.537
759.592, 621.505
760.881, 698.333
762.170, 619.735
763.459, 625.631
764.748, 588.897
766.036, 582.418
767.325, 699.554
768.613, 578.483
769.901, 662.735
771.188, 634.889
772.476, 613.140
773.763, 687.784
775.050, 634.186
776.337, 679.742
777.624, 682.911
778.910, 667.023
780.196, 685.622
781.482, 668.369
782.768, 692.096
784.054, 689.889
785.339, 705.298
786.625, 699.219
787.910, 709.362
789.195, 761.248
790.479, 729.760
791.764, 765.792
793.048, 746.251
794.332, 744.640
795.616, 837.899
796.900, 806.844
798.183, 844.218
799.467, 858.256
800.750, 822.645
802.033, 853.066
803.316, 878.166
804.598, 945.780
805.880, 949.302
807.163, 1012.439
808.445, 995.998
809.726, 1119.186
811.008, 1139.035
812.289, 1194.175
813.570, 1175.731
814.851, 1237.739
816.132, 1250.675
817.413, 1218.861
818.693, 1248.122
819.973, 1268.584
821.253, 1301.185
822.533, 1305.373
823.813, 1246.387
825.092, 1275.928
826.371, 1210.133
827.650, 1209.996
828.929, 1225.517
830.208, 1189.699
831.486, 1232.535
832.764, 1227.035
834.042, 1202.198
835.320, 1183.021
836.598, 1172.425
837.875, 1212.566
839.152, 1147.318
840.429, 1198.783
841.706, 1172.751
842.983, 1087.692
844.259, 1117.143
845.536, 1185.254
846.812, 1101.016
848.088, 1123.228
849.363, 1121.175
850.639, 1200.763
851.914, 1135.128
853.189, 1059.213
854.464, 1147.005
855.739, 1112.477
857.013, 1151.509
858.288, 1197.339
859.562, 1143.858
860.836, 1188.062
862.110, 1086.959
863.383, 1108.333
864.656, 1172.602
865.930, 1098.301
867.203, 1071.958
868.475, 1153.211
869.748, 1057.261
871.020, 1048.725
872.292, 1067.165
873.564, 1032.305
874.836, 1042.062
876.108, 1004.883
877.379, 979.250
878.650, 919.438
879.922, 921.853
881.192, 865.152
882.463, 850.833
883.733, 805.452
885.004, 780.717
886.274, 739.651
887.544, 704.391
888.813, 754.780
890.083, 602.950
891.352, 633.787
892.621, 689.305
893.890, 550.518
895.159, 561.400
896.427, 509.931
897.695, 503.158
898.964, 597.056
900.232, 584.511
901.499, 599.681
902.767, 626.472
904.034, 661.358
905.301, 714.130
906.568, 750.107
907.835, 850.847
909.102, 870.422
910.368, 784.642
911.634, 715.680
912.900, 648.137
914.166, 513.661
915.432, 419.576
916.697, 330.218
917.962, 260.376
919.227, 228.134
920.492, 169.053
921.757, 92.988
923.021, 99.979
924.285, 61.453
925.550, 18.702
926.813, 90.873
928.077, 99.940
929.341, 122.216
930.604, 181.028
931.867, 129.621
933.130, 178.629
934.393, 230.420
935.655, 227.648
936.918, 365.542
938.180, 357.695
939.442, 345.543
940.703, 399.700
941.965, 348.006
943.226, 342.458
944.488, 414.152
945.749, 435.958
947.009, 458.702
948.270, 508.160
949.530, 516.357
950.791, 532.285
952.051, 536.443
953.311, 539.882
954.570, 520.813
955.830, 513.274
957.089, 512.524
958.348, 561.610
959.607, 597.583
960.866, 493.798
962.124, 557.823
963.383, 513.363
964.641, 453.901
965.899, 532.271
967.156, 423.534
968.414, 336.161
969.671, 429.610
970.928, 218.174
972.185, 194.729
973.442, 180.083
974.699, 18.436
975.955, 79.171
977.211, 181.261
978.468, 263.381
979.723, 443.504
980.979, 601.901
982.234, 777.718
983.490, 1046.251
984.745, 1047.732
986.000, 1485.863
987.254, 1749.723
988.509, 2149.463
989.763, 2823.896
991.017, 3688.351
992.271, 5119.719
993.525, 7290.763
994.779, 11483.475
996.032, 17778.783
997.285, 22138.271
998.538, 19998.533
999.791, 13976.289
1001.044, 10371.138
1002.296, 8736.230
1003.548, 9063.593
1004.800, 10232.842
1006.052, 11822.627
1007.304, 14089.094
1008.555, 16446.219
1009.807, 18851.064
1011.058, 20774.402
1012.309, 21606.449
1013.559, 20914.402
1014.810, 19313.797
1016.060, 16926.125
1017.310, 14771.772
1018.560, 12772.283
1019.810, 10924.913
1021.060, 9860.651
1022.309, 8966.502
1023.558, 8273.803
1024.807, 7083.896
1026.056, 6118.350
1027.305, 5526.575
1028.553, 5013.729
1029.801, 4738.996
1031.049, 4697.987
1032.297, 4791.148
1033.545, 5024.387
1034.793, 5532.965
1036.040, 6200.613
1037.287, 7237.671
1038.534, 8358.374
1039.781, 9710.521
1041.027, 11185.540
1042.274, 12006.771
1043.520, 12588.771
1044.766, 13316.731
1046.012, 12848.504
1047.257, 12293.275
1048.503, 12092.363
1049.748, 12259.496
1050.993, 12891.816
1052.238, 15602.021
1053.483, 19065.324
1054.727, 22841.846
1055.971, 24636.586
1057.216, 24509.928
1058.459, 24640.424
1059.703, 27069.084
1060.947, 31143.904
1062.190, 36467.902
1063.433, 39791.992
1064.676, 39453.480
1065.919, 35619.176
1067.162, 30410.719
1068.404, 25336.428
1069.646, 19880.547
1070.888, 15925.833
1072.130, 12871.104
1073.372, 10155.544
1074.613, 8407.669
1075.855, 6877.706
1077.096, 5685.037
1078.337, 4769.645
1079.578, 4229.710
1080.818, 3767.953
1082.059, 3272.311
1083.299, 3003.492
1084.539, 3030.344
1085.779, 2978.312
1087.018, 3370.587
1088.258, 3700.334
1089.497, 4352.854
1090.736, 5232.009
1091.975, 6586.447
1093.213, 8289.310
1094.452, 9937.758
1095.690, 11529.957
1096.928, 11331.869
1098.166, 10686.858
1099.404, 9635.514
1100.642, 9017.370
1101.879, 8349.216
1103.116, 8812.113
1104.353, 9387.414
1105.590, 10957.275
1106.827, 12689.308
1108.063, 15768.635
1109.299, 18722.023
1110.536, 23125.688
1111.771, 27317.779
1113.007, 30989.670
1114.243, 35293.250
1115.478, 36969.480
1116.713, 37046.867
1117.948, 35332.082
1119.183, 32141.340
1120.418, 28656.488
1121.652, 25304.594
1122.886, 22871.234
1124.120, 20105.133
1125.354, 18222.594
1126.588, 16089.490
1127.821, 15001.836
1129.055, 13305.623
1130.288, 12835.873
1131.521, 11981.578
1132.753, 11548.750
1133.986, 11014.379
1135.218, 11211.473
1136.450, 11650.016
1137.682, 11773.020
1138.914, 13557.498
1140.146, 14076.457
1141.377, 15609.902
1142.609, 17166.818
1143.840, 19588.230
1145.071, 21615.141
1146.301, 24490.551
1147.532, 27475.453
1148.762, 30752.854
1149.992, 33266.738
1151.222, 36219.117
1152.452, 39860.996
1153.682, 42407.398
1154.911, 44132.293
1156.140, 45494.695
1157.369, 45620.605
1158.598, 44746.023
1159.827, 42856.922
1161.055, 40495.336
1162.284, 36876.277
1163.512, 33663.742
1164.740, 30313.729
1165.967, 27434.227
1167.195, 24646.504
1168.422, 21853.754
1169.650, 19824.795
1170.877, 17853.352
1172.103, 16254.426
1173.330, 15087.020
1174.557, 13734.129
1175.783, 13035.764
1177.009, 11501.930
1178.235, 10002.625
1179.461, 9430.852
1180.686, 8217.609
1181.912, 7073.908
1183.137, 6386.762
1184.362, 5720.160
1185.587, 4740.102
1186.811, 4227.592
1188.036, 3804.617
1189.260, 3446.191
1190.484, 3217.314
1191.708, 3161.982
1192.932, 3407.201
1194.155, 3521.975
1195.378, 3721.301
1196.602, 3942.184
1197.825, 4787.602
1199.047, 5007.559
1200.270, 5996.055
1201.492, 7119.078
1202.715, 8356.625
1203.937, 8841.695
1205.159, 10493.281
1206.380, 11367.379
1207.602, 11854.996
1208.823, 12121.129
1210.044, 11991.773
1211.265, 11873.934
1212.486, 10889.617
1213.707, 10643.828
1214.927, 9640.586
1216.147, 9109.891
1217.367, 8557.750
1218.587, 8326.174
1219.807, 8283.176
1221.027, 8289.742
1222.246, 8351.891
1223.465, 8804.633
1224.684, 9786.977
1225.903, 10508.932
1227.121, 11801.498
1228.340, 12984.682
1229.558, 14962.469
1230.776, 16398.871
1231.994, 18612.609
1233.212, 20197.990
1234.429, 22929.092
1235.646, 24568.338
1236.864, 26343.334
1238.081, 29010.307
1239.297, 29435.264
1240.514, 30992.059
1241.730, 32199.289
1242.947, 32404.178
1244.163, 32790.480
1245.378, 32319.133
1246.594, 33012.363
1247.810, 32410.363
1249.025, 31033.418
1250.240, 31350.803
1251.455, 30596.223
1252.670, 29108.180
1253.885, 28345.223
1255.099, 26950.990
1256.313, 25363.189
1257.527, 23324.123
1258.741, 22052.898
1259.955, 20965.936
1261.168, 19175.787
1262.382, 17685.098
1263.595, 16332.066
1264.808, 15314.363
1266.021, 14168.027
1267.233, 13753.141
1268.446, 12917.074
1269.658, 12456.246
1270.870, 11948.559
1272.082, 11874.689
1273.294, 11325.619
1274.505, 11712.039
1275.716, 11693.383
1276.928, 12072.578
1278.139, 12030.732
1279.349, 12790.926
1280.560, 13339.164
1281.770, 13968.340
1282.981, 14852.160
1284.191, 15653.381
1285.401, 16911.107
1286.610, 17614.549
1287.820, 18325.975
1289.029, 19371.229
1290.239, 19661.703
1291.448, 20788.180
1292.656, 21273.139
1293.865, 21819.867
1295.073, 22037.268
1296.282, 23188.248
1297.490, 22737.977
1298.698, 23969.730
1299.906, 24509.092
1301.113, 25043.711
1302.320, 25730.365
1303.528, 25280.322
1304.735, 25340.801
1305.942, 24965.141
1307.148, 23839.100
1308.355, 23462.643
1309.561, 21717.408
1310.767, 20994.543
1311.973, 19310.357
1313.179, 18221.576
1314.384, 16661.781
1315.590, 16384.039
1316.795, 14894.805
1318.000, 14270.767
1319.205, 13324.268
1320.410, 12916.716
1321.614, 12160.181
1322.819, 11077.750
1324.023, 10912.087
1325.227, 10463.415
1326.431, 9855.364
1327.634, 9541.703
1328.838, 9023.044
1330.041, 8908.998
1331.244, 8597.812
1332.447, 8647.947
1333.650, 7889.622
1334.852, 7694.666
1336.055, 7164.225
1337.257, 6492.887
1338.459, 6082.889
1339.661, 5371.623
1340.862, 5273.299
1342.064, 4557.783
1343.265, 3996.299
1344.466, 3823.530
1345.667, 3574.051
1346.868, 3158.586
1348.068, 3201.285
1349.269, 2706.754
1350.469, 2625.814
1351.669, 2496.094
1352.869, 2339.945
1354.069, 2167.146
1355.268, 2027.268
1356.468, 1479.554
1357.667, 1744.680
1358.866, 1579.885
1360.065, 1244.033
1361.263, 1394.391
1362.462, 1008.024
1363.660, 1072.890
1364.858, 854.130
1366.056, 790.468
1367.254, 595.722
1368.451, 714.944
1369.649, 599.237
1370.846, 235.469
1372.043, 315.639
1373.240, 160.727
1374.436, 109.838
1375.633, 151.068
1376.829, 150.921
1378.025, 152.980
1379.221, 280.942
1380.417, 284.142
1381.613, 249.535
1382.808, 341.472
1384.003, 302.791
1385.199, 397.562
1386.393, 389.814
1387.588, 559.607
1388.783, 421.926
1389.977, 409.773
1391.171, 576.188
1392.365, 466.136
1393.559, 476.601
1394.753, 359.556
1395.946, 407.025
1397.140, 463.996
1398.333, 428.418
1399.526, 385.298
1400.719, 350.651
1401.911, 259.525
1403.104, 267.905
1404.296, 292.750
1405.488, 191.127
1406.680, 104.053
1407.872, 265.550
1409.063, 120.649
1410.255, 108.314
1411.446, 216.562
1412.637, 47.572
1413.828, 26.102
1415.018, 38.968
1416.209, 8.664
1417.399, 32.945
1418.589, 81.071
1419.779, 0.281
1420.969, 76.998
1422.159, 53.093
1423.348, 19.532
1424.537, 183.312
1425.726, 90.438
1426.915, 21.844
1428.104, 62.583
1429.293, 44.685
1430.481, 103.147
1431.669, 81.931
1432.857, 56.201
1434.045, 85.833
1435.233, 130.883
1436.420, 201.375
1437.608, 216.313
1438.795, 235.708
1439.982, 190.579
1441.169, 225.953
1442.355, 275.851
1443.542, 308.273
1444.728, 348.256
1445.914, 382.532
1447.100, 444.030
1448.286, 425.882
1449.472, 383.425
1450.657, 349.967
1451.842, 493.794
1453.027, 550.853
1454.212, 547.521
1455.397, 588.184
1456.581, 472.141
1457.766, 532.555
1458.950, 543.673
1460.134, 457.878
1461.318, 501.692
1462.501, 416.738
1463.685, 349.238
1464.868, 425.023
1466.051, 405.390
1467.234, 476.341
1468.417, 358.171
1469.600, 343.576
1470.782, 409.908
1471.965, 529.587
1473.147, 512.671
1474.329, 584.733
1475.510, 641.398
1476.692, 582.297
1477.873, 572.886
1479.055, 627.927
1480.236, 622.795
1481.416, 661.342
1482.597, 669.356
1483.778, 694.031
1484.958, 708.753
1486.138, 655.999
1487.318, 700.852
1488.498, 717.208
1489.678, 721.546
1490.857, 597.790
1492.037, 652.343
1493.216, 622.690
1494.395, 530.541
1495.574, 626.388
1496.752, 600.544
1497.931, 489.679
1499.109, 507.379
1500.287, 465.018
1501.465, 467.745
1502.643, 297.618
1503.820, 327.915
1504.998, 286.565
1506.175, 362.347
1507.352, 293.735
1508.529, 350.745
1509.706, 303.476
1510.882, 218.329
1512.059, 316.183
1513.235, 242.836
1514.411, 155.729
1515.587, 110.981
1516.762, 85.562
1517.938, 48.307
1519.113, 86.874
1520.288, 10.241
1521.463, 57.080
1522.638, 0.000
##END=



