##NAMES=Xocomecatlite
##RRUFFID=R070738
##IDEAL CHEMISTRY=Cu^2+^_3_Te^6+^O_4_(OH)_4_
##LOCALITY=Bambollita mine (Oriental mine), Moctezuma, Municipio de Moctezuma, Sonora, Mexico
##OWNER=RRUFF
##SOURCE=Michael Scott
##DESCRIPTION=Green spherules
##STATUS=The identification of this mineral is not yet confirmed.
##URL=rruff.info/R070738
117.1129, 0.0000000E+00
117.5950, 8.750000
118.0771, 2.398438
118.5592, 0.4941410
119.0413, 13.95312
119.5234, 29.17383
120.0056, 29.02148
120.4877, 19.81055
120.9698, 15.91602
121.4519, 34.01367
121.9340, 65.66602
122.4161, 75.28516
122.8982, 50.98438
123.3804, 23.30859
123.8625, 14.52344
124.3446, 21.55859
124.8267, 29.70898
125.3088, 25.68555
125.7909, 8.183594
126.2731, 1.587891
126.7552, 2.746094
127.2373, 8.419922
127.7194, 15.62695
128.2015, 25.35352
128.6837, 41.29102
129.1658, 65.78516
129.6479, 102.2090
130.1300, 122.2598
130.6121, 117.0000
131.0942, 104.9688
131.5764, 104.8965
132.0585, 125.5938
132.5406, 157.6348
133.0227, 168.6562
133.5048, 141.2715
133.9869, 111.3359
134.4691, 76.12109
134.9512, 41.49805
135.4333, 16.18359
135.9154, 4.873047
136.3975, 7.894531
136.8796, 24.09375
137.3618, 77.71484
137.8439, 120.3047
138.3260, 121.7422
138.8081, 85.08594
139.2902, 41.47266
139.7723, 14.65820
140.2545, 5.800781
140.7366, 2.212891
141.2187, 0.2480470
141.7008, 4.687500
142.1829, 26.79688
142.6650, 72.75586
143.1472, 115.5391
143.6293, 122.6406
144.1114, 101.0898
144.5935, 77.98828
145.0756, 64.40039
145.5577, 57.77539
146.0399, 48.81641
146.5220, 31.34375
147.0041, 17.77148
147.4862, 19.63086
147.9683, 32.84375
148.4504, 64.55273
148.9326, 100.0977
149.4147, 141.7598
149.8968, 170.5449
150.3789, 166.3223
150.8610, 157.0352
151.3431, 160.7422
151.8252, 181.1680
152.3074, 202.1641
152.7895, 196.7344
153.2716, 137.1797
153.7537, 103.1016
154.2358, 146.9316
154.7179, 209.6543
155.2001, 234.5781
155.6822, 196.6211
156.1643, 121.5488
156.6464, 88.30859
157.1285, 159.3340
157.6106, 202.6309
158.0928, 185.6543
158.5749, 136.9395
159.0570, 95.15234
159.5391, 83.43555
160.0212, 99.33008
160.5033, 116.7832
160.9855, 139.1465
161.4676, 159.5391
161.9497, 176.5605
162.4318, 189.9766
162.9139, 197.5195
163.3960, 168.1309
163.8782, 197.4980
164.3603, 210.9922
164.8424, 209.4727
165.3245, 147.9512
165.8066, 163.8926
166.2887, 148.7910
166.7709, 132.4082
167.2530, 159.2402
167.7351, 106.4297
168.2172, 132.5781
168.6993, 127.2012
169.1814, 100.1836
169.6636, 91.49414
170.1457, 93.35156
170.6278, 97.36523
171.1099, 92.07031
171.5920, 79.57031
172.0741, 73.11328
172.5563, 85.55469
173.0384, 108.7793
173.5205, 117.7754
174.0026, 101.7051
174.4847, 79.92578
174.9668, 73.99219
175.4490, 81.05078
175.9311, 83.69922
176.4132, 64.47266
176.8953, 24.32031
177.3774, 4.675781
177.8595, 6.318359
178.3417, 3.388672
178.8238, 15.53906
179.3059, 43.63281
179.7880, 65.70508
180.2701, 50.84180
180.7522, 13.52734
181.2344, 62.30664
181.7165, 79.97852
182.1986, 83.30859
182.6807, 77.91406
183.1628, 65.88477
183.6449, 52.16602
184.1271, 44.45703
184.6092, 41.98047
185.0913, 49.17773
185.5734, 81.44336
186.0555, 114.2402
186.5376, 125.2695
187.0198, 105.4941
187.5019, 64.56836
187.9840, 26.14258
188.4661, 26.20898
188.9482, 52.03711
189.4303, 33.40820
189.9125, 7.683594
190.3946, 48.55859
190.8767, 78.60156
191.3588, 96.91797
191.8409, 99.53320
192.3230, 57.58398
192.8052, 31.81055
193.2873, 48.77344
193.7694, 88.20898
194.2515, 111.6992
194.7336, 93.12500
195.2157, 39.60156
195.6979, 23.40234
196.1800, 77.40625
196.6621, 125.7227
197.1442, 134.9219
197.6263, 113.6738
198.1084, 91.09766
198.5906, 85.81836
199.0727, 97.87109
199.5548, 114.3008
200.0369, 144.1309
200.5190, 170.3691
201.0011, 182.1953
201.4833, 180.1270
201.9654, 172.5840
202.4475, 165.6680
202.9296, 158.5449
203.4117, 146.4629
203.8938, 119.3008
204.3760, 93.37109
204.8581, 87.38281
205.3402, 103.4414
205.8223, 119.4590
206.3044, 113.0957
206.7865, 91.32031
207.2687, 79.20898
207.7508, 87.55273
208.2329, 105.8301
208.7150, 122.0137
209.1971, 136.6309
209.6792, 144.5234
210.1614, 135.7070
210.6435, 116.2422
211.1256, 99.79102
211.6077, 87.41797
212.0898, 81.78320
212.5719, 92.63867
213.0541, 130.2559
213.5362, 164.0059
214.0183, 173.8828
214.5004, 164.5684
214.9825, 145.5117
215.4646, 114.2832
215.9468, 42.30664
216.4289, 79.54102
216.9110, 100.5488
217.3931, 106.1406
217.8752, 50.41016
218.3573, 73.93555
218.8395, 65.69922
219.3216, 56.16602
219.8037, 90.84375
220.2858, 44.05273
220.7679, 78.03516
221.2500, 79.77930
221.7322, 96.28320
222.2143, 80.83203
222.6964, 75.25000
223.1785, 101.6348
223.6606, 110.3281
224.1427, 91.20508
224.6249, 108.6504
225.1070, 60.76953
225.5891, 70.22461
226.0712, 104.4082
226.5533, 104.1562
227.0354, 128.4277
227.5176, 153.6875
227.9997, 165.8633
228.4818, 150.6992
228.9639, 133.6211
229.4460, 126.1719
229.9281, 127.0625
230.4103, 126.8711
230.8924, 114.4414
231.3745, 83.99609
231.8566, 63.99023
232.3387, 56.57031
232.8208, 56.99219
233.3030, 68.21875
233.7851, 87.42969
234.2672, 105.7969
234.7493, 114.0898
235.2314, 111.3984
235.7135, 98.47070
236.1957, 60.81250
236.6778, 24.84961
237.1599, 7.019531
237.6420, 8.201172
238.1241, 20.15039
238.6062, 33.32031
239.0884, 41.25195
239.5705, 57.74805
240.0526, 96.56641
240.5347, 131.6152
241.0168, 144.3984
241.4989, 134.7051
241.9811, 117.3848
242.4632, 110.9160
242.9453, 120.9648
243.4274, 116.8340
243.9095, 78.12305
244.3916, 42.10156
244.8738, 38.39648
245.3559, 67.76367
245.8380, 103.1797
246.3201, 110.3105
246.8022, 77.69141
247.2843, 58.16797
247.7665, 59.61328
248.2486, 67.49219
248.7307, 73.48438
249.2128, 76.20117
249.6949, 78.07812
250.1770, 82.19531
250.6592, 90.16992
251.1413, 93.72852
251.6234, 82.95898
252.1055, 74.57812
252.5876, 89.83398
253.0697, 128.1035
253.5519, 159.3887
254.0340, 144.8516
254.5161, 63.04297
254.9982, 26.45508
255.4803, 73.67578
255.9624, 139.5371
256.4445, 173.5039
256.9267, 169.0371
257.4088, 151.6367
257.8909, 148.7598
258.3730, 166.1270
258.8551, 164.2266
259.3372, 118.4102
259.8194, 69.16797
260.3015, 48.51758
260.7836, 60.12305
261.2657, 90.72266
261.7478, 132.6406
262.2299, 188.7773
262.7121, 226.5820
263.1942, 124.4941
263.6763, 169.3008
264.1584, 198.4414
264.6405, 212.7695
265.1227, 167.8594
265.6048, 199.4375
266.0869, 200.3789
266.5690, 200.0625
267.0511, 242.4512
267.5332, 271.8027
268.0154, 236.7051
268.4975, 133.6074
268.9796, 40.12695
269.4617, 27.32227
269.9438, 95.94336
270.4259, 138.4160
270.9081, 123.0859
271.3902, 101.0273
271.8723, 119.0449
272.3544, 177.4492
272.8365, 234.8242
273.3186, 264.0449
273.8008, 262.6621
274.2829, 243.5508
274.7650, 168.9766
275.2471, 104.9473
275.7292, 116.8477
276.2113, 199.8008
276.6935, 278.6328
277.1756, 303.9941
277.6577, 277.8105
278.1398, 245.5137
278.6219, 182.9219
279.1040, 133.5352
279.5862, 143.7578
280.0683, 205.5039
280.5504, 251.3828
281.0325, 234.8066
281.5146, 168.5273
281.9967, 118.9102
282.4789, 86.51172
282.9610, 69.23438
283.4431, 75.22070
283.9252, 99.81250
284.4073, 115.8809
284.8894, 106.2910
285.3716, 78.94531
285.8537, 61.22852
286.3358, 62.05469
286.8179, 60.90820
287.3000, 38.76562
287.7821, 2.445313
288.2643, 19.34375
288.7464, 10.49219
289.2285, 19.22266
289.7106, 44.18164
290.1927, 66.24609
290.6748, 81.35352
291.1570, 89.80469
291.6391, 90.25000
292.1212, 74.06250
292.6033, 29.68555
293.0854, 21.52930
293.5675, 35.25586
294.0497, 4.220703
294.5318, 35.56445
295.0139, 86.62305
295.4960, 135.9160
295.9781, 145.8105
296.4602, 93.44141
296.9424, 19.31641
297.4245, 2.255859
297.9066, 54.46094
298.3887, 89.20898
298.8708, 55.18359
299.3529, 9.632813
299.8351, 34.42188
300.3172, 4.472656
300.7993, 68.04297
301.2814, 100.3672
301.7635, 98.45312
302.2456, 103.6875
302.7278, 144.0547
303.2099, 189.8887
303.6920, 191.4160
304.1741, 135.0391
304.6562, 70.81445
305.1383, 62.34570
305.6205, 113.6836
306.1026, 143.0352
306.5847, 123.7715
307.0668, 86.16211
307.5489, 59.35547
308.0310, 47.08984
308.5132, 41.56641
308.9953, 34.45508
309.4774, 26.20508
309.9595, 30.71875
310.4416, 69.34961
310.9237, 106.3926
311.4059, 107.0801
311.8880, 75.55273
312.3701, 44.73828
312.8522, 38.47656
313.3343, 54.78125
313.8164, 68.94141
314.2986, 79.96680
314.7807, 91.60547
315.2628, 110.6250
315.7449, 133.6973
316.2270, 146.4355
316.7091, 137.0254
317.1913, 110.4844
317.6734, 96.89844
318.1555, 109.8418
318.6376, 119.0508
319.1197, 108.9004
319.6018, 86.45703
320.0840, 66.50391
320.5661, 54.78516
321.0482, 51.82031
321.5303, 62.25391
322.0124, 102.7637
322.4945, 132.2324
322.9767, 140.6836
323.4588, 133.5410
323.9409, 114.6699
324.4230, 82.83789
324.9051, 48.71875
325.3872, 37.63477
325.8694, 63.15039
326.3515, 90.86133
326.8336, 128.1602
327.3157, 161.6934
327.7978, 174.5840
328.2799, 163.1250
328.7621, 142.0098
329.2442, 131.0703
329.7263, 136.0605
330.2084, 142.8945
330.6905, 160.5762
331.1726, 172.9883
331.6548, 159.0742
332.1369, 121.2969
332.6190, 88.02344
333.1011, 89.99805
333.5832, 132.7793
334.0653, 173.2422
334.5475, 239.0137
335.0296, 278.6738
335.5117, 241.5957
335.9938, 151.1582
336.4759, 80.85156
336.9580, 92.41211
337.4402, 182.7754
337.9223, 230.6875
338.4044, 201.4082
338.8865, 169.0605
339.3686, 150.6816
339.8507, 142.5918
340.3329, 136.2754
340.8150, 126.9355
341.2971, 115.2773
341.7792, 103.9141
342.2613, 88.70508
342.7434, 79.81836
343.2256, 76.21289
343.7077, 80.73828
344.1898, 105.0273
344.6719, 156.2520
345.1540, 214.3184
345.6361, 235.3594
346.1183, 190.6816
346.6004, 155.0762
347.0825, 131.5078
347.5646, 118.6836
348.0467, 120.5430
348.5288, 135.8379
349.0110, 153.0117
349.4931, 155.1152
349.9752, 135.8887
350.4573, 126.5176
350.9394, 138.8965
351.4215, 151.0000
351.9037, 153.3496
352.3858, 146.0742
352.8679, 137.0039
353.3500, 132.3633
353.8321, 132.0430
354.3142, 133.0664
354.7964, 132.5293
355.2785, 137.3809
355.7606, 157.0605
356.2427, 183.3477
356.7248, 200.2461
357.2069, 197.0234
357.6891, 178.3477
358.1712, 158.6660
358.6533, 131.8418
359.1354, 115.0234
359.6175, 128.9668
360.0996, 150.9609
360.5818, 151.6289
361.0639, 114.1406
361.5460, 68.25391
362.0281, 57.26953
362.5102, 85.34570
362.9923, 110.4062
363.4745, 119.3301
363.9566, 118.4668
364.4387, 111.8105
364.9208, 98.78320
365.4029, 87.47461
365.8850, 85.28711
366.3672, 90.57812
366.8493, 97.86719
367.3314, 113.9062
367.8135, 119.4668
368.2956, 85.16992
368.7777, 14.74609
369.2599, 40.39062
369.7420, 59.56445
370.2241, 49.80859
370.7062, 11.51562
371.1883, 62.26367
371.6704, 124.0703
372.1526, 122.8242
372.6347, 70.03320
373.1168, 33.33203
373.5989, 27.17383
374.0810, 35.35156
374.5631, 52.71680
375.0453, 76.35742
375.5274, 86.68555
376.0095, 67.77148
376.4916, 27.69336
376.9737, 2.748047
377.4558, 1.509766
377.9380, 0.6191410
378.4201, 8.781250
378.9022, 19.25000
379.3843, 24.58398
379.8664, 21.73047
380.3485, 13.00195
380.8307, 2.271484
381.3128, 18.42578
381.7949, 25.97461
382.2770, 8.234375
382.7591, 17.48047
383.2412, 30.83398
383.7234, 29.61133
384.2055, 33.06445
384.6876, 69.14453
385.1697, 159.0293
385.6518, 187.1113
386.1339, 101.9277
386.6161, 13.90234
387.0982, 24.78906
387.5803, 19.06445
388.0624, 4.761719
388.5445, 30.50000
389.0266, 56.47656
389.5088, 63.75781
389.9909, 22.30273
390.4730, 3.796875
390.9551, 7.812500
391.4372, 36.89844
391.9193, 58.68750
392.4015, 62.44141
392.8836, 53.47266
393.3657, 38.46875
393.8478, 5.541016
394.3299, 3.294922
394.8120, 36.36719
395.2942, 87.01758
395.7763, 130.5918
396.2584, 161.8633
396.7405, 174.0996
397.2226, 147.6523
397.7047, 82.10938
398.1869, 50.99609
398.6690, 94.49609
399.1511, 130.6406
399.6332, 98.68164
400.1153, 20.57031
400.5974, 39.09766
401.0796, 32.26562
401.5617, 13.98242
402.0438, 28.21289
402.5259, 1.462891
403.0080, 21.47852
403.4901, 11.95898
403.9723, 69.26367
404.4544, 104.5820
404.9365, 101.2266
405.4186, 89.47070
405.9007, 95.96484
406.3828, 116.8945
406.8650, 130.8809
407.3471, 127.7734
407.8292, 117.3008
408.3113, 115.0859
408.7934, 121.1992
409.2755, 131.0684
409.7577, 148.6172
410.2398, 166.8027
410.7219, 173.3418
411.2040, 165.9766
411.6861, 157.4023
412.1682, 162.0176
412.6504, 182.3984
413.1325, 189.7500
413.6146, 167.8711
414.0967, 148.3555
414.5788, 157.4375
415.0609, 185.5703
415.5431, 201.8477
416.0252, 187.0547
416.5073, 146.7441
416.9894, 105.9805
417.4715, 37.92969
417.9536, 3.083984
418.4358, 35.14648
418.9179, 90.76367
419.4000, 120.4727
419.8821, 110.4219
420.3642, 88.26367
420.8463, 103.4883
421.3285, 189.5840
421.8106, 219.7363
422.2927, 137.5684
422.7748, 51.92773
423.2569, 12.06055
423.7390, 16.92578
424.2212, 42.46094
424.7033, 76.15625
425.1854, 114.9648
425.6675, 140.4805
426.1496, 145.8926
426.6317, 148.2070
427.1139, 149.2754
427.5960, 150.7598
428.0781, 156.8945
428.5602, 173.3691
429.0423, 186.3711
429.5244, 171.4590
430.0066, 127.5430
430.4887, 98.90820
430.9708, 99.59961
431.4529, 121.1426
431.9350, 160.9062
432.4171, 221.3457
432.8993, 258.5879
433.3814, 230.5957
433.8635, 170.9883
434.3456, 144.1680
434.8277, 161.2188
435.3098, 186.3242
435.7920, 186.9062
436.2741, 166.3301
436.7562, 165.7402
437.2383, 221.9688
437.7204, 265.8301
438.2025, 238.3887
438.6847, 162.7188
439.1668, 106.5723
439.6489, 104.9531
440.1310, 145.0898
440.6131, 189.3867
441.0952, 276.0020
441.5774, 309.9043
442.0595, 242.8848
442.5416, 147.3125
443.0237, 80.75586
443.5058, 56.87500
443.9879, 69.21094
444.4701, 120.3066
444.9522, 221.4785
445.4343, 265.6523
445.9164, 193.3887
446.3985, 124.1309
446.8806, 90.70117
447.3628, 88.37109
447.8449, 106.5703
448.3270, 143.5117
448.8091, 187.1367
449.2912, 200.9258
449.7733, 172.6465
450.2555, 147.8613
450.7376, 143.8809
451.2197, 144.4395
451.7018, 133.8613
452.1839, 109.7109
452.6660, 92.74414
453.1482, 108.4688
453.6303, 147.0137
454.1124, 158.9004
454.5945, 129.2930
455.0766, 93.32617
455.5587, 82.61328
456.0409, 89.57617
456.5230, 93.69727
457.0051, 96.23438
457.4872, 89.88086
457.9693, 56.94531
458.4514, 1.357422
458.9336, 35.62695
459.4156, 33.07227
459.8978, 2.035156
460.3799, 38.89648
460.8620, 111.8867
461.3441, 153.2109
461.8262, 122.2031
462.3083, 66.44727
462.7905, 35.93359
463.2726, 39.73828
463.7547, 55.51953
464.2368, 62.51953
464.7189, 58.72656
465.2010, 64.14258
465.6832, 87.75977
466.1653, 109.8301
466.6474, 125.7852
467.1295, 135.6836
467.6116, 139.8223
468.0938, 137.6855
468.5759, 131.9609
469.0580, 127.5430
469.5401, 123.4180
470.0222, 123.6738
470.5043, 147.5352
470.9865, 162.4102
471.4686, 132.1699
471.9507, 61.07227
472.4328, 7.291016
472.9149, 28.03320
473.3970, 102.2793
473.8792, 158.0547
474.3613, 194.6387
474.8434, 205.4102
475.3255, 156.4219
475.8076, 82.76953
476.2897, 60.08789
476.7719, 136.3691
477.2540, 207.7871
477.7361, 181.3281
478.2182, 88.46875
478.7003, 24.12305
479.1824, 21.53320
479.6646, 57.31250
480.1467, 102.2012
480.6288, 169.7305
481.1109, 200.9219
481.5930, 162.8262
482.0751, 111.2031
482.5573, 80.52734
483.0394, 73.19141
483.5215, 83.16211
484.0036, 109.5195
484.4857, 146.5254
484.9678, 155.2520
485.4500, 108.9004
485.9321, 67.99609
486.4142, 30.14453
486.8963, 6.646484
487.3784, 18.42773
487.8605, 66.97070
488.3427, 115.0430
488.8248, 110.4375
489.3069, 49.81836
489.7890, 17.89453
490.2711, 33.33594
490.7532, 59.78516
491.2354, 79.27148
491.7175, 93.24609
492.1996, 106.0078
492.6817, 122.3203
493.1638, 136.8340
493.6459, 133.1504
494.1281, 112.5312
494.6102, 106.1289
495.0923, 134.0234
495.5744, 176.9844
496.0565, 197.3203
496.5386, 192.3320
497.0208, 175.1230
497.5029, 130.7773
497.9850, 87.60938
498.4671, 67.41406
498.9492, 73.37500
499.4313, 102.0840
499.9135, 154.5117
500.3956, 227.3574
500.8777, 279.9492
501.3598, 318.6738
501.8419, 328.7988
502.3240, 284.8320
502.8062, 221.3867
503.2883, 174.8320
503.7704, 156.5020
504.2525, 154.9375
504.7346, 158.0684
505.2167, 167.5273
505.6989, 176.6172
506.1810, 187.1680
506.6631, 190.8379
507.1452, 177.7637
507.6273, 157.0410
508.1094, 145.2656
508.5916, 150.3867
509.0737, 166.3398
509.5558, 192.3398
510.0379, 227.4316
510.5200, 244.5605
511.0021, 231.2305
511.4843, 198.6836
511.9664, 156.8418
512.4485, 100.4902
512.9306, 68.25000
513.4127, 86.06055
513.8948, 121.7754
514.3770, 149.3184
514.8591, 165.0039
515.3412, 165.7422
515.8233, 145.5312
516.3054, 110.6875
516.7875, 101.5273
517.2697, 162.5684
517.7518, 200.5410
518.2339, 199.0605
518.7160, 172.4199
519.1981, 123.5078
519.6802, 58.41406
520.1624, 3.041016
520.6445, 8.384766
521.1266, 25.61328
521.6087, 44.61914
522.0908, 37.25000
522.5729, 32.29688
523.0551, 49.56445
523.5372, 76.34180
524.0193, 87.64062
524.5014, 65.75000
524.9835, 50.52148
525.4656, 98.73828
525.9478, 195.7676
526.4299, 257.0898
526.9120, 258.7188
527.3941, 229.2461
527.8762, 196.9473
528.3583, 161.8496
528.8405, 124.3438
529.3226, 66.32227
529.8047, 23.33594
530.2868, 31.85938
530.7689, 77.43750
531.2510, 116.4375
531.7332, 127.3184
532.2153, 113.8770
532.6974, 80.84180
533.1795, 12.30469
533.6616, 48.64062
534.1437, 23.83594
534.6259, 104.2949
535.1080, 124.8828
535.5901, 93.25391
536.0722, 59.94336
536.5543, 59.51367
537.0364, 84.74023
537.5186, 120.0742
538.0007, 175.2695
538.4828, 202.9238
538.9649, 161.0410
539.4470, 96.52930
539.9291, 65.42969
540.4113, 75.64844
540.8934, 87.54883
541.3755, 75.76953
541.8576, 55.57422
542.3397, 54.24805
542.8218, 74.16992
543.3040, 91.54297
543.7861, 86.15820
544.2682, 62.13477
544.7503, 56.50391
545.2324, 83.11133
545.7145, 108.5664
546.1967, 133.3555
546.6788, 149.8418
547.1609, 145.7305
547.6430, 120.7676
548.1251, 92.81641
548.6072, 84.95703
549.0894, 98.53711
549.5715, 88.75586
550.0536, 30.09766
550.5357, 14.72070
551.0178, 8.115234
551.4999, 19.22656
551.9821, 20.15234
552.4642, 26.54883
552.9463, 70.22656
553.4284, 50.33594
553.9105, 14.69922
554.3926, 44.59961
554.8748, 15.46094
555.3569, 17.30469
555.8390, 2.578125
556.3211, 74.47852
556.8032, 125.3516
557.2853, 148.6484
557.7675, 156.0430
558.2496, 140.5586
558.7317, 115.6270
559.2138, 106.7949
559.6959, 122.6953
560.1780, 144.7344
560.6602, 144.5391
561.1423, 117.8418
561.6244, 86.72461
562.1065, 38.08203
562.5886, 1.171875
563.0707, 26.70703
563.5529, 35.13477
564.0350, 17.34570
564.5171, 37.40625
564.9992, 99.64062
565.4813, 131.0410
565.9634, 132.7656
566.4456, 120.1934
566.9277, 89.90039
567.4098, 58.04688
567.8919, 44.69922
568.3740, 47.54688
568.8561, 46.00586
569.3383, 29.24609
569.8204, 14.19141
570.3025, 9.380859
570.7846, 14.97461
571.2667, 34.48047
571.7488, 69.59375
572.2310, 107.4199
572.7131, 123.4863
573.1952, 109.0547
573.6773, 96.42773
574.1594, 68.83984
574.6415, 59.04492
575.1237, 97.95508
575.6058, 164.0918
576.0879, 215.7129
576.5700, 229.7539
577.0521, 215.1133
577.5342, 188.3789
578.0164, 149.1699
578.4985, 102.9531
578.9806, 39.60742
579.4627, 9.662109
579.9448, 1.175781
580.4269, 58.10938
580.9091, 114.3770
581.3912, 185.4414
581.8733, 225.2676
582.3554, 168.1074
582.8375, 54.89648
583.3196, 7.421875
583.8018, 26.68359
584.2839, 110.1504
584.7660, 165.6504
585.2481, 197.5117
585.7302, 186.6230
586.2123, 67.10156
586.6945, 26.84961
587.1766, 20.11133
587.6587, 52.13477
588.1408, 114.7031
588.6229, 129.0625
589.1050, 119.1777
589.5872, 114.4863
590.0693, 114.7363
590.5514, 111.6680
591.0335, 100.5000
591.5156, 85.99023
591.9977, 76.67383
592.4799, 69.80273
592.9620, 73.89258
593.4441, 109.7461
593.9262, 137.3125
594.4083, 120.4824
594.8904, 80.58008
595.3726, 62.72266
595.8547, 82.49805
596.3368, 116.3086
596.8189, 127.3398
597.3010, 105.8496
597.7831, 107.9043
598.2653, 176.8750
598.7474, 224.4609
599.2295, 199.0996
599.7116, 140.1582
600.1937, 110.5488
600.6758, 136.1855
601.1580, 177.0781
601.6401, 199.7266
602.1222, 202.9473
602.6043, 168.0234
603.0864, 76.67383
603.5685, 8.445313
604.0507, 47.87305
604.5328, 181.2051
605.0149, 255.0527
605.4970, 228.5859
605.9791, 191.4902
606.4612, 170.5781
606.9434, 158.4609
607.4255, 144.4746
607.9076, 126.2188
608.3897, 106.3066
608.8718, 87.09766
609.3539, 69.96875
609.8361, 89.66016
610.3182, 174.8438
610.8003, 242.4746
611.2824, 271.3926
611.7645, 275.7930
612.2466, 261.5254
612.7288, 229.2227
613.2109, 184.9258
613.6930, 110.1035
614.1751, 37.79492
614.6572, 48.81250
615.1393, 147.1211
615.6215, 224.2285
616.1036, 204.5430
616.5857, 119.7266
617.0678, 85.09570
617.5499, 169.2461
618.0320, 208.0625
618.5142, 160.6367
618.9963, 91.77930
619.4784, 41.95703
619.9605, 16.73438
620.4426, 10.00195
620.9247, 19.77344
621.4069, 42.10742
621.8890, 67.38477
622.3711, 97.48828
622.8532, 123.1641
623.3353, 147.4863
623.8174, 160.5762
624.2996, 147.8496
624.7817, 111.2988
625.2638, 81.77148
625.7459, 71.66797
626.2280, 68.18750
626.7101, 54.90039
627.1923, 40.04492
627.6744, 50.91797
628.1565, 98.63672
628.6386, 158.5254
629.1207, 192.6055
629.6028, 201.8477
630.0850, 181.8242
630.5671, 70.34961
631.0492, 5.673828
631.5313, 36.50000
632.0134, 127.3848
632.4955, 149.6270
632.9777, 55.30273
633.4598, 50.67188
633.9419, 57.15430
634.4240, 8.201172
634.9061, 53.86914
635.3882, 66.53711
635.8704, 66.24219
636.3525, 64.70508
636.8346, 62.50781
637.3167, 63.60156
637.7988, 75.83984
638.2809, 84.79102
638.7631, 88.24219
639.2452, 86.09180
639.7273, 70.99414
640.2094, 47.82031
640.6915, 38.95117
641.1736, 67.33984
641.6558, 118.7109
642.1379, 129.0508
642.6200, 87.15234
643.1021, 52.83594
643.5842, 51.79102
644.0663, 56.87695
644.5485, 26.76758
645.0306, 34.11523
645.5127, 61.25195
645.9948, 11.76953
646.4769, 52.73438
646.9590, 88.06445
647.4412, 98.21875
647.9233, 90.62500
648.4054, 68.00195
648.8875, 53.88086
649.3696, 95.11328
649.8517, 217.1523
650.3339, 260.2441
650.8160, 137.8379
651.2981, 37.58203
651.7802, 42.75195
652.2623, 98.37305
652.7444, 122.8359
653.2266, 91.39062
653.7087, 55.90820
654.1908, 69.45117
654.6729, 105.3340
655.1550, 91.38867
655.6371, 21.17969
656.1193, 22.11133
656.6014, 24.92773
657.0835, 132.9141
657.5656, 189.3086
658.0477, 134.6621
658.5298, 108.7930
659.0120, 140.4453
659.4941, 177.6895
659.9762, 187.7715
660.4583, 171.5430
660.9404, 142.1211
661.4225, 101.9941
661.9047, 62.81055
662.3868, 38.04297
662.8689, 28.12695
663.3510, 57.24609
663.8331, 147.6113
664.3152, 238.7539
664.7974, 267.8301
665.2795, 237.0703
665.7616, 217.9414
666.2437, 202.0664
666.7258, 209.1523
667.2079, 267.1973
667.6901, 342.4258
668.1722, 397.0898
668.6543, 421.8105
669.1364, 423.7129
669.6185, 403.4160
670.1006, 366.4336
670.5828, 347.5469
671.0649, 351.3203
671.5470, 357.0996
672.0291, 347.2715
672.5112, 345.5820
672.9933, 393.1953
673.4755, 493.0352
673.9576, 548.7539
674.4397, 497.2559
674.9218, 422.0801
675.4039, 385.2773
675.8860, 378.2246
676.3682, 372.7949
676.8503, 358.2051
677.3324, 343.3184
677.8145, 342.0566
678.2966, 356.5059
678.7787, 367.9531
679.2609, 382.8262
679.7430, 384.9902
680.2251, 363.3984
680.7072, 329.0703
681.1893, 294.6934
681.6714, 262.1543
682.1536, 231.5410
682.6357, 203.8496
683.1178, 177.8613
683.5999, 145.9785
684.0820, 111.7246
684.5641, 96.61328
685.0463, 113.2051
685.5284, 151.7402
686.0105, 191.5566
686.4926, 240.1680
686.9747, 271.5801
687.4568, 288.3633
687.9390, 284.5918
688.4211, 233.2676
688.9032, 164.1074
689.3853, 133.7246
689.8674, 165.3418
690.3495, 219.4141
690.8317, 274.2031
691.3138, 318.5410
691.7959, 323.9824
692.2780, 290.9004
692.7601, 253.5762
693.2422, 237.1699
693.7244, 236.6113
694.2065, 238.2168
694.6886, 255.2754
695.1707, 252.2129
695.6528, 211.8730
696.1349, 167.3828
696.6171, 131.6172
697.0992, 108.6406
697.5813, 107.9512
698.0634, 145.1523
698.5455, 182.2188
699.0276, 156.1758
699.5098, 88.44727
699.9919, 56.51367
700.4740, 76.77344
700.9561, 113.5820
701.4382, 140.6602
701.9203, 158.4180
702.4025, 169.6387
702.8846, 160.1797
703.3667, 160.5527
703.8488, 191.6992
704.3309, 225.3652
704.8130, 233.8438
705.2952, 219.5742
705.7773, 211.9629
706.2594, 234.6875
706.7415, 262.6113
707.2236, 253.1348
707.7057, 213.4160
708.1879, 191.1660
708.6700, 199.2773
709.1521, 214.1250
709.6342, 214.4727
710.1163, 200.7383
710.5984, 184.1055
711.0806, 136.6094
711.5627, 122.9961
712.0448, 190.0820
712.5269, 269.2734
713.0090, 296.4629
713.4911, 273.4043
713.9733, 249.7422
714.4554, 266.8750
714.9375, 290.1914
715.4196, 249.8027
715.9017, 157.1055
716.3839, 95.48438
716.8660, 87.85352
717.3481, 108.2539
717.8302, 134.3164
718.3123, 165.9707
718.7944, 199.7676
719.2766, 262.1953
719.7587, 292.9160
720.2408, 253.3438
720.7229, 199.1035
721.2050, 189.0859
721.6871, 219.9668
722.1693, 224.4688
722.6514, 131.7969
723.1335, 16.29102
723.6156, 18.42773
724.0977, 120.9297
724.5798, 198.4277
725.0620, 218.3398
725.5441, 202.6406
726.0262, 165.1816
726.5083, 105.8555
726.9904, 78.55664
727.4725, 122.7344
727.9547, 146.7715
728.4368, 116.9473
728.9189, 74.48828
729.4010, 52.17773
729.8831, 53.48438
730.3652, 68.70312
730.8474, 101.8164
731.3295, 135.3105
731.8116, 141.3320
732.2937, 124.1875
732.7758, 104.8359
733.2579, 88.47656
733.7401, 71.14062
734.2222, 45.41992
734.7043, 12.71875
735.1864, 6.871094
735.6685, 52.80664
736.1506, 93.99023
736.6328, 117.5664
737.1149, 138.7285
737.5970, 176.6113
738.0791, 225.8086
738.5612, 257.2383
739.0433, 249.5723
739.5255, 225.3750
740.0076, 207.1426
740.4897, 193.4395
740.9718, 175.7812
741.4539, 152.3438
741.9360, 148.4512
742.4182, 195.6504
742.9003, 282.0645
743.3824, 298.6211
743.8645, 176.8203
744.3466, 102.8262
744.8287, 146.1152
745.3109, 201.5957
745.7930, 200.4629
746.2751, 150.4473
746.7572, 91.70117
747.2393, 22.50977
747.7214, 22.26953
748.2036, 14.36523
748.6857, 88.87305
749.1678, 109.2324
749.6499, 64.35547
750.1320, 12.27148
750.6141, 3.947266
751.0963, 10.27930
751.5784, 36.88281
752.0605, 85.80664
752.5426, 118.2422
753.0247, 122.7461
753.5068, 116.2930
753.9890, 111.1895
754.4711, 103.7363
754.9532, 81.39453
755.4353, 23.62500
755.9174, 15.44141
756.3995, 6.765625
756.8817, 59.38867
757.3638, 117.9434
757.8459, 171.7812
758.3280, 197.8379
758.8101, 179.1055
759.2922, 137.9902
759.7744, 130.4727
760.2565, 163.9355
760.7386, 151.8945
761.2207, 59.56445
761.7028, 26.12891
762.1849, 45.47266
762.6671, 19.30859
763.1492, 2.634766
763.6313, 1.982422
764.1134, 1.677734
764.5955, 5.330078
765.0776, 19.78711
765.5598, 70.08594
766.0419, 135.4160
766.5240, 167.0469
767.0061, 143.2578
767.4882, 99.58789
767.9703, 84.46680
768.4525, 90.63281
768.9346, 74.95117
769.4167, 32.32617
769.8988, 8.853516
770.3809, 35.89648
770.8630, 51.09180
771.3452, 59.23242
771.8273, 61.89062
772.3094, 51.11523
772.7915, 9.138672
773.2736, 26.15039
773.7557, 32.24805
774.2379, 25.69531
774.7200, 30.51758
775.2021, 51.89648
775.6842, 72.96289
776.1663, 88.25586
776.6484, 91.56250
777.1306, 54.17383
777.6127, 10.77930
778.0948, 26.13477
778.5769, 38.49219
779.0590, 123.5098
779.5411, 152.8145
780.0233, 124.2559
780.5054, 112.2363
780.9875, 132.9082
781.4696, 143.3457
781.9517, 124.0566
782.4338, 97.51953
782.9160, 75.00781
783.3981, 59.86133
783.8802, 66.55078
784.3623, 118.8984
784.8444, 174.7539
785.3265, 218.4121
785.8087, 243.2676
786.2908, 229.5312
786.7729, 180.5957
787.2550, 133.1504
787.7371, 115.6738
788.2192, 121.3027
788.7014, 135.1035
789.1835, 158.9355
789.6656, 170.6133
790.1477, 163.2109
790.6298, 149.2383
791.1119, 136.5742
791.5941, 125.0195
792.0762, 113.8125
792.5583, 106.9883
793.0404, 94.13281
793.5225, 59.16602
794.0046, 30.59375
794.4868, 32.53906
794.9689, 57.00195
795.4510, 86.91016
795.9331, 117.6895
796.4152, 132.4453
796.8973, 90.30273
797.3795, 22.99805
797.8616, 22.84961
798.3437, 92.26758
798.8258, 156.5352
799.3079, 180.1816
799.7900, 172.1074
800.2722, 143.2852
800.7543, 82.15039
801.2364, 54.95312
801.7185, 100.1660
802.2006, 126.6973
802.6827, 81.57812
803.1649, 18.67578
803.6470, 1.708984
804.1291, 26.33789
804.6112, 61.82812
805.0933, 102.5762
805.5754, 132.8750
806.0576, 129.1523
806.5397, 109.9453
807.0218, 118.1543
807.5039, 158.6230
807.9860, 186.8281
808.4681, 153.5742
808.9503, 87.74805
809.4324, 86.66211
809.9145, 155.1348
810.3966, 206.8555
810.8787, 226.8457
811.3608, 212.2148
811.8430, 143.5254
812.3251, 33.57812
812.8072, 22.86719
813.2893, 13.15430
813.7714, 42.33984
814.2535, 60.54883
814.7357, 70.64062
815.2178, 62.63477
815.6999, 50.84961
816.1820, 68.54102
816.6641, 137.7812
817.1462, 202.0957
817.6284, 206.2793
818.1105, 180.7344
818.5926, 176.5078
819.0747, 192.8203
819.5568, 201.2773
820.0389, 190.8418
820.5211, 172.1699
821.0032, 157.9297
821.4853, 147.9707
821.9674, 121.0449
822.4495, 57.77344
822.9316, 27.99219
823.4138, 78.89258
823.8959, 158.0117
824.3780, 199.2852
824.8601, 202.7090
825.3422, 198.2852
825.8243, 184.0664
826.3065, 168.5488
826.7886, 148.7637
827.2707, 133.0820
827.7528, 130.9961
828.2349, 141.4883
828.7170, 156.2031
829.1992, 177.9395
829.6813, 194.0977
830.1633, 172.3594
830.6454, 133.0371
831.1276, 130.4590
831.6097, 170.3633
832.0918, 203.2363
832.5739, 195.3555
833.0560, 157.5273
833.5381, 113.4824
834.0203, 48.56641
834.5024, 31.83594
834.9845, 110.9414
835.4666, 170.6914
835.9487, 124.5742
836.4308, 41.04492
836.9130, 19.81641
837.3951, 82.24805
837.8772, 117.7441
838.3593, 68.62695
838.8414, 16.50391
839.3235, 5.675781
839.8057, 26.30078
840.2878, 69.63086
840.7699, 128.1523
841.2520, 175.4570
841.7341, 188.5742
842.2162, 178.6328
842.6984, 156.4590
843.1805, 126.9258
843.6626, 119.8887
844.1447, 143.0371
844.6268, 166.9238
845.1089, 165.1738
845.5911, 145.1211
846.0732, 143.9199
846.5553, 177.0488
847.0374, 184.6504
847.5195, 134.1406
848.0016, 90.91602
848.4838, 112.1230
848.9659, 161.6699
849.4480, 161.4629
849.9301, 76.68750
850.4122, 33.16016
850.8943, 105.0605
851.3765, 190.4590
851.8586, 223.8164
852.3407, 219.6035
852.8228, 208.4707
853.3049, 199.3711
853.7870, 183.3379
854.2692, 141.5176
854.7513, 92.96484
855.2334, 74.09570
855.7155, 81.59570
856.1976, 103.9824
856.6797, 138.1465
857.1619, 161.4590
857.6440, 149.4609
858.1261, 111.9102
858.6082, 104.5586
859.0903, 140.8945
859.5724, 164.5938
860.0546, 169.2402
860.5367, 158.6602
861.0188, 130.0703
861.5009, 88.26367
861.9830, 44.59961
862.4651, 13.19336
862.9473, 43.99414
863.4294, 25.25195
863.9115, 7.183594
864.3936, 31.03516
864.8757, 54.52344
865.3578, 106.6992
865.8400, 190.8418
866.3221, 239.2949
866.8042, 160.6895
867.2863, 46.37500
867.7684, 32.29297
868.2505, 88.84961
868.7327, 122.9727
869.2148, 112.5547
869.6969, 93.83398
870.1790, 99.42383
870.6611, 116.9336
871.1432, 112.2852
871.6254, 80.44727
872.1075, 43.72266
872.5896, 9.847656
873.0717, 27.91211
873.5538, 49.89258
874.0359, 175.3633
874.5181, 212.8086
875.0002, 102.9160
875.4823, 36.06641
875.9644, 39.09570
876.4465, 55.61328
876.9286, 68.78320
877.4108, 79.27148
877.8929, 91.60938
878.3750, 106.0000
878.8571, 111.8203
879.3392, 88.63867
879.8214, 70.41992
880.3035, 101.7988
880.7856, 149.0781
881.2677, 143.4883
881.7498, 86.81836
882.2319, 54.86719
882.7141, 104.3711
883.1962, 190.5059
883.6783, 238.8457
884.1604, 251.7852
884.6425, 246.0254
885.1246, 223.4785
885.6068, 168.7402
886.0889, 61.79883
886.5710, 50.74414
887.0531, 73.94141
887.5352, 15.40625
888.0173, 60.20703
888.4995, 32.86523
888.9816, 8.468750
889.4637, 1.236328
889.9458, 14.31836
890.4279, 65.55078
890.9100, 149.3438
891.3922, 196.8027
891.8743, 162.7207
892.3564, 137.5977
892.8385, 169.0527
893.3206, 205.7852
893.8027, 193.9180
894.2849, 147.9766
894.7670, 119.4668
895.2491, 131.1953
895.7312, 154.3418
896.2133, 174.4180
896.6954, 184.8203
897.1776, 168.6836
897.6597, 133.1328
898.1418, 104.5156
898.6239, 91.96094
899.1060, 84.29297
899.5881, 67.01562
900.0703, 44.77539
900.5524, 40.94922
901.0345, 56.29688
901.5166, 74.90820
901.9987, 97.51562
902.4808, 104.1191
902.9630, 69.57227
903.4451, 10.77344
903.9272, 0.2675780
904.4093, 76.78125
904.8914, 121.6973
905.3735, 109.3027
905.8557, 92.67578
906.3378, 97.01562
906.8199, 109.7793
907.3020, 112.8145
907.7841, 104.1387
908.2662, 94.17773
908.7484, 79.01367
909.2305, 70.99414
909.7126, 88.72461
910.1947, 108.9219
910.6768, 97.44531
911.1589, 58.58008
911.6411, 30.48438
912.1232, 34.70312
912.6053, 53.69727
913.0874, 75.89648
913.5695, 97.90234
914.0516, 116.1797
914.5338, 131.3926
915.0159, 132.9004
915.4980, 120.4004
915.9801, 103.2754
916.4622, 91.99219
916.9443, 86.94531
917.4265, 96.73828
917.9086, 122.8105
918.3907, 124.9863
918.8728, 87.32422
919.3549, 55.13281
919.8370, 83.98242
920.3192, 161.5469
920.8013, 180.7988
921.2834, 106.6191
921.7655, 70.30469
922.2476, 111.3398
922.7297, 154.1270
923.2119, 152.8184
923.6940, 127.8145
924.1761, 117.2188
924.6582, 130.7500
925.1403, 137.9355
925.6224, 128.2422
926.1046, 118.8848
926.5867, 115.0078
927.0688, 116.2695
927.5509, 121.5996
928.0330, 131.3086
928.5151, 148.8809
928.9973, 193.6523
929.4794, 217.2207
929.9615, 154.6680
930.4436, 68.01367
930.9257, 47.98633
931.4078, 84.59766
931.8900, 104.6934
932.3721, 77.46484
932.8542, 52.74023
933.3363, 104.2422
933.8184, 197.3848
934.3005, 235.6992
934.7827, 222.8652
935.2648, 197.8477
935.7469, 174.3418
936.2290, 164.0723
936.7111, 182.0020
937.1932, 213.7559
937.6754, 198.7461
938.1575, 126.5586
938.6396, 99.59180
939.1217, 140.2852
939.6038, 189.5254
940.0859, 220.3027
940.5681, 235.2051
941.0502, 237.4688
941.5323, 225.1465
942.0144, 212.0215
942.4965, 200.6875
942.9786, 185.7871
943.4608, 159.5469
943.9429, 133.5312
944.4250, 116.0957
944.9071, 106.7246
945.3892, 100.4512
945.8713, 74.98242
946.3535, 78.26758
946.8356, 165.3594
947.3177, 243.3105
947.7998, 227.8262
948.2819, 166.2910
948.7640, 150.6152
949.2462, 201.0000
949.7283, 240.8926
950.2104, 209.4473
950.6925, 163.6133
951.1746, 151.8848
951.6567, 161.5371
952.1389, 179.1914
952.6210, 196.8125
953.1031, 193.9863
953.5852, 156.0215
954.0673, 109.1992
954.5494, 81.94141
955.0316, 74.93750
955.5137, 101.5312
955.9958, 154.8613
956.4779, 186.2207
956.9600, 177.5039
957.4421, 158.4609
957.9243, 161.2520
958.4064, 182.3047
958.8885, 212.8652
959.3706, 254.9258
959.8527, 258.8418
960.3348, 206.4121
960.8170, 167.1016
961.2991, 193.2598
961.7812, 252.4512
962.2633, 266.8281
962.7454, 223.4043
963.2275, 193.7109
963.7097, 187.1328
964.1918, 175.4609
964.6739, 133.0879
965.1560, 98.94336
965.6381, 131.5391
966.1202, 221.7363
966.6024, 252.8809
967.0845, 178.7422
967.5666, 114.0039
968.0487, 63.80078
968.5308, 31.77734
969.0129, 26.87109
969.4951, 38.44141
969.9772, 55.99023
970.4593, 79.69922
970.9414, 80.74609
971.4235, 11.50000
971.9056, 38.07227
972.3878, 6.712891
972.8699, 76.76953
973.3520, 90.32031
973.8341, 53.48633
974.3162, 29.08789
974.7983, 50.40234
975.2805, 64.47461
975.7626, 1.705078
976.2447, 67.77344
976.7268, 43.29297
977.2089, 38.02539
977.6910, 77.96680
978.1732, 52.66406
978.6553, 18.24609
979.1374, 23.98438
979.6195, 41.26562
980.1016, 9.300781
980.5837, 47.25000
981.0659, 47.53125
981.5480, 9.888672
982.0301, 59.61914
982.5122, 68.35547
982.9943, 56.61914
983.4764, 48.56445
983.9586, 45.79492
984.4407, 66.76758
984.9228, 111.0352
985.4049, 124.3145
985.8870, 90.61719
986.3691, 44.50781
986.8513, 9.888672
987.3334, 8.533203
987.8155, 10.37109
988.2976, 76.39258
988.7797, 112.9160
989.2618, 113.2832
989.7440, 96.19531
990.2261, 61.00000
990.7082, 20.61914
991.1903, 13.65625
991.6724, 39.48828
992.1545, 30.26562
992.6367, 41.46875
993.1188, 91.54102
993.6009, 101.3008
994.0830, 98.82812
994.5651, 96.21289
995.0472, 93.93945
995.5294, 92.88477
996.0115, 92.83594
996.4936, 95.11328
996.9757, 104.6582
997.4578, 110.5273
997.9399, 114.8027
998.4221, 110.6055
998.9042, 84.93164
999.3863, 45.27539
999.8684, 17.23242
1000.351, 2.939453
1000.833, 6.705078
1001.315, 47.15234
1001.797, 87.23242
1002.279, 100.9961
1002.761, 103.2852
1003.243, 117.3457
1003.725, 144.3086
1004.207, 162.9316
1004.690, 161.3262
1005.172, 152.4629
1005.654, 136.9961
1006.136, 123.1035
1006.618, 120.1523
1007.100, 125.4043
1007.582, 126.8066
1008.064, 121.3496
1008.547, 134.8477
1009.029, 225.1641
1009.511, 307.5254
1009.993, 268.4277
1010.475, 166.0000
1010.957, 112.1992
1011.439, 112.6797
1011.921, 131.9746
1012.403, 154.5781
1012.886, 157.3418
1013.368, 138.8223
1013.850, 112.6016
1014.332, 152.3789
1014.814, 221.4414
1015.296, 213.2773
1015.778, 118.4180
1016.260, 23.76953
1016.742, 2.212891
1017.225, 19.89648
1017.707, 63.53125
1018.189, 118.4395
1018.671, 171.9805
1019.153, 217.4512
1019.635, 218.0977
1020.117, 157.3574
1020.599, 85.05664
1021.082, 81.62500
1021.564, 115.4629
1022.046, 117.9902
1022.528, 91.65625
1023.010, 72.16016
1023.492, 64.04688
1023.974, 69.05664
1024.456, 89.30273
1024.938, 107.2969
1025.421, 100.5352
1025.903, 70.20312
1026.385, 70.66406
1026.867, 106.1094
1027.349, 128.2617
1027.831, 124.0781
1028.313, 125.4102
1028.795, 159.3633
1029.278, 201.5273
1029.760, 189.6758
1030.242, 111.5547
1030.724, 87.08594
1031.206, 139.5742
1031.688, 162.4766
1032.170, 117.0977
1032.652, 53.25391
1033.135, 7.292969
1033.617, 11.82031
1034.099, 5.230469
1034.581, 36.97656
1035.063, 74.58984
1035.545, 112.1719
1036.027, 133.7266
1036.509, 124.1680
1036.991, 109.1719
1037.474, 117.3750
1037.956, 145.1914
1038.438, 153.7695
1038.920, 127.1641
1039.402, 110.9414
1039.884, 102.6055
1040.366, 111.2305
1040.848, 153.7695
1041.330, 197.9922
1041.813, 229.9883
1042.295, 252.1172
1042.777, 237.1445
1043.259, 131.1641
1043.741, 67.80859
1044.223, 78.78125
1044.705, 114.8398
1045.187, 185.5742
1045.670, 251.1289
1046.152, 221.4570
1046.634, 71.61719
1047.116, 2.117188
1047.598, 94.15234
1048.080, 97.62109
1048.562, 0.0000000E+00
##END=



